<?xml version="1.0"?>
<xrdMeasurements xmlns="http://www.xrdml.com/XRDMeasurement/2.3" xmlns:xsi="http://www.w3.org/2001/XMLSchema-instance" xsi:schemaLocation="http://www.xrdml.com/XRDMeasurement/2.3 http://www.xrdml.com/XRDMeasurement/2.3/XRDMeasurement.xsd" status="Completed" recordIdentifier="{3F835563-55ED-4939-B66F-DB8C4236D6CA}">
	<comment>
		<entry/>
	</comment>
	<sample type="To be analyzed">
		<id>GPSS_Li2Zn0p5Mn0p5Cl4_122325_694ae824ae15af25ac37277d</id>
		<name></name>
		<preparedBy></preparedBy>
	</sample>
	<xrdMeasurement measurementType="Scan" status="Completed" sampleMode="Reflection">
		<usedWavelength intended="K-Alpha 1">
			<kAlpha1 unit="Angstrom">1.5405980</kAlpha1>
			<kAlpha2 unit="Angstrom">1.5444260</kAlpha2>
			<kBeta unit="Angstrom">1.3922500</kBeta>
			<ratioKAlpha2KAlpha1>0.5000</ratioKAlpha2KAlpha1>
		</usedWavelength>
		<incidentBeamPath>
			<radius unit="mm">145.00</radius>
			<xRayTube id="1010048" name="Empyrean Cu LFF HR (9430 033 7310x)">
				<tension unit="kV">40.0</tension>
				<current unit="mA">15.0</current>
				<anodeMaterial>Cu</anodeMaterial>
				<focus type="Line">
					<length unit="mm">12.0</length>
					<width unit="mm">0.4</width>
					<takeOffAngle unit="deg">6.0</takeOffAngle>
				</focus>
			</xRayTube>
			<sollerSlit id="21010002" name="Soller slits 0.04 rad.">
				<opening unit="rad">0.0400</opening>
			</sollerSlit>
			<mask id="22031000" name="Fixed mask 13 mm">
				<width unit="mm">9.00</width>
			</mask>
			<divergenceSlit id="22120001" name="Divergence slit 1°" xsi:type="fixedDivergenceSlitType">
				<distanceToSample unit="mm">50.00</distanceToSample>
				<height unit="mm">1.52</height>
			</divergenceSlit>
		</incidentBeamPath>
		<sampleMovement xsi:type="spinningSampleMovementType">
			<spinnerRevolutionTime unit="seconds">1.0</spinnerRevolutionTime>
		</sampleMovement>
		<diffractedBeamPath>
			<radius unit="mm">145.00</radius>
			<antiScatterSlit id="22090040" name="AS slit 9 mm (PIXcel)" xsi:type="fixedAntiScatterSlitType">
				<height unit="mm">9.00</height>
			</antiScatterSlit>
			<sollerSlit id="21020003" name="Large Soller slits 0.04 rad.">
				<opening unit="rad">0.0400</opening>
			</sollerSlit>
			<filter id="20030001" name="Large beta-filter Nickel">
				<material>Ni</material>
				<thickness unit="mm">0.020</thickness>
			</filter>
			<detector id="7010019" name="PIXcel1D-Medipix3 detector" xsi:type="rtmsDetectorType">
				<phd unit="keV">
					<lowerLevel>4.02</lowerLevel>
					<upperLevel>11.27</upperLevel>
				</phd>
				<mode>Scanning</mode>
				<activeLength unit="deg">5.542</activeLength>
			</detector>
		</diffractedBeamPath>
		<scan appendNumber="0" mode="Continuous" scanAxis="Gonio" status="Completed">
			<header>
				<startTimeStamp>2025-12-25T14:34:38-08:00</startTimeStamp>
				<endTimeStamp>2025-12-25T14:42:45-08:00</endTimeStamp>
				<author>
					<name>AutomatedUser</name>
				</author>
				<source>
					<applicationSoftware version="1.7b (136)">PANalytical Aeris Instrument Suite</applicationSoftware>
					<instrumentControlSoftware version="3.2.00000000 20240306">AERIS</instrumentControlSoftware>
					<instrumentID>950485</instrumentID>
				</source>
			</header>
			<dataPoints>
				<positions axis="2Theta" unit="deg">
					<startPosition>10.00943322</startPosition>
					<endPosition>99.99442286</endPosition>
				</positions>
				<positions axis="Omega" unit="deg">
					<startPosition>5.00471661</startPosition>
					<endPosition>49.99721143</endPosition>
				</positions>
				<commonCountingTime unit="seconds">12.495</commonCountingTime>
				<counts unit="counts">2924 2968 2841 2981 2860 2900 2963 2943 3007 2865 2863 2873 2873 2857 2967 2985 2834 2868 3013 2937 2951 2983 2918 2955 2887 2881 2898 2883 2889 2936 2942 2902 2903 2945 2937 2957 3050 2912 2921 2911 2949 2897 2874 2930 3002 2925 2942 2941 2954 3010 2884 3052 2963 2929 2961 2953 2965 2998 2996 2984 2903 2867 2955 2869 2914 2995 3014 3053 2924 2957 2911 2934 2936 2993 2979 2982 2840 2985 2951 2990 3100 2995 3036 3030 2954 3103 3094 2980 2990 3084 3038 3094 3076 3101 3117 3049 3161 3053 3120 3015 3049 3092 3174 3199 3202 3223 3167 3131 3172 3333 3084 3245 3192 3275 3321 3172 3258 3127 3237 3165 3251 3117 3233 3033 3143 3124 3170 3120 3038 3007 2966 2975 2995 3084 3113 2919 3096 3006 3108 2978 3063 3029 3131 2844 2905 2913 2931 2974 2945 2955 2941 2885 2981 2856 3015 2976 3016 2927 3004 2940 2943 2964 2871 2961 2873 2856 2987 2835 2981 3034 2960 2924 2872 2853 3024 2977 2914 2873 2928 2878 2892 2910 2836 2798 2926 2955 2953 2980 2974 2912 2908 2960 2963 2941 2918 2934 3037 2950 2841 2975 3017 2853 2771 2921 2824 2887 2865 2906 2911 2821 2863 2889 2819 2833 2900 2949 2846 2912 2886 2951 2831 2951 2804 2876 2819 2785 2883 2930 2891 2886 2958 2902 2853 2769 2806 2902 2869 2849 2747 2810 2816 2879 2905 2880 2866 2925 2824 2839 2842 2881 2828 2867 2795 2717 2886 2744 2893 2893 2856 2788 2962 2802 2837 2814 2847 2822 2816 2896 2766 2782 2809 2767 2817 2915 2754 2880 2729 2799 2715 2730 2723 2842 2847 2904 2882 2910 2832 2877 2832 2819 2799 2798 2913 2737 2814 2862 2853 2832 2828 2909 2824 2857 2832 2851 2792 2927 2847 2867 2816 2867 2887 2788 2837 2852 2871 2887 2932 2862 2843 2868 2830 2964 2849 2859 2925 2957 2901 2978 2955 2997 2853 2998 2922 3084 2859 3012 3024 2944 3022 2981 3079 3033 3057 3029 3056 3055 2954 3054 2925 3059 3009 3031 3029 3033 3092 2979 3122 3209 3065 2993 3015 3140 3233 3144 3110 3206 3194 3191 3167 3129 3067 3122 3174 3043 3072 3129 3148 3216 3180 3296 3388 3250 3174 3211 3179 3291 3242 3107 3294 3160 3251 3200 3368 3275 3172 3274 3334 3314 3296 3358 3431 3418 3233 3391 3364 3315 3359 3368 3319 3352 3441 3497 3325 3462 3558 3486 3491 3387 3440 3402 3379 3499 3418 3367 3371 3484 3459 3452 3436 3576 3474 3439 3497 3522 3570 3591 3501 3635 3648 3690 3596 3719 3569 3621 3545 3631 3611 3688 3604 3793 3564 3780 3619 3759 3629 3679 3712 3687 3658 3586 3648 3586 3467 3459 3429 3384 3416 3401 3537 3482 3278 3340 3360 3421 3329 3331 3410 3326 3331 3399 3272 3232 3154 3258 3198 3191 3173 3212 3211 3216 3119 3190 3133 3139 3116 3159 3145 3121 3119 3185 3087 3051 3133 3125 3074 3041 3109 3050 3158 3118 3058 3033 3073 3138 2975 3132 3057 3051 3060 3012 3036 3088 2967 2993 3038 2992 2973 2970 3048 3110 3055 3116 3068 2969 2980 3039 3034 2986 3013 2955 2989 2847 2866 2934 2950 3015 2957 2931 2917 3007 2904 2960 3017 3018 2938 2917 3058 2998 3009 2874 2973 2946 2839 3069 2901 2960 2984 2981 2974 2863 2877 2939 2987 2985 2991 2993 2971 2880 3021 3007 3075 2979 3050 2852 3020 2966 2915 2989 2886 2945 2958 2962 2927 2894 2937 2939 2871 2986 2839 2852 2880 2926 2955 2839 3045 2846 2964 2897 2785 2882 2835 2761 2748 2852 2676 2732 2851 2759 2694 2696 2695 2708 2641 2735 2758 2719 2716 2745 2727 2677 2636 2760 2692 2789 2731 2798 2668 2693 2657 2733 2765 2581 2660 2687 2790 2793 2685 2753 2651 2731 2741 2772 2728 2705 2606 2733 2778 2739 2785 2786 2789 2654 2673 2731 2792 2642 2670 2730 2727 2780 2769 2688 2775 2796 2715 2711 2766 2797 2745 2692 2664 2780 2814 2755 2797 2758 2705 2839 2743 2750 2677 2772 2839 2657 2680 2698 2757 2727 2683 2724 2679 2714 2706 2765 2607 2624 2694 2610 2703 2579 2640 2681 2616 2614 2651 2602 2664 2614 2615 2591 2620 2779 2513 2651 2632 2537 2607 2597 2571 2725 2608 2591 2736 2610 2597 2631 2606 2590 2578 2576 2491 2586 2560 2672 2607 2662 2558 2649 2538 2668 2620 2619 2564 2675 2638 2681 2674 2631 2613 2533 2695 2754 2685 2597 2736 2603 2758 2586 2651 2658 2697 2704 2707 2616 2659 2604 2744 2680 2598 2660 2642 2756 2625 2631 2602 2659 2641 2724 2644 2669 2709 2667 2718 2678 2727 2656 2652 2585 2636 2637 2520 2608 2636 2623 2577 2674 2657 2685 2563 2661 2680 2608 2568 2662 2650 2563 2670 2611 2664 2489 2672 2656 2604 2615 2681 2650 2689 2700 2681 2645 2725 2708 2512 2569 2535 2579 2512 2650 2628 2524 2478 2581 2568 2552 2483 2515 2446 2529 2566 2489 2483 2445 2454 2524 2330 2506 2464 2577 2392 2396 2504 2505 2572 2422 2436 2507 2477 2507 2411 2428 2421 2384 2423 2368 2377 2359 2485 2411 2437 2402 2418 2436 2523 2406 2374 2414 2262 2419 2390 2475 2453 2482 2430 2328 2466 2290 2420 2407 2344 2367 2359 2430 2352 2421 2393 2422 2422 2328 2342 2364 2332 2401 2319 2308 2473 2472 2437 2380 2410 2405 2479 2421 2375 2339 2297 2322 2365 2319 2384 2372 2319 2414 2390 2350 2417 2423 2405 2387 2441 2399 2385 2371 2408 2296 2470 2266 2369 2372 2424 2347 2374 2435 2408 2431 2400 2411 2281 2515 2384 2422 2437 2488 2427 2367 2355 2248 2325 2278 2306 2347 2359 2348 2290 2385 2392 2324 2254 2252 2300 2197 2399 2360 2298 2247 2279 2216 2249 2280 2250 2297 2276 2238 2287 2307 2254 2231 2324 2226 2356 2328 2398 2331 2364 2302 2354 2299 2300 2296 2200 2364 2273 2341 2303 2348 2327 2218 2204 2263 2335 2229 2281 2346 2259 2292 2149 2254 2259 2341 2240 2323 2296 2347 2351 2244 2313 2254 2331 2207 2316 2292 2358 2361 2273 2297 2294 2413 2345 2268 2225 2320 2371 2324 2272 2273 2230 2324 2330 2334 2246 2347 2357 2258 2390 2274 2218 2331 2341 2337 2232 2324 2393 2319 2393 2294 2255 2291 2306 2289 2392 2363 2329 2345 2288 2301 2333 2371 2391 2349 2331 2315 2410 2348 2276 2318 2378 2310 2319 2169 2275 2302 2327 2254 2360 2428 2303 2343 2297 2282 2370 2275 2422 2362 2295 2251 2386 2298 2310 2333 2297 2285 2325 2249 2350 2439 2299 2246 2316 2214 2372 2347 2274 2261 2274 2322 2278 2384 2278 2313 2365 2245 2355 2313 2296 2308 2334 2256 2229 2231 2165 2223 2105 2244 2093 2262 2206 2194 2174 2183 2223 2278 2292 2125 2083 2208 2138 2175 2141 2082 2092 2174 2135 2148 2127 2147 2137 2031 2116 2137 2113 2140 2062 2029 2103 2081 2071 2144 2013 2097 2061 2067 2123 2112 2170 2094 2051 1976 2148 2080 2077 2068 2115 2148 2052 2079 2037 2016 2037 2099 2105 2088 2047 2098 2065 2026 1996 2008 2037 1914 2012 2055 2061 1953 1994 1907 1919 1976 1910 1919 1925 1910 1862 1936 1828 1948 1891 1904 1998 1871 1956 1894 1950 2009 1946 1914 1831 1876 1846 1867 1962 1896 1959 1867 1833 1888 1845 1841 1868 1934 1906 1851 1915 1980 1909 1847 1834 1825 1810 1787 1854 1889 1852 1745 1877 1745 1782 1762 1827 1855 1777 1717 1858 1833 1839 1779 1884 1814 1738 1784 1804 1761 1848 1720 1825 1773 1772 1748 1723 1710 1781 1823 1750 1825 1812 1765 1777 1723 1793 1913 1836 1862 1843 1795 1851 1892 1865 1873 1891 1917 1907 1885 1935 1890 1873 1969 1898 1865 1916 1889 1843 1918 1827 1795 1857 1781 1844 1798 1796 1828 1908 1814 1870 1824 1842 1774 1825 1842 1774 1790 1730 1687 1722 1730 1723 1627 1678 1656 1735 1645 1691 1710 1555 1605 1589 1576 1609 1626 1603 1562 1623 1647 1601 1669 1673 1628 1610 1563 1632 1628 1634 1645 1636 1625 1620 1643 1549 1607 1575 1584 1631 1626 1590 1639 1658 1670 1575 1565 1646 1601 1595 1620 1586 1631 1572 1573 1649 1627 1694 1607 1660 1603 1609 1673 1690 1606 1639 1584 1665 1656 1660 1601 1641 1668 1684 1592 1630 1655 1633 1635 1644 1630 1633 1647 1618 1566 1625 1542 1668 1613 1683 1610 1632 1639 1693 1647 1671 1653 1694 1663 1598 1680 1567 1546 1621 1621 1655 1635 1608 1561 1622 1645 1681 1591 1640 1662 1586 1679 1639 1550 1611 1624 1707 1646 1645 1597 1625 1647 1573 1612 1542 1602 1576 1665 1558 1598 1634 1592 1649 1615 1553 1594 1615 1561 1634 1558 1640 1549 1602 1570 1617 1584 1598 1663 1561 1598 1631 1627 1566 1535 1548 1622 1585 1595 1611 1565 1647 1536 1587 1626 1568 1552 1627 1572 1653 1576 1606 1680 1548 1566 1592 1552 1654 1532 1571 1566 1575 1591 1604 1541 1586 1587 1582 1638 1605 1534 1598 1575 1493 1557 1556 1520 1507 1555 1589 1570 1485 1520 1494 1569 1563 1521 1558 1520 1462 1494 1501 1548 1539 1455 1508 1522 1461 1561 1582 1515 1528 1470 1529 1510 1510 1496 1470 1496 1525 1425 1492 1483 1542 1459 1455 1494 1490 1504 1481 1392 1484 1417 1445 1418 1430 1429 1471 1425 1393 1444 1476 1500 1397 1425 1512 1393 1502 1464 1466 1390 1436 1395 1395 1475 1439 1425 1473 1397 1472 1440 1417 1488 1452 1513 1447 1478 1517 1504 1455 1513 1521 1477 1512 1568 1505 1559 1553 1578 1565 1506 1514 1608 1534 1542 1452 1583 1547 1531 1482 1605 1400 1575 1519 1465 1553 1551 1526 1513 1460 1544 1601 1617 1586 1570 1588 1639 1617 1633 1680 1674 1680 1679 1639 1690 1649 1703 1658 1699 1685 1741 1653 1755 1729 1720 1746 1688 1652 1617 1758 1718 1704 1631 1695 1650 1664 1700 1696 1635 1712 1730 1619 1757 1675 1595 1659 1696 1673 1640 1628 1610 1601 1596 1558 1569 1636 1692 1568 1695 1503 1588 1549 1490 1526 1574 1508 1539 1545 1544 1555 1541 1588 1559 1598 1521 1552 1507 1524 1518 1548 1563 1505 1458 1476 1419 1499 1506 1420 1391 1359 1413 1399 1434 1317 1369 1357 1262 1300 1356 1317 1318 1358 1282 1332 1280 1318 1313 1310 1354 1352 1339 1395 1356 1423 1425 1374 1509 1513 1500 1499 1547 1564 1580 1578 1578 1633 1745 1650 1764 1759 1747 1737 1741 1789 1900 1824 1885 2055 1984 1945 2017 2010 1990 2019 1989 1966 1908 1951 1910 1979 1997 1980 1998 2024 2147 2102 2020 2103 2094 2074 2052 2103 2024 1986 2024 1879 1880 1969 1959 1890 1928 2049 1989 1969 1993 1995 2057 1968 1883 2017 1984 2016 1892 1821 1887 1861 1813 1908 1886 1844 1809 1861 1870 1820 1709 1814 1694 1744 1616 1678 1643 1499 1536 1366 1471 1391 1426 1321 1332 1206 1232 1150 1183 1210 1165 1142 1206 1174 1115 1136 1122 1112 1162 1157 1172 1039 1100 1103 1103 1125 1076 1021 1132 1088 1133 1068 1083 1132 1141 1144 1069 1082 1086 1103 1116 1160 1194 1101 1137 1133 1102 1103 1151 1129 1128 1150 1174 1163 1130 1180 1169 1088 1113 1126 1050 1105 1138 1110 1111 1088 1096 1098 1143 1099 1082 1069 1073 1075 1105 1097 1122 1117 1110 1170 1100 1115 1105 1078 1132 1099 1169 1101 1165 1127 1124 1160 1149 1094 1144 1132 1091 1222 1150 1192 1221 1204 1176 1271 1248 1288 1278 1331 1271 1358 1393 1390 1392 1407 1457 1344 1365 1340 1353 1319 1341 1345 1282 1250 1300 1215 1231 1289 1213 1200 1266 1226 1220 1215 1252 1213 1207 1210 1103 1175 1111 1168 1065 1093 1051 1062 1027 1094 1025 1059 1035 1060 966 973 1024 1010 1020 974 968 959 961 995 977 975 943 940 1004 1008 991 974 947 980 1004 972 981 996 978 991 991 969 1027 1056 992 1024 1044 1059 1042 1088 1108 1096 1189 1183 1136 1151 1203 1182 1169 1167 1262 1199 1204 1283 1241 1214 1210 1173 1124 1241 1212 1131 1174 1117 1160 1102 1141 1146 1137 1178 1110 1134 1189 1154 1196 1137 1157 1127 1114 1158 1157 1119 1157 1083 1126 1121 1134 1102 1098 1107 1024 1025 1061 1043 1073 993 996 1014 984 1060 1010 988 960 936 1024 1020 991 1027 1039 1023 998 986 1018 1010 974 991 1048 1010 1038 1033 1026 1041 971 988 1040 1036 1043 1012 1010 983 1029 994 1023 965 1043 1016 1033 1007 1037 1005 1078 951 1042 982 977 1052 995 999 989 985 923 980 981 992 1042 997 954 1015 1012 1091 999 946 1012 1053 1003 919 1031 981 969 982 998 979 931 979 943 1003 1052 977 952 992 991 1002 954 1059 1012 979 1005 1098 1072 1116 1170 1201 1185 1268 1352 1402 1413 1479 1645 1605 1748 1857 1942 1986 2183 2327 2402 2566 2700 2880 3047 3233 3360 3812 4130 4330 4653 4978 5302 5616 5781 5567 5306 5034 4924 4791 4633 4427 4393 4065 3811 3573 3379 3118 3036 2843 2733 2718 2535 2493 2417 2497 2452 2269 2324 2160 2086 2038 2043 2018 1971 2017 1982 2104 2037 2130 2145 2158 2244 2293 2325 2470 2426 2341 2338 2247 2207 2159 1979 1932 1890 1885 1709 1596 1617 1574 1526 1439 1417 1392 1296 1411 1264 1277 1237 1187 1179 1217 1169 1135 1147 1130 1077 1033 968 1015 941 1010 907 920 963 933 953 888 850 945 887 871 869 898 909 879 868 850 834 836 871 906 860 843 813 832 839 774 831 889 886 850 824 829 763 855 842 870 801 818 852 813 847 862 860 826 847 845 856 897 872 847 805 881 824 862 856 869 885 853 835 849 887 892 879 854 882 817 862 869 868 863 852 870 893 835 858 834 900 828 831 879 844 876 883 888 887 898 880 900 880 868 834 916 849 865 836 836 832 878 851 885 842 832 886 860 821 829 898 853 866 807 829 815 814 829 860 824 808 846 761 784 799 836 834 831 749 785 836 819 830 822 807 738 737 819 818 789 784 784 777 744 758 762 782 782 793 816 804 817 759 799 770 763 790 798 789 765 801 787 776 753 823 836 805 756 783 779 760 787 796 803 782 768 785 769 780 808 749 735 812 731 765 760 826 717 803 777 782 776 767 751 777 734 797 772 748 749 769 723 812 797 772 758 793 761 822 730 779 815 768 741 814 818 768 751 765 872 787 750 784 777 781 776 838 811 816 739 791 781 753 789 782 828 695 758 799 845 782 824 743 837 768 832 779 790 795 794 823 812 807 814 853 741 842 810 833 875 791 850 837 823 818 820 803 815 754 823 835 792 859 774 766 807 748 745 847 734 758 833 793 806 786 777 756 794 752 768 810 786 713 770 734 772 735 776 743 732 735 727 755 802 729 763 714 764 728 702 736 714 770 739 747 770 749 694 758 715 680 745 708 698 760 752 733 706 782 739 793 728 707 768 739 764 700 721 755 676 756 735 767 765 800 755 681 673 760 740 774 748 716 727 772 746 729 717 662 729 778 722 753 735 753 725 718 735 715 718 726 740 690 707 691 721 733 747 717 710 815 708 707 704 726 703 693 742 687 692 675 714 698 684 778 722 700 730 675 722 696 714 723 758 757 748 776 741 796 735 756 732 747 760 739 711 813 779 783 763 783 777 763 772 778 756 753 772 760 723 799 764 773 756 765 765 715 731 749 783 780 691 740 717 776 737 713 774 756 722 742 739 691 721 710 725 722 713 673 688 766 735 705 649 682 737 701 735 702 740 711 710 697 718 709 740 719 707 689 712 705 696 698 723 704 670 730 704 708 706 737 709 747 664 722 690 687 681 696 709 669 673 700 677 692 661 654 661 695 676 699 739 716 704 749 739 750 703 733 733 726 729 699 735 747 742 732 732 724 727 715 784 722 732 716 791 709 715 648 730 740 721 680 690 750 708 684 688 701 694 689 700 683 682 670 699 656 701 673 678 644 692 676 697 620 640 620 668 681 655 639 675 615 639 646 655 646 682 664 681 699 697 680 681 661 685 687 696 671 661 661 660 684 702 695 663 668 624 674 656 628 673 673 658 667 653 657 680 643 635 674 702 681 635 712 704 700 660 665 641 729 681 662 673 692 692 672 673 596 684 707 729 681 677 657 689 687 655 656 708 642 677 731 671 712 668 687 697 690 678 649 696 672 690 713 693 724 646 699 679 682 669 679 648 648 732 717 670 690 672 708 659 668 671 670 700 681 678 717 682 713 696 698 699 673 732 686 697 698 794 743 749 739 723 746 729 743 753 713 765 790 767 811 819 839 783 834 797 848 768 861 837 787 791 790 753 817 817 791 760 791 795 779 819 796 812 759 750 806 731 702 790 726 721 722 714 685 686 765 739 702 692 726 705 687 724 659 676 690 676 689 690 717 681 698 647 678 673 674 644 698 713 640 680 652 651 686 614 691 644 621 679 693 683 672 628 670 599 650 706 719 661 664 669 678 693 683 642 709 676 726 689 687 706 646 721 760 674 707 723 681 739 711 776 717 717 696 685 747 753 791 724 784 694 737 704 708 785 734 769 749 704 758 711 665 744 723 663 704 716 732 693 735 718 765 725 698 700 715 731 711 727 747 723 686 680 721 685 681 710 679 702 735 699 730 682 654 719 674 721 690 706 691 706 659 672 706 697 697 613 661 673 675 696 681 660 679 676 674 657 688 734 681 739 704 760 705 738 760 789 815 777 831 823 818 860 825 841 864 884 925 884 928 873 964 904 933 906 912 936 991 873 948 932 943 895 939 930 918 884 871 872 824 835 863 866 836 830 848 821 785 824 826 783 794 771 773 741 731 773 711 741 718 775 732 765 751 753 725 746 774 775 839 761 766 817 824 770 782 824 810 800 754 763 783 772 853 755 783 786 762 726 776 788 705 790 767 786 776 761 717 683 753 725 695 765 718 730 739 686 661 690 694 680 673 671 644 703 663 694 618 637 672 645 654 650 652 626 684 609 629 657 655 633 677 637 648 697 605 615 606 637 642 670 639 678 654 646 693 656 640 637 647 624 639 654 691 676 649 662 659 695 662 673 636 705 578 639 652 630 616 658 676 627 672 673 645 686 668 660 638 637 661 629 651 622 647 668 660 666 665 575 645 622 667 665 701 628 660 649 627 657 629 654 632 718 655 663 612 691 625 645 665 634 626 662 675 656 651 687 641 665 692 667 646 651 666 621 654 622 688 646 668 676 683 673 638 649 627 608 664 598 586 643 692 661 635 618 640 604 635 665 662 645 601 629 654 592 649 639 588 659 633 618 651 675 589 592 634 662 632 621 643 669 639 628 670 681 646 628 638 672 641 661 647 627 677 656 670 616 686 612 623 668 703 722 728 722 649 719 669 716 705 692 670 678 705 729 736 695 729 701 664 676 672 689 668 667 686 696 672 646 654 668 681 685 666 674 707 627 672 677 660 670 656 699 633 696 633 674 644 616 677 641 700 658 652 678 641 707 647 665 676 711 663 693 675 685 673 679 702 691 708 710 759 705 749 731 700 707 719 698 730 725 807 703 773 717 764 727 745 759 784 818 858 809 824 822 835 872 913 964 1034 1070 1040 1109 1199 1253 1300 1272 1416 1457 1520 1636 1751 1780 1790 1832 1963 2040 2195 2187 2316 2354 2431 2426 2524 2560 2684 2675 2690 2540 2503 2470 2425 2293 2187 2265 2204 2202 2170 2045 2029 2018 1943 1852 1844 1682 1744 1575 1494 1443 1335 1316 1253 1221 1169 1158 1103 1085 1105 1048 1084 1019 1044 1022 1078 1022 1030 1081 1028 1045 1176 1106 1181 1100 1178 1159 1222 1261 1354 1370 1388 1433 1391 1409 1434 1375 1518 1465 1527 1524 1589 1553 1531 1600 1505 1491 1483 1450 1446 1394 1387 1397 1356 1299 1318 1246 1277 1220 1142 1092 1157 1077 1003 1029 1001 959 938 869 928 875 832 853 835 774 759 783 802 738 714 754 775 737 717 698 714 739 698 637 722 692 679 680 718 654 677 674 631 644 697 654 658 675 642 648 627 643 699 656 649 670 615 661 619 620 600 621 630 650 636 604 603 629 655 627 646 552 629 576 656 620 607 654 612 614 613 614 655 578 607 604 633 636 637 626 635 614 654 604 621 610 593 606 588 603 615 634 611 619 650 649 577 629 645 626 625 626 612 614 640 635 648 619 619 655 632 660 625 618 662 684 710 632 658 672 665 680 650 664 702 710 705 723 731 707 722 742 681 683 662 716 714 691 685 661 689 733 691 644 676 692 642 676 660 674 650 641 671 660 617 611 630 638 609 618 640 638 605 625 596 591 603 615 547 613 588 616 606 631 631 602 635 634 710 628 596 641 614 594 573 628 666 637 622 638 616 623 598 612 603 618 635 665 658 647 617 677 642 645 614 620 597 640 659 630 619 633 678 598 593 628 628 620 604 623 598 612 606 594 644 605 611 614 606 611 570 610 605 631 599 636 629 641 563 539 626 626 566 589 611 591 598 606 587 626 602 623 576 618 614 579 645 583 622 550 626 596 598 648 607 665 608 645 650 611 650 704 654 725 727 711 735 728 799 794 768 776 818 771 853 835 756 819 801 788 761 736 795 758 807 714 738 726 696 727 688 715 724 704 713 750 667 684 683 726 691 680 711 680 671 659 641 595 636 624 684 657 595 612 616 598 615 665 607 600 574 568 597 621 639 560 569 615 597 568 636 531 584 553 605 633 541 561 562 591 609 592 608 586 604 528 594 563 563 558 540 584 542 581 588 562 566 574 575 593 564 541 615 521 534 547 548 534 567 598 588 568 550 574 577 549 551 545 529 565 529 548 577 550 567 567 543 558 542 570 550 570 555 489 548 543 533 556 537 547 567 554 533 537 528 539 575 578 545 517 590 553 568 520 546 562 578 567 545 517 551 570 547 591 570 603 588 554 584 546 571 563 589 591 600 563 555 552 573 574 589 560 583 533 579 570 599 571 609 553 575 553 618 540 568 561 590 571 545 560 580 522 587 542 544 529 518 573 555 569 526 553 556 531 571 536 547 532 538 557 536 561 549 563 578 552 520 574 552 520 605 558 596 557 566 529 601 572 545 558 568 554 571 612 599 583 586 540 603 522 558 565 516 534 611 568 553 541 541 554 613 565 521 539 539 562 539 580 537 580 540 558 545 627 618 606 584 592 540 610 568 615 586 593 600 600 547 556 571 573 616 559 592 589 616 594 576 623 603 560 623 579 589 616 594 550 587 532 645 600 574 590 521 590 563 587 583 569 567 574 588 565 544 587 589 593 558 578 563 608 546 593 565 515 491 527 550 519 539 499 568 542 558 574 582 475 540 568 534 538 565 557 552 565 535 561 564 543 548 542 538 533 513 517 566 573 563 536 535 544 568 533 531 549 500 541 565 597 537 503 576 553 575 520 526 581 549 542 517 539 555 521 558 581 563 545 581 566 609 546 599 575 632 559 587 575 646 569 581 578 599 565 606 612 576 623 624 607 543 597 571 607 602 596 621 599 600 582 587 580 560 520 531 590 585 572 613 577 565 568 581 579 620 601 596 628 580 578 595 568 585 548 591 622 576 619 595 559 581 600 585 665 632 658 643 672 660 643 681 683 690 686 716 729 733 793 742 747 759 731 788 803 807 826 894 848 791 829 829 835 846 880 875 885 776 820 845 844 840 822 772 785 805 830 797 784 825 727 777 776 710 712 717 753 726 710 691 718 671 659 662 679 619 667 624 641 623 634 643 671 630 630 643 592 652 651 590 628 667 577 632 675 646 646 662 600 697 677 715 708 654 759 742 695 764 785 844 811 760 794 779 862 828 856 846 821 881 867 890 888 864 846 844 811 850 837 842 801 839 809 831 817 779 813 804 782 826 750 780 736 774 711 725 736 730 720 676 656 683 669 725 640 611 636 640 619 611 591 599 598 621 599 670 635 597 604 576 628 567 604 594 573 589 622 579 593 588 554 550 632 574 555 570 588 611 555 604 594 668 584 555 611 550 594 576 564 573 585 560 580 556 571 559 543 594 545 522 572 566 571 517 540 579 611 550 570 523 568 623 581 533 572 527 571 551 553 549 571 534 567 486 537 548 556 541 508 535 550 545 520 567 564 547 550 576 601 599 589 598 568 565 571 549 573 546 596 567 589 569 503 602 548 539 554 575 594 586 592 540 603 522 571 567 548 572 620 602 556 604 630 677 637 660 643 661 681 633 697 687 728 745 761 774 813 828 808 851 795 864 910 907 874 932 910 881 902 890 857 850 866 854 832 811 837 807 834 776 806 730 746 745 753 755 719 729 700 655 659 656 639 653 629 585 647 571 586 578 585 559 622 588 562 571 529 552 487 495 532 564 563 515 540 486 520 534 526 566 503 521 528 485 529 528 541 576 554 574 548 586 573 535 560 600 584 604 609 636 634 630 622 594 598 593 630 556 589 607 596 556 589 626 588 574 581 569 611 654 591 566 566 583 564 621 575 550 584 554 605 567 571 592 548 531 521 579 577 593 576 572 553 543 583 579 527 530 573 567 563 568 555 531 550 532 548 522 553 496 467 569 526 515 545 511 526 528 530 552 471 515 531 495 523 487 482 468 516 510 525 499 540 482 516 535 495 564 523 486 562 537 568 489 527 542 502 477 519 495 530 542 512 526 531 543 525 558 514 565 576 537 541 580 540 555 568 542 573 624 589 547 598 536 550 583 588 573 572 604 611 579 564 535 532 566 585 527 548 565 537 546 507 544 502 537 555 561 536 486 509 516 505 523 519 547 546 520 556 520 573 561 518 516 520 499 483 553 498 517 508 512 495 529 487 516 562 496 491 465 508 499 559 608 516 546 531 503 591 500 526 522 531 579 548 540 510 528 520 532 537 514 542 531 531 476 532 460 515 560 534 516 525 528 521 530 541 530 520 540 543 504 538 516 559 506 559 524 521 579 528 528 496 499 516 523 545 534 526 515 508 510 511 527 479 478 486 535 493 522 494 494 497 488 536 478 520 467 504 514 509 523 499 506 531 513 497 489 495 547 499 499 503 495 540 484 495 511 478 540 514 494 516 509 526 509 512 477 474 460 519 516 477 468 518 501 498 496 491 528 448 553 521 517 498 479 538 489 504 515 451 503 513 496 484 538 519 454 519 500 513 515 452 508 483 481 505 495 523 501 505 518 477 513 526 482 483 478 481 486 497 485 484 513 476 501 524 485 471 504 474 523 480 510 454 521 474 517 492 493 508 502 456 524 508 480 507 507 498 503 466 499 487 484 497 521 466 522 496 534 459 460 488 478 456 509 500 514 474 502 500 460 501 498 499 450 500 474 489 510 502 482 504 504 443 468 488 495 475 458 499 494 511 477 466 471 464 498 471 473 479 488 490 447 525 488 470 511 520 486 450 527 502 481 489 491 446 521 468 485 476 463 496 502 509 528 523 478 450 519 488 520 529 501 463 441 465 498 472 490 491 519 469 478 482 511 443 477 478 469 487 450 429 442 458 474 494 499 465 516 526 450 496 495 504 495 490 473 472 478 469 523 520 494 504 522 476 468 546 517 504 480 496 486 494 533 497 505 503 508 484 493 476 512 563 510 487 509 506 538 525 471 497 544 516 496 546 530 483 522 515 516 506 502 503 544 500 513 470 533 524 507 515 484 516 525 516 531 496 471 506 500 451 516 525 499 504 505 493 501 535 506 505 486 529 469 488 454 487 526 506 531 496 460 484 524 478 504 491 510 471 461 481 472 490 519 467 475 471 435 496 483 495 498 481 537 480 479 529 517 506 499 488 530 521 510 537 536 519 536 506 527 487 580 550 588 561 534 537 539 543 508 539 531 504 541 523 546 525 544 510 508 502 510 516 524 502 479 548 490 513 499 521 501 481 478 472 459 475 479 477 531 485 436 471 510 475 475 462 462 492 472 462 466 486 455 480 501 491 444 512 500 484 460 480 512 452 473 457 494 512 499 512 517 448 511 521 478 484 497 471 526 459 485 488 503 512 507 522 504 492 504 513 504 523 508 556 551 511 499 544 507 487 522 469 512 520 504 502 490 570 494 505 511 495 512 490 511 487 514 495 495 491 508 483 512 508 546 513 481 509 526 517 510 456 480 522 493 493 504 490 510 511 513 542 512 516 497 520 508 455 507 469 452 474 493 438 528 531 510 485 487 476 502 531 483 443 456 498 464 499 450 481 449 479 519 520 502 499 521 476 453 497 455 465 475 485 485 519 509 453 501 519 470 523 494 482 515 505 479 525 493 530 551 519 504 501 529 527 524 503 521 524 502 531 502 456 517 446 492 455 463 469 462 494 456 500 525 446 519 494 421 479 513 474 459 475 472 499 519 471 462 472 498 503 540 483 469 510 496 490 507 489 483 476 464 517 500 499 531 446 506 478 508 476 477 495 487 518 531 473 498 561 498 543 554 528 516 528 538 548 577 593 538 601 581 535 623 664 641 729 670 655 691 739 742 783 757 820 802 827 866 869 935 963 1021 1017 1107 1036 1147 1121 1092 1047 1105 1081 1044 986 1009 990 947 976 915 960 883 894 942 942 835 917 939 786 810 848 801 763 748 733 724 713 684 681 685 601 648 618 639 599 587 576 586 588 544 577 549 560 507 522 547 511 556 492 537 519 519 523 517 487 497 522 501 547 512 530 524 534 526 497 568 555 577 548 573 518 520 609 587 522 587 614 592 624 591 642 659 644 709 703 711 784 809 793 779 877 860 852 858 897 886 915 905 933 904 935 897 913 815 868 903 902 884 808 873 796 864 820 852 791 768 763 691 733 696 689 677 672 711 677 625 636 578 614 624 641 591 549 556 531 561 550 527 550 510 524 522 529 513 502 486 504 525 474 500 505 552 468 494 497 495 501 490 471 487 484 523 488 494 495 512 458 468 524 465 458 488 450 476 446 478 484 514 464 505 466 493 462 499 504 499 462 496 473 500 447 442 469 483 497 468 457 455 453 475 494 496 486 479 500 495 447 505 497 470 482 477 469 493 474 493 535 468 456 487 488 486 498 534 496 476 497 450 455 490 421 493 477 465 511 482 494 440 419 427 482 512 503 463 459 435 488 463 487 470 458 476 487 473 470 479 459 443 492 515 463 499 462 497 492 510 491 497 497 449 509 484 515 504 512 515 498 465 514 527 523 507 507 500 551 508 517 536 530 556 518 497 529 534 523 515 510 517 558 543 562 510 506 528 511 500 560 528 485 515 453 560 523 448 508 521 482 500 527 478 511 495 531 479 534 461 546 493 460 518 487 522 487 498 487 495 477 525 462 479 493 486 487 477 488 505 478 444 468 470 507 469 461 494 464 478 494 448 432 451 498 506 442 513 472 456 454 474 486 492 483 516 460 478 482 455 488 483 456 494 481 488 479 457 458 486 444 482 476 510 464 449 479 470 487 520 494 486 497 506 429 504 443 483 504 455 470 429 490 490 526 501 431 457 460 488 542 448 428 466 490 472 475 459 492 445 512 483 499 494 450 498 482 509 445 511 468 468 445 488 457 445 471 462 448 482 494 456 458 487 461 431 462 495 466 500 464 458 470 470 478 463 494 477 464 491 484 437 482 461 471 463 510 495 443 467 459 472 514 442 461 470 480 436 495 455 443 487 480 473 465 505 473 460 472 456 481 498 484 470 474 474 455 474 451 416 497 481 473 482 490 423 468 446 498 489 514 488 469 502 457 470 471 474 454 490 486 463 444 457 502 460 446 469 481 434 461 448 477 481 461 460 456 471 450 456 463 497 443 451 431 480 474 463 504 459 478 479 485 477 458 476 499 496 514 515 434 486 516 502 500 493 507 456 487 496 483 452 525 510 508 500 483 527 507 488 475 500 529 519 514 464 528 510 519 461 523 520 486 522 477 459 458 495 496 540 519 477 497 484 526 450 492 527 496 524 489 499 504 481 496 531 540 488 514 564 481 504 507 529 532 523 532 570 555 544 561 551 483 576 513 570 552 519 583 550 550 531 500 495 550 517 518 538 539 496 539 539 518 542 500 513 514 525 561 587 523 511 509 515 518 527 533 548 542 508 491 489 525 547 535 515 513 496 512 519 548 500 481 553 543 579 540 582 504 545 512 531 499 507 522 532 563 568 547 562 525 545 531 550 537 552 536 524 550 544 527 538 514 572 537 544 528 504 528 542 544 548 496 572 515 521 541 534 492 510 503 529 588 551 522 540 525 540 526 559 495 516 498 555 512 522 528 498 547 581 548 514 527 490 519 512 531 546 536 527 537 461 498 477 505 485 510 518 547 502 533 538 522 539 524 493 526 567 511 505 574 547 506 544 583 528 530 554 573 577 544 503 527 591 560 534 563 556 603 514 577 590 586 539 579 614 521 553 551 573 566 559 577 549 587 602 578 615 548 575 530 554 556 591 572 566 565 598 566 531 588 552 565 613 555 522 591 557 558 553 529 569 538 556 526 559 540 580 504 543 543 568 540 529 510 533 553 518 543 490 513 516 532 551 519 616 529 538 547 518 515 571 555 530 513 526 537 563 513 524 504 555 510 529 512 565 529 542 526 542 559 562 611 515 551 586 597 557 617 568 585 628 608 611 644 626 652 638 634 638 693 724 682 709 736 786 744 765 786 749 753 750 769 784 826 795 762 806 746 759 749 755 737 750 702 735 720 774 759 765 688 745 726 701 667 727 671 666 630 679 618 617 641 661 644 688 626 633 618 599 608 563 562 563 548 553 542 554 554 531 522 506 529 536 558 548 536 530 524 483 446 541 527 521 546 544 502 463 513 527 496 485 458 499 491 534 534 513 543 531 498 556 547 539 517 508 530 479 499 542 501 510 516 531 538 555 495 512 557 530 531 556 571 563 537 568 563 567 521 564 540 559 551 596 592 592 549 544 591 569 591 577 572 553 533 557 560 626 565 611 590 597 578 571 551 579 560 583 547 611 610 593 587 555 525 534 566 556 530 588 547 491 556 528 526 525 534 580 525 505 527 529 541 576 511 465 538 474 510 544 522 531 497 556 530 521 497 512 505 532 511 464 495 521 532 470 512 509 474 552 506 511 504 486 499 522 502 468 501 482 487 487 482 495 486 475 498 481 481 488 463 518 506 469 484 502 480 472 466 455 455 472 448 491 457 461 501 477 495 465 507 464 471 532 462 472 495 436 483 486 462 474 435 545 464 490 469 494 463 522 476 460 493 471 483 485 499 476 434 501 492 479 468 482 489 466 496 476 525 452 460 426 452 507 479 465 534 510 502 474 471 493 433 482 512 491 450 533 519 493 459 482 492 507 488 484 454 512 468 487 471 486 492 488 477 509 459 522 514 475 478 458 466 425 469 499 485 522 465 432 445 448 478 491 477 473 482 477 481 488 477 507 507 440 476 465 450 462 478 488 477 455 457 449 516 513 478 485 477 457 449 467 463 468 495 511 486 465 461 466 486 484 458 499 481 480 488 484 472 508 467 522 485 512 522 499 476 478 502 507 487 493 483 484 508 485 481 488 516 521 496 457 476 479 474 493 462 456 473 485 464 437 456 467 517 502 510 465 512 456 497 474 457 454 492 488 494 479 507 471 465 495 481 478 458 452 513 470 515 448 490 486 465 477 462 468 495 481 472 481 495 483 482 469 474 451 467 454 434 477 460 472 453 453 459 481 477 426 477 428 457 466 422 464 459 497 486 475 456 463 489 476 528 464 471 438 474 499 484 528 446 489 480 451 439 464 480 479 456 450 481 478 429 508 479 514 482 454 432 425 489 462 465 462 456 467 450 496 480 442 484 484 445 426 477 431 516 482 439 462 440 493 500 447 458 490 490 507 476 476 495 484 485 447 467 479 513 490 491 469 460 467 450 461 477 447 458 465 484 437 455 436 498 519 491 481 470 487 433 493 433 517 470 468 478 516 469 458 471 469 462 499 484 523 501 471 497 474 506 486 468 503 501 461 477 486 482 511 464 496 500 512 486 535 508 481 534 504 503 503 512 499 516 496 525 496 503 499 497 470 526 505 492 491 504 505 518 506 504 514 460 498 511 486 513 561 506 501 503 551 527 527 547 503 499 516 523 523 496 521 508 458 519 509 485 514 460 504 524 477 529 518 491 535 496 518 501 543 507 504 488 525 489 525 504 447 498 518 499 521 525 496 487 477 518 506 526 452 490 491 477 478 469 462 469 488 474 493 509 469 483 466 494 481 532 510 487 522 498 502 463 503 489 517 505 462 468 509 501 465 518 499 448 472 482 454 458 492 449 476 518 515 467 457 527 483 483 456 463 466 466 461 512 491 522 511 525 503 511 510 461 464 466 477 496 478 485 523 465 507 496 509 494 486 511 486 500 480 464 509 484 516 489 507 489 539 478 441 482 491 546 519 554 469 474 455 540 501 518 501 538 505 448 489 472 504 493 500 557 508 485 523 509 508 480 507 516 493 524 501 511 483 504 556 498 507 461 473 476 505 492 519 503 499 457 492 490 487 506 520 511 495 444 496 516 466 505 483 488 483 516 482 448 466 477 469 507 453 499 533 468 520 487 508 554 436 493 481 498 514 498 549 477 517 502 512 501 462 468 424 492 486 487 506 505 506 537 514 550 538 502 541 500 559 518 522 512 525 510 580 546 501 539 563 559 541 592 558 573 594 592 599 557 606 612 591 664 682 664 661 687 648 637 702 689 672 722 691 696 716 751 767 747 725 761 681 719 751 717 770 715 731 720 744 751 713 706 656 700 693 710 668 682 705 682 725 676 652 636 611 656 674 684 627 638 665 676 629 604 542 590 569 607 602 575 581 595 569 553 546 595 533 551 585 549 557 532 521 524 515 548 517 527 510 501 552 539 490 484 474 490 550 538 482 511 462 501 482 508 524 480 516 513 482 486 531 504 522 482 476 493 517 522 518 482 480 509 514 509 483 477 544 515 517 512 524 497 512 535 527 591 527 538 461 522 503 522 566 543 536 537 615 537 540 562 575 551 583 584 599 602 598 559 625 582 584 586 585 597 593 615 661 599 637 623 603 619 622 600 572 619 610 618 570 605 578 670 574 612 666 653 625 624 675 573 609 590 604 660 614 644 632 652 615 602 610 567 545 607 573 597 575 603 567 563 545 557 530 548 540 567 586 532 539 554 530 553 545 531 510 544 545 534 549 523 558 491 502 539 541 549 506 509 566 556 510 505 507 496 514 523 488 495 507 503 495 495 497 502 464 473 497 516 512 493 487 483 484 499 491 516 506 542 514 526 495 478 511 500 482 459 512 494 490 498 487 487 458 509 526 478 510 478 520 456 499 480 458 522 460 481 484 491 463 504 504 513 517 524 494 523 512 483 495 471 508 530 531 523 502 539 518 502 571 531 507 532 503 493 529 520 544 537 504 550 529 538 511 533 507 505 499 558 456 516 509 541 508 506 504 445 485 520 528 522 441 502 513 493 481 486 495 492 500 518 503 503 525 452 532 490 526 494 513 491 490 475 474 480 471 482 473 509 454 463 457 464 502 472 458 491 502 492 497 491 438 467 498 487 500 525 509 466 501 465 462 482 458 450 450 427 480 522 499 489 500 431 492 460 485 445 443 464 482 466 465 473 492 463 470 529 477 468 461 472 493 491 466 507 518 460 446 468 480 506 473 435 465 505 455 478 460 477 475 528 489 448 520 445 508 468 536 483 499 486 482 455 446 473 448 472 509 471 483 516 483 479 496 465 512 472 483 523 469 513 463 501 473 497 472 483 493 434 476 484 520 457 482 492 482 460 494 489 498 471 499 485 456 480 461 448 440 500 492 458 495 467 489 447 489 491 467 485 434 441 495 454 496 489 498 488 495 476 480 456 507 516 465 526 479 497 493 481 476 493 470 483 481 490 480 485 451 512 496 477 533 510 473 482 442 482 498 470 463 493 512 503 499 455 505 479 481 491 513 439 478 473 488 499 495 476 445 503 512 522 488 505 502 472 468 517 449 475 474 488 490 473 490 475 462 489 487 516 481 473 499 496 455 481 479 512 512 492 524 479 494 507 487 489 521 512 497 508 533 497 501 506 512 490 498 534 480 487 504 509 498 538 541 531 513 534 480 477 505 538 516 535 522 542 530 549 517 528 542 526 520 566 542 547 508 551 547 549 534 543 545 569 545 524 549 569 575 528 538 533 547 595 546 560 520 534 547 550 544 500 570 539 574 567 503 523 527 532 537 516 539 521 522 525 514 534 499 506 535 538 553 549 523 568 552 554 574 521 565 522 525 552 568 581 543 533 544 563 521 557 533 544 558 502 566 571 532 526 559 525 519 572 551 491 549 527 556 538 512 573 535 501 542 563 526 543 548 559 514 517 528 482 492 512 484 494 487</counts>
			</dataPoints>
		</scan>
	</xrdMeasurement>
</xrdMeasurements>
