<?xml version="1.0"?>
<xrdMeasurements xmlns="http://www.xrdml.com/XRDMeasurement/2.3" xmlns:xsi="http://www.w3.org/2001/XMLSchema-instance" xsi:schemaLocation="http://www.xrdml.com/XRDMeasurement/2.3 http://www.xrdml.com/XRDMeasurement/2.3/XRDMeasurement.xsd" status="Completed" recordIdentifier="{687358E2-3161-4D7C-A98A-ABF952E733C3}">
	<comment>
		<entry/>
	</comment>
	<sample type="To be analyzed">
		<id>GPSS_Li1p5V0p2Mn0p2In0p1Fe0p6Cl4_122125_69474145f4d05ae3d697aee8</id>
		<name></name>
		<preparedBy></preparedBy>
	</sample>
	<xrdMeasurement measurementType="Scan" status="Completed" sampleMode="Reflection">
		<usedWavelength intended="K-Alpha 1">
			<kAlpha1 unit="Angstrom">1.5405980</kAlpha1>
			<kAlpha2 unit="Angstrom">1.5444260</kAlpha2>
			<kBeta unit="Angstrom">1.3922500</kBeta>
			<ratioKAlpha2KAlpha1>0.5000</ratioKAlpha2KAlpha1>
		</usedWavelength>
		<incidentBeamPath>
			<radius unit="mm">145.00</radius>
			<xRayTube id="1010048" name="Empyrean Cu LFF HR (9430 033 7310x)">
				<tension unit="kV">40.0</tension>
				<current unit="mA">15.0</current>
				<anodeMaterial>Cu</anodeMaterial>
				<focus type="Line">
					<length unit="mm">12.0</length>
					<width unit="mm">0.4</width>
					<takeOffAngle unit="deg">6.0</takeOffAngle>
				</focus>
			</xRayTube>
			<sollerSlit id="21010002" name="Soller slits 0.04 rad.">
				<opening unit="rad">0.0400</opening>
			</sollerSlit>
			<mask id="22031000" name="Fixed mask 13 mm">
				<width unit="mm">9.00</width>
			</mask>
			<divergenceSlit id="22120001" name="Divergence slit 1°" xsi:type="fixedDivergenceSlitType">
				<distanceToSample unit="mm">50.00</distanceToSample>
				<height unit="mm">1.52</height>
			</divergenceSlit>
		</incidentBeamPath>
		<sampleMovement xsi:type="spinningSampleMovementType">
			<spinnerRevolutionTime unit="seconds">1.0</spinnerRevolutionTime>
		</sampleMovement>
		<diffractedBeamPath>
			<radius unit="mm">145.00</radius>
			<antiScatterSlit id="22090040" name="AS slit 9 mm (PIXcel)" xsi:type="fixedAntiScatterSlitType">
				<height unit="mm">9.00</height>
			</antiScatterSlit>
			<sollerSlit id="21020003" name="Large Soller slits 0.04 rad.">
				<opening unit="rad">0.0400</opening>
			</sollerSlit>
			<filter id="20030001" name="Large beta-filter Nickel">
				<material>Ni</material>
				<thickness unit="mm">0.020</thickness>
			</filter>
			<detector id="7010019" name="PIXcel1D-Medipix3 detector" xsi:type="rtmsDetectorType">
				<phd unit="keV">
					<lowerLevel>4.02</lowerLevel>
					<upperLevel>11.27</upperLevel>
				</phd>
				<mode>Scanning</mode>
				<activeLength unit="deg">5.542</activeLength>
			</detector>
		</diffractedBeamPath>
		<scan appendNumber="0" mode="Continuous" scanAxis="Gonio" status="Completed">
			<header>
				<startTimeStamp>2025-12-22T14:40:22-08:00</startTimeStamp>
				<endTimeStamp>2025-12-22T14:48:29-08:00</endTimeStamp>
				<author>
					<name>AutomatedUser</name>
				</author>
				<source>
					<applicationSoftware version="1.7b (136)">PANalytical Aeris Instrument Suite</applicationSoftware>
					<instrumentControlSoftware version="3.2.00000000 20240306">AERIS</instrumentControlSoftware>
					<instrumentID>950485</instrumentID>
				</source>
			</header>
			<dataPoints>
				<positions axis="2Theta" unit="deg">
					<startPosition>10.00943322</startPosition>
					<endPosition>99.99442286</endPosition>
				</positions>
				<positions axis="Omega" unit="deg">
					<startPosition>5.00471661</startPosition>
					<endPosition>49.99721143</endPosition>
				</positions>
				<commonCountingTime unit="seconds">12.495</commonCountingTime>
				<counts unit="counts">2761 2904 2977 2912 2976 2916 2990 2953 2905 2910 2930 2840 2940 2945 2933 2900 2867 2889 2939 2865 2888 2902 2964 3061 2876 2944 2971 3007 2964 2943 2917 2897 2963 2884 2897 2879 3107 2938 2989 2939 2987 2997 2979 3038 3054 3028 3009 2935 2933 3013 2971 2993 2986 2954 2966 2921 3031 2968 2975 2988 3033 3003 3113 3013 3062 2978 3201 2976 3139 3027 2995 3098 2923 3038 2954 3072 3025 3028 3007 3103 3062 3217 3191 3097 3077 3139 3170 3116 3230 3100 3168 3159 3167 3082 3231 3155 3203 3216 3237 3145 3244 3106 3148 3154 3151 3171 3164 3184 3233 3258 3163 3166 3223 3232 3303 3214 3282 3151 3249 3187 3223 3140 3256 3273 3156 3081 3224 3232 3223 3343 3152 3209 3217 3129 3188 3145 3360 3151 3245 3305 3159 3275 3262 3290 3188 3208 3151 3234 3309 3270 3304 3275 3276 3206 3216 3250 3179 3244 3254 3277 3306 3052 3317 3164 3279 3204 3337 3145 3180 3227 3312 3152 3167 3211 3161 3306 3201 3231 3132 3339 3242 3196 3230 3169 3178 3148 3278 3201 3186 3201 3226 3257 3189 3167 3148 3195 3201 3176 3026 3269 3220 3115 3096 3176 3124 3104 3174 3151 3221 3195 3230 3112 3142 3164 3176 3144 3212 3129 3112 3029 3156 3092 3153 3134 3040 3147 3189 3022 3113 3123 3219 3121 3111 3097 3221 3139 3160 3098 3132 3065 3093 3051 3095 3138 3167 3052 3079 3150 3131 3088 3114 3076 3118 3034 2978 3066 3149 3044 3119 3007 3204 3045 3197 3115 3027 3083 3052 3054 2996 3162 3052 3036 3132 3102 3001 3151 3100 2991 3146 3031 3137 3051 3033 3155 3057 3085 2966 3054 3034 3053 2977 3050 3055 2982 2985 3063 2954 2983 3021 2960 2968 2992 2955 2983 2958 3030 3053 3088 3023 2988 3074 3097 3087 3056 3079 3086 2993 2981 3074 3157 3064 3060 3078 2996 3152 3087 3061 3021 3106 3026 3098 3191 3058 3079 3040 3030 3054 3173 3084 3035 3095 3175 3098 3118 3050 3110 3096 3099 3118 3095 3059 3088 3073 3075 3055 3074 3130 3017 3235 3114 3183 3118 3253 3116 3216 3201 3208 3140 3238 3181 3164 3272 3023 3203 3243 3275 3183 3107 3204 3250 3310 3171 3299 3218 3145 3320 3229 3235 3263 3218 3179 3254 3245 3200 3307 3170 3356 3292 3231 3348 3275 3330 3343 3359 3290 3327 3383 3211 3346 3348 3365 3370 3330 3342 3348 3426 3366 3465 3416 3370 3352 3556 3447 3539 3381 3337 3535 3441 3635 3623 3601 3601 3528 3470 3538 3628 3477 3690 3546 3564 3669 3626 3511 3580 3482 3552 3660 3598 3619 3660 3630 3732 3807 3695 3745 3756 3692 3742 3759 3851 3850 3820 3845 3835 3885 4076 4017 4001 4088 4005 4035 4121 4172 4460 4287 4302 4257 4308 4434 4502 4374 4414 4351 4359 4389 4212 4047 4104 3958 3907 3908 3862 3781 3647 3634 3567 3632 3600 3387 3458 3395 3345 3404 3306 3271 3370 3388 3396 3323 3383 3282 3387 3275 3328 3243 3379 3389 3332 3305 3255 3213 3249 3192 3240 3196 3159 3200 3243 3228 3083 3202 3063 3147 3154 3191 3126 3130 3243 3153 3118 3153 3093 3062 3054 3137 3030 2957 3054 3072 3137 3024 3089 3092 3107 3141 3042 3058 3073 3046 3005 3049 2998 3075 3005 2946 2981 3011 3029 2977 2964 2949 2899 2870 2829 2989 2861 2862 2875 2842 2787 2890 2914 2963 2888 2900 2904 2954 2926 2912 3007 2936 2894 2975 2844 2965 2789 2913 2861 2887 2986 2818 2846 2863 2894 2823 2861 2803 2850 2875 2923 2868 2912 2846 2849 2843 2851 2850 2807 2917 2816 2776 2831 2753 2843 2862 2828 2838 2804 2771 2856 2843 2814 2842 2742 2867 2803 2740 2811 2774 2819 2749 2840 2758 2746 2802 2736 2738 2833 2711 2821 2771 2729 2752 2746 2777 2835 2694 2817 2754 2742 2715 2759 2729 2753 2739 2681 2712 2827 2769 2844 2695 2710 2756 2799 2635 2661 2693 2701 2738 2770 2705 2771 2797 2665 2694 2787 2629 2736 2782 2735 2740 2788 2745 2733 2700 2695 2768 2654 2708 2659 2650 2772 2699 2650 2669 2779 2640 2733 2703 2650 2734 2722 2704 2632 2650 2744 2629 2655 2660 2658 2699 2638 2697 2740 2680 2670 2670 2719 2640 2672 2650 2677 2671 2693 2588 2608 2557 2527 2694 2610 2572 2673 2647 2693 2692 2677 2589 2682 2677 2617 2661 2672 2667 2747 2740 2654 2688 2607 2580 2633 2578 2516 2625 2659 2737 2737 2622 2638 2568 2591 2665 2625 2611 2604 2639 2613 2639 2586 2584 2604 2549 2639 2604 2562 2670 2552 2569 2712 2593 2612 2555 2590 2628 2535 2583 2536 2609 2582 2618 2635 2561 2717 2532 2611 2679 2572 2494 2672 2504 2628 2645 2550 2550 2560 2530 2500 2546 2507 2619 2586 2666 2630 2654 2606 2546 2652 2621 2590 2563 2572 2490 2491 2561 2607 2477 2475 2567 2534 2522 2568 2557 2533 2577 2591 2550 2426 2537 2577 2591 2471 2547 2561 2496 2495 2556 2437 2409 2539 2531 2573 2372 2485 2493 2567 2609 2463 2612 2520 2549 2502 2547 2509 2530 2487 2436 2524 2416 2513 2469 2467 2571 2509 2522 2540 2532 2592 2519 2517 2436 2513 2560 2585 2505 2430 2481 2457 2442 2510 2369 2497 2429 2442 2445 2444 2473 2478 2412 2355 2515 2442 2410 2339 2525 2469 2534 2378 2507 2394 2479 2511 2381 2478 2422 2417 2427 2439 2496 2449 2432 2407 2450 2385 2413 2466 2385 2417 2482 2454 2450 2444 2454 2429 2416 2340 2408 2344 2497 2397 2331 2397 2403 2429 2350 2325 2428 2327 2329 2334 2429 2385 2380 2451 2378 2408 2453 2408 2450 2399 2335 2356 2371 2381 2402 2454 2379 2316 2389 2480 2514 2453 2388 2321 2267 2385 2443 2379 2411 2439 2312 2340 2429 2388 2390 2268 2414 2430 2346 2356 2386 2299 2410 2389 2374 2409 2330 2352 2415 2374 2285 2357 2336 2336 2387 2408 2408 2410 2303 2387 2378 2370 2397 2408 2294 2256 2354 2396 2288 2340 2389 2384 2338 2326 2295 2361 2419 2363 2375 2321 2458 2394 2307 2344 2382 2361 2370 2393 2275 2409 2233 2384 2309 2300 2349 2315 2425 2365 2340 2412 2446 2235 2338 2314 2239 2332 2380 2393 2361 2321 2265 2325 2444 2345 2331 2307 2386 2437 2366 2312 2418 2345 2346 2316 2332 2297 2422 2210 2395 2372 2374 2377 2462 2394 2402 2418 2388 2440 2297 2419 2346 2412 2321 2394 2293 2325 2375 2358 2361 2316 2368 2332 2414 2349 2313 2375 2358 2304 2406 2316 2347 2354 2372 2279 2292 2332 2352 2330 2330 2422 2388 2292 2395 2370 2333 2429 2368 2331 2297 2361 2366 2294 2293 2392 2293 2395 2216 2452 2343 2361 2248 2296 2252 2316 2256 2303 2330 2180 2324 2286 2264 2207 2317 2325 2279 2285 2240 2313 2164 2203 2295 2250 2331 2245 2234 2333 2183 2259 2239 2251 2232 2334 2206 2226 2238 2205 2253 2205 2171 2176 2145 2162 2283 2232 2266 2132 2176 2187 2179 2195 2202 2139 2189 2123 2125 2165 2129 2150 2198 2196 2148 2117 2054 2062 2023 2191 2069 2110 2181 2096 2044 2101 2098 2065 2077 2110 2154 2085 2170 2103 2102 2069 2062 2187 1995 1980 2096 2101 2006 2066 2079 2021 2088 1982 2029 2079 2023 2012 2066 2039 2069 2003 2036 1988 1989 1991 2022 2009 2029 1925 2010 1927 1949 2084 1944 1921 1916 1969 1930 1975 2029 1987 1911 1949 1964 1947 1939 1824 1901 1979 2031 1925 1924 1963 1906 1932 1875 1934 1908 1914 1872 1855 1904 1876 1822 1899 1818 1924 1980 1876 1920 1858 1981 1890 1810 1737 1969 1808 1890 1964 1861 1883 1875 1858 1775 1860 1789 1856 1894 1850 1878 1961 1871 1869 1790 1809 1937 1777 1839 1816 1851 1861 1871 1816 1841 1823 1853 1851 1805 1851 1825 1879 1809 1881 1810 1849 1735 1894 1833 1870 1855 1810 1810 1827 1864 1868 1793 1873 1906 1728 1812 1822 1914 1893 1763 1719 1751 1825 1864 1796 1799 1845 1854 1772 1768 1863 1852 1821 1794 1803 1832 1826 1832 1781 1782 1774 1759 1852 1843 1791 1777 1850 1789 1842 1718 1707 1817 1747 1797 1750 1737 1738 1783 1805 1835 1755 1693 1779 1745 1812 1728 1799 1768 1772 1839 1730 1799 1841 1798 1755 1831 1759 1734 1746 1702 1744 1851 1786 1777 1814 1863 1738 1741 1784 1808 1831 1806 1822 1838 1802 1760 1796 1757 1826 1771 1770 1735 1754 1733 1839 1872 1750 1742 1775 1838 1818 1790 1828 1815 1916 1899 1780 1843 1768 1801 1747 1779 1857 1746 1876 1810 1808 1862 1776 1790 1789 1767 1818 1810 1796 1789 1888 1791 1802 1784 1864 1797 1809 1789 1785 1896 1816 1807 1812 1817 1869 1899 1790 1784 1791 1815 1808 1830 1767 1820 1819 1868 1817 1774 1853 1823 1789 1849 1766 1898 1849 1877 1742 1663 1837 1842 1747 1866 1823 1850 1877 1804 1771 1850 1755 1789 1765 1833 1812 1772 1785 1794 1800 1853 1802 1817 1839 1745 1794 1850 1778 1746 1836 1786 1761 1703 1761 1785 1716 1737 1785 1736 1703 1763 1796 1689 1760 1770 1707 1773 1736 1661 1773 1714 1749 1737 1681 1711 1740 1771 1656 1696 1618 1702 1702 1730 1702 1675 1677 1714 1720 1749 1774 1688 1712 1711 1727 1641 1697 1577 1669 1728 1696 1717 1660 1623 1693 1602 1634 1627 1588 1626 1666 1646 1747 1613 1583 1760 1662 1623 1636 1612 1607 1626 1559 1666 1583 1615 1603 1570 1626 1612 1597 1550 1665 1566 1620 1552 1622 1578 1525 1585 1656 1516 1530 1578 1635 1623 1591 1650 1594 1572 1528 1531 1551 1513 1614 1578 1534 1589 1576 1504 1600 1525 1569 1603 1610 1531 1518 1551 1555 1525 1560 1518 1517 1526 1535 1506 1584 1521 1514 1604 1542 1557 1617 1577 1573 1581 1661 1638 1678 1633 1638 1670 1701 1608 1770 1614 1602 1631 1674 1654 1611 1607 1618 1668 1617 1602 1599 1520 1535 1633 1558 1528 1626 1597 1647 1646 1616 1614 1668 1675 1641 1686 1753 1760 1785 1748 1736 1773 1755 1736 1729 1732 1811 1975 1872 1838 1867 1855 1890 1821 1955 1931 1979 2006 1934 1994 2001 1922 1883 1922 1884 1848 1841 1743 1760 1707 1661 1771 1662 1678 1612 1582 1586 1552 1519 1540 1531 1399 1545 1477 1430 1459 1449 1442 1388 1441 1452 1507 1471 1472 1419 1438 1449 1490 1455 1524 1456 1475 1462 1425 1411 1487 1472 1450 1486 1451 1453 1477 1475 1473 1480 1505 1554 1550 1550 1600 1536 1524 1580 1636 1574 1643 1572 1676 1623 1624 1579 1659 1566 1547 1640 1633 1596 1603 1600 1577 1510 1547 1504 1621 1540 1628 1585 1592 1663 1656 1682 1635 1648 1694 1731 1688 1719 1776 1807 1849 1806 1822 1878 1765 1987 1905 1963 2018 1983 2001 2044 2094 2094 2070 2082 2165 2086 2165 2147 2142 2041 2102 2108 1938 1974 1948 1941 1805 1781 1767 1792 1602 1686 1543 1537 1503 1472 1513 1525 1377 1432 1438 1349 1365 1363 1349 1312 1299 1316 1264 1339 1286 1265 1310 1271 1319 1326 1278 1359 1270 1254 1194 1233 1302 1352 1306 1294 1252 1334 1269 1245 1306 1286 1296 1303 1272 1263 1256 1249 1190 1221 1267 1312 1245 1278 1285 1273 1295 1238 1300 1215 1231 1278 1234 1199 1240 1276 1258 1267 1194 1210 1280 1292 1237 1234 1296 1170 1228 1241 1256 1257 1273 1256 1212 1213 1208 1202 1242 1313 1209 1257 1290 1280 1161 1203 1212 1271 1248 1153 1162 1207 1293 1183 1262 1220 1224 1254 1243 1207 1201 1206 1192 1239 1177 1225 1238 1177 1236 1221 1078 1233 1289 1155 1192 1202 1218 1145 1178 1198 1250 1217 1133 1144 1175 1148 1166 1248 1170 1202 1142 1200 1179 1193 1150 1181 1192 1185 1195 1167 1220 1243 1222 1115 1203 1133 1203 1206 1211 1223 1197 1152 1179 1146 1174 1174 1152 1189 1264 1228 1241 1178 1175 1236 1218 1173 1160 1204 1178 1210 1267 1172 1198 1135 1180 1235 1219 1191 1149 1202 1095 1156 1208 1227 1227 1246 1202 1207 1186 1196 1188 1192 1186 1239 1217 1214 1154 1174 1202 1197 1197 1222 1178 1187 1201 1130 1249 1131 1240 1184 1161 1164 1219 1301 1237 1212 1184 1229 1247 1204 1211 1151 1171 1288 1193 1213 1226 1212 1164 1176 1214 1174 1228 1231 1129 1140 1203 1167 1127 1241 1273 1203 1139 1228 1185 1236 1238 1143 1217 1183 1176 1188 1163 1210 1179 1189 1153 1159 1130 1123 1221 1180 1208 1170 1182 1229 1114 1234 1181 1152 1169 1106 1279 1147 1160 1199 1119 1147 1229 1182 1221 1133 1177 1192 1179 1196 1145 1145 1197 1205 1162 1211 1157 1184 1137 1199 1194 1187 1187 1182 1170 1174 1235 1188 1173 1253 1135 1177 1178 1167 1137 1149 1202 1193 1198 1163 1166 1195 1209 1152 1235 1129 1219 1168 1170 1128 1167 1175 1234 1124 1187 1212 1131 1137 1232 1183 1234 1213 1225 1236 1202 1283 1233 1319 1298 1288 1305 1345 1385 1332 1441 1469 1567 1632 1628 1594 1708 1749 1789 1843 1932 1892 1947 1969 1974 2085 2042 2123 2033 2117 2021 1971 2058 1981 1994 1914 1918 1907 2027 2089 2083 2073 2148 2217 2244 2323 2292 2268 2352 2413 2438 2548 2635 2610 2792 2837 2862 2923 2970 3030 3133 3153 3287 3254 3342 3515 3653 3696 3760 3826 3768 3775 3755 3877 3794 3756 3844 3883 3704 3511 3369 3305 3226 3249 2916 2833 2701 2630 2469 2233 2263 2163 2057 1954 1774 1729 1682 1552 1556 1512 1491 1399 1445 1430 1401 1343 1377 1282 1334 1294 1310 1337 1325 1267 1286 1300 1175 1308 1254 1206 1277 1266 1260 1210 1224 1259 1281 1247 1255 1225 1279 1215 1273 1304 1240 1318 1354 1223 1209 1216 1272 1314 1256 1277 1261 1319 1255 1227 1234 1222 1237 1181 1234 1256 1222 1211 1229 1236 1173 1222 1194 1169 1125 1079 1163 1228 1207 1192 1211 1166 1195 1110 1149 1136 1171 1159 1136 1172 1209 1175 1147 1169 1187 1187 1162 1120 1122 1100 1131 1168 1095 1154 1151 1104 1171 1153 1119 1175 1053 1104 1132 1185 1081 1063 1175 1150 1108 1104 1117 1131 1109 1162 1095 1159 1153 1096 1120 1182 1149 1108 1077 1137 1167 1129 1121 1103 1096 1152 1136 1157 1118 1179 1117 1095 1095 1137 1189 1105 1128 1172 1165 1097 1117 1082 1099 1099 1090 1060 1102 1145 1124 1100 1121 1071 1161 1111 1057 1054 1032 1097 1088 1109 1112 1121 1151 1110 1092 1045 1123 1084 1080 1057 1084 1091 1036 1131 1070 1087 1119 1087 1064 1116 1048 1127 1153 1093 1077 1109 1109 1077 1083 1103 1102 1119 1101 1144 1069 1063 1071 1100 1119 1057 1147 1114 1115 1119 1084 1165 1092 1086 1050 1079 1076 1131 1089 1130 1130 1132 1032 1113 1088 1123 1062 1127 1108 1081 1114 1125 1107 1067 1059 1098 1118 1085 1070 1086 1092 1065 1127 1046 1126 1096 1171 1117 1162 1121 1123 1105 1134 1114 1073 1163 1107 1103 1118 1116 1086 1188 1091 1132 1134 1197 1145 1122 1162 1111 1107 1142 1146 1176 1119 1165 1169 1163 1148 1128 1171 1209 1163 1114 1058 1136 1102 1097 1139 1177 1081 1111 1114 1075 1130 1070 1074 1023 1072 1013 1087 1147 1070 1128 1076 1088 1054 1078 1052 1060 1121 1080 1017 1103 1086 991 1062 1072 1099 1057 1061 1065 1045 1009 1096 1065 1060 1095 1045 1028 1013 1090 1058 1088 1074 1073 1154 1052 1074 1072 1036 1179 1038 1074 1083 1089 1037 1102 1020 1071 1084 1127 1028 1108 1097 1061 1057 992 1040 1061 1061 1033 1011 1069 1028 1105 1037 1064 1059 1016 1090 1022 1058 1027 1074 1047 1016 1006 1099 1058 1050 1058 1042 1153 1049 1022 1073 1050 1066 1108 1024 1033 1043 1057 1034 1035 1040 987 1089 970 1022 1030 1046 1077 1059 1126 1072 1085 1065 1097 1043 1065 1033 1008 1118 1031 1039 1097 1028 1080 995 1054 1064 1034 1029 1021 1024 1024 1064 1013 1032 1051 1051 1059 1045 1010 1090 1008 1015 1016 1035 1031 1074 1047 1019 1059 1026 1075 1038 1045 1078 1035 1090 1023 1046 1037 1043 1032 1132 999 1019 977 1061 1114 1139 1083 999 1013 1031 1011 1022 1059 1068 1057 1071 1042 1038 1049 1044 1028 1030 990 1027 1102 1010 1083 1125 1045 1020 1022 1053 1101 1020 1043 1007 1066 1131 1026 1012 1038 1039 973 1027 1018 1069 1048 1035 1032 1023 1114 1005 1038 1106 1072 1096 1023 1015 1106 1044 1049 1074 1025 998 1075 1016 1039 1037 1004 1083 1030 1038 1045 1017 959 1027 1050 1055 985 1042 1017 1015 1043 1047 1007 1047 1012 1001 1008 1030 1033 992 1066 1056 1022 1054 995 1029 1047 1019 1040 1062 976 1059 1047 1099 1029 1003 980 1038 957 1076 1029 1094 1021 1058 987 1060 998 1019 1022 979 1018 1015 1057 1108 1020 1025 988 1068 1067 1040 1033 975 1060 1028 1049 1105 1050 1005 1039 1036 1030 1072 1016 1026 947 1056 1061 1073 1035 1049 1039 987 1014 1048 1076 1039 1024 1004 1018 1104 1006 1012 1064 998 1025 983 1035 1006 990 999 1040 1015 1020 998 1026 1010 1041 1042 1095 1013 1001 1044 1057 1042 1012 1053 1050 1061 1006 1026 997 1032 1039 1063 983 1017 1071 1002 1043 1026 1043 1065 1026 1095 1014 1012 1055 1035 985 941 1032 991 1021 988 1036 1024 991 1010 1018 1039 1041 1010 1052 1011 985 1001 1017 984 972 1066 1062 1021 1053 928 997 1028 992 992 1002 1050 1000 1067 1051 1074 1004 1073 1079 995 1042 1006 1050 1014 1103 1022 1078 1050 1015 1023 976 1068 1042 1003 1053 1031 1061 1054 1060 1047 1025 1009 1064 1049 1070 1017 1036 1089 1054 1056 1019 1047 1041 1049 1050 1058 1051 1026 1011 1066 996 1046 1035 1047 998 1020 1018 1011 961 1095 1013 1055 1092 950 1004 1030 1080 1058 1007 1008 1000 1014 1003 1073 1048 1059 1076 1003 990 1002 1018 1028 1021 1031 1038 1063 1001 1036 1039 1030 989 1008 1076 1017 1064 1014 1082 1084 968 1034 1036 1061 990 1029 1075 1042 1019 1046 1045 1089 1048 1027 1020 1040 1001 1050 1040 968 1069 1058 1013 981 1032 1025 1043 1028 1031 1031 1117 1012 1055 1055 1096 1099 1040 1067 1023 1104 1035 1002 1034 1036 1122 1003 988 995 992 1025 1024 1069 1046 1048 987 1053 1018 1052 1006 1026 1034 1056 1005 1024 989 1068 1054 988 1044 1030 1007 1047 1039 1017 1045 1037 1012 1028 996 1045 1004 1037 1001 1061 1094 1058 1044 992 1037 1032 970 1038 1072 1035 1068 1060 1031 1015 1042 1047 1080 1025 1027 1041 979 1019 1089 1034 1047 1073 1116 1061 1086 1098 1070 1125 1145 1121 1126 1073 1159 1140 1124 1231 1217 1193 1190 1067 1235 1133 1158 1190 1196 1126 1151 1128 1244 1144 1199 1183 1126 1223 1153 1213 1215 1216 1259 1260 1219 1240 1222 1253 1283 1250 1261 1242 1230 1342 1327 1337 1262 1309 1283 1376 1288 1314 1309 1332 1275 1314 1348 1427 1359 1341 1386 1386 1378 1388 1353 1322 1414 1297 1321 1268 1224 1264 1291 1182 1220 1291 1258 1208 1212 1144 1163 1131 1157 1090 1081 1114 1075 1054 1097 1057 1007 1027 1005 1050 1078 1035 1046 1024 993 1035 1035 1068 1060 1011 1072 1036 1098 1022 1041 1062 1006 1030 960 1035 1061 1006 990 1044 1039 1100 990 1139 1039 1052 1005 1023 1004 1007 1026 962 1030 1025 1052 1007 1048 995 1041 998 1027 1049 972 1030 985 1064 1066 1005 1012 973 981 1014 1002 1007 1019 992 1032 1009 998 1081 985 1042 1051 1068 1061 972 1074 1095 975 1069 1032 1003 1051 1008 1029 1020 969 986 1043 1006 990 1063 1071 1037 1062 1021 1012 1035 1020 968 994 1031 1031 1068 974 1006 989 1004 940 980 982 1023 1020 991 1001 1008 1039 1022 1019 979 949 1064 1024 1036 1027 989 1009 969 1040 984 1016 1026 990 992 997 1044 995 1052 1039 962 992 1037 1023 1068 1012 963 1064 1029 981 991 983 1016 1007 986 1029 1067 1026 1063 1019 996 975 1010 1008 1008 993 1019 957 1005 1003 955 1044 1036 1030 1039 1047 1036 1030 1021 1027 1021 982 1054 1018 1061 993 1035 1029 1021 1032 1051 1067 1031 977 1015 1052 1089 1057 1030 1048 1009 1027 1004 1050 1059 1054 1085 1044 1041 1075 1057 1024 1024 1049 1073 966 1020 1022 1018 1014 1060 1041 1073 977 983 1047 1082 997 1046 1001 1004 1054 1060 1090 1052 1072 1028 1093 1016 1056 1037 974 1056 1062 1023 990 1052 1042 984 1031 1028 1063 1025 1033 952 1011 1046 1044 1064 1041 1058 1047 997 1070 1017 986 1022 977 1054 1060 990 1028 1023 1086 1078 1065 1071 1075 1063 1085 982 1095 1067 1057 1047 1073 1049 1081 1046 1103 1094 1090 1060 1135 1084 1077 1140 1109 1176 1220 1138 1108 1231 1137 1217 1210 1234 1271 1243 1290 1337 1391 1392 1400 1489 1552 1491 1570 1489 1593 1593 1622 1644 1714 1686 1722 1736 1790 1782 1803 1809 1879 1892 1874 1942 1930 1883 1993 2038 2088 2164 2103 2216 2329 2347 2327 2304 2324 2305 2229 2265 2218 2338 2436 2514 2468 2533 2514 2535 2538 2604 2530 2679 2590 2579 2660 2571 2439 2540 2502 2484 2526 2469 2390 2510 2357 2307 2241 2234 2169 2099 1943 1968 1965 1916 1813 1646 1692 1665 1558 1567 1475 1403 1454 1298 1416 1265 1269 1207 1294 1286 1219 1188 1200 1147 1158 1216 1150 1064 1079 1116 1139 1096 1167 1080 1084 1093 1108 1136 1166 1053 1100 1087 1119 1162 1068 1115 1138 1136 1051 1101 1109 1090 1023 1087 1035 1090 1116 1076 1035 1100 1126 1118 1116 1117 1049 1127 1138 1107 1184 1096 1170 1121 1081 1088 1074 1071 1164 1052 1093 1099 1043 1077 1091 1111 1113 1158 1069 1053 1102 1054 1160 998 1105 1035 1108 1095 1057 1083 1060 1072 1074 1063 1094 1023 1102 1048 1039 1059 1101 1067 1056 1035 1021 1009 1016 1046 1113 1022 1053 999 1025 1007 1024 1049 1036 988 1051 1005 1037 1015 1058 1048 1003 1020 1002 962 1022 1039 1045 983 1003 1062 1013 1045 1058 1080 1111 1010 1006 1109 1035 1082 1006 1059 1074 1077 1030 1096 1126 1048 1061 1064 1107 1057 1064 1165 1065 1126 1142 1115 1056 1124 1122 1074 1135 1131 1097 1149 1124 1133 1124 1201 1174 1129 1116 1148 1119 1112 1155 1131 1179 1119 1139 1178 1195 1199 1208 1220 1234 1199 1185 1230 1213 1219 1186 1262 1168 1152 1258 1224 1235 1178 1207 1184 1141 1126 1170 1141 1189 1116 1168 1100 1190 1148 1135 1139 1069 1144 1129 1051 1067 1083 1030 1057 1103 1064 1091 1141 983 1070 958 1038 1050 1001 1023 1055 1028 1037 1057 1017 1035 1057 981 995 987 1015 1024 1046 974 997 966 990 988 989 1057 1021 1005 959 947 1007 1026 984 1006 998 1033 952 1059 1013 1070 1040 968 1054 1053 1009 1032 992 988 1037 1059 947 996 982 1027 960 1005 1049 1027 1065 1061 1020 1008 1128 1050 997 1048 1022 1042 984 984 1060 1025 1054 1042 987 1070 1043 1021 1017 1022 996 948 1063 1012 960 1010 959 954 971 976 974 1019 935 1040 1027 967 1009 996 1002 1048 988 1009 922 1034 1012 973 992 1004 1004 989 1034 976 1010 1048 1016 1017 977 965 1031 1018 1006 1019 968 978 957 983 991 981 990 1019 954 963 1020 981 1006 960 967 985 964 938 973 1092 1009 1014 1013 1008 1046 1023 1006 990 937 1031 943 977 1042 984 995 1097 979 959 954 999 994 1071 1011 977 1000 981 980 991 970 979 929 1028 961 1025 991 939 1004 960 935 997 999 988 1008 980 1025 1013 966 975 970 1007 1013 982 982 941 1011 1008 1024 1017 994 1057 1016 1026 933 1008 966 1009 959 960 1048 971 1009 986 994 985 918 941 980 981 1001 1023 986 949 1040 985 984 974 1042 901 986 1056 1018 1012 1022 968 972 981 996 973 1005 1014 968 1006 1003 1031 926 956 975 952 959 944 1009 985 1051 959 948 1022 969 958 954 985 940 971 1021 1017 977 956 941 1017 1046 1015 1036 949 979 1013 982 1041 979 986 985 991 967 1038 953 993 959 977 1010 971 971 1021 1023 997 989 1010 955 979 1005 970 957 1002 998 946 985 957 955 929 983 1033 1008 930 997 990 942 945 1001 985 998 1000 1014 1010 997 929 979 924 985 1015 956 999 995 980 942 994 992 956 1016 986 980 999 1035 953 1015 963 992 987 963 993 965 946 968 993 1015 966 989 1003 1027 963 968 952 988 957 952 983 951 994 964 959 972 989 959 1061 920 1039 1014 914 995 1020 961 969 978 928 938 947 973 986 943 992 1003 938 912 1008 1001 972 989 991 998 993 944 1009 1002 968 986 917 1020 1027 1021 957 968 984 929 1010 967 1032 1015 947 1001 953 991 976 955 1027 982 984 1011 968 875 929 950 985 1002 948 972 920 952 978 1011 1016 1004 992 1106 940 960 1041 1005 982 962 1001 1004 946 995 994 999 946 972 1014 985 1030 1014 1007 941 1021 1009 954 1019 956 975 979 978 960 947 889 1030 984 959 948 990 974 943 947 987 950 939 977 1008 938 1017 1003 979 989 1037 977 971 1078 1042 982 1028 1045 933 983 1012 980 939 1065 1074 1016 1027 1001 997 1020 1002 1069 1054 998 997 1008 974 1040 1082 981 1037 987 960 1028 1039 965 1025 982 1065 1084 1056 1040 1022 1056 992 985 1025 1026 1083 1015 1055 1037 1044 1058 1034 1091 1058 1064 1062 1043 1057 1048 1041 1078 1072 1040 1073 1040 1008 1077 1067 1105 1036 1082 1008 1113 1077 1124 1108 1132 1073 1028 1094 1070 1098 1132 1024 1090 1168 1146 1096 1056 1067 1088 1073 1101 1120 1112 1092 1109 1116 1094 1110 1182 1177 1164 1161 1167 1157 1161 1114 1142 1087 1102 1099 1072 1113 1039 1099 1162 1116 1105 1111 1101 1099 1111 1030 1076 1117 1035 1067 1086 1059 1030 1073 1065 1074 1073 1014 989 1006 1032 1038 1037 1043 981 1072 1024 1007 1020 984 1026 997 1019 960 998 1007 1060 1007 1014 983 1000 975 956 940 1024 974 950 1006 958 996 1013 965 969 1014 945 1035 1000 994 976 927 970 1022 955 997 1028 964 958 965 1011 1010 987 965 970 1006 964 1003 958 965 994 958 928 985 1018 966 981 1009 974 973 974 978 958 1013 994 969 1003 966 932 1001 975 963 1001 945 989 954 1021 961 1011 968 1016 979 987 1024 999 962 936 1001 953 1007 1037 972 997 972 1007 902 992 984 1030 933 1006 952 1074 964 961 1032 1040 1003 987 1003 981 991 993 1012 947 969 945 994 951 1021 978 964 998 1018 945 994 1026 1028 1011 997 943 958 975 993 961 988 964 963 947 993 1006 993 934 1002 1034 979 1038 970 965 976 1010 1017 1051 1045 981 1010 1054 921 1036 1022 1036 1022 1057 1056 1031 1071 1040 1008 1063 1036 1105 1092 1081 1108 1112 1072 1111 1127 1087 1182 1147 1177 1159 1157 1202 1177 1179 1224 1286 1298 1272 1293 1299 1307 1289 1229 1258 1316 1321 1300 1315 1304 1313 1342 1287 1409 1320 1384 1324 1351 1408 1281 1289 1393 1362 1382 1420 1395 1439 1488 1446 1344 1376 1446 1468 1404 1445 1330 1385 1471 1440 1437 1410 1346 1368 1416 1373 1371 1359 1375 1348 1340 1329 1286 1282 1236 1257 1265 1227 1186 1279 1192 1242 1194 1175 1132 1175 1201 1115 1125 1069 1092 1141 1147 1105 1007 1047 1063 1065 1096 1031 1015 1050 977 1028 1030 1004 1024 1002 984 948 1027 1070 1027 941 1045 1010 1027 1028 1015 1014 993 976 928 987 1045 984 993 968 1015 996 1003 1059 1006 944 1023 1028 1032 1054 962 1036 965 1014 1014 999 1041 1017 927 978 982 940 960 978 1099 1014 999 958 993 1015 942 1036 1019 1013 1020 989 1022 1003 1000 961 996 986 960 964 984 1014 1058 976 977 1022 988 1006 1020 987 1001 1051 994 1064 1019 935 1012 964 957 1030 986 1006 1069 998 1007 1044 979 1053 1010 1055 1054 955 1032 1053 1048 1005 984 1066 1044 1083 1052 1052 1027 1084 998 1032 1100 1065 999 1064 1082 1074 1117 1103 1077 1136 1100 1068 1144 1060 1106 1080 1091 1099 1173 1129 1073 1112 1073 1142 1148 1121 1103 1057 1146 1073 1019 1090 1110 1116 1113 1020 1112 1031 1045 1161 1083 1079 1010 1103 1075 1046 1090 1109 1085 1052 1071 1056 1111 1067 1047 1042 1032 1017 1018 1011 1003 1018 1036 1033 1035 1061 1015 1036 981 1087 1057 1008 1013 960 954 1064 996 1031 973 941 977 956 1001 957 1000 986 1011 945 991 956 1003 994 1025 996 1010 985 947 979 984 1008 1068 972 1037 954 953 1014 1055 941 986 1000 947 993 995 1002 942 992 961 1012 981 1014 969 972 996 1017 1013 987 931 1013 998 986 1002 947 1004 1013 950 977 964 957 931 977 961 985 967 984 992 987 996 996 915 975 1000 963 939 948 997 997 944 988 981 998 968 954 952 936 998 925 969 928 967 999 1000 1033 985 964 1005 974 937 1005 1058 967 964 997 1012 958 973 971 1012 1016 982 1041 949 977 999 997 1018 1025 976 989 987 983 988 970 971 961 1031 995 966 1007 918 1013 949 984 956 986 992 977 976 936 984 968 955 967 1005 986 878 961 955 974 953 987 977 1013 965 935 989 929 956 964 971 1010 957 973 946 924 951 980 979 972 906 972 988 916 990 973 913 998 966 940 955 965 935 998 988 965 971 991 975 936 973 936 969 952 938 1022 954 1012 955 956 969 957 970 969 1009 1044 1006 975 919 957 1027 1009 970 898 948 983 927 1016 1000 951 1035 994 1024 981 975 901 968 978 968 1025 989 934 984 936 944 1005 1002 988 969 973 1000 889 961 943 959 978 1008 1015 928 967 1031 969 1008 1029 986 971 963 985 996 1041 912 981 1047 965 977 1024 1025 999 1011 988 956 946 972 993 942 939 975 918 1036 959 1021 941 969 1003 1011 968 1014 965 957 957 994 970 931 1003 1032 989 937 980 969 971 956 975 991 945 948 937 970 986 1042 929 890 965 951 987 917 895 964 1020 987 1040 969 967 945 959 1025 972 962 1024 990 972 989 957 1029 963 976 976 917 968 969 934 921 958 964 961 1030 995 1016 953 954 958 1007 939 963 945 988 974 1010 978 969 947 984 972 1021 969 979 962 1034 956 972 953 997 969 995 1004 984 984 933 956 997 1014 979 958 946 996 1015 950 987 898 978 1014 984 961 1006 1011 1009 1010 974 974 1018 954 945 952 1007 944 957 990 971 977 1013 1044 978 968 1000 969 957 1003 978 1050 1008 1018 1009 1005 1033 1015 1014 974 990 1028 1088 1038 1102 998 1005 1040 1047 991 1044 997 1003 999 1037 1045 1051 1044 974 1040 1038 1048 1002 1023 1037 1022 1019 1013 1043 1035 1066 1079 1124 995 1049 1022 957 1064 1019 1007 1042 993 1077 1071 1066 1011 1022 1032 1080 969 1042 1030 1002 1043 948 1033 1061 1063 1034 1026 1029 974 986 1016 1025 990 1037 996 1033 953 1012 985 965 978 1080 1075 964 935 1011 1008 969 1051 961 1033 954 965 915 920 1007 987 978 968 1017 1001 997 990 1029 955 1004 955 996 1000 1005 1008 1022 972 976 980 969 927 960 1012 950 972 1021 956 981 1045 968 911 998 957 1029 1001 963 981 980 970 987 980 1027 943 1002 961 958 979 993 930 965 921 1029 978 994 928 1040 972 953 1015 924 981 945 950 1025 948 939 937 972 959 930 967 980 977 1011 989 1020 997 938 937 951 970 949 971 962 927 920 972 1017 987 993 983 958 955 1006 984 963 934 1014 948 1004 975 1002 943 993 955 989 939 1012 1048 895 962 934 939 971 962 989 995 917 959 1031 960 922 948 957 983 942 955 977 963 1014 912 993 1039 964 991 969 1008 1043 1001 960 950 1004 979 1016 915 924 978 985 986 987 948 1040 956 965 991 1009 973 1022 991 985 980 992 972 975 971 990 1007 985 984 992 975 995 940 988 994 950 989 926 954 1003 969 1002 996 967 970 967 1017 1018 1019 1020 1002 1033 948 1020 988 1015 1007 977 1066 1050 1069 1042 1039 1093 1018 1070 1085 1016 1101 1059 1046 1065 1059 1020 1110 1062 1116 1064 1105 1149 1084 1083 1069 1077 1065 1060 1118 1118 1108 1133 1166 1141 1110 1102 1026 1041 1032 1138 1197 1102 1124 1122 1174 1153 1174 1175 1186 1061 1111 1149 1143 1140 1144 1097 1074 1123 1155 1110 1176 1178 1138 1125 1076 1129 1045 1116 1139 1078 1140 1057 1008 1037 1060 1081 1097 1078 1085 1078 1097 1022 1087 1067 1066 1067 1070 1014 1121 1049 1015 1073 949 1014 1096 1007 1060 986 939 1035 1021 1011 1018 994 1013 959 984 1015 982 1027 978 954 959 998 1051 1046 1044 926 949 1019 950 971 988 1018 996 958 982 1006 992 924 1008 1030 953 958 990 1002 959 1046 987 958 996 1010 1035 1031 1039 971 976 1025 982 925 960 984 1016 1040 1043 995 973 1001 979 1000 1022 964 995 1004 946 1054 1009 1043 1003 987 927 963 944 990 1024 964 978 977 951 1000 955 1023 1004 971 1026 995 1006 1018 985 1047 980 993 981 1016 1018 1075 1005 1018 1028 973 1014 987 1011 987 1044 977 1018 996 1005 1024 1047 990 990 971 1040 1033 966 1075 1054 980 938 1030 949 945 996 991 991 905 971 1033 1022 1004 994 1027 945 972 1019 965 942 1001 1003 1027 1007 939 1016 1007 956 963 1010 939 979 938 962 938 1065 990 1034 1013 1012 963 1001 1046 996 995 937 1006 959 934 1048 933 943 988 986 969 984 1026 1015 1062 999 937 1057 960 982 987 966 1013 1031 1038 962 987 987 957 995 993 939 980 943 1046 980 974 991 953 994 999 1065 931 1020 1058 944 913 992 984 1021 997 972 958 965 1041 1046 953 962 1000 973 948 1020 962 963 989 1026 1005 1027 966 999 978 1003 1003 1040 922 1012 967 1086 975 989 1009 979 990 982 968 995 985 981 1002 976 1025 978 932 951 1022 1003 924 1043 1045 995 1012 934 961 997 1004 1022 991 945 984 983 954 993 1018 968 1048 966 1063 994 994 1029 997 1005 908 1088 1004 1006 982 985 980 1008 1005 996 927 995 944 1029 982 1038 1024 982 1036 1018 997 986 977 980 977 1030 1042 1025 1001 975 998 1037 1039 989 1003 976 969 980 982 987 1008 997 1042 989 1005 1003 985 973 981 1013 1037 968 1017 1024 955 1022 1004 969 1013 984 988 992 1072 1025 931 999 997 976 991 1005 947 965 1008 1016 955 965 971 1039 981 985 942 1007 1012 1029 979 964 968 998 1003 989 998 950 1036 988 999 924 1052 949 998 997 946 1038 945 1010 946 1040 988 974 979 1016 1006 958 1028 950 975 1034 962 1013 1018 967 950 983 975 984 953 1019 1013 997 953 1021 1005 1023 986 1058 991 956 959 1014 1014 997 1025 995 1017 1046 1019 968 1014 991 973 1004 935 997 948 995 978 1001 947 1016 979 943 998 961 954 1006 1047 996 986 958 1014 975 986 981 1007 1026 1041 1008 1021 1038 1058 1050 999 1031 1078 1032 991 985 1070 956 996 1049 985 1041 991 1065 985 1000 946 1002 1037 963 956 1009 991 994 1038 1058 950 1084 1033 984 1038 971 1021 981 988 984 947 909 969 962 974 1066 1008 1001 989 960 1031 980 955 1010 1027 993 1052 1007 1042 944 1035 1048 1008 1030 977 998 996 1013 973 974 971 1011 1021 962 1001 1002 1013 987 1021 1024 995 989 962 1006 1026 983 1000 1009 1006 977 1025 1009 1028 945 1005 995 1075 1025 1014 1073 1031 1076 990 1035 1053 1040 1023 1074 1000 1012 1000 1033 1060 1030 1041 1044 1091 1095 1000 1059 1063 1074 1064 1046 1057 1071 1049 1053 1066 1019 1079 1106 1053 1049 1101 1083 1009 1078 1061 1045 1112 1016 1045 1046 1058 1063 1070 1067 1022 1093 1064 1058 1079 996 1088 1041 1115 1115 1090 1029 1071 1071 1056 1111 1039 1058 1060 1102 1058 1066 1012 1026 1021 1117 1090 1036 1053 1087 1067 1104 1065 1049 1023 1039 991 1055 1025 1070 1051 1028 1077 1100 1109 1087 1102 1070 1122 1042 1058 1015 1052 1074 1068 1071 1012 1067 1019 1097 1036 1026 975 1076 1022 1043 1051 1091 1063 1018 1126 1074 1107 1108 1054 1015 1072 1001 1024 1096 1079 1034 1059 1053 1081 999 1026 1017 1060 1082 1013 1056 1070 1048 1056 1053 1082 1022 1018 1089 986 1087 1065 1022 1017 1006 1084 1014 1035 1017 1014 990 1040 982 1003 1020 959 987 1019 995 1051 1002 1042 1021 1002 1014 1108 1000 1037 1120 1048 991 1035 1068 1038 1070 1038 983 1073 993 1061 1063 1080 1037 988 976 1017 1027 985 978 1047 1032 1013 1007 1066 1013 1063 1049 1014 1021 1041 1032 1020 1000 1017 1027 1015 1044 999 1013 1007 968 1012 990 978 1053 1042 986 1063 1001 1013 994 989 998 1008 1058 1015 1051 1025 1040 1032 1026 1018 1083 980 1130 1022 1122 1085 1124 1017 1061 1046 1054 1063 1100 1052 996 1087 1023 1032 1060 1016 1035 1072 1095 1012 1074 1100 1054 1054 1098 1084 1050 1105 1076 1113 1084 1089 1102 1156 1108 1120 1154 1105 1156 1137 1175 1172 1163 1217 1174 1255 1188 1202 1257 1186 1225 1204 1196 1245 1217 1257 1237 1277 1310 1310 1253 1268 1280 1264 1243 1260 1268 1295 1348 1249 1242 1363 1351 1341 1386 1280 1315 1382 1340 1393 1303 1337 1366 1470 1416 1370 1416 1399 1431 1382 1320 1371 1398 1334 1367 1368 1379 1376 1417 1331 1361 1321 1397 1323 1329 1301 1289 1285 1324 1309 1252 1328 1233 1260 1225 1301 1206 1195 1240 1234 1263 1231 1273 1207 1192 1201 1219 1167 1175 1179 1182 1146 1143 1158 1125 1103 1125 1143 1193 1204 1147 1140 1124 1060 1087 1101 1088 1110 1147 1132 1124 1074 1141 1065 1052 1062 1101 1055 1101 1070 1091 1035 1043 1072 1065 1073 1010 1040 1049 1059 1128 1052 1084 1000 1051 1035 1035 1077 1091 951 1021 1023 1072 1043 1006 1084 1142 1053 993 1011 1017 1057 1034 1036 1056 1049 1030 1026 1094 1021 1040 1054 1070 1063 1066 1099 1021 1030 1033 1050 1083 1079 1069 1086 982 1049 1097 1064 1064 1037 1050 1070 1099 1053 1014 1114 1015 1106 1059 1052 1048 1013 1034 1019 1120 1049 1033 1061 1063 1102 1051 1054 1079 1043 1006 1070 1021 1097 1094 1028 1082 1023 1086 1088 1074 1075 1051 1035 1112 1134 1139 1078 1093 1069 1082 1114 1030 1072 1059 1105 1064 1082 1076 1114 1073 1037 1040 1071 1095 1102 1033 1100 1114 1077 1123 1097 1056 1113 1073 1075 1067 1112 1116 1098 1089 1067 1071 1099 1023 1083 1033 1115 1115 1065 1104 1090 1069 1070 1054 1006 1100 1021 1088 1034 1022 1045 1097 1042 1061 1034 1043 1071 1028 1075 978 1072 1023 1058 1092 1097 1075 992 1058 1010 992 1053 1032 1048 1029 1021 1051 1065 1029 995 1005 1014 1043 1047 1096 1020 1036 1061 1033 1112 1007 1033 1020 1043 1066 1072 1027 1099 986 1019 1072 1032 1057 1037 999 1058 1028 1025 1025 1016 1021 1009 1026 1035 1069 1019 984 1021 1036 991 1070 1057 994 1023 1080 1063 1002 1084 970 982 1058 1004 1068 1121 1029 1004 1059 1019 997 1055 1039 1077 1101 1064 1040 966 1018 1075 1055 1037 1015 995 1014 981 1020 1017 1031 1055 1076 1000 1006 971 1029 1049 957 1005 1000 950 1015 1058 1041 1003 1064 988 1008 1020 1056 1051 1051 1058 1043 1008 1046 1036 1013 1006 1034 1043 1002 1039 1071 1019 970 986 1043 982 1005 1062 1000 1078 1071 996 1010 1006 1038 1080 1017 1028 1007 1047 1036 971 1011 1082 998 1036 1027 1017 1020 1014 999 1059 1031 1011 1046 1010 1014 1026 1043 1009 1050 1088 1051 1030 1057 1017 978 1077 1041 1051 992 993 1050 1001 994 1051 967 970 995 996 1086 1027 1045 964 1060 1023 1050 987 1036 972 969 1043 1060 1014 1003 967 1014 1012 1024 1019 1017 1057 1065 1040 1012 968 1034 1013 1029 1005 965 993 1054 1054 990 1032 1011 1076 1017 985 997 975 1030 1065 1036 1047 1078 1062 1037 976 984 1090 1005 1079 1013 1066 1055 996 1034 1020 1044 1065 1029 1035 1038 1024 1052 1065 1058 1036 987 1000 1097 1019 1044 1062 1048 1029 1029 995 990 1088 1041 1050 1028 976 988 1006 1053 998 1008 1016 995 1073 1009 1119 1060 1003 1046 1001 1051 1025 1028 991 1051 1008 1059 1064 999 1012 1075 1045 1058 1030 1095 1053 1079 1019 996 1031 1037 1056 1074 1027 1006 946 1062 1006 972 1023 1000 991 1057 1086 1006 1090 1027 1022 1056 1023 1074 1050 1034 1015 1057 1071 1037 1051 1089 1052 1030 1067 996 1077 1012 1081 1022 1069 1012 1062 986 1006 1071 1039 1058 1045 1064 1045 1020 1077 990 1060 1073 1114 1107 1047 1003 1127 1069 1106 1037 1061 1028 1139 1076 1086 1097 1014 1098 1098 1075 1135 1080 1035 1073 1098 1105 1075 1054 1102 1106 1134 1086 1028 1080 1082 1070 1059 1046 1120 1065 1119 1100 1109 1049 1079 1089 1061 1092 1088 1056 1138 1067 995 1056 1132 1073 1080 1075 1051 1097 1053 1071 1057 1059 1088 1053 1015 995 1028 1069 1067 1118 1077 1048 1016 1117 1126 1053 1102 1048 1010 1091 1021 1022 1073 1033 1060 1027 1075 1083 1063 1053 1090 1067 1053 1041 1091 1075 1046 1034 1057 1074 967 1071 1114 1055 1027 1012 1084 1036 1035 1017 1071 1051 1059 1015 1027 1105 1011 1028 1037 1097 1011 1027 1062 1076 972 1047 1045 1048 1110 1041 1074 1011 997 1111 1002 1033 1035 1058 1018 1023 1107 1082 1079 1052 1047 963 1068 1038 1039 1061 1010 1078 1085 1040 1106 1041 1052 1055 1027 1079 1035 1023 1039 1019 983 1044 1002 1058 1004 1081 1066 1043 1031 1082 973 1047 1056 1083 1096 1080 1079 1082 1105 1038 1027 1046 1020 1084 1072 983 1032 1076 1064 1015 1045 1025 1047 1025 1073 1021 1079 1032 1073 1069 1090 1076 1017 1108 1073 1044 967 1013 1099 1031 1024 1012 1035 1107 1038 1061 1046 1075 1024 1075 1056 1008 1020 980 1053 1061 1052 1063 1087 1068 1099 1036 1087 995 1069 1029 1035 1123 1018 1063 1042 1039 1074 1082 1075 1092 1054 1059 1068 1109 1107 1065 1046 1054 1044 1088 1047 1154 1128 1098 1148 1143 1093 1161 1120 1110 1146 1041 1115 1106 1208 1177 1191 1156 1168 1070 1135 1133 1162 1113 1182 1107 1173 1123 1129 1204 1180 1161 1183 1218 1185 1205 1147 1253 1188 1206 1186 1243 1265 1207 1195 1265 1226 1269 1265 1213 1317 1326 1250 1282 1209 1270 1238 1225 1338 1282 1303 1317 1263 1241 1340 1328 1346 1327 1249 1327 1228 1273 1319 1222 1281 1245 1272 1268 1238 1290 1347 1220 1251 1271 1246 1252 1229 1231 1234 1230 1244 1271 1309 1207 1170 1273 1181 1200 1211 1218 1191 1188 1230 1180 1157 1149 1147 1177 1202 1191 1198 1198 1164 1194 1185 1143 1173 1184 1106 1153 1187 1097 1118 1101 1098 1150 1132 1092 1134 1038 1113 1089 1088 1068 1107 1116 1085 1096 1184 1063 1054 1120 1040 1099 1137 1131 1051 1080 1055 1063 1048 1093 1120 1095 1073 1075 1067 1109 1009 1141 1074 1037 1057 1088 1048 1059 1018 1060 1095 1055 1007 1086 1009 1119 1117 1070 1033 1118 1068 1052 1050 1101 1032 1094 1086 1073 1025 1104 1053 1031 1006 1041 1084 1080 1119 1084 1064 1024 1050 1126 1132 1069 1060 1053 1067 1078 1086 1049 1014 1024 1055 1052 1094 1041 1094 1067 1045 1009 1130 1039 1135 1046 1108 1041 1044 1061 1134 1066 1075 1082 1113 1047 1062 1030 1046 1048 1146 1063 1044 1013 1079 1096 1126 1034 1043 1077 1114 1091 1095 1112 1045 1072 1074 1097 1097 1163 1062 985 1115 1054 1132 1098 1073 1098 1095 1011 1040 1118 1069 1041 1097 1118 1094 1080 1158 1080 1084 1062 1088 1056 1094 1081 1070 1095 1080 1051 1082 1101 992 1064 1005 1067 1020 1061 1089 1054 1030 1045 1028 1093 1059 1048 1070 1064 1081 1120 1054 1082 1054 1091 1063 1061 1033 1048 1042 1000 1070 1096 1117 1050 1029 1052 1089 1065 1030 1038 1093 1036 1057 981 1035 1036 1091 1036 1033 1027 1066 1086 1029 1065 1060 1053 1054 1014 1061 1103 1059 1102 1058 1122 1036 1078 1070 1103 1126 1069 997 1038 1081 1072 1084 1006 1067 1080 1081 1025 1050 1045 1032 1157 1075 1054 1026 1044 1063 1090 1033 1025 1091 1020 1097 1049 1079 1063 1063 1046 1015 1018 1001 1083 1020 994 1052 1085 1025 1059 1065 1035 1020 999 1032 1049 1041 1071 1082 1012 1039 993 1023 1040 1049 1086 1043 1060 1051 1028 1052 1062 1034 1065 1080 1035 1084 1035 1091 1025 1011 1097 1087 1050 1060 1028 1047 1061 1049 1019 986 1073 1049 1059 1050 1110 1030 1079 1010 1063 1058 1070 1085 1058 1061 1050 1017 1060 1015 991 997 1062 1064 1071 1011 1108 1051 1089 1044 1058 1017 1059 1093 1040 1039 1022 1047 1066 1044 1064 1045 1028 1011 1036 1060 1088 1014 1031 1032 1046 1039 1051 1054 1049 1026 1045 1081 1043 1059 1087 1058 1085 1012 1089 1108 1070 972 1062 1059 1031 1041 1089 1066 1019 1047 1067 1078 1085 1065 1059 1072 1096 1052 1093 1017 1030 1056 1052 1033 1082 1074 1052 1024 1052 1025 1024 996 1062 1027 1018 1002 1082 1068 1045 1093 1073 1033 1067 1093 1121 1098 1036 1024 1002 1060 1052 1050 1069 1038 1041 1085 1042 1077 1008 1034 1046 1098 1033 1111 1050 1100 1119 1031 1058 1035 1012 1109 1063 1003 1021 1070 1064 992 1034 1023 1039 1080 1066 1092 1055 1039 1082 1077 1095 1112 1017 1060 1055 992 1066 1046 1070 1070 1066 1056 1086 1049 1018 1066 1064 1048 1078 1062 1112 1055 1058 1045 1020 1060 1091 1062 1086 1087 1059 1058 1035 1039 1019 1140 1065 1086 1102 1066 1027 1094 1060 1084 1067 1125 1044 1075 1029 1079 1077 1097 1062 1073 1067 1075 1057 1048 1023 1048 1045 1088 1024 1067 1081 1119 1079 1032 1067 1072 1089 1017 1052 1101 1089 1045 1093 1108 1173 1100 1094 1106 1102 1118 1091 1097 1096</counts>
			</dataPoints>
		</scan>
	</xrdMeasurement>
</xrdMeasurements>
