<?xml version="1.0"?>
<xrdMeasurements xmlns="http://www.xrdml.com/XRDMeasurement/2.3" xmlns:xsi="http://www.w3.org/2001/XMLSchema-instance" xsi:schemaLocation="http://www.xrdml.com/XRDMeasurement/2.3 http://www.xrdml.com/XRDMeasurement/2.3/XRDMeasurement.xsd" status="Completed" recordIdentifier="{0F8D1A5A-8D5E-4FAF-BF49-441BCBDD2774}">
	<comment>
		<entry/>
	</comment>
	<sample type="To be analyzed">
		<id>GPSS_Li1p75Fe0p75Y0p25Cl4_112225_6921f967f4e53d1f72397d31</id>
		<name></name>
		<preparedBy></preparedBy>
	</sample>
	<xrdMeasurement measurementType="Scan" status="Completed" sampleMode="Reflection">
		<usedWavelength intended="K-Alpha 1">
			<kAlpha1 unit="Angstrom">1.5405980</kAlpha1>
			<kAlpha2 unit="Angstrom">1.5444260</kAlpha2>
			<kBeta unit="Angstrom">1.3922500</kBeta>
			<ratioKAlpha2KAlpha1>0.5000</ratioKAlpha2KAlpha1>
		</usedWavelength>
		<incidentBeamPath>
			<radius unit="mm">145.00</radius>
			<xRayTube id="1010048" name="Empyrean Cu LFF HR (9430 033 7310x)">
				<tension unit="kV">40.0</tension>
				<current unit="mA">15.0</current>
				<anodeMaterial>Cu</anodeMaterial>
				<focus type="Line">
					<length unit="mm">12.0</length>
					<width unit="mm">0.4</width>
					<takeOffAngle unit="deg">6.0</takeOffAngle>
				</focus>
			</xRayTube>
			<sollerSlit id="21010002" name="Soller slits 0.04 rad.">
				<opening unit="rad">0.0400</opening>
			</sollerSlit>
			<mask id="22031000" name="Fixed mask 13 mm">
				<width unit="mm">9.00</width>
			</mask>
			<divergenceSlit id="22120001" name="Divergence slit 1°" xsi:type="fixedDivergenceSlitType">
				<distanceToSample unit="mm">50.00</distanceToSample>
				<height unit="mm">1.52</height>
			</divergenceSlit>
		</incidentBeamPath>
		<sampleMovement xsi:type="spinningSampleMovementType">
			<spinnerRevolutionTime unit="seconds">1.0</spinnerRevolutionTime>
		</sampleMovement>
		<diffractedBeamPath>
			<radius unit="mm">145.00</radius>
			<antiScatterSlit id="22090040" name="AS slit 9 mm (PIXcel)" xsi:type="fixedAntiScatterSlitType">
				<height unit="mm">9.00</height>
			</antiScatterSlit>
			<sollerSlit id="21020003" name="Large Soller slits 0.04 rad.">
				<opening unit="rad">0.0400</opening>
			</sollerSlit>
			<filter id="20030001" name="Large beta-filter Nickel">
				<material>Ni</material>
				<thickness unit="mm">0.020</thickness>
			</filter>
			<detector id="7010019" name="PIXcel1D-Medipix3 detector" xsi:type="rtmsDetectorType">
				<phd unit="keV">
					<lowerLevel>4.02</lowerLevel>
					<upperLevel>11.27</upperLevel>
				</phd>
				<mode>Scanning</mode>
				<activeLength unit="deg">5.542</activeLength>
			</detector>
		</diffractedBeamPath>
		<scan appendNumber="0" mode="Continuous" scanAxis="Gonio" status="Completed">
			<header>
				<startTimeStamp>2025-11-25T09:47:28-08:00</startTimeStamp>
				<endTimeStamp>2025-11-25T09:55:35-08:00</endTimeStamp>
				<author>
					<name>AutomatedUser</name>
				</author>
				<source>
					<applicationSoftware version="1.7b (136)">PANalytical Aeris Instrument Suite</applicationSoftware>
					<instrumentControlSoftware version="3.2.00000000 20240306">AERIS</instrumentControlSoftware>
					<instrumentID>950485</instrumentID>
				</source>
			</header>
			<dataPoints>
				<positions axis="2Theta" unit="deg">
					<startPosition>10.00943322</startPosition>
					<endPosition>99.99442286</endPosition>
				</positions>
				<positions axis="Omega" unit="deg">
					<startPosition>5.00471661</startPosition>
					<endPosition>49.99721143</endPosition>
				</positions>
				<commonCountingTime unit="seconds">12.495</commonCountingTime>
				<counts unit="counts">2841 2879 2903 2941 2907 2842 2878 2853 2850 2842 2847 2918 2945 2927 2908 2941 3004 2882 2845 2946 2972 2943 2935 2932 2871 2873 2922 2980 2861 2960 2913 2937 2903 2908 2902 2904 2890 2923 2963 2964 2922 2845 2936 2966 3059 2895 2930 2865 2885 2972 2882 2959 2897 2976 2928 2939 2740 3031 2804 2955 2840 2940 2900 2975 2917 2823 2917 3020 2947 2954 2925 2945 2870 2912 2985 3043 2941 2994 2908 2964 3014 2949 2992 2943 3078 2977 2945 3033 2985 3014 3008 2999 2983 3079 2910 2951 2982 2958 3041 3020 2993 3084 2962 3044 3014 3028 2971 3003 3017 3069 3083 3011 3004 3064 2999 3028 2930 3069 3145 2905 3120 3137 3025 3165 3048 3064 3115 3122 3085 3082 3007 3031 3093 3002 3034 3089 3117 2938 2988 3063 3017 3149 3005 3135 3087 3021 3054 2966 3065 3116 3053 3019 3016 3170 3111 3067 3128 3039 3095 3066 3094 3065 3099 3063 2976 3054 3082 3107 3002 3148 3180 3065 3122 3134 3074 3083 3119 3059 3047 3050 3078 3063 3080 3119 3116 3020 2983 3118 3002 3070 3081 3061 3009 3073 3092 3111 3039 3047 3023 3048 3022 3049 3109 3047 2983 2998 3002 3063 3021 3018 2943 3032 2991 2961 3050 3080 3064 3066 2899 3074 2993 3016 3044 3098 2995 2909 3073 3017 2977 3082 2965 2949 2946 2957 3014 3000 2991 2964 2979 3001 3050 3043 3043 3066 3025 2939 3021 3001 2940 3014 3032 2907 2998 3029 2934 2971 2951 3042 3006 2976 3008 3014 3127 3030 3136 2990 2943 3066 3061 2919 3033 3057 3045 2935 3044 3084 2952 3028 3022 3006 3014 3047 2926 2972 2958 2951 3047 3073 3065 2968 3079 3086 2993 3101 3099 3128 3152 3151 3013 3009 3011 3133 2988 3098 3067 3078 3158 3042 3078 2999 3164 3159 3124 3068 3019 3107 3112 3056 3087 3114 3061 3032 3086 3083 3104 3094 3179 3182 3146 3095 3181 3266 3061 3147 3157 3230 3230 3088 3253 3222 3245 3264 3247 3192 3190 3235 3214 3212 3218 3215 3289 3287 3230 3171 3269 3311 3206 3280 3209 3222 3283 3379 3299 3297 3263 3325 3358 3332 3416 3241 3431 3428 3384 3380 3337 3403 3414 3479 3422 3507 3419 3505 3534 3517 3396 3388 3441 3557 3512 3582 3547 3542 3539 3607 3599 3581 3564 3567 3503 3643 3621 3547 3631 3726 3663 3667 3724 3910 3743 3885 3878 4126 4050 4122 4138 4245 4222 4473 4476 4537 4509 4725 4671 4743 4523 4525 4512 4281 4268 4138 4090 4018 3996 3980 3965 3981 3945 3964 3925 3905 3900 3956 3986 3974 4011 3913 3937 3920 3882 3899 3908 3816 3831 3907 3867 3863 3878 3786 3738 3793 3782 3665 3644 3624 3610 3755 3657 3651 3672 3659 3668 3658 3713 3637 3637 3598 3519 3592 3616 3602 3530 3605 3547 3582 3454 3450 3566 3507 3525 3584 3565 3473 3489 3628 3571 3521 3554 3586 3495 3490 3540 3498 3643 3577 3582 3551 3532 3636 3553 3571 3504 3561 3800 3677 3642 3641 3676 3795 3589 3720 3657 3846 3700 3701 3606 3627 3532 3429 3444 3449 3361 3454 3420 3532 3348 3461 3336 3371 3463 3443 3493 3402 3418 3526 3413 3451 3491 3388 3390 3338 3434 3363 3356 3362 3352 3355 3345 3349 3270 3332 3334 3292 3309 3286 3240 3304 3427 3301 3215 3404 3238 3270 3223 3343 3253 3293 3320 3176 3174 3260 3209 3173 3066 3259 3170 3202 3187 3237 3279 3131 3163 3169 3183 3148 3142 3214 3056 3287 3184 3244 3195 3280 3131 3125 3240 3118 3269 3235 3319 3110 3240 3077 3151 3137 3169 3014 3107 3149 3073 3125 3119 3084 3174 3159 3013 3168 3175 3189 3156 3160 3182 3134 3211 3105 3176 3211 3043 3154 3164 3153 3209 3116 3060 3181 3142 3174 3186 3247 3147 3237 3221 3120 3306 3300 3139 3164 3245 3197 3226 3130 3073 3104 3173 3190 3210 3232 3097 3064 3056 3145 3074 3194 3102 3114 3049 3109 3077 3212 3093 3099 3110 3144 3069 3164 3205 3129 3144 3115 3113 3017 3042 3119 3120 3141 3059 3095 3121 3105 3082 3056 3052 3000 3016 3082 3025 3064 3139 3151 2948 3075 3049 3093 3144 3068 3070 2889 2948 3085 3144 2926 3115 3023 3006 3012 3064 3061 2899 3024 2901 2898 3036 2965 3012 3014 2985 3081 3086 3008 2989 2983 2989 2900 2941 2947 3036 2936 3047 3057 3027 2936 2994 2976 2947 2914 2977 2908 2889 2924 2965 2911 2932 2879 3005 2914 2989 2887 3011 2923 2895 2921 3030 2935 2951 2992 2956 2933 3014 2944 2935 2945 2933 2869 2994 2925 2888 2927 2976 2877 2903 2915 2882 2931 2912 2865 2912 2892 2944 3014 2865 2961 2783 2766 2858 2893 2825 2933 2849 2936 2934 2906 2914 2847 2959 2862 2834 2791 2868 2984 2857 2899 2795 2990 2961 2920 2961 2891 2780 2845 2992 2764 2831 2915 2887 2921 2804 2770 2853 2794 2826 2912 2804 2786 2871 2889 2824 2801 2815 2808 2828 2874 2707 2830 2905 2828 2783 2762 2792 2909 2874 2751 2822 2749 2830 2785 2751 2954 2628 2858 2704 2700 2779 2792 2738 2866 2757 2784 2774 2706 2823 2853 2790 2771 2885 2736 2693 2771 2697 2674 2804 2744 2832 2658 2722 2702 2719 2808 2693 2738 2798 2777 2669 2818 2819 2824 2762 2771 2738 2704 2704 2722 2743 2711 2644 2736 2776 2659 2688 2740 2739 2731 2667 2653 2710 2734 2670 2744 2620 2747 2661 2698 2587 2651 2631 2650 2679 2762 2706 2581 2673 2716 2681 2754 2758 2660 2727 2648 2764 2552 2634 2614 2778 2662 2655 2784 2676 2636 2577 2644 2695 2630 2656 2659 2715 2647 2534 2672 2659 2585 2635 2615 2619 2631 2697 2564 2640 2684 2628 2593 2731 2636 2680 2645 2630 2739 2690 2725 2673 2668 2696 2642 2614 2633 2597 2698 2658 2599 2642 2667 2636 2660 2670 2703 2636 2646 2658 2677 2610 2599 2721 2701 2715 2719 2697 2667 2684 2593 2648 2584 2669 2691 2529 2522 2600 2620 2604 2583 2618 2688 2627 2619 2692 2616 2651 2536 2661 2624 2824 2729 2608 2604 2725 2707 2621 2641 2666 2612 2513 2692 2689 2559 2674 2688 2784 2607 2636 2655 2691 2779 2698 2762 2605 2660 2641 2637 2640 2623 2644 2629 2602 2575 2598 2757 2676 2664 2685 2629 2665 2683 2646 2651 2670 2672 2693 2771 2587 2665 2639 2723 2599 2727 2698 2667 2725 2654 2615 2736 2717 2680 2639 2688 2655 2573 2652 2630 2678 2607 2713 2626 2640 2735 2630 2614 2640 2665 2565 2691 2562 2622 2607 2636 2621 2628 2519 2589 2618 2675 2628 2661 2533 2516 2557 2589 2579 2501 2572 2636 2490 2554 2550 2600 2571 2545 2557 2640 2563 2605 2570 2549 2604 2509 2567 2583 2516 2529 2464 2563 2568 2497 2586 2476 2492 2594 2457 2477 2383 2537 2556 2484 2584 2520 2373 2390 2402 2448 2469 2445 2510 2447 2528 2450 2372 2516 2430 2398 2477 2476 2394 2421 2392 2433 2410 2459 2334 2412 2373 2339 2336 2348 2386 2253 2342 2280 2308 2331 2236 2321 2359 2351 2317 2333 2305 2329 2326 2369 2386 2282 2325 2313 2245 2300 2374 2358 2237 2301 2338 2431 2299 2331 2376 2280 2292 2219 2330 2407 2306 2335 2248 2273 2268 2209 2194 2230 2248 2150 2251 2096 2148 2177 2115 2165 2171 2209 2231 2079 2174 2200 2069 2219 2178 2150 2168 2149 2106 2128 2146 2116 2134 2135 2125 2050 2116 2038 2054 2120 2034 2089 2004 2058 2048 2051 2026 2191 2030 2034 2124 1959 2048 2063 2049 2109 2066 2060 2091 2052 2041 2081 1970 2003 2079 2041 1941 1986 2059 1977 2021 1961 2052 2018 1970 2047 1901 2010 1968 2007 2021 1904 1983 2026 2033 2007 1936 2002 1926 1992 2068 1993 1935 1915 1993 1978 2044 1984 2004 1975 1971 1953 1937 2014 1954 1951 1960 1936 2053 1872 1884 1921 1999 1948 1989 1996 1980 1923 1919 1952 1940 1928 1957 1915 1924 1886 1897 1945 1903 1966 2027 1980 1876 1945 2013 1883 1940 1901 1960 1966 1947 1926 1948 1907 1969 1872 1980 1874 1897 1963 1917 1935 1979 1947 1855 1981 1894 1965 1998 1879 2010 1975 1902 1987 2003 1966 1907 1939 1952 2011 1913 1993 1900 1975 1937 1953 1945 1902 1992 1921 1917 1938 1978 1934 2030 1942 1846 1987 1851 1987 1977 1921 1960 1964 2028 1963 1940 1947 1891 1994 2000 1915 1925 1937 1974 1993 1883 1978 1925 1992 1961 1923 1928 1919 1883 1884 1909 1911 1934 1863 1967 1936 1953 1946 2021 1964 1981 1948 2041 1991 1948 1955 2017 1881 2019 1927 1904 1911 1964 1939 1965 1930 1893 1910 2035 1890 2032 1980 1945 1985 2042 1970 1962 1890 1967 1995 1934 1996 1947 1975 1987 1971 1984 2011 2023 1977 1953 2033 1987 1999 1988 2007 2088 1968 2006 2001 1970 2002 1968 2012 1933 1961 1921 2002 1994 1884 2001 1830 1911 1925 1943 1971 1906 1880 2028 1870 1847 1915 1832 1849 1857 1929 1919 1914 1945 1917 1830 1925 1771 1841 1860 1899 1826 1811 1932 1860 1809 1829 1807 1892 1874 1762 1784 1805 1858 1834 1872 1844 1791 1832 1802 1795 1874 1774 1864 1826 1864 1753 1818 1815 1753 1753 1825 1727 1788 1870 1762 1798 1760 1806 1783 1819 1784 1782 1746 1842 1820 1750 1709 1787 1748 1734 1796 1767 1740 1724 1682 1717 1752 1708 1658 1707 1679 1726 1750 1674 1769 1675 1640 1707 1740 1697 1748 1759 1808 1676 1680 1648 1676 1664 1618 1692 1702 1699 1691 1681 1647 1662 1629 1675 1652 1740 1696 1635 1623 1686 1620 1655 1547 1699 1727 1654 1655 1674 1636 1672 1670 1659 1618 1642 1643 1639 1601 1685 1729 1624 1605 1597 1596 1604 1650 1667 1699 1712 1644 1728 1757 1750 1752 1879 1797 1909 1883 1974 2102 2138 2198 2229 2368 2269 2271 2238 2155 2186 2098 2061 1963 2029 1887 1925 1904 1857 1766 1740 1687 1643 1734 1617 1625 1652 1641 1677 1630 1651 1644 1560 1586 1570 1620 1594 1524 1576 1625 1512 1541 1577 1579 1565 1583 1566 1532 1535 1585 1517 1510 1506 1506 1482 1557 1490 1534 1435 1464 1565 1447 1456 1532 1479 1509 1458 1434 1542 1555 1480 1463 1530 1439 1498 1436 1482 1416 1461 1452 1394 1438 1366 1525 1453 1442 1413 1450 1434 1440 1447 1447 1498 1433 1366 1489 1507 1437 1452 1468 1511 1534 1501 1559 1577 1555 1585 1531 1621 1659 1642 1613 1724 1776 1792 1871 1924 2053 2190 2139 2144 2229 2342 2586 2504 2637 2550 2594 2498 2446 2401 2418 2315 2223 2180 2064 1906 1872 1687 1687 1693 1603 1620 1521 1638 1594 1547 1542 1529 1540 1490 1500 1487 1557 1493 1551 1505 1454 1471 1487 1499 1411 1467 1439 1431 1415 1380 1421 1432 1384 1453 1379 1366 1333 1292 1349 1355 1301 1378 1355 1397 1311 1263 1290 1331 1311 1344 1294 1301 1333 1263 1298 1275 1331 1305 1369 1293 1300 1312 1246 1313 1248 1275 1324 1292 1269 1293 1238 1323 1274 1309 1204 1318 1244 1286 1239 1287 1273 1326 1306 1306 1227 1273 1247 1337 1281 1224 1341 1307 1338 1287 1337 1321 1290 1262 1261 1294 1246 1298 1305 1299 1352 1243 1334 1224 1369 1271 1319 1243 1336 1315 1336 1322 1304 1348 1380 1376 1375 1452 1492 1541 1528 1651 1768 1726 1809 1870 2046 2086 2088 2230 2215 2263 2214 2177 2204 2094 2062 2012 1925 1851 1739 1826 1685 1596 1538 1487 1551 1409 1421 1417 1447 1349 1338 1269 1288 1313 1280 1343 1354 1280 1368 1229 1255 1332 1355 1339 1232 1240 1247 1243 1242 1283 1270 1187 1228 1305 1239 1281 1294 1324 1312 1314 1324 1273 1404 1260 1329 1261 1227 1281 1282 1236 1191 1242 1207 1250 1200 1195 1216 1269 1187 1180 1161 1165 1181 1185 1152 1218 1155 1114 1181 1198 1177 1197 1160 1148 1157 1127 1165 1177 1173 1228 1206 1137 1183 1156 1214 1165 1205 1185 1179 1149 1215 1162 1230 1191 1185 1204 1146 1171 1217 1217 1191 1203 1232 1161 1093 1155 1178 1098 1194 1159 1160 1194 1087 1117 1176 1075 1180 1115 1114 1119 1119 1121 1088 1131 1172 1107 1125 1140 1157 1118 1109 1168 1121 1144 1173 1208 1111 1181 1120 1173 1143 1095 1133 1153 1116 1148 1175 1081 1120 1073 1117 1114 1184 1101 1170 1063 1114 1183 1100 1085 1137 1135 1123 1123 1127 1053 1075 1074 1106 1078 1117 1089 1146 1104 1116 1137 1118 1058 1116 1113 1060 1119 1151 1167 1105 1143 1195 1116 1141 1191 1140 1218 1149 1146 1243 1194 1190 1271 1150 1214 1217 1231 1218 1239 1233 1203 1281 1288 1239 1291 1235 1191 1201 1220 1204 1154 1214 1187 1240 1177 1190 1171 1187 1168 1136 1106 1126 1018 1166 1132 1129 1176 1156 1191 1135 1226 1129 1155 1104 1173 1146 1173 1151 1182 1168 1161 1166 1264 1235 1202 1170 1193 1240 1262 1199 1235 1268 1315 1328 1303 1442 1496 1526 1647 1745 1819 1948 2069 2285 2467 2585 2845 2875 3209 3449 3618 3719 3921 3895 3974 4016 3800 3630 3659 3413 3262 3130 2948 2866 2676 2586 2325 2149 2047 2009 1832 1790 1747 1728 1718 1621 1617 1581 1542 1580 1472 1441 1524 1520 1452 1478 1451 1488 1463 1325 1385 1333 1342 1309 1293 1306 1284 1339 1264 1294 1240 1313 1291 1271 1153 1209 1176 1178 1218 1213 1057 1172 1101 1139 1076 1161 1128 1082 1106 1085 1094 1102 1061 1127 1107 1082 1135 1099 1043 1077 1023 1109 1120 1094 1070 1020 1124 1101 1061 1036 1132 1086 1115 1089 1105 1116 1127 1118 1110 1189 1140 1094 1136 1119 1133 1038 1170 1128 1097 1151 1087 1158 1091 1110 1024 1062 1079 1080 1066 1125 1110 1082 1061 1143 1030 1051 1033 1069 1061 1148 1011 1051 1033 1077 1045 1106 1039 1047 1065 1062 1066 1122 1085 1093 1032 1051 1002 1117 1120 1038 1075 1117 1040 1035 1061 1043 1012 1064 1092 1065 1032 1025 1076 1019 1033 1045 1003 1073 1019 991 1013 1076 978 1043 1054 1042 1030 1036 1049 1010 1101 1029 1085 1045 1091 1048 1036 1112 1080 1044 1037 1122 1062 1061 1111 1010 1097 1058 1032 1032 1020 1045 1051 999 1038 1040 1041 997 1080 1035 1035 1022 1053 1074 1083 1079 1048 1017 981 1022 1056 1031 1068 1023 1033 957 990 1000 999 978 1047 985 983 976 980 1021 1044 1005 937 999 983 1009 961 1043 964 1023 978 1035 1004 1062 994 965 1031 1019 1013 983 1000 982 1010 962 984 941 995 1035 966 960 1019 983 980 906 1003 955 1022 1024 1024 987 958 988 997 1003 961 975 1022 1037 1024 992 989 1008 985 991 1006 1009 1002 1028 1074 1015 1044 1022 1007 1017 1098 1001 1054 1038 1038 962 1016 1033 1009 986 991 1008 986 986 944 982 995 960 994 1049 967 1005 960 944 936 1022 977 960 937 985 942 937 993 1004 1030 966 987 996 920 994 906 924 960 982 1009 955 957 877 926 941 994 898 972 924 947 990 982 937 960 930 1013 951 935 992 923 888 940 939 928 896 884 915 917 908 973 939 947 951 900 959 936 939 968 956 949 907 916 934 952 922 930 958 941 961 967 898 935 883 899 942 935 955 945 927 933 927 932 893 958 903 906 906 963 920 903 943 901 953 937 947 849 913 953 983 938 958 960 913 887 906 912 929 930 942 937 886 923 903 937 919 978 964 868 928 961 926 973 899 919 950 912 878 914 882 906 945 880 912 977 869 908 894 886 949 957 925 955 890 893 899 918 891 974 920 872 912 903 859 889 910 928 865 902 850 924 930 928 911 905 968 922 894 889 841 899 904 888 945 898 969 880 885 903 901 862 896 922 884 934 912 947 857 883 923 883 935 945 905 917 908 880 914 941 880 862 863 922 871 890 914 944 815 920 907 919 908 873 830 966 913 858 879 896 898 860 877 841 820 902 884 888 872 884 946 855 880 914 930 918 937 964 1005 961 935 920 935 930 893 869 986 926 958 1013 1037 953 978 1054 1017 1005 1088 1012 1030 1053 1063 1130 1137 1193 1250 1248 1233 1221 1201 1240 1226 1220 1286 1178 1194 1179 1076 1103 1152 1112 1098 1090 996 1030 983 1008 969 986 963 942 910 979 898 993 885 935 889 894 920 962 835 914 876 970 836 923 914 899 867 888 847 917 895 881 852 891 914 892 890 953 860 898 856 874 904 848 857 877 858 946 879 862 882 906 828 814 856 863 933 832 888 842 865 899 821 851 851 882 860 934 857 875 896 891 914 905 887 851 824 852 850 864 872 923 864 908 847 837 886 803 872 850 846 852 894 841 837 842 855 852 865 841 914 834 882 890 846 874 892 823 934 869 883 925 913 874 848 878 859 842 882 848 786 862 896 792 928 854 802 848 854 816 875 833 865 845 850 835 842 857 919 857 867 916 933 925 868 911 878 952 909 925 943 927 900 960 939 960 942 876 943 912 857 909 933 903 897 891 880 924 853 853 857 888 849 899 846 861 831 852 822 869 890 877 807 890 858 830 918 903 850 879 852 852 911 916 864 936 860 867 861 871 843 854 862 813 889 875 881 909 902 868 853 875 875 893 814 846 875 836 871 827 828 889 844 844 802 878 864 899 825 818 837 882 825 803 831 812 817 879 827 853 836 848 842 845 869 799 848 895 803 882 836 826 853 872 825 887 804 827 809 885 858 871 885 828 810 827 858 804 839 878 838 799 835 788 840 894 816 841 848 901 922 877 849 844 914 861 867 891 821 886 850 849 858 837 844 842 920 805 854 825 807 819 855 850 834 837 863 859 822 817 835 808 818 830 795 808 853 811 750 878 791 828 808 832 771 850 818 766 844 826 842 831 809 830 852 834 837 848 786 841 803 857 838 775 856 870 844 801 814 826 848 856 817 804 831 762 831 825 856 781 785 815 835 789 806 807 795 819 843 835 823 835 843 818 865 840 862 938 891 891 902 929 890 930 931 967 947 942 1008 1098 1051 1072 1110 1101 1072 1029 1058 1009 1052 1016 1060 1052 1070 1040 1025 955 1020 1025 898 929 928 949 945 913 880 844 873 861 887 903 860 833 848 827 809 831 818 807 847 824 829 805 816 795 836 844 788 804 851 801 812 785 832 805 816 741 833 784 811 823 765 784 834 856 768 843 781 749 886 785 814 780 810 806 815 769 765 766 748 781 748 832 825 794 790 780 786 792 745 833 820 827 767 806 850 821 855 790 786 798 782 848 777 805 831 800 870 836 793 808 788 806 826 832 763 779 811 832 798 817 778 786 748 746 804 833 756 819 790 823 804 784 833 798 818 753 858 764 802 844 791 812 760 774 799 773 813 800 775 780 794 792 736 764 762 783 826 777 798 749 765 784 783 803 786 796 798 794 824 751 765 790 834 787 819 791 773 779 769 747 778 726 790 809 793 735 793 794 766 778 766 783 826 743 780 790 764 775 781 786 809 741 778 794 748 786 790 754 806 739 786 772 752 764 802 782 767 739 792 779 734 820 776 813 761 814 784 809 768 718 814 769 766 723 810 793 755 788 774 826 810 752 799 782 788 799 770 793 796 793 782 748 820 778 866 865 898 798 784 810 871 797 846 786 751 767 816 807 823 865 809 904 795 803 793 774 807 780 845 773 795 811 783 780 776 793 755 754 788 711 756 786 797 820 743 811 785 792 819 817 787 779 804 760 783 839 825 857 925 830 863 868 932 914 983 922 948 946 912 981 990 1062 995 953 923 920 987 998 952 935 942 937 895 890 839 900 885 871 833 788 842 842 871 828 820 839 841 803 813 855 786 841 805 778 860 844 818 867 797 840 846 798 905 852 829 822 859 838 806 853 842 802 816 832 815 810 883 936 935 964 1007 1044 1040 1113 1142 1179 1296 1438 1405 1460 1597 1643 1677 1792 1820 1861 1986 1968 2073 2066 2100 2049 2022 1913 1988 2005 1831 1848 1812 1722 1726 1730 1548 1475 1478 1483 1334 1343 1225 1232 1178 1162 1150 1112 1097 1047 1032 997 1008 975 969 916 979 958 942 952 886 895 919 861 874 830 856 846 889 871 866 851 786 872 836 783 815 811 797 841 797 800 782 818 762 778 805 783 779 722 760 842 767 746 801 775 754 738 736 739 721 717 784 742 788 798 770 760 770 756 717 758 701 761 704 759 773 749 751 714 759 749 749 713 789 750 740 752 791 742 747 728 778 718 744 714 748 793 718 762 691 735 746 731 709 717 757 756 756 741 813 710 717 711 746 732 696 758 717 716 764 714 699 698 761 715 767 694 725 691 728 769 707 717 744 741 759 744 706 746 778 725 758 747 774 737 724 715 682 672 739 719 681 754 739 729 699 684 711 739 755 772 729 723 791 719 743 751 761 747 697 762 749 731 734 763 748 726 762 706 688 768 714 738 710 736 757 761 794 755 784 797 808 803 776 793 783 850 877 845 843 837 851 920 850 911 919 814 886 883 891 888 817 940 863 853 878 898 881 888 838 830 786 804 786 816 818 788 796 797 719 807 708 758 788 733 757 696 738 708 755 722 721 695 717 746 707 681 708 705 764 724 712 699 703 733 690 697 678 696 734 701 737 716 709 677 717 718 664 735 724 729 749 711 741 773 747 725 756 733 710 772 714 758 771 746 715 749 764 734 708 712 701 711 746 693 763 717 788 708 746 638 680 682 699 746 696 716 673 664 690 707 692 758 684 727 715 735 703 741 754 693 645 708 704 711 732 707 633 683 696 707 703 694 664 730 730 686 700 717 731 719 745 765 715 705 701 719 740 730 763 748 823 758 722 736 773 740 741 704 761 742 753 691 727 692 746 744 730 741 723 713 711 750 685 734 721 728 635 699 674 664 715 676 678 691 719 734 648 655 688 704 715 668 657 655 716 665 665 687 720 641 695 678 705 686 679 654 678 739 687 677 694 692 699 724 678 648 666 659 700 719 698 664 658 720 684 709 718 694 684 645 720 627 671 676 716 631 674 700 649 709 661 666 677 640 669 673 707 687 698 677 682 699 710 685 633 656 698 729 657 704 677 707 633 702 731 635 698 681 700 653 675 664 634 679 643 680 707 688 681 684 677 683 656 667 720 624 676 588 655 720 670 697 657 686 712 663 632 711 658 657 654 701 690 658 639 658 673 678 649 657 668 666 666 671 657 646 641 694 656 684 662 658 731 728 674 631 638 622 680 650 650 652 655 670 692 642 663 680 674 661 646 648 656 694 631 660 646 669 668 605 667 658 677 658 696 633 673 680 621 634 655 653 666 689 633 687 697 674 645 653 641 646 638 705 689 637 645 636 631 659 612 620 637 664 744 694 585 627 664 699 619 675 669 698 668 687 645 703 679 657 672 694 669 636 682 655 664 650 655 720 621 634 619 666 643 627 627 667 618 673 643 679 617 694 638 721 656 667 624 623 678 652 621 674 669 639 646 688 647 657 644 621 632 679 626 685 685 703 642 702 666 652 646 676 656 620 664 624 630 668 663 627 661 619 657 667 711 707 675 647 681 681 632 653 627 661 627 645 636 703 569 697 658 651 653 620 630 619 659 648 647 701 648 615 654 679 660 646 649 601 653 627 679 655 663 641 635 687 643 642 634 648 599 647 605 659 641 676 637 624 670 689 597 644 601 658 613 676 608 627 635 652 669 658 589 658 577 611 686 609 667 571 687 684 653 659 694 682 658 646 687 663 665 639 626 623 624 683 654 643 676 693 671 683 689 687 705 688 700 632 705 688 715 705 696 660 676 684 648 649 683 664 646 692 646 680 689 662 647 678 666 676 661 662 631 644 660 669 660 592 686 653 649 647 671 654 586 635 636 629 675 598 645 649 609 632 650 600 614 640 669 668 644 735 630 685 639 684 677 722 735 718 741 740 753 725 729 699 770 746 715 720 775 753 798 750 775 763 761 810 761 806 759 735 767 707 735 736 684 696 699 708 714 692 733 683 681 702 686 723 695 709 677 667 680 650 645 619 669 658 672 677 637 703 660 631 654 645 631 626 617 646 671 660 637 691 647 644 629 662 638 628 635 629 628 651 629 670 638 623 648 598 644 645 644 635 663 675 613 615 626 601 639 638 630 649 603 686 604 621 722 701 616 672 630 599 651 647 662 644 628 624 597 645 584 646 618 650 670 610 627 658 642 631 668 625 672 604 599 623 615 619 593 645 600 633 632 607 688 624 629 686 626 636 636 662 616 644 623 595 650 622 641 607 618 623 596 594 605 595 615 563 584 636 618 596 556 615 634 577 636 664 618 591 666 626 631 637 615 606 569 602 644 614 602 594 633 591 608 640 672 641 553 604 610 676 646 634 656 618 683 620 670 613 599 606 624 639 649 627 595 618 627 584 686 622 663 653 635 595 608 623 633 615 654 623 641 595 639 663 608 663 625 574 664 646 656 594 657 618 693 650 612 654 625 611 647 629 661 706 670 611 672 656 672 643 686 671 683 750 731 717 765 743 795 726 811 872 857 845 877 868 897 943 956 886 941 911 920 913 898 804 867 830 867 809 866 850 857 838 813 821 807 811 800 763 748 726 719 725 725 666 615 688 673 748 716 686 674 643 677 691 683 562 667 658 690 604 604 630 654 682 627 621 628 628 664 623 605 655 686 612 650 609 602 588 633 602 588 588 613 662 578 647 616 624 622 582 591 617 610 609 615 569 608 595 593 574 621 588 601 622 595 565 612 610 573 618 545 586 601 610 571 583 593 611 603 627 608 625 603 576 638 598 574 615 576 562 615 618 606 614 622 577 537 617 593 596 608 569 592 629 565 607 609 590 607 585 554 613 572 598 577 596 559 616 627 590 558 604 587 588 593 558 587 597 541 609 603 613 563 590 592 607 569 622 601 612 588 628 583 582 599 592 589 622 601 664 571 599 644 588 628 580 636 612 683 579 644 618 681 652 679 600 637 641 634 654 623 649 666 655 703 669 650 654 688 611 657 637 615 679 613 650 702 603 644 656 633 621 620 613 668 566 674 601 598 630 610 563 667 588 606 618 579 600 594 587 553 553 597 627 581 628 555 614 595 552 633 585 569 578 601 601 533 589 591 576 581 551 578 572 574 573 550 559 580 594 553 574 570 568 557 571 530 587 589 574 569 580 555 567 567 564 594 566 574 570 551 518 566 585 560 566 550 566 523 541 615 601 586 567 580 566 570 570 560 596 544 553 596 559 562 592 625 563 584 594 543 589 564 593 604 555 627 610 584 627 610 604 585 606 598 576 610 573 593 627 581 646 640 552 636 605 641 597 598 588 579 602 591 586 587 613 554 566 585 608 580 607 593 605 588 601 598 595 624 593 626 562 525 546 532 548 581 612 590 588 560 614 567 569 590 572 556 603 583 537 606 558 571 537 581 529 546 614 582 568 590 622 608 557 602 560 560 612 573 549 594 556 555 604 616 585 560 581 545 536 565 571 576 603 589 575 589 584 604 583 565 521 608 582 605 557 527 560 547 553 587 578 574 567 590 526 540 489 549 576 625 561 571 584 570 590 550 585 561 571 585 529 585 586 579 591 571 593 568 574 546 599 563 572 523 558 587 564 567 538 561 519 587 552 605 550 506 575 569 531 539 561 598 515 554 566 539 542 579 561 546 563 550 560 548 509 539 577 601 547 580 582 565 495 546 545 604 537 588 567 530 566 588 566 514 590 578 533 554 574 602 546 554 525 562 514 583 570 561 506 589 547 588 565 563 523 589 568 534 584 585 642 538 580 598 566 552 555 569 562 555 559 605 590 601 541 565 545 587 557 552 591 538 584 618 580 574 577 541 550 558 622 570 592 564 552 548 532 559 555 545 572 518 558 579 580 531 536 565 560 552 538 581 575 572 570 547 539 591 562 590 566 605 530 544 556 556 566 522 553 526 541 548 553 557 555 542 581 553 589 525 535 533 567 568 533 551 558 571 574 563 533 576 568 560 583 516 557 519 531 534 593 552 563 566 549 552 522 553 594 572 548 576 527 548 551 567 583 523 561 574 533 557 546 560 595 540 514 545 553 575 543 551 574 553 537 544 546 544 499 534 548 527 589 575 601 630 579 607 595 633 573 621 583 577 606 606 655 625 609 637 582 600 586 638 595 562 593 569 598 587 584 592 572 596 617 618 591 551 609 536 588 539 589 579 576 538 589 552 593 548 556 610 542 522 637 559 551 531 572 536 581 582 546 556 552 530 559 544 549 562 526 551 594 574 584 554 539 546 554 535 559 563 546 550 579 578 504 544 571 555 577 563 535 586 515 528 578 539 514 512 556 490 553 512 542 545 572 501 552 557 557 536 569 529 559 568 569 500 560 539 572 535 547 524 568 541 538 575 519 542 527 560 516 530 567 548 556 566 522 594 541 548 582 522 573 520 552 559 505 519 543 516 479 528 595 518 561 543 537 541 528 501 530 539 573 567 546 538 606 601 544 529 511 548 524 532 507 572 569 560 562 558 552 539 567 540 556 544 565 565 519 523 544 544 538 554 531 535 533 531 553 499 534 575 580 579 517 510 551 597 560 545 536 555 534 553 575 562 581 544 496 561 516 541 527 569 547 554 596 526 543 553 593 532 521 572 540 544 541 540 532 551 555 536 566 515 587 552 528 527 531 499 567 547 558 528 549 537 526 559 565 528 561 551 542 513 556 544 507 546 536 540 568 503 564 532 538 529 554 547 507 538 549 565 527 551 519 582 565 514 550 521 556 531 530 571 575 560 535 599 544 548 546 535 533 557 561 574 612 582 595 612 569 574 547 609 601 601 594 641 583 606 545 577 632 644 588 602 590 625 597 527 640 605 565 583 613 599 601 579 587 596 594 617 608 574 590 629 558 548 583 554 576 573 579 565 564 593 534 579 571 578 529 527 575 584 623 564 565 590 547 536 585 543 579 538 563 547 548 535 575 564 535 534 571 584 537 589 538 529 521 556 561 578 570 501 513 527 531 556 538 531 522 535 524 536 556 516 518 538 574 516 546 521 574 532 559 541 597 563 553 552 559 543 531 512 511 545 540 553 567 531 541 548 596 577 564 509 499 519 565 516 551 549 526 533 568 511 580 578 492 568 535 522 537 528 485 574 534 577 551 567 560 539 530 552 512 531 588 550 480 553 555 525 515 537 521 532 522 546 591 581 530 531 530 585 567 534 508 550 550 552 554 539 536 569 560 523 590 549 508 501 552 582 546 546 553 521 531 543 598 525 531 571 541 576 548 515 556 565 529 545 500 546 549 536 570 522 559 599 568 544 533 523 560 531 542 526 546 587 504 527 569 518 555 534 536 519 561 493 549 568 548 542 555 542 569 556 557 513 567 587 507 514 578 571 541 517 548 520 603 552 542 572 541 545 507 575 544 547 529 573 503 534 560 544 541 586 563 557 562 526 549 526 559 556 546 514 568 563 552 555 531 516 523 538 540 554 516 512 516 551 548 574 517 528 545 524 499 538 535 552 518 538 539 508 517 532 519 530 551 565 519 552 521 561 532 589 519 592 525 523 557 547 584 528 554 563 536 539 567 554 500 507 546 549 477 533 542 591 578 533 553 549 548 562 516 514 530 514 539 471 545 568 559 557 541 538 578 545 570 535 508 514 567 576 544 528 532 510 567 529 570 569 536 523 531 498 554 544 529 571 535 535 545 538 555 561 564 511 538 531 552 562 537 534 552 525 554 553 509 587 536 509 561 524 547 537 519 552 538 546 532 500 564 566 543 545 553 531 527 541 500 565 532 550 569 557 482 514 592 501 552 550 571 550 520 549 557 558 553 573 517 570 570 574 548 527 526 494 563 555 567 552 519 573 569 611 585 544 541 559 553 547 517 571 539 597 572 546 573 540 551 543 570 516 569 559 588 568 581 542 488 559 547 570 505 575 513 535 560 527 536 533 542 570 546 544 555 548 530 542 541 503 572 536 536 493 536 573 516 546 500 543 530 559 560 538 544 519 487 583 485 548 528 565 501 558 552 562 559 510 486 546 535 513 568 512 553 499 564 563 534 507 518 536 516 556 541 571 619 573 575 543 584 527 529 528 545 559 553 529 570 521 584 548 489 503 529 556 582 540 544 566 572 553 599 553 523 590 532 585 524 582 546 549 534 579 508 559 537 561 561 564 578 536 541 540 565 540 563 534 565 585 546 553 562 522 520 525 569 523 562 538 572 547 548 556 522 576 540 596 566 549 567 543 545 573 547 552 539 565 567 548 531 534 591 548 543 521 524 591 569 562 536 574 598 557 575 560 553 569 609 580 601 567 564 534 559 551 565 555 620 577 584 570 578 588 594 555 599 581 581 602 602 572 587 574 565 564 643 596 586 621 555 581 571 554 571 547 571 582 569 599 575 596 613 600 603 570 575 607 562 585 566 594 585 580 581 572 597 618 559 598 559 583 561 593 542 613 592 550 573 576 515 527 544 563 566 550 568 539 587 567 540 544 590 580 560 571 575 563 587 599 538 575 581 608 560 544 559 561 612 557 564 527 543 582 586 589 536 526 515 565 529 561 579 612 540 563 546 588 567 518 559 537 544 501 578 580 601 585 564 543 528 571 552 530 573 555 559 519 539 560 561 502 575 524 551 557 574 543 553 545 545 545 544 565 566 528 542 526 546 586 554 567 531 570 547 531 577 540 529 514 588 531 577 583 607 536 521 552 487 526 552 533 574 543 549 564 577 577 580 551 554 595 553 611 555 529 560 574 569 568 564 577 568 565 560 592 521 523 571 524 552 535 552 579 581 601 539 551 589 535 568 571 544 561 552 537 577 507 531 562 602 570 581 528 581 524 600 569 541 580 564 578 559 492 561 587 551 556 521 560 546 522 561 575 571 543 541 566 559 570 522 570 537 554 527 558 545 544 618 571 601 562 588 625 557 638 600 618 570 579 601 549 632 614 609 572 594 599 678 670 621 623 685 617 645 626 658 689 668 650 577 683 684 665 680 641 650 664 672 625 661 666 676 631 663 679 642 608 636 630 646 638 600 634 594 627 606 642 632 679 640 639 632 592 604 613 644 622 609 615 564 607 573 565 578 566 588 555 570 610 565 535 583 558 592 550 540 571 571 571 533 552 518 557 594 583 532 526 569 541 542 555 513 506 567 574 621 547 488 549 549 531 525 542 518 547 545 596 541 562 539 484 504 527 581 519 563 512 511 534 557 528 523 534 564 538 533 532 548 495 542 562 511 507 545 564 545 529 557 565 515 523 526 539 528 547 501 539 517 547 539 544 599 518 530 516 552 515 524 554 536 527 515 551 584 576 572 564 508 549 538 483 508 558 555 540 537 568 564 532 520 549 548 537 535 564 523 518 514 561 534 526 555 529 550 527 470 531 546 490 526 573 551 574 526 572 547 536 560 536 585 547 565 568 518 542 562 553 533 501 532 505 527 530 549 510 562 541 524 519 495 558 537 536 495 579 538 531 505 544 544 523 539 542 556 535 539 541 576 566 556 525 578 537 547 551 563 559 611 552 530 531 563 548 539 552 551 536 541 511 580 549 567 569 516 537 508 546 522 533 517 575 574 555 520 555 553 572 558 535 560 506 538 527 521 533 505 572 537 554 508 557 521 579 517 522 532 523 518 533 554 526 519 518 523 510 509 530 513 498 501 523 508 495 494 528 521 566 503 551 525 525 505 505 510 528 547 505 532 482 510 519 531 506 487 531 519 503 520 431 526 523 484 517 536 496 499 585 479 550 524 508 515 541 491 502 518 551 494 478 537 490 542 561 506 554 534 481 520 520 550 485 548 522 525 531 530 537 551 507 517 526 493 545 537 544 512 534 516 478 508 515 489 465 512 483 527 485 538 531 524 473 513 500 502 514 506 547 520 528 506 469 560 554 500 532 489 512 521 505 519 503 500 478 483 483 487 533 483 525 565 568 510 526 501 521 544 506 540 512 516 517 508 483 491 525 545 495 484 495 493 519 485 503 500 507 472 475 524 534 508 551 528 501 547 524 490 510 500 519 499 497 495 517 492 549 507 521 513 549 499 542 523 486 469 521 493 481 469 511 487 508 524 502 545 486 480 507 502 502 537 517 544 499 474 543 521 507 493 558 507 508 536 509 569 567 482 496 516 474 497 479 473 505 507 502 492 494 530 497 494 504 446 502 527 546 539 529 498 503 466 481 539 477 476 486 471 520 463 482 500 484 497 536 516 498 519 554 480 479 490 524 525 499 494 485 480 464 482 502 500 507 503 510 483 526 524 499 499 495 504 504 522 498 481 478 521 510 531 514 473 478 499 493 548 491 485 514 527 505 526 495 464 503 516 519 490 530 556 470 524 505 484 494 493 503 491 514 461 494 486 515 467 517 504 492 545 541 500 545 506 510 551 527 476 504 512 521 499 470 508 529 478 547 483 509 523 506 533 522 506 534 533 543 517 460 504 553 539 546 548 508 530 526 500 485 562 481 482 494 521 504 518 516 520 508 534 505 507 483 503 491 486 532 503 515 574 508 502 498 509 492 530 536 505 508 481 496 489 490 557 518 511 471 543 548 517 510 505 501 469 507 527 483 482 515 506 543 523 518 496 524 505 504 540 486 542 522 481 491 490 502 503 514 503 557 470 492 491 513 514 482 498 488 532 507 526 534 508 489 551 517 499 491 476 496 473 482 499 494 507 523 537 508 507 476 483 524 557 509 488 478 517 495 488 489 514 516 524 521 488 483 543 528 438 546 470 425 500 512 496 516 537 495 518 515 517 537 485 502 509 501 508 467 473 510 499 458 488 505 490 513 490 485 510 518 554 507 542 472 496 492 522 494 498 481 476 486 535 494 507 505 531 477 539 473 473 554 515 497 551 502 512 537 482 528 481 523 468 471 465 516 486 488 496 506 477 491 483 477 482 523 492 510 497 478 499 502 498 468 552 488 479 476 501 483 562 513 552 483 509 480 509 513 514 490 503 513 477 547 485 476 513 474 496 467 541 447 481 513 505 552 496 515 500 500 518 518 538 522 466 463 456 479 526 543 531 572 530 571 510 561 525 538 524 526 550 537 539 569 557 517 558 573 529 556 573 568 577 536 559 582 600 554 547 548 548 578 578 587 549 591 568 542 533 568 582 535 564 590 586 539 573 507 581 568 537 598 577 587 561 554 561 538 549 532 514 548 554 490 517 514 533 534 553 497 492 513 550 525 521 575 540 503 549 524 480 521 514 468 558 507 531 516 532 533 499 529 512 510 486 509 474 503 516 518 532 521 483 470 486 521 505 524 515 545 471 468 480 482 486 484 468 499 499 491 522 514 496 495 458 504 519 478 514 545 488 488 452 463 501 486 529 492 527 521 508 537 477 509 496 534 506 497 505 463 474 502 485 527 505 503 500 497 510 526 491 488 510 464 460 462 509 464 508 475 492 528 481 468 499 503 519 502 484 506 533 471 469 536 521 487 502 531 500 509 516 469 444 445 487 545 534 535 476 526 504 520 483 511 494 495 497 491 505 526 476 475 533 499 499 510 507 512 470 523 529 527 522 476 507 478 509 557 499 514 523 482 475 471 495 506 509 509 548 476 436 519 483 501 473 519 519 528 478 464 530 497 514 497 499 442 471 495 475 469 524 497 495 510 474 517 475 497 494 493 483 486 481 507 449 491 486 469 474 472 454 549 466 477 490 470 517 493 487 491 491 498 459 484 455 486 474 476 518 498 464 481 526 506 485 473 475 476 481 521 484 510 505 521 479 479 484 442 495 503 487 500 485 486 500 510 488 500 484 477 492 493 481 512 486 501 488 521 474 462 492 480 493 508 438 477 487 495 507 522 503 512 505 519 464 453 464 494 489 487 497 457 482 463 523 526 460 497 456 533 482 489 519 501 459 503 417 484 494 509 501 484 510 504 484 515 480 481 490 480 455 495 486 491 490 505 471 527 504 438 496 451 472 492 488 491 471 490 475 486 472 459 476 539 503 501 478 512 459 492 479 505 502 442 504 455 457 496 521 494 515 476 494 462 486 486 456 454 540 470 504 465 454 508 468 486 534 488 495 487 494 545 472 495 534 504 525 495 479 486 498 432 497 482 483 494 460 503 487 498 460 449 483 502 488 474 515 463 477 500 512 454 500 485 492 481 510 462 484 484 483 460 463 494 478 452 471 443 448 475 471 491 475 467 497 506 535 489 522 468 492 437 477 487 466 485 483 489 486 467 463 490 465 470 493 494 489 459 445 462 441 452 452 505 474 457 466 486 449 504 493 474 445 515 521 507 496 434 438 507 482 510 499 482 442 509 460 489 466 446 535 470 483 496 481 451 456 459 465 486 489 517 476 490 492 524 484 509 483 479 427 444 469 484 485 485 492 490 487 501 485 501 443 467 514 476 475 499 481 474 503 457 495 536 459 464 475 437 478 464 461 468 493 445 495 478 467 521 446 486 444 495 500 502 471 481 509 504 452 489 475 493 453 477 485 447 504 467 439 513 483 497 483 456 489 490 497 488 471 526 485 533 529 506 471 516 500 486 505 514 485 505 491 516 528</counts>
			</dataPoints>
		</scan>
	</xrdMeasurement>
</xrdMeasurements>
