<?xml version="1.0"?>
<xrdMeasurements xmlns="http://www.xrdml.com/XRDMeasurement/2.3" xmlns:xsi="http://www.w3.org/2001/XMLSchema-instance" xsi:schemaLocation="http://www.xrdml.com/XRDMeasurement/2.3 http://www.xrdml.com/XRDMeasurement/2.3/XRDMeasurement.xsd" status="Completed" recordIdentifier="{22E97A0E-2A8A-487E-BAB7-69ECDFB9A6A9}">
	<comment>
		<entry/>
	</comment>
	<sample type="To be analyzed">
		<id>GPSS_Li1p8Mn1p1Cl4_121325_693cb366f4d05ae3d69752b5</id>
		<name></name>
		<preparedBy></preparedBy>
	</sample>
	<xrdMeasurement measurementType="Scan" status="Completed" sampleMode="Reflection">
		<usedWavelength intended="K-Alpha 1">
			<kAlpha1 unit="Angstrom">1.5405980</kAlpha1>
			<kAlpha2 unit="Angstrom">1.5444260</kAlpha2>
			<kBeta unit="Angstrom">1.3922500</kBeta>
			<ratioKAlpha2KAlpha1>0.5000</ratioKAlpha2KAlpha1>
		</usedWavelength>
		<incidentBeamPath>
			<radius unit="mm">145.00</radius>
			<xRayTube id="1010048" name="Empyrean Cu LFF HR (9430 033 7310x)">
				<tension unit="kV">40.0</tension>
				<current unit="mA">15.0</current>
				<anodeMaterial>Cu</anodeMaterial>
				<focus type="Line">
					<length unit="mm">12.0</length>
					<width unit="mm">0.4</width>
					<takeOffAngle unit="deg">6.0</takeOffAngle>
				</focus>
			</xRayTube>
			<sollerSlit id="21010002" name="Soller slits 0.04 rad.">
				<opening unit="rad">0.0400</opening>
			</sollerSlit>
			<mask id="22031000" name="Fixed mask 13 mm">
				<width unit="mm">9.00</width>
			</mask>
			<divergenceSlit id="22120001" name="Divergence slit 1°" xsi:type="fixedDivergenceSlitType">
				<distanceToSample unit="mm">50.00</distanceToSample>
				<height unit="mm">1.52</height>
			</divergenceSlit>
		</incidentBeamPath>
		<sampleMovement xsi:type="spinningSampleMovementType">
			<spinnerRevolutionTime unit="seconds">1.0</spinnerRevolutionTime>
		</sampleMovement>
		<diffractedBeamPath>
			<radius unit="mm">145.00</radius>
			<antiScatterSlit id="22090040" name="AS slit 9 mm (PIXcel)" xsi:type="fixedAntiScatterSlitType">
				<height unit="mm">9.00</height>
			</antiScatterSlit>
			<sollerSlit id="21020003" name="Large Soller slits 0.04 rad.">
				<opening unit="rad">0.0400</opening>
			</sollerSlit>
			<filter id="20030001" name="Large beta-filter Nickel">
				<material>Ni</material>
				<thickness unit="mm">0.020</thickness>
			</filter>
			<detector id="7010019" name="PIXcel1D-Medipix3 detector" xsi:type="rtmsDetectorType">
				<phd unit="keV">
					<lowerLevel>4.02</lowerLevel>
					<upperLevel>11.27</upperLevel>
				</phd>
				<mode>Scanning</mode>
				<activeLength unit="deg">5.542</activeLength>
			</detector>
		</diffractedBeamPath>
		<scan appendNumber="0" mode="Continuous" scanAxis="Gonio" status="Completed">
			<header>
				<startTimeStamp>2025-12-16T12:10:49-08:00</startTimeStamp>
				<endTimeStamp>2025-12-16T12:18:56-08:00</endTimeStamp>
				<author>
					<name>AutomatedUser</name>
				</author>
				<source>
					<applicationSoftware version="1.7b (136)">PANalytical Aeris Instrument Suite</applicationSoftware>
					<instrumentControlSoftware version="3.2.00000000 20240306">AERIS</instrumentControlSoftware>
					<instrumentID>950485</instrumentID>
				</source>
			</header>
			<dataPoints>
				<positions axis="2Theta" unit="deg">
					<startPosition>10.00943322</startPosition>
					<endPosition>99.99442286</endPosition>
				</positions>
				<positions axis="Omega" unit="deg">
					<startPosition>5.00471661</startPosition>
					<endPosition>49.99721143</endPosition>
				</positions>
				<commonCountingTime unit="seconds">12.495</commonCountingTime>
				<counts unit="counts">2762 2762 2699 2791 2741 2666 2683 2752 2724 2614 2818 2741 2784 2757 2663 2681 2707 2705 2737 2730 2718 2781 2752 2694 2784 2657 2764 2674 2719 2650 2797 2649 2689 2721 2782 2664 2801 2689 2686 2780 2661 2667 2657 2727 2716 2590 2687 2777 2720 2781 2612 2676 2814 2743 2720 2601 2733 2697 2704 2729 2674 2672 2728 2679 2799 2747 2704 2752 2666 2716 2703 2727 2737 2670 2734 2750 2738 2702 2683 2774 2703 2647 2766 2753 2767 2791 2676 2743 2727 2778 2775 2708 2819 2689 2710 2689 2740 2666 2660 2736 2705 2645 2817 2614 2750 2719 2754 2704 2692 2716 2809 2671 2722 2656 2624 2689 2707 2643 2587 2698 2585 2654 2741 2684 2660 2603 2718 2639 2675 2604 2597 2732 2675 2649 2647 2561 2665 2583 2706 2600 2749 2665 2704 2637 2771 2665 2547 2644 2585 2649 2636 2598 2584 2576 2634 2636 2610 2627 2679 2574 2471 2524 2590 2536 2568 2585 2642 2611 2681 2577 2676 2645 2644 2631 2570 2684 2636 2687 2647 2670 2599 2557 2654 2567 2503 2568 2553 2519 2557 2629 2562 2578 2568 2535 2525 2627 2695 2624 2543 2490 2608 2510 2639 2640 2548 2618 2501 2502 2543 2581 2512 2602 2464 2582 2588 2542 2516 2610 2510 2643 2539 2563 2508 2476 2602 2610 2563 2595 2473 2579 2586 2581 2494 2462 2571 2534 2500 2584 2481 2439 2515 2593 2559 2548 2485 2521 2483 2516 2434 2511 2476 2453 2424 2334 2558 2565 2537 2520 2578 2486 2525 2516 2429 2586 2487 2505 2456 2475 2380 2512 2466 2491 2448 2477 2424 2504 2388 2493 2498 2592 2523 2484 2457 2486 2558 2404 2509 2480 2506 2510 2509 2450 2500 2481 2475 2501 2482 2488 2361 2534 2424 2553 2432 2442 2456 2580 2483 2581 2461 2513 2488 2460 2465 2531 2523 2620 2560 2438 2431 2471 2436 2424 2476 2575 2556 2466 2469 2529 2448 2426 2428 2576 2484 2469 2564 2461 2485 2479 2520 2638 2487 2465 2515 2417 2542 2483 2544 2495 2541 2573 2602 2473 2565 2506 2513 2626 2499 2535 2547 2610 2662 2586 2584 2759 2616 2640 2501 2715 2473 2581 2626 2621 2707 2649 2637 2493 2636 2646 2638 2658 2610 2642 2605 2640 2641 2706 2621 2614 2716 2610 2725 2704 2674 2663 2622 2690 2691 2740 2750 2763 2813 2620 2736 2734 2714 2778 2815 2815 2862 2891 2960 2920 2887 2946 2938 2967 3034 3054 3060 3049 3095 3036 3150 3249 3215 3357 3391 3348 3519 3528 3553 3589 3749 3827 3813 3866 3967 4002 3937 3941 3975 3923 3993 3966 4001 4107 3979 4133 4079 3950 3947 3947 3889 3907 3835 3869 3795 3873 3614 3629 3381 3453 3353 3248 3345 3300 3357 3219 3260 3218 3243 3324 3220 3255 3273 3315 3201 3277 3364 3385 3310 3229 3287 3375 3383 3399 3363 3373 3186 3141 3300 3353 3339 3255 3364 3331 3150 3305 3148 3250 3204 3218 3218 3135 3145 3070 3158 3076 3111 2946 2939 2980 3017 2951 2906 2866 2882 2863 2857 2969 2974 2967 2883 2895 2876 2803 2850 2896 2894 2921 2877 2762 2788 2860 2843 2865 2974 2852 2863 2826 2791 2754 2786 2810 2755 2836 2804 2778 2833 2744 2792 2604 2717 2667 2797 2715 2676 2759 2730 2753 2634 2691 2770 2732 2747 2687 2695 2680 2712 2631 2752 2616 2722 2635 2642 2753 2569 2566 2615 2702 2658 2669 2678 2730 2582 2572 2695 2626 2617 2671 2715 2732 2582 2656 2536 2639 2567 2644 2679 2574 2638 2612 2621 2633 2531 2464 2539 2531 2555 2589 2675 2655 2727 2574 2600 2559 2579 2592 2573 2541 2561 2614 2540 2648 2531 2648 2444 2670 2557 2518 2521 2558 2545 2585 2577 2565 2604 2442 2547 2522 2575 2599 2520 2459 2589 2546 2579 2576 2660 2524 2526 2564 2599 2558 2544 2468 2605 2577 2606 2558 2622 2445 2520 2661 2545 2471 2492 2491 2537 2538 2524 2439 2465 2556 2540 2429 2544 2526 2493 2518 2530 2509 2374 2509 2451 2432 2528 2511 2514 2463 2531 2469 2563 2505 2438 2497 2438 2361 2517 2481 2404 2556 2512 2535 2428 2536 2438 2521 2406 2533 2511 2466 2440 2493 2395 2526 2363 2521 2574 2484 2498 2441 2541 2490 2538 2474 2392 2427 2445 2522 2502 2499 2464 2465 2519 2427 2527 2508 2528 2504 2397 2461 2480 2411 2509 2421 2511 2372 2455 2452 2417 2444 2524 2378 2465 2429 2442 2467 2411 2433 2489 2506 2481 2388 2451 2470 2536 2457 2538 2430 2392 2369 2466 2504 2404 2458 2505 2476 2428 2400 2425 2425 2462 2502 2495 2405 2435 2346 2438 2457 2330 2396 2432 2347 2475 2440 2493 2400 2390 2448 2413 2393 2436 2388 2447 2412 2430 2384 2363 2437 2387 2405 2439 2401 2449 2434 2352 2405 2422 2377 2356 2418 2438 2404 2349 2392 2458 2367 2446 2445 2344 2381 2450 2441 2312 2374 2412 2420 2330 2362 2494 2323 2444 2357 2418 2295 2415 2434 2399 2448 2420 2501 2399 2401 2392 2358 2330 2426 2420 2400 2495 2425 2409 2442 2412 2419 2402 2324 2325 2295 2300 2347 2434 2340 2261 2297 2377 2407 2334 2402 2412 2263 2346 2344 2408 2286 2423 2338 2287 2336 2279 2318 2425 2354 2303 2389 2336 2334 2335 2357 2476 2409 2404 2334 2451 2368 2371 2355 2330 2362 2292 2322 2309 2321 2300 2265 2337 2275 2328 2335 2350 2343 2307 2376 2347 2279 2303 2324 2379 2377 2228 2283 2293 2306 2290 2311 2362 2358 2307 2247 2226 2336 2396 2358 2287 2370 2333 2306 2380 2346 2341 2376 2385 2268 2365 2252 2365 2291 2297 2329 2137 2217 2339 2350 2348 2304 2189 2298 2204 2250 2282 2298 2312 2277 2199 2310 2231 2212 2226 2359 2239 2278 2209 2333 2356 2317 2337 2270 2255 2257 2352 2280 2227 2335 2304 2315 2218 2284 2274 2304 2253 2225 2356 2283 2313 2295 2168 2217 2260 2355 2248 2230 2290 2269 2235 2256 2286 2298 2179 2189 2191 2230 2206 2211 2196 2308 2155 2243 2257 2260 2188 2393 2171 2249 2246 2239 2375 2281 2152 2335 2210 2294 2261 2312 2234 2300 2280 2233 2192 2253 2239 2240 2272 2203 2356 2249 2335 2200 2275 2250 2277 2271 2217 2236 2240 2237 2181 2295 2294 2143 2173 2307 2314 2208 2269 2175 2326 2158 2381 2266 2143 2257 2223 2246 2273 2208 2263 2245 2298 2183 2346 2290 2253 2299 2260 2351 2249 2219 2227 2311 2171 2250 2308 2284 2208 2295 2310 2239 2222 2349 2180 2183 2230 2219 2280 2221 2298 2283 2257 2254 2217 2210 2299 2208 2265 2267 2198 2250 2321 2288 2250 2183 2179 2215 2209 2226 2198 2318 2232 2309 2238 2295 2316 2260 2151 2318 2264 2312 2292 2283 2172 2189 2266 2260 2234 2212 2291 2151 2259 2295 2219 2298 2264 2129 2284 2188 2178 2283 2200 2239 2186 2115 2153 2128 2220 2266 2244 2263 2254 2153 2281 2303 2146 2221 2204 2129 2227 2138 2285 2080 2111 2093 2181 2201 2155 2211 2135 2137 2143 2132 2165 2050 2102 2202 2154 2168 2195 2147 2117 2120 2178 2111 2125 2090 2114 2160 2101 2144 2113 2178 2076 2094 2096 2190 2140 2056 2160 2093 2119 2108 2075 2045 2078 2103 2144 2044 1995 2099 2032 2129 1989 2072 2001 2146 2095 2043 1989 2109 2021 2069 2060 1989 2023 2049 2094 2035 1967 2050 2010 1996 2058 1981 1982 2019 1969 2090 2021 1984 2022 2099 1977 2017 1967 2025 2047 2038 1930 1865 1964 1968 1961 1957 2005 2088 2024 1965 1988 1980 1953 1958 1942 1985 1920 1904 2031 1981 2004 2008 1935 1882 1904 1961 1874 1972 1958 1992 1922 1928 2003 1937 1824 1901 1946 1962 1853 1917 1969 1955 1971 1937 1982 1956 1954 1926 1944 1972 1920 1900 1930 1928 1970 1926 1887 1909 1899 2007 1865 1993 1930 2015 1971 1963 1897 1846 1925 1906 1913 1874 2003 1925 1942 1814 1888 1921 1906 1930 1807 1769 1882 1946 1905 1913 1845 1807 1872 1958 1901 1864 1937 1813 1884 1890 1835 1869 1833 1870 1846 1852 1838 1928 1882 1923 1915 1895 1856 1831 1906 1895 1873 1861 1866 1807 1919 1836 1871 1905 1797 1861 1964 1875 1893 1870 1866 1903 1886 1878 1966 1849 1873 1903 1862 1899 1860 1832 1811 1905 1841 1858 1786 1914 1887 1921 1843 1833 1878 1899 1943 1838 1926 1912 1845 1923 1875 1823 1822 1932 1785 1811 1815 1850 1889 1868 1866 1879 1811 1867 1870 1851 1859 1915 1788 1790 1853 1850 1875 1917 1905 1789 1915 1810 1748 1849 1878 1829 1821 1859 1870 1825 1946 1805 1809 1909 1885 1825 1832 1841 1798 1996 1796 1822 1829 1850 1899 1920 1885 1906 1894 1859 1880 1735 1899 1801 1838 1837 1942 1818 1804 1877 1874 1898 1917 1861 1877 1889 1877 1868 1925 1849 1826 1854 1798 1899 1782 1841 1765 1863 1850 1826 1892 1870 1830 1840 1850 1861 1852 1914 1815 1854 1902 1913 1885 1799 1852 1866 1830 1846 1737 1918 1910 1856 1879 1878 1859 1848 1814 1768 1935 1757 1850 1876 1768 1836 1866 1875 1858 1906 1863 1823 1750 1797 1821 1796 1750 1775 1774 1755 1787 1741 1850 1805 1760 1792 1786 1831 1748 1828 1744 1874 1727 1802 1784 1862 1794 1821 1768 1750 1822 1870 1791 1760 1837 1714 1739 1715 1790 1742 1775 1770 1786 1776 1847 1735 1720 1755 1744 1715 1778 1758 1683 1733 1749 1698 1739 1652 1732 1733 1729 1784 1800 1720 1725 1734 1669 1763 1709 1762 1723 1735 1727 1701 1733 1743 1729 1706 1857 1732 1638 1729 1723 1732 1706 1694 1719 1697 1671 1757 1689 1647 1761 1689 1779 1668 1741 1649 1760 1672 1837 1755 1844 1717 1701 1699 1760 1716 1735 1744 1930 1800 1849 1830 1929 1848 1977 1936 2024 2112 2169 2121 2275 2412 2407 2433 2493 2564 2730 2676 2804 2820 2832 3065 2880 2922 3086 2882 3052 3011 2927 2961 2855 2853 2771 2739 2800 2590 2616 2494 2515 2356 2304 2109 2201 1997 2086 1920 1884 1845 1780 1855 1794 1863 1846 1757 1679 1795 1743 1738 1730 1683 1654 1694 1716 1722 1694 1756 1708 1702 1788 1741 1763 1707 1666 1698 1675 1642 1736 1681 1704 1653 1671 1673 1620 1635 1681 1591 1614 1552 1681 1672 1576 1666 1582 1655 1665 1658 1627 1637 1586 1585 1602 1659 1593 1599 1640 1705 1583 1710 1670 1649 1696 1687 1781 1752 1691 1814 1757 1778 1860 1892 1804 1998 2111 2208 2175 2311 2442 2562 2710 2781 2934 3005 3100 3258 3349 3443 3629 3698 3842 3877 4052 4021 3955 4003 4032 3989 3898 3939 3776 3838 3638 3553 3422 3274 3113 3093 2686 2701 2576 2361 2315 2110 1989 1983 1821 1833 1821 1711 1693 1739 1736 1727 1749 1694 1749 1658 1636 1690 1685 1736 1594 1670 1667 1716 1640 1691 1722 1747 1727 1720 1701 1734 1769 1691 1672 1686 1673 1728 1775 1784 1625 1716 1747 1666 1698 1700 1655 1693 1665 1665 1518 1573 1618 1604 1568 1558 1645 1580 1541 1547 1546 1519 1491 1590 1488 1510 1563 1493 1383 1558 1521 1494 1484 1488 1552 1423 1480 1506 1484 1489 1440 1355 1415 1430 1421 1475 1380 1373 1392 1368 1418 1382 1467 1347 1435 1443 1383 1454 1351 1374 1435 1407 1437 1360 1437 1362 1419 1441 1354 1425 1380 1419 1405 1407 1384 1351 1421 1362 1380 1376 1399 1420 1351 1303 1361 1324 1362 1391 1393 1326 1379 1347 1385 1356 1344 1385 1335 1362 1310 1428 1390 1383 1356 1349 1392 1339 1336 1312 1378 1376 1369 1332 1404 1339 1356 1322 1342 1288 1308 1398 1362 1349 1302 1363 1318 1313 1378 1378 1339 1310 1359 1374 1372 1356 1367 1453 1354 1352 1373 1314 1335 1283 1342 1319 1323 1367 1333 1367 1315 1345 1293 1375 1354 1271 1325 1310 1305 1297 1348 1333 1312 1327 1313 1297 1329 1291 1324 1286 1360 1309 1327 1304 1362 1372 1309 1292 1340 1363 1286 1359 1323 1377 1337 1331 1337 1294 1256 1352 1353 1265 1326 1310 1352 1289 1319 1392 1322 1235 1342 1339 1257 1351 1338 1377 1335 1295 1329 1301 1286 1387 1340 1394 1321 1263 1334 1283 1337 1384 1314 1280 1330 1289 1317 1400 1331 1329 1266 1382 1354 1321 1292 1346 1283 1291 1317 1327 1324 1295 1317 1357 1348 1294 1336 1357 1377 1298 1297 1327 1326 1265 1284 1355 1366 1278 1375 1330 1345 1410 1419 1358 1342 1271 1317 1387 1325 1334 1348 1314 1393 1353 1325 1280 1355 1368 1370 1277 1323 1302 1385 1391 1372 1383 1393 1406 1320 1403 1335 1328 1361 1299 1394 1377 1366 1369 1390 1337 1423 1327 1361 1363 1407 1362 1343 1386 1332 1376 1339 1406 1351 1422 1389 1342 1379 1369 1465 1415 1418 1414 1356 1392 1419 1417 1399 1448 1493 1424 1497 1422 1408 1413 1478 1490 1598 1566 1557 1613 1563 1568 1611 1619 1665 1761 1711 1730 1831 1750 1998 2008 2102 2174 2160 2385 2452 2682 2952 3208 3592 3808 4412 4723 5228 5581 6105 6614 6806 7235 7902 8348 8516 8903 9113 9146 9260 9522 9586 9536 9395 9097 9028 9069 8645 8350 7980 7742 7288 6851 6256 5769 5175 4949 4467 4234 3974 3674 3547 3177 2979 2810 2636 2627 2450 2398 2416 2558 2468 2493 2357 2548 2416 2437 2458 2482 2377 2524 2412 2382 2390 2385 2405 2360 2360 2297 2254 2228 2261 2250 2196 2225 2208 2122 2082 2085 2121 2146 2085 2126 2163 2027 1995 2030 2079 1964 1971 1972 1903 1923 1935 1890 1874 1772 1837 1802 1757 1770 1685 1697 1636 1673 1641 1626 1695 1611 1569 1596 1593 1581 1545 1515 1476 1518 1463 1379 1448 1461 1464 1396 1436 1416 1426 1428 1322 1361 1363 1363 1333 1364 1321 1281 1279 1323 1245 1356 1300 1360 1312 1340 1422 1308 1330 1235 1304 1307 1355 1338 1420 1261 1327 1332 1272 1305 1256 1266 1315 1227 1339 1286 1368 1321 1288 1228 1321 1323 1237 1311 1334 1326 1217 1267 1272 1299 1337 1312 1273 1233 1312 1316 1296 1308 1301 1359 1300 1281 1311 1249 1269 1237 1301 1380 1275 1316 1250 1221 1193 1255 1261 1267 1262 1321 1266 1290 1242 1289 1246 1276 1270 1268 1239 1268 1273 1238 1269 1237 1216 1242 1262 1257 1284 1200 1205 1268 1190 1281 1270 1228 1275 1240 1187 1295 1203 1235 1293 1258 1206 1247 1198 1234 1223 1231 1213 1273 1257 1333 1292 1254 1242 1246 1259 1238 1276 1246 1244 1207 1236 1275 1276 1263 1245 1222 1291 1226 1260 1247 1242 1268 1232 1268 1251 1179 1267 1209 1251 1244 1235 1230 1240 1195 1260 1236 1277 1230 1298 1291 1256 1283 1273 1200 1238 1190 1249 1289 1304 1303 1253 1320 1267 1287 1305 1322 1297 1363 1296 1309 1300 1307 1299 1384 1298 1313 1358 1316 1287 1357 1348 1350 1405 1293 1259 1265 1279 1230 1253 1265 1294 1265 1323 1258 1227 1230 1288 1289 1339 1257 1264 1234 1208 1278 1260 1204 1141 1302 1254 1200 1228 1248 1226 1223 1275 1283 1261 1234 1227 1268 1300 1244 1280 1250 1334 1301 1239 1274 1272 1335 1292 1264 1291 1310 1285 1229 1263 1192 1272 1255 1278 1247 1283 1227 1262 1261 1171 1258 1188 1291 1223 1202 1252 1210 1154 1187 1204 1236 1197 1179 1235 1225 1232 1249 1233 1167 1190 1248 1235 1205 1230 1139 1200 1179 1178 1157 1215 1226 1201 1159 1226 1243 1233 1200 1231 1204 1182 1163 1158 1211 1175 1172 1200 1134 1172 1184 1180 1232 1130 1241 1117 1106 1188 1200 1246 1269 1117 1207 1199 1197 1197 1203 1174 1179 1170 1228 1164 1164 1189 1162 1198 1136 1129 1209 1193 1243 1153 1235 1169 1191 1134 1141 1164 1167 1145 1226 1192 1106 1248 1123 1165 1198 1190 1116 1156 1135 1155 1232 1232 1116 1218 1259 1165 1151 1152 1115 1131 1161 1178 1192 1158 1137 1189 1204 1181 1210 1219 1168 1209 1169 1175 1241 1230 1231 1156 1242 1176 1214 1138 1122 1148 1166 1174 1181 1204 1165 1170 1163 1156 1295 1231 1162 1108 1153 1144 1170 1131 1156 1139 1182 1182 1092 1201 1162 1156 1118 1139 1158 1157 1143 1208 1161 1086 1159 1200 1198 1096 1140 1170 1182 1165 1218 1179 1206 1159 1183 1141 1190 1159 1195 1191 1153 1229 1189 1146 1192 1123 1143 1171 1134 1223 1176 1146 1097 1174 1177 1193 1127 1098 1273 1168 1139 1196 1219 1140 1212 1192 1185 1197 1159 1122 1147 1182 1146 1164 1143 1133 1176 1186 1100 1179 1155 1173 1224 1131 1161 1108 1155 1206 1175 1154 1158 1206 1157 1090 1175 1162 1133 1168 1150 1141 1095 1145 1142 1167 1129 1139 1157 1188 1188 1149 1144 1164 1121 1173 1186 1168 1098 1180 1185 1139 1199 1152 1130 1127 1147 1148 1138 1107 1134 1195 1113 1136 1157 1142 1237 1165 1174 1131 1104 1184 1156 1204 1183 1172 1167 1101 1158 1160 1140 1073 1208 1144 1182 1133 1202 1104 1138 1075 1185 1176 1130 1136 1123 1129 1101 1155 1183 1168 1222 1171 1120 1123 1207 1167 1183 1186 1157 1174 1181 1227 1166 1232 1093 1177 1163 1118 1209 1124 1110 1163 1138 1080 1115 1124 1179 1188 1233 1211 1185 1189 1178 1214 1175 1125 1170 1165 1132 1187 1148 1179 1167 1071 1185 1143 1214 1189 1159 1082 1168 1183 1145 1185 1146 1116 1203 1165 1148 1226 1172 1108 1158 1187 1094 1181 1142 1165 1107 1140 1188 1099 1189 1169 1188 1099 1152 1181 1118 1146 1086 1196 1247 1108 1171 1175 1119 1109 1157 1152 1221 1092 1126 1142 1219 1125 1151 1078 1149 1176 1122 1178 1147 1174 1123 1237 1177 1085 1184 1175 1148 1158 1229 1180 1121 1122 1166 1119 1076 1184 1170 1164 1101 1179 1144 1138 1134 1166 1169 1106 1184 1139 1154 1173 1120 1203 1096 1189 1149 1157 1183 1128 1106 1186 1108 1213 1146 1139 1128 1145 1128 1195 1141 1112 1164 1142 1147 1187 1172 1176 1169 1183 1165 1190 1150 1210 1129 1189 1172 1134 1099 1171 1124 1101 1168 1073 1128 1135 1194 1134 1106 1133 1157 1084 1145 1218 1158 1132 1145 1176 1130 1169 1127 1141 1176 1125 1126 1126 1057 1179 1140 1103 1141 1118 1128 1094 1184 1135 1082 1120 1146 1145 1181 1140 1127 1174 1095 1173 1162 1162 1127 1177 1124 1187 1099 1178 1101 1132 1185 1170 1173 1175 1187 1139 1131 1157 1077 1155 1164 1128 1186 1203 1211 1138 1124 1208 1126 1193 1178 1140 1172 1192 1140 1199 1123 1226 1211 1210 1184 1198 1176 1135 1169 1131 1165 1244 1161 1205 1195 1158 1127 1204 1223 1172 1179 1165 1140 1194 1160 1168 1220 1142 1226 1255 1298 1294 1272 1332 1342 1380 1420 1478 1520 1507 1601 1679 1652 1759 1752 1853 1919 1910 1990 1994 2057 2048 2105 2077 2051 2139 2015 2054 1986 1987 1956 1914 1886 1870 1874 1660 1746 1593 1544 1501 1436 1457 1487 1397 1373 1269 1332 1329 1319 1219 1219 1253 1206 1210 1270 1201 1191 1151 1140 1147 1165 1230 1191 1184 1141 1225 1190 1235 1234 1150 1228 1170 1177 1186 1240 1180 1223 1239 1166 1208 1135 1220 1171 1156 1229 1161 1251 1221 1183 1189 1204 1250 1317 1227 1213 1218 1245 1247 1210 1155 1286 1207 1201 1268 1206 1212 1165 1221 1220 1224 1163 1233 1166 1254 1231 1187 1200 1186 1217 1158 1168 1279 1214 1265 1155 1242 1158 1147 1211 1195 1243 1158 1194 1134 1188 1214 1099 1168 1143 1184 1149 1157 1129 1105 1151 1150 1144 1155 1096 1179 1125 1136 1157 1142 1116 1147 1148 1145 1119 1117 1157 1118 1167 1154 1146 1130 1155 1136 1155 1202 1167 1154 1164 1088 1084 1124 1161 1128 1144 1147 1172 1099 1094 1136 1173 1187 1135 1117 1122 1080 1132 1157 1119 1194 1088 1142 1108 1099 1153 1107 1140 1035 1111 1153 1154 1111 1133 1181 1134 1139 1190 1163 1108 1163 1092 1127 1112 1139 1152 1130 1077 1142 1099 1139 1133 1200 1128 1141 1140 1111 1123 1124 1099 1082 1148 1114 1122 1134 1201 1156 1168 1113 1135 1129 1131 1143 1162 1200 1224 1093 1126 1122 1176 1218 1112 1153 1092 1048 1144 1145 1141 1185 1194 1220 1234 1145 1140 1154 1151 1148 1136 1108 1178 1136 1169 1151 1100 1155 1127 1157 1145 1169 1192 1117 1123 1188 1096 1172 1062 1187 1130 1158 1144 1138 1166 1172 1133 1121 1158 1166 1168 1181 1151 1203 1112 1104 1167 1224 1163 1247 1183 1134 1142 1179 1141 1172 1141 1168 1151 1174 1133 1165 1169 1158 1178 1153 1147 1197 1178 1144 1156 1210 1090 1191 1207 1173 1148 1155 1136 1208 1127 1141 1111 1216 1219 1156 1218 1142 1157 1132 1163 1094 1107 1215 1202 1209 1287 1240 1222 1225 1156 1192 1220 1225 1138 1225 1238 1238 1292 1268 1270 1290 1280 1249 1309 1270 1312 1337 1288 1330 1345 1396 1420 1452 1506 1476 1512 1531 1609 1635 1775 1820 1982 2202 2377 2670 2816 3138 3417 3767 4035 4162 4534 4662 4921 5181 5398 5432 5860 5950 6199 6369 6394 6511 6235 6065 5936 5920 5783 5795 5332 5283 4819 4363 4208 3965 3624 3439 3184 3062 2873 2856 2617 2418 2293 2127 2031 1830 1719 1658 1540 1653 1512 1569 1511 1544 1526 1566 1439 1434 1483 1468 1465 1476 1475 1451 1401 1482 1481 1404 1461 1425 1385 1500 1381 1456 1487 1438 1484 1440 1459 1435 1447 1408 1424 1411 1422 1418 1460 1388 1475 1493 1417 1421 1417 1430 1426 1385 1426 1431 1381 1395 1385 1350 1424 1398 1355 1369 1408 1374 1384 1398 1313 1377 1335 1398 1366 1316 1377 1359 1342 1327 1371 1348 1384 1385 1413 1347 1402 1434 1330 1314 1366 1324 1401 1312 1335 1328 1292 1305 1327 1319 1285 1312 1245 1274 1320 1218 1246 1192 1192 1206 1221 1158 1260 1156 1238 1195 1181 1206 1188 1143 1216 1077 1195 1156 1160 1229 1129 1170 1180 1169 1161 1179 1124 1094 1190 1118 1159 1130 1197 1076 1145 1143 1209 1224 1126 1138 1181 1143 1152 1113 1139 1164 1182 1121 1170 1142 1139 1182 1125 1141 1157 1189 1163 1144 1087 1151 1087 1148 1042 1086 1133 1130 1070 1179 1151 1177 1141 1123 1194 1163 1240 1272 1218 1217 1177 1258 1358 1294 1358 1442 1445 1473 1518 1599 1593 1584 1603 1638 1598 1757 1643 1630 1674 1648 1682 1690 1630 1738 1616 1617 1624 1652 1567 1520 1521 1446 1473 1376 1373 1369 1362 1308 1362 1292 1289 1289 1230 1225 1277 1218 1121 1137 1155 1207 1173 1214 1155 1162 1141 1139 1143 1139 1201 1125 1123 1194 1149 1127 1154 1158 1189 1113 1102 1177 1114 1116 1127 1131 1164 1168 1115 1149 1144 1167 1153 1099 1174 1187 1190 1118 1139 1074 1129 1079 1143 1083 1124 1157 1129 1140 1059 1152 1167 1123 1040 1135 1264 1085 1091 1057 1085 1080 1084 1113 1079 1069 1072 1122 1101 1112 1019 1052 1037 1079 1093 1062 1088 1075 1060 1020 1053 1099 1027 1125 1078 1105 1129 1052 1110 1024 1051 1058 1117 1075 998 1099 1081 1139 1073 1088 1033 1133 1064 1142 1103 1093 1137 1097 1060 1082 1062 1064 1036 1100 1086 1093 1001 1083 1012 1073 1020 1069 1074 1123 1094 1094 1050 1019 1073 1041 1095 1116 1013 1053 1047 1059 1067 1140 1085 1083 1063 1110 1032 1023 1107 1092 1103 1047 1072 1057 1101 1082 1078 1102 1082 1060 1091 1080 1108 1124 1067 1081 1059 1087 1037 1051 1019 1132 1048 1063 1033 1109 1177 1086 1051 1081 1068 1090 1035 1120 1078 1129 1014 1049 1039 1060 1028 1045 1047 1099 1088 1016 1078 1069 1118 979 1035 1010 1058 1035 1053 1069 1100 1102 1046 1057 1062 1032 1074 1079 1014 1043 1139 1068 1076 1115 1123 1021 1147 1071 1088 1076 1035 1036 1109 1009 1079 1076 1074 1008 1047 1048 1017 1033 1083 1043 1059 1070 1048 1062 1076 991 1031 1094 1051 1078 1048 1097 1080 1082 991 1021 1045 1013 1070 1077 1080 1082 1080 1065 1053 1083 1090 1032 1079 1061 1113 1094 1124 1095 1000 1042 1105 1048 1049 1049 1046 994 1052 1049 1070 1105 1061 1030 1004 1056 1044 946 1112 986 1052 979 1050 1011 1029 1089 1017 1040 1005 1055 1019 1043 1002 1012 1088 1020 1029 1037 1054 1016 1075 1013 1036 1049 1004 1042 1090 1064 1034 1101 1025 1080 1036 1102 1072 1078 1024 1000 1021 1003 1034 1013 1051 1067 996 1047 1035 1110 1051 1045 1054 1054 1016 1098 1071 1011 1050 1033 1096 1015 1062 1062 1050 1038 1026 1077 1039 998 1015 1026 1072 1066 1051 1035 1046 1045 1042 1060 1027 1036 1059 1018 1000 1016 1024 1040 1071 1046 1054 1049 1060 1090 1019 1068 1040 1090 1030 977 1039 1130 1069 1074 1043 1051 1085 1044 1082 1068 1005 1021 1107 1141 1027 1033 1064 999 1036 988 1025 1092 1056 1024 1003 1058 1020 1005 1033 1037 994 1060 1003 1060 1028 1057 1095 1050 1093 1062 1022 1070 1069 1067 1049 1079 1005 1075 1030 1079 1037 1041 1062 1049 1038 1088 1042 1044 989 997 1008 1008 1124 990 1017 1034 1069 1091 1000 1112 999 1093 1052 1058 936 1054 1078 1009 1043 1014 1009 1017 1018 1085 1057 1047 1058 1021 1109 1060 941 1059 1104 1035 976 1010 1122 1101 1060 1113 970 1022 1027 1023 1044 1034 1042 1006 1072 1082 1114 1017 1059 1027 1037 1038 997 982 1033 1057 1084 1027 1101 1078 1016 1078 1055 1072 1080 1124 1169 1123 1137 1114 1184 1163 1210 1164 1185 1189 1129 1181 1195 1193 1177 1165 1110 1245 1184 1184 1196 1190 1120 1154 1124 1126 1092 1130 1122 1096 1078 1047 1088 1026 1107 1147 1141 1060 1119 1089 1028 1026 1089 1081 1025 1136 1105 1101 1044 1080 1063 1080 1067 1111 1152 1094 1119 1164 1139 1128 1187 1167 1218 1268 1401 1317 1442 1469 1518 1489 1539 1571 1640 1520 1587 1664 1664 1688 1650 1649 1627 1669 1681 1629 1637 1645 1577 1593 1540 1440 1462 1429 1348 1336 1337 1240 1293 1341 1324 1257 1241 1289 1137 1213 1204 1179 1096 1090 1113 1085 1130 1143 1051 1030 1076 1097 1055 1082 1028 1112 1098 1150 1060 1034 1061 1107 1086 1107 1123 1024 1076 1062 1085 1060 1060 1089 1069 1056 1051 1106 1090 1084 1037 1083 1104 1092 1061 1060 990 1047 1076 1040 1085 1101 1133 1089 1051 1104 1016 976 1078 1062 1049 1037 1049 1023 1102 1054 1043 1030 1044 1008 1041 1033 1079 1022 1112 1102 1035 1084 1065 1030 1031 1064 1049 1013 1070 1130 1131 1112 1021 1081 1062 1070 1069 1101 1094 1106 1060 1072 1075 1029 1115 1095 1118 1062 1054 1061 1054 1053 1041 1000 1032 1070 1115 1063 1081 1097 1048 1045 1102 1066 1075 1007 1063 1078 1013 1047 1088 1042 1022 1076 1059 1061 1058 1044 976 996 1020 1055 1051 1023 1078 1057 1026 1046 1021 1041 1043 1037 1098 972 1043 1024 1021 1021 994 1029 1029 999 1031 1049 1024 1026 1034 1035 989 1065 1003 1081 1067 1059 1084 1052 996 1024 1057 1036 1021 1107 1087 1140 1033 1032 1004 979 980 1050 1063 1082 1063 1074 1052 1054 1052 1042 1063 1010 1017 1106 1087 1055 1026 1055 1063 1065 1059 1113 1075 1066 1159 1054 1102 1025 1045 1140 1093 1148 1150 1128 1211 1224 1207 1234 1330 1363 1425 1518 1627 1611 1776 1830 1878 1955 2050 2022 2058 1995 2254 2250 2211 2231 2175 2123 2153 2220 2107 2118 2130 1942 2010 2047 1999 1842 1681 1759 1751 1687 1683 1644 1585 1505 1552 1500 1407 1435 1382 1359 1275 1312 1296 1197 1264 1225 1247 1170 1155 1134 1231 1210 1181 1136 1165 1213 1087 1138 1106 1048 1145 1191 1183 1161 1098 1125 1132 1059 1049 1102 1036 1118 1148 1124 1098 1109 1054 1105 1130 1153 1125 1124 1070 1106 1104 1058 1142 1111 1057 1086 1082 1096 1146 1090 1073 1115 1106 1010 1064 1057 1100 1135 1059 1081 1035 1003 1038 1047 1043 1029 1001 1058 1021 1019 1057 1057 1027 965 1020 1076 1061 1076 1048 1008 1045 1076 1087 1046 1018 1084 1042 1050 1046 1055 1076 1042 1038 1055 1063 1016 986 1077 1129 1038 1060 1030 1072 1070 1061 1081 1029 1046 1075 983 1038 1038 1024 991 1008 1049 958 1048 1013 1054 1032 1049 994 983 1069 1043 1059 1043 1075 1027 1016 1046 1105 1025 1062 1034 969 1059 1080 1094 1011 1084 1040 1126 1085 1135 1088 1111 1143 1149 1133 1221 1273 1272 1241 1253 1252 1282 1329 1341 1296 1271 1286 1299 1305 1283 1301 1284 1354 1313 1277 1267 1256 1227 1241 1210 1179 1215 1214 1222 1229 1188 1219 1160 1135 1159 1087 1100 1097 1079 1052 1078 1027 1070 1092 1041 1070 1090 1067 1078 1098 1084 1015 1079 1043 1029 988 1031 1089 1028 1113 1043 1057 1062 1012 1037 1096 1046 1031 1091 1065 994 1065 1065 1029 1046 999 1050 1028 986 949 1047 1044 1075 1038 1051 1055 1037 979 1000 1002 1069 1037 996 1051 983 1048 1012 1034 1056 1055 1071 1007 987 1058 982 1035 955 954 991 1008 1012 1058 1004 1048 1022 1012 1022 978 1093 1039 1011 1022 1106 982 1015 1031 995 1048 1015 1034 1048 1027 994 1013 1061 992 1015 1017 983 982 1036 1011 1010 1071 1036 955 984 1030 990 1069 983 998 1022 1049 1042 964 1040 1015 939 1079 1018 1048 1017 977 1001 1093 968 1028 994 994 1038 1022 994 1020 1016 970 994 1017 981 1036 1006 1031 1033 955 1045 1005 935 997 999 1033 1003 1054 984 1047 1005 1034 1032 963 1043 1014 1039 1040 1039 1036 1065 964 1012 1063 1008 1007 1080 1002 979 1041 1036 990 1021 1013 963 1048 1036 1015 998 959 1005 983 993 1021 1015 1024 963 955 1066 1012 1018 956 1031 1032 1021 1023 1015 1031 1003 1022 928 1022 1011 1024 982 1037 931 1004 972 1029 972 994 1023 990 1003 992 1018 1031 1005 1021 1027 1005 1013 968 983 1013 1023 995 1044 1128 1032 975 1027 991 1011 953 1001 1054 973 996 1036 1029 1042 947 1030 1008 1025 985 989 986 1006 975 957 994 1055 1023 1020 1016 983 1008 1026 978 1054 977 954 973 1033 986 1027 992 978 999 950 969 964 1016 993 953 1060 960 1014 974 996 941 1018 1059 955 1001 965 1023 983 1053 979 953 1016 1041 1027 969 987 977 1024 1016 1014 1008 1010 987 990 983 998 1005 977 984 1029 1025 1028 1005 1016 954 990 986 967 993 985 1028 1005 1009 986 1098 1053 962 1031 1001 968 989 1014 920 966 970 949 1007 1012 1045 1024 1045 988 1023 1018 991 944 1031 1035 1037 947 1005 1013 1060 949 927 1008 963 971 995 944 1022 996 927 1014 926 994 1006 984 992 1011 1038 938 1058 1029 998 961 946 975 1008 1037 1017 901 1011 941 985 969 1017 923 1039 983 1038 1023 1028 961 980 960 1013 1013 965 1005 1002 968 959 930 1024 1002 1031 969 1046 1082 971 997 1015 990 1031 963 1023 953 994 987 1007 991 1027 1000 1033 961 1056 948 1010 965 1004 989 970 1048 1009 1058 967 1023 983 1051 1050 973 1003 984 1114 1037 1039 1038 1054 1059 1121 1094 1099 1150 1151 1172 1193 1193 1141 1151 1149 1210 1140 1130 1160 1170 1141 1161 1163 1130 1145 1129 1172 1148 1109 1117 1126 1054 1093 1107 1097 1078 1158 1051 1054 1047 1073 1050 999 1008 1074 1005 975 1078 1052 1018 1003 1025 1002 983 1030 967 989 972 1055 1008 1038 1046 996 1026 1049 965 1034 984 1006 1000 1046 1091 1055 1058 989 990 988 1024 1014 1036 979 1016 1018 969 1004 1021 1063 1029 977 1017 1016 1045 1013 1029 962 935 963 1009 987 975 998 1012 1037 1044 995 1021 988 975 1001 1010 1066 979 995 1017 960 1032 987 971 1022 1012 1009 993 976 928 955 925 975 1003 995 1033 988 997 983 996 1013 1043 1012 1076 1012 1011 990 1010 959 965 1042 1050 1013 1020 997 988 1029 952 1084 981 1005 1014 999 994 991 1048 980 1006 997 996 936 994 979 1026 938 1054 1010 925 980 925 945 1063 986 1021 979 1006 983 949 1003 930 993 1032 941 985 1057 968 984 965 998 957 916 991 991 1030 941 913 972 1043 1000 901 1014 995 959 1027 957 969 1036 988 964 939 1025 963 974 1008 961 968 966 1020 939 1006 963 1012 989 993 1047 1027 1009 997 1037 974 1035 1045 993 1029 1101 996 1001 1035 947 949 952 961 1009 1002 968 1008 963 1032 965 1002 1012 946 969 966 993 1020 1013 1033 959 997 1036 972 986 960 1001 1012 977 1053 1026 1029 992 1006 1017 983 1020 970 999 901 987 997 1034 1020 1071 1061 1075 1014 1039 1017 1069 1074 997 1124 1086 1104 1146 1111 1158 1108 1189 1235 1307 1390 1420 1405 1357 1421 1488 1426 1572 1520 1489 1463 1497 1503 1509 1446 1422 1493 1452 1415 1432 1335 1375 1323 1276 1283 1326 1326 1336 1308 1278 1293 1243 1276 1247 1307 1228 1238 1193 1191 1090 1086 1154 1066 1090 1082 1040 990 1006 1052 1032 1018 1002 1039 1052 1029 1018 1044 992 1002 992 1054 1013 1003 963 1013 1060 1011 1062 986 993 1058 1051 1067 1016 1038 1007 1101 1034 1018 1013 974 1044 1070 1041 1005 1024 1018 1006 1012 1009 1025 990 978 1060 1012 1075 1061 1060 982 1000 1052 1023 1019 980 1073 1021 1039 992 1017 1061 960 1021 1046 923 1065 1047 1008 1049 974 1029 992 1059 987 1029 1026 958 980 1064 983 940 982 1035 1056 1004 928 962 1005 951 1029 975 1049 1064 960 986 1043 1030 1071 933 1027 960 1004 977 1031 1028 966 960 978 1018 1029 1011 967 1029 968 1014 1023 1052 1021 1045 979 1006 1027 1016 1060 993 1031 1008 1048 1031 1017 1016 981 990 1045 973 1031 1006 998 969 987 1012 1003 915 1032 1032 963 1016 1027 995 1008 979 945 987 995 1007 968 953 962 1006 1058 1069 1013 1085 996 1033 1003 977 1072 1040 908 1007 990 984 984 1038 944 937 1039 933 992 986 946 953 974 1009 1012 965 983 967 922 1016 1026 957 966 974 997 1043 994 996 975 982 978 992 992 958 999 944 986 962 1015 1006 1041 982 1002 975 1021 929 1008 982 1013 1040 960 1005 974 1001 988 1012 998 1012 965 1042 1022 979 986 997 999 1014 957 948 1044 957 997 965 927 972 965 1022 1002 972 977 968 1016 999 957 967 972 982 1003 971 953 991 967 986 949 947 993 999 960 1017 1010 995 1066 976 939 1036 1011 964 986 968 1049 987 1034 1007 1019 990 1009 1022 937 1037 919 981 984 999 994 989 1058 960 985 1010 955 954 975 978 938 984 950 1014 969 1015 984 1030 936 1012 994 924 1003 967 998 943 1023 953 993 1027 980 958 968 1006 1002 973 976 1020 991 966 955 1011 937 1013 971 946 1016 960 999 1056 988 998 938 952 968 958 980 961 1012 1003 1040 1004 953 994 939 1019 1040 939 1000 981 988 973 993 976 1003 956 1004 988 987 987 943 971 980 965 954 967 938 920 1014 1035 997 994 943 926 1004 1013 1027 981 920 1029 1017 985 998 965 1015 976 1042 932 1043 968 993 932 1022 939 1075 988 971 1008 973 977 979 1000 958 976 940 929 922 975 955 969 998 1020 967 988 1022 963 1032 963 971 950 999 984 977 959 991 996 975 992 978 1005 987 915 1006 968 944 989 984 1031 1023 981 1022 997 933 987 969 977 997 987 932 934 1010 929 965 1045 1043 1021 982 982 1008 949 982 983 1000 916 1011 935 991 1008 1048 1005 975 957 980 934 928 994 941 938 1007 968 1052 977 969 995 1050 1016 997 1018 959 1037 1010 1007 1011 934 987 983 958 1010 1025 1013 1012 950 962 978 968 984 961 1043 993 1013 1033 992 986 955 1053 984 951 952 1035 1017 971 995 986 969 978 1034 985 982 1022 991 1069 1019 1034 992 962 975 1024 967 964 984 952 1007 1023 1020 1026 989 1076 987 976 964 1010 1018 955 995 1072 943 1046 968 998 1024 996 999 1010 1033 982 1002 1003 1030 996 1035 1013 1091 1006 1045 1054 988 974 1019 1037 1012 1011 1045 1042 1048 1164 1068 1138 1168 1160 1165 1207 1141 1111 1132 1144 1121 1154 1105 1123 1129 1086 1012 1093 1107 1068 1087 1119 1145 1118 1073 1095 1107 1039 1087 1039 1111 1119 1064 1157 1068 1053 1060 1010 1049 1041 1038 1080 996 1018 978 1108 1013 1049 1018 1103 1102 1032 1083 1156 1080 1131 1095 1089 1138 1175 1184 1167 1091 1192 1209 1171 1135 1175 1213 1162 1128 1176 1171 1102 1113 1129 1067 1160 1090 1096 1135 1079 1100 1158 1150 1084 1152 1157 1135 1122 1101 1109 1025 1015 1125 1052 1028 1084 1090 1030 1068 1070 984 1030 1054 1020 1019 985 987 969 966 1026 1029 1060 1052 1035 982 989 1032 979 1006 1003 1025 961 950 989 983 983 999 991 962 1039 1023 1037 1013 975 964 1035 1018 967 991 1006 1045 992 1025 1079 1000 1046 1022 1068 957 1022 1029 1022 1011 1008 977 995 1049 986 985 1030 961 1032 1014 1007 950 1053 971 1027 943 972 960 1001 1014 1036 977 1040 948 979 1036 1012 1047 1035 1067 1039 1044 1008 1013 981 1039 1049 1027 1046 1002 1010 1021 1067 984 1030 996 1043 951 976 1008 1032 1068 1035 1033 1004 1002 1017 963 1001 1067 1032 1010 1034 996 1076 1049 1003 999 1026 1004 1007 1020 1070 1047 955 1031 1028 1052 1106 1040 995 996 1082 1063 1070 1074 1061 1100 1087 1080 1089 1031 1074 1005 1066 1093 1047 1071 1052 1025 1130 1063 1115 1023 1091 1073 1093 1050 1058 1118 1073 1084 1125 1068 1082 1123 1103 1160 1063 1157 1253 1183 1248 1250 1307 1324 1331 1409 1442 1501 1652 1743 1732 1800 1963 1974 2058 2070 2155 2128 2086 2119 2081 2064 2074 2033 1927 1847 1875 1809 1736 1704 1722 1667 1677 1782 1627 1668 1729 1743 1801 1751 1787 1687 1695 1642 1643 1609 1616 1511 1505 1390 1472 1399 1365 1259 1301 1257 1139 1237 1211 1086 1145 1167 1218 1119 1170 1209 1151 1109 1122 1105 1119 1090 1146 1128 1129 1088 1089 1058 1118 1097 1091 1071 1071 1117 1044 1063 1055 1059 1038 1162 1053 1079 1053 1085 1115 1082 1080 1057 1053 1092 1082 1068 1067 1035 1050 1050 1003 1074 1065 1054 994 1027 1078 1073 1031 1039 999 991 1059 1061 1018 1007 1015 997 1012 952 1007 1009 1002 984 961 1013 1082 1052 1066 1000 1008 1043 1060 1025 1027 993 1013 1011 1042 971 1071 1018 996 1010 1014 1009 1019 1024 967 1034 1058 1036 1023 1051 980 1018 1036 1102 1046 1013 1076 1050 1017 1015 955 1045 1067 1090 1020 1053 1027 1079 1122 1149 1113 1050 1087 1133 1144 1130 1126 1100 1159 1086 1139 1150 1081 1094 1066 1096 1108 1173 1102 1123 1103 1061 1099 1098 1114 1128 1163 1180 1069 1112 1160 1127 1084 1166 1138 1143 1088 1116 1004 1145 1099 1119 1044 1073 1018 1095 1063 1121 1033 1120 1094 1023 1048 1104 1093 1088 1017 1050 1061 1059 1010 1099 1045 1055 1050 1067 1018 1041 1035 1006 1063 1041 1038 1062 1050 1015 1026 1019 1029 975 950 1042 1024 1002 991 1033 1042 1127 1055 1016 1028 936 979 978 1020 1040 1012 1032 991 1010 1049 1041 1012 1026 987 979 1037 1025 941 1041 994 958 1015 968 1053 972 1017 944 1041 999 1040 1015 976 1019 1016 994 1007 984 988 991 1041 979 978 980 1019 989 977 1006 1030 976 988 1014 1027 981 1040 966 1004 1006 1036 1007 1015 1052 1010 975 998 939 1045 996 984 983 976 970 998 1018 980 1008 976 1001 935 1022 982 1019 1016 1030 998 979 999 1033 1000 988 945 996 1004 967 975 982 1007 997 946 981 1005 983 1010 988 1047 1011 978 982 1026 993 1028 1016 1001 940 1001 1014 998 1000 986 976 1000 1033 1066 961 1011 1021 1027 1061 1028 999 1011 971 994 997 955 1045 932 1013 969 1024 999 1044 968 925 1022 1000 1044 970 1039 1005 1027 917 981 954 954 982 966 966 961 935 1029 1004 977 1004 1040 1018 1010 993 1031 1070 991 1007 1048 1031 1031 1000 983 976 968 998 978 1029 977 1010 927 988 1027 1029 981 1040 1037 990 969 969 961 977 955 1019 1007 1011 971 1029 1003 920 979 960 973 993 947 976 991 1017 1005 1001 975 973 996 968 1016 961 1026 975 995 972 981 1003 1069 1014 988 990 943 1022 1022 990 927 1030 1048 966 1037 1015 933 957 1007 955 1001 977 996 1007 1039 945 963 1015 983 939 896 980 984 982 984 1028 997 1044 1005 999 1025 1025 945 999 1013 972 955 934 961 983 1045 986 983 924 984 948 944 1013 979 990 988 953 1037 1000 1041 968 1031 991 1038 950 1008 1007 1051 985 1024 981 1003 1004 980 1031 1028 985 1012 1006 1032 1011 993 1015 985 1004 980 1006 942 1041 1008 1054 1011 970 1082 942 952 1033 952 974 1005 1038 1049 996 1046 1027 1030 1028 1002 1025 989 1002 970 1023 999 1065 997 999 998 972 1036 965 1054 1013 965 1039 1003 1022 1019 1005 1020 1018 1042 1069 969 1058 1081 1091 1134 1138 1061 1123 1126 1102 1057 1159 1142 1140 1118 1142 1045 1096 1094 1079 1063 1096 1114 1054 1084 1071 1037 1081 1064 1023 1006 1080 1108 1073 1019 1060 1087 1059 1120 1055 1067 1066 1075 1030 1077 1082 1062 1071 1034 1000 1053 1051 1032 1021 970 1033 976 999 1024 1060 953 983 997 1037 1050 1051 995 1013 956 1026 998 1029 990 1001 1002 1014 965 1008 989 965 1019 1050 995 1015 997 1032 978 1002 1012 981 1002 1002 983 971 993 1032 1032 997 1037 994 1038 1082 987 976 954 986 1018 972 998 993 1003 941 1010 1048 1033 919 992 1031 989 978 1050 964 991 993 965 998 957 1023 1019 1024 972 1058 1037 1006 1003 946 1085 1024 1017 989 973 992 1047 1063 1012 944 978 1032 1025 1046 936 1077 1013 989 1028 998 977 941 1011 1030 979 1001 1027 981 1004 985 999 966 978 964 969 969 945 1025 1035 1071 972 985 1010 1042 968 993 976 1019 1017 1019 1018 993 1031 1017 996 1046 1069 981 933 1050 951 1022 942 981 944 1000 1024 1005 959 998 1017 918 941 1030 1016 966 1049 977 981 1013 960 1020 1003 1039 1037 1026 1029 1024 1014 1036 1022 983 1022 1006 1000 1029 1041 989 1034 995 1008 998 1033 1000 1028 1001 1045 1004 1019 1037 1080 1050 1037 1047 1021 988 992 1020 996 1035 1040 1070 1045 1024 1060 1054 1057 1037 1061 1051 1098 1073 1151 1060 1126 1081 1142 1085 1158 1228 1108 1157 1185 1159 1205 1232 1307 1314 1380 1393 1480 1589 1679 1697 1807 1782 1790 1857 1955 1966 1878 1877 1819 1765 1751 1670 1716 1568 1602 1508 1424 1358 1400 1385 1315 1346 1353 1375 1350 1407 1454 1448 1467 1487 1512 1598 1546 1450 1514 1474 1440 1375 1371 1273 1266 1332 1248 1309 1249 1176 1150 1156 1160 1103 1156 1168 1137 1096 1093 1071 1121 1078 1094 1072 1159 1094 1067 1091 1055 1125 1111 1048 1140 1087 1135 1047 1070 1079 1047 1028 1113 1071 1016 1025 1099 1050 1055 1040 1034 1092 1006 1064 1079 1058 987 1005 1063 1075 1070 1094 967 1068 1017 1061 1018 1049 1040 1064 1039 953 1102 1013 1022 1014 963 1030 1063 1088 1027 1006 990 1071 993 983 1011 1023 1011 990 991 1069 1053 1066 1051 1060 1021 1002 1004 1021 1024 1004 992 949 1038 1030 955 955 1043 1025 998 1080 1008 1050 955 1041 976 996 1048 984 987 970 1036 995 1003 979 989 1017 1026 1028 1021 1054 1053 1009 1031 1026 1019 1132 1082 1111 1026 1069 1090 1031 1028 1005 1097 1062 1008 1051 1081 1025 1062 1063 1020 1027 1096 1021 1045 1106 1067 998 1015 1028 1019 1038 1039 993 1048 1005 1040 1069 1021 1015 1042 982 975 1021 999 1054 1055 1039 1062 1048 1001 1036 973 1009 1049 1063 1004 1031 1033 1022 1038 1011 1045 1011 950 1035 1041 1012 1072 1009 1025 1033 1043 1053 1036 1012 1007 947 1063 954 984 1012 1017 1062 1028 1046 1051 1001 995 1019 1004 1032 1007 995 944 1009 1020 1022 994 969 1037 990 1055 1029 997 989 973 1004 935 888 992 976 971 1057 996 1017 978 1009 956 1016 946 940 947 976 964 926 1018 993 1013 1010 929 995 1010 983 1000 986 980 993 1013 1006 1011 981 958 940 1002 1013 931 1024 983 1023 999 966 949 990 985 1013 955 939 992 956 988 1026 994 959 996 1013 1023 992 953 973 1038 1034 1044 973 1005 1027 1045 1028 994 992 964 1010 992 997 1033 1001 987 1022 1004 989 930 1014 1019 992 1020 984 1051 979 954 954 946 1024 971 920 945 998 999 1040 1010 1002 979 965 1005 1039 1003 987 989 1013 989 1006 1059 1006 1023 995 1032 972 957 1005 1033 966 1012 1016 1045 987 1041 989 973 997 979 951 921 1009 1006 985 982 1019 1020 988 944 1001 1009 983 1033 938 1056 996 1032 1000 986 933 981 936 999 953 977 958 953 1046 971 991 990 958 970 1030 997 973 985 951 1026 942 997 1001 978 1031 981 958 1032 924 1004 998 1000 1005 942 1050 952 998 954 1056 928 1002 948 1018 1013 961 950 958 957 981 933 1017 991 949 1029 1043 1022 968 919 1013 1103 1012 1008 1066 965 966 996 900 985 1021 996 959 964 1050 1009 997 1039 978 987 976 959 1003 989 990 975 971 1015 955 993 1000 975 984 995 986 914 971 980 1029 960 1004 1000 984 952 959 996 998 990 1015 952 973 979 1011 981 969 991 1013 980 965 1025 1027 946 990 1005 1026 980 1047 993 1024 1016 1066 1003 1001 1007 1019 999 998 1010 939 967 993 1039 965 985 952 1009 997 942 1043 952 974 908 977 1055 977 1017 1011 1049 998 1024 1042 1006 1066 970 961 993 995 1010 976 1035 980 1031 1020 979 1001 978 942 1091 981 1025 998 953 969 983 1010 1071 1012 1090 1043 1051 1065 1078 1063 1000 1024 1059 1091 1064 1094 1112 1159 1119 1211 1155 1156 1145 1194 1149 1165 1180 1187 1164 1199 1192 1104 1085 1102 1137 1070 1046 1096 1039 1045 1035 1098 1056 1062 1063 1045 1073 1121 1069 1078 1070 1136 1147 1118 1104 1148 1123 1076 1160 1100 1096 1141 1105 1080 1116 1088 1059 1067 1068 1055 1066 1071 1093 1098 1065 1108 1132 1036 1150 1074 1123 1076 1163 1139 1181 1174 1168 1128 1076 1055 1070 1034 1096 1122 1091 1065 1036 1041 1051 1082 1077 1043 1030 1022 1036 1158 1043 1074 1134 1099 1077 1090 1063 1111 1024 1117 1123 1028 1083 1040 1068 1088 1056 1079</counts>
			</dataPoints>
		</scan>
	</xrdMeasurement>
</xrdMeasurements>
