<?xml version="1.0"?>
<xrdMeasurements xmlns="http://www.xrdml.com/XRDMeasurement/2.3" xmlns:xsi="http://www.w3.org/2001/XMLSchema-instance" xsi:schemaLocation="http://www.xrdml.com/XRDMeasurement/2.3 http://www.xrdml.com/XRDMeasurement/2.3/XRDMeasurement.xsd" status="Completed" recordIdentifier="{DC4F0ACF-79D1-432C-9658-3291EACF18BA}">
	<comment>
		<entry/>
	</comment>
	<sample type="To be analyzed">
		<id>GPSS_Li1p3In0p1Fe0p7Mn0p1V0p1Nb0p1Cl4_122625_694e531dae15af25ac374613</id>
		<name></name>
		<preparedBy></preparedBy>
	</sample>
	<xrdMeasurement measurementType="Scan" status="Completed" sampleMode="Reflection">
		<usedWavelength intended="K-Alpha 1">
			<kAlpha1 unit="Angstrom">1.5405980</kAlpha1>
			<kAlpha2 unit="Angstrom">1.5444260</kAlpha2>
			<kBeta unit="Angstrom">1.3922500</kBeta>
			<ratioKAlpha2KAlpha1>0.5000</ratioKAlpha2KAlpha1>
		</usedWavelength>
		<incidentBeamPath>
			<radius unit="mm">145.00</radius>
			<xRayTube id="1010048" name="Empyrean Cu LFF HR (9430 033 7310x)">
				<tension unit="kV">40.0</tension>
				<current unit="mA">15.0</current>
				<anodeMaterial>Cu</anodeMaterial>
				<focus type="Line">
					<length unit="mm">12.0</length>
					<width unit="mm">0.4</width>
					<takeOffAngle unit="deg">6.0</takeOffAngle>
				</focus>
			</xRayTube>
			<sollerSlit id="21010002" name="Soller slits 0.04 rad.">
				<opening unit="rad">0.0400</opening>
			</sollerSlit>
			<mask id="22031000" name="Fixed mask 13 mm">
				<width unit="mm">9.00</width>
			</mask>
			<divergenceSlit id="22120001" name="Divergence slit 1°" xsi:type="fixedDivergenceSlitType">
				<distanceToSample unit="mm">50.00</distanceToSample>
				<height unit="mm">1.52</height>
			</divergenceSlit>
		</incidentBeamPath>
		<sampleMovement xsi:type="spinningSampleMovementType">
			<spinnerRevolutionTime unit="seconds">1.0</spinnerRevolutionTime>
		</sampleMovement>
		<diffractedBeamPath>
			<radius unit="mm">145.00</radius>
			<antiScatterSlit id="22090040" name="AS slit 9 mm (PIXcel)" xsi:type="fixedAntiScatterSlitType">
				<height unit="mm">9.00</height>
			</antiScatterSlit>
			<sollerSlit id="21020003" name="Large Soller slits 0.04 rad.">
				<opening unit="rad">0.0400</opening>
			</sollerSlit>
			<filter id="20030001" name="Large beta-filter Nickel">
				<material>Ni</material>
				<thickness unit="mm">0.020</thickness>
			</filter>
			<detector id="7010019" name="PIXcel1D-Medipix3 detector" xsi:type="rtmsDetectorType">
				<phd unit="keV">
					<lowerLevel>4.02</lowerLevel>
					<upperLevel>11.27</upperLevel>
				</phd>
				<mode>Scanning</mode>
				<activeLength unit="deg">5.542</activeLength>
			</detector>
		</diffractedBeamPath>
		<scan appendNumber="0" mode="Continuous" scanAxis="Gonio" status="Completed">
			<header>
				<startTimeStamp>2025-12-27T14:32:17-08:00</startTimeStamp>
				<endTimeStamp>2025-12-27T14:40:24-08:00</endTimeStamp>
				<author>
					<name>AutomatedUser</name>
				</author>
				<source>
					<applicationSoftware version="1.7b (136)">PANalytical Aeris Instrument Suite</applicationSoftware>
					<instrumentControlSoftware version="3.2.00000000 20240306">AERIS</instrumentControlSoftware>
					<instrumentID>950485</instrumentID>
				</source>
			</header>
			<dataPoints>
				<positions axis="2Theta" unit="deg">
					<startPosition>10.00943322</startPosition>
					<endPosition>99.99442286</endPosition>
				</positions>
				<positions axis="Omega" unit="deg">
					<startPosition>5.00471661</startPosition>
					<endPosition>49.99721143</endPosition>
				</positions>
				<commonCountingTime unit="seconds">12.495</commonCountingTime>
				<counts unit="counts">3027 3068 3003 3042 3202 3209 3068 3014 3125 3115 3048 2978 3103 3078 3241 3093 3086 3058 3120 3096 3059 3184 3111 3188 3213 3167 3260 3187 3108 3156 3177 3159 3198 3174 3125 3131 3180 3203 3165 3322 3179 3270 3184 3137 3207 3247 3189 3094 3222 3257 3204 3207 3228 3338 3295 3354 3322 3306 3259 3142 3326 3367 3284 3381 3463 3278 3463 3401 3306 3436 3348 3491 3568 3462 3536 3532 3607 3472 3506 3552 3655 3656 3684 3835 3685 3661 3674 3700 3763 3752 3684 3787 3650 3722 3841 3805 3679 3775 3688 3718 3808 3681 3753 3840 3744 3659 3713 3789 3758 3717 3713 3660 3693 3701 3702 3673 3751 3622 3695 3600 3644 3658 3521 3579 3680 3468 3619 3581 3678 3612 3482 3566 3509 3565 3607 3505 3472 3576 3433 3473 3536 3575 3578 3415 3496 3588 3450 3458 3489 3400 3497 3468 3383 3367 3523 3518 3521 3434 3491 3492 3488 3541 3533 3476 3383 3556 3511 3435 3505 3447 3398 3489 3527 3461 3504 3613 3353 3559 3457 3483 3476 3461 3520 3556 3508 3514 3421 3366 3394 3550 3470 3416 3513 3443 3491 3426 3515 3405 3360 3444 3505 3467 3387 3433 3477 3362 3449 3477 3518 3487 3383 3398 3389 3391 3371 3437 3422 3441 3402 3364 3399 3355 3335 3281 3310 3282 3425 3307 3412 3411 3321 3434 3278 3254 3309 3347 3275 3356 3357 3382 3411 3400 3333 3301 3326 3369 3397 3362 3222 3314 3330 3298 3224 3224 3395 3384 3343 3209 3269 3347 3211 3406 3325 3333 3318 3352 3314 3349 3272 3256 3297 3214 3334 3269 3278 3359 3377 3312 3330 3404 3326 3286 3164 3259 3303 3221 3212 3221 3273 3335 3274 3437 3283 3360 3346 3294 3248 3402 3224 3309 3275 3238 3213 3310 3302 3283 3298 3278 3146 3283 3203 3333 3412 3270 3329 3285 3352 3253 3431 3255 3333 3223 3298 3336 3299 3480 3325 3325 3374 3259 3346 3427 3309 3224 3328 3301 3405 3403 3319 3524 3364 3439 3392 3355 3320 3657 3332 3474 3386 3489 3404 3384 3389 3326 3484 3343 3580 3437 3315 3408 3392 3493 3366 3519 3501 3558 3479 3496 3555 3467 3540 3674 3560 3491 3537 3519 3479 3516 3531 3520 3549 3471 3660 3533 3546 3505 3542 3537 3565 3561 3680 3707 3573 3575 3594 3620 3635 3643 3641 3555 3620 3619 3654 3609 3719 3475 3630 3737 3751 3759 3645 3656 3762 3718 3708 3805 3739 3750 3784 3835 3810 3860 3984 3990 4075 4033 4115 3988 4069 4035 4185 4090 3996 4005 3998 4128 4172 4178 4031 4175 4073 4183 4191 4160 4143 4314 4231 4252 4136 4283 4184 4240 4387 4288 4177 4145 4216 4113 4208 4177 4245 4173 4320 4215 4234 4218 4172 4023 4193 4109 4093 4071 4089 3999 3899 3952 3910 3879 3986 3933 3840 3894 3845 3800 3910 3896 3816 3897 3801 3830 3763 3761 3824 3817 3921 3824 3869 3768 3908 3813 3819 3975 3862 4003 3865 3840 3901 3984 3947 3879 3942 3982 3938 3954 3935 4054 3887 3929 3991 3865 3885 3848 3771 3855 3812 3775 3767 3620 3557 3530 3436 3374 3507 3310 3464 3327 3314 3236 3408 3289 3303 3236 3302 3243 3203 3216 3188 3263 3341 3247 3248 3198 3261 3285 3229 3274 3153 3151 3284 3283 3151 3220 3145 3143 3174 3236 3209 3206 3189 3118 3220 3184 3082 3128 3087 3162 3146 3169 3156 3184 3098 3072 3134 3003 3113 3072 3127 3156 3131 2988 3070 2997 3038 3052 3015 2993 3018 3019 3138 2961 3061 3138 3003 3086 3045 3024 3057 2834 2952 3020 3124 3011 3043 2975 3074 2966 2997 2941 3044 3080 2985 2964 2911 3066 3053 2994 2844 2939 2991 3028 2929 2963 2967 2907 2978 3045 3043 2901 3006 2897 2872 2989 3014 3026 3039 2976 3024 3020 2888 3059 2939 2964 3001 2979 2938 2984 2930 2933 2989 3044 2942 3016 2964 3022 2995 2985 2936 2979 2920 2980 2883 3010 2999 3020 2881 2875 2979 2978 2895 2850 2973 2890 2925 2927 2874 2940 2879 2937 2857 2835 2937 2847 2942 2884 2944 2917 2940 2889 2696 2847 2797 2826 2932 2808 2846 2829 2747 2907 2890 2906 2880 2803 2857 2698 2805 2867 2827 2735 2780 2792 2905 2756 2794 2788 2844 2868 2759 2818 2893 2789 2756 2879 2780 2786 2882 2759 2802 2859 2739 2832 2813 2815 2760 2774 2824 2822 2733 2767 2796 2886 2693 2756 2716 2867 2845 2808 2820 2769 2798 2732 2815 2717 2793 2885 2790 2740 2787 2797 2780 2709 2719 2775 2722 2797 2804 2723 2765 2716 2732 2832 2737 2709 2746 2769 2863 2734 2772 2726 2833 2711 2674 2795 2777 2882 2758 2766 2674 2760 2869 2769 2793 2750 2732 2752 2793 2687 2808 2686 2717 2689 2744 2704 2736 2743 2677 2722 2683 2762 2686 2708 2742 2706 2742 2721 2711 2657 2610 2689 2660 2705 2776 2590 2672 2755 2704 2684 2657 2633 2739 2622 2629 2736 2683 2650 2601 2698 2771 2705 2621 2776 2646 2546 2635 2607 2580 2753 2685 2695 2720 2566 2568 2646 2642 2593 2698 2712 2601 2669 2652 2642 2689 2652 2649 2515 2623 2642 2564 2603 2669 2638 2632 2550 2581 2541 2664 2550 2633 2633 2574 2546 2563 2566 2601 2605 2516 2515 2613 2564 2537 2546 2594 2525 2634 2601 2603 2670 2616 2481 2536 2618 2553 2511 2496 2574 2448 2490 2532 2496 2557 2540 2525 2546 2533 2462 2595 2548 2563 2577 2556 2530 2645 2476 2536 2533 2520 2526 2482 2505 2483 2541 2456 2460 2620 2539 2519 2452 2524 2432 2472 2477 2538 2584 2503 2505 2480 2477 2478 2458 2517 2509 2544 2503 2451 2482 2453 2446 2450 2514 2534 2484 2540 2474 2452 2389 2470 2483 2544 2581 2466 2567 2459 2537 2393 2509 2518 2607 2459 2466 2438 2524 2438 2519 2469 2554 2532 2550 2503 2533 2511 2483 2486 2444 2517 2501 2490 2429 2378 2449 2386 2418 2452 2411 2511 2511 2445 2468 2542 2448 2490 2496 2434 2463 2494 2427 2439 2399 2442 2554 2506 2423 2361 2456 2443 2506 2456 2530 2425 2503 2477 2538 2429 2483 2502 2415 2517 2430 2563 2461 2384 2498 2480 2408 2589 2532 2449 2492 2549 2483 2455 2461 2479 2398 2456 2511 2486 2418 2494 2393 2505 2505 2525 2449 2522 2507 2447 2528 2520 2469 2412 2512 2511 2437 2515 2546 2542 2617 2459 2593 2536 2465 2427 2463 2433 2431 2506 2511 2579 2442 2528 2522 2496 2485 2472 2471 2466 2518 2465 2503 2414 2498 2351 2446 2403 2472 2433 2448 2512 2444 2482 2507 2447 2344 2394 2480 2495 2387 2448 2471 2459 2407 2394 2371 2410 2494 2387 2364 2344 2396 2485 2402 2382 2438 2431 2363 2414 2404 2389 2343 2395 2366 2358 2414 2417 2330 2359 2383 2443 2341 2271 2460 2336 2373 2319 2419 2295 2348 2324 2313 2305 2292 2308 2405 2329 2295 2332 2251 2366 2326 2304 2223 2338 2398 2343 2195 2253 2203 2254 2228 2163 2207 2302 2182 2261 2254 2207 2239 2236 2186 2202 2293 2144 2226 2189 2263 2189 2295 2196 2177 2241 2157 2164 2077 2112 2120 2190 2235 2120 2069 2145 2074 2121 2146 2154 2071 2131 2170 2123 2117 2036 2087 2084 2137 2192 2155 2071 2117 2075 2094 2111 2077 2091 2155 2032 2097 2135 2082 2077 2128 2105 2027 1972 2103 2091 2029 2004 1980 2001 2019 1970 2037 1966 2015 2010 1972 1952 2041 2009 1968 1961 1986 1906 2104 1960 1960 1964 1917 1942 1895 1865 1954 1907 1876 1966 1990 1944 1964 1948 2001 2029 2026 1939 2027 1938 1940 1889 1905 1967 1948 2067 1952 1949 1917 1953 1982 1934 1947 1982 1983 1906 1997 1936 1903 1905 1960 1923 1950 1783 1860 1931 1889 1992 1897 1924 1944 1916 2001 1930 1935 1971 1883 1997 1931 2029 1926 1953 1932 1850 1815 1887 1887 1907 1930 1891 1881 1882 1902 1845 1871 1875 1968 1809 1944 1922 1911 1895 2016 1914 1826 1884 1857 1917 1909 1825 1860 1797 1869 1837 1892 1883 1841 1928 1866 1832 1867 1771 1876 1973 1916 1892 1892 1822 1849 1821 1831 1711 1886 1827 1923 1807 1882 1819 1798 1816 1770 1826 1773 1751 1845 1904 1844 1837 1843 1915 1855 1847 1837 1838 1825 1878 1933 1773 1892 1801 1847 1868 1840 1743 1878 1878 1913 1866 1790 1843 1831 1805 1876 1761 1845 1908 1868 1871 1851 1812 1840 1924 1916 1821 1874 1928 1835 1915 1904 1928 1822 1881 1778 1858 1881 1898 1871 1871 1932 1840 1854 1918 1851 1933 1857 1808 1871 1835 1860 1812 1894 1942 1819 1823 1838 1827 1839 1869 1787 1832 1932 1942 1775 1793 1900 1828 1887 1919 1820 1793 1878 1910 1766 1894 1895 1835 1862 1869 1844 1854 1869 1805 1905 1822 1829 1836 1860 1939 1833 1842 1820 1816 1834 1804 1776 1815 1826 1908 1856 1879 1844 1826 1853 1859 1713 1840 1817 1760 1841 1825 1789 1790 1828 1906 1843 1747 2012 1887 1834 1807 1802 1783 1813 1790 1787 1743 1835 1791 1769 1845 1759 1721 1749 1865 1768 1846 1818 1812 1694 1671 1794 1758 1775 1765 1803 1751 1623 1784 1747 1721 1766 1744 1798 1754 1723 1751 1637 1696 1654 1691 1730 1662 1640 1710 1786 1750 1761 1697 1664 1774 1645 1711 1784 1739 1729 1619 1672 1699 1669 1677 1665 1619 1724 1601 1657 1732 1666 1685 1679 1642 1758 1662 1701 1639 1656 1586 1570 1658 1620 1632 1643 1561 1606 1650 1638 1619 1689 1597 1672 1616 1583 1619 1617 1645 1608 1593 1598 1595 1586 1614 1522 1574 1592 1609 1587 1556 1668 1652 1535 1596 1523 1542 1538 1615 1646 1514 1596 1501 1562 1538 1608 1538 1639 1614 1526 1481 1626 1545 1582 1558 1590 1583 1558 1602 1481 1646 1678 1668 1612 1622 1659 1665 1760 1689 1769 1803 1767 1818 1790 1932 1820 1801 1839 1839 1831 1854 1893 1899 1848 1892 1834 1893 1849 1865 1859 1866 1882 1863 1859 1804 1857 1955 1892 1747 1853 1860 1840 1858 1774 1856 1770 1784 1766 1727 1713 1696 1694 1687 1624 1664 1652 1630 1664 1663 1542 1589 1603 1598 1591 1562 1577 1522 1541 1590 1508 1481 1608 1516 1558 1525 1560 1531 1422 1520 1525 1456 1429 1542 1496 1437 1523 1431 1491 1450 1462 1488 1431 1454 1453 1479 1481 1463 1523 1478 1420 1407 1465 1441 1457 1426 1400 1464 1458 1421 1434 1475 1367 1489 1475 1488 1475 1604 1581 1515 1590 1545 1612 1689 1694 1668 1745 1765 1784 1908 1901 1975 1855 1854 1943 1956 1929 2083 1945 1960 1983 2073 2083 1951 2047 2061 2148 2093 2113 2069 2123 2167 2178 2118 2112 2107 2060 2078 2056 2036 1921 2034 1955 1940 2007 1992 2027 2002 2020 1918 1928 1854 1862 1806 1842 1817 1827 1827 1757 1752 1745 1691 1679 1696 1592 1630 1608 1560 1547 1558 1686 1552 1561 1538 1510 1501 1546 1461 1452 1463 1495 1549 1434 1469 1457 1465 1495 1440 1461 1407 1358 1392 1436 1366 1360 1380 1398 1353 1267 1355 1335 1318 1429 1269 1353 1315 1318 1270 1277 1310 1318 1306 1369 1287 1315 1288 1357 1308 1317 1324 1265 1286 1278 1251 1314 1299 1286 1317 1245 1317 1215 1305 1246 1322 1265 1234 1263 1271 1237 1243 1254 1202 1230 1262 1248 1274 1322 1241 1279 1248 1238 1297 1273 1216 1296 1311 1251 1229 1234 1269 1201 1234 1242 1251 1241 1244 1238 1245 1316 1251 1250 1252 1284 1298 1198 1228 1250 1265 1302 1213 1284 1226 1220 1190 1262 1254 1230 1252 1242 1220 1260 1225 1224 1266 1259 1209 1248 1226 1204 1199 1228 1197 1224 1142 1261 1294 1169 1220 1211 1209 1232 1140 1171 1192 1228 1187 1263 1197 1239 1166 1201 1234 1172 1235 1161 1222 1167 1180 1103 1193 1164 1166 1211 1233 1215 1222 1186 1234 1182 1246 1092 1191 1254 1272 1210 1269 1198 1238 1211 1233 1181 1254 1191 1197 1185 1208 1213 1269 1205 1222 1249 1207 1242 1197 1217 1271 1326 1329 1278 1294 1254 1289 1296 1396 1296 1388 1364 1385 1375 1457 1415 1430 1457 1476 1428 1480 1442 1566 1461 1529 1461 1453 1440 1436 1551 1519 1526 1453 1588 1463 1475 1532 1484 1502 1418 1457 1435 1500 1371 1345 1458 1409 1365 1447 1453 1403 1373 1413 1440 1314 1355 1302 1391 1333 1314 1357 1313 1316 1316 1242 1314 1302 1293 1298 1305 1298 1246 1266 1355 1243 1279 1285 1273 1273 1301 1194 1240 1193 1314 1282 1238 1270 1292 1242 1261 1236 1160 1244 1106 1193 1225 1233 1204 1240 1254 1198 1251 1251 1235 1237 1259 1254 1164 1248 1191 1262 1210 1198 1239 1179 1248 1187 1237 1199 1205 1215 1235 1211 1181 1169 1219 1180 1133 1213 1157 1173 1197 1155 1180 1187 1178 1159 1155 1237 1170 1228 1238 1227 1182 1230 1161 1194 1222 1224 1212 1211 1258 1245 1198 1288 1214 1298 1269 1269 1257 1313 1337 1342 1370 1385 1474 1534 1606 1752 1700 1779 1910 2019 2203 2274 2375 2535 2608 2866 2751 3027 2915 3032 3045 3237 3221 3455 3165 3442 3284 3383 3392 3475 3352 3458 3379 3464 3500 3608 3701 3585 3512 3592 3473 3474 3237 3218 3171 3067 3021 2880 2807 2789 2591 2573 2518 2374 2343 2312 2241 2134 2133 2034 1988 1930 1823 1896 1839 1750 1792 1692 1645 1642 1671 1531 1614 1556 1483 1568 1577 1585 1560 1439 1482 1499 1463 1419 1471 1395 1490 1452 1484 1382 1416 1374 1348 1334 1357 1387 1411 1270 1399 1282 1322 1269 1329 1266 1289 1240 1304 1296 1295 1282 1266 1256 1226 1278 1263 1217 1265 1214 1268 1271 1204 1208 1208 1216 1116 1232 1151 1190 1167 1174 1135 1169 1190 1181 1194 1115 1205 1174 1164 1147 1163 1146 1218 1095 1187 1142 1183 1152 1166 1217 1212 1151 1210 1216 1152 1194 1190 1129 1155 1186 1226 1185 1186 1196 1149 1162 1195 1205 1161 1218 1162 1179 1211 1199 1247 1163 1222 1171 1223 1212 1174 1192 1198 1196 1188 1202 1165 1203 1152 1184 1170 1211 1229 1236 1191 1174 1089 1198 1197 1178 1272 1223 1212 1224 1166 1213 1234 1187 1241 1266 1156 1262 1150 1260 1188 1123 1217 1212 1230 1146 1158 1258 1199 1152 1173 1219 1168 1148 1157 1199 1281 1141 1199 1185 1149 1173 1089 1178 1074 1134 1065 1053 1070 1082 1067 1113 1029 1121 1084 1086 1146 1143 1039 1084 1163 1118 1096 1110 1086 1075 1090 1067 1098 1117 1065 1046 1060 1111 1134 1084 1066 1101 1099 1067 1085 1037 1056 1063 1035 1016 1027 1118 1115 1133 1067 1044 1122 1073 1112 1087 1069 1053 1090 1113 1112 1058 1100 1064 1143 1049 1113 1033 1100 1153 1069 1099 1058 1087 1083 1071 1070 1102 1112 1151 1109 1122 1108 1114 1112 1069 1158 1085 1141 1110 1120 1125 1140 1092 1132 1104 1047 1162 1073 1053 1113 1158 1088 1053 1097 1139 1041 1082 1067 1167 1029 1180 1055 1049 1041 1024 1063 1076 1100 1066 1157 1074 1057 1086 1116 1070 1120 1038 1033 1021 1018 1069 1076 1065 1062 1083 1028 1117 1058 1094 1043 1061 1040 1041 1092 1088 1038 1046 1128 1057 1037 1133 1070 1102 1060 1065 1045 1072 1082 991 1095 1051 1077 1033 1063 1041 1057 1051 1030 1042 993 1089 1025 1046 1034 1071 1004 1025 1051 1031 1040 1092 1065 1082 1046 1100 1032 1033 1014 1060 982 1076 1039 1042 1111 1003 1041 1081 1083 1060 1005 1023 1039 1053 991 1110 1088 1002 1046 1093 1042 1044 1048 1063 1087 1030 1034 1030 1052 1052 988 1085 1013 1135 1016 1048 1018 1064 1000 1035 1033 1058 1071 1024 1046 1020 1002 977 987 1048 1072 1048 1037 1065 1039 1082 1006 1034 996 1029 1048 994 987 1055 1011 1061 1017 1024 1025 1028 976 1056 1029 1031 995 1039 963 1018 1050 1053 1048 1024 1027 975 1018 1044 1063 1059 1045 1065 1057 1028 997 1010 1005 1038 1053 1075 968 1063 1017 969 1058 993 1014 1095 1015 1006 1023 1028 1045 1006 1041 1066 1064 1034 1017 1099 1022 988 992 1047 985 1017 968 973 946 1057 988 967 1057 1027 1044 992 1054 1000 1054 1023 1050 1027 1004 998 1029 968 984 1031 1006 986 989 952 1007 980 971 1013 975 1007 1065 993 1030 1055 1009 994 1016 1037 1063 1021 977 1057 979 1047 985 1042 1026 1037 961 1011 896 1015 996 997 1007 1008 1016 1018 1022 1003 1034 991 1011 957 949 934 939 1015 1047 1076 1016 1006 1010 990 1027 990 1005 963 956 955 987 1032 1001 977 1049 1017 969 945 970 1021 995 986 1028 1043 1047 1025 981 926 1014 987 1038 990 975 1031 1020 982 1029 958 1081 992 1007 956 982 1032 988 985 1015 1000 994 950 1046 1008 1012 974 1041 977 974 1063 1016 1011 1047 1027 987 1005 972 1003 984 986 1011 990 896 973 1020 1013 941 1006 1017 993 1025 1043 991 948 998 999 952 1011 1032 1024 1073 958 978 1011 977 1027 1007 1000 991 989 981 1020 945 999 961 956 1007 982 1033 1059 966 1006 952 1030 989 1012 1016 1034 972 999 1022 1015 989 966 961 990 1010 1005 998 985 987 964 965 980 1010 986 1014 992 959 977 1021 1034 986 1000 984 1052 932 966 983 971 962 947 943 1020 982 1037 1000 999 962 985 992 976 989 1027 967 1009 1033 1002 973 1002 1026 979 1048 1057 981 946 985 997 1005 982 960 1001 1019 1009 1057 1020 988 1005 975 1016 1011 969 1034 1045 1078 999 1007 1055 1000 1040 986 1037 934 973 1019 999 1082 995 933 1023 1043 1081 962 943 1008 1013 950 937 1008 956 996 1001 996 964 971 996 1034 1066 1079 946 1016 1031 1067 982 1020 1020 996 964 1004 963 1022 1031 1114 973 992 962 996 1026 998 1017 1013 1008 1060 1011 1022 971 986 997 1040 1040 1022 1018 971 1043 996 1027 989 974 985 1068 1107 1008 995 1055 1001 1071 966 984 1060 1013 1019 1047 1047 1165 1039 996 1081 1064 1018 1086 1008 1039 973 1052 1075 1013 1039 1077 1081 1011 1124 1135 1084 1024 1036 1067 1007 1044 1083 1079 1037 1055 1047 1040 1053 1077 1020 982 1063 1079 1061 984 1015 1044 1010 1008 1062 1024 1029 1063 1061 1027 1049 1021 1017 977 1061 1047 1044 1077 1054 1048 1071 976 1018 1004 1027 1027 1014 1036 1016 1005 1035 1035 1023 1048 1042 1118 1109 1027 1096 1068 1011 1004 1010 1066 1048 970 1051 1049 1031 1048 1042 1063 1055 1075 1059 1092 1070 1047 1095 1126 1118 1086 1202 1151 1188 1240 1248 1218 1256 1204 1291 1244 1276 1274 1251 1325 1294 1274 1342 1360 1329 1385 1331 1305 1338 1259 1294 1316 1292 1250 1223 1195 1248 1237 1267 1279 1178 1188 1206 1195 1158 1135 1173 1155 1109 1096 1091 1053 1101 1048 1122 1067 1134 1026 1082 1044 1071 1087 1091 1052 1026 1002 1022 1027 1053 1060 1033 1049 968 1008 1010 1002 1006 959 957 927 993 1020 974 1014 1011 956 1033 966 973 1021 988 1052 996 1005 1042 978 1033 973 988 1031 1016 977 1004 995 990 998 1001 986 932 998 1019 1012 973 990 976 1042 984 983 1010 989 1015 945 998 947 1003 984 977 952 924 990 961 950 969 949 976 1004 997 989 946 966 925 980 899 976 994 962 994 1007 966 991 986 966 959 938 947 902 965 938 944 984 956 994 949 915 972 931 1006 949 991 917 997 972 944 980 985 1005 953 949 991 914 1002 995 972 973 983 881 1012 940 1060 924 960 929 990 962 950 925 961 931 975 962 1005 944 925 946 985 931 929 910 969 971 966 945 968 986 994 993 963 944 955 1014 959 963 962 969 987 995 977 988 981 964 1028 972 963 999 973 960 965 985 977 1009 964 1054 1015 1022 976 955 954 991 995 1002 983 989 957 954 1008 1016 961 932 990 1004 967 949 1036 987 981 925 912 1011 1008 969 907 984 1013 983 1009 983 958 994 1027 951 995 978 962 944 974 1010 966 959 973 1005 959 929 976 930 921 932 990 998 997 957 1033 953 931 1037 887 964 981 920 961 964 980 963 1008 996 973 943 1003 920 997 931 1004 959 972 973 915 990 989 1001 1008 997 976 1023 1033 992 944 1020 962 1006 1012 993 904 941 957 1017 966 937 981 1027 962 975 930 1040 991 1006 1040 984 1000 948 1014 1007 987 1016 966 1005 1026 1029 998 1057 997 1026 965 1025 992 990 1070 1027 1030 1063 1052 1036 1040 1024 1048 1085 1111 1088 1155 1234 1188 1247 1318 1283 1369 1455 1523 1509 1599 1607 1771 1745 1862 1927 2041 2193 2184 2332 2377 2393 2576 2474 2636 2720 2775 2846 2979 2932 2977 2855 2918 2808 2846 2773 2841 2888 2707 2673 2632 2514 2481 2419 2312 2217 2184 2198 1992 1953 1920 1864 1734 1672 1624 1580 1594 1580 1513 1511 1520 1430 1486 1474 1353 1284 1387 1300 1368 1326 1313 1245 1270 1288 1267 1257 1311 1249 1285 1206 1231 1212 1222 1217 1156 1238 1212 1194 1171 1175 1108 1159 1107 1135 1159 1145 1156 1089 1145 1130 1126 1070 1054 1105 1075 1069 1118 1118 1117 1171 1092 1098 1054 1026 1042 1030 1092 1075 1027 1082 1053 1087 1036 1023 1001 1054 1038 1012 1053 1053 1024 1082 1047 1020 977 982 1047 1027 969 1043 1053 1022 986 1030 1042 1002 1055 1019 1004 997 980 992 1004 989 1023 978 1033 991 1046 1061 1047 993 995 1018 1023 966 997 968 1005 1008 1004 1026 957 979 959 1001 955 1004 984 969 945 942 1010 982 965 1015 906 1015 973 983 981 909 979 925 935 932 918 923 919 984 970 984 909 1060 947 968 936 957 930 984 974 1002 963 908 943 1003 950 984 923 953 991 890 991 943 1001 998 990 1027 1013 911 1008 1013 1025 994 1090 1064 1062 1071 1036 1116 1075 1153 1093 1113 1133 1134 1136 1195 1167 1156 1191 1111 1199 1190 1225 1174 1210 1180 1189 1170 1194 1155 1246 1162 1158 1158 1073 1217 1159 1128 1066 1104 1124 1083 1082 1040 1090 1085 1040 1124 1010 1099 1026 1035 1043 1061 1058 1041 1058 982 1039 1071 1054 1063 1025 1002 1047 1043 1061 1042 981 1015 990 944 999 979 993 1033 979 979 1033 993 1017 1077 1046 998 934 968 1025 1020 1015 947 1084 977 984 1006 993 1020 1015 951 1014 1002 926 981 971 985 990 932 1014 1006 1001 993 981 941 940 990 980 951 900 1036 922 975 994 910 990 979 1017 949 924 929 912 925 912 959 971 1014 930 1014 914 938 945 955 953 951 961 923 885 995 948 896 970 915 935 956 957 952 872 924 885 1017 926 909 910 925 964 966 960 931 994 870 978 893 932 933 937 1009 966 905 976 879 967 1047 909 961 901 962 935 909 892 877 950 899 894 925 968 898 902 906 926 920 905 963 927 897 945 931 920 987 862 912 941 959 1019 952 909 873 939 916 902 921 916 925 941 878 956 958 914 957 929 939 906 951 950 846 889 924 924 900 937 908 944 902 872 908 907 938 937 923 950 944 948 925 913 879 880 910 866 888 877 872 878 896 931 918 945 891 930 925 904 901 913 897 890 891 921 855 926 873 918 916 927 851 934 896 919 914 915 880 883 902 920 871 924 949 985 883 921 925 872 902 869 903 844 903 900 883 917 917 920 940 915 913 940 912 954 938 950 915 933 898 903 912 932 910 912 917 925 939 916 834 893 922 919 957 957 923 919 924 894 911 886 860 948 953 894 916 908 890 884 945 893 930 924 884 895 883 916 862 839 886 904 898 887 871 887 871 917 901 871 884 828 803 877 900 909 905 904 812 936 901 927 865 892 927 928 903 940 928 960 836 868 891 941 854 891 923 897 883 894 911 870 896 924 855 921 920 887 925 864 868 904 905 920 951 927 929 882 957 914 940 910 881 960 877 849 875 886 922 941 897 901 912 880 918 894 873 903 861 960 964 851 902 896 894 916 854 880 916 921 926 939 886 944 922 899 933 951 872 932 835 876 902 946 868 853 865 933 836 869 918 898 923 911 945 874 881 926 946 930 830 945 854 877 874 879 923 918 938 881 940 932 902 893 864 893 931 838 927 876 896 929 904 909 918 915 892 874 877 864 851 893 919 886 896 946 901 909 904 931 907 876 879 834 917 965 855 879 893 893 883 914 833 867 930 864 930 877 873 903 867 911 924 893 887 868 889 898 882 920 859 918 884 923 859 903 969 926 967 883 911 905 883 878 935 869 925 937 967 914 867 848 951 956 931 948 882 975 918 975 957 995 952 961 920 950 949 934 1007 959 958 939 958 943 1009 973 953 1007 999 931 954 982 927 914 936 918 929 941 972 890 916 908 906 910 937 867 921 936 913 932 969 960 911 914 927 930 935 930 954 948 963 986 1021 951 1018 970 969 1021 983 972 976 976 1034 1117 1076 1061 1105 1048 1066 1060 1109 1098 1100 1043 1123 1108 1122 1142 1083 1117 1125 1084 1090 1106 1069 1033 1082 1066 1015 1011 1021 1074 1064 1076 1049 944 1018 991 972 1008 951 967 1032 960 971 952 987 987 936 992 945 920 966 953 992 906 988 928 1014 1002 942 955 969 961 880 915 929 917 861 939 967 967 938 884 947 971 901 925 879 927 854 894 908 1004 933 936 955 949 921 884 918 953 905 878 922 908 923 892 901 863 891 964 881 922 889 925 875 948 915 865 915 896 904 906 919 907 908 905 922 874 909 896 854 911 872 865 858 905 921 928 891 928 902 897 886 945 902 932 914 931 913 878 940 904 930 897 894 870 946 947 940 908 916 907 938 958 894 901 882 895 913 887 879 897 957 896 860 900 879 903 910 898 849 893 947 946 867 818 893 931 892 893 884 919 895 875 947 884 988 902 925 944 910 887 942 875 919 921 998 876 901 897 875 925 924 956 876 917 918 949 856 977 877 903 919 899 914 879 922 887 940 890 927 932 934 880 881 966 901 914 951 892 912 902 887 946 902 952 921 922 903 942 945 939 903 991 922 938 939 995 911 982 957 982 1000 997 1056 974 1058 1045 1085 1048 1148 1193 1208 1249 1199 1232 1253 1266 1217 1303 1325 1305 1362 1404 1351 1352 1332 1386 1387 1391 1408 1335 1391 1357 1305 1349 1333 1330 1255 1282 1274 1311 1278 1197 1221 1231 1191 1165 1110 1116 1087 1100 1061 1028 1046 1049 997 1047 997 1037 1039 984 1005 981 1058 959 961 963 996 965 949 968 1002 970 983 1009 958 961 983 990 997 928 934 927 1007 977 958 945 1026 959 966 940 987 991 980 945 951 943 949 926 974 891 942 1007 958 963 933 927 935 903 908 976 991 910 909 924 906 986 908 937 941 986 935 987 963 902 945 946 917 951 933 941 903 875 906 916 884 887 949 941 904 939 977 881 953 938 905 957 951 952 964 961 908 888 893 917 939 924 948 922 858 892 871 912 867 880 940 826 890 897 896 859 851 895 907 861 862 848 928 877 854 864 892 877 871 894 866 876 889 893 919 911 940 922 884 885 896 924 911 933 953 943 956 914 940 968 989 976 1007 967 943 939 962 1021 1015 1001 1053 936 999 1018 951 984 1033 1024 1011 1028 959 1011 955 996 1006 988 960 962 1013 952 920 944 1011 898 950 929 952 946 980 942 919 936 984 912 907 904 903 857 905 927 979 955 949 880 871 875 891 936 872 951 884 906 913 939 955 978 941 940 868 892 904 934 854 880 908 934 909 876 887 954 916 894 924 873 920 885 956 941 890 891 931 925 878 954 932 917 896 862 927 942 920 893 868 927 910 845 951 882 859 900 988 914 902 932 891 887 930 924 909 879 911 931 865 888 926 938 878 864 874 911 884 886 888 931 857 874 895 899 851 918 857 879 923 898 903 947 901 911 885 902 882 899 892 829 850 876 861 868 891 900 877 924 882 887 909 856 843 836 881 840 865 820 981 837 889 863 873 891 839 929 889 923 880 882 930 845 914 901 910 921 953 880 865 925 846 881 894 875 831 896 866 921 935 844 904 870 884 826 845 850 888 862 900 862 852 876 855 843 859 849 879 840 872 886 892 867 876 866 862 842 942 884 844 960 887 865 915 874 845 882 889 868 890 910 864 942 871 906 869 857 892 878 858 860 852 924 854 870 866 893 800 838 906 856 911 875 854 850 876 858 842 909 931 911 895 827 885 889 873 817 910 893 857 889 862 874 896 885 871 823 899 836 845 830 862 876 855 904 897 877 862 825 915 909 883 849 883 874 886 846 851 877 897 839 905 831 837 851 934 859 877 861 873 930 917 882 882 900 871 871 884 840 871 883 810 936 891 880 880 925 892 913 882 878 814 834 931 878 891 883 884 855 826 822 897 852 876 937 857 874 916 832 909 872 866 867 873 902 906 892 903 885 854 903 838 848 913 897 865 828 878 928 829 938 908 853 848 854 855 878 852 920 875 874 874 855 902 841 840 884 835 864 865 869 825 866 861 834 870 880 856 877 832 861 889 879 878 888 917 860 870 834 862 881 861 843 877 873 875 877 947 844 901 889 900 862 928 835 916 892 892 907 894 920 895 852 908 908 875 865 861 871 858 902 869 855 849 892 916 890 864 889 922 891 880 891 890 882 857 800 853 850 810 841 868 905 945 863 900 841 878 885 908 905 901 905 887 898 878 885 872 877 924 872 891 923 954 905 971 931 902 910 932 871 975 864 885 913 888 953 982 891 929 930 1014 978 942 1010 966 935 985 913 902 915 907 990 926 874 984 892 960 900 898 953 932 920 953 872 901 885 890 873 924 901 880 869 858 854 951 854 872 895 839 874 833 877 863 865 902 905 833 917 848 892 847 903 857 864 883 845 881 902 895 880 959 885 896 837 925 941 843 849 843 942 875 815 851 878 880 841 835 887 858 850 890 825 860 893 895 867 835 930 869 919 916 866 902 906 872 853 859 884 918 855 864 904 902 899 913 907 799 868 885 861 862 893 851 880 893 853 888 869 873 867 830 879 881 866 887 831 915 872 894 814 843 890 826 873 832 882 904 859 914 883 799 845 832 884 898 874 835 871 890 885 879 834 843 816 919 876 870 876 828 852 841 844 849 864 862 902 879 837 888 890 847 857 872 827 858 840 892 878 872 871 874 839 860 838 811 863 894 857 809 857 851 823 858 869 877 918 894 870 862 920 882 926 862 839 877 856 904 809 874 873 851 847 840 897 876 927 853 803 808 856 846 890 865 864 850 893 862 880 896 885 842 861 868 880 833 860 920 910 857 891 926 869 884 916 835 870 879 853 857 865 897 878 837 830 941 883 880 879 870 877 847 897 859 905 910 871 944 879 906 889 927 917 851 906 866 908 923 899 909 929 886 959 973 959 963 918 993 941 1037 969 1028 989 978 1015 974 1078 1029 1016 1049 1018 1059 1066 1116 1122 1107 1034 1065 1107 1033 1076 1049 1064 1090 999 1030 1042 1044 1022 1006 1008 1011 1003 1016 1033 995 1025 1028 969 985 965 964 1022 987 932 1027 935 915 880 933 971 880 925 962 927 976 878 908 908 882 895 865 894 917 883 885 921 882 903 871 918 881 916 903 935 897 887 824 841 877 910 917 843 872 852 903 914 880 899 905 909 890 918 912 868 919 897 884 883 896 916 908 862 871 865 928 871 911 847 889 872 857 907 885 856 903 926 828 911 863 889 856 834 877 874 897 848 817 938 828 848 874 883 882 903 897 894 875 880 877 871 833 884 862 855 843 909 857 911 853 882 859 885 895 896 866 870 921 850 855 879 886 833 860 865 821 869 853 885 850 850 866 882 825 851 839 881 909 855 818 873 860 915 906 855 848 811 868 869 839 850 894 834 869 781 890 837 840 841 820 854 890 831 836 870 884 843 930 894 869 855 878 873 873 876 848 879 836 868 893 881 863 809 824 854 955 807 853 823 888 859 854 873 890 894 873 883 840 819 907 877 890 806 910 853 893 874 887 859 898 869 910 896 872 904 822 884 840 866 806 869 862 842 894 878 829 893 862 877 862 886 873 818 877 814 870 847 842 871 910 816 911 841 858 862 887 843 885 885 890 814 833 893 888 883 882 840 879 879 867 872 903 816 885 858 900 900 855 865 915 900 858 864 890 796 841 870 877 893 853 838 901 868 886 863 884 864 914 810 836 827 841 897 828 887 874 871 897 852 883 855 886 887 853 872 953 948 871 888 804 879 865 855 859 876 931 917 861 873 874 926 871 917 846 860 868 920 894 879 885 867 879 883 865 822 852 889 896 824 895 888 860 898 873 902 868 871 907 898 843 890 913 953 852 883 873 888 892 852 873 906 905 864 851 829 858 860 897 905 848 863 928 871 857 918 838 929 792 850 868 912 885 857 822 880 848 909 890 851 869 858 884 901 895 830 887 842 840 879 829 912 880 819 800 903 870 887 887 860 883 874 876 820 936 919 883 833 849 857 859 845 864 918 878 882 868 889 867 856 867 874 869 861 826 861 886 828 878 851 848 858 913 838 846 887 859 830 877 897 838 891 843 901 892 858 805 871 927 893 835 866 917 953 901 852 889 893 906 938 888 913 891 895 875 894 814 869 864 868 822 895 862 829 905 920 843 916 845 893 843 852 791 894 877 916 861 880 887 863 854 943 856 845 810 915 908 871 829 926 852 876 854 836 842 870 825 838 925 871 900 841 857 900 903 865 881 853 880 878 904 896 918 911 915 921 862 854 971 895 934 884 847 840 884 899 886 858 862 905 853 897 893 872 855 879 851 930 927 870 879 888 852 905 897 916 875 900 895 877 980 914 883 865 852 901 860 924 928 898 937 915 895 897 942 895 918 984 814 849 921 965 938 872 876 871 931 811 919 926 877 902 893 857 893 900 877 861 881 903 905 928 915 879 920 913 943 910 984 923 952 951 941 994 904 949 953 908 961 900 998 1005 941 950 955 949 946 910 991 898 960 914 949 909 935 894 941 947 879 893 936 935 907 845 915 938 904 878 897 855 908 916 971 895 886 911 920 944 940 990 938 918 934 922 924 936 918 968 952 943 928 956 995 946 959 977 997 932 932 983 955 943 922 904 995 954 950 942 940 924 945 948 970 908 906 935 956 910 966 928 985 930 934 857 937 933 926 933 919 902 884 929 925 859 967 906 910 896 866 962 949 921 954 822 938 853 945 927 907 888 935 882 881 931 863 936 866 920 924 881 931 918 937 906 867 872 937 864 970 858 948 944 941 910 869 936 882 843 939 878 903 894 875 890 880 857 909 876 911 887 940 940 929 902 880 929 818 893 910 850 943 902 907 867 952 905 874 869 886 892 891 896 889 885 855 826 904 917 895 911 930 876 890 919 874 851 846 911 870 902 893 938 965 958 837 875 928 976 926 913 912 906 924 894 923 875 890 897 884 922 879 909 901 861 902 894 938 885 862 949 881 975 904 878 950 908 884 929 930 955 922 930 921 920 894 982 881 961 904 942 928 954 910 996 948 945 956 897 958 911 930 931 930 995 917 941 969 940 984 941 916 1004 944 1026 1035 1088 1097 1043 1080 1081 1098 1131 1141 1145 1171 1116 1228 1225 1240 1214 1250 1322 1315 1312 1296 1306 1279 1316 1303 1345 1247 1362 1307 1264 1265 1327 1222 1244 1224 1262 1189 1189 1181 1143 1219 1225 1213 1165 1177 1106 1154 1191 1211 1126 1175 1072 1135 1106 1106 1014 1065 1100 1028 996 1056 994 982 1061 1021 902 994 1038 972 940 980 1022 976 1027 928 928 891 916 918 906 973 941 906 951 969 944 954 995 948 952 955 923 1013 884 1006 969 903 968 954 955 964 1015 972 947 1012 934 948 930 972 958 1020 975 1017 954 954 927 916 1010 960 919 972 938 898 985 917 957 934 930 909 952 972 995 911 983 933 981 927 930 943 976 976 972 968 896 937 881 928 860 968 945 942 926 904 916 966 885 962 887 929 947 889 892 872 871 915 944 952 886 894 954 908 911 976 935 877 922 941 907 953 962 953 895 917 925 990 976 945 972 954 921 970 910 891 944 954 926 944 935 950 963 961 960 947 933 964 992 948 946 993 939 931 946 954 961 978 916 939 941 928 938 955 954 954 927 913 925 904 915 991 908 901 916 945 893 904 927 900 965 893 905 944 896 926 871 893 891 922 842 921 897 968 896 932 883 858 879 928 928 939 880 903 852 956 854 908 930 936 919 933 907 905 880 841 900 839 925 886 958 819 919 927 970 890 902 869 888 937 874 921 890 870 915 855 900 918 902 942 912 879 906 911 942 898 839 860 868 953 909 827 877 908 894 897 919 910 881 907 895 918 909 893 882 914 848 883 857 905 886 903 854 866 901 913 877 837 887 874 838 818 876 848 878 877 918 907 930 867 945 989 899 917 865 910 921 941 931 941 869 947 912 916 901 895 914 922 906 850 924 922 857 931 915 845 899 972 961 902 889 890 901 884 916 946 871 906 894 883 867 886 890 844 927 920 969 914 872 972 912 882 893 876 887 868 911 925 848 922 847 894 918 921 857 861 880 854 899 867 878 902 844 871 875 889 908 910 923 846 896 895 899 877 848 910 878 931 940 835 912 890 826 905 946 842 881 900 887 895 870 971 913 853 890 914 945 848 893 877 881 922 944 894 916 943 881 892 928 918 846 892 929 933 885 894 892 924 886 863 861 951 905 940 931 897 953 902 933 897 907 938 875 881 920 893 838 973 839 917 905 905 895 863 919 930 891 915 911 941 921 908 898 930 866 906 881 920 930 933 887 857 914 887 938 877 884 902 864 865 930 890 954 896 931 886 862 833 884 909 936 868 907 853 896 889 921 914 878 902 922 916 857 892 905 915 924 901 898 885 871 898 892 918 938 885 897 922 869 915 904 868 873 922 876 866 832 924 933 881 950 919 948 966 886 937 911 958 878 875 902 884 931 880 918 917 876 883 947 909 916 933 910 894 877 888 915 889 934 872 898 913 863 921 935 918 935 895 959 903 892 923 950 872 889 887 896 851 935 905 910 962 874 946 920 902 906 894 925 936 923 935 961 891 898 974 1026 953 942 915 918 1003 911 954 932 931 913 930 935 895 951 935 955 900 970 959 963 965 961 960 977 881 967 974 924 958 901 913 995 917 928 931 911 1032 974 890 896 910 937 895 928 914 887 897 910 915 869 916 926 910 895 928 909 913 920 902 923 937 918 904 977 900 957 907 896 838 929 899 885 897 898 912 903 886 961 876 933 891 946 966 849 888 898 898 867 913 927 961 981 932 926 950 958 934 944 867 880 1014 856 940 885 955 897 952 936 888 876 930 911 968 878 857 848 874 919 886 916 911 890 943 892 961 922 949 877 923 895 929 895 908 844 966 965 908 905 895 901 950 923 878 951 883 932 880 929 897 894 917 932 971 866 913 884 902 884 897 890 913 952 913 928 966 945 895 871 948 926 948 930 916 985 885 937 951 970 915 884 856 960 910 888 938 888 874 875 923 883 897 881 890 904 867 895 908 922 892 903 921 938 951 938 901 907 944 896 898 906 877 931 891 885 899 871 924 889 872 903 897 863 970 898 904 923 897 897 934 920 891 921 899 921 906 871 959 921 881 892 948 890 906 938 870 892 922 856 981 937 905 941 906 924 909 951 916 950 970 900 968 902 887 951 960 951 950 969 944 919 955 961 1028 909 968 964 997 1029 1026 1049 1052 1081 1083 1115 1121 1109 1112 1145 1175 1214 1121 1227 1244 1254 1278 1279 1224 1250 1229 1209 1289 1200 1255 1233 1227 1154 1215 1170 1195 1135 1179 1162 1186 1136 1167 1110 1138 1170 1110 1148 1154 1086 1093 1089 1095 1114 1076 1100 1121 1120 1072 1103 993 1072 1069 1073 1004 1052 1025 985 1016 1009 1053 913 1012 1011 1000 973 1017 937 962 974 949 896 966 926 926 938 913 966 948 903 953 952 969 979 922 949 975 971 955 891 977 906 951 950 873 926 947 962 912 988 934 940 947 935 952 976 935 935 999 910 927 928 1003 935 881 847 947 897 913 923 963 906 921 991 905 952 955 946 957 979 951 937 951 974 964 952 982 937 928 932 968 931 906 949 927 952 936 945 930 931 875 882 886 943 934 956 903 943 907 891 949 897 933 935 927 978 899 960 974 928 903 900 955 935 940 981 902 940 965 954 939 937 945 1008 1024 942 957 975 913 963 955 941 888 968 964 929 988 952 894 964 916 926 929 929 958 939 954 948 896 961 915 974 926 933 940 892 929 966 959 911 975 966 915 901 946 941 945 891 906 852 934 919 978 903 943 885 907 935 951 951 964 917 897 917 910 953 980 937 866 902 908 935 943 851 968 944 865 984 927 980 860 899 885 903 938 920 864 905 920 923 884 949 970 871 900 946 851 933 955 964 916 906 930 872 937 927 892 893 948 894 878 949 931 872 929 916 917 946 921 894 911 974 915 946 917 900 908 930 931 942 903 902 923 900 876 898 915 922 883 864 887 906 875 922 921 933 924 893 969 917 895 951 907 903 874 907 858 842 960 938 909 938 918 916 915 872 954 978 976 878 879 865 887 848 909 910 895 840 903 938 901 933 905 910 969 928 957 927 855 927 904 901 939 890 911 891 905 936 910 914 895 836 891 911 916 903 867 907 876 897 895 926 914 921 914 877 896 939 907 892 884 907 951 901 904 894 935 911 886 880 930 899 977 868 908 880 943 902 967 879 897 932 965 905 944 923 979 920 959 930 928 930 863 946 865 937 906 941 910 887 945 861 935 888 887 905 949 903 915 912 943 973 935 922 836 862 959 874 926 943 936 944 916 955 952 904 895 869 915 921 880 876 872 838 931 889 878 931 916 951 906 926 871 939 912 938 919 943 865 920 953 924 894 897 932 895 912 968 913 882 984 904 872 874 899 938 944 989 927 895 947 932 929 919 936 920 934 930 971 894 904 896 916 885 919 935 923 915 932 891 986 937 940 866 896 945 908 893 881 854 933 898 919 910 906 957 864 849 941 907 901 918 926 969 957 908 872 992 887 921 871 944 861 879 922 948 884 913 875 915 901 908 916 912 898 931 903 898 899 965 898 894 921 901 941 909 936 919 930 881 922 952 890 934 932 891 969 913 926 930 962 978 884 881 895 911 863 933 939 952 890 956 917 933 945 996 971 908 930 931 963 975 1008 985 931 933 957 919 947 929 887 945 921 924 894 966 954 949 959 974 947 1002 977 970 960 995 957 1005 963 989 998 995 1004 955 939 1009 955 947 1002 1018 992 937 999 942 951 951 1006 1026 949 939 974 939 975 933 968 955 977 945 994 945 971 969 1005 973 951 968 934 980 993 964 922 1028 981 996 970 977</counts>
			</dataPoints>
		</scan>
	</xrdMeasurement>
</xrdMeasurements>
