<?xml version="1.0"?>
<xrdMeasurements xmlns="http://www.xrdml.com/XRDMeasurement/2.3" xmlns:xsi="http://www.w3.org/2001/XMLSchema-instance" xsi:schemaLocation="http://www.xrdml.com/XRDMeasurement/2.3 http://www.xrdml.com/XRDMeasurement/2.3/XRDMeasurement.xsd" status="Completed" recordIdentifier="{B84785D3-0B2C-4BD3-AE1E-D0B53E5D9113}">
	<comment>
		<entry/>
	</comment>
	<sample type="To be analyzed">
		<id>GPSS_Li1p8Fe0p8In0p2Cl4_110625_690d9f07f040177efa2b78f3</id>
		<name></name>
		<preparedBy></preparedBy>
	</sample>
	<xrdMeasurement measurementType="Scan" status="Completed" sampleMode="Reflection">
		<usedWavelength intended="K-Alpha 1">
			<kAlpha1 unit="Angstrom">1.5405980</kAlpha1>
			<kAlpha2 unit="Angstrom">1.5444260</kAlpha2>
			<kBeta unit="Angstrom">1.3922500</kBeta>
			<ratioKAlpha2KAlpha1>0.5000</ratioKAlpha2KAlpha1>
		</usedWavelength>
		<incidentBeamPath>
			<radius unit="mm">145.00</radius>
			<xRayTube id="1010048" name="Empyrean Cu LFF HR (9430 033 7310x)">
				<tension unit="kV">40.0</tension>
				<current unit="mA">15.0</current>
				<anodeMaterial>Cu</anodeMaterial>
				<focus type="Line">
					<length unit="mm">12.0</length>
					<width unit="mm">0.4</width>
					<takeOffAngle unit="deg">6.0</takeOffAngle>
				</focus>
			</xRayTube>
			<sollerSlit id="21010002" name="Soller slits 0.04 rad.">
				<opening unit="rad">0.0400</opening>
			</sollerSlit>
			<mask id="22031000" name="Fixed mask 13 mm">
				<width unit="mm">9.00</width>
			</mask>
			<divergenceSlit id="22120001" name="Divergence slit 1°" xsi:type="fixedDivergenceSlitType">
				<distanceToSample unit="mm">50.00</distanceToSample>
				<height unit="mm">1.52</height>
			</divergenceSlit>
		</incidentBeamPath>
		<sampleMovement xsi:type="spinningSampleMovementType">
			<spinnerRevolutionTime unit="seconds">1.0</spinnerRevolutionTime>
		</sampleMovement>
		<diffractedBeamPath>
			<radius unit="mm">145.00</radius>
			<antiScatterSlit id="22090040" name="AS slit 9 mm (PIXcel)" xsi:type="fixedAntiScatterSlitType">
				<height unit="mm">9.00</height>
			</antiScatterSlit>
			<sollerSlit id="21020003" name="Large Soller slits 0.04 rad.">
				<opening unit="rad">0.0400</opening>
			</sollerSlit>
			<filter id="20030001" name="Large beta-filter Nickel">
				<material>Ni</material>
				<thickness unit="mm">0.020</thickness>
			</filter>
			<detector id="7010019" name="PIXcel1D-Medipix3 detector" xsi:type="rtmsDetectorType">
				<phd unit="keV">
					<lowerLevel>4.02</lowerLevel>
					<upperLevel>11.27</upperLevel>
				</phd>
				<mode>Scanning</mode>
				<activeLength unit="deg">5.542</activeLength>
			</detector>
		</diffractedBeamPath>
		<scan appendNumber="0" mode="Continuous" scanAxis="Gonio" status="Completed">
			<header>
				<startTimeStamp>2025-11-11T13:23:47-08:00</startTimeStamp>
				<endTimeStamp>2025-11-11T13:31:54-08:00</endTimeStamp>
				<author>
					<name>AutomatedUser</name>
				</author>
				<source>
					<applicationSoftware version="1.7b (136)">PANalytical Aeris Instrument Suite</applicationSoftware>
					<instrumentControlSoftware version="3.2.00000000 20240306">AERIS</instrumentControlSoftware>
					<instrumentID>950485</instrumentID>
				</source>
			</header>
			<dataPoints>
				<positions axis="2Theta" unit="deg">
					<startPosition>10.00943322</startPosition>
					<endPosition>99.99442286</endPosition>
				</positions>
				<positions axis="Omega" unit="deg">
					<startPosition>5.00471661</startPosition>
					<endPosition>49.99721143</endPosition>
				</positions>
				<commonCountingTime unit="seconds">12.495</commonCountingTime>
				<counts unit="counts">3014 3212 3185 3095 3027 3159 3094 3067 3189 3096 3024 3136 3004 3183 3040 3035 3173 3197 3099 3108 3102 3092 3110 3071 3080 3126 3076 3179 3127 3060 3012 3131 3054 2990 3099 3045 2970 3031 3050 3040 3097 3056 3023 3255 3023 3071 3159 3149 3093 3105 3097 3050 3101 3026 3167 3104 3141 3123 3045 3045 3096 3054 3177 3130 3124 3092 3162 3142 3123 3179 3181 3178 3096 3159 3097 3023 3083 3043 3137 3083 3082 3115 3071 3057 3064 3118 3179 3066 3093 3092 3103 3084 2978 3109 3123 3071 3098 3142 3069 3076 3182 3075 3052 3072 3075 3133 3247 3060 3134 3126 3126 3059 3190 3135 2996 3112 3176 2978 3233 3057 3093 3071 3090 3191 3147 3186 3141 3204 3098 3063 3204 3058 3075 3045 3119 3076 3223 3198 3137 3146 3097 3150 3259 3029 3032 3147 3107 3190 3004 3191 3144 3063 3186 3144 3243 3104 3112 3141 3205 3127 3162 3109 3123 3137 3162 3137 3134 3179 3097 3060 3299 3178 3119 3108 3087 3150 3064 3076 3147 3181 3145 3167 3143 3036 3095 3061 3102 3005 3190 3091 3184 3066 3039 3106 3107 3037 3180 3152 3101 3132 3178 3003 3132 3122 3249 3153 3040 3121 3016 3132 3130 3077 3028 3144 3185 3185 3103 3097 3014 3076 3054 3073 2993 3092 3164 3054 3043 3084 3027 3082 3100 3086 3158 3159 3077 3103 3141 3110 3093 2956 3146 2959 3114 3026 3063 3062 2880 3146 3047 3176 3140 3114 3087 2985 3110 3002 3149 3034 3090 3115 3063 3084 2963 3114 3042 3098 3036 3029 3102 2986 3116 3037 3119 3053 3019 3050 3179 3161 3001 3011 3166 3137 3156 3003 3185 3020 3151 3063 3072 3073 3071 3073 3086 3149 3046 3162 3161 3114 3052 3015 3035 3044 3106 3064 3092 3010 3116 3077 3093 3125 3154 3121 2999 3062 3141 3158 3028 3022 3128 3166 3133 3021 3149 3099 3123 3146 3101 3091 3088 3157 3113 3130 3175 3114 3155 3099 3165 3103 3158 3215 3184 3065 3129 3198 3112 3091 3058 3132 3256 3187 3125 3097 3371 3158 3254 3286 3129 3265 3178 3232 3231 3252 3210 3201 3150 3273 3183 3288 3290 3253 3298 3210 3236 3252 3221 3250 3231 3311 3221 3272 3347 3282 3291 3186 3307 3206 3334 3281 3340 3304 3310 3309 3426 3349 3299 3340 3313 3341 3347 3324 3313 3313 3400 3469 3451 3425 3441 3428 3474 3486 3417 3494 3556 3467 3582 3523 3674 3565 3612 3555 3629 3771 3712 3848 3884 3923 3916 4038 4071 4158 4321 4325 4419 4572 4715 4946 5065 5070 5157 5182 5427 5480 5397 5380 5407 5352 5257 5310 5303 5132 5119 5040 4978 4980 4908 4756 4647 4645 4438 4429 4532 4338 4375 4365 4252 4198 4258 4232 4272 4117 4045 4033 4004 4107 3990 3902 3972 3971 3862 3798 3757 3688 3717 3756 3619 3584 3644 3590 3636 3554 3491 3545 3637 3561 3549 3577 3496 3464 3613 3549 3520 3486 3399 3567 3546 3510 3510 3389 3450 3438 3421 3450 3492 3329 3298 3517 3430 3394 3423 3486 3448 3350 3371 3518 3403 3366 3465 3365 3358 3336 3426 3351 3474 3372 3300 3356 3303 3308 3306 3403 3345 3454 3311 3391 3272 3285 3355 3449 3328 3358 3392 3329 3316 3375 3334 3386 3361 3356 3263 3276 3206 3290 3267 3245 3309 3327 3299 3305 3275 3345 3237 3264 3273 3203 3179 3328 3327 3321 3236 3241 3323 3275 3307 3274 3314 3207 3220 3149 3302 3203 3260 3148 3297 3281 3284 3201 3164 3264 3196 3229 3379 3132 3204 3083 3202 3133 3230 3190 3124 3138 3195 3228 3185 3200 3295 3227 3261 3211 3178 3221 3281 3057 3171 3147 3320 3253 3073 3219 3186 3227 3213 3146 3121 3179 3195 3181 3254 3120 3233 3133 3169 3305 3204 3200 3220 3115 3188 3137 3143 3239 3178 3117 3231 3325 3164 3252 3172 3156 3151 3139 3204 3175 3173 3242 3301 3214 3285 3360 3239 3152 3142 3183 3112 3169 3184 3164 3067 3120 3093 3188 3182 3257 3136 3140 3271 3235 3170 3167 3188 3213 3090 3159 3089 3077 3125 3120 3214 3118 3032 3052 3165 2961 3088 3066 3049 3059 3047 3106 3049 3063 3077 3067 3082 3066 3094 3002 3087 3092 3112 3138 3052 3146 3125 3022 2977 3038 2953 3072 3018 3051 3075 2924 2986 2992 3084 2935 3040 3047 3029 3106 2969 2983 2998 2879 3075 3015 3011 3119 3040 2987 3049 2982 2961 2992 3048 3027 2925 2973 2997 2992 3099 3078 3054 3033 3035 2953 2947 3048 3021 3032 2941 2940 3007 2948 3028 3002 2908 2907 2942 2892 2953 2972 2998 2989 2998 3036 2938 3104 3030 2938 2978 2919 3016 2974 2947 2888 3011 3020 3003 2960 3058 2956 3032 2990 2932 2897 2940 2972 2900 2883 3004 2876 2889 2972 2884 2928 2965 2865 2934 2844 2928 2917 2856 2954 2876 2882 3005 2811 2967 2918 2955 2979 2864 2976 2887 2925 2893 2957 2877 2964 2797 2892 2928 2845 2871 2843 2949 2971 2868 2775 2847 2958 2911 2833 2823 2876 2849 2925 2924 2899 2922 2866 2854 2826 2867 2893 2899 2870 2882 2824 2802 2842 2813 2841 2783 2908 2892 2769 2858 2851 2959 2817 2994 2830 2754 2923 2948 2849 2895 2892 2865 2823 2848 2915 2797 2965 2832 2822 2762 2843 2883 2752 2812 2830 2844 2783 2845 2841 2834 2791 2793 2832 2781 2894 2804 2819 2973 2773 2770 2868 2897 2881 2884 2844 2860 2798 2820 2781 2825 2749 2783 2761 2877 2840 2721 2826 2821 2780 2719 2847 2822 2815 2871 2773 2776 2839 2857 2757 2765 2929 2787 2835 2872 2684 2843 2813 2846 2845 2773 2729 2694 2727 2835 2824 2705 2782 2747 2757 2854 2769 2701 2781 2870 2741 2748 2731 2776 2726 2802 2820 2807 2787 2757 2734 2790 2851 2843 2726 2835 2768 2778 2714 2725 2762 2706 2707 2800 2710 2792 2638 2776 2837 2786 2744 2756 2835 2672 2692 2757 2663 2805 2777 2784 2719 2788 2727 2777 2746 2788 2794 2721 2701 2689 2765 2823 2703 2703 2713 2786 2706 2768 2754 2816 2675 2712 2739 2762 2770 2708 2675 2703 2685 2727 2783 2786 2696 2720 2645 2771 2633 2796 2676 2710 2708 2815 2769 2789 2691 2683 2851 2775 2766 2689 2719 2784 2682 2727 2728 2743 2840 2795 2810 2747 2692 2730 2752 2757 2695 2643 2802 2842 2775 2781 2768 2733 2759 2870 2739 2731 2696 2735 2724 2777 2695 2663 2723 2736 2709 2709 2743 2722 2750 2760 2754 2787 2708 2740 2754 2818 2714 2657 2748 2752 2738 2749 2791 2698 2767 2650 2786 2747 2746 2748 2708 2765 2770 2681 2788 2660 2797 2643 2645 2683 2673 2736 2680 2660 2700 2770 2764 2673 2732 2705 2672 2670 2599 2733 2676 2638 2714 2659 2698 2711 2681 2645 2680 2729 2629 2754 2627 2709 2642 2654 2776 2683 2749 2672 2691 2737 2679 2646 2664 2747 2706 2637 2693 2711 2764 2672 2679 2701 2696 2674 2724 2632 2726 2589 2620 2614 2691 2713 2699 2639 2665 2651 2748 2536 2720 2589 2589 2681 2671 2715 2723 2696 2666 2663 2582 2582 2743 2721 2675 2595 2615 2666 2704 2650 2608 2657 2595 2676 2643 2681 2582 2654 2529 2664 2644 2712 2764 2607 2632 2630 2655 2644 2635 2608 2654 2655 2563 2603 2696 2613 2704 2647 2661 2585 2662 2616 2595 2555 2602 2655 2626 2580 2584 2638 2595 2615 2512 2622 2617 2636 2611 2653 2689 2615 2657 2528 2633 2574 2616 2596 2635 2631 2598 2599 2574 2559 2686 2608 2613 2605 2638 2605 2503 2641 2595 2503 2575 2581 2619 2671 2560 2628 2548 2510 2594 2657 2631 2639 2585 2571 2593 2633 2570 2595 2696 2557 2580 2585 2641 2615 2631 2644 2613 2712 2670 2639 2740 2695 2638 2635 2723 2719 2662 2719 2699 2717 2672 2724 2650 2683 2707 2777 2746 2673 2703 2753 2667 2601 2631 2610 2748 2618 2558 2700 2611 2573 2626 2558 2620 2618 2634 2613 2662 2610 2637 2595 2597 2566 2520 2555 2571 2549 2583 2548 2551 2655 2546 2643 2527 2537 2653 2648 2545 2583 2473 2600 2518 2476 2516 2442 2524 2474 2524 2601 2572 2523 2591 2527 2478 2501 2549 2456 2591 2544 2537 2595 2523 2465 2542 2644 2616 2513 2543 2532 2572 2659 2628 2574 2586 2568 2502 2541 2635 2576 2492 2476 2576 2537 2597 2537 2609 2480 2578 2544 2635 2552 2576 2533 2577 2620 2581 2421 2662 2588 2582 2496 2609 2558 2566 2586 2637 2551 2532 2558 2574 2583 2536 2435 2568 2444 2602 2633 2580 2567 2456 2560 2541 2558 2479 2536 2565 2527 2561 2438 2491 2543 2520 2642 2634 2592 2629 2566 2564 2573 2393 2546 2560 2527 2530 2579 2607 2480 2664 2528 2557 2472 2497 2544 2590 2509 2491 2607 2466 2539 2468 2618 2531 2564 2566 2597 2576 2556 2554 2504 2481 2517 2571 2587 2559 2481 2475 2534 2588 2542 2482 2479 2577 2504 2542 2511 2473 2475 2604 2542 2535 2565 2546 2525 2606 2473 2449 2478 2503 2430 2545 2396 2575 2542 2480 2570 2504 2567 2545 2525 2491 2493 2510 2497 2514 2558 2544 2505 2494 2522 2492 2595 2495 2449 2578 2461 2639 2471 2475 2580 2622 2531 2567 2434 2486 2458 2503 2702 2455 2498 2567 2539 2585 2521 2580 2573 2427 2454 2456 2431 2524 2528 2429 2475 2536 2494 2577 2459 2446 2484 2545 2424 2541 2464 2487 2486 2443 2520 2477 2482 2378 2383 2443 2552 2459 2589 2532 2505 2632 2492 2468 2532 2552 2486 2551 2564 2612 2504 2448 2484 2540 2562 2512 2418 2545 2554 2458 2550 2472 2430 2490 2509 2511 2551 2427 2509 2515 2501 2513 2524 2399 2409 2442 2516 2453 2511 2507 2468 2489 2507 2531 2418 2442 2478 2513 2544 2485 2502 2406 2427 2434 2526 2420 2531 2368 2400 2446 2579 2552 2515 2497 2547 2519 2523 2483 2492 2612 2652 2591 2688 2660 2635 2780 2628 2802 2721 2896 2839 2936 3051 3083 3237 3362 3321 3499 3594 3604 3531 3613 3672 3525 3672 3593 3583 3591 3538 3456 3301 3396 3463 3214 3228 3279 3210 3180 3127 3105 3161 3040 3116 3016 3059 3053 3100 2978 2992 2808 2873 2838 2914 2803 2767 2807 2776 2719 2624 2716 2647 2614 2688 2643 2567 2604 2534 2649 2662 2632 2570 2529 2530 2602 2492 2546 2485 2484 2493 2501 2523 2487 2478 2540 2498 2527 2528 2513 2510 2520 2504 2505 2434 2494 2462 2435 2484 2527 2444 2455 2487 2367 2449 2529 2497 2489 2439 2494 2528 2580 2392 2446 2466 2478 2460 2564 2550 2584 2464 2584 2669 2637 2663 2806 2824 2813 2952 2923 3109 3155 3310 3592 3667 3809 4001 4165 4245 4408 4668 4588 4867 4931 4859 4782 4727 4816 4719 4669 4724 4499 4454 4399 4416 4470 4308 4399 4283 4351 4300 4198 4129 4281 4294 4099 4122 4042 4023 3999 3917 3878 3822 3553 3605 3603 3337 3477 3267 3219 3208 3085 3068 2944 2862 2860 2847 2860 2932 2769 2653 2761 2640 2651 2681 2628 2595 2575 2594 2635 2507 2529 2510 2480 2482 2476 2452 2428 2458 2503 2411 2324 2465 2479 2525 2507 2497 2447 2468 2394 2475 2373 2419 2450 2428 2391 2398 2449 2409 2370 2502 2412 2454 2380 2397 2383 2409 2387 2423 2334 2454 2340 2353 2310 2373 2364 2474 2331 2304 2322 2367 2276 2412 2391 2324 2371 2329 2419 2443 2286 2413 2318 2364 2378 2320 2340 2351 2425 2313 2382 2346 2381 2396 2387 2347 2370 2371 2423 2381 2360 2343 2387 2317 2311 2419 2301 2291 2300 2326 2362 2306 2331 2265 2305 2337 2322 2328 2299 2263 2297 2229 2255 2214 2339 2270 2271 2309 2257 2222 2275 2289 2409 2192 2248 2283 2220 2255 2257 2162 2362 2299 2274 2279 2292 2237 2292 2298 2353 2312 2254 2212 2259 2290 2338 2249 2260 2262 2286 2268 2240 2281 2271 2315 2221 2311 2241 2303 2271 2204 2279 2275 2271 2305 2230 2234 2311 2280 2280 2281 2245 2332 2249 2296 2206 2258 2225 2365 2288 2223 2222 2302 2280 2310 2144 2222 2329 2247 2303 2233 2290 2255 2235 2249 2246 2238 2219 2195 2247 2270 2219 2225 2252 2301 2209 2299 2261 2183 2225 2241 2250 2238 2326 2242 2269 2264 2311 2259 2184 2244 2272 2238 2241 2307 2288 2280 2260 2204 2268 2260 2280 2283 2285 2238 2261 2257 2208 2242 2223 2206 2249 2283 2176 2203 2256 2298 2355 2238 2171 2294 2245 2210 2258 2246 2232 2184 2221 2195 2315 2137 2204 2231 2286 2241 2164 2283 2210 2194 2301 2207 2325 2264 2274 2305 2236 2170 2271 2304 2290 2241 2187 2210 2265 2258 2211 2283 2204 2358 2242 2294 2292 2293 2274 2227 2336 2284 2321 2369 2302 2311 2262 2303 2293 2378 2389 2244 2280 2293 2267 2258 2256 2304 2319 2256 2270 2341 2276 2374 2249 2351 2259 2263 2303 2251 2346 2255 2273 2423 2401 2281 2350 2240 2389 2361 2302 2330 2319 2329 2358 2388 2283 2396 2406 2389 2301 2365 2384 2390 2421 2450 2515 2510 2407 2447 2491 2572 2480 2502 2542 2577 2647 2650 2684 2745 2696 2798 2934 2935 3044 3076 3199 3336 3465 3611 3738 3993 4100 4491 4631 5025 5344 5756 6079 6416 6882 7177 7473 7848 8243 8518 8560 8583 8941 8719 8892 9004 8909 8792 8612 8572 8247 7993 7759 7735 7434 7318 7291 7027 6911 6828 6508 6391 6374 6214 6052 5830 5877 5633 5447 5470 5241 5121 4935 4858 4821 4555 4484 4395 4194 4142 4014 3769 3840 3601 3661 3459 3344 3417 3242 3194 3135 3098 3018 2924 2943 2843 2745 2799 2764 2715 2792 2659 2665 2661 2569 2624 2555 2610 2709 2565 2558 2568 2588 2476 2510 2521 2436 2477 2457 2448 2549 2511 2560 2546 2518 2416 2478 2417 2468 2482 2420 2480 2441 2422 2390 2469 2488 2378 2447 2462 2461 2372 2355 2395 2299 2430 2401 2402 2317 2395 2325 2491 2411 2337 2432 2287 2356 2295 2389 2379 2387 2366 2347 2315 2445 2324 2324 2387 2220 2301 2307 2389 2413 2390 2313 2308 2333 2284 2337 2298 2316 2293 2305 2227 2268 2252 2310 2287 2319 2229 2212 2243 2209 2320 2276 2210 2206 2208 2234 2260 2260 2322 2232 2240 2280 2199 2341 2346 2266 2265 2180 2175 2322 2312 2229 2223 2279 2291 2205 2232 2286 2218 2278 2236 2151 2219 2258 2174 2220 2168 2235 2290 2229 2137 2200 2261 2143 2173 2219 2248 2275 2187 2302 2226 2221 2155 2282 2226 2226 2156 2176 2221 2200 2140 2225 2211 2250 2156 2189 2179 2230 2184 2245 2227 2165 2135 2169 2269 2209 2201 2168 2286 2216 2220 2187 2222 2212 2204 2230 2252 2242 2267 2159 2278 2195 2122 2212 2241 2268 2207 2234 2214 2176 2169 2184 2147 2142 2165 2200 2232 2118 2300 2143 2184 2175 2117 2244 2086 2140 2128 2285 2151 2275 2168 2129 2222 2246 2185 2270 2177 2153 2277 2206 2299 2250 2255 2188 2287 2305 2282 2272 2211 2273 2223 2314 2340 2209 2223 2329 2327 2214 2294 2296 2335 2281 2265 2355 2152 2274 2220 2240 2300 2237 2296 2233 2242 2330 2220 2255 2263 2272 2239 2164 2166 2212 2251 2324 2224 2273 2204 2260 2234 2172 2301 2212 2186 2133 2167 2224 2173 2124 2214 2165 2149 2197 2143 2203 2166 2169 2199 2156 2184 2177 2051 2178 2215 2175 2170 2193 2206 2166 2247 2172 2203 2193 2122 2227 2268 2114 2147 2161 2169 2159 2185 2100 2149 2076 2138 2100 2197 2212 2279 2087 2197 2101 2254 2084 2085 2090 2124 2078 2093 2173 2101 2103 2068 2187 2193 2155 2172 2201 2144 2187 2234 2152 2196 2113 2192 2281 2228 2200 2075 2137 2190 2192 2252 2174 2217 2231 2231 2132 2179 2129 2187 2242 2150 2251 2134 2193 2198 2206 2141 2187 2188 2220 2156 2153 2209 2164 2030 2227 2200 2261 2146 2171 2190 2170 2261 2256 2216 2157 2152 2131 2146 2167 2201 2193 2227 2101 2107 2109 2141 2105 2177 2143 2164 2119 2062 2189 2035 2177 2093 2214 2169 2208 2114 2047 2143 2161 2185 2110 2167 2182 2128 2115 2146 2115 2158 2181 2156 2234 2206 2163 2114 2117 2214 2182 2100 2176 2158 2198 2091 2113 2186 2083 2136 2085 2127 2128 2122 2209 2144 2198 2113 2180 2187 2144 2196 2181 2101 2090 2023 2187 2158 2139 2156 2094 2114 2048 2192 2048 2071 2111 2103 2138 2167 2069 1979 2183 2168 2129 2115 2194 2153 2230 2110 2131 2095 2057 2093 2129 2082 2096 2139 2118 2154 2199 2039 2105 2104 2072 2142 2161 2049 2072 2082 2119 2163 2102 2171 2152 2172 2146 2072 2143 2076 2106 2081 2164 2141 2201 2163 2162 2110 2169 2103 2119 2171 2111 2131 2056 2075 2150 2228 2112 2153 2122 2137 2061 2240 2193 2121 2088 2138 2231 2082 2185 2151 2125 2147 2107 2071 2033 2116 2108 2111 2162 2076 2068 2056 2139 2120 2192 2099 2184 2140 2170 2151 2118 2127 2177 2140 2207 2179 2053 2179 2134 2160 2168 2103 2147 2157 2103 2112 2185 2113 2149 2134 2138 2131 2165 2153 2222 2171 2045 2098 2135 2100 2096 2168 2166 2129 2125 2109 2125 2137 2130 2152 2135 2148 2056 2106 2153 2130 2115 2141 2084 2179 2096 2100 2080 2096 2136 2064 2200 2112 2133 2112 2117 2050 2190 2109 2115 2158 2129 2103 2098 2144 2114 2092 2172 2121 2091 2181 2128 2102 2157 2118 2075 2121 2096 2074 2151 2078 2161 2059 2143 2102 2102 2121 2023 2121 2211 2112 2046 2108 2152 2089 2059 2199 2171 2063 2162 2122 2112 2121 2120 2163 2149 2144 2136 2124 2199 2109 2072 2139 2168 2131 2158 2075 2103 2148 2086 2095 2169 2166 2109 2142 2181 2155 2123 2032 2133 2210 2238 2245 2164 2173 2132 2155 2196 2125 2125 2083 2187 2154 2152 2219 2225 2174 2184 2128 2168 2238 2157 2091 2134 2138 2040 2147 2148 2135 2111 2149 2143 2082 2064 2130 2156 2189 2120 2142 2120 2186 2146 2149 2206 2059 2196 2126 2226 2111 2058 2140 2086 2141 2185 2111 2195 2205 2076 2085 2070 2115 2090 2126 2157 2066 2159 2159 2049 2104 2117 2160 2118 2073 2113 2074 2036 2010 2141 2065 2010 2102 2117 2097 2112 2128 2136 2188 2164 2125 2113 2103 2162 2124 2215 2101 2046 2081 2033 2132 2161 2140 2163 2108 2152 2110 2143 2105 2082 2098 2049 2087 2132 2038 2210 2117 2064 2096 2087 1991 2138 2171 2099 2109 2111 2189 2077 2073 2116 2099 2075 2073 2031 2108 2140 2193 2153 2063 2097 2189 2086 2130 2110 2160 2088 2090 2162 2120 2134 2098 2116 2101 2177 2197 2123 2122 2068 2147 2085 2143 2100 2131 2098 2157 2089 2132 2032 2155 2069 2121 2158 2230 2130 2160 2153 2105 2152 2215 2199 2130 2127 2126 2231 2172 2118 2105 2082 2127 2112 2022 2140 2162 2176 2113 2132 2187 2054 2084 2104 2230 2200 2140 2181 2143 2162 2205 2155 2179 2268 2127 2185 2189 2230 2300 2172 2209 2270 2318 2230 2365 2361 2310 2401 2418 2582 2500 2507 2659 2704 2769 2705 2757 2802 2956 2876 2896 2929 2928 2978 2886 2930 2873 2946 2807 2848 2842 2815 2853 2907 2722 2617 2608 2684 2711 2634 2588 2474 2516 2509 2480 2431 2460 2397 2396 2381 2433 2413 2336 2425 2395 2288 2346 2333 2309 2344 2271 2324 2211 2222 2290 2211 2280 2183 2242 2273 2197 2196 2222 2218 2170 2219 2168 2190 2131 2161 2141 2143 2236 2138 2138 2050 2133 2070 2111 2138 2106 2100 2103 2145 2144 2128 2034 2121 2038 2105 2008 2118 2039 2068 2095 2138 2068 2156 2122 2040 2040 2117 2096 2150 2197 2190 2054 2086 2165 2076 2160 2170 2194 2070 2141 2110 2083 2113 2063 2008 2150 2158 2143 2134 2170 2125 2137 2028 2118 2126 2072 2088 2088 2064 2040 2117 2095 2056 2185 2078 2138 2013 2159 2101 2073 2123 2083 2074 2090 2132 2075 2085 2043 2085 2076 2101 2146 2176 2148 2096 2036 2159 2051 2031 2084 2094 2236 2064 2157 2084 2036 2136 2068 1981 2064 2009 2092 2066 2157 2055 2090 2164 2124 2057 2059 1999 2078 2177 2174 2097 2090 2085 2065 2088 2080 2092 2136 2100 2190 2163 2168 2084 2104 2214 2130 2067 2082 2147 2107 2089 2068 2066 2114 2176 2062 2031 2161 2067 2124 2020 2111 2122 2142 2102 2148 2113 2007 2092 2051 2118 2155 2085 2096 2119 2099 2196 2114 2092 2102 2135 2075 2105 2163 2164 2048 2120 2128 2089 2153 2133 2111 2092 2100 2088 2091 2071 2117 2141 2104 2143 2137 2093 2103 2148 2203 2146 2071 2075 2126 2209 2142 2036 2130 2078 2089 2173 2134 2191 2133 2099 2209 2028 2140 2148 2039 2114 2087 2193 2116 2077 2133 2124 2097 2076 2084 2171 2137 2157 2123 2089 1993 2082 2134 2169 2148 2100 2098 2127 2125 2195 2055 2136 2201 2101 2079 2143 2038 2137 2153 2141 2120 2144 2188 2119 2161 2105 2127 2085 2112 2187 2179 2092 2138 2111 2124 2095 2120 2152 2104 2152 2137 2119 2119 2157 2153 2222 2167 2239 2130 2212 2228 2184 2200 2142 2134 2206 2215 2169 2137 2234 2217 2238 2267 2166 2278 2268 2220 2289 2278 2210 2292 2284 2282 2335 2390 2417 2350 2400 2359 2445 2403 2518 2593 2487 2589 2555 2785 2897 2971 3106 3237 3302 3544 3864 3968 4296 4485 4812 5133 5413 5648 5696 5764 5959 5867 6025 5986 5943 6000 5895 5913 5900 5844 5677 5606 5554 5489 5306 5092 4897 4881 4686 4597 4446 4243 4268 4121 3950 4059 3930 3902 3706 3734 3681 3685 3547 3635 3504 3546 3425 3509 3337 3379 3416 3296 3179 3129 3134 3212 3122 3040 3070 2995 2946 2975 2981 2851 2847 2730 2782 2729 2675 2595 2663 2620 2466 2551 2497 2483 2432 2513 2421 2387 2398 2440 2392 2339 2345 2375 2335 2355 2284 2142 2286 2301 2168 2223 2255 2145 2273 2256 2307 2223 2264 2272 2220 2255 2164 2235 2240 2180 2254 2132 2247 2142 2168 2061 2213 2200 2271 2221 2209 2130 2179 2163 2141 2224 2119 2145 2234 2205 2266 2231 2132 2194 2157 2158 2124 2134 2231 2159 2214 2169 2180 2218 2173 2203 2177 2190 2213 2137 2174 2157 2082 2144 2202 2107 2210 2098 2182 2112 2155 2122 2141 2122 2129 2244 2114 2149 2169 2190 2143 2223 2170 2128 2110 2129 2162 2183 2213 2122 2085 2170 2199 2174 2035 2216 2159 2175 2055 2120 2100 2102 2091 2081 2148 2162 2203 2123 2096 2093 2216 2052 2114 2143 2223 2223 2074 2107 2091 2110 2138 2114 2174 2204 2171 2147 2101 2182 2190 2245 2226 2237 2193 2308 2303 2255 2244 2371 2263 2438 2317 2369 2482 2498 2570 2531 2517 2481 2430 2554 2507 2560 2529 2571 2479 2510 2479 2576 2578 2524 2421 2483 2481 2452 2399 2340 2428 2300 2257 2354 2245 2281 2291 2387 2322 2214 2313 2225 2153 2359 2222 2404 2273 2256 2257 2309 2291 2285 2203 2222 2150 2210 2235 2174 2142 2214 2231 2165 2107 2113 2253 2177 2128 2161 2172 2096 2140 2117 2129 2156 2058 2156 2171 2129 2167 2121 2064 2154 2128 2133 2090 2200 2021 2089 2092 2082 2043 2146 2073 2124 2100 2077 2124 2028 2113 2201 2092 2106 2155 2159 2060 2162 2082 2092 2140 2051 2098 2089 2095 2015 2117 2139 2167 2085 2074 2108 2113 2123 2096 2193 2074 2053 2024 2122 2084 2106 2101 2054 2139 2049 2041 2081 2050 2132 2084 2083 2102 2086 2074 2126 2076 2145 2002 2050 2081 2066 2146 2089 2017 2088 1987 2034 1988 1993 2121 2136 2155 2053 2103 2027 2010 2095 2205 2042 2088 2057 2089 2101 2056 2032 2062 2173 1998 2021 2050 2090 2046 1984 2045 2042 1984 2034 2140 2076 2068 2116 2052 2109 2077 2063 1971 2099 2065 2131 2130 2044 2082 2071 2102 2055 1990 2065 2043 2086 2065 2030 2015 2046 2001 2047 2032 1993 2071 2082 2065 2032 2045 2096 2088 1974 2067 2023 1978 2074 2108 2071 2032 2097 2054 2051 2145 2097 2063 2116 2004 2042 2059 2018 2099 2100 2084 2010 2080 2017 2138 2001 2091 2014 2056 2117 1991 2051 2070 2091 2075 2041 2012 2073 2047 2010 2063 2092 2052 2080 1997 2082 1994 2174 2029 2088 2046 2055 1944 2104 1959 2166 2037 2076 2100 2047 2062 2101 2014 2050 2061 2042 2038 2099 2105 1939 2059 1979 1994 1984 2055 2053 2139 2080 2018 2076 2114 2020 1995 2014 2044 2077 2026 2065 2043 2062 2091 2115 1997 2050 2077 2009 2029 2042 2072 2027 1957 2085 1999 2043 2030 2140 2132 2060 2019 2097 2123 1969 2107 2006 2045 2070 2037 1936 2033 2004 2034 2050 2063 2060 2002 2023 2232 2034 2038 2032 1990 2010 2109 2058 2057 2069 2170 2011 1971 1984 2060 1970 2087 2052 2069 2107 2030 2002 2059 1940 2116 2065 2059 2099 2005 2079 2052 2175 1976 2018 2116 2107 2108 2083 1999 2051 2081 2113 2044 2012 1986 1909 2121 1993 2015 1960 2091 2080 2022 2076 2035 2102 2049 2080 2050 2029 2101 1984 2020 2056 1988 2063 2079 2027 2064 2003 2009 1994 2107 2078 2073 2068 2065 2083 2011 2117 1997 2006 2090 2088 2011 2096 2074 1980 2044 2041 1955 2040 2024 2094 2092 2029 2143 2093 1952 2012 2051 2027 2019 2053 2064 1999 2058 2117 1993 2011 2000 2076 2044 2042 2061 2074 2022 2070 2048 2067 2017 2073 2078 2060 1994 2004 2133 2000 2029 2049 2041 2063 2065 2081 2021 2001 2020 2032 2072 2001 1971 1994 1951 2066 2014 2100 1996 2019 1994 2067 2053 2098 2062 1988 2006 2004 2047 2079 2025 2069 2060 2055 2063 2093 2029 1954 1997 2061 2097 2094 2024 2072 2082 2059 2051 2073 2072 2051 2029 2023 2062 2011 2089 2108 2073 2089 2019 2025 2090 2028 2071 2032 2001 2111 2042 2101 2119 2071 2080 2076 2024 2017 1988 1984 2073 2006 2103 2090 2021 1946 2069 2116 2029 2000 2035 2162 2043 2197 2048 2085 2030 2051 2116 2080 2175 2163 2142 2178 2126 2090 2173 2133 2175 2201 2110 2133 2115 2124 2132 2096 2138 2178 2215 2115 2152 2162 2081 2085 2085 2196 2052 2049 2016 2078 2037 2111 2132 2069 2086 2061 1998 2119 2088 2110 2073 2131 2178 2144 2066 2128 2119 2162 2045 2135 2191 2124 2156 2153 2162 2166 2227 2205 2155 2127 2175 2305 2174 2298 2306 2385 2490 2302 2378 2374 2384 2396 2411 2474 2465 2445 2556 2360 2413 2428 2364 2456 2494 2431 2314 2317 2393 2426 2386 2316 2304 2334 2380 2288 2325 2256 2282 2320 2296 2256 2288 2278 2282 2288 2340 2271 2170 2244 2285 2208 2248 2214 2271 2307 2239 2281 2304 2247 2268 2202 2276 2261 2273 2304 2256 2297 2246 2275 2199 2316 2208 2274 2254 2221 2252 2262 2279 2235 2129 2136 2200 2206 2178 2096 2144 2204 2094 2155 2038 2067 2142 2232 2148 2115 2111 2065 2029 2043 2017 2104 1985 2121 2052 2118 2031 1951 2022 2037 2064 2019 2019 2137 2076 2025 2130 2090 2048 1995 1971 2009 1993 2076 2042 2131 2085 2055 2068 2080 2066 2007 2077 2041 2108 2027 2047 1997 1978 2104 2010 2002 2065 2067 2037 2034 2126 2068 2092 2039 1994 2086 2056 2052 2067 2000 1999 1981 1970 2053 2063 2041 2069 2004 2085 2031 2033 2012 2015 2143 1990 2067 2063 1935 2021 1981 2008 2133 1960 2099 1993 2038 1967 2039 2030 2062 2065 1989 1999 2029 2068 2103 1963 2007 2070 1934 2073 2115 2034 2026 2081 1961 2066 2034 2005 2026 2033 2041 2002 2064 2052 1984 1985 2035 2046 1980 2043 2023 2019 2139 2004 1952 2052 2058 1998 2035 2129 2066 1973 1995 1998 2028 2107 2066 2145 2055 2011 2056 2059 2074 2003 2014 2052 2082 2014 2124 2045 2118 2121 2147 2123 2076 2104 2151 2166 2059 2195 2114 2102 2190 2220 2079 2171 2101 2205 2236 2257 2292 2208 2411 2371 2537 2577 2723 2655 2817 2801 2863 2952 2951 2965 2965 2762 2905 2933 2937 2805 2796 2912 2915 2959 2845 2862 2917 2796 2761 2800 2685 2688 2731 2593 2644 2543 2502 2606 2537 2469 2361 2381 2411 2365 2438 2376 2366 2334 2404 2363 2337 2301 2305 2374 2305 2283 2292 2298 2253 2271 2366 2350 2300 2302 2325 2299 2269 2286 2313 2294 2281 2272 2285 2244 2296 2182 2318 2207 2259 2142 2210 2198 2223 2106 2271 2145 2126 2155 2143 2081 2108 2131 2145 2100 2122 2070 2057 2131 2049 2084 2149 2113 2028 2114 2057 1982 2026 2019 2068 2112 2098 2071 2023 2114 2078 2014 2072 2008 2034 2065 2029 2109 2057 2027 2010 2016 2090 2065 2051 2127 1989 2013 2074 2017 2109 2059 2050 2003 2054 2049 2071 2194 2006 2003 2058 2017 2093 2029 2122 2117 2072 2078 1984 2058 2106 2074 2061 2059 1976 2025 1994 2025 2082 2061 2122 2086 2003 2080 2045 2008 2068 2027 2078 2099 2082 2042 2078 2042 2043 2077 2022 2088 2072 2105 2096 2104 2020 2034 2098 2029 2083 2053 2111 2062 2089 2211 2179 2084 2104 2058 2081 2159 2229 2170 2276 2209 2297 2265 2323 2329 2310 2285 2232 2180 2338 2305 2230 2274 2231 2228 2286 2292 2188 2298 2270 2180 2261 2102 2232 2173 2146 2170 2182 2122 2194 2130 2073 2233 2128 2172 2153 2107 2064 2145 2157 2169 2063 2072 2034 2033 2069 2099 2090 2073 2068 2058 2099 2047 2046 2065 2112 2151 2135 2126 2130 2036 2078 2075 2084 2088 2078 2036 2119 2148 2060 2078 2093 2040 2031 2032 2091 1998 2078 2016 2061 2023 2003 2068 2036 2003 2068 2101 2160 2053 2051 2126 2030 2016 2038 2039 2060 2104 2049 2016 2083 2070 1948 1989 2074 2040 2000 1998 2049 2017 1995 2097 2045 2023 2012 1975 2049 2039 2005 2044 2050 2011 2075 1980 2114 2110 1992 2137 2042 2036 1973 2044 2088 2092 2007 2080 2015 2017 2073 2012 1925 2004 2035 2011 2078 2064 2091 2047 1977 2087 2046 1993 2002 1956 2047 2028 1998 2038 1994 2010 1993 1999 2016 1975 2020 1987 2000 2063 2050 2007 1973 1991 1986 1976 2018 2018 1977 1971 2010 1920 1997 1929 1972 2054 2085 2024 1969 2021 2036 1985 1997 2016 1997 2056 2017 1955 1916 1997 2019 1940 1914 2055 2042 2036 1991 1972 2047 2025 1988 2040 2022 2053 2071 1949 2014 2010 1919 1976 2061 2022 1998 1971 1951 2121 2017 1998 2001 2067 2017 1978 1973 2111 1992 1953 2023 2028 1966 1964 1977 1968 2013 2000 2085 2113 2021 1984 2037 1983 2037 1982 2036 2009 1961 2066 2011 2079 1991 2096 2010 2003 1980 1906 2017 1998 2034 1883 1996 1968 1959 2058 2032 2047 1968 1981 2059 2045 2070 1995 2046 2010 1993 1995 1995 1963 1968 2016 1940 1986 1917 2061 2026 2099 2035 2093 1986 1937 1990 1963 1967 2005 1949 1973 1995 2007 2003 2012 1908 1980 2034 1943 2032 1988 2058 1954 2039 1996 1972 2048 1936 2070 2018 2013 1935 1932 1990 2003 2043 1971 2014 1992 1991 2068 2021 1972 1969 1901 1966 1965 1926 1948 1943 1937 2107 1987 2062 2080 1992 2007 2002 2028 2012 1967 2061 2090 1993 2062 1915 1870 2048 1959 1983 2047 2054 2077 2048 1980 1996 2058 2037 2020 2006 1955 1990 2007 2013 2000 1991 2053 2052 2004 1947 1972 2084 2058 1998 2032 2037 2027 1965 1979 1976 2028 1959 2053 1891 2086 2020 2000 2033 2017 2070 1998 2044 2112 1939 2010 2038 2004 2031 2008 1962 2090 2078 1977 2038 1986 2012 2112 1999 2065 2000 1871 2020 2020 1995 1978 2000 1986 1962 2122 2000 2011 1978 2007 2052 1979 1966 1994 1989 2012 2019 2016 1977 2031 1932 2060 2140 2008 1971 2019 1986 1924 1923 2028 2019 2055 2031 2028 1895 1930 1974 2007 2016 2070 1998 2003 1935 1999 2025 1952 2031 2049 2049 2029 2030 2030 2036 1986 1972 2014 2015 1986 2034 2045 2034 2013 2078 2105 1988 2079 2058 2026 1998 1981 1982 2016 1997 2072 2036 2102 2059 2038 2054 2067 2048 2153 2056 2096 2116 2177 2177 2126 2163 2137 2181 2157 2090 2065 2083 2116 2080 2061 2076 1997 2026 2076 2113 2065 2176 2059 2113 2059 2117 2115 2013 2015 2117 2044 2057 2069 1954 2031 2030 2026 2076 2056 2000 1941 2033 2170 1997 1975 2044 1982 2053 2038 1950 2006 2004 2008 2060 2089 2031 1986 2030 2055 1983 2004 1980 2015 1963 1937 2018 2049 2124 2024 2074 1992 2003 2074 2043 2071 1999 1968 1985 2003 2045 2059 1974 1968 1992 2046 2029 2014 2017 1978 1902 1977 1940 2058 1994 1982 1970 2044 1910 1999 1968 2028 1995 1975 1991 2093 1981 1973 1945 2010 2033 1969 1954 1962 1991 2005 2054 1989 1995 2034 1918 1932 1955 1989 1956 2054 2016 2053 2029 1950 1968 2005 1985 1949 2048 1994 1932 1990 2051 2006 2079 1969 2008 2038 1934 1862 1946 2039 2057 1997 2017 2042 1973 1958 2028 2025 1958 1998 2036 2018 2011 1981 1994 1947 1979 1974 1935 1953 1982 2033 2010 1981 2070 1931 2007 1892 1945 2016 2018 2023 1983 2010 2100 2072 1958 2017 2093 2028 2026 2048 1957 2030 2026 1995 1950 2099 2004 2015 1939 2014 1965 1977 1947 2011 1999 2071 1984 2022 2027 1987 2031 1992 1941 1930 2009 1999 2079 2000 2058 2026 2016 2019 2076 2073 2032 1983 1995 1973 2031 1948 1996 2003 2001 1967 2007 1995 1941 1895 2012 2044 1930 1944 2057 2032 2002 2039 1920 1972 1941 2006 1928 2046 1996 2064 1972 2017 2013 2079 2064 2096 1960 2073 1907 2003 2116 1992 2043 1954 1975 2050 2029 2003 2007 2028 1992 1995 2026 2020 2045 2013 2066 2030 2046 2057 2103 2026 2036 1950 2084 2065 2017 2098 2154 2067 2078 2190 2063 2102 2100 2168 2156 2177 2211 2153 2204 2225 2164 2306 2293 2285 2337 2258 2232 2228 2229 2271 2301 2244 2227 2226 2321 2323 2281 2297 2296 2268 2343 2303 2204 2249 2252 2232 2199 2243 2216 2248 2156 2225 2267 2138 2153 2236 2225 2226 2123 2102 2091 2113 1996 2161 2182 2068 2151 2090 2144 2063 2035 2092 2169 2148 2168 2009 2095 2044 2035 1974 2012 2102 2055 2090 2080 2117 2079 2144 2102 2096 2110 2081 2021 1993 2156 2081 2100 2024 2060 2058 2122 2074 1992 1990 2042 2008 2108 2034 2113 2101 2004 1960 2028 2142 2016 2045 2142 2040 2062 2011 2094 2038 2043 2060 2066 2014 2089 2066 1977 2038 2056 2068 2018 1998 2048 1926 1970 1946 1875 1958 1992 1951 1961 2016 1985 2033 2000 1981 2041 1952 1958 2042 1981 1960 2044 2015 1949 2029 2025 1996 1954 2014 2041 1954 1999 2028 2000 1937 1998 2051 1960 1985 2032 1993 2012 1953 1988 1990 2035 2075 2027 1981 2012 2009 2023 2019 1959 1947 1949 2041 2024 1996 2003 2084 2012 2023 1972 1992 1930 1994 2087 1953 1971 2067 1974 1988 2055 1944 1959 1949 1987 2002 2018 2063 2080 2098 2024 1946 1992 2045 1941 2001 2041 2035 2048 2045 2022 2020 2069 2048 1961 1990 2041 2012 1952 1996 2020 2006 2018 1972 1987 1981 2006 2008 1992 1996 2040 1942 2035 2033 2057 1994 2035 2031 2021 2098 2013 1970 2001 2021 1963 2040 2025 2084 2035 2007 2007 2083 2023 2103 2027 2006 2017 1986 2039 2022 1974 2085 2028 1951 1933 1984 1986 2028 2026 1958 2038 1969 1980 1954 2090 2034 1997 2036 2053 2041 1941 2035 2034 1973 1962 2026 2049 1988 2134 1974 1958 2019 1912 1914 2014 2006 2028 1989 1981 2044 1963 2069 1881 2053 1999 2094 2047 2010 2003 1979 2038 2064 2032 1924 1977 1959 2050 2014 1931 1966 2069 2010 2049 2058 1994 2006 2043 2096 1982 1981 2006 2029 1983 1981 2043 2066 2041 1990 2009 2077 1959 2077 2020 2049 1990 1965 2057 2010 1948 1992 2048 1864 2028 1990 1946 2042 2028 2019 1984 2019 2047 2037 2098 1995 1956 2009 2079 1998 1973 1956 1979 1932 2012 1898 2007 2035 2061 2021 1984 2016 1960 1919 1919 2032 2025 1938 2001 1982 2075 2109 1938 1985 1933 1956 1954 1998 1945 1964 2033 1967 1998 2024 1927 2012 2019 2011 2055 2072 2016 1958 2045 2013 2071 1999 1982 2043 2086 1994 2015 1994 2058 2012 1962 2037 2040 2028 2079 2026 1941 2007 1989 1985 1980 1979 1922 1973 1974 1986 1960 1983 1935 1941 1994 1961 1972 2025 2023 2015 2017 1967 1935 2024 1962 1975 2027 2055 2009 2047 2021 1874 1993 2006 1959 2022 2007 2014 2048 1955 2043 2091 1959 2084 2020 1883 1953 1998 1994 1978 1954 1979 2098 1958 2010 2043 1972 2025 1931 2091 2061 1998 1988 2032 2020 1989 2064 1945 2006 1975 1979 2024 1991 1998 1953 1989 2020 2045 2046 2000 2019 1998 1972 2097 1995 2013 1961 2047 2054 1931 2118 2044 1969 1928 1914 2020 2003 2029 1986 1963 2051 2055 2016 1942 1993 2018 2011 2036 1925 1957 2005 2009 2059 1976 2057 2039 2166 2012 1932 2025 2021 1980 2009 2036 1992 2030 2108 2043 2075 1968 1964 2039 2002 1997 2001 2000 1974 2056 2103 1942 2009 2084 2074 2039 2012 1935 1988 1983 1956 1997 2063 2057 1991 2060 2001 2036 1995 1984 1919 2026 2060 2012 1975 2005 2036 2025 2011 1950 2068 2024 1994 2048 2059 2033 2038 1937 2003 2022 2037 2009 1981 2004 2057 1990 1953 1999 1961 1976 2056 2032 2010 2026 2002 1970 2054 1943 2015 2060 1993 2061 2069 2005 1967 2057 2063 2062 2072 2039 1909 2102 1991 2010 1984 2056 1993 1987 2070 2070 2020 2004 2034 2102 2048 1934 2026 1990 1978 1963 2092 2049 1929 2094 2040 2090 2072 2027 2113 2154 2162 2112 2094 2079 2016 2146 2117 2077 2127 2213 2204 2081 2063 2141 2188 2119 2080 2082 2126 2052 2126 2130 2054 2089 2140 2130 2085 1989 2073 2102 2058 2013 2090 2146 2075 2162 2028 2050 2132 2074 2032 2069 2139 2019 2113 2025 1968 2008 2136 2062 2088 2011 2044 2146 2091 2214 2136 2079 2128 2201 2112 2142 2221 2086 2173 2173 2165 2188 2137 2175 2144 2075 2125 2169 2112 2114 2114 2164 2096 2105 2168 2123 2105 2164 2013 2093 2119 2041 2105 2147 2089 2116 2094 2138 2102 2061 2011 2140 2080 2081 2045 2121 2041 2123 2121 2052 2042 2018 2094 2059 2083 2129 2021 2042 2056 2189 2088 1969 2069 2055 1983 2105 2018 2041 2133 2031 2082 2084 2106 2073 2033 2128 2051 2009 2014 2059 2108 2130 2018 2120 2128 2099 2101 2057 2070 2049 2146 1990 2020 2033 2104 2099 2001 2069 2116 2053 2000 2079 2025 2002 2003 2065 2086 1959 2114 2000 2050 2130 1984 2039 1968 2024 1979 2027 1999 2066 2067 2024 2038 2017 2040 1882 2019 2035 1947 2025 2133 2119 2011 2042 2086 2009 2038 1994 1976 2046 2012 2064 2092 2039 2039 2041 2051 2009 1955 2058 2072 1977 2023 1991 2017 2087 2068 2152 2025 2125 2128 2081 2077 2019 2014 2047 1932 2086 2054 2062 2022 2098 2129 1987 2015 1985 2036 2086 2060 1986 2030 2062 2059 2016 2130 2083 2085 2030 2049 2146 2001 2044 2103 2049 2113 2048 2102 2076 2120 2049 2118 2040 2153 2139 2091 2060 2064 2045 2019 2132 2160 2174 2165 2104 2170 2137 2129 2216 2186 2209 2190 2272 2260 2185 2333 2305 2289 2326 2389 2431 2431 2422 2432 2565 2550 2549 2625 2601 2592 2625 2687 2641 2586 2688 2690 2552 2587 2706 2596 2565 2569 2521 2608 2515 2602 2561 2570 2517 2473 2530 2426 2522 2587 2553 2494 2488 2452 2473 2412 2417 2343 2455 2302 2357 2337 2353 2337 2317 2238 2317 2271 2212 2254 2324 2172 2255 2176 2286 2300 2259 2260 2164 2293 2233 2200 2240 2181 2139 2160 2176 2180 2160 2171 2304 2133 2124 2244 2180 2190 2220 2212 2222 2162 2238 2199 2277 2225 2255 2184 2251 2197 2176 2189 2185 2119 2212 2143 2147 2152 2174 2157 2181 2176 2162 2113 2130 2125 2142 2171 2159 2153 2188 2104 2074 2099 2243 2105 2130 2094 2151 2114 2041 2051 2130 2085 2092 2025 2057 2119 2064 2028 2126 2010 2033 2127 1966 2050 2148 2122 2099 2102 2078 2064 2059 2060 2085 2075 2058 2061 2132 2123 2025 2029 2115 2106 2086 2065 2099 2107 2052 2001 2050 2049 2090 2144 2003 2044 2097 2098 2058 2110 2048 2116 1957 2124 2040 2089 2102 2134 2093 2072 2092 2067 2144 2175 2114 2143 2193 2043 2120 2165 2131 2038 2078 2095 2028 2076 2181 2136 2165 2149 2088 2147 2084 2116 2048 2138 2097 2077 2027 1991 2025 2001 2025 2050 2109 2080 2073 2065 2145 2163 2139 2064 1988 2049 2048 2106 2122 2080 2027 2057 2053 2075 2019 2066 2053 2031 2038 2064 2148 2081 2032 1954 2052 2069 2073 2108 1948 1991 1999 2129 2032 2069 2011 2059 2021 2160 2119 2036 2051 2026 2011 1976 2117 1960 2004 2061 2036 2005 2038 2112 2037 2074 2122 1983 2053 2053 2096 1960 2011 2017 2022 2015 2094 2070 1968 2074 1934 1974 1979 1963 2022 2006 2078 2086 1980 2093 2042 2054 1981 1999 2016 1952 2051 2098 2036 1968 2001 2052 1990 2057 2003 1936 2063 2017 2103 2071 2016 2000 2004 2027 2061 1960 2033 2016 1975 2005 1985 1976 2021 2031 2001 2045 2053 2026 2026 1912 2064 2079 2016 2006 2074 2008 2026 1978 2083 2070 2113 1969 2043 2043 2008 1975 2034 2011 1994 1988 1943 2148 2073 1991 2042 1972 1966 1986 1998 2006 1953 2084 2090 2049 1933 2025 1942 2002 1944 1968 1991 2032 2011 2054 1987 1966 2046 2032 1889 2031 1935 2036 2002 1938 2012 2028 1992 1986 1982 1992 1893 2005 1973 1984 2032 1913 2093 2098 1988 2056 2082 2005 2046 1928 2041 2016 2088 1986 2007 1892 2067 2071 2011 1950 1974 2016 2086 2069 2024 1941 2040 1986 1998 2017 1989 1997 1979 2016 1948 2002 2030 1972 2059 2063 2088 1960 1945 1965 2008 2083 2032 1997 1939 1994 2013 1997 2031 2026 2089 2046 2046 1968 1937 1944 1981 2004 2040 2048 2063 2116 1964 1989 2071 2072 2012 2015 2032 1988 1991 2036 2022 2044 2102 2002 2029 1999 2048 2094 2032 2033 1999 1956 2043 1999 2024 1940 2014 2015 2040 2072 1936 2018 2032 1949 2004 2030 1990 2040 2003 2000 2063 2008 2005 2004 2024 1953 2020 2023 2023 1995 2013 1998 2022 1995 2031 1989 2044 2026 1993 2078 2025 1933 1917 1974 2011 1907 2035 2101 2128 2052 2000 1978 2051 2013 2044 1928 2135 1967 1986 2051 1935 2072 2041 1983 1997 1932 2019 2109 2000 1964 1919 1945 2084 1956 2050 2035 2058 2082 1997 2001 1998 2073 2026 1943 2041 2075 1966 2034 2112 1960 1997 2001 1993 2008 2038 2041 2021 1980 2019 2043 2001 1935 2024 2026 2013 2050 2118 2006 2035 2043 2084 2045 1996 2064 1953 1990 2050 2032 1979 2016 1965 2089 2040 2024 2052 2074 2000 2055 1996 2014 1960 2054 2022 2033 2018 2038 1987 2014 2047 2000 2021 1943 2121 2079 2036 2100 2090 2059 1977 2164 2070 2052 2005 2102 2124 2008 2067 2110 2033 2091 2060 2079 2088 2119 2124 2039 2116 2109 2047 1988 2094 2123 2164 2064 2085 2062 2143 2108 2101 2102 2185 2052 2061 2052 2154 2049 2027 2058 2025 2099 2068 2131 2108 2112 2020 2104 2131 2027 2008 2001 2014 2008 2000 2080 2009 2077 2059 1994 2007 2022 2103 2036 1982 2012 1927 2039 2048 2036 2044 2022 2051 2043 2100 1989 2076 2004 2079 1994 2047 1936 2055 2034 2045 2080 2067 1988 2029 2111 2075 2126 2017 2068 1958 2070 2013 2085 1968 2025 2057 2027 2042 2053 2012 2013 2001 2043 2057 2076 2025 2155 2019 2026 2099 2035 2044 2046 2043 1982 1961 2017 2078 2017 2126 1921 2052 2083 2064 2012 2053 2112 1991 2093 2010 2007 1981 2052 1938 2112 2016 1975 1978 1964 1992 2005 1998 1956 2042 2036 2010 2077 2003 1991 1965 2086 1981 2059 2085 2024 2026 1974 1960 2038 1961 1959 1990 1979 2057 2013 2033 2006 2019 1981 2094 2035 2014 2020 1957 1955 1996 1992 2051 1956 2033 1979 1971 2066 1973 2041 2037 2056 2005 2084 1958 1989 2030 1964 2083 2041 2143 2071 2027 2077 2014 2030 1927 1909 2099 2041 1965 2065 2010 2037 1986 2025 2017 2011 1981 1996 2154 2055 2058 1964 2025 2092 2031 2061 1995 2028 1999 2011 2024 2111 2056 2069 2026 2057 2140 1990 2034 2060 2071 2001 2152 1985 2059 2015 2086 2061 2083 2044 2011 2060 2053 2102 2063 2004 2085 2070 2125 1995 2103 2038 2021 2107 2082 2023 2108 2132 2151 2088 2059 2074 2120 2087 2062 2123 2071 2110 2131 2086 2216 2147 2084 2184 2215 2176 2220 2226 2249 2218 2225 2229 2308 2345 2256 2427 2368 2382 2430 2474 2530 2417 2483 2533 2496 2484 2565 2506 2501 2527 2422 2521 2467 2418 2354 2468 2379 2432 2343 2433 2397 2462 2431 2359 2380 2391 2315 2373 2330 2358 2297 2331 2298 2369 2362 2296 2311 2248 2346 2255 2326 2299 2271 2318 2266 2286 2249 2215 2204 2238 2218 2122 2154 2068 2210 2149 2118 2136 2142 2094 2158 2137 2105 2191 2134 2136 2128 2197 2144 2250 2120 2125 2167 2090 2163 2163 2128 2097 2106 2194 2135 2168 2156 2092 2106 2223 2111 2197 2180 2118 2248 2151 2216 2089 2160 2150 2139 2251 2063 2222 2111 2196 2229 2212 2153 2183 2101 2166 2091 2130 2163 2136 2098 2108 2167 2186 2194 2185 2086 2011 2178 2085 2106 2055 2109 2104 2062 2105 2015 2102 2087 2108 2011 1989 2118 2001 2150 2043 2079 2099 2074 1994 2018 2100 2098 1983 2056 2074 2069 2082 2087 2048 1984 2106 2067 2058 2010 2145 2041 2016 2034 2056 1986 2078 1967 2114 2026 2085 2046 2073 2154 2112 2021 2052 2046 2068 2088 2089 2139 2048 2167 2160 2162 2024 2095 2044 2131 2108 2009 2054 2088 2175 1998 2130 2051 1964 2160 2039 2025 2091 2098 2006 2000 2102 2018 2087 2016 2064 2053 2055 2144 2068 2115 2007 2018 2078 2044 2088 1982 1971 2089 2132 2123 2064 2043 2030 1982 2001 2012 1998 1999 1987 2027 2006 2024 2069 2076 1990 2030 1982 2044 2068 2040 1960 2035 2073 2038 2112 2042 1930 2157 2088 2032 2015 2038 2048 2023 2116 2018 1949 1984 2004 1896 2069 2012 1957 2057 1950 2077 2016 2103 2083 2053 2021 1961 2045 2034 2005 1997 2005 2065 2007 2067 2070 2127 1943 2046 2064 2048 1983 2066 2085 2028 1991 2068 1990 2051 2018 2001 1896 1944 2074 1952 1920 2035 2049 1974 1984 2039 2048 2018 1977 2070 1949 2009 2024 1964 2073 2032 2001 2086 2010 2020 2035 2018 1969 1938 1989 2016 1984 1962 1959 2034 1975 2059 2098 2001 2008 2014 2063 1987 1967 2031 2082 2054 2026 2069 2084 2014 2012 1974 1960 2042 1990 1964 1998 2066 2112 1970 2022 1994 1964 1998 2041 2016 2012 2045 1989 1970 2054 1956 2074 2086 2042 2020 2038 2033 2018 1998 2071 2020 2010 1999 2036 2011 1897 2001 2059 2100 2025 2002 2025 2009 2042 2072 2069 2062 2064 2024 2027 2049 1923 1978 2014 2047 2007 1965 2060 1954 1956 1974 2105 1960 2038 1977 2022 2061 2062 2072 2028 2004 2012 2003 1990 2021 1859 1968 2047 1968 2035 2009 2021 2044 1951 1975 2033 2064 2064 2111 1963 2065 1952 1970 2033 2000 2000 2104 1992 2071 1965 2013 1923 2000 2044 2047 2035 2063 1978 2077 2008 2094 2050 1978 2002 2037 2023 1982 1972 2033 2017 2073 2052 1971 2029 1983 1947 1967 2023 2056 1875 2031 1969 1938 2015 2088 2056 2032 2029 2033 2041 1983 2088 1983 1948 2001 2032 2012 2030 2000 1991 2025 2005 1981 1962 1977 2003 2045 1966 2055 2033 2038 2046 2101 2032 1979 2029 2039 1969 1966 1974 1983 2087 2091 1986 1948 2026 2051 2065 2001 2002 2010 1989 1990 2125 2037 2014 2012 2057 1986 2032 2033 2038 1973 2054 2029 1895 2041 1960 2040 2103 2064 1987 2031 1991 2012 2040 2015 2014 1981 2052 1941 2062 2061 2005 2060 2070 2020 1965 2032 2106 2026 2038 2092 2127 1989 2047 2047 2054 2065 2043 1932 2068 2017 2035 2051 2140 2082 1978 1992 2011 2031 2022 2172 2069 2036 2035 1977 1960 2059 1970 2006 2098 2034 1993 2000 2066 2064 2008 2075 2030 2117 2100 2055 2076 2011 2045 2075</counts>
			</dataPoints>
		</scan>
	</xrdMeasurement>
</xrdMeasurements>
