<?xml version="1.0"?>
<xrdMeasurements xmlns="http://www.xrdml.com/XRDMeasurement/2.3" xmlns:xsi="http://www.w3.org/2001/XMLSchema-instance" xsi:schemaLocation="http://www.xrdml.com/XRDMeasurement/2.3 http://www.xrdml.com/XRDMeasurement/2.3/XRDMeasurement.xsd" status="Completed" recordIdentifier="{19E6D7C5-220E-4BDA-A017-5C59E41CEAA1}">
	<comment>
		<entry/>
	</comment>
	<sample type="To be analyzed">
		<id>GPSS_Li1p8Co0p475Fe0p475Sc0p1Cl4_122625_694efed0ae15af25ac374c5b</id>
		<name></name>
		<preparedBy></preparedBy>
	</sample>
	<xrdMeasurement measurementType="Scan" status="Completed" sampleMode="Reflection">
		<usedWavelength intended="K-Alpha 1">
			<kAlpha1 unit="Angstrom">1.5405980</kAlpha1>
			<kAlpha2 unit="Angstrom">1.5444260</kAlpha2>
			<kBeta unit="Angstrom">1.3922500</kBeta>
			<ratioKAlpha2KAlpha1>0.5000</ratioKAlpha2KAlpha1>
		</usedWavelength>
		<incidentBeamPath>
			<radius unit="mm">145.00</radius>
			<xRayTube id="1010048" name="Empyrean Cu LFF HR (9430 033 7310x)">
				<tension unit="kV">40.0</tension>
				<current unit="mA">15.0</current>
				<anodeMaterial>Cu</anodeMaterial>
				<focus type="Line">
					<length unit="mm">12.0</length>
					<width unit="mm">0.4</width>
					<takeOffAngle unit="deg">6.0</takeOffAngle>
				</focus>
			</xRayTube>
			<sollerSlit id="21010002" name="Soller slits 0.04 rad.">
				<opening unit="rad">0.0400</opening>
			</sollerSlit>
			<mask id="22031000" name="Fixed mask 13 mm">
				<width unit="mm">9.00</width>
			</mask>
			<divergenceSlit id="22120001" name="Divergence slit 1°" xsi:type="fixedDivergenceSlitType">
				<distanceToSample unit="mm">50.00</distanceToSample>
				<height unit="mm">1.52</height>
			</divergenceSlit>
		</incidentBeamPath>
		<sampleMovement xsi:type="spinningSampleMovementType">
			<spinnerRevolutionTime unit="seconds">1.0</spinnerRevolutionTime>
		</sampleMovement>
		<diffractedBeamPath>
			<radius unit="mm">145.00</radius>
			<antiScatterSlit id="22090040" name="AS slit 9 mm (PIXcel)" xsi:type="fixedAntiScatterSlitType">
				<height unit="mm">9.00</height>
			</antiScatterSlit>
			<sollerSlit id="21020003" name="Large Soller slits 0.04 rad.">
				<opening unit="rad">0.0400</opening>
			</sollerSlit>
			<filter id="20030001" name="Large beta-filter Nickel">
				<material>Ni</material>
				<thickness unit="mm">0.020</thickness>
			</filter>
			<detector id="7010019" name="PIXcel1D-Medipix3 detector" xsi:type="rtmsDetectorType">
				<phd unit="keV">
					<lowerLevel>4.02</lowerLevel>
					<upperLevel>11.27</upperLevel>
				</phd>
				<mode>Scanning</mode>
				<activeLength unit="deg">5.542</activeLength>
			</detector>
		</diffractedBeamPath>
		<scan appendNumber="0" mode="Continuous" scanAxis="Gonio" status="Completed">
			<header>
				<startTimeStamp>2025-12-29T12:24:49-08:00</startTimeStamp>
				<endTimeStamp>2025-12-29T12:32:56-08:00</endTimeStamp>
				<author>
					<name>AutomatedUser</name>
				</author>
				<source>
					<applicationSoftware version="1.7b (136)">PANalytical Aeris Instrument Suite</applicationSoftware>
					<instrumentControlSoftware version="3.2.00000000 20240306">AERIS</instrumentControlSoftware>
					<instrumentID>950485</instrumentID>
				</source>
			</header>
			<dataPoints>
				<positions axis="2Theta" unit="deg">
					<startPosition>10.00943322</startPosition>
					<endPosition>99.99442286</endPosition>
				</positions>
				<positions axis="Omega" unit="deg">
					<startPosition>5.00471661</startPosition>
					<endPosition>49.99721143</endPosition>
				</positions>
				<commonCountingTime unit="seconds">12.495</commonCountingTime>
				<counts unit="counts">3512 3387 3329 3378 3440 3385 3427 3276 3430 3457 3512 3328 3360 3480 3280 3414 3520 3354 3393 3263 3387 3265 3413 3402 3391 3468 3439 3406 3414 3461 3417 3414 3422 3525 3380 3488 3410 3407 3433 3505 3517 3416 3560 3553 3463 3456 3608 3442 3569 3436 3438 3468 3502 3570 3430 3601 3582 3575 3583 3559 3562 3627 3638 3694 3600 3636 3599 3677 3648 3535 3696 3688 3889 3714 3724 3595 3654 3813 3815 3664 3656 3804 3663 3726 3694 3667 3769 3740 3750 3755 3643 3785 3762 3742 3722 3757 3633 3755 3781 3708 3727 3752 3649 3735 3659 3831 3599 3689 3741 3728 3657 3773 3697 3768 3680 3706 3612 3560 3623 3646 3709 3724 3712 3684 3613 3608 3696 3686 3681 3624 3624 3637 3670 3658 3608 3647 3650 3618 3681 3581 3629 3688 3614 3644 3539 3555 3641 3584 3789 3580 3769 3733 3698 3694 3593 3631 3742 3648 3656 3667 3663 3704 3546 3479 3540 3714 3621 3701 3707 3629 3604 3639 3622 3573 3884 3632 3694 3675 3586 3736 3680 3604 3575 3667 3563 3702 3648 3681 3656 3632 3720 3651 3702 3680 3530 3637 3563 3588 3460 3745 3708 3645 3709 3632 3688 3611 3682 3608 3579 3560 3683 3552 3636 3587 3542 3671 3531 3623 3639 3614 3528 3612 3585 3638 3507 3503 3607 3664 3727 3588 3620 3636 3573 3511 3474 3620 3588 3629 3471 3608 3636 3535 3615 3501 3597 3511 3538 3653 3634 3532 3680 3540 3577 3588 3525 3482 3598 3565 3607 3534 3523 3482 3568 3581 3605 3505 3523 3462 3420 3575 3507 3558 3627 3553 3502 3441 3538 3544 3559 3587 3579 3537 3533 3646 3493 3496 3572 3534 3592 3651 3606 3618 3574 3640 3596 3593 3670 3450 3517 3466 3575 3583 3486 3662 3604 3571 3547 3619 3587 3642 3681 3717 3633 3573 3616 3673 3591 3621 3555 3754 3608 3597 3619 3673 3687 3728 3627 3683 3671 3582 3787 3609 3639 3642 3752 3786 3628 3619 3741 3734 3735 3730 3732 3726 3786 3835 3730 3801 3779 3684 3739 3735 3753 3795 3668 3774 3775 3803 3845 3814 3906 3864 3829 3747 3697 3847 3908 3847 3810 3897 3889 3948 3919 3841 3851 3810 3958 3824 3846 3715 3887 4018 3931 3927 3832 3966 3876 3988 3905 3894 4017 4089 3957 3954 3885 4090 3892 3990 3914 4045 3938 4012 4073 3927 3969 4004 4001 4011 4001 4177 3988 4116 4012 4105 4066 4073 4036 4112 4148 4090 4170 4108 4225 4093 4171 4181 4214 4173 4071 4084 4310 4134 4221 4229 4184 4202 4245 4236 4308 4280 4426 4339 4384 4478 4446 4433 4632 4494 4577 4498 4655 4527 4708 4705 4848 4852 4875 4868 4946 4876 5052 5207 5162 5409 5437 5429 5741 5692 5782 5956 6076 6063 6271 6395 6433 6555 6437 6608 6774 6607 6472 6414 6331 6301 6266 6262 6079 5756 5672 5454 5240 5147 4978 4717 4685 4493 4225 4235 4201 4116 4172 4167 4017 4067 4082 4171 4035 4024 3896 3966 4063 4021 3949 4111 4037 4028 3933 3764 3971 3729 3905 3980 3908 3925 3873 3912 3871 3936 3849 3817 3887 3727 3769 3752 3793 3711 3822 3813 3743 3795 3772 3775 3633 3846 3763 3702 3911 3664 3652 3779 3772 3874 3796 3770 3790 3885 3862 3661 3757 3756 3756 3782 3644 3801 3732 3792 3697 3722 3682 3724 3660 3648 3728 3673 3573 3710 3694 3793 3639 3698 3689 3661 3617 3642 3615 3737 3594 3718 3681 3630 3593 3717 3658 3682 3750 3624 3602 3624 3604 3615 3562 3683 3661 3659 3654 3626 3636 3544 3697 3559 3621 3549 3603 3616 3672 3510 3578 3681 3663 3609 3714 3638 3575 3579 3517 3650 3507 3477 3535 3676 3428 3564 3621 3756 3554 3504 3586 3439 3527 3433 3610 3453 3492 3726 3590 3590 3598 3646 3702 3642 3688 3569 3737 3604 3550 3585 3764 3611 3610 3700 3616 3654 3641 3652 3672 3766 3615 3715 3747 3702 3816 3718 3646 3854 3764 3827 3730 3794 3779 3809 3919 3836 3866 3863 3997 3940 3918 4057 3905 3897 3954 3960 3838 3976 3768 3770 3840 3898 3684 3944 3791 3669 3726 3549 3670 3632 3723 3536 3661 3571 3539 3560 3614 3508 3522 3535 3556 3460 3561 3417 3594 3495 3469 3529 3540 3542 3503 3571 3556 3600 3521 3460 3502 3535 3485 3619 3598 3439 3532 3529 3491 3451 3596 3519 3476 3584 3452 3447 3509 3460 3546 3541 3533 3503 3482 3435 3440 3514 3440 3610 3513 3452 3424 3533 3509 3486 3394 3578 3450 3415 3582 3500 3474 3420 3506 3442 3469 3531 3554 3427 3450 3500 3538 3397 3442 3565 3601 3526 3616 3446 3562 3429 3508 3427 3414 3386 3560 3461 3451 3550 3623 3525 3508 3491 3614 3529 3439 3474 3447 3463 3526 3527 3544 3641 3442 3510 3400 3362 3484 3466 3489 3509 3519 3456 3440 3451 3388 3467 3439 3465 3621 3446 3406 3500 3396 3480 3531 3447 3433 3538 3481 3337 3467 3535 3395 3416 3418 3441 3535 3445 3282 3443 3491 3473 3402 3467 3383 3387 3433 3483 3481 3313 3405 3446 3419 3324 3478 3452 3343 3443 3511 3405 3289 3443 3413 3430 3338 3419 3414 3529 3436 3493 3467 3583 3391 3376 3495 3447 3513 3381 3331 3386 3383 3379 3437 3476 3395 3319 3346 3435 3437 3375 3380 3437 3430 3501 3311 3373 3390 3364 3495 3335 3501 3254 3313 3395 3362 3318 3480 3454 3224 3377 3326 3380 3458 3361 3376 3307 3358 3350 3326 3389 3458 3392 3370 3315 3363 3377 3350 3393 3385 3545 3303 3232 3420 3319 3368 3363 3385 3318 3392 3451 3407 3427 3320 3329 3377 3351 3359 3347 3418 3327 3370 3350 3375 3382 3226 3348 3306 3316 3405 3262 3380 3384 3350 3294 3307 3313 3347 3429 3289 3300 3288 3407 3262 3418 3413 3322 3345 3271 3316 3263 3402 3307 3183 3213 3400 3340 3312 3265 3181 3403 3389 3379 3301 3397 3373 3248 3277 3380 3322 3345 3272 3404 3318 3213 3322 3472 3306 3349 3389 3421 3369 3352 3313 3317 3342 3343 3302 3310 3336 3358 3369 3385 3305 3400 3322 3361 3306 3345 3255 3230 3457 3366 3313 3329 3467 3360 3411 3467 3289 3428 3280 3462 3452 3423 3306 3366 3378 3322 3276 3356 3455 3418 3378 3382 3362 3344 3301 3378 3328 3323 3431 3329 3403 3408 3343 3423 3300 3321 3347 3455 3347 3378 3357 3403 3336 3468 3282 3463 3368 3465 3410 3343 3380 3370 3386 3441 3378 3312 3397 3324 3385 3388 3407 3317 3319 3288 3452 3353 3362 3243 3310 3371 3321 3179 3365 3316 3375 3363 3388 3350 3343 3293 3306 3318 3379 3262 3323 3452 3241 3305 3282 3270 3308 3316 3274 3330 3453 3370 3310 3281 3387 3256 3344 3271 3298 3292 3308 3320 3381 3286 3265 3242 3273 3247 3282 3239 3279 3318 3404 3128 3268 3319 3221 3264 3213 3276 3222 3172 3326 3270 3215 3223 3363 3233 3168 3115 3213 3332 3267 3185 3289 3217 3174 3161 3225 3159 3250 3088 3145 3221 3146 3247 2999 3207 3137 3127 3207 3144 3140 3129 3112 3143 3110 3190 3193 3181 3002 3097 3097 3202 3097 3071 3107 3098 3148 3080 3082 3063 3018 3097 3029 3044 3014 2981 2940 3137 3072 3003 3085 3016 3028 3010 2987 2983 2987 3082 3099 3009 3062 2960 3029 3119 3083 3056 3059 3032 2982 2977 3065 3007 3096 2931 2991 3042 2963 2901 3012 2936 2901 2954 2991 2856 2967 2921 2971 3036 2941 2917 2953 3048 2877 2907 2841 3060 2917 2950 2893 3003 2911 2933 2922 2883 2901 3003 3000 2911 2950 2939 2903 2936 2832 2895 2863 2840 2867 2857 2959 2806 2840 2847 2920 2875 2892 2896 2883 2824 2904 2814 2876 2880 2918 2919 2920 2900 2876 2899 2831 2859 2866 2875 2891 2910 3023 2888 2862 2865 2909 2918 2866 2879 2965 2877 2922 2972 2938 2830 2902 2948 2886 2874 3017 2986 2964 3019 2993 2894 3003 3047 3043 2958 3026 2985 3106 3147 3050 3172 3226 3127 3082 3178 3264 3195 3208 3245 3222 3215 3196 3198 3190 3082 3108 3073 3083 3090 3071 3047 3046 3124 3029 3023 2931 2989 3078 2863 2987 2979 2935 2939 2892 2851 2772 2903 2824 2869 2951 2986 2950 2903 2868 2915 2905 3041 2894 2883 2956 2972 2880 2917 2850 2933 2909 2991 2920 2805 2935 2911 2917 2884 2895 2841 2966 2914 2812 2888 2912 2868 2915 2838 2837 2802 2822 2849 2848 2861 2908 2851 2841 2914 2778 2823 2846 2855 2961 2916 2940 2927 2825 2824 2890 2912 2794 2968 2843 2919 2912 2918 2967 2809 2885 2860 2871 2877 2946 2841 2836 2874 2881 2857 2782 2933 2803 2846 2853 2857 2938 2862 2784 2843 2864 2970 2979 2765 2935 2885 2918 2962 2946 2882 2761 2875 2787 2833 2941 2884 2861 2949 2859 2914 2971 2810 2830 2824 2799 2837 2798 2825 2946 2806 2839 2801 2882 2909 2823 2762 2914 2838 2884 2896 2917 2754 2893 2900 2932 2753 2765 2742 2878 2867 2847 2873 2901 2891 2794 2832 2804 2840 2794 2756 2722 2822 2819 2766 2782 2785 2751 2833 2816 2782 2790 2624 2760 2757 2750 2824 2734 2734 2755 2754 2761 2781 2719 2711 2711 2719 2846 2754 2723 2709 2754 2770 2656 2796 2780 2763 2767 2750 2680 2733 2731 2751 2756 2686 2727 2753 2682 2701 2791 2735 2708 2678 2806 2722 2686 2730 2797 2818 2644 2656 2727 2628 2660 2695 2572 2685 2695 2686 2689 2717 2681 2612 2769 2593 2674 2621 2703 2693 2590 2668 2645 2610 2592 2773 2734 2585 2576 2600 2632 2605 2592 2679 2613 2684 2645 2616 2642 2664 2691 2548 2654 2649 2551 2640 2554 2537 2509 2563 2676 2635 2616 2680 2595 2547 2572 2674 2599 2589 2517 2527 2625 2621 2546 2562 2634 2590 2530 2669 2598 2596 2547 2630 2619 2598 2639 2544 2551 2581 2478 2671 2553 2630 2631 2631 2593 2548 2567 2548 2521 2494 2506 2602 2539 2535 2590 2608 2458 2564 2526 2473 2553 2535 2543 2447 2543 2487 2578 2550 2648 2539 2587 2500 2566 2632 2588 2538 2599 2549 2570 2595 2578 2618 2657 2575 2681 2673 2641 2662 2723 2794 2694 2676 2739 2697 2802 2709 2775 2821 2861 2835 2878 2885 3007 3028 3091 2958 3134 3029 3101 3107 3063 3341 3245 3250 3202 3314 3258 3208 3313 3367 3458 3415 3385 3439 3418 3428 3395 3440 3250 3365 3310 3273 3203 3289 3137 3108 3037 3005 2957 2952 2799 2765 2870 2715 2808 2609 2573 2543 2570 2543 2575 2552 2460 2536 2507 2464 2530 2558 2533 2488 2530 2437 2474 2470 2613 2442 2424 2515 2472 2392 2428 2472 2429 2398 2432 2522 2419 2432 2522 2439 2434 2416 2494 2493 2469 2498 2448 2433 2462 2482 2471 2501 2552 2569 2546 2579 2561 2659 2623 2594 2574 2559 2705 2627 2682 2697 2684 2629 2804 2640 2762 2686 2726 2805 2764 2958 2841 2963 3045 2987 3075 3170 3250 3271 3361 3362 3516 3640 3599 3756 3760 3879 3977 4022 4031 3997 4134 4081 4161 4134 4149 4157 4023 4004 3881 3775 3767 3657 3555 3509 3377 3373 3233 3098 3043 2934 2848 2833 2686 2741 2636 2664 2521 2592 2459 2501 2443 2576 2510 2463 2409 2490 2418 2498 2474 2511 2365 2420 2424 2431 2378 2391 2417 2333 2393 2371 2399 2430 2409 2367 2407 2322 2361 2318 2307 2264 2424 2380 2349 2372 2399 2352 2441 2354 2370 2230 2473 2262 2362 2371 2390 2270 2354 2341 2345 2284 2351 2362 2361 2344 2406 2196 2322 2268 2349 2325 2412 2385 2344 2368 2329 2277 2241 2377 2327 2407 2315 2362 2383 2336 2265 2360 2358 2334 2329 2285 2280 2370 2249 2321 2302 2389 2380 2420 2358 2318 2290 2386 2362 2352 2366 2280 2284 2350 2395 2335 2314 2329 2288 2326 2445 2275 2435 2371 2393 2338 2298 2277 2320 2296 2368 2250 2401 2400 2295 2245 2319 2359 2334 2332 2316 2325 2334 2270 2342 2326 2338 2248 2319 2293 2253 2252 2314 2323 2405 2329 2463 2231 2279 2322 2288 2299 2321 2332 2319 2312 2346 2316 2360 2350 2292 2334 2337 2319 2334 2380 2331 2279 2268 2303 2278 2320 2269 2296 2401 2219 2267 2347 2421 2331 2246 2398 2315 2358 2316 2370 2420 2332 2244 2408 2223 2306 2270 2286 2380 2203 2210 2256 2347 2253 2453 2322 2338 2365 2346 2290 2377 2277 2311 2256 2291 2325 2310 2299 2188 2336 2315 2274 2284 2341 2315 2369 2265 2296 2294 2350 2237 2346 2371 2277 2297 2370 2254 2239 2331 2361 2251 2280 2270 2306 2233 2242 2321 2391 2365 2260 2441 2333 2304 2284 2285 2324 2329 2312 2220 2259 2269 2285 2262 2245 2262 2355 2313 2390 2346 2373 2314 2338 2275 2356 2282 2367 2235 2383 2378 2277 2236 2322 2328 2315 2367 2320 2365 2315 2232 2286 2412 2334 2268 2310 2352 2330 2314 2254 2377 2396 2409 2378 2402 2279 2367 2368 2400 2330 2339 2344 2345 2324 2285 2411 2535 2339 2418 2332 2337 2387 2329 2295 2388 2395 2350 2436 2401 2514 2400 2381 2420 2395 2409 2364 2415 2483 2397 2376 2417 2342 2384 2371 2449 2319 2498 2390 2428 2455 2404 2495 2456 2439 2458 2378 2380 2476 2461 2451 2434 2414 2529 2495 2515 2499 2453 2591 2551 2588 2597 2639 2572 2581 2640 2662 2702 2718 2690 2755 2708 2845 2859 2828 2956 2894 2998 3080 3116 3282 3240 3289 3386 3560 3577 3524 3756 3740 3988 3939 4030 4289 4223 4307 4451 4583 4678 4766 4935 5077 5240 5186 5226 5396 5560 5479 5683 5732 5727 5786 5825 5905 6029 6025 6231 6084 6343 6463 6723 6562 6910 7051 7147 6940 7083 6900 6791 6743 6698 6385 6318 6011 5666 5408 5250 5063 4853 4542 4324 4227 3874 3744 3574 3393 3249 3130 3085 2882 2845 2838 2725 2661 2612 2672 2498 2558 2558 2535 2500 2432 2441 2542 2430 2511 2402 2394 2408 2357 2429 2411 2402 2432 2370 2371 2436 2359 2360 2320 2325 2437 2336 2382 2319 2338 2344 2243 2425 2293 2377 2357 2418 2319 2329 2244 2400 2375 2347 2415 2326 2322 2396 2359 2356 2404 2299 2355 2373 2351 2390 2352 2312 2388 2306 2345 2320 2327 2295 2354 2397 2316 2425 2477 2374 2299 2344 2376 2350 2292 2335 2224 2274 2376 2323 2396 2333 2340 2372 2307 2372 2342 2352 2249 2333 2377 2322 2338 2379 2328 2361 2338 2264 2357 2397 2353 2349 2324 2330 2231 2325 2333 2318 2304 2319 2250 2316 2231 2334 2246 2338 2275 2341 2297 2339 2264 2276 2372 2227 2390 2288 2286 2313 2266 2308 2296 2220 2289 2302 2269 2357 2388 2257 2330 2295 2269 2332 2301 2238 2337 2260 2205 2290 2336 2329 2230 2263 2355 2358 2235 2432 2378 2281 2337 2313 2189 2326 2344 2334 2322 2449 2257 2388 2361 2345 2344 2354 2285 2344 2265 2259 2285 2371 2299 2300 2299 2317 2365 2378 2287 2362 2346 2327 2347 2374 2301 2305 2234 2327 2233 2404 2405 2325 2295 2297 2297 2314 2287 2267 2282 2269 2324 2274 2294 2198 2301 2260 2372 2269 2364 2272 2287 2268 2256 2346 2291 2316 2336 2303 2387 2375 2389 2310 2363 2400 2300 2331 2349 2405 2277 2383 2308 2347 2317 2339 2382 2366 2448 2252 2369 2384 2475 2360 2524 2474 2443 2421 2476 2500 2509 2565 2468 2477 2560 2616 2582 2620 2574 2553 2633 2582 2577 2547 2650 2562 2441 2518 2528 2429 2438 2472 2460 2372 2431 2372 2466 2403 2454 2357 2392 2347 2279 2340 2296 2338 2268 2351 2366 2234 2173 2346 2282 2357 2276 2266 2265 2261 2363 2300 2315 2339 2268 2282 2347 2350 2230 2297 2355 2296 2293 2295 2361 2279 2317 2398 2338 2348 2291 2334 2331 2361 2399 2281 2279 2365 2309 2321 2367 2398 2422 2370 2403 2389 2390 2274 2337 2373 2269 2378 2434 2478 2367 2452 2420 2460 2476 2421 2467 2461 2491 2549 2483 2572 2538 2423 2499 2535 2492 2510 2569 2502 2499 2488 2515 2333 2344 2401 2422 2498 2371 2471 2354 2410 2306 2444 2343 2343 2282 2373 2382 2235 2301 2367 2202 2219 2264 2345 2364 2388 2351 2311 2288 2255 2244 2280 2320 2239 2316 2358 2196 2292 2246 2277 2290 2218 2228 2188 2388 2299 2331 2282 2313 2320 2201 2326 2270 2320 2289 2376 2313 2268 2260 2256 2303 2184 2285 2244 2297 2262 2333 2264 2349 2381 2259 2351 2344 2322 2218 2345 2296 2325 2289 2317 2257 2305 2234 2260 2273 2374 2240 2310 2233 2330 2264 2321 2294 2210 2287 2342 2340 2268 2306 2255 2321 2280 2333 2223 2259 2299 2235 2334 2282 2271 2330 2255 2298 2268 2247 2203 2325 2274 2235 2304 2250 2185 2204 2255 2322 2288 2213 2298 2268 2253 2307 2318 2285 2311 2317 2226 2288 2339 2274 2315 2292 2294 2261 2265 2338 2281 2402 2278 2371 2294 2291 2270 2340 2251 2255 2274 2358 2262 2362 2306 2361 2212 2205 2261 2265 2329 2345 2312 2255 2232 2258 2278 2246 2307 2280 2340 2317 2225 2260 2340 2319 2312 2236 2272 2316 2294 2324 2321 2352 2375 2301 2354 2260 2244 2262 2290 2358 2269 2311 2314 2317 2336 2257 2310 2269 2249 2243 2337 2155 2269 2319 2236 2369 2274 2296 2309 2294 2298 2254 2321 2319 2301 2273 2326 2216 2254 2357 2258 2273 2359 2312 2284 2401 2312 2259 2259 2325 2298 2268 2251 2381 2276 2274 2337 2210 2393 2282 2385 2320 2309 2277 2263 2395 2433 2235 2271 2230 2309 2193 2358 2260 2253 2259 2392 2261 2282 2220 2370 2248 2357 2386 2215 2365 2394 2296 2235 2280 2261 2275 2244 2252 2226 2319 2343 2278 2281 2203 2282 2304 2305 2336 2273 2350 2251 2305 2285 2318 2350 2368 2311 2291 2252 2314 2310 2350 2359 2365 2304 2331 2352 2283 2321 2296 2325 2355 2426 2381 2314 2404 2338 2355 2389 2361 2431 2249 2343 2396 2425 2422 2448 2445 2377 2431 2356 2426 2501 2429 2393 2415 2460 2468 2411 2444 2448 2354 2499 2403 2306 2416 2329 2467 2382 2438 2403 2354 2315 2341 2321 2360 2365 2382 2264 2315 2347 2262 2370 2336 2269 2332 2424 2335 2277 2274 2361 2220 2370 2330 2321 2370 2236 2315 2304 2331 2314 2287 2262 2333 2268 2329 2220 2286 2463 2248 2328 2244 2341 2295 2276 2358 2269 2229 2276 2361 2328 2294 2360 2363 2344 2318 2330 2335 2240 2302 2314 2273 2220 2318 2314 2230 2322 2245 2257 2246 2288 2331 2347 2344 2361 2265 2241 2256 2286 2245 2255 2300 2323 2223 2327 2309 2240 2305 2281 2270 2282 2282 2374 2230 2256 2254 2235 2297 2255 2342 2229 2308 2260 2285 2236 2342 2218 2322 2264 2275 2338 2286 2333 2360 2206 2286 2342 2152 2354 2193 2321 2340 2326 2276 2242 2338 2293 2260 2320 2378 2267 2343 2306 2390 2303 2358 2314 2323 2311 2285 2287 2284 2322 2298 2299 2373 2283 2282 2318 2198 2354 2198 2259 2365 2123 2424 2313 2369 2340 2277 2264 2301 2283 2308 2371 2353 2315 2239 2223 2334 2271 2239 2276 2246 2251 2379 2311 2233 2209 2305 2363 2327 2312 2257 2294 2325 2275 2239 2332 2290 2347 2295 2348 2361 2354 2402 2473 2353 2443 2305 2336 2431 2378 2288 2432 2489 2372 2411 2317 2416 2510 2430 2396 2521 2409 2506 2505 2581 2562 2568 2506 2525 2564 2706 2611 2584 2604 2709 2666 2577 2626 2810 2712 2743 2792 2765 2721 2663 2792 2844 2712 2760 2891 2802 2861 2883 2853 2913 2875 2837 2903 2964 2911 2840 2942 2954 2880 2940 2844 2841 2843 2806 2891 2785 2675 2763 2736 2612 2672 2540 2659 2631 2611 2428 2493 2596 2385 2495 2459 2415 2434 2345 2399 2352 2465 2359 2380 2358 2354 2352 2338 2323 2380 2324 2395 2332 2302 2311 2323 2266 2347 2336 2328 2242 2317 2292 2296 2383 2342 2352 2275 2382 2333 2314 2330 2330 2241 2229 2249 2242 2289 2324 2357 2330 2237 2305 2378 2260 2331 2331 2333 2283 2323 2246 2245 2326 2251 2278 2271 2337 2340 2298 2333 2255 2359 2326 2272 2271 2307 2303 2292 2384 2296 2238 2270 2344 2313 2328 2338 2432 2254 2306 2350 2285 2302 2255 2315 2416 2401 2297 2305 2285 2412 2303 2307 2356 2221 2255 2230 2331 2287 2390 2332 2365 2242 2357 2338 2393 2277 2306 2314 2368 2286 2264 2273 2330 2322 2363 2201 2329 2304 2272 2272 2338 2304 2378 2319 2254 2277 2356 2294 2223 2327 2389 2250 2348 2290 2317 2414 2328 2269 2426 2313 2362 2319 2357 2422 2343 2316 2233 2387 2370 2364 2385 2342 2185 2281 2266 2291 2285 2257 2386 2301 2301 2362 2357 2300 2329 2333 2320 2298 2287 2299 2344 2376 2263 2334 2312 2348 2399 2313 2368 2295 2325 2331 2379 2293 2338 2374 2344 2371 2384 2356 2402 2400 2357 2331 2339 2328 2426 2382 2349 2333 2241 2347 2323 2338 2331 2302 2357 2394 2464 2339 2323 2377 2388 2387 2349 2310 2346 2370 2432 2516 2327 2404 2331 2392 2247 2334 2350 2326 2299 2278 2363 2301 2351 2327 2293 2435 2387 2418 2388 2262 2233 2336 2381 2390 2302 2381 2346 2318 2381 2339 2305 2302 2204 2265 2413 2333 2387 2423 2409 2367 2349 2371 2369 2266 2394 2310 2427 2413 2334 2335 2286 2311 2408 2369 2392 2276 2375 2326 2354 2385 2361 2310 2373 2354 2415 2383 2358 2408 2369 2334 2303 2389 2387 2337 2332 2377 2361 2368 2417 2369 2435 2362 2348 2376 2409 2413 2424 2415 2383 2394 2455 2540 2468 2430 2479 2530 2566 2555 2511 2601 2540 2565 2517 2695 2601 2713 2791 2747 2763 2883 2804 2805 3000 2937 3053 3054 3042 3027 3195 3183 3271 3355 3477 3447 3691 3784 3886 3782 4058 4123 4265 4472 4483 4623 4616 4773 4811 4829 5050 4927 5175 5111 5042 5085 4987 4906 5048 4914 4749 4822 4576 4556 4527 4394 4316 4233 4154 3964 3903 3826 3828 3841 3656 3502 3507 3416 3454 3321 3205 3307 3303 3175 3114 3152 3067 3008 3014 3171 2900 3033 3013 2888 2824 2796 2876 2819 2670 2765 2736 2677 2736 2590 2603 2583 2599 2457 2466 2526 2492 2467 2539 2416 2529 2463 2394 2416 2380 2376 2335 2370 2399 2465 2466 2362 2485 2259 2340 2411 2390 2336 2406 2416 2334 2294 2376 2355 2323 2336 2442 2381 2326 2314 2310 2420 2285 2420 2370 2323 2318 2360 2299 2299 2374 2278 2312 2431 2339 2300 2291 2250 2272 2367 2315 2347 2325 2349 2347 2323 2353 2358 2296 2309 2312 2328 2292 2317 2341 2348 2315 2346 2384 2350 2431 2332 2272 2345 2394 2304 2306 2315 2353 2318 2351 2379 2329 2310 2239 2311 2408 2335 2382 2343 2364 2483 2376 2347 2294 2381 2305 2295 2331 2285 2315 2317 2374 2311 2382 2309 2342 2344 2411 2289 2329 2364 2361 2390 2317 2396 2402 2368 2314 2384 2405 2289 2246 2388 2355 2292 2358 2388 2391 2404 2505 2364 2376 2417 2415 2400 2399 2460 2478 2498 2523 2508 2456 2550 2626 2499 2562 2532 2552 2554 2585 2516 2500 2610 2685 2663 2707 2568 2698 2697 2694 2685 2679 2756 2723 2760 2668 2671 2618 2732 2744 2796 2732 2703 2801 2681 2677 2710 2661 2649 2708 2632 2637 2686 2632 2693 2631 2674 2523 2594 2629 2624 2658 2604 2628 2616 2623 2602 2545 2503 2600 2522 2558 2514 2511 2554 2501 2460 2498 2553 2544 2504 2461 2448 2462 2492 2380 2437 2545 2418 2367 2382 2433 2513 2371 2467 2400 2431 2438 2435 2367 2397 2442 2480 2402 2355 2382 2415 2436 2422 2516 2364 2347 2314 2445 2385 2400 2392 2352 2417 2464 2318 2358 2327 2404 2420 2408 2407 2458 2402 2408 2347 2378 2463 2367 2381 2379 2349 2438 2334 2368 2283 2324 2360 2423 2281 2422 2312 2348 2438 2289 2386 2359 2356 2359 2366 2291 2416 2458 2289 2332 2383 2321 2324 2252 2295 2276 2318 2403 2380 2298 2260 2250 2295 2282 2334 2397 2275 2320 2300 2280 2345 2226 2314 2341 2305 2372 2324 2362 2347 2278 2387 2343 2261 2287 2281 2354 2389 2315 2414 2321 2314 2278 2345 2320 2317 2248 2383 2335 2344 2327 2351 2339 2276 2362 2333 2284 2365 2267 2348 2372 2370 2294 2302 2248 2261 2321 2448 2364 2278 2310 2265 2322 2397 2360 2315 2320 2356 2250 2298 2377 2317 2315 2207 2252 2341 2232 2403 2366 2342 2258 2364 2330 2353 2299 2279 2309 2303 2251 2289 2286 2338 2320 2373 2261 2291 2281 2239 2283 2335 2285 2297 2299 2317 2315 2261 2312 2313 2321 2307 2335 2348 2324 2349 2279 2324 2348 2229 2306 2369 2361 2403 2261 2335 2369 2308 2320 2248 2350 2357 2321 2342 2364 2263 2196 2382 2305 2295 2329 2299 2296 2343 2379 2251 2379 2294 2319 2354 2306 2268 2252 2203 2357 2318 2307 2366 2314 2289 2353 2334 2357 2336 2273 2385 2329 2294 2265 2320 2349 2339 2327 2298 2407 2260 2294 2254 2336 2336 2297 2251 2276 2357 2342 2403 2241 2342 2211 2346 2332 2289 2308 2335 2276 2337 2407 2364 2226 2292 2231 2303 2309 2253 2277 2394 2281 2312 2250 2376 2311 2360 2246 2197 2318 2297 2330 2240 2348 2410 2326 2291 2303 2321 2371 2338 2319 2307 2275 2374 2277 2416 2294 2368 2392 2379 2422 2395 2360 2411 2401 2286 2416 2373 2364 2417 2411 2404 2405 2389 2421 2363 2312 2421 2368 2444 2327 2311 2394 2354 2356 2366 2433 2386 2250 2330 2405 2388 2415 2301 2429 2389 2345 2383 2301 2351 2438 2316 2292 2326 2462 2291 2334 2378 2305 2415 2347 2338 2393 2315 2327 2323 2318 2298 2337 2331 2340 2378 2334 2340 2373 2235 2340 2270 2304 2309 2311 2246 2331 2377 2273 2280 2315 2275 2368 2361 2265 2340 2230 2226 2412 2356 2316 2302 2322 2230 2336 2304 2331 2278 2295 2341 2374 2363 2268 2342 2328 2356 2350 2286 2322 2325 2347 2274 2364 2262 2291 2370 2338 2313 2369 2327 2301 2350 2334 2352 2364 2276 2280 2382 2243 2386 2262 2348 2334 2427 2353 2295 2276 2353 2320 2325 2378 2315 2349 2342 2203 2388 2389 2378 2401 2352 2295 2343 2239 2402 2361 2397 2388 2353 2360 2372 2311 2393 2358 2424 2339 2454 2295 2396 2305 2426 2354 2444 2350 2403 2418 2432 2429 2375 2344 2299 2428 2371 2414 2368 2420 2323 2326 2344 2407 2435 2347 2338 2282 2368 2333 2359 2423 2377 2388 2393 2419 2353 2394 2311 2391 2457 2464 2404 2398 2439 2346 2504 2408 2371 2365 2456 2399 2460 2382 2383 2302 2389 2483 2439 2471 2386 2384 2428 2523 2402 2395 2385 2341 2380 2372 2461 2466 2489 2444 2483 2489 2531 2450 2465 2338 2473 2465 2364 2453 2476 2443 2523 2509 2423 2514 2446 2529 2552 2551 2515 2537 2540 2508 2498 2482 2595 2496 2556 2551 2516 2584 2529 2674 2695 2534 2531 2471 2534 2664 2506 2521 2580 2555 2533 2519 2520 2529 2580 2611 2616 2536 2650 2598 2594 2597 2517 2522 2588 2506 2585 2589 2546 2525 2510 2514 2493 2509 2471 2641 2424 2435 2439 2483 2404 2522 2427 2372 2501 2386 2382 2421 2343 2459 2351 2362 2358 2374 2368 2310 2434 2332 2455 2394 2385 2314 2259 2327 2390 2343 2411 2351 2295 2318 2338 2319 2339 2347 2455 2301 2329 2316 2354 2332 2391 2141 2367 2326 2320 2323 2409 2291 2373 2327 2331 2254 2372 2296 2345 2286 2345 2317 2323 2250 2328 2325 2337 2308 2288 2367 2238 2333 2300 2448 2412 2378 2373 2283 2353 2359 2265 2354 2387 2400 2283 2336 2386 2273 2318 2361 2247 2315 2380 2313 2306 2363 2231 2354 2317 2349 2334 2370 2345 2437 2335 2250 2378 2315 2309 2311 2371 2324 2366 2369 2299 2265 2338 2342 2287 2262 2398 2272 2292 2277 2353 2386 2287 2255 2383 2345 2215 2376 2325 2334 2279 2359 2334 2328 2319 2392 2306 2453 2407 2302 2282 2264 2218 2317 2333 2365 2278 2347 2225 2320 2303 2424 2291 2363 2374 2333 2283 2380 2376 2322 2276 2347 2400 2342 2276 2379 2379 2257 2392 2383 2424 2302 2371 2426 2341 2294 2414 2303 2302 2326 2353 2341 2357 2370 2382 2388 2335 2371 2363 2397 2435 2401 2403 2490 2381 2374 2388 2368 2361 2494 2532 2459 2464 2458 2396 2475 2463 2495 2486 2567 2637 2559 2597 2607 2610 2624 2689 2627 2683 2676 2756 2756 2714 2830 2892 2907 2949 2811 2986 3001 3054 2991 3037 2903 3115 3032 2978 3054 2966 3045 2972 2953 2933 3012 3045 3027 3008 2957 3028 3021 2988 2985 2880 2938 2994 2879 2815 2830 2718 2820 2747 2797 2748 2805 2727 2705 2648 2572 2793 2710 2627 2571 2625 2576 2619 2558 2586 2472 2578 2486 2483 2566 2621 2517 2487 2417 2507 2409 2462 2466 2521 2373 2438 2436 2444 2435 2448 2401 2471 2375 2443 2371 2445 2371 2319 2463 2372 2287 2349 2268 2339 2441 2301 2406 2336 2329 2296 2368 2315 2314 2241 2298 2343 2358 2376 2352 2371 2322 2258 2428 2316 2338 2378 2380 2302 2329 2426 2398 2356 2402 2335 2346 2296 2307 2257 2443 2395 2320 2357 2346 2351 2371 2369 2396 2256 2328 2413 2333 2357 2304 2334 2349 2377 2269 2355 2353 2309 2361 2316 2293 2278 2307 2334 2318 2377 2333 2341 2382 2308 2360 2373 2256 2297 2278 2382 2289 2329 2380 2374 2405 2464 2309 2283 2285 2381 2348 2344 2373 2416 2330 2377 2340 2300 2370 2516 2471 2442 2360 2471 2539 2482 2443 2446 2349 2436 2468 2495 2522 2523 2478 2586 2525 2574 2564 2596 2619 2545 2616 2625 2655 2633 2586 2569 2579 2599 2678 2612 2582 2586 2588 2519 2517 2563 2533 2474 2565 2594 2568 2619 2517 2476 2527 2470 2451 2499 2573 2361 2457 2322 2440 2483 2438 2444 2453 2437 2433 2449 2386 2375 2324 2415 2391 2421 2431 2418 2465 2414 2485 2447 2420 2408 2471 2410 2353 2455 2436 2382 2452 2357 2405 2382 2343 2345 2315 2428 2283 2304 2432 2475 2361 2450 2409 2462 2406 2308 2390 2371 2417 2380 2480 2461 2359 2335 2378 2322 2447 2298 2389 2337 2369 2279 2333 2290 2241 2335 2365 2346 2298 2326 2272 2392 2315 2311 2381 2286 2406 2287 2326 2399 2378 2336 2263 2300 2374 2349 2299 2332 2384 2352 2310 2390 2321 2416 2342 2343 2312 2389 2337 2360 2287 2413 2269 2330 2366 2283 2311 2305 2433 2358 2283 2282 2328 2263 2340 2365 2345 2296 2336 2348 2399 2349 2331 2264 2345 2231 2367 2315 2327 2352 2337 2347 2317 2351 2417 2308 2286 2371 2279 2391 2303 2361 2301 2301 2329 2328 2416 2366 2422 2338 2247 2344 2300 2281 2347 2378 2396 2303 2310 2407 2286 2279 2393 2383 2312 2311 2325 2384 2326 2230 2380 2332 2352 2400 2377 2368 2302 2351 2315 2293 2364 2376 2276 2299 2318 2450 2302 2238 2296 2310 2390 2320 2341 2347 2364 2321 2393 2335 2281 2412 2264 2329 2344 2377 2382 2367 2295 2393 2319 2285 2315 2347 2379 2352 2333 2282 2339 2353 2329 2391 2335 2237 2343 2347 2304 2315 2269 2416 2274 2405 2347 2315 2318 2366 2329 2369 2376 2362 2395 2249 2261 2365 2346 2301 2333 2339 2338 2364 2340 2318 2416 2346 2353 2287 2347 2289 2300 2280 2305 2337 2390 2408 2283 2360 2376 2359 2357 2393 2288 2449 2273 2404 2375 2460 2404 2334 2404 2425 2377 2324 2397 2317 2302 2374 2476 2398 2402 2349 2319 2456 2417 2386 2449 2396 2417 2371 2486 2439 2401 2344 2315 2342 2436 2439 2378 2356 2329 2473 2380 2393 2348 2433 2388 2320 2384 2297 2401 2358 2372 2418 2336 2302 2268 2399 2352 2420 2345 2436 2393 2371 2372 2349 2377 2385 2334 2375 2296 2370 2322 2323 2300 2387 2358 2377 2352 2331 2241 2442 2303 2339 2415 2351 2375 2331 2376 2376 2368 2276 2317 2333 2389 2266 2321 2258 2322 2311 2329 2437 2276 2303 2418 2423 2358 2289 2311 2355 2281 2338 2461 2343 2322 2401 2414 2371 2385 2395 2334 2386 2341 2343 2473 2322 2394 2348 2341 2307 2307 2240 2317 2336 2258 2402 2331 2323 2360 2312 2334 2294 2325 2374 2251 2241 2415 2379 2342 2216 2281 2354 2406 2348 2372 2373 2284 2304 2356 2440 2340 2435 2260 2351 2352 2399 2373 2368 2329 2266 2380 2374 2394 2322 2284 2292 2300 2426 2383 2347 2363 2479 2460 2371 2404 2377 2370 2316 2377 2318 2333 2395 2349 2288 2320 2366 2414 2426 2346 2395 2422 2432 2387 2336 2478 2416 2387 2420 2295 2416 2462 2422 2473 2399 2483 2453 2387 2439 2413 2452 2397 2469 2455 2475 2480 2418 2454 2412 2483 2428 2458 2508 2543 2407 2402 2498 2436 2456 2492 2572 2423 2535 2453 2467 2487 2422 2366 2460 2378 2394 2477 2526 2429 2401 2498 2431 2306 2510 2368 2393 2323 2399 2424 2418 2405 2394 2437 2369 2448 2402 2342 2442 2272 2352 2374 2388 2406 2355 2460 2372 2409 2341 2315 2331 2373 2388 2351 2362 2397 2408 2409 2348 2387 2297 2326 2405 2367 2385 2294 2271 2358 2325 2316 2354 2320 2491 2257 2293 2359 2323 2373 2355 2407 2308 2378 2353 2381 2356 2446 2339 2332 2279 2344 2367 2323 2317 2327 2296 2437 2394 2402 2336 2346 2350 2435 2364 2375 2296 2320 2351 2297 2304 2381 2358 2361 2348 2378 2348 2399 2364 2299 2335 2345 2351 2235 2294 2353 2383 2369 2391 2302 2305 2265 2324 2329 2334 2293 2382 2338 2340 2240 2351 2281 2306 2369 2298 2320 2402 2265 2319 2340 2323 2437 2333 2360 2322 2362 2360 2386 2350 2341 2317 2337 2349 2365 2403 2295 2349 2253 2470 2319 2262 2339 2409 2322 2398 2298 2345 2351 2326 2433 2338 2372 2434 2406 2432 2272 2415 2354 2344 2404 2284 2380 2462 2367 2395 2318 2298 2295 2421 2408 2337 2383 2420 2335 2298 2336 2342 2392 2367 2239 2391 2380 2400 2359 2386 2362 2376 2358 2356 2382 2402 2327 2464 2357 2391 2356 2405 2380 2366 2265 2377 2417 2439 2354 2373 2352 2383 2432 2352 2364 2426 2300 2353 2345 2348 2393 2396 2400 2332 2466 2409 2405 2393 2396 2420 2408 2361 2388 2462 2348 2455 2437 2512 2360 2494 2427 2354 2432 2479 2509 2378 2457 2324 2471 2416 2504 2426 2408 2410 2420 2470 2530 2471 2376 2479 2437 2438 2484 2371 2444 2402 2525 2452 2361 2475 2462 2408 2430 2499 2523 2499 2486 2454 2391 2504 2537 2454 2511 2530 2545 2573 2425 2554 2464 2595 2588 2652 2542 2534 2548 2595 2586 2607 2568 2648 2594 2626 2613 2606 2480 2498 2639 2613 2541 2556 2661 2598 2498 2588 2541 2470 2491 2601 2534 2511 2503 2550 2524 2480 2522 2455 2491 2436 2483 2454 2460 2480 2444 2435 2408 2390 2355 2439 2341 2410 2396 2404 2340 2408 2426 2291 2364 2449 2365 2286 2368 2441 2375 2345 2300 2428 2448 2464 2366 2429 2407 2336 2387 2418 2355 2337 2431 2296 2356 2472 2454 2440 2338 2445 2381 2344 2350 2403 2390 2394 2280 2326 2304 2413 2338 2427 2447 2345 2430 2396 2408 2354 2294 2331 2338 2446 2420 2390 2446 2345 2334 2376 2390 2305 2396 2291 2370 2454 2437 2283 2326 2333 2279 2319 2408 2331 2296 2416 2350 2296 2391 2361 2361 2428 2334 2324 2347 2434 2330 2368 2384 2440 2314 2351 2352 2390 2381 2447 2433 2332 2389 2339 2371 2337 2348 2366 2376 2439 2391 2379 2476 2417 2434 2338 2421 2370 2289 2404 2346 2346 2345 2373 2423 2437 2333 2416 2373 2397 2390 2434 2409 2351 2393 2383 2314 2410 2351 2419 2325 2460 2300 2424 2322 2340 2286 2368 2430 2353 2311 2359 2396 2217 2363 2306 2445 2354 2354 2444 2403 2335 2405 2439 2420 2355 2362 2367 2454 2316 2400 2415 2333 2353 2386 2380 2305 2435 2286 2377 2322 2340 2402 2322 2419 2430 2326 2361 2345 2424 2364 2409 2369 2358 2398 2386 2366 2408 2373 2387 2394 2398 2328 2336 2347 2391 2365 2494 2374 2289 2358 2372 2351 2397 2437 2432 2361 2418 2358 2300 2304 2362 2443 2501 2410 2382 2334 2369 2330 2369 2405 2367 2393 2388 2365 2398 2246 2326 2315 2413 2347 2386 2318 2400 2322 2412 2336 2375 2407 2347 2371 2368 2403 2311 2384 2362 2436 2319 2454 2453 2308 2348 2394 2252 2311 2315 2398 2375 2429 2380 2500 2400 2383 2330 2397 2366 2346 2358 2343 2450 2386 2351 2450 2384 2436 2436 2383 2424 2345 2459 2376 2308 2357 2411 2397 2350 2358 2302 2265 2354 2357 2371 2508 2369 2381 2374 2368 2348 2362 2327 2346 2355 2366 2353 2379 2243 2412 2377 2377 2372 2386 2369 2345 2336 2447 2419 2371 2386 2291 2469 2335 2331 2371 2408 2397 2453 2366 2364 2398 2381 2406 2313 2423 2405 2401 2437 2309 2345 2368 2395 2330 2346 2300 2488 2451 2284 2318 2378 2403 2439 2398 2390 2409 2385 2401 2415 2398 2440 2414 2438 2371 2423 2414 2313 2380 2373 2384 2436 2275 2378 2391 2427 2365 2402 2453 2368 2412 2367 2351 2379 2403 2373 2465 2388 2377 2360 2410 2515 2355 2336 2358 2428 2396 2420 2404 2385 2383 2430 2403 2395 2400 2332 2336 2428 2326 2362 2350 2366 2338 2380 2416 2422 2427 2411 2455 2411 2377 2325 2368 2348 2482 2338 2351 2331 2416 2470 2329 2402 2410 2311 2456 2329 2386 2289 2263 2242 2311 2430 2387 2471 2409 2379 2259 2310 2351 2391 2433 2403 2366 2273 2407 2357 2472 2355 2341 2326 2354 2409 2322 2338 2337 2330 2398 2384 2360 2396 2321 2398 2381 2372 2400 2385 2348 2366 2473 2444 2401 2349 2319 2374 2246 2348 2389 2453 2425 2415 2406 2379 2377 2423 2429 2403 2400 2369 2403 2304 2309 2341 2474 2368 2368 2426 2383 2435 2404 2341 2466 2398 2379 2413 2398 2480 2406 2347 2394 2429 2385 2480 2358 2360 2379 2457 2449 2350 2408 2445 2439 2340 2451 2378 2455 2350 2399 2380 2475 2413 2360 2365 2300 2428 2356 2346 2425 2439 2402 2454 2357 2368 2406 2396 2362 2446 2326 2415 2450 2505 2458 2402 2399 2389 2396 2396 2470 2493 2324 2421 2399 2507 2450 2329 2445 2429 2350 2505 2446 2436 2423 2427 2486 2435 2556 2518 2422 2407 2517 2397 2512 2444 2528 2476 2429 2507 2487 2482 2502 2549 2514 2471 2527 2511 2476 2430 2435 2477 2520 2469 2596 2443 2373 2359 2449 2490 2411 2489 2442 2522 2495 2465 2423 2491 2490 2445 2443 2494 2544 2440 2427 2429 2491 2500 2506 2510 2499 2441 2526 2486 2468 2523 2409 2426 2556 2531 2489 2522 2481 2514 2470 2604 2560 2496 2537 2505 2559 2564 2532 2491 2489 2439 2575 2459 2532 2494 2483 2569 2556 2483 2500 2502 2411 2471 2555 2469 2483 2468 2411 2461 2510 2555 2472 2407 2297 2491 2397 2408 2440 2428 2454 2407 2488 2438 2496 2458 2456 2464 2495 2393 2428 2414 2492 2464 2405 2416 2399 2360 2419 2448 2422 2464 2479 2406 2419 2439 2424 2402 2443 2387 2403 2482 2433 2452 2456 2359 2391 2438 2455 2453 2344 2445 2359 2323 2531 2381 2336 2438 2464 2406 2424 2399 2407 2450 2475 2371 2405 2498 2475 2425 2359 2393 2396 2324 2367 2399 2396 2361 2496 2421 2393 2389 2364 2332 2469 2376 2490 2436 2354 2400 2400 2387 2416 2399 2358 2412 2420 2458 2500 2413 2440 2370 2404 2464 2420 2408 2422 2378 2431 2439 2370 2462 2342 2327 2395 2440 2497 2457 2366 2358 2397 2357 2475 2369 2407 2372 2445 2487 2430 2419 2321 2447 2358 2387 2431 2481 2439 2598 2369 2474 2357 2465 2443 2425 2469 2373 2457 2407 2486 2467 2387 2421 2404 2349 2441 2452 2452 2467 2440 2423 2391 2508 2463 2505 2475 2541 2476 2527 2473 2452 2541 2512 2509 2510 2478 2476 2566 2555 2520 2607 2571 2546 2582 2528 2595 2699 2630 2646 2657 2679 2666 2738 2703 2620 2731 2677 2724 2734 2652 2734 2766 2612 2652 2766 2756 2728 2730 2730 2693 2726 2743 2748 2717 2800 2712 2839 2888 2895 2815 2759 2835 2900 2836 2870 2844 2867 2860 2878 2842 2859 2814 2789 2895 2878 2891 2856 2816 2889 2794 2841 2834 2841 2757 2803 2863 2824 2806 2796 2847 2829 2776 2854 2830 2784 2695 2660 2834 2786 2713 2771 2818 2698 2796 2655 2739 2783 2641 2814 2737 2762 2634 2656 2613 2646 2632 2580 2626 2503 2529 2556 2622 2576 2504 2560 2602 2545 2553 2567 2543 2467 2513 2483 2561 2451 2491 2407 2503 2441 2513 2470 2508 2435 2563 2558 2423 2464 2457 2456 2450 2466 2543 2431 2498 2405 2407 2411 2494 2526 2494 2399 2525 2403 2390 2493 2459 2409 2364 2385 2440 2420 2369 2389 2359 2457 2472 2496 2455 2456 2430 2475 2357 2459 2382 2498 2452 2398 2470 2467 2438 2427 2459 2480 2429 2483 2489 2472 2477 2402 2414 2382 2361 2446 2456 2485 2465 2521 2413 2424 2393 2458 2522 2368 2356 2497 2525 2433 2512 2419 2517 2498 2452 2442 2523 2447 2540 2376 2414 2495 2423 2445 2371 2466 2449 2501 2493 2499 2432 2372 2460 2484 2439 2533 2379 2421 2595 2476 2537 2500 2455 2532 2470 2428 2386 2413 2441 2443 2454 2441 2556 2480 2410 2439 2482 2602 2476 2437 2465 2448 2569 2519 2502 2456 2475 2533 2542 2440 2526 2433 2497 2437 2414 2425 2534 2478 2497 2580 2471 2462 2502 2435 2454 2535 2412 2498 2472 2497 2452 2441 2444 2374 2395 2388 2439 2456 2391 2419 2422 2411 2409 2415 2410 2429 2487 2432 2498 2357 2486 2423 2432 2484 2398 2511 2438 2488 2406 2402 2487 2353 2454 2386 2475 2491 2466 2472 2437 2323 2371 2594 2450 2508 2437 2420 2454 2473 2470 2421 2507 2400 2395 2440 2430 2444 2440 2466 2380 2403 2360 2440 2423 2422 2499 2499 2493 2395 2551 2433 2401 2471 2468 2435 2484 2497 2437 2379 2431 2494 2356 2439 2459 2467 2367 2427 2417 2460 2398 2367 2464 2445 2380 2330 2373 2438 2449 2380 2372 2568 2401 2500 2427 2486 2427 2588 2456 2514 2409 2502 2367 2370 2352 2426 2405 2416 2363 2460 2375 2481 2381 2401 2484 2399 2461 2321 2438 2469 2484 2442 2436 2487 2509 2349 2421 2579 2361 2433 2481 2428 2434 2449 2411 2436 2333 2399 2394 2432 2452 2411 2350 2448 2367 2407 2378 2325 2432 2371 2356 2400 2367 2470 2370 2445 2441 2330 2432 2374 2397 2440 2419 2388 2403 2477 2540 2523 2406 2479 2425 2401 2464 2425 2358 2435 2381 2383 2404 2451 2430 2353 2458 2431 2437 2428 2490 2405 2486 2381 2439 2432 2431 2475 2455 2478 2488 2460 2390 2546 2413 2475 2449 2484 2448 2404 2550 2430 2500 2470 2466 2468 2454 2379 2408 2484 2431 2528 2433 2422 2453 2411 2517 2335 2465 2493 2456 2373 2386 2441 2464 2449 2460 2380 2509 2447 2462 2464 2408 2450 2451 2370 2405 2458 2376 2466 2395 2420 2433 2452 2406 2469 2477 2306 2380 2482 2445 2493 2455 2359 2462 2392 2378 2415 2483 2507 2324 2380 2401 2429 2431 2343 2395 2355 2278 2375 2504 2375 2528 2440 2543 2355 2419 2503 2334 2410 2418 2419 2473 2389 2430 2459 2447 2393 2488 2436 2417 2464 2438 2491 2500 2466 2446 2444 2461 2408 2443 2553 2479 2431 2443 2473 2422 2445 2440 2413 2365 2515 2523 2423 2420 2474 2460 2385 2487 2412 2468 2476 2512 2524 2417 2430 2346 2362 2482 2435 2418 2390 2410 2412 2436 2424 2453 2465 2441 2440 2449 2501 2483 2426 2462 2443 2409 2453 2476 2482 2453 2417 2495 2427 2385 2520 2385 2510 2550 2459 2427 2454 2561 2451 2379 2417 2480 2387 2463 2515 2482 2474 2481 2499 2453 2515 2585 2528 2341 2472 2441 2395 2373 2464 2378 2491 2412 2454 2480 2503 2366 2455 2506 2358 2476 2510 2582 2452 2468 2504 2431 2451 2423 2493 2454 2503 2504 2466 2567 2626 2391 2492 2372 2445 2469 2505 2435 2385 2447 2450 2401 2592 2498 2463 2393 2495 2429 2469 2549 2498 2466 2530 2479 2453 2432 2396 2512 2458 2501 2474 2509 2494 2452 2443 2480 2471 2475 2509 2460 2440 2480 2492 2400 2541 2454 2380 2510 2511 2428 2465 2460 2469 2468 2529 2561 2374 2522 2436 2558 2453 2466 2424 2557 2508 2440 2430 2394 2461 2469 2429 2620 2417 2399 2486 2480 2453 2373 2438 2398 2388 2520 2422 2475 2414 2425 2470 2397 2414 2427 2433 2418 2501 2449 2530 2413 2396 2454 2451 2436 2440 2547 2350 2474 2373 2503 2508 2424 2456 2395 2375 2385 2480 2518 2457 2393 2456 2538 2550 2484 2437 2467 2498 2452 2459 2403 2429 2393 2464 2467 2494 2480 2416 2457 2447 2388 2474 2460 2460 2385 2461 2405 2430 2437 2476 2502 2527 2411 2354 2483 2451 2356 2405 2467 2318 2469 2460 2443 2551 2447 2441 2494 2439 2395 2403 2539 2507 2395 2394 2449 2524 2493 2480 2355 2432 2419 2475 2474 2362 2420 2538 2520 2448 2516 2429 2394 2447 2410 2404 2414 2529 2513 2404 2323 2435 2559 2406 2448 2461 2436 2420 2499 2376 2472 2453 2391 2476 2353 2487 2401 2453 2421 2447 2507 2489 2423 2490 2473 2417 2467 2393 2503 2419 2466 2497 2544 2588 2487 2440 2599 2423 2520 2507 2541 2521 2506 2501 2468 2503 2537 2472 2527 2534 2521 2593 2613 2583 2558 2588 2462 2565 2516 2532 2625 2566 2581 2650 2623 2566 2703 2617 2658 2508 2615 2645 2731 2585 2631 2695 2680 2760 2736 2722 2772 2693 2755 2730 2752 2796 2708 2781 2835 2772 2732 2668 2804 2844 2725 2753 2706 2841 2713 2798 2726 2799 2715 2772 2865 2652 2800 2755 2758 2746 2760 2795 2735 2744 2693 2685 2668 2637 2763 2706 2766 2787 2619 2774 2670 2655 2646 2744 2789 2700 2661 2687 2655 2703 2675 2674 2608 2721 2609 2708 2697 2642 2625 2701 2673 2621 2621 2644 2640 2618 2622 2715 2578 2626 2669 2597 2586 2604 2618 2599 2613 2540 2569 2515 2604 2602 2537 2608 2608 2609 2480 2633 2569 2540 2518 2513 2499 2494 2439 2511 2504 2549 2529 2566 2509 2584 2572 2499 2517 2512 2483 2439 2549 2530 2518 2445 2528 2497 2466 2487 2468 2489 2514 2476 2413 2450 2458 2481 2445 2411 2551 2531 2396 2388 2502 2512 2491 2520 2531 2508 2478 2467 2466 2446 2443 2526 2488 2511 2445 2481 2451 2340 2421 2433 2441 2457 2473 2503 2375 2386 2576 2437 2569 2450 2441 2468 2433 2458 2406 2505 2483 2369 2434 2393 2617 2431 2443 2519 2434 2441 2501 2431 2479 2424 2438 2440 2433 2404 2454 2378 2524 2432 2457 2420 2458 2419 2467 2397 2354 2475 2508 2595 2463 2454 2389 2478 2466 2456 2494 2457 2386 2460 2480 2563 2432 2551 2473 2472 2515 2509 2411 2469 2561 2463 2488 2485 2463 2450 2486 2524 2470 2457 2472 2388 2482 2447 2447 2519 2549 2565 2513 2423 2562 2471 2546 2461 2446 2460 2340 2462 2470 2523 2546 2405 2422 2557 2492 2522 2498 2434 2524 2431 2469 2501 2490 2501 2520 2397 2429 2492 2490 2404 2544 2559 2491 2392 2402 2562 2420 2459 2535 2502 2468 2464 2418 2403 2458 2470 2514 2501 2427 2361 2468 2482 2454 2491 2499 2563 2498 2477 2493 2382 2523 2486 2452 2506 2501 2527 2380 2361 2443 2488 2337 2422 2482 2504 2427 2554 2493 2493 2512 2492 2496 2547 2434 2514 2504 2549 2465 2476 2474 2474 2451 2561 2504 2559 2346 2444 2411 2549 2499 2486 2563 2527 2438 2435 2388 2505 2483 2498 2492 2481 2399 2519 2480 2443 2536 2386 2521 2413 2491 2446 2476 2426 2439 2373 2491 2490 2435 2495 2455 2433 2455 2429 2509 2422 2402 2478 2501 2422 2498 2481 2477 2429 2387 2503 2471 2499 2427 2385 2468 2342 2422 2408 2453 2520 2410 2418 2392 2409 2459 2525 2513 2403 2512 2401 2479 2484 2450 2470 2418 2526 2463 2498 2445 2409 2494 2431 2459 2370 2439 2448 2467 2375 2392 2540 2462 2454 2389 2471 2459 2450 2405 2495 2507 2505 2469 2432 2402 2511 2473 2482 2473 2449 2501 2468 2408 2441 2493 2476 2506 2460 2480 2461 2385 2574 2445 2391 2543 2438 2519 2407 2504 2497 2405 2498 2487 2561 2418 2553 2397 2508 2539 2495 2532 2453 2478 2384 2538 2413 2508 2534 2438 2444 2453 2499 2520 2392 2568 2393 2385 2347 2542 2451 2405 2585 2464 2437 2483</counts>
			</dataPoints>
		</scan>
	</xrdMeasurement>
</xrdMeasurements>
