<?xml version="1.0"?>
<xrdMeasurements xmlns="http://www.xrdml.com/XRDMeasurement/2.3" xmlns:xsi="http://www.w3.org/2001/XMLSchema-instance" xsi:schemaLocation="http://www.xrdml.com/XRDMeasurement/2.3 http://www.xrdml.com/XRDMeasurement/2.3/XRDMeasurement.xsd" status="Completed" recordIdentifier="{48111F82-8E98-4F4A-B8E7-F5D79AF64581}">
	<comment>
		<entry/>
	</comment>
	<sample type="To be analyzed">
		<id>GPSS_Li1p4Fe0p2Mg0p6Ta0p2Cl4_122625_694efed0ae15af25ac374c5d</id>
		<name></name>
		<preparedBy></preparedBy>
	</sample>
	<xrdMeasurement measurementType="Scan" status="Completed" sampleMode="Reflection">
		<usedWavelength intended="K-Alpha 1">
			<kAlpha1 unit="Angstrom">1.5405980</kAlpha1>
			<kAlpha2 unit="Angstrom">1.5444260</kAlpha2>
			<kBeta unit="Angstrom">1.3922500</kBeta>
			<ratioKAlpha2KAlpha1>0.5000</ratioKAlpha2KAlpha1>
		</usedWavelength>
		<incidentBeamPath>
			<radius unit="mm">145.00</radius>
			<xRayTube id="1010048" name="Empyrean Cu LFF HR (9430 033 7310x)">
				<tension unit="kV">40.0</tension>
				<current unit="mA">15.0</current>
				<anodeMaterial>Cu</anodeMaterial>
				<focus type="Line">
					<length unit="mm">12.0</length>
					<width unit="mm">0.4</width>
					<takeOffAngle unit="deg">6.0</takeOffAngle>
				</focus>
			</xRayTube>
			<sollerSlit id="21010002" name="Soller slits 0.04 rad.">
				<opening unit="rad">0.0400</opening>
			</sollerSlit>
			<mask id="22031000" name="Fixed mask 13 mm">
				<width unit="mm">9.00</width>
			</mask>
			<divergenceSlit id="22120001" name="Divergence slit 1°" xsi:type="fixedDivergenceSlitType">
				<distanceToSample unit="mm">50.00</distanceToSample>
				<height unit="mm">1.52</height>
			</divergenceSlit>
		</incidentBeamPath>
		<sampleMovement xsi:type="spinningSampleMovementType">
			<spinnerRevolutionTime unit="seconds">1.0</spinnerRevolutionTime>
		</sampleMovement>
		<diffractedBeamPath>
			<radius unit="mm">145.00</radius>
			<antiScatterSlit id="22090040" name="AS slit 9 mm (PIXcel)" xsi:type="fixedAntiScatterSlitType">
				<height unit="mm">9.00</height>
			</antiScatterSlit>
			<sollerSlit id="21020003" name="Large Soller slits 0.04 rad.">
				<opening unit="rad">0.0400</opening>
			</sollerSlit>
			<filter id="20030001" name="Large beta-filter Nickel">
				<material>Ni</material>
				<thickness unit="mm">0.020</thickness>
			</filter>
			<detector id="7010019" name="PIXcel1D-Medipix3 detector" xsi:type="rtmsDetectorType">
				<phd unit="keV">
					<lowerLevel>4.02</lowerLevel>
					<upperLevel>11.27</upperLevel>
				</phd>
				<mode>Scanning</mode>
				<activeLength unit="deg">5.542</activeLength>
			</detector>
		</diffractedBeamPath>
		<scan appendNumber="0" mode="Continuous" scanAxis="Gonio" status="Completed">
			<header>
				<startTimeStamp>2025-12-29T12:42:17-08:00</startTimeStamp>
				<endTimeStamp>2025-12-29T12:50:25-08:00</endTimeStamp>
				<author>
					<name>AutomatedUser</name>
				</author>
				<source>
					<applicationSoftware version="1.7b (136)">PANalytical Aeris Instrument Suite</applicationSoftware>
					<instrumentControlSoftware version="3.2.00000000 20240306">AERIS</instrumentControlSoftware>
					<instrumentID>950485</instrumentID>
				</source>
			</header>
			<dataPoints>
				<positions axis="2Theta" unit="deg">
					<startPosition>10.00943322</startPosition>
					<endPosition>99.99442286</endPosition>
				</positions>
				<positions axis="Omega" unit="deg">
					<startPosition>5.00471661</startPosition>
					<endPosition>49.99721143</endPosition>
				</positions>
				<commonCountingTime unit="seconds">12.495</commonCountingTime>
				<counts unit="counts">3130 3204 3200 3185 3194 3172 3204 3122 3209 3286 3153 3201 3236 3230 3190 3058 3130 3153 3097 3184 3124 3228 3180 3217 3238 3176 3206 3261 3244 3234 3179 3198 3180 3166 3233 3203 3220 3127 3209 3202 3274 3179 3269 3203 3178 3265 3266 3331 3148 3227 3165 3266 3236 3281 3285 3270 3188 3262 3207 3098 3356 3264 3340 3277 3267 3288 3191 3216 3245 3193 3349 3275 3271 3225 3227 3300 3237 3293 3239 3207 3380 3241 3234 3262 3304 3225 3374 3410 3332 3353 3336 3367 3331 3254 3336 3209 3392 3399 3290 3384 3264 3340 3298 3294 3357 3260 3358 3294 3273 3360 3310 3300 3319 3380 3349 3335 3354 3396 3457 3294 3350 3426 3441 3395 3340 3404 3308 3389 3341 3313 3447 3291 3388 3372 3197 3361 3397 3429 3282 3446 3254 3359 3391 3373 3321 3392 3317 3380 3396 3280 3448 3369 3469 3355 3354 3399 3329 3416 3387 3483 3372 3402 3260 3428 3395 3441 3346 3413 3352 3351 3351 3388 3286 3322 3355 3328 3383 3365 3404 3478 3401 3397 3438 3438 3345 3371 3369 3414 3325 3446 3389 3388 3489 3403 3397 3442 3361 3402 3451 3441 3215 3387 3290 3467 3371 3359 3419 3357 3320 3376 3444 3240 3227 3368 3276 3252 3360 3390 3463 3188 3331 3332 3260 3414 3218 3320 3254 3398 3331 3240 3351 3330 3302 3267 3273 3240 3280 3240 3383 3350 3434 3306 3284 3212 3143 3308 3251 3274 3261 3158 3329 3259 3066 3215 3168 3205 3127 3306 3222 3205 3273 3165 3297 3130 3243 3212 3288 3154 3236 3286 3170 3210 3147 3301 3113 3231 3193 3187 3339 3146 3291 3223 3234 3174 3143 3282 3145 3223 3207 3105 3286 3264 3116 3227 3194 3234 3261 3310 3172 3180 3263 3309 3202 3274 3240 3248 3203 3267 3343 3324 3275 3436 3230 3271 3257 3216 3178 3201 3273 3325 3277 3328 3289 3259 3182 3255 3365 3227 3270 3357 3284 3300 3301 3310 3322 3325 3318 3295 3229 3359 3316 3309 3397 3342 3421 3320 3390 3440 3308 3238 3382 3189 3359 3312 3374 3486 3317 3417 3437 3487 3405 3395 3488 3465 3355 3466 3367 3478 3401 3420 3478 3416 3579 3459 3433 3471 3586 3474 3428 3474 3529 3518 3618 3399 3535 3424 3415 3490 3656 3518 3519 3592 3648 3613 3611 3586 3609 3590 3541 3663 3583 3532 3651 3606 3616 3722 3760 3638 3740 3621 3695 3698 3710 3773 3822 3728 3737 3758 3750 3733 3759 3831 3860 3920 3879 3964 3952 3924 4045 4061 4032 4103 4137 4202 4312 4334 4319 4404 4442 4377 4313 4432 4565 4586 4599 4642 4542 4578 4583 4587 4661 4540 4481 4407 4467 4532 4579 4571 4433 4660 4556 4532 4601 4630 4834 4554 4762 4685 4639 4628 4632 4455 4538 4415 4458 4306 4217 4142 4181 4180 4062 4171 4019 4020 4008 3840 4050 3920 3846 3853 3793 3871 3761 3600 3842 3686 3636 3575 3730 3628 3709 3510 3466 3471 3488 3559 3499 3417 3417 3469 3376 3473 3430 3385 3366 3365 3359 3377 3363 3260 3392 3458 3231 3240 3371 3265 3429 3245 3277 3197 3231 3255 3325 3154 3257 3288 3165 3231 3234 3207 3229 3289 3073 3239 3213 3141 3260 3292 3181 3137 3234 3253 3069 3167 3196 3146 3165 3099 3177 3141 3116 3119 3232 3077 3093 3170 3141 3085 3158 3031 3081 3120 3161 3022 3120 3158 3049 3097 3086 3135 2991 3199 3018 3044 3111 2929 3096 3057 3013 2970 3117 3035 3060 3010 2974 3060 2898 3002 2967 2992 2983 2970 3056 3022 3030 3054 2967 2996 2937 2931 2893 2992 3028 2953 2912 3069 2925 2872 3018 2989 2891 2843 2880 2897 2923 2959 2954 2899 2865 3030 2906 2874 2973 2999 2918 2866 2960 2909 2928 2863 2893 2810 2893 3005 2765 2897 2926 2859 2945 2951 2897 2866 2908 2966 2918 2950 2939 2848 2835 2743 2918 2778 2844 2917 2951 2793 2824 2862 2899 2810 2890 2771 2858 2863 2936 2886 2925 2930 2820 2856 2834 2863 2911 2866 2852 2876 2921 2857 2860 2792 2882 2943 2860 2808 2785 2991 2798 2900 2881 2802 2702 2792 2731 2888 2732 2865 2866 2794 2834 2727 2755 2828 2683 2783 2742 2786 2881 2836 2816 2780 2745 2735 2798 2730 2848 2871 2829 2789 2852 2827 2770 2856 2703 2716 2826 2838 2781 2756 2801 2744 2744 2727 2703 2772 2758 2784 2852 2854 2785 2783 2702 2687 2695 2680 2845 2816 2718 2806 2704 2740 2730 2783 2734 2758 2625 2749 2802 2771 2739 2781 2694 2710 2732 2749 2727 2732 2749 2777 2775 2710 2737 2729 2828 2803 2736 2617 2697 2649 2653 2669 2675 2684 2702 2758 2679 2639 2588 2642 2612 2655 2746 2675 2740 2678 2695 2797 2642 2699 2760 2693 2724 2707 2686 2725 2652 2698 2696 2632 2700 2724 2697 2684 2636 2709 2712 2722 2702 2677 2643 2596 2630 2590 2718 2648 2699 2628 2602 2630 2617 2664 2669 2699 2644 2605 2670 2654 2673 2633 2633 2601 2575 2534 2676 2660 2686 2619 2664 2691 2656 2623 2680 2642 2588 2508 2578 2604 2582 2640 2570 2663 2624 2543 2548 2636 2455 2538 2553 2533 2605 2561 2593 2629 2586 2540 2485 2464 2610 2515 2528 2638 2534 2654 2649 2588 2624 2405 2592 2544 2541 2557 2557 2475 2446 2619 2507 2420 2544 2532 2509 2541 2534 2491 2457 2531 2574 2530 2595 2542 2589 2504 2590 2537 2622 2524 2453 2515 2501 2558 2612 2465 2517 2629 2505 2541 2555 2559 2667 2500 2571 2458 2554 2437 2460 2444 2509 2592 2505 2470 2564 2371 2476 2455 2475 2512 2474 2493 2495 2418 2402 2476 2506 2520 2406 2458 2442 2454 2497 2439 2458 2442 2535 2452 2433 2521 2397 2542 2607 2556 2447 2523 2450 2436 2418 2560 2470 2474 2566 2464 2584 2447 2430 2445 2448 2418 2456 2489 2494 2463 2473 2525 2465 2507 2459 2466 2426 2413 2397 2530 2451 2493 2441 2528 2502 2450 2431 2491 2472 2515 2482 2545 2489 2458 2489 2392 2455 2434 2534 2482 2515 2446 2429 2490 2435 2463 2465 2460 2506 2468 2509 2485 2396 2379 2435 2472 2563 2492 2562 2426 2468 2500 2439 2506 2571 2430 2470 2509 2477 2568 2478 2446 2522 2386 2488 2480 2534 2575 2525 2517 2508 2522 2417 2478 2545 2418 2565 2441 2407 2518 2469 2441 2520 2428 2410 2490 2487 2475 2507 2518 2426 2566 2465 2535 2421 2522 2511 2413 2552 2548 2526 2453 2349 2520 2429 2532 2468 2574 2468 2461 2439 2471 2319 2565 2423 2505 2394 2492 2414 2514 2426 2447 2452 2402 2460 2409 2511 2457 2473 2399 2425 2486 2506 2497 2428 2489 2378 2535 2386 2449 2431 2365 2400 2452 2384 2481 2407 2516 2415 2486 2400 2354 2418 2458 2351 2422 2390 2374 2444 2540 2379 2417 2412 2238 2295 2369 2352 2341 2381 2403 2323 2346 2277 2365 2357 2294 2211 2278 2335 2256 2386 2292 2370 2292 2361 2213 2315 2309 2247 2259 2225 2245 2277 2263 2249 2163 2229 2267 2234 2214 2335 2200 2288 2190 2261 2211 2215 2143 2306 2310 2132 2177 2185 2149 2263 2210 2142 2259 2218 2209 2219 2155 2143 2181 2140 2100 2101 2204 2085 2141 2115 2169 2147 2145 2123 2096 2134 2123 2068 2086 2134 2087 2114 2019 2078 2090 2065 2195 2102 2093 2080 2108 2103 2120 2050 2067 2004 1959 2080 2073 2134 2020 1943 2102 2004 2148 2020 2107 2078 2084 1996 1961 2141 2000 1988 1960 1957 2007 2000 2010 2042 1997 2010 1940 1954 2031 1970 1944 1989 2001 1980 1988 1959 1922 1931 1981 2046 2083 1975 1915 1968 1885 2015 2033 1960 1928 1955 1964 1975 1985 2068 2040 1923 1921 1936 1937 1912 1982 1910 2028 1930 2017 1834 1909 1922 1851 1950 1893 1837 1953 1873 1957 1832 1922 1922 1913 1922 1936 1906 1973 1911 1943 1962 1920 1926 1913 1844 1850 1956 1844 1966 1894 1936 1875 1866 1859 1950 1813 1938 1927 1898 1773 1867 1909 1880 1828 1882 1900 1905 1864 1829 1934 1950 1935 1996 1949 1875 1860 1910 1903 1881 2036 1864 1862 1833 1802 1889 1882 1869 1894 1886 1956 1846 1857 1826 1888 1899 1907 1860 1841 1864 2028 1852 1872 1791 1833 1844 1906 1883 1932 1780 1925 1872 1877 1875 1864 1899 1885 1896 1940 1874 1903 1895 1862 1828 1785 1844 1856 1879 1904 1966 1970 1865 1851 1816 1887 1880 1906 1886 1924 1884 1927 1880 1873 1923 1821 1909 1876 1930 1897 1919 1946 1849 1991 1880 1769 1902 1854 1927 1915 1851 1866 1826 1871 1844 1915 1984 1909 1868 1915 1871 1929 1925 1923 1908 1894 1926 1853 1960 1944 1793 1921 1868 1930 1827 1923 1817 1883 1890 1861 1911 1941 1894 1859 1802 1899 1826 1853 1872 1958 1908 1900 1909 1899 1964 1840 1884 1805 1835 1854 1832 1945 1872 1875 1906 1814 1831 1895 1943 1875 1754 1911 1840 1892 1895 1795 1834 1793 1885 1822 1848 1822 1824 1774 1889 1897 1871 1821 1745 1855 1769 1879 1829 1804 1831 1765 1774 1772 1820 1845 1785 1844 1705 1790 1885 1808 1853 1718 1895 1768 1803 1867 1786 1852 1723 1823 1749 1816 1793 1723 1727 1776 1797 1800 1774 1710 1722 1788 1765 1786 1718 1752 1743 1800 1742 1720 1719 1732 1727 1736 1707 1682 1645 1725 1685 1720 1697 1746 1687 1670 1632 1711 1729 1717 1672 1713 1764 1705 1674 1706 1726 1634 1684 1694 1631 1700 1604 1602 1666 1698 1699 1644 1684 1575 1633 1650 1647 1661 1591 1663 1653 1622 1605 1575 1639 1707 1591 1601 1681 1623 1654 1696 1633 1747 1648 1574 1582 1666 1617 1605 1605 1604 1632 1559 1597 1552 1560 1623 1598 1573 1644 1712 1551 1563 1522 1608 1569 1566 1569 1598 1622 1577 1585 1675 1630 1614 1581 1624 1654 1689 1638 1649 1677 1576 1700 1676 1750 1686 1783 1714 1776 1798 1730 1794 1867 1795 1869 1930 1866 1983 1968 2063 2019 1967 2033 1985 1892 1919 1957 2015 1900 1950 1972 1949 1936 1923 1932 1868 1820 1905 1832 1964 1855 1883 1811 1805 1829 1793 1755 1795 1764 1762 1703 1796 1782 1790 1766 1688 1715 1696 1711 1689 1647 1648 1729 1659 1628 1617 1661 1643 1645 1519 1672 1643 1693 1576 1659 1555 1590 1564 1575 1607 1618 1496 1589 1520 1483 1569 1563 1561 1537 1615 1545 1565 1533 1554 1540 1482 1590 1522 1548 1549 1619 1628 1581 1619 1652 1624 1549 1615 1660 1676 1701 1706 1745 1826 1816 1805 1923 2050 2076 2241 2270 2445 2539 2658 2819 2861 3144 3335 3531 3699 3984 4127 4393 4532 4723 4893 5068 5265 5323 5392 5512 5371 5541 5431 5404 5508 5250 5334 5140 4969 4844 4847 4662 4454 4494 4231 4194 4073 4009 3710 3724 3544 3620 3538 3355 3339 3439 3311 3217 3180 3215 3109 2903 2982 2787 2891 2730 2686 2605 2584 2409 2446 2356 2280 2203 2163 2139 2059 2115 2034 2028 2022 1995 2029 1903 1892 1940 1947 1907 1846 1869 1733 1789 1796 1751 1696 1689 1638 1674 1599 1597 1626 1522 1525 1527 1491 1531 1505 1515 1468 1397 1457 1391 1465 1467 1425 1393 1378 1396 1383 1368 1425 1374 1404 1409 1369 1256 1340 1357 1321 1330 1336 1339 1327 1378 1335 1274 1373 1254 1331 1314 1343 1295 1302 1298 1311 1355 1329 1296 1358 1322 1362 1322 1373 1300 1297 1286 1278 1291 1340 1287 1330 1318 1371 1332 1250 1289 1224 1292 1286 1321 1341 1244 1292 1357 1336 1370 1271 1281 1280 1234 1300 1295 1286 1298 1225 1263 1306 1295 1272 1292 1318 1328 1241 1280 1257 1275 1287 1267 1177 1315 1286 1294 1277 1178 1343 1220 1255 1291 1203 1252 1283 1238 1321 1242 1246 1306 1262 1230 1242 1227 1259 1258 1265 1313 1303 1251 1224 1205 1192 1255 1288 1169 1293 1240 1264 1248 1183 1244 1301 1250 1223 1246 1260 1238 1234 1230 1229 1342 1229 1274 1207 1271 1266 1284 1229 1228 1315 1263 1246 1274 1248 1221 1181 1207 1260 1188 1278 1278 1234 1282 1161 1191 1211 1307 1226 1191 1197 1239 1196 1263 1211 1250 1207 1210 1288 1208 1278 1219 1226 1304 1163 1217 1241 1234 1261 1185 1239 1284 1247 1245 1223 1237 1199 1244 1202 1185 1148 1229 1167 1202 1171 1152 1243 1211 1247 1242 1164 1266 1208 1185 1181 1181 1113 1165 1192 1213 1197 1214 1207 1260 1220 1180 1229 1263 1211 1230 1211 1169 1245 1299 1178 1205 1265 1266 1220 1196 1211 1194 1205 1208 1230 1147 1248 1180 1232 1260 1187 1293 1248 1226 1216 1241 1249 1231 1232 1215 1165 1173 1264 1196 1274 1214 1268 1159 1234 1244 1295 1234 1193 1198 1200 1219 1227 1238 1270 1202 1231 1266 1212 1244 1259 1279 1223 1276 1276 1205 1183 1150 1285 1252 1227 1244 1250 1302 1258 1269 1210 1262 1209 1310 1257 1289 1244 1257 1321 1302 1268 1309 1259 1303 1305 1364 1339 1264 1339 1376 1457 1443 1385 1456 1427 1491 1491 1506 1631 1648 1711 1774 1744 1925 1992 2052 2137 2210 2370 2471 2693 2885 3048 3309 3555 3815 4050 4227 4445 4789 5084 5287 5449 5671 5779 5897 6122 6202 6243 6452 6445 6177 6359 6198 6158 6100 6034 5755 5592 5476 5302 5011 4956 4739 4523 4367 4259 4103 3911 3792 3682 3591 3473 3382 3337 3283 3275 3141 3119 3076 3139 3076 2921 2913 2891 2869 2938 2735 2769 2751 2662 2607 2763 2546 2509 2560 2514 2405 2425 2415 2300 2325 2246 2220 2153 2121 2032 2072 1968 1898 1894 1767 1777 1740 1722 1745 1688 1683 1645 1604 1508 1686 1509 1480 1448 1482 1398 1423 1382 1432 1428 1358 1356 1285 1353 1376 1347 1250 1312 1279 1311 1310 1305 1252 1237 1287 1272 1258 1236 1184 1223 1269 1218 1243 1238 1213 1168 1169 1214 1260 1185 1205 1158 1202 1188 1130 1190 1166 1113 1162 1188 1224 1157 1268 1193 1184 1175 1210 1157 1255 1124 1141 1149 1170 1201 1107 1123 1106 1192 1199 1162 1124 1198 1231 1138 1203 1162 1232 1154 1199 1086 1151 1111 1199 1105 1162 1155 1159 1169 1203 1107 1148 1146 1146 1195 1158 1110 1181 1223 1138 1133 1139 1093 1186 1196 1206 1098 1141 1159 1172 1121 1152 1132 1169 1079 1106 1193 1114 1186 1140 1114 1131 1151 1143 1187 1153 1144 1127 1129 1155 1174 1096 1137 1099 1160 1152 1229 1206 1164 1112 1220 1147 1126 1148 1128 1156 1186 1157 1164 1148 1145 1089 1163 1096 1147 1064 1160 1143 1067 1105 1103 1174 1163 1151 1119 1111 1126 1191 1152 1126 1202 1112 1156 1055 1196 1143 1060 1071 1097 1127 1119 1095 1141 1156 1101 1075 1102 1062 1098 1132 1087 1153 1109 1125 1181 1121 1108 1132 1041 1139 1111 1106 1034 1130 1069 1058 1102 1049 1118 1142 1149 1092 1046 1020 1137 1159 1109 1103 1101 1101 1099 1122 1104 1101 1100 1161 1137 1150 1076 1119 1047 1090 1072 1062 1090 1033 1114 1098 1088 1046 1049 1094 1072 1163 1160 1102 1033 1081 1041 1106 1120 1107 1031 1062 1064 1056 1067 1086 1088 1117 1093 1025 1065 1121 1067 1071 1074 1038 1122 1118 1066 1097 1091 1039 1139 1062 1067 1177 1102 1027 1062 1122 1080 1097 1024 1049 1102 1069 1128 1069 1065 1047 1071 1030 1025 1143 1038 1015 1077 1004 1030 1058 1095 1047 1039 1046 1063 1003 1065 1039 1106 1062 1067 1035 1057 1105 1077 1055 1098 1019 1060 1081 1020 1077 1012 1047 1019 1032 1044 1067 1077 1057 1018 1043 1021 1017 1017 1033 1045 1067 1009 1052 1032 1072 1010 1048 996 1051 1066 979 1039 981 1064 1004 1064 1088 1073 1027 1038 1044 1006 1069 987 1007 1009 986 999 1049 1063 1016 1051 952 1019 1063 1044 1029 1046 995 978 977 1046 964 1048 1022 1041 972 1008 1007 1031 1042 990 961 1024 976 1082 1013 991 1025 1040 958 1029 968 1030 1034 1003 996 995 1016 995 1056 1025 987 1009 1027 1034 1021 1007 963 991 1074 993 1023 1006 1036 1015 1051 1032 1033 992 1032 992 1063 948 1023 986 1021 1050 1050 1008 954 1006 921 1024 1010 1021 985 976 948 924 1003 991 961 1059 1004 1006 992 964 961 976 947 950 1001 923 1052 1029 928 998 991 975 1029 1040 1007 963 1058 981 1052 940 1012 1038 983 956 996 1003 987 945 998 960 973 1008 1051 1027 998 953 962 997 970 999 972 1015 1017 992 927 928 1006 974 1002 942 996 998 989 993 942 1015 979 1006 968 976 1020 1006 998 1043 1017 1030 985 1008 1051 1031 1066 998 1027 970 1042 987 959 941 1005 974 1050 998 1007 987 1027 979 1032 959 1049 1069 974 993 967 989 995 957 948 1010 998 947 993 947 955 1027 1001 998 965 968 985 962 1007 934 1009 952 1054 1005 1015 899 1005 982 1049 983 956 1007 1030 935 1038 994 1004 962 990 1033 993 978 1023 998 1035 1019 999 1043 1005 928 950 991 940 967 927 994 980 940 946 977 942 952 1032 979 953 912 979 982 991 1019 920 1014 956 968 968 997 938 955 991 928 1034 978 962 1012 989 980 968 958 962 981 1010 970 1000 1013 936 1037 899 973 975 995 1042 996 1053 977 1004 954 1009 976 978 941 969 901 957 975 1001 978 962 932 938 983 1013 1056 962 987 984 1032 966 1019 980 976 975 947 952 971 1014 1003 1031 967 934 966 969 1002 1020 924 969 990 926 1003 925 996 975 1001 943 994 1012 955 971 1006 993 1017 966 1045 959 951 966 902 1006 955 889 1004 975 1023 960 937 991 959 958 977 938 983 975 1005 982 949 932 988 993 941 966 941 934 960 920 914 942 985 945 972 976 965 942 959 1008 980 1010 964 955 924 983 979 993 953 941 944 1006 963 975 945 990 901 979 1017 955 909 971 966 965 975 930 903 919 903 948 993 918 996 1009 953 935 901 1011 935 941 949 970 969 945 970 948 975 905 962 939 964 968 963 946 968 1021 962 957 995 945 906 934 978 914 1009 1034 960 962 958 950 1004 968 931 931 952 995 1014 991 968 970 980 972 998 946 1001 946 946 947 972 950 1009 958 1001 919 986 961 958 955 969 964 974 940 982 990 980 1023 996 988 1004 1007 1025 989 959 985 962 962 926 983 957 999 959 940 1001 984 975 940 933 1039 946 1034 1017 1026 1024 947 1043 979 1021 991 1014 978 1071 1004 938 1034 1029 1083 1053 1085 1052 1101 1113 1087 1100 1135 1143 1249 1250 1186 1261 1321 1273 1404 1314 1409 1429 1393 1447 1424 1438 1494 1502 1528 1468 1487 1469 1473 1509 1456 1507 1466 1422 1459 1424 1353 1317 1365 1340 1395 1232 1274 1305 1243 1238 1085 1124 1147 1128 1159 1142 1135 1129 1017 1028 1103 1091 1138 1049 1034 1055 1088 1028 1090 993 1091 996 1027 1035 1018 988 1040 1018 988 966 1007 1032 980 1044 1023 991 1020 1021 1017 1039 1008 1078 1094 1033 1032 1065 1034 1024 1088 984 1081 1069 1082 1106 1085 1086 1055 957 1044 1057 1046 1079 1083 1079 1068 1006 1008 1004 991 1027 982 994 1005 1017 973 1020 1024 1012 979 1049 1074 1029 1045 977 954 992 1006 986 969 930 1050 1038 936 982 978 943 980 1002 994 1022 967 949 924 953 961 967 965 988 953 981 964 974 966 979 948 941 987 1000 980 992 968 960 939 964 946 943 956 982 951 956 949 913 926 944 929 981 948 968 985 984 1002 931 957 951 992 878 949 951 944 929 969 911 882 924 894 933 964 925 960 944 932 980 928 895 983 975 983 955 1011 987 967 952 908 909 913 976 946 949 954 906 1005 947 953 976 993 936 943 964 963 883 940 902 912 934 985 942 937 938 943 961 986 943 982 974 979 958 921 974 992 1006 937 968 972 933 986 935 954 1002 975 965 992 968 1016 972 974 994 1018 1006 961 987 963 934 927 946 954 970 962 980 977 991 962 1014 1033 980 1027 934 983 981 927 945 954 938 963 977 957 893 974 961 1015 923 971 990 974 961 981 972 982 966 952 943 968 981 952 989 992 996 997 913 1095 1027 980 976 992 1020 1019 971 952 994 988 975 1014 985 988 1013 925 989 929 959 981 1010 1030 987 988 983 1040 972 999 1002 984 980 981 1026 1000 1051 974 1012 958 1052 1018 1039 1100 1033 1038 1037 1084 1070 1061 1070 1091 1063 1077 1109 1078 1137 1116 1157 1147 1134 1209 1216 1139 1247 1303 1293 1357 1366 1446 1441 1599 1735 1667 1821 1926 2033 2266 2340 2584 2685 2895 3090 3230 3411 3568 3770 4024 3963 4097 4316 4379 4481 4538 4603 4454 4535 4509 4468 4348 4271 4157 4115 4004 4047 3894 3638 3489 3318 3185 3187 2995 2850 2808 2689 2589 2561 2435 2276 2147 2153 2079 1978 1872 1953 1849 1715 1756 1717 1620 1715 1675 1659 1658 1642 1645 1613 1652 1644 1566 1583 1696 1623 1660 1672 1627 1752 1706 1669 1725 1678 1684 1751 1777 1729 1777 1764 1734 1752 1780 1707 1781 1647 1632 1667 1719 1671 1637 1604 1629 1629 1552 1563 1543 1505 1546 1463 1493 1452 1478 1439 1408 1457 1434 1383 1388 1360 1374 1324 1288 1356 1270 1281 1283 1211 1261 1165 1162 1188 1158 1182 1187 1200 1140 1135 1136 1155 1032 1084 1085 1076 1120 1030 1068 1028 1053 1048 1088 997 1024 1069 1010 1050 986 1033 1040 981 1069 964 984 1036 987 1041 1021 947 1006 952 974 996 1041 1015 959 993 977 1008 1010 1002 996 935 937 1049 962 1021 914 976 1023 972 1028 956 946 957 1006 947 1004 1030 958 923 978 1020 958 972 925 975 948 982 939 993 968 1024 932 973 916 990 980 969 937 977 1002 989 1012 972 1016 964 987 1006 911 973 970 1061 1066 1023 1098 1045 1007 1076 1082 1042 1109 1161 1121 1148 1133 1177 1105 1180 1166 1159 1197 1219 1181 1191 1135 1157 1154 1206 1156 1165 1154 1159 1150 1114 1106 1134 1093 1075 1106 1077 1114 1030 1104 987 1036 1055 1113 989 1011 1016 1050 987 991 971 972 996 1021 1015 985 1021 957 997 1004 1053 1013 984 982 946 1063 998 988 1043 986 1049 1025 1016 967 972 1030 996 978 1068 1033 955 1042 1027 991 1022 1038 991 1031 1003 1030 1016 1000 997 1034 1014 1036 962 1014 989 1021 961 870 1002 959 989 932 974 971 962 952 1015 950 930 967 989 976 991 1005 959 949 943 1024 924 923 917 887 917 940 907 903 944 946 900 963 906 937 905 975 901 965 939 948 995 937 868 867 888 934 990 915 954 919 920 920 950 934 935 898 965 886 900 948 914 924 896 955 1005 902 888 851 957 927 924 876 903 902 933 964 927 911 869 928 923 900 983 912 942 993 929 920 925 877 937 916 926 946 940 881 885 946 895 916 898 957 876 906 908 935 963 935 898 943 898 905 918 905 921 962 933 928 927 930 903 914 955 919 933 886 892 891 947 946 927 885 965 864 969 922 904 944 887 939 816 901 895 880 917 944 951 927 927 944 889 932 866 966 947 918 924 869 885 926 894 951 923 905 889 909 942 891 910 918 936 949 885 918 867 914 896 896 919 911 961 904 939 946 914 857 905 928 946 908 934 988 899 877 876 964 913 896 946 906 904 916 947 902 881 965 917 957 906 837 887 869 961 917 900 921 899 957 918 895 868 952 962 957 912 917 948 896 915 950 909 903 949 919 916 898 855 940 897 897 881 922 887 885 929 920 942 911 912 927 886 982 902 856 908 871 946 869 937 849 977 955 889 957 917 895 884 884 948 870 950 918 855 891 926 847 869 890 919 856 870 937 919 840 929 880 907 915 948 897 911 922 945 925 944 940 917 825 901 859 877 943 877 881 926 942 908 922 859 926 858 896 899 910 897 896 875 884 904 897 920 906 988 914 908 909 911 879 892 857 909 919 883 937 931 933 883 882 842 905 900 918 945 931 878 923 930 923 904 868 912 896 852 832 894 852 902 930 905 877 917 906 890 868 906 884 924 925 875 852 944 907 898 898 916 926 935 891 926 856 862 891 938 905 907 901 890 875 884 890 861 898 904 908 915 898 858 935 913 880 893 874 909 906 845 883 882 853 930 849 943 883 879 865 866 860 856 896 943 967 921 951 866 931 853 931 912 873 844 921 884 889 903 904 880 857 906 841 914 873 888 897 854 914 841 897 899 918 863 895 892 888 855 886 846 919 886 898 924 929 911 920 896 928 901 962 903 956 905 928 963 909 915 981 978 878 958 922 895 932 987 961 890 963 925 949 953 931 908 1004 936 934 931 906 960 883 958 942 912 979 951 948 965 942 920 903 945 873 920 890 930 927 903 940 867 958 911 923 965 967 996 991 1014 1043 999 1048 1075 1154 1148 1135 1190 1214 1238 1302 1332 1391 1370 1484 1494 1537 1537 1568 1703 1684 1670 1629 1720 1670 1732 1706 1755 1724 1792 1728 1696 1718 1650 1674 1674 1594 1684 1499 1447 1519 1434 1474 1382 1345 1332 1306 1369 1254 1269 1242 1250 1215 1143 1139 1102 1139 1040 1152 1017 1033 989 1044 1017 1022 1033 1092 1051 1033 941 1000 1047 1035 969 1021 1045 978 978 1012 1052 1066 1020 1014 1045 1023 1009 1002 1002 1069 1020 1030 1077 1115 1130 1010 1114 1075 1044 1042 1061 1079 1080 1111 1021 1070 1010 1107 1061 1052 1030 1029 1066 1072 988 1001 922 947 1034 983 960 958 983 944 968 985 956 962 932 910 989 1004 891 929 918 874 907 888 875 837 883 874 827 869 928 911 918 891 854 854 930 862 869 906 895 888 873 870 942 967 934 876 898 897 904 863 880 808 874 873 844 888 847 840 866 888 917 948 848 880 892 889 883 847 847 816 860 854 826 926 913 875 891 873 878 862 865 878 843 926 849 884 856 860 852 801 868 840 849 833 873 891 859 897 801 851 894 845 862 833 895 879 903 828 820 892 895 856 858 807 921 849 902 910 861 862 956 891 871 815 843 889 899 864 871 885 867 855 910 920 885 883 877 898 908 953 892 930 890 911 946 889 948 913 911 908 855 980 967 1063 1008 1102 1098 1131 1165 1202 1262 1238 1396 1348 1362 1450 1444 1588 1627 1636 1768 1795 1652 1723 1804 1812 1815 1847 1904 1953 1894 1882 1815 1806 1769 1761 1739 1708 1713 1637 1607 1567 1575 1572 1505 1484 1529 1360 1423 1293 1380 1285 1250 1204 1196 1174 1215 1101 1138 1052 1086 1114 1047 1025 1016 1065 1010 1041 990 1000 983 970 970 963 928 942 992 943 964 980 992 970 970 962 1012 947 959 976 1054 1025 1032 1068 1089 1075 1035 1075 1092 1055 1141 1056 1107 1070 1152 1132 1100 1085 1154 1114 1059 1131 1037 1050 1123 1055 1009 1026 1045 1043 982 983 1025 1018 1025 1006 998 962 1025 972 972 911 1017 909 957 1007 957 983 974 979 992 967 963 1000 1017 1046 972 1001 1017 1006 1013 1036 990 999 1015 1014 1015 1006 1034 1022 930 1024 1039 969 947 948 957 970 928 958 944 926 938 980 970 966 950 937 891 922 939 879 881 878 895 873 860 844 911 855 878 841 853 867 947 863 860 878 843 875 903 861 909 887 906 923 901 917 877 938 913 943 966 945 1049 1018 1002 1052 1015 1018 1061 1026 1011 1016 1020 990 1047 1068 1052 1095 994 1072 1097 1029 1076 1004 1021 955 1008 1002 984 954 908 982 908 912 939 959 905 951 881 946 925 882 882 858 855 818 874 881 889 886 868 864 875 825 883 819 838 853 835 878 887 876 808 934 833 824 866 854 815 849 809 817 881 823 804 844 887 837 872 811 897 870 859 843 876 836 873 821 814 901 810 829 844 852 761 804 811 859 831 860 826 833 804 829 855 862 877 822 832 885 853 856 826 830 865 926 834 822 786 842 815 885 902 897 896 913 873 905 872 846 930 790 883 879 893 863 861 867 867 892 887 908 864 837 850 874 835 846 920 824 781 790 840 882 843 837 829 853 782 851 837 863 843 780 820 761 779 808 856 858 808 807 840 854 762 811 814 809 855 802 843 830 847 879 816 798 818 852 827 821 817 809 803 825 825 800 826 806 775 796 801 802 778 838 748 816 847 831 874 740 762 851 818 869 833 800 764 786 844 841 840 756 792 778 771 842 803 769 787 819 848 819 803 832 773 818 820 854 778 760 827 812 826 823 836 828 829 837 760 789 816 813 751 799 781 768 773 768 838 793 851 817 765 819 814 815 767 825 810 774 786 800 767 842 787 743 841 793 788 763 803 792 792 819 834 730 812 793 827 764 799 818 807 795 814 836 764 824 756 783 769 805 785 801 769 806 798 760 818 781 847 805 831 859 825 794 789 828 730 838 835 785 842 840 767 768 768 756 803 787 776 820 785 793 820 846 752 809 805 834 808 842 802 714 812 780 801 784 806 804 843 786 815 810 819 778 805 732 744 806 729 831 840 753 778 777 791 783 804 795 815 784 792 787 810 770 783 768 827 777 827 790 772 783 844 801 844 825 828 822 711 783 771 807 775 814 772 772 745 818 797 818 814 803 799 792 782 792 807 814 817 833 817 820 811 786 773 814 811 802 778 797 789 823 838 755 825 736 818 781 804 784 838 810 822 777 793 797 833 767 764 783 791 755 812 768 787 774 831 741 776 793 759 788 805 757 795 827 792 791 797 803 765 801 798 787 794 747 729 760 806 799 785 774 776 797 782 811 847 793 831 869 799 833 826 833 803 795 761 770 805 783 804 807 832 794 799 794 805 840 843 938 871 913 833 838 872 885 859 890 822 880 903 950 970 852 844 910 867 907 896 893 855 873 876 849 913 925 893 899 888 844 861 860 849 878 888 879 843 815 859 838 866 830 826 768 854 806 853 797 793 825 788 802 831 848 832 800 817 847 841 782 775 768 780 798 792 777 775 808 824 822 832 784 788 768 815 791 761 791 754 784 778 800 724 776 799 794 730 781 757 791 826 723 793 800 780 800 800 815 852 833 778 815 720 803 809 826 803 797 777 845 753 775 784 799 767 798 888 840 801 806 784 766 790 753 795 764 758 784 851 807 818 819 794 850 818 788 800 804 757 838 808 778 792 785 776 816 738 832 779 818 781 743 794 803 797 765 748 814 801 796 812 796 796 793 773 799 800 784 778 821 743 775 838 811 756 811 734 783 762 734 807 740 774 785 801 764 777 754 771 761 797 783 816 845 785 736 747 762 774 778 807 776 822 766 787 763 811 765 765 783 815 837 784 723 796 743 753 789 789 768 825 785 756 781 771 850 815 788 777 770 763 779 888 791 818 783 748 783 757 782 807 818 759 802 774 784 813 764 806 774 804 750 790 804 766 777 821 824 790 754 716 776 780 723 813 770 818 814 783 843 827 768 815 776 830 778 796 815 857 795 832 771 798 764 822 810 803 822 852 808 782 845 873 800 852 843 849 795 816 901 872 904 892 920 980 944 965 983 1019 998 1006 983 986 1013 1030 1057 1030 1063 1060 1044 1091 1108 1035 1052 1031 1044 1053 1012 1051 1037 1049 1041 1038 999 943 1041 990 1005 959 998 942 953 951 935 941 933 935 902 951 878 907 884 888 883 867 860 807 848 824 871 766 756 830 786 854 791 834 786 794 844 813 845 753 843 740 799 789 816 794 801 724 813 756 789 763 807 787 880 782 826 770 806 800 814 815 746 783 803 772 761 846 885 822 810 825 837 828 781 852 822 816 849 822 826 771 817 789 828 829 809 825 820 844 821 846 844 855 859 825 844 854 812 824 875 839 853 832 822 819 834 808 825 866 869 830 836 846 780 821 803 822 789 781 847 787 804 817 798 818 808 842 818 800 873 758 771 792 775 749 830 846 769 812 782 758 781 754 791 797 822 816 786 770 770 825 728 796 803 813 782 811 821 820 809 791 771 812 779 759 769 809 803 807 754 783 769 762 798 802 753 748 830 799 782 767 749 760 788 803 767 828 798 840 828 808 774 806 736 792 758 802 752 767 781 779 777 762 740 750 733 798 815 772 799 768 770 781 791 730 726 840 797 786 710 734 800 792 802 785 770 745 746 774 755 796 800 785 786 755 759 795 762 760 723 744 772 778 793 768 747 753 801 761 799 737 762 761 812 796 760 794 770 771 823 717 812 785 781 740 747 763 741 779 724 782 764 761 738 750 774 745 778 824 774 757 747 739 704 760 845 792 793 738 782 726 773 815 757 766 829 787 765 789 779 740 746 755 724 723 800 808 742 745 762 721 748 783 779 772 769 808 780 814 738 770 769 785 831 749 732 810 729 820 804 803 719 763 753 782 783 799 783 786 790 781 750 805 786 753 709 756 807 767 771 732 788 753 752 780 786 750 772 777 799 756 789 760 770 784 750 804 771 781 788 760 760 732 793 731 754 775 765 733 823 789 781 778 787 767 763 702 777 757 769 755 748 762 790 769 806 802 784 814 744 800 766 756 824 736 850 720 775 726 752 727 762 801 759 743 765 810 781 786 744 796 751 737 772 836 764 744 751 735 770 792 777 785 738 765 702 780 795 813 725 773 757 786 762 760 790 746 742 701 762 755 739 726 804 790 810 742 742 780 789 817 804 805 787 819 781 734 837 765 797 806 794 767 775 789 818 865 766 745 792 756 741 776 802 804 757 748 790 827 772 785 840 842 732 801 764 712 751 799 736 782 805 763 807 758 779 756 787 731 791 756 784 826 793 789 801 799 800 785 762 766 740 797 763 798 807 793 777 796 734 757 794 773 783 801 773 806 785 787 779 796 814 780 776 749 745 780 788 805 803 799 810 763 775 757 794 771 799 790 765 762 756 767 787 778 731 763 796 745 785 788 723 734 755 770 776 784 819 822 788 765 772 778 756 800 792 765 745 799 775 720 784 792 735 814 760 752 844 847 789 803 790 756 820 823 797 777 812 780 817 797 811 779 852 816 793 809 799 847 863 802 805 834 780 785 831 803 806 809 835 841 864 830 847 845 849 856 874 886 843 850 916 904 924 865 834 889 845 822 849 844 867 875 878 848 825 857 875 865 819 837 893 858 873 838 842 848 807 831 882 839 857 894 829 840 852 883 871 890 873 951 953 864 955 924 893 941 975 968 945 1010 1023 990 961 1019 983 1008 1029 1030 1036 1042 1018 1057 1017 1027 1016 990 1022 998 965 1003 1084 1006 961 1019 952 958 972 965 937 1007 935 1011 918 938 925 917 922 892 866 877 862 894 843 864 868 842 836 867 839 838 865 842 787 836 849 841 803 815 862 857 826 809 771 829 819 824 832 807 884 809 819 827 789 841 814 825 783 775 810 766 852 846 820 827 819 852 804 850 827 830 861 830 895 794 868 872 804 875 879 878 877 868 923 837 896 899 888 871 891 872 870 890 850 848 852 874 882 880 869 915 864 807 865 926 894 861 881 866 865 882 881 856 859 839 848 828 851 919 865 878 837 848 871 811 826 825 881 832 866 841 852 858 779 844 819 857 770 837 882 780 779 841 830 800 826 826 806 806 825 857 823 790 816 812 830 806 865 879 808 840 809 876 836 826 863 826 822 790 834 796 843 837 766 822 780 860 835 817 820 841 859 869 843 822 840 860 837 892 881 905 913 923 892 912 913 942 939 955 960 968 980 1050 1059 1112 1073 1071 1193 1095 1175 1221 1248 1224 1261 1325 1382 1287 1386 1317 1487 1382 1412 1448 1430 1464 1427 1364 1404 1376 1299 1364 1380 1378 1363 1298 1381 1337 1351 1297 1341 1380 1227 1339 1296 1211 1213 1187 1188 1232 1158 1096 1153 1140 1066 1114 1075 1058 1025 1047 1048 1014 962 979 950 930 971 870 910 965 966 924 888 882 854 879 869 877 851 901 872 844 858 868 848 859 856 806 828 835 847 849 903 836 818 893 821 849 804 801 825 845 849 808 808 861 839 894 811 864 817 792 870 898 833 862 886 942 910 863 943 896 889 875 908 948 941 902 940 987 929 898 954 932 873 887 881 907 799 896 937 922 915 940 866 941 962 877 908 922 911 893 895 902 880 876 891 847 898 875 878 938 878 919 895 905 909 941 923 896 914 964 858 861 873 899 872 918 914 905 879 907 873 880 890 892 853 923 891 918 917 866 866 937 923 872 888 904 869 895 899 870 874 832 845 863 864 890 895 900 883 889 905 840 839 856 832 831 877 843 852 791 818 887 786 766 851 827 791 812 869 845 773 853 797 776 807 826 818 809 872 763 782 842 865 788 822 798 799 857 830 788 761 811 754 827 807 801 809 829 751 784 761 773 791 809 793 857 801 733 796 818 832 761 818 781 739 760 798 810 864 819 843 782 833 791 768 755 789 829 738 780 804 797 770 822 837 769 756 778 763 804 792 767 815 818 780 754 781 762 801 774 751 769 773 779 778 748 808 775 788 810 851 750 809 805 772 781 808 843 762 745 776 739 853 780 753 779 745 771 767 777 848 809 817 770 805 757 770 815 760 782 835 834 815 765 766 770 784 760 803 773 764 824 798 765 753 788 765 712 755 785 777 796 773 749 798 767 778 793 770 767 760 761 795 749 767 764 786 747 801 735 708 773 800 783 783 781 721 777 802 777 816 752 780 786 795 775 750 757 765 799 752 753 800 793 768 783 763 774 765 758 761 838 769 819 758 784 801 767 775 772 823 757 779 780 725 772 752 759 763 748 811 758 746 788 743 767 782 754 836 724 789 765 732 756 758 790 809 757 796 750 817 770 799 801 767 809 799 742 748 738 773 753 789 746 772 801 767 799 729 837 750 769 716 749 786 762 763 821 722 780 781 742 778 788 780 788 845 819 754 692 747 713 758 744 725 760 772 718 750 794 740 800 803 713 781 746 820 807 807 754 724 769 771 793 761 698 808 757 796 767 737 811 762 778 708 730 797 736 786 814 780 757 804 759 787 766 732 782 747 779 770 785 779 804 780 762 759 734 777 742 765 739 779 755 783 724 740 768 717 794 798 791 720 749 769 739 765 743 747 790 749 767 772 770 732 771 782 772 784 804 758 763 744 744 723 801 778 720 749 792 773 767 733 775 756 802 785 786 735 750 803 797 721 717 769 808 743 782 737 811 764 747 762 779 726 732 808 791 787 811 751 774 781 813 769 802 724 758 788 803 774 784 845 806 823 866 787 801 789 809 802 819 792 837 776 768 842 849 885 844 814 859 820 802 860 805 848 821 830 810 762 893 829 818 815 819 815 815 788 787 819 817 782 820 861 751 782 839 789 809 826 791 796 770 777 794 817 752 766 760 737 758 775 799 784 739 790 806 765 784 784 800 764 769 803 789 783 742 779 743 748 760 751 761 775 741 772 768 758 784 819 792 730 759 799 768 748 836 777 789 745 783 774 790 763 771 787 798 776 774 758 754 739 835 717 753 799 790 739 781 812 758 788 742 761 790 761 745 815 737 763 754 769 791 716 776 717 731 788 819 779 803 776 771 764 760 773 776 791 802 773 764 770 806 767 765 769 786 799 757 726 797 808 771 814 748 786 753 766 787 795 822 787 753 798 757 763 781 772 729 794 793 750 790 750 762 777 752 757 830 783 817 717 768 740 788 788 780 765 764 744 760 814 792 815 764 753 793 797 751 765 740 760 767 810 782 785 747 782 757 766 757 741 820 811 793 806 768 828 804 776 745 779 755 783 807 820 784 767 802 773 715 800 771 808 789 821 809 803 857 805 802 821 797 775 814 803 722 777 829 787 741 815 789 761 823 819 815 810 856 786 756 773 822 856 852 832 861 836 874 789 887 907 879 909 911 920 983 940 993 935 1043 1090 1090 1059 1121 1088 1168 1172 1185 1147 1135 1224 1153 1221 1255 1217 1263 1245 1211 1236 1225 1199 1235 1289 1242 1213 1165 1190 1194 1176 1110 1171 1130 1202 1177 1164 1106 1173 1118 1126 1110 1091 1142 1062 1059 1116 1103 1055 1122 979 1025 984 1028 1000 983 1001 954 923 958 952 969 905 899 908 874 872 838 921 855 809 913 859 845 824 843 803 867 795 792 808 779 817 819 826 796 799 792 789 809 775 786 832 803 820 813 850 788 746 775 806 783 812 835 829 829 823 840 818 818 774 801 789 795 835 782 776 792 816 820 822 820 812 825 841 807 822 798 805 864 774 856 823 866 827 886 819 843 829 844 885 861 879 852 871 820 898 850 916 871 855 844 918 866 847 914 820 891 864 906 932 866 902 857 866 924 815 837 865 888 855 868 812 863 885 892 902 859 868 836 840 883 854 850 899 851 917 831 908 859 869 827 822 874 853 822 853 861 825 847 851 839 857 865 831 905 905 880 878 842 826 815 857 868 848 815 818 837 824 850 800 839 846 895 804 838 829 821 834 840 795 826 835 805 850 833 847 821 850 837 806 831 810 789 841 794 808 795 847 811 798 823 833 832 804 766 751 793 754 797 771 808 821 860 799 797 755 798 784 817 745 794 778 768 823 761 762 816 822 735 776 795 766 765 792 782 781 800 796 764 836 781 800 798 775 830 786 711 785 753 778 757 797 754 825 785 823 802 790 765 747 808 756 803 768 786 743 746 765 799 756 739 762 815 769 808 828 756 777 775 756 757 763 786 785 781 727 756 799 793 859 790 741 774 746 757 746 759 779 757 775 737 751 803 767 777 763 811 792 765 782 794 795 771 740 753 712 756 747 776 759 782 793 770 777 747 773 773 779 748 781 815 734 778 773 761 754 764 787 747 755 697 778 781 799 738 776 738 752 781 750 727 727 739 770 780 796 743 777 785 778 762 761 731 782 806 723 756 833 761 838 778 779 734 820 827 753 711 795 722 749 773 724 781 761 826 776 773 735 751 798 785 798 782 746 790 792 772 803 773 798 787 752 726 734 778 813 750 777 761 761 743 700 718 769 745 793 809 816 767 763 769 792 741 738 749 753 770 818 783 748 729 712 760 817 731 789 741 791 763 786 777 767 705 765 758 769 809 707 763 773 741 732 748 760 760 807 799 754 784 756 800 750 755 812 753 772 734 782 798 689 760 800 740 726 777 789 742 810 773 780 790 711 811 764 826 769 790 736 778 788 793 808 749 734 753 793 767 780 786 749 722 780 783 737 794 755 749 780 784 725 727 811 776 792 732 750 719 705 800 714 773 739 747 818 741 746 737 771 742 748 790 795 746 765 813 822 811 739 773 812 746 769 810 762 751 798 809 759 786 786 760 763 773 799 821 769 806 796 745 803 789 793 791 774 795 802 815 796 752 754 816 788 799 816 818 821 824 826 792 787 846 812 781 783 808 799 821 870 832 883 860 868 869 779 810 837 813 849 865 850 877 901 886 881 866</counts>
			</dataPoints>
		</scan>
	</xrdMeasurement>
</xrdMeasurements>
