<?xml version="1.0"?>
<xrdMeasurements xmlns="http://www.xrdml.com/XRDMeasurement/2.3" xmlns:xsi="http://www.w3.org/2001/XMLSchema-instance" xsi:schemaLocation="http://www.xrdml.com/XRDMeasurement/2.3 http://www.xrdml.com/XRDMeasurement/2.3/XRDMeasurement.xsd" status="Completed" recordIdentifier="{730C2390-88FD-40AE-8135-814A51E87C5C}">
	<comment>
		<entry/>
	</comment>
	<sample type="To be analyzed">
		<id>GPSS_Li1p6Fe0p8Co0p4Cl4_111225_691549b847a6a0fd7c6580c7</id>
		<name></name>
		<preparedBy></preparedBy>
	</sample>
	<xrdMeasurement measurementType="Scan" status="Completed" sampleMode="Reflection">
		<usedWavelength intended="K-Alpha 1">
			<kAlpha1 unit="Angstrom">1.5405980</kAlpha1>
			<kAlpha2 unit="Angstrom">1.5444260</kAlpha2>
			<kBeta unit="Angstrom">1.3922500</kBeta>
			<ratioKAlpha2KAlpha1>0.5000</ratioKAlpha2KAlpha1>
		</usedWavelength>
		<incidentBeamPath>
			<radius unit="mm">145.00</radius>
			<xRayTube id="1010048" name="Empyrean Cu LFF HR (9430 033 7310x)">
				<tension unit="kV">40.0</tension>
				<current unit="mA">15.0</current>
				<anodeMaterial>Cu</anodeMaterial>
				<focus type="Line">
					<length unit="mm">12.0</length>
					<width unit="mm">0.4</width>
					<takeOffAngle unit="deg">6.0</takeOffAngle>
				</focus>
			</xRayTube>
			<sollerSlit id="21010002" name="Soller slits 0.04 rad.">
				<opening unit="rad">0.0400</opening>
			</sollerSlit>
			<mask id="22031000" name="Fixed mask 13 mm">
				<width unit="mm">9.00</width>
			</mask>
			<divergenceSlit id="22120001" name="Divergence slit 1°" xsi:type="fixedDivergenceSlitType">
				<distanceToSample unit="mm">50.00</distanceToSample>
				<height unit="mm">1.52</height>
			</divergenceSlit>
		</incidentBeamPath>
		<sampleMovement xsi:type="spinningSampleMovementType">
			<spinnerRevolutionTime unit="seconds">1.0</spinnerRevolutionTime>
		</sampleMovement>
		<diffractedBeamPath>
			<radius unit="mm">145.00</radius>
			<antiScatterSlit id="22090040" name="AS slit 9 mm (PIXcel)" xsi:type="fixedAntiScatterSlitType">
				<height unit="mm">9.00</height>
			</antiScatterSlit>
			<sollerSlit id="21020003" name="Large Soller slits 0.04 rad.">
				<opening unit="rad">0.0400</opening>
			</sollerSlit>
			<filter id="20030001" name="Large beta-filter Nickel">
				<material>Ni</material>
				<thickness unit="mm">0.020</thickness>
			</filter>
			<detector id="7010019" name="PIXcel1D-Medipix3 detector" xsi:type="rtmsDetectorType">
				<phd unit="keV">
					<lowerLevel>4.02</lowerLevel>
					<upperLevel>11.27</upperLevel>
				</phd>
				<mode>Scanning</mode>
				<activeLength unit="deg">5.542</activeLength>
			</detector>
		</diffractedBeamPath>
		<scan appendNumber="0" mode="Continuous" scanAxis="Gonio" status="Completed">
			<header>
				<startTimeStamp>2025-11-16T14:11:18-08:00</startTimeStamp>
				<endTimeStamp>2025-11-16T14:19:25-08:00</endTimeStamp>
				<author>
					<name>AutomatedUser</name>
				</author>
				<source>
					<applicationSoftware version="1.7b (136)">PANalytical Aeris Instrument Suite</applicationSoftware>
					<instrumentControlSoftware version="3.2.00000000 20240306">AERIS</instrumentControlSoftware>
					<instrumentID>950485</instrumentID>
				</source>
			</header>
			<dataPoints>
				<positions axis="2Theta" unit="deg">
					<startPosition>10.00943322</startPosition>
					<endPosition>99.99442286</endPosition>
				</positions>
				<positions axis="Omega" unit="deg">
					<startPosition>5.00471661</startPosition>
					<endPosition>49.99721143</endPosition>
				</positions>
				<commonCountingTime unit="seconds">12.495</commonCountingTime>
				<counts unit="counts">3179 3230 3289 3220 3294 3205 3242 3229 3183 3257 3251 3209 3238 3300 3247 3238 3343 3215 3250 3335 3251 3307 3233 3209 3134 3149 3252 3241 3196 3182 3340 3293 3281 3285 3243 3279 3298 3284 3347 3230 3271 3197 3219 3282 3330 3314 3286 3279 3201 3314 3274 3269 3234 3393 3270 3384 3329 3261 3347 3274 3364 3290 3373 3424 3326 3332 3434 3351 3373 3408 3504 3308 3427 3378 3441 3456 3416 3468 3498 3462 3403 3444 3376 3497 3419 3490 3524 3442 3353 3374 3259 3455 3493 3439 3399 3381 3339 3387 3437 3402 3346 3384 3396 3449 3356 3507 3424 3501 3429 3327 3435 3368 3371 3362 3401 3401 3394 3384 3380 3397 3506 3353 3478 3324 3401 3411 3357 3366 3392 3284 3432 3313 3425 3308 3404 3328 3349 3370 3461 3492 3294 3374 3399 3392 3402 3355 3356 3379 3338 3287 3416 3270 3345 3417 3440 3347 3301 3313 3339 3289 3360 3349 3463 3417 3314 3345 3376 3447 3414 3328 3287 3314 3312 3348 3431 3452 3486 3308 3341 3375 3422 3462 3374 3374 3391 3302 3402 3351 3255 3368 3396 3453 3345 3400 3408 3336 3439 3343 3375 3343 3346 3371 3310 3353 3275 3249 3338 3305 3268 3292 3340 3393 3418 3457 3308 3325 3376 3322 3318 3285 3261 3287 3264 3291 3251 3382 3273 3300 3232 3258 3402 3207 3355 3306 3331 3266 3259 3280 3334 3335 3320 3345 3342 3326 3416 3314 3278 3334 3275 3286 3357 3227 3328 3321 3325 3243 3301 3279 3301 3344 3308 3264 3366 3241 3365 3311 3298 3272 3429 3379 3406 3254 3455 3432 3311 3314 3312 3369 3304 3269 3321 3425 3349 3396 3265 3479 3336 3349 3383 3301 3371 3330 3363 3392 3347 3288 3369 3447 3430 3403 3354 3354 3391 3343 3322 3414 3404 3359 3416 3432 3514 3564 3418 3552 3435 3438 3441 3485 3443 3498 3471 3431 3412 3411 3540 3546 3398 3445 3548 3575 3557 3502 3458 3599 3490 3557 3616 3543 3557 3559 3524 3502 3561 3556 3683 3589 3625 3605 3613 3564 3621 3612 3655 3505 3650 3747 3483 3652 3756 3690 3631 3718 3599 3729 3647 3733 3765 3711 3646 3699 3799 3791 3747 3806 3756 3703 3721 3757 3787 3791 3836 3738 3735 3780 3695 3849 3741 3813 3757 3783 3827 3803 3731 3841 3889 3793 3816 3845 3897 3853 3803 3817 3791 4001 3738 3926 3803 3840 3795 3886 3927 3894 3990 3799 3893 3970 3927 3861 3921 3873 3963 4013 3805 3984 3949 4077 4002 3952 4052 3979 3997 4101 3969 3964 3968 3996 4123 4073 3956 4059 4116 4126 4171 4148 4193 4066 4033 4064 4079 4057 4120 4110 4014 4052 4109 4093 4053 4155 4139 4029 4132 4052 4122 4141 3972 4096 4089 4032 4063 4171 4077 4169 4145 4208 4177 4020 4042 4214 4155 4101 4100 4126 3958 4005 4087 4026 3857 4119 4048 3882 3741 3791 3852 3858 3857 3731 3848 3900 3727 3843 3758 3766 3601 3809 3648 3620 3691 3665 3712 3638 3690 3639 3647 3658 3758 3655 3644 3624 3711 3590 3639 3630 3625 3633 3580 3568 3684 3524 3579 3584 3604 3576 3595 3631 3686 3747 3651 3614 3636 3527 3755 3657 3465 3644 3601 3666 3735 3577 3716 3520 3602 3735 3670 3654 3603 3548 3519 3491 3581 3466 3690 3525 3515 3469 3486 3386 3481 3455 3544 3467 3461 3358 3457 3485 3414 3478 3392 3480 3490 3392 3485 3490 3384 3343 3546 3372 3415 3422 3426 3502 3324 3332 3390 3253 3364 3334 3345 3406 3281 3311 3407 3271 3403 3341 3362 3302 3319 3292 3202 3252 3329 3398 3313 3316 3395 3326 3222 3272 3258 3364 3335 3283 3200 3396 3234 3346 3346 3260 3258 3227 3235 3186 3269 3339 3410 3296 3227 3218 3179 3214 3366 3229 3212 3311 3342 3250 3282 3231 3260 3219 3290 3232 3174 3269 3341 3363 3247 3237 3270 3280 3222 3346 3303 3256 3204 3194 3357 3316 3204 3305 3319 3268 3176 3178 3212 3213 3266 3294 3268 3240 3237 3235 3048 3260 3344 3165 3167 3202 3121 3347 3201 3263 3151 3274 3215 3159 3183 3254 3199 3221 3223 3186 3265 3136 3205 3172 3213 3200 3373 3231 3193 3119 3247 3168 3092 3293 3242 3240 3172 3153 3225 3077 3196 3070 3231 3194 3230 3257 3158 3095 3183 3239 3201 3264 3187 3215 3156 3164 3249 3171 3174 3251 3168 3133 3096 3140 3259 3080 2990 3133 3110 3104 3091 3119 3121 3125 3081 3140 3110 3126 3209 3123 3120 3164 3183 3126 3010 3178 3118 3005 3130 3250 3196 3111 3134 3087 3130 3074 3108 3192 3047 3105 3151 3023 3100 3144 3130 3208 3062 3088 3205 3107 3122 3145 3146 3078 3073 3161 3066 3227 3116 3070 3106 3132 3113 3050 3216 3183 3021 3025 3151 3116 2958 3091 3064 3261 3109 3144 3012 3076 3022 3056 3008 3022 3075 3056 3015 3061 2996 3103 3047 3114 3034 3072 3015 3061 3037 3154 2996 3094 3103 3053 3116 3006 2970 3069 3103 2986 3046 3029 2923 2952 3031 3029 3025 3042 2969 3039 2955 3089 2951 3091 3043 2996 3129 2994 3038 3082 3077 2991 3030 2976 3045 3070 3171 3139 3066 2999 3017 2901 3030 2975 3024 2967 2978 3117 2892 3071 3001 3048 3001 2922 2960 3081 3064 2954 2924 3030 3012 2841 3035 2997 2931 2970 2936 2968 2930 3048 2951 2995 2972 3021 2969 2925 3055 3009 2964 2934 2889 2980 3005 2943 2922 2893 3085 2859 2971 2899 2947 2978 3042 2895 2996 2901 2901 2953 2998 2877 2923 2936 2906 2889 2997 3016 3010 3048 2857 2855 2911 2990 2852 2968 2979 2907 3039 3009 2883 2810 2945 2925 2952 2913 2941 3061 2914 2991 2842 2871 2986 2977 2919 2983 3011 2961 2866 2928 2952 3079 2991 2909 2903 2935 2935 3023 2969 2929 2942 2869 2887 2988 2950 2956 2868 2830 2927 2907 2923 2846 3036 2933 2947 2909 2985 2968 2955 2850 2846 2977 3041 3004 2968 2951 2905 2907 2926 2863 3019 2905 2933 3058 2946 2934 2907 2893 2834 2935 2950 2923 2841 2875 2936 2944 2939 2991 2926 2924 2966 2926 2935 2954 2974 2920 2926 2926 2969 2891 2982 2940 2934 2914 2911 2822 2876 2806 2930 2951 2973 2978 2939 2917 2893 2800 2826 2946 2998 2851 2881 3029 2907 2966 2885 2932 3023 2970 2936 2935 2850 2915 3028 2956 3027 2997 2847 2904 2877 2811 2956 2940 2903 3018 2915 2973 2963 2919 2924 2868 3031 2818 3025 2964 2961 2972 2891 2904 2962 2860 2970 2769 3029 2908 2961 3010 2858 2893 2869 2808 2872 2914 2909 2863 2939 2884 2838 2793 2912 2886 2836 2823 2913 2862 2864 2864 2872 2756 2917 2821 2839 2835 2848 2863 2884 2842 2829 2914 2912 2804 2883 2869 2859 2834 2799 2702 2807 2861 2717 2764 2761 2752 2808 2710 2820 2832 2900 2807 2768 2815 2739 2789 2793 2714 2716 2711 2835 2715 2720 2698 2766 2737 2708 2628 2726 2748 2732 2714 2643 2757 2662 2653 2600 2696 2607 2698 2652 2564 2568 2617 2693 2660 2616 2599 2581 2585 2667 2673 2612 2569 2678 2635 2550 2711 2529 2622 2597 2543 2570 2634 2522 2572 2575 2543 2462 2626 2490 2522 2483 2575 2450 2495 2517 2511 2577 2516 2454 2494 2582 2531 2635 2432 2465 2514 2488 2426 2489 2452 2522 2412 2438 2533 2501 2469 2530 2448 2550 2466 2385 2416 2473 2491 2458 2411 2480 2385 2421 2476 2439 2442 2469 2424 2448 2389 2461 2465 2440 2380 2333 2293 2447 2327 2412 2327 2377 2371 2307 2310 2330 2375 2327 2342 2349 2397 2408 2372 2355 2296 2402 2262 2223 2325 2338 2327 2250 2347 2408 2333 2324 2341 2341 2252 2390 2322 2384 2368 2231 2366 2241 2352 2400 2325 2335 2340 2260 2382 2329 2364 2261 2383 2327 2338 2470 2270 2250 2315 2242 2374 2342 2332 2365 2375 2315 2422 2301 2419 2408 2373 2307 2346 2373 2319 2326 2338 2267 2275 2304 2364 2298 2228 2337 2318 2314 2217 2283 2281 2216 2286 2276 2286 2267 2224 2292 2282 2310 2270 2310 2280 2218 2360 2269 2316 2279 2285 2309 2224 2216 2285 2230 2235 2218 2277 2318 2332 2218 2292 2304 2261 2340 2331 2306 2268 2308 2243 2178 2286 2285 2225 2253 2288 2323 2286 2249 2270 2253 2267 2252 2235 2230 2307 2271 2325 2297 2323 2204 2297 2250 2307 2239 2324 2320 2290 2205 2261 2354 2210 2268 2312 2299 2378 2364 2380 2267 2261 2316 2305 2260 2324 2268 2321 2243 2248 2283 2328 2298 2274 2312 2207 2364 2264 2297 2242 2341 2331 2211 2305 2317 2273 2264 2321 2288 2255 2322 2270 2303 2394 2173 2263 2321 2348 2294 2364 2321 2251 2268 2209 2258 2277 2202 2304 2240 2366 2247 2293 2259 2319 2266 2300 2322 2258 2293 2210 2342 2208 2292 2281 2226 2344 2317 2340 2251 2294 2183 2279 2207 2325 2302 2263 2344 2208 2179 2347 2356 2267 2345 2225 2078 2311 2160 2241 2243 2217 2276 2213 2172 2226 2261 2201 2202 2235 2171 2226 2290 2174 2218 2155 2101 2158 2237 2189 2172 2215 2194 2126 2218 2113 2243 2108 2229 2140 2170 2110 2087 2112 2119 2152 2095 2161 2148 2169 2089 2140 2159 2147 2146 2036 2119 2180 2186 2142 2078 2065 2083 2196 2147 2102 2066 2187 2011 1977 2010 2059 2135 2138 2081 2063 2044 2126 2075 2061 2141 2163 2065 2033 1956 2085 2111 2049 2117 2004 2057 2074 2084 2029 2028 2046 2050 1932 2011 1966 1987 2020 1967 1999 2100 1990 1960 1959 1967 2014 1939 1956 1921 2031 2011 1938 2069 1993 1921 1888 1952 1967 1903 1938 1980 1939 1999 1982 2005 1984 1910 1828 1968 1957 1916 1942 1987 1949 1959 1899 1969 1926 1867 1914 1973 1900 1926 1925 1909 1957 1971 1897 1919 2022 1859 1899 1859 2002 1833 1907 1962 1931 1944 1911 1896 1879 1959 1896 1847 1960 1915 1935 1954 1909 1855 1865 1869 1938 1839 1849 1881 1870 1807 1958 1885 1888 1926 1830 1967 1878 1891 2027 1987 1982 1970 1934 1918 1964 2058 1927 1950 2017 1916 1951 1934 1915 2012 2017 2026 1983 1985 2091 2073 2067 2003 2040 2056 2037 1987 2051 2107 2063 2032 1989 2030 2045 2014 2002 2059 2032 1997 2010 1922 1990 1989 2018 1954 2022 2022 2069 1988 1946 1939 2043 1890 1943 1935 1868 1939 1934 1916 1922 1911 1891 1926 1958 1839 1883 1942 1912 1806 1816 1872 1816 1825 1842 1812 1773 1787 1750 1809 1829 1745 1697 1831 1749 1748 1751 1813 1731 1808 1784 1685 1754 1762 1758 1769 1711 1750 1699 1736 1716 1727 1780 1747 1722 1772 1686 1731 1672 1639 1772 1771 1775 1711 1729 1709 1741 1739 1735 1759 1741 1730 1805 1785 1738 1770 1692 1819 1756 1800 1803 1801 1810 1849 1727 1764 1781 1782 1809 1800 1758 1677 1769 1788 1731 1753 1839 1725 1754 1763 1769 1751 1802 1737 1753 1786 1736 1770 1725 1752 1650 1785 1740 1688 1799 1710 1793 1778 1672 1664 1702 1731 1677 1764 1682 1772 1743 1742 1719 1716 1690 1663 1694 1753 1759 1630 1660 1712 1732 1758 1720 1567 1667 1597 1752 1586 1657 1559 1656 1601 1722 1693 1714 1581 1634 1646 1626 1664 1663 1586 1647 1680 1624 1612 1680 1684 1614 1680 1628 1606 1635 1534 1668 1689 1625 1684 1561 1625 1673 1599 1611 1625 1633 1650 1603 1614 1567 1611 1534 1558 1553 1622 1525 1578 1661 1562 1555 1550 1584 1548 1640 1478 1533 1557 1646 1599 1575 1534 1555 1603 1588 1525 1527 1548 1515 1514 1580 1604 1562 1544 1525 1532 1587 1620 1582 1581 1592 1618 1548 1607 1562 1639 1567 1459 1500 1655 1586 1552 1556 1595 1584 1553 1568 1584 1658 1581 1520 1564 1564 1627 1588 1602 1643 1577 1553 1523 1579 1559 1538 1576 1545 1622 1593 1559 1506 1532 1598 1601 1582 1479 1588 1547 1598 1607 1530 1626 1596 1582 1600 1569 1544 1612 1562 1504 1572 1466 1647 1587 1545 1538 1529 1575 1518 1626 1558 1570 1552 1553 1577 1627 1551 1604 1628 1608 1526 1634 1562 1621 1654 1590 1624 1665 1666 1621 1698 1586 1595 1596 1692 1594 1657 1529 1625 1627 1599 1614 1587 1652 1653 1589 1559 1632 1657 1650 1670 1625 1686 1645 1705 1682 1658 1646 1651 1654 1720 1653 1657 1718 1598 1642 1707 1693 1643 1644 1665 1650 1663 1638 1620 1657 1619 1630 1648 1662 1610 1637 1661 1689 1609 1540 1630 1724 1577 1576 1682 1601 1617 1594 1684 1648 1608 1582 1669 1649 1598 1623 1603 1650 1647 1671 1681 1624 1689 1697 1709 1549 1683 1602 1692 1657 1699 1619 1722 1641 1598 1650 1629 1642 1692 1587 1687 1646 1686 1698 1665 1601 1663 1649 1618 1757 1629 1705 1678 1714 1640 1617 1671 1608 1636 1593 1716 1603 1673 1615 1691 1564 1690 1607 1691 1679 1657 1615 1665 1648 1655 1647 1626 1598 1627 1681 1635 1718 1637 1579 1633 1608 1695 1620 1651 1606 1559 1577 1478 1572 1637 1662 1548 1553 1639 1621 1651 1548 1672 1564 1597 1582 1600 1654 1592 1645 1628 1664 1686 1676 1666 1733 1739 1672 1687 1654 1685 1715 1686 1681 1732 1736 1795 1773 1741 1732 1732 1736 1815 1830 1732 1769 1852 1771 1862 1802 1806 1847 1883 1921 1821 1912 1902 1926 1877 1969 1951 1956 2011 1887 1909 1990 1971 2034 1969 2005 2133 2108 2085 1991 1964 2082 1967 1976 2050 1967 2068 1920 1920 1908 1941 1837 1875 1913 1808 1853 1795 1752 1878 1762 1774 1740 1773 1738 1686 1733 1665 1727 1723 1704 1652 1670 1752 1730 1717 1662 1778 1622 1719 1723 1734 1625 1609 1694 1654 1549 1633 1592 1546 1594 1486 1592 1608 1541 1554 1434 1538 1545 1487 1476 1484 1382 1549 1461 1491 1475 1519 1463 1494 1487 1485 1472 1423 1390 1429 1464 1405 1445 1349 1408 1416 1397 1445 1403 1482 1458 1380 1403 1418 1365 1373 1427 1396 1445 1412 1399 1431 1412 1371 1408 1411 1323 1411 1385 1466 1437 1407 1414 1371 1365 1435 1378 1350 1374 1347 1381 1396 1333 1359 1395 1409 1325 1324 1374 1366 1372 1343 1356 1364 1372 1399 1331 1307 1371 1377 1335 1406 1271 1389 1358 1397 1437 1363 1412 1361 1345 1405 1390 1330 1396 1334 1437 1353 1412 1303 1277 1355 1364 1355 1374 1395 1311 1316 1275 1344 1298 1341 1378 1316 1380 1333 1379 1291 1311 1390 1299 1306 1337 1282 1358 1351 1302 1308 1309 1309 1352 1309 1337 1319 1362 1354 1288 1349 1294 1298 1316 1323 1272 1405 1346 1434 1293 1272 1313 1336 1302 1339 1321 1335 1333 1329 1245 1274 1307 1317 1300 1319 1301 1349 1330 1356 1286 1285 1331 1319 1258 1302 1288 1324 1302 1307 1260 1355 1300 1352 1334 1248 1317 1366 1279 1272 1270 1325 1383 1368 1335 1330 1312 1318 1320 1316 1284 1359 1272 1355 1318 1274 1250 1278 1359 1361 1280 1340 1366 1335 1268 1328 1355 1324 1285 1347 1315 1292 1317 1280 1372 1344 1286 1318 1268 1268 1321 1304 1300 1334 1351 1243 1322 1417 1348 1303 1333 1326 1304 1338 1342 1301 1309 1260 1332 1324 1375 1286 1318 1290 1324 1354 1322 1377 1328 1359 1264 1353 1350 1314 1323 1374 1317 1329 1368 1259 1294 1322 1329 1344 1292 1346 1319 1273 1294 1287 1301 1315 1360 1286 1249 1294 1341 1296 1287 1307 1302 1250 1302 1312 1262 1341 1304 1235 1307 1282 1292 1260 1290 1248 1305 1325 1233 1270 1316 1307 1234 1293 1340 1273 1278 1274 1300 1256 1228 1213 1290 1285 1285 1215 1283 1272 1287 1307 1206 1228 1298 1311 1289 1234 1207 1311 1319 1248 1296 1282 1287 1262 1255 1343 1233 1301 1225 1269 1244 1339 1300 1228 1238 1289 1220 1282 1221 1327 1214 1284 1183 1320 1259 1246 1247 1294 1265 1234 1254 1224 1255 1229 1216 1242 1292 1262 1222 1191 1343 1227 1248 1221 1248 1284 1226 1221 1231 1215 1261 1208 1350 1235 1330 1296 1221 1222 1272 1242 1273 1208 1207 1293 1213 1210 1273 1264 1182 1224 1268 1267 1235 1228 1290 1251 1228 1237 1279 1241 1209 1236 1224 1199 1243 1283 1256 1213 1266 1201 1266 1220 1217 1191 1224 1245 1263 1254 1276 1190 1194 1206 1214 1264 1211 1159 1168 1214 1231 1244 1162 1254 1257 1263 1222 1217 1175 1228 1217 1203 1254 1211 1252 1254 1153 1231 1232 1176 1280 1203 1209 1205 1226 1151 1184 1238 1220 1197 1191 1228 1189 1324 1230 1191 1234 1255 1278 1242 1246 1246 1248 1265 1191 1315 1270 1193 1252 1247 1257 1225 1212 1240 1200 1175 1234 1214 1282 1172 1232 1172 1198 1227 1163 1223 1227 1250 1185 1149 1254 1226 1195 1236 1236 1273 1182 1241 1251 1209 1200 1200 1205 1286 1219 1240 1204 1217 1240 1212 1147 1215 1210 1200 1263 1215 1200 1193 1210 1215 1153 1164 1227 1197 1164 1176 1225 1192 1225 1181 1212 1195 1204 1167 1218 1179 1176 1265 1149 1215 1186 1195 1235 1173 1249 1139 1208 1219 1231 1199 1179 1211 1179 1155 1178 1123 1194 1222 1194 1173 1216 1200 1231 1246 1232 1194 1212 1164 1294 1171 1241 1230 1176 1231 1132 1156 1192 1161 1191 1171 1205 1202 1227 1177 1168 1202 1223 1255 1177 1190 1219 1174 1156 1251 1185 1189 1272 1197 1213 1136 1192 1156 1168 1194 1159 1218 1176 1185 1149 1250 1139 1193 1165 1205 1138 1183 1124 1184 1092 1171 1124 1102 1163 1173 1194 1178 1194 1194 1171 1233 1148 1205 1186 1203 1161 1171 1206 1182 1240 1179 1201 1177 1179 1177 1147 1224 1203 1219 1204 1211 1146 1150 1176 1227 1259 1198 1210 1230 1172 1251 1199 1178 1126 1185 1183 1182 1211 1225 1162 1235 1175 1127 1153 1201 1136 1176 1177 1222 1204 1194 1263 1194 1176 1206 1182 1240 1180 1254 1165 1176 1196 1140 1143 1163 1243 1165 1204 1192 1102 1175 1144 1157 1197 1181 1193 1163 1180 1131 1187 1161 1141 1101 1190 1184 1172 1177 1125 1160 1194 1169 1184 1155 1114 1197 1126 1215 1201 1184 1226 1254 1137 1185 1121 1150 1166 1167 1130 1105 1127 1105 1146 1200 1180 1120 1205 1081 1137 1128 1111 1144 1169 1146 1128 1188 1177 1187 1151 1161 1179 1065 1170 1116 1160 1148 1133 1195 1172 1123 1144 1179 1112 1172 1187 1145 1207 1113 1146 1132 1149 1243 1189 1182 1168 1205 1208 1155 1183 1180 1237 1100 1193 1198 1097 1181 1227 1159 1156 1097 1127 1098 1177 1087 1159 1189 1126 1222 1117 1122 1141 1149 1169 1165 1085 1153 1132 1180 1164 1202 1157 1160 1134 1139 1105 1151 1154 1136 1073 1124 1112 1149 1177 1208 1132 1227 1068 1200 1165 1180 1107 1145 1179 1136 1140 1159 1135 1061 1094 1116 1118 1163 1097 1138 1095 1145 1122 1094 1149 1132 1158 1170 1086 1140 1103 1142 1174 1183 1086 1147 1147 1203 1192 1084 1136 1077 1140 1087 1109 1121 1169 1120 1144 1097 1149 1080 1141 1259 1139 1183 1159 1170 1111 1180 1149 1129 1136 1131 1180 1191 1092 1122 1148 1154 1193 1151 1110 1178 1196 1211 1148 1103 1109 1126 1143 1197 1191 1145 1170 1170 1162 1174 1137 1232 1179 1173 1106 1145 1169 1178 1112 1153 1133 1207 1104 1221 1114 1188 1148 1138 1168 1154 1163 1180 1165 1147 1191 1115 1155 1121 1188 1193 1171 1153 1169 1126 1126 1110 1138 1125 1124 1131 1120 1157 1140 1140 1128 1182 1166 1115 1130 1133 1077 1192 1158 1141 1132 1091 1135 1111 1063 1114 1154 1143 1098 1152 1133 1123 1127 1102 1102 1150 1101 1119 1145 1170 1116 1141 1199 1097 1129 1099 1109 1146 1200 1110 1134 1124 1137 1065 1100 1047 1099 1125 1124 1079 1130 1123 1119 1178 1096 1148 1100 1125 1125 1098 1134 1152 1109 1151 1069 1157 1105 1148 1118 1139 1102 1129 1148 1074 1134 1059 1097 1110 1079 1101 1146 1152 1080 1123 1086 1115 1099 1169 1064 1091 1068 1155 1055 1091 1058 1107 1066 1101 1151 1020 1191 1039 1106 1147 1084 1039 1034 1101 1068 1067 1082 1046 1110 1115 1102 1116 1057 1172 1044 1080 1037 1109 1083 1127 1132 1120 1092 1120 1116 1090 1126 1078 1060 1065 1022 1128 1050 1179 1124 1123 1060 981 1093 1083 1117 1089 1125 1094 1097 1156 1112 1167 1124 1117 1108 1085 1072 1100 1138 1110 1062 1108 1056 1089 1168 1152 1116 1162 1129 1073 1087 1057 1057 1113 1070 1051 1077 1044 1128 1158 1153 1058 1038 1081 1080 983 1110 1067 1130 1059 1132 1116 1059 1066 1120 1099 1127 1066 1124 1049 1120 1071 1062 1057 1028 1045 1084 1122 1101 1072 1093 1082 1099 1068 1181 1012 1050 1079 1074 1078 1075 1112 1075 1097 1101 1091 1113 1099 1099 1072 1117 1117 1115 1077 1085 1074 1042 1130 1109 1104 1058 1138 1085 1064 1100 1134 1109 1114 1080 1110 1087 1076 1070 1106 1108 1034 1121 1128 1114 1093 1093 1098 1082 1096 1046 1071 1046 1013 1089 1074 1015 1112 1101 1158 1041 1063 1026 1033 1097 1156 1050 1016 1085 1051 1078 1082 1087 1090 1074 1106 1090 1133 1215 1072 1048 1053 1097 1072 1145 1044 1123 1067 1060 1083 1124 1155 1132 1117 1090 1055 1126 1104 1075 1130 1170 1157 1150 1176 1136 1148 1162 1118 1167 1202 1205 1184 1167 1204 1203 1225 1201 1171 1202 1209 1201 1175 1216 1290 1264 1206 1186 1251 1245 1335 1279 1341 1285 1294 1290 1328 1326 1290 1307 1366 1263 1296 1285 1328 1318 1330 1294 1270 1312 1403 1365 1305 1268 1271 1271 1379 1274 1265 1260 1231 1254 1274 1319 1260 1242 1318 1262 1251 1305 1256 1331 1230 1275 1242 1241 1260 1218 1328 1231 1271 1256 1248 1191 1211 1190 1215 1163 1177 1195 1196 1249 1162 1087 1158 1129 1131 1136 1146 1118 1166 1145 1177 1149 1125 1144 1152 1149 1145 1208 1177 1099 1183 1086 1084 1103 1062 1080 1092 1174 1088 1067 1096 1109 1138 1081 1143 1061 1053 1090 1054 1117 1066 1058 1098 1082 1061 1117 1028 1080 1064 1056 1074 1079 1083 1041 1113 1028 1011 1123 1019 1005 1023 1121 1137 1070 1059 1034 1068 1108 1054 1092 1077 1093 1137 1034 1060 1047 1117 1085 1084 1021 1082 1125 1069 1125 1082 1101 1081 1098 1056 1044 1005 1037 1062 1075 1038 1060 1084 1024 1082 1076 1026 1036 1020 1043 1016 1044 1047 1120 1030 1032 1019 1087 1020 1073 1018 1058 1000 1026 1037 1080 1025 1037 1012 982 1004 1029 974 1044 1009 1044 1075 957 977 948 977 999 982 1018 996 1002 1037 1060 1016 1027 1042 1039 1019 1075 1025 995 1026 1007 1025 994 1104 1033 1082 1035 993 1002 1023 1005 1019 1042 1014 1033 990 1126 992 1050 1043 1058 1000 1050 1071 965 1010 1058 971 1064 1012 1067 1026 1055 1000 985 976 1074 1036 990 1052 1065 1053 1119 1058 1090 1037 1049 1020 1023 1069 1044 1007 1056 1017 1094 1031 1080 1034 1089 1092 1116 1021 992 1073 1033 1143 1010 1038 1079 1062 1087 989 1029 1014 1098 1050 1070 1018 1058 988 1029 973 1029 1034 1012 1040 1038 1009 940 1016 1031 994 980 1047 1007 1029 1021 994 1079 959 1070 1000 998 979 1040 988 984 1014 1029 993 1046 1000 1025 973 974 1036 1012 955 973 993 1012 1032 1036 1010 1039 950 984 1009 1051 945 989 991 958 981 963 927 950 999 928 1038 1010 1016 971 982 1008 997 1014 1013 996 1005 976 972 992 1012 965 988 991 1023 954 946 991 991 994 1021 970 991 975 1022 1014 970 964 984 945 941 990 1023 998 988 1043 1029 966 1036 1000 966 1002 1007 1003 986 970 993 1000 1010 1009 1045 1019 957 957 974 997 947 1007 1046 1006 999 997 947 992 916 958 943 968 993 989 960 1008 938 992 939 1009 930 963 935 958 1004 995 1009 1019 944 1005 1000 972 962 935 987 993 965 1008 943 989 936 1009 1008 1006 944 964 989 1029 977 998 982 976 1005 959 973 1026 1010 976 994 997 979 963 995 994 943 949 969 996 1000 958 950 964 963 943 1020 971 977 994 1007 956 1031 995 1015 990 943 960 974 965 989 975 1001 991 992 986 877 1010 971 965 924 962 912 958 966 998 976 986 977 997 969 958 988 968 966 980 948 973 922 935 1008 973 967 968 1018 895 952 950 932 960 955 980 964 964 936 948 947 1013 964 909 987 905 911 891 994 981 1025 986 940 976 963 971 936 897 944 1008 931 935 971 914 962 927 922 945 961 915 996 944 997 934 890 932 931 1001 918 965 945 1000 976 984 992 902 948 994 921 1007 921 927 915 912 961 941 967 924 882 948 1017 904 980 921 959 978 896 901 968 892 953 910 899 927 961 924 956 952 1000 958 974 942 963 935 927 941 957 974 915 959 924 932 921 900 967 973 967 955 944 917 954 1020 967 1015 942 989 929 925 934 956 942 1014 972 906 962 950 947 946 909 937 926 922 974 997 884 955 960 955 892 962 950 929 937 908 991 903 926 976 908 945 937 969 931 978 916 917 957 856 877 920 937 907 924 921 972 907 881 946 955 970 943 983 1000 920 927 995 941 1018 971 1021 981 903 1020 953 945 954 924 953 934 967 957 951 953 880 960 960 900 962 911 899 948 939 976 932 922 979 911 926 934 950 934 977 946 956 900 960 972 982 908 920 956 912 933 913 1013 946 926 971 926 955 901 923 954 988 937 954 949 964 993 958 985 899 901 915 960 968 886 938 954 961 924 906 971 1014 900 906 964 886 948 935 942 955 965 980 869 961 984 983 947 923 961 976 942 970 934 909 946 909 942 965 902 898 925 943 910 946 867 942 905 903 961 959 965 898 942 922 934 892 919 950 950 882 917 965 915 937 918 965 928 907 942 931 912 942 890 887 887 877 913 890 946 933 907 913 924 922 962 953 956 948 894 899 925 926 912 910 952 901 907 966 869 914 888 907 931 962 949 929 936 827 930 859 962 940 962 923 910 945 920 942 950 882 919 914 931 920 919 930 831 909 885 967 861 910 945 950 900 927 938 967 924 915 988 923 958 889 898 891 869 907 989 882 910 942 929 885 902 936 939 928 862 961 925 988 840 923 856 893 965 886 903 938 956 914 936 921 896 935 887 953 963 891 915 911 933 877 864 911 940 918 899 898 869 868 924 955 934 921 908 887 856 934 914 896 914 891 933 918 908 902 924 925 919 930 895 962 979 949 898 897 948 888 955 860 954 920 931 854 886 910 936 961 899 907 940 913 887 868 929 914 911 912 914 936 949 927 945 889 965 884 917 917 914 911 867 913 841 849 937 907 877 855 933 881 910 919 945 927 908 923 951 927 897 911 969 933 933 915 890 896 916 873 944 925 891 891 889 924 897 928 949 924 903 929 946 891 925 917 866 894 914 928 851 935 910 979 866 917 917 861 913 928 878 887 879 851 920 924 935 878 911 901 888 873 820 904 948 884 933 864 943 899 842 930 926 891 899 924 925 895 909 892 896 925 915 856 940 879 921 937 916 864 881 947 903 913 919 933 895 935 936 914 930 909 909 941 932 969 941 898 946 897 924 924 958 921 885 925 980 907 942 937 924 924 885 922 947 945 922 897 929 940 918 954 929 908 900 895 919 935 902 1018 933 924 898 898 890 851 955 991 908 933 904 907 968 957 931 944 901 950 922 850 929 909 913 894 862 929 856 938 876 929 935 865 871 914 816 875 900 891 893 889 949 939 896 931 937 847 896 871 912 874 932 819 877 927 866 811 883 901 923 869 845 878 865 845 877 903 830 922 963 889 875 883 851 855 887 834 850 896 858 845 888 890 875 903 808 914 881 938 841 849 890 880 893 867 865 877 849 842 857 868 832 863 929 865 892 862 880 886 856 853 825 881 908 835 813 910 859 882 852 795 883 916 868 828 949 871 811 898 872 877 934 810 893 920 889 891 853 857 869 874 925 893 856 841 910 817 888 884 832 913 896 856 871 876 927 846 848 853 834 884 841 875 809 867 857 858 896 864 852 869 870 876 902 880 858 865 878 809 852 811 924 812 890 878 922 875 830 864 833 893 901 891 891 864 880 845 881 894 819 921 833 888 866 826 889 902 907 841 906 868 858 904 886 865 861 847 845 895 835 866 861 911 890 851 853 762 898 848 920 858 837 836 875 880 836 901 893 886 824 900 862 885 856 832 896 882 841 840 869 856 850 836 826 859 840 838 865 873 837 862 842 888 847 853 847 873 825 780 849 849 842 850 917 859 824 842 817 834 864 852 828 866 854 905 870 850 858 852 905 808 917 882 850 870 831 845 854 830 892 844 832 791 808 862 873 852 833 846 858 907 824 858 902 824 829 886 858 803 855 879 847 798 844 820 850 815 895 892 824 815 881 805 843 856 904 793 897 841 852 868 841 873 812 875 820 891 852 819 859 834 825 864 825 828 765 854 876 842 825 845 858 837 838 862 809 824 817 838 846 888 828 865 821 849 826 844 852 906 841 864 835 824 819 785 883 896 786 832 861 790 846 825 817 812 846 875 910 836 844 836 829 819 775 836 861 835 802 814 860 829 890 833 842 832 825 866 854 869 823 833 779 856 831 828 830 811 848 857 866 887 809 802 828 790 821 836 814 812 871 809 816 828 823 787 827 824 840 840 839 854 853 802 851 811 784 784 862 858 895 834 873 840 799 856 821 874 837 884 809 842 844 821 817 785 811 866 839 883 842 878 830 819 782 802 827 830 834 845 787 831 818 817 851 843 814 816 834 857 942 813 856 816 833 820 801 841 773 848 875 910 819 796 840 858 886 876 856 820 840 835 852 792 828 819 826 833 838 847 815 835 823 833 823 753 909 856 877 845 803 838 769 851 827 818 847 839 818 852 842 843 854 860 801 860 881 813 847 841 811 823 837 848 871 821 873 828 834 848 806 837 845 810 806 785 862 820 834 806 788 879 851 878 801 853 847 786 839 851 823 830 822 848 818 779 830 817 846 803 835 828 767 877 834 870 834 767 858 838 807 817 837 736 840 864 805 831 820 842 908 808 848 821 850 825 845 817 851 898 850 853 805 881 877 747 835 799 811 860 853 851 811 847 853 835 794 803 800 806 837 882 862 855 809 807 800 850 822 816 790 823 813 823 810 877 819 820 818 798 789 865 842 809 839 799 776 810 818 817 806 819 830 841 830 830 854 801 802 841 831 887 858 806 864 810 838 856 881 883 784 864 841 832 830 812 816 848 830 786 793 826 819 812 821 804 824 822 873 839 883 876 818 793 791 803 821 854 801 792 838 837 805 871 817 803 791 823 820 806 826 819 829 818 856 864 849 799 784 834 835 823 794 823 828 810 851 861 788 867 816 849 821 863 783 856 800 844 817 807 831 825 826 793 800 862 822 858 801 787 827 792 825 820 793 785 830 799 821 812 830 806 831 789 814 778 854 857 810 853 774 791 827 838 830 813 822 859 855 821 814 754 824 814 836 777 769 813 764 873 738 822 806 794 837 821 791 788 802 808 800 774 779 800 798 812 817 807 825 778 813 806 830 813 790 829 819 821 794 752 824 779 815 814 876 786 873 827 794 801 806 824 818 757 803 792 827 780 810 831 813 824 749 798 798 773 768 827 837 798 837 772 816 744 791 790 843 818 808 820 852 791 806 817 848 824 850 825 816 796 806 818 812 806 807 771 796 786 781 791 766 835 784 852 765 805 848 786 839 835 870 788 827 813 803 815 708 758 810 842 821 811 815 847 808 762 827 852 797 810 846 809 837 807 842 784 842 806 832 813 814 778 868 786 820 823 783 840 834 869 865 781 810 846 777 794 805 819 792 759 779 766 817 778 798 804 862 821 783 732 866 793 836 784 812 914 817 831 851 875 811 790 794 801 822 830 792 834 820 801 854 779 804 848 812 782 896 818 872 818 829 805 806 813 828 800 806 763 824 826 828 823 794 799 864 854 868 744 793 791 813 845 844 806 823 785 829 815 806 817 857 785 811 814 798 791 807 809 774 827 822 798 801 768 821 810 787 745 852 795 824 791 817 773 790 784 822 815 829 773 827 788 814 817 813 857 800 831 810 816 848 812 774 826 788 815 792 787 825 810 816 810 768 808 803 856 815 819 826 787 801 829 815 794 783 798 793 791 813 859 814 821 834 792 738 805 842 843 786 787 830 829 833 851 807 786 796 827 799 748 819 801 814 842 851 771 782 789 778 847 799 743 780 761 785 746 819 797 817 792 764 771 803 808 821 804 793 773 791 821 762 793 761 875 785 820 765 784 815 789 797 796 798 819 786 806 831 820 820 825 794 825 814 809 855 852 831 804 785 799 817 781 851 828 800 776 784 792 839 803 795 824 789 758 843 821 838 825 808 803 826 785 773 801 842 839 803 836 807 785 791 772 728 823 861 776 861 759 814 785 787 797 785 805 816 813 766 779 778 778 750 802 755 827 739 816 769 830 796 827 841 808 814 840 779 798 819 798 810 850 742 759 811 788 777 777 751 763 836 792 794 803 831 769 806 816 798 806 745 799 807 794 772 811 762 811 735 745 771 770 810 767 800 826 853 787 752 814 807 767 793 753 784 782 806 834 805 752 811 841 795 796 843 806 818 776 707 766 798 800 790 738 797 774 792 773 781 795 811 817 798 799 846 785 824 788 784 817 811 778 793 833 799 806 769 763 808 800 769 800 813 759 779 766 855 800 780 783 758 795 775 803 805 794 777 761 776 805 731 758 828 790 802 751 818 802 810 775 800 816 773 841 803 741 807 741 779 776 796 784 796 832 787 820 789 762 716 737 775 793 851 778 842 760 772 797 798 762 728 724 824 775 826 807 763 818 814 775 818 820 784 780 766 823 753 801 781 764 802 787 803 799 761 846 810 780 782 799 768 844 821 793 805 772 749 854 826 822 752 803 792 819 837 805 774 785 765 827 762 778 765 766 765 719 781 817 767 820 804 802 786 755 808 807 820 815 805 813 811 848 798 803 772 763 741 828 792 785 818 860 811 766 808 790 828 809 766 767 824 819 822 774 762 769 773 728 840 784 808 803 807 799 834 772 806 821 792 771 780 816 860 809 784 784 827 811 791 810 766 773 804 764 823 830 781 801 787 792 823 808 785 842 777 811 794 827 825 755 755 807 780 859 773 784 769 794 783 794 829 766 761 777 781 750 769 808 813 785 795 768 804 756 795 736 824 788 863 805 777 807 817 808 767 797 825 740 790 800 803 783 777 745 811 774 766 822 744 759 805 787 826 753 785 745 802 773 788 789 767 796 760 776 780 797 801 832 744 801 804 800 832 796 776 809 804 758 804 829 796 765 750 825 809 808 782 794 755 797 775 792 759 774 767 807 844 793 826 763 757 812 741 805 772 792 804 788 816 815 792 803 811 766 772 857 794 769 779 852 752 841 802 801 823 854 834 841 820 778 832 810 704 827 829 813 793 811 797 738 819 775 796 804 781 769 801 782 786 806 814 813 755 800 812 795 760 789 774 798 791 832 826 826 837 823 803 824 802 769 837 786 794 849 822 779 767 824 784 776 785 763 797 799 793 826 814 805 854 807 773 836 808 813 819 777 811 812 797 791 805 805 744 854 783 795 774 842 791 869 850 786 789 788 839 827 809 824 811 772 765 772 756 736 785 798 772 813 753 781 807 746 805 789 805 804 791 803 811 741 784 777 847 816 819 795 744 800 766 811 807 804 807 822 813 786 772 772 859 758 827 794 812 820 813 771 823 807 845 790 819 808 772 830 762 770 790 751 802 816 822 751 844 741 841 795 834 783 809 785 780 793 818 751 840 817 803 784 816 777 865 783 779 798 826 820 823 772 787 812 743 755 815 782 859 857 818 802 836 814 811 790 788 820 804 821 751 794 781 800 792 764 821 813 786 789 826 856 812 810 748 825 774 774 767 782 838 760 851 821 830 768 779 804 784 757 824 805 801 851 782 794 751 819 786 829 835 791 758 790 738 798 775 829 782 818 825 823 776 771 789 805 797 805 797 841 785 803 722 883 805 794 845 777 811 814 819 809 784 804 792 832 778 821 789 841 786 801 772 786 796 792 765 832 781 828 844 815 795 822 805 766 779 782 809 820 741 837 819 779 815 844 837 826 820 786 807 821 870 770 801 766 776 833 806 776 839 809 729 785 772 788 820 816 761 797 812 767 753 811 803 793 809 782 804 787 811 760 776 789 808 824 834 856 781 802 844 843 800 790 802 758 790 836 823 770 807 838 770 746 806 830 795 821 842 776 868 751 785 833 788 793 778 837 778 767 843 777 836 788 800 819 768 752 732 783 783 802 833 776 841 815 727 722 739 753 775 779 858 790 760 807 813 799 818 778 778 803 770 799 786 772 753 802 807 742 755 805 804 822 760 711 786 758 749 788 806 757 790 780 803 779 796 754 747 787 743 771 759 742 767 761 866 728 790 819 789 783 800 773 792 734 788 776 753 766 799 803 821 827 795 738 811 802 809 781 784 777 812 778 789 809 797 757 780 756 766 780 789 763 779 784 749 789 817 761 802 769 784 758 804 784 811 771 809 782 740 757 793 764 792 758 763 780 779 784 775 712 730 874 774 802 815 715 794 784 783 763 743 747 809 824 826 783 748 820 768 783 784 780 750 811 720 813 702 758 743 764 765 793 800 793 785 740 741 797 728 778 772 776 774 755 796 736 741 756 737 769 728 729 766 789 803 798 741 792 788 725 811 704 791 815 782 760 738 775 771 741 785 718 681 732 759 822 773 766 787 723 806 784 772 801 753 783 795 772 764 771 724 750 746 784 755 778 781 784 756 730 758 777 824 786 740 783 748 752 750 814 792 738 791 749 747 811 762 739 724 740 747 757 794 735 723 776 768 737 769 788 827 768 814 768 770 721 764 714 785 781 731 711 729 768 794 775 786 731 778 762 723 743 801 744 689 828 782 769 735 764 741 739 816 747 740 734 671 744 741 740 786 746 760 797 771 749 762 768 716 777 757 756 736 749 759 785 730 737 782 745 744 757 731 740 726 701 771 685 722 762 750 784 741 728 805 757 778 768 723 776 746 779 759 766 778 736 731 730 769 781 754 762 766 785 745 775 696 778 780 746 807 767 769 753 754 734 719 780 772 752 749 723 815 761 736 771 707 754 759 793 745 784 812 777 773 780 688 783 794 784 782 702 716 722 732 753 832 741 749 751 804 788 763 762 762 718 705 791 757 744 753 762 719 778 774 741 812 814 718 740 768 751 774 748 727 714 778 750 748 736 740 775 697 769 753 763 763 727 713 775 752 736 732 772 760 710 794 773 752 743 777 743 722 734 790 790 740 753 737 733 791 692 734 747 748 757 745 744 806 728 723 785 753 769 755 752 742 740 685 766 753 756 778 805 804 775 780 732 778 741 786 783 779 759 739 765 793 730 763 738 699 724 719 738 718 777 717 779 778 735 748 740 794 755 783 757 760 734 743 710 749 743 723 757 702 777 765 795 754 765 748 733 745 709 807 784 769 770 750 770 766 732 738 727 732 750 724 742 787 753 742 780 728 727 790 741 761 739 766 750 798 711 746 801 761 750 700 738 731 750 729 752 810 715 731 773 729 753 755 777 754 779 771 782 724 772 738 772 759 746 760 794 766 764 730 721 739 789 721 702 751 762 769 748 751 767 708 746 811 755 769 781 743 790 762 793 821 731 765 734 752 734 706 710 746 754 712 739 707 748 789 761 755 796 781 787 755 777 756 816 792 724 731 748 723 714 731 723 730 719 745 723 766 745 764 744 771 746 755 738 744 748 770 748 760 754 736 734 742 729 767 749 779 769 743 760 779 717 746 741 754 737 749 759 757 741 724 742 766 724 747 744 735 707 707 760 750 732 772 727 715 748 804 745 759 756 745 699 740 715 712 706 726 740 796 781 740 761 815 662 759 744 707 740 716 739 803 763 755 730 743 729 739 733 693 744 737 762 690 772 712 720 744 744 730 796 759 754 729 725 720 742 707 691 717 746 754 777 778 723 716 741 733 774 696 736 764 744 791 687 735 691 768 761 788 708 771 735 684 728 775 783 738 795 734 721 725 771 749 728 730 723 718 721 722 774 730 776 738 734 771 732 776 763 690 758 737 718 753 779 758 755 712 744 746 755 759 746 727 755 720 753 755 794 758 710 730 742 744 751 775 705 703 788 738 739 786 722 728 738 755 726 757 734 732 732 721 762 766 697 745 805 738 736 762 753 686 759 744 752 778 749 757 755 715 767 729 722 687 756 759 742 774 736 746 682 757 772 725 743 687 774 733 771 688 754 701 743 773 715 734 770 752 747 734 782 724 777 702 815 742 752 792 760 794 788 781 721 787 728 753 794 771 754 756 729 752 730 741 754 718 730 759 780 753 787 746 781 807 723 724 732 729 779 759 717 763 733 726 732 770 741 718 748 752 738 797 755 733 700 705 725 740 741 737 788 716 737 750 709 729 739 765 785 711 748 727 722 761 704 724 727 771 732 711 779 784 750 746 781 772 677 772 740 684 700 752 711 749 767 762 747 741 706 711 711 733 695 692 793 771 763 736 729 742 731 772 754 693 733 716 713 756 709 751 714 680 753 757 745 715 711 740 705 726 747 743 731 717 773 740 700 691 722 758 746 785 732 717 786 828 723 706 733 709 762 745 753 758 809 754 757 742 751 759 738 703 756 751 726 728 737 661 763 712 713 738 735 707 713 713 721 729 679 692 703 721 696 715 744 716 707 679 743 750 711 772 716 742 736 722 718 739 756 742 693 717 700 708 779 773 712 700 759 702 727 712 733 756 748 700 722 731 709 778 749 741 728 726 750 740 732 782 699 744 741 734 704 766 800 738 785 736 692 733 690 744 728 734 753 725 716 744 705 692 767 736 747 703 727 718 725 720 736 726 719 687 704 737 704 772 736 745 736 758 779 686 738 794 783 758 736 725 732 764 731 753 733 743 731 749 735 746 706 675 705 658 748 728 704 747 721 671 691 741 753 726 691 774 735 741 769 718 731 714 730 718 686 721 742 730 735 740 720 724 746 732 741 745 701 741 728 719 768 753 791 751 694 729 696 749 740 742 740 747 743 743 727 727 747 698 743 697 741 738 739 702 734 697 710 721 684 740 722 750 762 770 759 817 754 744 697 707 665 673 693 742 744 732 748 691 715 738 727 754 683 714 740 755 748 762 670 728 736 737 699 749 746 700 736 740 713 691 712 762 661 749 710 724 664 767 713 733 732 757 682 826 741 695 686 732 709 695 682 692 671 737 712 735 696 708 656 679 739 704 682 763 744 746 753 705 745 757 755 705 721 733 701 750 715 730 752 772 721 745 736 781 703 704 751 720 694 673 702 726 721 719 696 713 700 704 698 714 727 736 734 685 748 732 703 708 740 678 720 702</counts>
			</dataPoints>
		</scan>
	</xrdMeasurement>
</xrdMeasurements>
