<?xml version="1.0"?>
<xrdMeasurements xmlns="http://www.xrdml.com/XRDMeasurement/2.3" xmlns:xsi="http://www.w3.org/2001/XMLSchema-instance" xsi:schemaLocation="http://www.xrdml.com/XRDMeasurement/2.3 http://www.xrdml.com/XRDMeasurement/2.3/XRDMeasurement.xsd" status="Completed" recordIdentifier="{A2DC8350-0746-49CC-91C7-232C9589FFEF}">
	<comment>
		<entry/>
	</comment>
	<sample type="To be analyzed">
		<id>GPSS_Li2Co0p5Mn0p5Cl4_100725_68e5a8e007cf888582f935cc</id>
		<name></name>
		<preparedBy></preparedBy>
	</sample>
	<xrdMeasurement measurementType="Scan" status="Completed" sampleMode="Reflection">
		<usedWavelength intended="K-Alpha 1">
			<kAlpha1 unit="Angstrom">1.5405980</kAlpha1>
			<kAlpha2 unit="Angstrom">1.5444260</kAlpha2>
			<kBeta unit="Angstrom">1.3922500</kBeta>
			<ratioKAlpha2KAlpha1>0.5000</ratioKAlpha2KAlpha1>
		</usedWavelength>
		<incidentBeamPath>
			<radius unit="mm">145.00</radius>
			<xRayTube id="1010048" name="Empyrean Cu LFF HR (9430 033 7310x)">
				<tension unit="kV">40.0</tension>
				<current unit="mA">15.0</current>
				<anodeMaterial>Cu</anodeMaterial>
				<focus type="Line">
					<length unit="mm">12.0</length>
					<width unit="mm">0.4</width>
					<takeOffAngle unit="deg">6.0</takeOffAngle>
				</focus>
			</xRayTube>
			<sollerSlit id="21010002" name="Soller slits 0.04 rad.">
				<opening unit="rad">0.0400</opening>
			</sollerSlit>
			<mask id="22031000" name="Fixed mask 13 mm">
				<width unit="mm">9.00</width>
			</mask>
			<divergenceSlit id="22120001" name="Divergence slit 1°" xsi:type="fixedDivergenceSlitType">
				<distanceToSample unit="mm">50.00</distanceToSample>
				<height unit="mm">1.52</height>
			</divergenceSlit>
		</incidentBeamPath>
		<sampleMovement xsi:type="spinningSampleMovementType">
			<spinnerRevolutionTime unit="seconds">1.0</spinnerRevolutionTime>
		</sampleMovement>
		<diffractedBeamPath>
			<radius unit="mm">145.00</radius>
			<antiScatterSlit id="22090040" name="AS slit 9 mm (PIXcel)" xsi:type="fixedAntiScatterSlitType">
				<height unit="mm">9.00</height>
			</antiScatterSlit>
			<sollerSlit id="21020003" name="Large Soller slits 0.04 rad.">
				<opening unit="rad">0.0400</opening>
			</sollerSlit>
			<filter id="20030001" name="Large beta-filter Nickel">
				<material>Ni</material>
				<thickness unit="mm">0.020</thickness>
			</filter>
			<detector id="7010019" name="PIXcel1D-Medipix3 detector" xsi:type="rtmsDetectorType">
				<phd unit="keV">
					<lowerLevel>4.02</lowerLevel>
					<upperLevel>11.27</upperLevel>
				</phd>
				<mode>Scanning</mode>
				<activeLength unit="deg">5.542</activeLength>
			</detector>
		</diffractedBeamPath>
		<scan appendNumber="0" mode="Continuous" scanAxis="Gonio" status="Completed">
			<header>
				<startTimeStamp>2025-10-09T14:31:23-07:00</startTimeStamp>
				<endTimeStamp>2025-10-09T14:39:30-07:00</endTimeStamp>
				<author>
					<name>AutomatedUser</name>
				</author>
				<source>
					<applicationSoftware version="1.7b (136)">PANalytical Aeris Instrument Suite</applicationSoftware>
					<instrumentControlSoftware version="3.2.00000000 20240306">AERIS</instrumentControlSoftware>
					<instrumentID>950485</instrumentID>
				</source>
			</header>
			<dataPoints>
				<positions axis="2Theta" unit="deg">
					<startPosition>10.00943322</startPosition>
					<endPosition>99.99442286</endPosition>
				</positions>
				<positions axis="Omega" unit="deg">
					<startPosition>5.00471661</startPosition>
					<endPosition>49.99721143</endPosition>
				</positions>
				<commonCountingTime unit="seconds">12.495</commonCountingTime>
				<counts unit="counts">3132 3085 2981 3100 3138 3005 3067 3025 3053 3002 3133 3013 3142 2973 3062 3048 3100 3098 3096 3076 3114 3067 3064 3097 3011 3125 3138 3192 3138 3010 3034 3030 3109 3093 2995 3156 3087 3124 3072 3127 3133 2979 3050 3069 3070 3157 3145 3148 3117 3156 3187 3082 3220 3196 3165 3137 3168 3137 3195 3076 3139 3228 3095 3152 3257 3196 3163 3160 3156 3047 3275 3220 3256 3254 3307 3194 3153 3197 3239 3210 3139 3229 3213 3150 3323 3135 3236 3296 3211 3235 3179 3218 3265 3265 3228 3295 3275 3301 3210 3236 3212 3234 3266 3310 3111 3119 3147 3286 3153 3198 3208 3232 3216 3148 3286 3139 3201 3228 3220 3122 3258 3231 3211 3158 3250 3279 3173 3144 3137 3252 3175 3166 3324 3242 3187 3204 3167 3231 3236 3266 3156 3082 3226 3131 3133 3204 3188 3147 3174 3189 3216 3175 3215 3275 3171 3190 3314 3082 3207 3207 3171 3310 3188 3190 3222 3218 3280 3122 3241 3245 3176 3198 3329 3160 3205 3112 3274 3296 3294 3308 3139 3220 3115 3240 3211 3209 3193 3253 3197 3185 3188 3227 3140 3208 3135 3161 3242 3220 3318 3256 3269 3229 3313 3188 3203 3232 3222 3296 3284 3181 3210 3181 3162 3246 3222 3193 3224 3211 3212 3267 3151 3312 3235 3155 3241 3324 3170 3188 3288 3284 3151 3266 3247 3240 3358 3245 3373 3272 3248 3099 3197 3356 3222 3192 3235 3283 3208 3262 3226 3244 3236 3208 3293 3259 3308 3279 3268 3241 3243 3284 3159 3259 3179 3197 3297 3107 3200 3251 3310 3313 3234 3369 3259 3316 3264 3198 3277 3201 3344 3396 3348 3267 3215 3178 3325 3330 3334 3253 3410 3324 3376 3297 3401 3264 3275 3335 3331 3319 3307 3438 3220 3517 3339 3382 3384 3351 3391 3331 3351 3402 3450 3372 3289 3487 3389 3350 3495 3505 3454 3492 3493 3379 3403 3431 3428 3434 3490 3521 3445 3438 3529 3462 3453 3496 3469 3588 3518 3516 3579 3485 3542 3546 3510 3555 3600 3592 3614 3548 3586 3670 3656 3591 3597 3559 3630 3501 3699 3668 3728 3696 3717 3717 3813 3643 3794 3751 3690 3628 3765 3693 3548 3666 3641 3842 3662 3764 3781 3777 3818 3792 3791 3682 3729 3929 3715 3689 3869 3921 3790 3825 3930 3842 3905 3847 3914 3783 3882 3704 3766 3919 3845 3793 4021 3838 3969 3913 3967 4051 4108 3932 3881 3831 3910 3870 4002 3998 3975 3976 4054 4095 3998 4082 4046 3989 3989 4046 4044 4051 4227 4086 4329 4317 4256 4232 4357 4278 4291 4354 4305 4392 4531 4601 4429 4563 4527 4621 4601 4738 4687 4774 4825 4896 4832 4848 4805 4961 4880 5008 5043 5146 5004 5051 5117 5040 4999 5055 5057 4987 5062 4915 5020 4931 4944 4852 4817 4902 4827 4954 4868 4899 4919 4764 4782 4877 4751 4760 4703 4753 4765 4696 4684 4679 4578 4583 4678 4592 4559 4567 4490 4418 4593 4653 4460 4437 4469 4456 4448 4394 4427 4397 4221 4548 4308 4218 4294 4364 4239 4161 4255 4193 4160 4092 4154 4275 3978 4085 3959 4067 4091 3919 3922 3836 3852 3891 3929 3946 3835 3862 3879 3783 3850 3869 3762 3812 3791 3834 3782 3771 3795 3696 3765 3696 3716 3808 3791 3686 3828 3767 3734 3799 3765 3771 3579 3733 3699 3684 3751 3658 3722 3745 3762 3704 3694 3543 3617 3652 3662 3689 3643 3727 3540 3735 3548 3686 3514 3705 3619 3617 3705 3580 3673 3647 3640 3602 3698 3611 3645 3610 3687 3674 3673 3592 3686 3442 3696 3639 3548 3636 3551 3693 3645 3652 3645 3578 3599 3511 3566 3723 3500 3600 3768 3538 3602 3611 3671 3599 3517 3634 3539 3551 3641 3532 3655 3559 3505 3665 3510 3696 3712 3585 3680 3558 3563 3614 3541 3609 3563 3702 3643 3524 3747 3579 3642 3662 3526 3579 3711 3641 3500 3577 3604 3587 3707 3650 3591 3560 3756 3666 3645 3663 3699 3712 3673 3707 3688 3641 3529 3599 3632 3701 3479 3611 3703 3714 3663 3591 3706 3525 3740 3693 3616 3510 3627 3599 3563 3576 3531 3619 3583 3575 3762 3541 3605 3541 3597 3514 3525 3548 3566 3533 3490 3448 3607 3517 3396 3585 3508 3473 3576 3582 3591 3439 3544 3557 3523 3662 3481 3544 3423 3469 3485 3480 3488 3500 3468 3495 3493 3449 3576 3621 3447 3526 3640 3545 3493 3495 3563 3659 3481 3430 3465 3487 3569 3394 3480 3621 3548 3508 3498 3452 3565 3599 3531 3511 3561 3475 3381 3422 3517 3518 3546 3567 3535 3442 3586 3498 3578 3444 3573 3472 3460 3430 3390 3474 3435 3441 3529 3448 3543 3370 3469 3443 3500 3408 3459 3434 3481 3454 3398 3535 3489 3532 3449 3508 3573 3477 3513 3425 3439 3540 3475 3529 3513 3576 3457 3381 3404 3425 3386 3391 3486 3561 3532 3487 3328 3515 3538 3482 3505 3407 3547 3463 3517 3486 3516 3513 3532 3547 3551 3467 3477 3406 3449 3537 3458 3512 3446 3511 3377 3491 3560 3442 3448 3421 3458 3375 3502 3459 3450 3380 3329 3477 3346 3389 3509 3471 3527 3409 3471 3507 3481 3534 3485 3443 3433 3387 3464 3471 3378 3432 3448 3398 3446 3508 3462 3594 3350 3430 3345 3404 3466 3400 3371 3425 3392 3452 3392 3514 3461 3447 3413 3333 3370 3458 3416 3420 3486 3323 3380 3482 3460 3399 3381 3402 3375 3425 3454 3367 3444 3286 3417 3259 3484 3341 3465 3393 3291 3343 3289 3464 3393 3393 3435 3270 3355 3449 3343 3318 3332 3383 3380 3446 3391 3375 3515 3426 3405 3369 3362 3410 3438 3339 3376 3328 3358 3342 3329 3503 3372 3301 3320 3418 3279 3402 3290 3384 3371 3243 3233 3376 3319 3349 3363 3292 3397 3316 3341 3316 3342 3271 3388 3343 3502 3281 3372 3403 3336 3373 3318 3352 3392 3400 3377 3273 3350 3416 3441 3406 3328 3424 3304 3339 3393 3246 3341 3411 3282 3450 3339 3374 3310 3349 3292 3324 3338 3358 3452 3410 3367 3383 3406 3318 3344 3382 3362 3345 3479 3340 3421 3383 3380 3388 3306 3350 3429 3339 3283 3488 3442 3320 3306 3311 3438 3450 3333 3392 3419 3405 3384 3417 3427 3448 3388 3379 3399 3251 3429 3339 3272 3462 3400 3390 3401 3311 3334 3278 3381 3361 3374 3345 3437 3336 3388 3469 3467 3309 3384 3390 3436 3453 3475 3461 3378 3373 3424 3354 3484 3488 3378 3361 3421 3373 3519 3425 3356 3341 3341 3356 3326 3383 3360 3370 3349 3295 3310 3389 3361 3370 3445 3380 3332 3378 3373 3326 3448 3412 3348 3383 3339 3275 3396 3415 3312 3455 3360 3370 3337 3398 3427 3404 3329 3249 3371 3352 3426 3352 3473 3421 3331 3350 3355 3258 3296 3331 3306 3353 3323 3189 3212 3179 3373 3354 3273 3396 3359 3383 3421 3310 3304 3404 3307 3315 3364 3245 3248 3344 3241 3238 3167 3134 3216 3245 3285 3199 3369 3220 3318 3169 3271 3219 3290 3051 3225 3279 3117 3269 3332 3238 3225 3251 3194 3323 3250 3167 3250 3205 3149 3120 3146 3179 3158 3078 3143 3127 3023 3055 3047 3173 3135 3015 3144 3111 3165 3065 3027 3059 3159 3124 3081 3083 3040 2944 3050 3095 2973 3011 3060 3058 2931 3096 2984 3044 3107 3073 2949 3068 3073 3068 3034 3009 3000 3103 3041 2981 3038 2953 2977 2960 3026 3018 2974 3002 2996 3067 3063 3071 3056 3027 2963 3002 2981 2911 2989 3013 2861 2897 2993 3014 2926 2955 2915 2844 2944 2889 2889 2886 3010 2848 2965 2921 2836 2779 2943 2884 2803 2841 2923 2857 2956 2912 2969 2938 2807 2958 2980 2930 2942 2941 2900 2902 2916 2873 2877 2842 2899 2933 2832 2912 2961 2803 2872 2838 2913 2858 2963 2889 2909 2900 2871 2887 3040 2905 2842 2986 2882 2927 2918 2838 2963 2868 2893 2919 2850 2898 2981 2902 2795 2959 2920 2816 2923 2915 2936 2864 2925 2925 2901 2947 2965 2897 2987 2914 2896 3055 2908 2869 2977 2836 2946 2922 3025 2931 2866 2931 2827 2956 2889 2948 2896 2875 2830 2918 2874 2858 2839 2870 2979 2924 2836 2908 2846 2895 2922 2848 3009 2887 2959 2905 2891 2921 2812 2835 2793 2869 2869 2794 2829 2786 2940 2820 2850 2871 2888 2805 2869 2928 2890 2843 2807 2825 2851 2819 2928 2925 2812 2868 2743 2973 2791 2796 2839 2831 2893 2832 2804 2852 2752 2772 2848 2796 2767 2921 2808 2874 2893 2867 2785 2800 2830 2857 2855 2952 2865 2719 2783 2885 2808 2827 2753 2869 2822 2915 2935 2907 2791 2850 2858 2909 2857 2793 2921 2934 2818 2824 2851 2873 2768 2787 2876 2925 2829 2912 2819 2795 2904 2838 2881 2747 2858 2912 2926 2763 2800 2897 2864 2824 2777 2828 2892 2761 2882 2869 2836 2854 2927 2795 2896 2823 2758 2865 2848 2840 2753 2859 2852 2898 2867 2879 2778 2778 2805 2903 2904 2847 2761 2874 2866 2829 2970 2808 2800 2761 2831 2846 2886 2829 2812 2830 2722 2778 2825 2832 2842 2907 2779 2733 2804 2719 2739 2801 2772 2813 2746 2845 2743 2788 2783 2807 2785 2779 2716 2779 2794 2695 2693 2740 2752 2679 2796 2787 2815 2812 2834 2805 2816 2757 2647 2756 2774 2697 2668 2756 2659 2693 2686 2670 2773 2850 2773 2731 2701 2693 2689 2633 2641 2699 2700 2720 2663 2745 2634 2694 2763 2664 2577 2721 2581 2607 2832 2689 2636 2700 2721 2599 2639 2596 2623 2745 2679 2676 2788 2699 2649 2571 2615 2637 2572 2669 2675 2563 2582 2616 2644 2629 2718 2582 2702 2553 2682 2629 2574 2645 2692 2701 2635 2716 2533 2637 2666 2618 2561 2568 2643 2614 2596 2564 2642 2595 2600 2521 2528 2621 2546 2700 2543 2613 2611 2465 2578 2608 2582 2580 2578 2632 2580 2497 2514 2549 2548 2621 2562 2579 2612 2632 2643 2620 2642 2613 2643 2545 2632 2615 2689 2752 2699 2746 2655 2661 2730 2738 2822 2944 2961 2951 2895 2875 2897 2873 2827 2930 3001 2997 3074 3031 2938 2971 2974 3003 3133 3039 2991 3107 3071 3112 3153 3029 3104 3062 2954 3097 3016 3045 2999 2912 3032 2986 2868 2990 2969 2986 2945 2976 2821 2897 2831 2898 2848 2839 2831 2843 2825 2803 2761 2741 2725 2845 2726 2808 2794 2641 2693 2783 2603 2807 2757 2706 2742 2766 2600 2729 2699 2706 2706 2675 2733 2716 2702 2560 2705 2626 2645 2675 2674 2668 2631 2552 2660 2552 2641 2627 2480 2668 2583 2569 2554 2561 2627 2562 2501 2549 2656 2733 2555 2642 2676 2573 2686 2706 2667 2783 2740 2775 2791 2831 2837 2690 2819 2866 2846 2837 2936 2889 3018 2957 3013 3086 2981 3007 3083 3129 3231 3213 3242 3201 3393 3375 3307 3414 3492 3413 3404 3502 3291 3466 3460 3432 3495 3474 3444 3274 3435 3429 3461 3313 3355 3452 3317 3265 3256 3317 3184 3338 3180 3268 3253 3233 3284 3196 3270 3368 3091 3171 3153 3195 3163 3155 3169 3166 3186 3080 3099 3124 3067 2988 3058 3051 3144 3003 2999 2931 2902 3020 2924 2829 2754 2848 2807 2871 2765 2698 2668 2633 2709 2573 2611 2623 2515 2563 2556 2451 2484 2455 2502 2380 2484 2460 2379 2448 2342 2439 2527 2364 2365 2383 2262 2374 2397 2431 2299 2351 2406 2391 2372 2309 2426 2385 2295 2344 2356 2313 2386 2379 2309 2297 2399 2241 2366 2400 2328 2395 2336 2262 2364 2399 2334 2337 2262 2358 2334 2358 2349 2252 2293 2358 2353 2343 2319 2419 2402 2378 2295 2401 2269 2309 2405 2308 2274 2360 2348 2300 2308 2346 2288 2297 2317 2328 2277 2279 2313 2268 2209 2265 2297 2208 2321 2262 2344 2329 2294 2309 2318 2316 2268 2279 2330 2340 2263 2321 2337 2262 2311 2321 2235 2342 2324 2331 2313 2324 2267 2355 2296 2269 2229 2336 2355 2302 2333 2227 2316 2271 2276 2323 2259 2328 2277 2359 2284 2293 2231 2352 2303 2268 2230 2298 2248 2314 2229 2284 2274 2283 2253 2298 2214 2355 2269 2305 2356 2289 2323 2264 2331 2316 2284 2356 2219 2286 2305 2379 2322 2305 2335 2374 2383 2334 2291 2397 2196 2336 2303 2353 2354 2403 2441 2389 2358 2291 2360 2310 2334 2417 2330 2372 2357 2319 2372 2371 2418 2295 2292 2407 2327 2254 2322 2387 2375 2416 2248 2405 2371 2378 2271 2263 2315 2417 2310 2250 2307 2207 2336 2267 2336 2323 2440 2291 2304 2256 2236 2274 2234 2239 2290 2263 2221 2351 2326 2422 2333 2223 2270 2238 2285 2309 2254 2327 2300 2363 2302 2338 2375 2261 2249 2305 2309 2263 2262 2318 2230 2272 2315 2349 2289 2238 2308 2275 2179 2323 2258 2262 2317 2352 2278 2351 2333 2267 2217 2359 2266 2294 2329 2298 2347 2316 2388 2240 2294 2340 2295 2285 2298 2311 2321 2274 2223 2369 2390 2210 2353 2255 2289 2386 2340 2318 2309 2267 2311 2368 2378 2334 2323 2289 2288 2358 2338 2435 2380 2385 2427 2383 2354 2351 2410 2358 2362 2372 2455 2526 2441 2550 2491 2442 2559 2537 2593 2541 2650 2652 2600 2693 2747 2830 2911 2882 2977 3060 3077 3173 3303 3374 3517 3619 3638 3686 3859 3811 3892 3951 4183 4274 4177 4537 4484 4665 4695 4946 4892 4988 5116 5168 5331 5188 5536 5390 5452 5538 5534 5596 5578 5729 5607 5834 5694 5649 5624 5661 5599 5717 5659 5626 5553 5553 5496 5521 5271 5281 5077 5141 5003 4973 4878 4749 4767 4684 4574 4724 4566 4724 4506 4614 4548 4525 4604 4565 4599 4490 4546 4442 4453 4475 4519 4581 4511 4468 4480 4359 4370 4360 4245 4263 4267 4174 4080 4207 3929 3891 3790 3868 3750 3576 3597 3462 3419 3448 3273 3335 3224 3186 3084 3129 2973 3087 2979 2894 2752 2748 2704 2651 2602 2712 2654 2590 2609 2595 2529 2552 2587 2402 2484 2462 2491 2443 2316 2358 2473 2513 2393 2524 2445 2412 2412 2427 2420 2394 2370 2363 2387 2425 2344 2334 2461 2344 2443 2393 2349 2331 2400 2394 2434 2346 2278 2287 2306 2341 2406 2372 2360 2373 2320 2293 2271 2273 2357 2253 2326 2327 2237 2272 2265 2246 2243 2289 2288 2211 2287 2223 2332 2243 2279 2328 2367 2337 2269 2222 2248 2238 2296 2269 2201 2219 2244 2313 2240 2311 2329 2306 2287 2252 2274 2200 2310 2320 2338 2305 2347 2336 2310 2296 2283 2247 2318 2218 2173 2243 2219 2344 2337 2346 2286 2299 2274 2308 2209 2289 2299 2227 2276 2280 2253 2360 2329 2338 2255 2310 2250 2307 2249 2274 2256 2267 2260 2324 2302 2235 2226 2279 2251 2226 2326 2249 2231 2284 2253 2227 2336 2291 2241 2272 2234 2188 2239 2313 2289 2283 2284 2278 2317 2288 2379 2212 2166 2308 2239 2277 2191 2222 2268 2310 2260 2188 2226 2254 2199 2219 2363 2256 2238 2292 2180 2196 2219 2266 2265 2248 2286 2247 2246 2289 2226 2232 2256 2279 2295 2279 2294 2285 2275 2219 2224 2386 2221 2263 2220 2226 2263 2291 2238 2350 2254 2245 2288 2231 2292 2354 2209 2289 2197 2266 2267 2283 2308 2316 2344 2302 2243 2284 2278 2313 2278 2290 2351 2202 2302 2312 2303 2303 2253 2373 2255 2280 2280 2243 2298 2243 2294 2275 2342 2317 2282 2271 2419 2213 2245 2334 2213 2314 2364 2353 2326 2342 2228 2318 2276 2436 2288 2349 2251 2331 2343 2285 2335 2333 2324 2229 2282 2295 2213 2279 2229 2219 2321 2310 2278 2296 2276 2225 2262 2220 2195 2282 2245 2345 2272 2251 2162 2158 2242 2122 2161 2228 2257 2237 2255 2098 2243 2232 2197 2239 2177 2276 2230 2206 2195 2217 2145 2292 2202 2149 2274 2214 2151 2337 2295 2217 2183 2193 2232 2161 2201 2238 2147 2171 2154 2204 2201 2228 2288 2237 2294 2259 2286 2258 2262 2318 2339 2232 2295 2246 2324 2334 2247 2264 2262 2278 2226 2193 2251 2300 2294 2263 2278 2316 2252 2205 2329 2207 2223 2260 2263 2209 2124 2270 2310 2289 2259 2239 2268 2240 2295 2263 2249 2262 2280 2240 2200 2247 2242 2325 2172 2235 2160 2159 2272 2199 2144 2210 2207 2213 2249 2237 2300 2170 2220 2234 2139 2240 2271 2156 2204 2178 2261 2184 2158 2213 2161 2162 2297 2227 2124 2214 2176 2327 2243 2294 2288 2232 2224 2229 2250 2198 2223 2157 2198 2260 2224 2269 2185 2176 2215 2262 2229 2261 2246 2179 2198 2259 2280 2124 2112 2191 2190 2154 2159 2222 2266 2180 2213 2207 2112 2261 2224 2171 2156 2270 2205 2289 2296 2154 2186 2186 2232 2152 2202 2278 2155 2250 2152 2205 2140 2174 2226 2195 2214 2166 2205 2201 2239 2226 2290 2138 2238 2135 2234 2203 2164 2187 2165 2237 2212 2143 2151 2064 2179 2201 2184 2225 2206 2156 2281 2256 2219 2177 2211 2205 2193 2258 2198 2181 2273 2152 2155 2110 2203 2179 2173 2197 2149 2149 2260 2167 2150 2076 2158 2168 2139 2191 2184 2130 2172 2230 2237 2163 2201 2215 2212 2196 2163 2238 2198 2299 2216 2168 2281 2307 2207 2191 2279 2293 2303 2177 2196 2153 2184 2181 2132 2248 2197 2188 2254 2218 2154 2169 2221 2181 2205 2101 2216 2274 2197 2248 2185 2182 2198 2195 2212 2193 2218 2150 2150 2214 2256 2220 2249 2206 2105 2130 2239 2145 2243 2283 2197 2209 2252 2142 2106 2218 2104 2257 2243 2196 2279 2240 2238 2212 2149 2242 2214 2250 2208 2159 2128 2208 2193 2164 2192 2096 2167 2158 2215 2156 2143 2165 2268 2161 2231 2181 2182 2266 2167 2231 2216 2219 2185 2263 2197 2235 2160 2307 2116 2216 2178 2159 2215 2247 2112 2216 2253 2193 2166 2252 2281 2162 2236 2336 2124 2251 2232 2198 2193 2227 2199 2190 2272 2110 2179 2170 2320 2260 2206 2227 2166 2130 2214 2172 2220 2191 2244 2116 2120 2215 2149 2227 2279 2219 2224 2303 2178 2207 2201 2276 2246 2202 2156 2233 2219 2257 2252 2263 2228 2218 2209 2266 2276 2217 2157 2219 2284 2282 2278 2177 2160 2263 2265 2195 2168 2150 2207 2226 2194 2195 2335 2186 2155 2197 2221 2161 2198 2163 2196 2211 2213 2198 2278 2219 2188 2268 2196 2180 2179 2220 2245 2266 2199 2211 2229 2187 2230 2230 2234 2300 2184 2240 2191 2216 2205 2215 2271 2145 2206 2206 2220 2151 2232 2218 2258 2303 2172 2235 2180 2116 2268 2179 2193 2229 2056 2197 2308 2153 2179 2215 2119 2238 2211 2197 2240 2181 2249 2140 2190 2152 2170 2260 2170 2134 2251 2115 2229 2270 2212 2209 2204 2202 2164 2107 2110 2128 2231 2195 2162 2197 2310 2263 2216 2231 2162 2230 2170 2215 2159 2211 2195 2163 2171 2237 2253 2206 2214 2235 2240 2278 2215 2180 2184 2145 2247 2232 2220 2204 2152 2239 2244 2169 2235 2243 2222 2185 2230 2189 2146 2257 2209 2196 2228 2284 2198 2254 2269 2281 2268 2222 2296 2214 2242 2267 2334 2349 2247 2234 2270 2313 2391 2327 2351 2267 2366 2369 2347 2436 2402 2407 2443 2418 2445 2457 2576 2575 2439 2493 2477 2555 2523 2434 2486 2480 2518 2587 2501 2532 2499 2496 2471 2599 2590 2543 2503 2437 2508 2417 2571 2439 2411 2493 2466 2437 2435 2440 2396 2489 2496 2449 2474 2454 2463 2428 2378 2442 2394 2332 2444 2468 2381 2395 2351 2359 2365 2415 2392 2377 2329 2470 2401 2311 2330 2367 2295 2424 2407 2331 2395 2377 2352 2431 2456 2380 2361 2432 2290 2363 2355 2462 2399 2437 2416 2388 2430 2369 2382 2414 2455 2358 2313 2343 2347 2374 2275 2367 2393 2338 2278 2264 2363 2415 2295 2312 2302 2273 2299 2324 2235 2252 2220 2223 2257 2310 2206 2227 2232 2275 2272 2272 2214 2157 2203 2160 2185 2190 2164 2232 2193 2181 2296 2217 2331 2230 2191 2176 2287 2325 2252 2207 2169 2207 2270 2168 2199 2283 2187 2203 2185 2301 2260 2169 2287 2182 2225 2197 2200 2212 2213 2208 2127 2287 2214 2292 2162 2179 2168 2171 2247 2174 2199 2166 2127 2148 2231 2206 2344 2233 2219 2296 2195 2270 2208 2217 2188 2156 2177 2226 2215 2222 2171 2203 2188 2254 2201 2185 2224 2170 2206 2218 2198 2136 2258 2227 2154 2194 2206 2255 2214 2221 2240 2298 2257 2259 2163 2186 2154 2156 2212 2292 2245 2212 2193 2297 2189 2112 2196 2292 2157 2158 2261 2252 2260 2349 2170 2204 2209 2199 2129 2267 2166 2187 2201 2179 2232 2226 2358 2223 2167 2271 2229 2262 2245 2179 2208 2152 2306 2231 2238 2228 2210 2171 2191 2288 2164 2231 2205 2156 2224 2170 2183 2220 2282 2162 2213 2274 2211 2147 2189 2246 2222 2165 2194 2226 2261 2245 2187 2174 2282 2265 2212 2305 2242 2246 2218 2243 2156 2134 2191 2223 2253 2204 2169 2192 2140 2210 2214 2188 2132 2274 2193 2163 2133 2254 2238 2305 2199 2203 2274 2231 2163 2226 2131 2168 2259 2251 2268 2254 2247 2281 2264 2166 2244 2236 2312 2237 2302 2178 2235 2266 2289 2333 2290 2322 2261 2211 2283 2250 2252 2265 2301 2250 2277 2291 2225 2278 2312 2327 2348 2271 2361 2359 2320 2359 2370 2329 2471 2414 2456 2560 2436 2586 2544 2524 2542 2625 2657 2755 2843 2876 2868 2881 2966 3033 3090 3050 3204 3136 3146 3185 3292 3279 3284 3367 3450 3598 3577 3562 3576 3614 3737 3569 3611 3686 3733 3739 3844 3870 3833 3807 3750 3829 3764 3771 3740 3743 3804 3744 3894 3800 3692 3732 3683 3611 3558 3586 3574 3445 3587 3474 3508 3425 3257 3279 3170 3149 3112 3023 3065 3105 3139 2875 3022 2989 2887 2836 2999 2932 2806 2872 2810 2872 2777 2852 2883 2916 2783 2951 2935 3010 3009 3126 2950 2949 3005 3041 3096 3108 3248 3041 3097 3164 3164 3101 3249 3230 3069 3137 3152 3191 3168 3099 3101 3106 3000 3140 2967 3078 3069 3019 2941 2909 2974 2818 2788 2774 2791 2743 2703 2680 2713 2700 2592 2648 2583 2615 2642 2567 2577 2577 2527 2581 2471 2533 2509 2431 2476 2403 2460 2533 2530 2464 2448 2425 2409 2456 2442 2409 2452 2495 2410 2365 2318 2432 2360 2323 2268 2335 2398 2321 2256 2293 2246 2316 2306 2291 2311 2222 2276 2282 2241 2281 2288 2273 2277 2207 2265 2292 2302 2365 2240 2335 2226 2265 2328 2155 2296 2247 2373 2249 2309 2331 2169 2296 2258 2269 2338 2287 2206 2193 2267 2281 2360 2285 2304 2309 2383 2214 2258 2208 2187 2269 2217 2365 2267 2339 2229 2319 2163 2279 2300 2234 2290 2336 2337 2327 2240 2292 2367 2357 2264 2402 2355 2348 2364 2284 2360 2356 2394 2313 2423 2279 2384 2363 2359 2428 2393 2349 2380 2375 2433 2419 2363 2380 2350 2464 2446 2363 2354 2422 2467 2419 2387 2378 2367 2418 2367 2423 2352 2395 2319 2309 2422 2426 2307 2366 2399 2302 2308 2359 2361 2328 2358 2321 2350 2313 2373 2326 2251 2411 2329 2351 2301 2324 2268 2360 2182 2270 2271 2227 2245 2329 2256 2216 2346 2245 2312 2295 2325 2244 2341 2388 2241 2322 2336 2414 2295 2398 2328 2275 2250 2300 2338 2452 2393 2369 2339 2308 2256 2444 2274 2208 2289 2175 2353 2320 2207 2280 2275 2304 2338 2305 2388 2319 2359 2314 2235 2315 2255 2273 2291 2165 2224 2291 2248 2205 2252 2194 2320 2201 2184 2295 2244 2297 2261 2372 2260 2261 2271 2251 2251 2285 2213 2233 2346 2191 2256 2256 2189 2259 2177 2229 2226 2242 2188 2242 2167 2271 2259 2217 2183 2238 2300 2258 2179 2239 2134 2227 2140 2263 2239 2318 2197 2221 2066 2181 2201 2143 2147 2198 2184 2202 2180 2241 2250 2233 2200 2207 2150 2188 2229 2106 2267 2215 2233 2155 2200 2225 2192 2222 2189 2217 2235 2249 2247 2197 2256 2158 2238 2181 2153 2291 2176 2240 2178 2168 2169 2147 2241 2227 2166 2175 2167 2184 2196 2187 2177 2132 2194 2220 2100 2229 2167 2143 2146 2127 2191 2129 2251 2161 2210 2107 2147 2173 2173 2144 2264 2240 2115 2161 2202 2089 2118 2120 2157 2143 2160 2146 2062 2113 2215 2204 2160 2221 2234 2151 2200 2148 2203 2176 2199 2152 2216 2193 2181 2162 2135 2261 2168 2166 2168 2171 2132 2139 2189 2170 2207 2197 2225 2145 2066 2189 2145 2122 2211 2101 2146 2130 2228 2151 2125 2172 2194 2186 2159 2171 2171 2232 2252 2225 2213 2180 2241 2136 2174 2195 2142 2070 2178 2233 2133 2221 2146 2195 2236 2262 2168 2125 2135 2216 2149 2143 2226 2214 2215 2163 2186 2157 2212 2202 2196 2186 2129 2239 2134 2153 2069 2164 2197 2095 2201 2135 2215 2232 2076 2250 2183 2162 2180 2195 2280 2108 2130 2223 2207 2134 2227 2184 2147 2193 2215 2120 2135 2148 2207 2195 2099 2235 2141 2223 2160 2221 2150 2072 2267 2170 2043 2256 2175 2243 2146 2186 2199 2198 2239 2191 2196 2188 2215 2214 2217 2144 2184 2181 2217 2191 2208 2118 2175 2156 2185 2195 2166 2158 2151 2192 2189 2146 2155 2144 2113 2163 2112 2134 2246 2213 2229 2224 2205 2261 2238 2168 2140 2226 2201 2173 2078 2163 2183 2132 2241 2211 2182 2309 2124 2239 2200 2296 2169 2154 2243 2223 2184 2248 2190 2191 2222 2113 2120 2211 2233 2186 2153 2120 2271 2211 2213 2215 2232 2182 2259 2220 2266 2202 2151 2201 2116 2114 2220 2272 2196 2166 2271 2196 2174 2227 2098 2079 2159 2148 2213 2149 2116 2221 2122 2277 2234 2214 2185 2179 2233 2202 2190 2245 2311 2269 2134 2210 2223 2258 2190 2192 2160 2191 2178 2164 2193 2186 2236 2160 2190 2120 2158 2153 2212 2265 2193 2196 2212 2205 2116 2196 2133 2270 2188 2161 2011 2022 2185 2132 2167 2214 2235 2098 2232 2195 2200 2212 2153 2267 2102 2235 2198 2236 2193 2215 2216 2231 2203 2159 2201 2265 2212 2191 2125 2118 2235 2075 2160 2126 2225 2155 2265 2242 2214 2229 2184 2198 2154 2236 2200 2128 2162 2227 2262 2170 2297 2235 2235 2223 2177 2181 2276 2292 2199 2172 2195 2245 2283 2156 2189 2272 2311 2261 2272 2264 2164 2269 2215 2129 2180 2250 2165 2199 2261 2243 2250 2306 2302 2230 2249 2326 2236 2237 2191 2287 2224 2259 2312 2271 2235 2258 2356 2291 2361 2295 2299 2312 2406 2305 2363 2246 2239 2385 2389 2302 2381 2322 2361 2316 2389 2352 2303 2394 2321 2358 2368 2379 2385 2293 2377 2344 2296 2320 2371 2309 2334 2427 2269 2182 2350 2369 2318 2320 2317 2370 2246 2265 2426 2293 2320 2321 2230 2279 2250 2309 2254 2326 2298 2291 2226 2215 2254 2283 2316 2301 2278 2271 2308 2211 2293 2365 2270 2267 2206 2332 2361 2357 2314 2225 2316 2240 2286 2292 2261 2368 2367 2258 2426 2408 2254 2367 2297 2410 2268 2366 2411 2407 2340 2458 2373 2355 2360 2428 2327 2413 2373 2421 2391 2360 2306 2429 2364 2406 2402 2262 2303 2371 2316 2397 2324 2326 2287 2285 2187 2225 2288 2235 2263 2266 2286 2396 2235 2190 2232 2187 2202 2232 2233 2290 2266 2315 2214 2143 2229 2162 2211 2198 2295 2260 2238 2234 2152 2166 2240 2179 2205 2209 2248 2203 2251 2160 2099 2176 2180 2198 2202 2190 2187 2258 2258 2193 2200 2212 2171 2147 2220 2239 2184 2112 2257 2163 2190 2197 2249 2198 2145 2184 2119 2181 2245 2218 2176 2148 2146 2169 2233 2198 2187 2166 2189 2228 2216 2103 2253 2154 2149 2201 2180 2172 2180 2232 2192 2254 2206 2197 2154 2171 2165 2157 2223 2232 2213 2161 2130 2229 2231 2215 2197 2176 2255 2169 2232 2276 2200 2189 2238 2213 2190 2337 2203 2234 2211 2241 2291 2285 2159 2256 2264 2277 2254 2239 2246 2320 2345 2275 2332 2354 2305 2361 2304 2378 2466 2486 2355 2411 2299 2341 2475 2399 2438 2498 2433 2513 2407 2512 2510 2483 2510 2415 2447 2534 2582 2445 2643 2563 2525 2512 2478 2505 2597 2548 2598 2604 2522 2550 2528 2502 2556 2541 2478 2514 2488 2466 2464 2550 2467 2503 2512 2507 2392 2392 2477 2449 2359 2524 2423 2455 2369 2414 2413 2453 2377 2360 2359 2293 2409 2400 2324 2279 2335 2311 2236 2359 2326 2300 2297 2323 2332 2249 2334 2227 2393 2230 2329 2282 2333 2317 2297 2279 2279 2294 2197 2374 2372 2372 2404 2373 2359 2283 2438 2279 2378 2278 2470 2310 2375 2293 2295 2362 2374 2352 2316 2433 2351 2417 2345 2375 2381 2375 2347 2407 2464 2445 2455 2347 2338 2344 2320 2433 2381 2358 2329 2425 2332 2344 2300 2343 2329 2245 2313 2260 2410 2268 2323 2274 2251 2305 2371 2353 2300 2294 2291 2305 2283 2278 2301 2270 2234 2256 2267 2185 2269 2118 2287 2247 2198 2214 2178 2251 2233 2199 2200 2142 2214 2180 2248 2221 2317 2147 2268 2322 2229 2267 2217 2231 2252 2267 2308 2241 2259 2248 2261 2178 2214 2192 2244 2134 2364 2226 2221 2197 2253 2278 2338 2390 2259 2247 2275 2235 2236 2270 2241 2293 2203 2375 2214 2338 2308 2234 2320 2340 2185 2268 2303 2289 2367 2248 2253 2317 2318 2330 2192 2270 2314 2220 2199 2171 2342 2259 2268 2286 2211 2247 2212 2268 2279 2229 2252 2239 2210 2272 2315 2194 2256 2186 2259 2151 2255 2222 2254 2305 2229 2282 2223 2249 2261 2270 2126 2302 2186 2229 2265 2190 2221 2152 2129 2121 2095 2208 2267 2270 2213 2269 2186 2184 2268 2176 2174 2149 2228 2183 2181 2153 2290 2187 2293 2238 2165 2191 2321 2280 2252 2239 2202 2141 2224 2251 2243 2176 2198 2267 2269 2152 2225 2265 2165 2253 2190 2292 2281 2260 2255 2222 2219 2248 2181 2250 2249 2216 2281 2222 2163 2250 2256 2157 2138 2227 2142 2299 2177 2182 2238 2189 2181 2191 2284 2187 2209 2237 2154 2207 2199 2187 2157 2165 2249 2134 2206 2144 2226 2207 2229 2164 2166 2202 2246 2229 2110 2171 2237 2139 2221 2262 2143 2218 2198 2198 2190 2145 2124 2228 2263 2149 2187 2183 2125 2251 2212 2170 2179 2113 2175 2126 2228 2152 2175 2193 2210 2093 2177 2196 2140 2282 2221 2215 2156 2214 2174 2156 2172 2236 2162 2185 2217 2221 2300 2211 2141 2242 2181 2188 2209 2087 2235 2155 2209 2136 2229 2193 2121 2189 2165 2187 2192 2252 2201 2223 2206 2166 2164 2158 2155 2134 2201 2143 2134 2168 2059 2066 2068 2217 2157 2214 2262 2242 2131 2181 2134 2232 2149 2201 2123 2232 2137 2350 2180 2162 2184 2199 2195 2242 2149 2221 2181 2119 2201 2151 2187 2205 2171 2221 2194 2257 2153 2183 2247 2117 2096 2208 2095 2212 2185 2139 2081 2135 2176 2215 2121 2182 2195 2061 2128 2204 2159 2121 2130 2186 2123 2175 2172 2209 2201 2167 2157 2180 2159 2187 2203 2177 2137 2237 2232 2244 2171 2104 2148 2157 2237 2225 2182 2190 2175 2124 2177 2210 2197 2159 2164 2174 2140 2168 2195 2134 2161 2127 2159 2103 2187 2123 2211 2151 2190 2162 2067 2088 2276 2176 2191 2220 2125 2200 2121 2160 2121 2138 2190 2242 2230 2145 2166 2215 2174 2187 2188 2142 2225 2138 2158 2150 2189 2128 2105 2089 2182 2188 2120 2090 2079 2139 2184 2169 2092 2233 2194 2200 2147 2241 2171 2216 2171 2130 2157 2170 2121 2204 2206 2164 2107 2213 2081 2220 2117 2183 2190 2208 2170 2177 2135 2167 2208 2122 2289 2238 2269 2240 2172 2274 2126 2171 2139 2224 2219 2176 2232 2183 2265 2162 2164 2152 2280 2142 2239 2236 2153 2245 2180 2191 2326 2178 2254 2159 2210 2184 2217 2213 2257 2241 2217 2263 2183 2194 2085 2210 2083 2138 2263 2210 2173 2203 2206 2216 2197 2117 2186 2141 2179 2201 2123 2139 2145 2349 2169 2179 2240 2087 2232 2266 2143 2164 2134 2134 2137 2161 2197 2240 2207 2236 2224 2193 2128 2198 2092 2152 2203 2152 2249 2203 2175 2220 2277 2248 2281 2162 2142 2234 2207 2258 2254 2184 2328 2238 2279 2204 2158 2195 2190 2236 2311 2216 2227 2199 2282 2313 2214 2275 2180 2193 2185 2200 2252 2329 2178 2256 2230 2208 2170 2200 2184 2191 2225 2226 2222 2228 2208 2195 2260 2134 2228 2246 2131 2112 2185 2203 2182 2243 2160 2158 2200 2199 2274 2256 2185 2177 2284 2202 2115 2114 2158 2126 2149 2178 2163 2159 2219 2125 2176 2158 2157 2138 2148 2217 2260 2222 2177 2179 2099 2198 2114 2209 2106 2178 2110 2165 2172 2224 2238 2200 2219 2216 2261 2142 2188 2214 2279 2180 2163 2210 2208 2187 2230 2223 2293 2286 2272 2248 2234 2204 2161 2171 2245 2234 2222 2178 2152 2174 2248 2220 2114 2200 2233 2130 2208 2241 2169 2223 2162 2177 2133 2268 2210 2219 2187 2205 2185 2207 2172 2181 2166 2196 2192 2207 2324 2141 2124 2222 2177 2129 2104 2122 2176 2158 2213 2151 2226 2141 2270 2126 2194 2198 2165 2125 2146 2178 2145 2221 2269 2173 2197 2119 2098 2260 2150 2069 2192 2131 2191 2125 2253 2066 2263 2222 2149 2234 2195 2257 2151 2186 2159 2213 2204 2205 2209 2174 2255 2172 2111 2130 2174 2182 2179 2159 2125 2191 2179 2183 2180 2125 2179 2130 2172 2224 2152 2239 2175 2113 2213 2200 2165 2131 2239 2117 2215 2212 2162 2110 2155 2161 2230 2158 2130 2149 2191 2173 2141 2145 2162 2169 2188 2126 2085 2118 2238 2198 2186 2239 2229 2188 2165 2213 2170 2216 2235 2192 2194 2213 2195 2231 2156 2230 2268 2277 2183 2120 2233 2241 2218 2268 2198 2235 2245 2259 2197 2317 2108 2118 2292 2260 2229 2218 2322 2271 2186 2244 2197 2221 2246 2317 2360 2265 2362 2278 2306 2321 2228 2294 2310 2346 2396 2231 2317 2283 2348 2365 2273 2349 2283 2320 2251 2327 2266 2278 2335 2316 2366 2382 2335 2342 2414 2298 2344 2313 2364 2298 2241 2377 2325 2361 2312 2314 2308 2283 2350 2287 2341 2218 2328 2371 2259 2191 2259 2298 2222 2235 2315 2370 2263 2279 2243 2225 2387 2180 2227 2188 2236 2233 2212 2334 2316 2218 2273 2265 2195 2269 2295 2283 2286 2233 2287 2244 2215 2230 2245 2226 2188 2209 2231 2319 2258 2241 2202 2283 2259 2267 2287 2266 2256 2235 2175 2196 2222 2205 2250 2262 2217 2256 2158 2277 2343 2194 2218 2299 2306 2169 2291 2198 2322 2195 2351 2226 2233 2304 2297 2258 2294 2273 2337 2187 2316 2293 2243 2236 2296 2184 2308 2364 2252 2257 2323 2245 2193 2266 2186 2195 2301 2288 2198 2204 2197 2129 2256 2233 2258 2321 2228 2326 2223 2208 2283 2283 2192 2128 2227 2152 2231 2189 2257 2214 2295 2210 2124 2220 2185 2199 2240 2165 2224 2170 2156 2241 2237 2189 2241 2290 2239 2190 2159 2173 2191 2228 2204 2197 2226 2153 2228 2213 2189 2170 2254 2185 2163 2192 2299 2172 2161 2115 2235 2204 2141 2167 2211 2186 2149 2159 2179 2160 2234 2199 2120 2181 2201 2138 2151 2228 2325 2099 2356 2155 2236 2146 2194 2172 2261 2172 2134 2213 2105 2155 2184 2267 2166 2222 2287 2167 2110 2185 2163 2212 2169 2226 2228 2252 2226 2231 2191 2243 2263 2157 2167 2167 2176 2219 2105 2183 2126 2003 2154 2142 2099 2225 2190 2187 2186 2156 2158 2136 2155 2126 2125 2094 2237 2136 2217 2192 2211 2150 2196 2163 2214 2223 2221 2172 2151 2184 2201 2083 2179 2129 2188 2166 2085 2119 2216 2198 2198 2229 2213 2181 2250 2241 2167 2091 2080 2207 2206 2217 2235 2179 2277 2152 2195 2225 2212 2056 2186 2132 2172 2150 2214 2247 2121 2237 2171 2223 2147 2222 2207 2172 2196 2183 2255 2198 2134 2191 2150 2199 2162 2200 2192 2095 2341 2195 2192 2227 2244 2183 2178 2170 2152 2199 2151 2181 2190 2240 2214 2135 2182 2218 2240 2191 2122 2189 2165 2210 2245 2234 2229 2232 2218 2146 2189 2275 2254 2293 2253 2168 2177 2220 2185 2227 2121 2252 2218 2156 2209 2183 2157 2159 2137 2267 2206 2107 2182 2104 2247 2226 2179 2246 2187 2212 2140 2216 2258 2165 2157 2134 2231 2239 2265 2161 2260 2172 2213 2149 2226 2186 2155 2210 2245 2175 2250 2204 2189 2122 2223 2105 2176 2244 2153 2237 2188 2188 2185 2161 2230 2235 2147 2037 2122 2194 2098 2207 2113 2204 2264 2154 2116 2336 2198 2167 2181 2156 2222 2256 2218 2201 2253 2209 2211 2122 2165 2102 2127 2177 2243 2179 2180 2149 2238 2202 2199 2287 2276 2237 2259 2183 2192 2219 2161 2277 2240 2182 2235 2181 2180 2156 2219 2206 2166 2225 2121 2183 2197 2162 2192 2117 2177 2204 2147 2147 2227 2091 2104 2152 2094 2183 2208 2239 2198 2140 2189 2222 2207 2186 2186 2224 2226 2184 2158 2190 2114 2222 2153 2191 2179 2201 2151 2125 2143 2239 2142 2207 2142 2231 2186 2174 2218 2199 2122 2204 2227 2254 2268 2109 2200 2145 2120 2141 2205 2221 2271 2158 2094 2269 2125 2199 2179 2261 2150 2184 2212 2195 2240 2123 2178 2152 2267 2197 2184 2222 2155 2275 2218 2179 2167 2122 2239 2234 2170 2184 2176 2223 2183 2209 2177 2243 2162 2246 2156 2186 2253 2183 2163 2145 2176 2302 2150 2198 2141 2233 2216 2240 2234 2135 2188 2182 2276 2264 2173 2164 2268 2255 2201 2127 2218 2208 2161 2246 2272 2235 2209 2219 2301 2139 2170 2172 2236 2186 2197 2294 2170 2221 2200 2186 2278 2182 2331 2255 2213 2293 2184 2177 2227 2218 2211 2173 2287 2106 2307 2178 2266 2260 2257 2281 2238 2191 2173 2250 2220 2192 2136 2266 2161 2271 2206 2258 2187 2258 2333 2264 2160 2182 2236 2206 2288 2139 2171 2341 2231 2218 2263 2272 2320 2192 2287 2258 2264 2195 2297 2154 2213 2263 2321 2274 2144 2259 2322 2206 2162 2205 2233 2241 2241 2188 2219 2207 2151 2226 2314 2228 2253 2212 2313 2384 2251 2253 2269 2231 2230 2269 2257 2267 2261 2250 2215 2283 2267 2240 2288 2207 2281 2256 2296 2221 2239 2159 2214 2307 2375 2251 2295 2185 2264 2311 2243 2204 2260 2115 2205 2199 2289 2308 2267 2190 2130 2220 2281 2146 2174 2295 2328 2173 2172 2195 2324 2181 2234 2165 2241 2261 2283 2257 2258 2115 2233 2215 2190 2236 2257 2276 2318 2247 2264 2166 2274 2309 2308 2256 2290 2257 2260 2249 2333 2189 2268 2180 2228 2283 2208 2260 2189 2245 2270 2207 2270 2207 2289 2255 2330 2166 2254 2236 2280 2299 2256 2207 2322 2244 2246 2289 2225 2258 2203 2189 2289 2355 2208 2310 2299 2280 2354 2272 2294 2301 2291 2181 2222 2311 2373 2326 2329 2334 2250 2314 2273 2293 2298 2346 2325 2215 2230 2267 2310 2228 2290 2303 2238 2265 2261 2241 2263 2322 2279 2279 2174 2290 2296 2198 2262 2242 2273 2245 2263 2234 2232 2273 2279 2286 2168 2322 2276 2234 2208 2289 2214 2286 2268 2227 2206 2302 2308 2284 2283 2287 2243 2289 2252 2297 2220 2294 2235 2212 2273 2383 2265 2395 2382 2274 2296 2382 2433 2361 2342 2349 2327 2386 2360 2341 2279 2302 2318 2382 2473 2335 2429 2493 2436 2465 2405 2438 2390 2481 2406 2531 2422 2437 2472 2418 2451 2362 2478 2443 2456 2480 2521 2583 2514 2503 2524 2503 2507 2444 2527 2479 2559 2532 2484 2561 2516 2564 2541 2517 2505 2559 2506 2454 2512 2567 2543 2514 2486 2479 2515 2504 2499 2422 2487 2575 2388 2502 2492 2482 2342 2424 2456 2429 2496 2396 2406 2399 2380 2404 2303 2392 2330 2467 2356 2390 2373 2312 2375 2406 2396 2305 2364 2345 2359 2401 2318 2297 2344 2273 2396 2292 2297 2225 2421 2266 2441 2308 2274 2295 2245 2340 2314 2304 2307 2235 2297 2281 2255 2308 2252 2359 2250 2377 2343 2346 2275 2246 2326 2316 2337 2274 2341 2265 2252 2257 2273 2269 2309 2345 2397 2331 2257 2294 2440 2340 2357 2386 2418 2340 2415 2353 2391 2423 2443 2350 2378 2453 2393 2339 2345 2431 2319 2536 2355 2323 2478 2445 2375 2438 2484 2487 2432 2493 2459 2472 2516 2481 2496 2513 2485 2362 2475 2452 2421 2426 2319 2344 2433 2369 2390 2384 2388 2406 2319 2308 2418 2374 2334 2365 2349 2319 2338 2400 2351 2424 2405 2336 2394 2356 2386 2410 2339 2308 2321 2296 2228 2273 2234 2417 2343 2354 2322 2319 2286 2320 2402 2232 2394 2375 2441 2321 2343 2281 2412 2240 2319 2298 2305 2252 2322 2318 2267 2270 2256 2251 2336 2296 2276 2304 2322 2266 2342 2321 2246 2316 2314 2315 2261 2212 2226 2323 2347 2187 2209 2184 2255 2212 2282 2245 2275 2255 2255 2248 2298 2235 2251 2297 2211 2272 2328 2289 2235 2262 2298 2205 2255 2309 2201 2276 2217 2217 2350 2171 2234 2174 2250 2193 2247 2233 2272 2172 2321 2274 2310 2224 2259 2194 2324 2257 2223 2208 2268 2274 2286 2183 2209 2249 2272 2232 2186 2245 2292 2097 2166 2253 2209 2318 2218 2196 2255 2212 2244 2277 2211 2220 2254 2277 2178 2314 2212 2246 2283 2211 2263 2209 2177 2249 2309 2366 2225 2355 2281 2228 2259 2261 2275 2297 2198 2265 2204 2215 2214 2306 2241 2204 2080 2263 2231 2206 2232 2299 2241 2187 2260 2210 2215 2254 2272 2187 2223 2205 2221 2211 2272 2179 2328 2221 2278 2304 2286 2228 2188 2198 2185 2149 2181 2233 2284 2171 2228 2277 2205 2201 2184 2255 2268 2252 2260 2161 2176 2249 2252 2207 2271 2210 2198 2191 2214 2227 2186 2245 2174 2163 2332 2208 2240 2258 2123 2205 2190 2228 2261 2221 2180 2202 2239 2200 2188 2232 2237 2173 2128 2217 2235 2186 2172 2149 2279 2227 2178 2147 2169 2228 2166 2254 2227 2169 2230 2228 2125 2184 2195 2212 2122 2216 2257 2157 2143 2199 2194 2311 2146 2193 2158 2233 2309 2183 2257 2205 2213 2240 2286 2265 2141 2164 2146 2227 2166 2251 2254 2184 2230 2191 2187 2248 2167 2233 2244 2284 2223 2241 2217 2262 2128 2174 2127 2178 2217 2169 2215 2227 2166 2200 2311 2259 2323 2183 2207 2253 2193 2221 2251 2278 2171 2210 2167 2179 2268 2143 2177 2299 2213 2234 2318 2128 2175 2173 2328 2200 2206 2256 2276 2227 2260 2175 2288 2273 2169 2178 2196 2198 2150 2198 2182 2201 2331 2224 2200 2160 2128 2136 2288 2194 2187 2277 2218 2189 2127 2161 2249 2232 2222 2168 2252 2309 2319 2264 2155 2241 2257 2181 2278 2204 2222 2229 2227 2206 2205 2187 2250 2260 2227 2274 2197 2260 2180 2257 2154 2259 2197 2237 2271 2187 2227 2170 2223 2196 2161 2194 2246 2165 2255 2239 2248 2306 2291 2195 2198 2265 2210 2198 2247 2147 2229 2230 2305 2184 2154 2246 2183 2253 2239 2228 2285 2274 2253 2275 2263 2317 2280 2208 2233 2198 2276 2301 2184 2244 2295 2296 2290 2236 2243 2260 2211 2222 2329 2327 2228 2173 2272 2219 2229 2149 2248 2326 2263 2214 2299 2271 2317 2268 2242 2303 2329 2298 2216 2285 2206 2257 2229 2275 2310 2227 2249 2242 2225 2203 2230 2236 2340 2181 2333 2218 2240 2166 2195 2334 2273 2327 2308 2332 2203 2243 2293 2259 2226 2283 2197 2239 2267 2309 2250 2281 2282 2261 2118 2239 2306 2166 2146 2249 2108 2235 2230 2347 2188 2218 2224 2348 2222 2198 2215 2268 2275 2188 2226 2158 2294 2233 2296 2180 2222 2233 2288 2304 2283 2400 2282 2298 2217 2284 2138 2291 2194 2164 2314 2279 2261 2351 2173 2242 2286 2237 2257 2175 2209 2247 2277 2266 2207 2219 2234 2178 2149 2224 2232 2249 2264 2217 2295 2266 2266 2252 2233 2141 2142 2232 2170 2208 2167 2202 2280 2273 2306 2263 2261 2295 2171 2233 2205 2163 2186 2219 2260 2226 2279 2231 2176 2209 2198 2250 2192 2278 2236 2255 2225 2185 2197 2235 2300 2156 2277 2267 2256 2300 2257 2151 2228 2226 2219 2187 2207 2178 2288 2163 2224 2226 2243 2255 2211 2241 2191 2297 2208 2255 2157 2265 2217 2274 2268 2224 2330 2241 2234 2280 2293 2211 2272 2219 2178 2232 2276 2223 2242 2253 2321 2194 2260 2143 2185 2198 2194 2202 2314 2136 2134 2166 2256 2280 2318 2283 2283 2231 2209 2303 2275 2241 2359 2233 2309 2377 2272 2302 2201 2147 2177 2277 2261 2258 2203 2302 2131 2225 2274 2211 2413 2292 2313 2229 2293 2329 2268 2295 2323 2275 2362 2291 2263 2355 2358 2296 2331 2299 2338 2316 2238 2270 2353 2305 2318 2305 2311 2377 2332 2294 2328 2318 2357 2317 2403 2327 2362 2386 2390 2346 2414 2299 2322 2326 2372 2312 2483 2280 2411 2378 2316 2416 2316 2350 2427 2352 2329 2434 2361 2495 2330 2361 2419 2362 2433 2361 2369 2348 2349 2369 2450 2398 2428 2393 2376 2426 2348 2432 2338 2371 2381 2364 2373 2390 2345 2409 2332 2436 2334 2230 2443 2317 2352 2331 2287 2349 2342 2395 2321 2362 2348 2348 2280 2319 2394 2361 2307 2355 2292 2373 2311 2276 2404 2238 2323 2278 2316 2391 2274 2268 2329 2263 2364 2213 2337 2326 2287 2126 2307 2281 2361 2279 2324 2290 2267 2236 2280 2222 2309 2239 2350 2246 2236 2301 2157 2299 2304 2290 2208 2284 2279 2236 2264 2292 2209 2290 2261 2275 2277 2277 2271 2177 2222 2226 2310 2184 2238 2381 2313 2272 2206 2289 2199 2302 2274 2359 2283 2261 2272 2250 2316 2324 2284 2425 2286 2279 2362 2324 2283 2357 2377 2293 2307 2436 2455 2425 2325 2435 2398 2377 2362 2384 2375 2293 2378 2361 2380 2365 2419 2359 2371 2319 2364 2325 2384 2337 2431 2485 2386 2310 2385 2252 2372 2336 2302 2323 2309 2350 2301 2272 2326 2355 2384 2306 2230 2268 2391 2329 2379 2359 2327 2316 2273 2278 2210 2263 2333 2199 2345 2303 2328 2406 2329 2286 2330 2276 2255 2261 2284 2292 2290 2213 2250 2332 2294 2217 2296 2307 2255 2287 2286 2312 2283 2240 2278 2227 2249 2276 2329 2301 2333 2252 2242 2336 2314 2310 2212 2245 2209 2254 2276 2329 2234 2198 2355 2180 2194 2337 2260 2175 2237 2280 2175 2242 2242 2261 2215 2325 2251 2332 2194 2322 2226 2182 2199 2299 2271 2270 2236 2170 2261 2268 2180 2230 2307 2214 2266 2352 2224 2233 2272 2281 2272 2174 2297 2211 2284 2220 2199 2262 2191 2334 2177 2180 2230 2263 2226 2236 2208 2238 2336 2172 2207 2253 2278 2232 2117 2272 2253 2230 2297 2214 2304 2219 2200 2270 2266 2257 2179 2232 2291 2244 2226 2250 2142 2234 2289 2233 2242 2199 2249 2227 2158 2219 2247 2288 2279 2283 2219 2265 2278 2252 2248 2205 2177 2225 2249 2224 2205 2281 2178 2264 2273 2163 2243 2343 2191 2182 2253 2191 2219 2246 2336 2189 2321 2257 2174 2271 2245 2199 2235 2312 2224 2211 2333 2257 2254 2196 2252 2215 2248 2257 2203 2319 2172 2204 2197 2156 2187 2304 2246 2219 2199 2304 2173 2202 2261 2240 2299 2304 2304 2224 2271 2187 2228 2191 2383 2199 2300 2247 2146 2195 2194 2214 2238 2260 2243 2220 2223 2213 2182 2237 2224 2166 2202 2222 2243 2294 2300 2238 2214 2259 2266 2162 2168 2237 2308 2258 2226 2236 2192 2232 2222 2249 2208 2215 2191 2204 2302 2236 2221 2268 2234 2226 2361 2163 2258 2174 2284 2211 2149 2241 2218 2230 2206 2229 2208 2247 2238 2284 2311 2224 2157 2240 2121 2218 2195 2235 2170 2293 2193 2237 2239 2315 2203 2299 2214 2191 2275 2240 2190 2208 2239 2182 2172 2134 2231 2230 2264 2262 2290 2222 2239 2284 2166 2254 2261 2171 2223 2219 2267 2240 2215 2213 2285 2183 2237 2312 2229 2265 2256 2239 2179 2327 2253 2197 2243 2256 2166 2301 2233 2225 2252 2250 2357 2266 2239 2186 2231 2205 2179 2222 2246 2129 2183 2226 2220 2173 2199 2193 2170 2249 2160 2271 2176 2170 2290 2247 2253 2267 2217 2244 2207 2325 2173 2214 2267 2255 2210 2267 2295 2259 2198 2240 2232 2216 2216 2152 2253 2266 2197 2262 2222 2365 2271 2154 2308 2234 2218 2258 2309 2357 2271 2231 2284 2275 2237 2235 2191 2248 2242 2268 2288 2259 2269 2269 2288 2245 2178 2186 2265 2265 2163 2231 2214 2278 2302 2267 2240 2229 2212 2241 2221 2140 2237 2313 2291 2350 2345 2268 2391 2369 2268 2292 2285 2276 2251 2342 2322 2241 2326 2296 2242 2283 2320 2218 2286 2377 2299 2325 2275 2314 2352 2237 2273 2343</counts>
			</dataPoints>
		</scan>
	</xrdMeasurement>
</xrdMeasurements>
