<?xml version="1.0"?>
<xrdMeasurements xmlns="http://www.xrdml.com/XRDMeasurement/2.3" xmlns:xsi="http://www.w3.org/2001/XMLSchema-instance" xsi:schemaLocation="http://www.xrdml.com/XRDMeasurement/2.3 http://www.xrdml.com/XRDMeasurement/2.3/XRDMeasurement.xsd" status="Completed" recordIdentifier="{2BA7348D-A326-43D9-BF29-31C9CFC95F3C}">
	<comment>
		<entry/>
	</comment>
	<sample type="To be analyzed">
		<id>GPSS_Li1p4Mg0p2Cu0p1In0p2Fe0p2Mn0p5Cl4_122625_694e531dae15af25ac37461a</id>
		<name></name>
		<preparedBy></preparedBy>
	</sample>
	<xrdMeasurement measurementType="Scan" status="Completed" sampleMode="Reflection">
		<usedWavelength intended="K-Alpha 1">
			<kAlpha1 unit="Angstrom">1.5405980</kAlpha1>
			<kAlpha2 unit="Angstrom">1.5444260</kAlpha2>
			<kBeta unit="Angstrom">1.3922500</kBeta>
			<ratioKAlpha2KAlpha1>0.5000</ratioKAlpha2KAlpha1>
		</usedWavelength>
		<incidentBeamPath>
			<radius unit="mm">145.00</radius>
			<xRayTube id="1010048" name="Empyrean Cu LFF HR (9430 033 7310x)">
				<tension unit="kV">40.0</tension>
				<current unit="mA">15.0</current>
				<anodeMaterial>Cu</anodeMaterial>
				<focus type="Line">
					<length unit="mm">12.0</length>
					<width unit="mm">0.4</width>
					<takeOffAngle unit="deg">6.0</takeOffAngle>
				</focus>
			</xRayTube>
			<sollerSlit id="21010002" name="Soller slits 0.04 rad.">
				<opening unit="rad">0.0400</opening>
			</sollerSlit>
			<mask id="22031000" name="Fixed mask 13 mm">
				<width unit="mm">9.00</width>
			</mask>
			<divergenceSlit id="22120001" name="Divergence slit 1°" xsi:type="fixedDivergenceSlitType">
				<distanceToSample unit="mm">50.00</distanceToSample>
				<height unit="mm">1.52</height>
			</divergenceSlit>
		</incidentBeamPath>
		<sampleMovement xsi:type="spinningSampleMovementType">
			<spinnerRevolutionTime unit="seconds">1.0</spinnerRevolutionTime>
		</sampleMovement>
		<diffractedBeamPath>
			<radius unit="mm">145.00</radius>
			<antiScatterSlit id="22090040" name="AS slit 9 mm (PIXcel)" xsi:type="fixedAntiScatterSlitType">
				<height unit="mm">9.00</height>
			</antiScatterSlit>
			<sollerSlit id="21020003" name="Large Soller slits 0.04 rad.">
				<opening unit="rad">0.0400</opening>
			</sollerSlit>
			<filter id="20030001" name="Large beta-filter Nickel">
				<material>Ni</material>
				<thickness unit="mm">0.020</thickness>
			</filter>
			<detector id="7010019" name="PIXcel1D-Medipix3 detector" xsi:type="rtmsDetectorType">
				<phd unit="keV">
					<lowerLevel>4.02</lowerLevel>
					<upperLevel>11.27</upperLevel>
				</phd>
				<mode>Scanning</mode>
				<activeLength unit="deg">5.542</activeLength>
			</detector>
		</diffractedBeamPath>
		<scan appendNumber="0" mode="Continuous" scanAxis="Gonio" status="Completed">
			<header>
				<startTimeStamp>2025-12-27T13:30:49-08:00</startTimeStamp>
				<endTimeStamp>2025-12-27T13:38:56-08:00</endTimeStamp>
				<author>
					<name>AutomatedUser</name>
				</author>
				<source>
					<applicationSoftware version="1.7b (136)">PANalytical Aeris Instrument Suite</applicationSoftware>
					<instrumentControlSoftware version="3.2.00000000 20240306">AERIS</instrumentControlSoftware>
					<instrumentID>950485</instrumentID>
				</source>
			</header>
			<dataPoints>
				<positions axis="2Theta" unit="deg">
					<startPosition>10.00943322</startPosition>
					<endPosition>99.99442286</endPosition>
				</positions>
				<positions axis="Omega" unit="deg">
					<startPosition>5.00471661</startPosition>
					<endPosition>49.99721143</endPosition>
				</positions>
				<commonCountingTime unit="seconds">12.495</commonCountingTime>
				<counts unit="counts">3069 3111 3071 3144 3100 3059 3097 2965 3087 3115 3070 2965 3068 3102 3033 3110 3135 3105 3124 3005 3071 3192 3097 3139 2983 3025 3124 3183 3093 3134 3122 3124 3090 3150 3189 3052 3203 3196 3088 3083 3041 3189 3138 3199 3155 3136 3142 3028 3019 3013 3129 3082 3093 3156 3077 3168 3233 3233 3189 3217 3168 3274 3248 3185 3162 3175 3325 3206 3233 3238 3208 3190 3246 3165 3260 3262 3264 3213 3248 3291 3311 3367 3253 3318 3216 3301 3276 3327 3346 3393 3431 3483 3267 3358 3413 3377 3356 3393 3438 3336 3375 3295 3416 3398 3390 3354 3406 3557 3416 3404 3401 3359 3457 3330 3404 3490 3359 3430 3501 3286 3215 3434 3275 3365 3298 3450 3306 3364 3327 3391 3204 3277 3288 3405 3272 3298 3236 3177 3284 3282 3386 3322 3394 3327 3323 3309 3292 3350 3306 3161 3298 3103 3235 3347 3333 3140 3272 3261 3250 3295 3296 3333 3348 3200 3264 3348 3201 3312 3413 3278 3453 3343 3288 3317 3356 3426 3340 3294 3382 3303 3300 3339 3344 3278 3394 3350 3319 3353 3252 3335 3352 3347 3316 3252 3216 3290 3211 3285 3261 3200 3358 3342 3290 3234 3253 3290 3178 3265 3193 3295 3347 3314 3244 3315 3252 3265 3235 3237 3248 3157 3120 3305 3395 3421 3177 3299 3237 3222 3111 3288 3234 3104 3089 3165 3152 3220 3174 3254 3139 3150 3180 3268 3235 3174 3215 3146 3169 3184 3135 3069 3269 3265 3165 3227 3139 3240 3174 3231 3234 3137 3069 3159 3117 3231 3101 3184 3101 3073 3188 3132 3097 3125 3016 3147 3149 3123 3115 3188 3112 3152 3169 3183 3123 3138 3161 3162 3140 3090 3285 3161 3083 3126 3121 3057 3158 3188 3166 3227 3029 3066 3137 3154 3274 3259 3121 3217 3150 3150 3113 3302 3148 3067 3149 3098 3107 3119 3207 3187 3154 3302 3146 3074 3244 3274 3205 3206 3183 3256 3181 3255 3237 3253 3221 3173 3270 3323 3156 3245 3209 3189 3235 3378 3267 3155 3217 3262 3302 3304 3360 3315 3173 3379 3280 3359 3371 3345 3362 3260 3284 3408 3288 3301 3364 3343 3306 3373 3323 3325 3401 3409 3424 3363 3306 3367 3396 3383 3452 3440 3426 3473 3454 3416 3432 3321 3457 3478 3448 3398 3268 3475 3422 3503 3470 3476 3542 3401 3398 3332 3486 3502 3505 3610 3616 3542 3555 3677 3595 3599 3626 3607 3618 3644 3737 3675 3848 3791 3792 3834 3892 3837 3806 3829 3848 3781 3872 3800 3705 3817 3938 3817 3873 3865 3862 3846 4006 3931 3943 3884 3998 4101 4069 4001 4133 4096 4032 4089 4202 4192 4376 4323 4267 4176 4286 4322 4351 4350 4341 4301 4466 4222 4278 4234 4060 4140 4057 4062 3907 3841 3847 3735 3661 3607 3485 3641 3569 3466 3573 3465 3493 3548 3363 3470 3458 3530 3475 3378 3433 3425 3383 3413 3462 3454 3463 3424 3404 3373 3495 3378 3436 3339 3487 3344 3352 3327 3395 3326 3280 3240 3360 3291 3316 3291 3383 3289 3312 3254 3285 3250 3354 3202 3208 3228 3263 3125 3163 3132 3130 3224 3197 3197 3156 3111 3215 3130 3114 3301 3120 3118 3065 3162 3192 3156 3145 3242 3167 3081 3184 3163 3133 3088 3135 3067 3036 3014 3135 3211 3124 3096 3063 3053 3013 3070 3084 3101 3022 3046 2977 3072 2997 3056 2999 3000 2954 2988 2977 3029 2910 2929 2991 3057 3043 3128 3051 2984 3007 3027 2939 2942 2986 2970 2978 2947 3058 2961 2910 2903 2912 2966 2935 2896 2888 2871 2977 2919 2910 2899 3024 2955 2972 2853 3000 2900 2897 2807 2917 2938 2916 2899 2839 2947 2934 2881 2860 2899 2965 2827 2927 2905 2788 2862 2853 2956 2905 2916 2842 2805 2812 2936 2790 2918 2804 2849 2832 2912 2843 2833 2830 2905 2843 2823 2783 2763 2805 2871 2867 2814 2906 2804 2832 2831 2759 2837 2829 2808 2890 2772 2791 2798 2761 2882 2827 2698 2796 2798 2765 2882 2716 2766 2758 2803 2825 2729 2735 2880 2869 2745 2729 2849 2725 2768 2797 2866 2758 2774 2794 2858 2782 2749 2808 2759 2755 2843 2654 2824 2885 2891 2796 2818 2778 2796 2767 2806 2779 2744 2754 2859 2817 2761 2915 2787 2694 2816 2753 2798 2802 2689 2806 2684 2799 2836 2731 2669 2666 2779 2775 2757 2709 2725 2688 2728 2756 2765 2797 2670 2650 2713 2761 2675 2695 2848 2712 2809 2672 2758 2692 2673 2715 2717 2682 2629 2686 2711 2576 2555 2765 2649 2731 2702 2731 2749 2677 2672 2738 2687 2803 2686 2630 2723 2712 2684 2698 2676 2673 2745 2678 2788 2765 2764 2612 2723 2635 2782 2592 2629 2599 2575 2744 2642 2609 2533 2712 2697 2700 2634 2672 2698 2684 2708 2554 2715 2572 2667 2766 2684 2648 2624 2563 2679 2609 2662 2640 2618 2631 2651 2592 2702 2602 2702 2662 2672 2530 2621 2611 2613 2643 2593 2638 2714 2685 2585 2614 2608 2656 2507 2632 2668 2602 2622 2604 2529 2572 2578 2562 2623 2576 2641 2584 2567 2541 2640 2631 2584 2649 2511 2635 2548 2614 2593 2562 2659 2656 2567 2679 2491 2631 2507 2542 2506 2571 2612 2521 2471 2573 2494 2469 2640 2578 2562 2648 2521 2425 2515 2537 2518 2620 2588 2473 2648 2623 2517 2545 2546 2396 2526 2506 2409 2474 2470 2442 2447 2535 2431 2575 2539 2430 2474 2516 2571 2511 2473 2483 2413 2454 2473 2482 2469 2500 2521 2501 2441 2522 2420 2425 2510 2479 2400 2563 2514 2496 2515 2458 2389 2492 2393 2442 2573 2360 2431 2496 2439 2469 2484 2408 2513 2411 2507 2352 2388 2446 2430 2468 2416 2462 2474 2443 2483 2409 2442 2495 2465 2311 2392 2451 2575 2519 2497 2542 2413 2425 2335 2434 2437 2360 2353 2390 2462 2428 2548 2463 2320 2310 2423 2505 2416 2425 2308 2460 2447 2420 2417 2376 2469 2338 2517 2482 2400 2375 2485 2349 2355 2473 2477 2343 2373 2459 2421 2411 2503 2470 2497 2551 2494 2527 2484 2483 2427 2415 2495 2403 2490 2487 2456 2420 2443 2488 2448 2382 2469 2384 2540 2478 2457 2463 2436 2438 2485 2481 2449 2387 2452 2438 2428 2484 2401 2438 2416 2389 2415 2460 2459 2464 2385 2459 2475 2445 2462 2490 2422 2499 2413 2505 2431 2389 2396 2540 2402 2382 2444 2485 2490 2490 2417 2398 2540 2363 2458 2411 2478 2476 2396 2440 2415 2478 2496 2335 2436 2462 2441 2429 2496 2463 2495 2507 2525 2381 2408 2478 2446 2475 2355 2407 2427 2395 2422 2397 2394 2476 2417 2438 2490 2348 2394 2365 2361 2323 2331 2333 2449 2314 2433 2406 2324 2307 2391 2291 2324 2288 2381 2324 2410 2405 2277 2360 2311 2415 2319 2341 2346 2245 2408 2379 2244 2355 2314 2305 2330 2359 2302 2357 2224 2362 2313 2315 2363 2186 2263 2382 2256 2318 2230 2258 2251 2264 2208 2327 2238 2246 2306 2304 2263 2233 2264 2192 2237 2193 2248 2183 2152 2131 2271 2200 2197 2202 2252 2195 2176 2134 2211 2153 2207 2134 2172 2134 2122 2108 2129 2149 2173 2137 2071 2124 2093 2115 2124 2188 2153 2017 2104 2179 2121 2045 2039 2091 2076 2081 2021 2158 2040 2013 2091 2032 2104 2110 2014 2037 2024 2015 2028 2073 1987 1990 2021 2003 1987 2035 1979 1962 2039 2062 1983 2002 2027 2028 2010 1872 2011 1916 1935 1911 1955 1936 1903 1918 1997 2020 1986 1919 1905 1922 2013 2012 1942 1914 1923 1900 1943 1937 1911 1901 1896 1914 1833 1960 1928 1946 1860 1857 1829 1895 1925 1850 1921 1905 1896 1897 1928 1917 1931 1863 1921 1957 1855 1900 1877 1934 1924 1915 1859 1876 1922 2049 1892 1931 1826 1867 1939 1962 1872 1941 1905 1998 1940 1966 1920 1949 1966 1974 1864 1955 1836 1939 1861 1888 1885 1918 1910 1896 1834 1995 1942 1917 1922 1957 1937 1983 1832 1922 1885 1979 1913 1955 1924 1933 1863 1915 1945 1949 1894 1933 1854 2014 1950 1939 1853 1847 1845 1901 1862 1798 1874 1875 1843 1869 1818 1801 1838 1771 1785 1722 1812 1802 1874 1786 1777 1828 1789 1746 1785 1837 1778 1789 1735 1815 1759 1678 1808 1791 1772 1785 1774 1850 1770 1726 1807 1812 1825 1838 1767 1695 1796 1714 1781 1776 1710 1705 1727 1748 1785 1826 1834 1843 1753 1843 1757 1777 1778 1888 1810 1755 1735 1858 1771 1768 1713 1798 1809 1684 1859 1859 1755 1760 1766 1775 1784 1755 1678 1736 1826 1780 1787 1714 1759 1790 1733 1728 1692 1734 1776 1713 1789 1812 1825 1781 1754 1810 1790 1755 1804 1740 1728 1801 1728 1754 1720 1761 1808 1891 1814 1786 1763 1728 1725 1786 1796 1810 1790 1770 1747 1715 1792 1804 1751 1803 1771 1698 1727 1790 1790 1766 1827 1840 1790 1735 1749 1780 1807 1740 1743 1798 1740 1733 1823 1739 1758 1789 1659 1846 1759 1703 1723 1802 1775 1810 1716 1739 1724 1814 1738 1773 1724 1772 1685 1729 1752 1631 1733 1733 1709 1754 1670 1707 1730 1719 1711 1703 1716 1711 1701 1696 1736 1706 1660 1669 1720 1738 1683 1709 1710 1665 1669 1635 1718 1582 1699 1644 1669 1663 1740 1685 1654 1666 1711 1642 1632 1643 1746 1690 1679 1635 1656 1631 1659 1632 1701 1635 1627 1601 1608 1635 1589 1621 1566 1516 1577 1600 1593 1542 1656 1546 1580 1602 1537 1569 1604 1580 1595 1628 1555 1527 1598 1526 1555 1528 1545 1623 1566 1593 1596 1595 1530 1533 1568 1580 1531 1572 1574 1566 1535 1503 1518 1554 1519 1511 1534 1517 1498 1543 1546 1530 1596 1456 1559 1535 1588 1493 1495 1519 1602 1525 1448 1483 1528 1590 1544 1549 1532 1451 1481 1476 1507 1564 1556 1547 1585 1620 1553 1571 1652 1637 1672 1728 1734 1779 1806 1884 1787 1845 1841 1809 1811 1864 1857 1804 1735 1824 1820 1766 1715 1747 1745 1805 1649 1752 1693 1706 1759 1793 1824 1792 1818 1860 1781 1812 1928 1890 1932 2066 1952 2045 2066 2059 1940 1970 1911 1943 1929 1876 1826 1806 1782 1731 1682 1692 1549 1552 1554 1407 1465 1460 1426 1370 1367 1495 1361 1424 1370 1394 1364 1359 1308 1338 1340 1378 1318 1372 1363 1350 1389 1317 1236 1347 1318 1305 1420 1322 1331 1291 1307 1310 1258 1348 1359 1346 1297 1343 1266 1324 1344 1348 1294 1331 1316 1345 1268 1311 1465 1363 1321 1365 1447 1509 1498 1492 1491 1619 1649 1559 1696 1701 1730 1806 1888 1872 1979 1966 2040 2044 1991 2009 1976 1963 2045 2006 1978 1898 1913 1819 1925 1921 1889 2036 1989 2070 2113 2162 2206 2126 2273 2260 2201 2327 2351 2342 2360 2573 2541 2578 2515 2636 2708 2541 2558 2673 2549 2517 2533 2247 2287 2163 2113 1996 1783 1864 1678 1679 1592 1526 1489 1380 1405 1344 1357 1365 1310 1299 1237 1227 1261 1196 1251 1254 1260 1225 1214 1261 1191 1194 1219 1233 1185 1235 1224 1184 1148 1256 1222 1236 1231 1264 1158 1193 1175 1164 1191 1191 1174 1169 1146 1171 1179 1174 1171 1129 1185 1150 1184 1195 1235 1203 1181 1141 1173 1150 1233 1169 1160 1166 1139 1156 1221 1067 1197 1156 1196 1206 1122 1158 1132 1111 1118 1191 1243 1179 1170 1154 1163 1144 1218 1166 1168 1152 1181 1158 1186 1229 1214 1141 1199 1157 1144 1103 1108 1124 1113 1154 1140 1075 1187 1115 1093 1135 1121 1146 1163 1212 1161 1098 1191 1211 1122 1153 1181 1156 1055 1191 1159 1167 1108 1156 1116 1202 1196 1094 1153 1163 1061 1132 1118 1119 1176 1134 1119 1138 1125 1121 1150 1087 1072 1135 1087 1090 1086 1126 1114 1062 1120 1171 1031 1100 1072 1124 1098 1067 1051 1067 1028 1112 1095 1081 1163 1112 1065 1112 1082 1118 1104 1100 1086 1089 1109 1058 1080 1039 1101 1089 1132 1085 1014 1121 1057 1090 1078 1040 1081 1044 1068 1066 1107 1013 1141 1067 1062 1083 1031 1105 1063 1069 1038 1069 1127 1072 1033 1055 1065 1029 1070 1101 1088 1076 1101 1091 1029 1070 1012 1058 1032 1075 1112 997 1116 1062 1075 1093 1076 1105 1022 1039 1061 1099 1059 1023 1095 1041 1099 1082 1067 1087 1089 1066 1102 1066 1075 1056 1077 1091 1017 1104 1096 1132 1074 1104 1085 1072 1094 1062 1083 1072 1094 1010 1064 1033 1027 1044 1087 1009 1086 1084 1029 1059 1030 1060 1054 1086 1041 1106 1033 1074 1086 1083 1047 1022 1114 1048 1045 1095 1101 1082 1023 1064 1094 1045 1022 1064 1061 971 1051 1067 1026 1122 1068 1083 1144 1076 1105 1051 1085 1097 1066 1162 1072 1157 1034 1094 1085 1080 1075 1100 1162 1083 1181 1173 1094 1189 1112 1144 1146 1152 1189 1111 1144 1147 1201 1182 1231 1179 1174 1175 1188 1216 1227 1212 1236 1220 1307 1226 1267 1243 1224 1193 1214 1260 1271 1243 1260 1238 1304 1232 1252 1267 1235 1229 1310 1321 1304 1380 1448 1440 1604 1639 1755 1813 1954 1966 2078 2218 2422 2528 2630 2674 2727 2722 2797 2812 2751 2696 2740 2747 2740 2597 2714 2782 2769 2739 2851 2921 2842 2803 2966 2868 2999 2983 3042 3110 3254 3313 3435 3635 3602 3768 3773 3828 3868 3819 3863 3707 3560 3459 3352 3193 2920 2910 2700 2635 2456 2207 2166 2034 1796 1618 1564 1510 1471 1350 1457 1308 1242 1236 1261 1156 1252 1185 1223 1177 1156 1173 1080 1102 1089 1087 1095 1054 1092 1070 1079 1095 1034 1105 1029 1045 1019 1001 1018 1062 1043 1057 1090 1098 1004 1065 1051 997 1047 1033 1069 1077 1074 1055 1060 1031 1063 1031 1109 1057 1061 1051 1071 1023 1035 995 1012 1069 1097 1111 1064 1038 1004 1044 996 1065 1055 1104 1058 1062 1070 1047 974 1103 1095 1020 1107 1054 1098 1107 1085 1043 1109 1032 1068 1043 1041 1011 1027 1094 1106 1010 1039 1067 1042 1058 1009 1031 1012 1052 1011 1042 1030 976 1041 989 951 990 914 978 963 1000 902 996 978 969 995 992 963 1025 977 990 976 1042 1015 1036 935 969 982 1010 980 1017 945 1019 1022 953 921 957 996 991 1011 966 1048 923 1042 1019 947 965 984 994 976 990 975 955 976 929 971 921 993 1009 959 973 975 995 946 987 967 1012 942 1047 976 977 979 958 969 986 939 957 967 963 918 968 926 946 935 984 956 1028 939 975 883 958 983 947 978 1006 957 948 1000 969 1031 933 915 940 946 972 939 896 937 939 956 928 938 912 875 935 909 887 936 963 976 956 916 987 959 955 921 942 974 928 974 965 987 926 964 914 955 886 956 920 954 971 1004 946 906 1030 932 904 947 873 908 937 948 891 941 968 964 895 965 932 925 943 995 924 940 977 903 949 979 946 1016 979 950 913 915 908 900 939 935 885 972 917 916 919 976 888 971 907 999 967 931 915 926 948 913 921 919 940 892 905 922 910 930 930 904 932 910 901 917 919 966 883 942 889 913 933 926 933 933 913 921 922 960 951 944 912 920 880 902 929 882 916 897 930 887 913 887 914 926 917 926 911 890 959 899 932 898 923 893 892 865 951 855 897 869 940 903 832 905 880 956 944 891 922 921 926 949 916 887 891 860 918 859 878 842 880 888 855 852 911 923 906 893 909 868 891 910 944 878 892 970 840 848 928 955 902 965 883 911 878 879 876 893 866 921 900 934 922 923 861 914 919 913 922 902 842 905 861 875 886 913 899 922 885 882 902 869 918 898 879 886 957 841 892 868 858 896 863 882 832 778 891 898 912 908 860 894 903 929 932 866 877 855 884 896 906 871 903 915 878 891 888 908 863 909 888 882 936 850 892 810 897 863 882 889 869 889 876 881 908 883 891 968 909 859 879 860 904 919 931 917 862 915 898 918 854 922 869 934 869 913 884 905 944 906 872 899 891 878 833 871 873 872 851 936 910 886 865 877 877 898 883 892 845 918 890 912 837 887 820 872 886 864 882 910 899 867 927 891 844 844 941 911 907 884 888 895 854 864 855 912 927 852 905 882 964 833 838 854 926 956 846 906 860 877 841 893 836 926 855 852 885 889 910 859 864 891 907 852 846 892 886 830 855 833 928 862 887 862 857 859 893 875 869 858 872 860 885 827 904 821 860 872 815 844 879 814 859 939 830 857 873 823 878 797 872 885 839 827 836 900 900 879 906 857 853 849 876 849 889 847 891 841 853 871 863 896 856 880 890 882 934 900 859 832 842 882 836 851 855 892 808 849 868 866 902 918 863 904 889 854 860 943 862 925 900 904 909 874 852 907 855 935 862 860 870 886 905 883 886 881 920 890 877 881 936 903 908 908 850 943 903 922 843 917 839 843 896 900 895 857 878 884 856 919 918 868 864 846 801 899 885 924 836 870 850 905 937 814 844 921 876 907 866 932 883 860 871 887 876 912 836 864 895 926 875 890 854 861 912 849 784 876 932 874 862 865 871 858 868 876 903 857 922 830 918 866 830 864 853 870 783 893 826 865 808 841 852 851 818 861 844 872 818 834 851 892 809 871 824 860 840 859 870 859 842 836 825 812 834 838 835 888 837 856 874 842 894 840 829 882 812 841 880 882 852 866 791 889 876 865 794 848 868 940 856 872 853 912 883 840 862 847 935 851 890 865 858 898 829 862 877 833 893 831 848 827 881 843 840 852 811 864 897 836 911 843 924 863 847 860 831 849 773 840 847 857 880 801 865 877 909 858 908 876 817 839 844 865 912 872 887 867 902 850 881 883 847 852 922 827 876 890 833 872 920 905 857 865 902 864 868 926 863 919 875 948 904 891 974 890 874 919 928 928 922 931 958 924 912 931 953 904 968 929 918 900 937 980 947 985 916 988 1018 958 943 987 969 1047 1011 1060 1051 1039 1131 1158 1112 1166 1113 1107 1130 1195 1182 1217 1225 1187 1147 1187 1211 1158 1189 1224 1213 1211 1186 1103 1224 1203 1179 1162 1241 1179 1225 1289 1292 1266 1352 1372 1381 1282 1297 1325 1229 1228 1203 1204 1199 1121 1236 1152 1182 1150 1083 1034 1091 1016 986 945 984 920 1008 957 992 958 878 919 887 872 871 886 866 956 877 917 862 873 894 876 878 869 849 851 877 829 853 870 918 872 889 850 887 849 842 901 820 842 829 813 843 865 864 843 877 843 788 818 826 858 832 818 835 799 797 871 873 807 843 859 881 844 834 899 879 807 849 869 905 826 813 849 859 917 828 861 893 812 852 807 819 891 865 871 906 931 868 823 836 805 864 840 844 876 853 851 823 806 844 815 850 780 835 828 840 880 840 834 797 808 830 836 874 875 825 836 823 807 812 793 880 888 822 863 878 864 817 837 787 859 780 830 802 868 798 851 833 809 822 852 832 823 791 838 781 846 781 785 845 816 807 818 872 810 866 776 788 850 866 820 847 810 848 844 869 867 794 828 803 895 828 831 847 829 878 827 912 864 879 849 786 798 810 785 875 821 777 806 871 856 810 871 840 810 833 865 838 812 808 853 861 887 829 866 901 887 804 846 867 825 878 872 869 878 864 921 892 865 887 888 900 910 855 885 861 920 856 862 859 921 929 916 907 882 865 901 879 902 887 909 890 919 895 872 894 928 855 818 867 880 871 869 885 885 911 891 915 864 863 875 919 862 843 818 835 879 842 901 852 861 820 836 861 868 912 808 864 852 850 873 843 884 851 813 844 872 852 873 850 839 812 835 861 830 857 844 914 861 864 861 851 861 880 870 888 820 917 854 881 843 911 916 923 860 935 906 917 933 928 931 967 956 967 934 979 1097 1081 1061 1207 1185 1218 1351 1401 1496 1616 1659 1707 1828 1828 1980 2050 2101 2122 2077 2187 2221 2175 2321 2245 2269 2368 2225 2388 2454 2410 2378 2452 2416 2509 2599 2563 2606 2650 2778 2749 2738 2827 2929 3026 3004 2965 3212 3195 3042 3105 2897 2619 2750 2589 2491 2443 2384 2320 2251 2210 2112 1992 1926 1744 1662 1524 1447 1422 1435 1288 1234 1190 1182 1101 1109 1073 1039 1016 994 975 944 947 917 888 859 925 908 897 873 935 900 922 962 868 869 877 901 877 870 876 837 884 854 867 847 837 841 855 853 816 825 811 810 795 833 844 838 870 906 818 838 871 831 859 860 860 834 847 836 874 822 870 836 871 825 794 891 836 795 862 837 886 797 838 855 851 840 861 825 785 881 858 796 819 829 840 817 883 742 852 779 786 842 809 807 818 823 836 869 815 833 823 809 843 818 861 826 841 825 789 761 826 835 801 841 770 837 803 787 808 782 790 834 867 793 859 818 834 771 761 801 808 802 824 783 803 805 845 790 824 817 826 791 770 784 836 779 816 876 777 798 792 810 822 853 814 869 829 888 852 868 832 895 914 882 890 932 973 946 963 980 958 947 951 927 962 1020 926 977 967 954 982 1026 957 908 983 970 966 939 1040 998 977 993 983 949 1041 998 982 964 980 1071 1012 977 1038 979 1021 991 948 1005 915 921 887 972 910 931 910 848 930 887 892 856 880 844 873 812 922 870 812 835 837 854 802 835 806 851 814 817 842 811 786 831 818 813 870 778 848 842 813 784 792 805 820 778 779 791 801 778 807 802 780 815 799 829 814 784 797 867 788 811 818 836 793 797 834 797 776 820 855 792 778 793 788 762 762 805 778 797 855 773 811 791 806 822 793 760 835 793 784 768 841 790 805 799 784 806 885 779 812 839 759 818 788 756 775 771 829 780 860 846 800 765 817 791 831 806 795 812 807 801 782 846 848 815 798 777 838 734 762 812 770 796 796 794 766 783 802 845 814 789 816 762 768 801 743 806 798 795 815 791 789 770 748 815 765 768 737 777 778 795 769 745 736 807 768 811 782 774 792 751 791 772 819 711 800 785 794 807 772 767 790 782 789 795 763 792 809 781 807 800 794 739 766 763 773 803 846 784 741 701 747 789 760 796 809 766 788 780 788 739 778 800 754 769 764 774 771 777 746 706 783 760 776 779 820 798 785 803 757 844 784 806 744 813 762 801 761 811 826 768 816 808 817 790 746 768 802 808 777 754 794 760 730 815 810 809 718 749 787 739 770 821 745 782 760 754 826 732 781 783 800 832 795 816 733 770 734 789 756 773 758 783 737 811 720 788 793 764 794 784 776 756 806 801 767 791 816 841 830 787 790 741 771 823 759 777 763 753 752 775 760 773 744 770 716 740 816 782 787 759 766 819 803 785 709 743 733 826 741 773 770 802 765 758 762 802 776 791 745 751 775 767 746 807 770 790 772 804 747 767 786 779 800 760 730 766 760 766 784 766 745 780 799 740 792 716 837 761 756 745 860 736 745 781 740 704 787 800 780 783 712 769 784 747 734 739 766 805 799 791 718 781 769 724 786 781 736 772 811 811 803 802 781 817 778 742 744 813 755 759 733 786 768 774 785 779 816 721 775 811 769 738 802 759 805 786 786 781 745 784 810 777 834 817 755 807 802 827 770 761 817 802 864 793 821 927 773 816 849 789 838 843 815 792 838 883 773 801 848 844 789 809 813 878 829 834 856 829 834 779 839 858 838 879 824 827 804 787 825 804 856 833 844 826 827 837 834 799 827 799 844 778 770 817 792 744 772 787 809 750 774 787 782 772 776 740 812 790 777 796 797 766 774 805 802 830 789 778 805 808 769 796 880 859 798 875 808 840 763 819 832 888 803 814 846 831 890 902 790 842 882 913 805 837 828 837 846 805 842 882 816 881 903 848 837 895 902 886 874 841 857 863 813 867 888 817 836 860 846 826 879 867 872 813 851 811 866 852 882 875 835 857 936 924 950 898 901 917 943 939 962 990 945 977 965 912 972 968 970 931 996 979 980 1024 1000 1070 980 1053 973 1114 1071 1068 1136 1118 1037 1047 1059 1042 1092 1078 1037 1076 1045 1030 1020 1065 1034 1007 993 934 948 909 934 947 921 880 849 883 859 854 869 819 850 810 845 854 813 836 853 790 841 758 750 746 805 771 794 786 758 771 757 791 731 778 735 726 775 750 757 758 733 738 733 784 780 774 721 779 690 792 754 703 762 726 786 766 714 759 740 801 751 726 769 752 712 751 764 832 761 750 693 772 762 756 786 740 732 751 821 788 752 743 788 801 752 812 771 759 746 803 782 755 773 763 788 789 761 748 735 787 756 744 773 774 713 755 756 795 752 730 738 769 762 766 720 734 774 730 712 772 775 697 769 778 755 733 727 725 764 714 746 822 799 796 752 788 784 787 760 776 740 754 806 729 739 708 798 752 755 785 763 749 759 754 760 718 754 747 737 710 757 796 757 760 675 792 785 785 771 774 798 789 737 814 765 776 794 810 778 741 761 740 781 765 808 737 714 768 696 761 796 772 768 768 841 763 750 787 780 860 785 796 785 809 782 774 820 760 819 797 820 864 817 864 904 905 925 956 978 985 1025 1005 988 1066 1106 1087 1109 1131 1118 1141 1170 1149 1234 1220 1309 1309 1310 1394 1409 1362 1283 1256 1322 1308 1341 1300 1375 1351 1326 1388 1385 1508 1533 1411 1419 1447 1349 1355 1263 1285 1252 1278 1231 1243 1122 1160 1167 1148 1121 1159 1069 1108 1054 1029 1042 984 977 980 905 930 905 919 917 829 895 857 824 844 769 850 838 796 772 810 825 821 793 783 753 812 819 766 807 789 797 771 734 797 789 835 792 788 772 826 755 777 808 753 778 770 734 771 740 788 773 795 784 750 799 743 779 790 740 770 773 777 786 745 752 749 807 725 774 757 783 758 764 792 781 777 788 760 759 756 783 735 778 779 750 790 802 750 727 829 783 771 766 788 790 769 776 774 803 816 754 774 719 761 804 787 769 781 792 826 785 768 781 782 816 756 785 796 703 792 743 739 776 781 747 775 778 809 770 809 748 804 832 858 795 759 830 824 774 798 821 847 794 816 847 875 841 862 794 831 816 880 815 821 888 844 893 802 867 887 871 816 868 895 882 928 911 891 863 861 938 896 910 872 851 849 880 824 855 861 838 847 871 848 868 890 855 875 851 806 782 793 786 814 831 773 762 832 803 797 866 775 798 774 769 805 800 774 763 755 742 753 720 807 733 777 759 750 803 787 786 759 734 764 736 769 800 733 805 747 772 793 763 733 752 761 755 756 756 735 762 743 765 800 774 767 786 773 770 720 728 712 754 714 797 742 698 739 733 744 788 763 801 721 678 686 755 702 790 760 691 726 723 740 715 803 735 751 772 775 813 769 764 742 728 794 783 753 726 791 749 710 798 771 768 782 747 751 761 711 791 740 742 795 782 720 773 696 767 785 808 727 738 767 727 710 744 718 784 726 671 691 720 739 718 779 771 810 784 791 718 714 710 681 789 763 812 722 764 764 764 745 741 713 751 729 752 741 702 705 700 682 801 726 702 753 754 753 715 733 801 766 745 723 724 723 731 741 737 685 693 800 744 756 741 703 773 732 782 750 755 762 766 705 711 733 718 729 733 756 783 752 777 762 784 705 758 755 734 749 767 704 733 717 747 752 727 760 727 694 764 740 736 735 779 757 690 732 780 713 737 753 758 738 739 724 742 747 713 753 786 777 767 709 748 736 759 740 713 726 752 734 782 765 763 787 730 732 750 735 748 748 730 791 776 748 755 759 746 763 773 766 757 715 790 717 737 759 713 757 704 718 738 766 696 787 817 742 760 753 728 752 733 719 773 724 770 685 708 779 759 746 783 789 726 781 718 747 720 761 768 749 763 770 777 731 777 772 776 752 768 722 736 716 784 687 753 756 804 779 720 754 764 789 743 778 750 739 756 753 782 755 748 763 697 767 742 747 754 783 733 715 710 749 677 767 764 769 756 797 719 743 764 739 766 734 761 748 789 799 762 766 746 741 781 740 722 775 739 767 750 739 712 738 761 720 764 763 769 728 729 721 765 716 769 725 742 795 773 762 668 757 732 710 701 744 773 727 703 689 715 765 738 830 735 763 746 728 687 758 745 736 721 708 732 756 758 723 788 756 752 674 759 763 734 759 779 738 741 785 698 737 767 756 728 768 761 748 771 757 743 820 769 769 760 831 807 770 817 808 794 789 799 778 838 798 879 839 781 855 817 805 867 872 805 858 823 861 843 897 832 827 907 888 827 819 819 832 856 797 857 798 783 835 828 837 812 814 806 883 761 766 791 785 838 777 822 797 766 764 732 752 767 748 786 707 773 721 738 716 716 686 751 758 744 711 714 736 739 726 743 736 704 777 802 751 755 703 729 706 764 771 764 764 763 750 755 768 700 732 699 694 699 779 720 771 767 724 691 736 722 751 762 675 741 726 733 728 735 712 693 735 712 677 754 715 763 745 763 834 739 705 734 788 736 739 728 776 760 790 752 770 739 778 745 722 744 774 752 775 706 714 718 737 745 712 722 739 774 755 735 765 734 771 711 765 760 816 768 771 739 774 759 757 774 716 725 775 749 748 741 762 760 736 775 741 775 790 732 742 792 726 805 770 755 774 757 741 741 704 756 781 762 803 775 725 775 725 770 788 755 736 733 743 757 787 708 735 721 829 743 759 692 709 704 710 741 754 688 709 726 809 719 727 745 740 728 695 731 744 746 739 726 768 755 746 704 711 772 725 736 799 720 783 754 728 779 729 741 735 753 770 778 742 751 709 771 727 736 736 721 744 736 739 774 738 709 710 791 756 727 750 820 697 757 740 758 799 770 785 722 783 809 742 766 758 711 752 746 814 802 762 847 856 869 804 870 814 849 845 951 913 879 855 891 879 958 925 962 935 928 958 978 956 986 1024 996 1025 958 984 1045 992 1004 1042 990 1061 1038 988 989 954 979 916 900 911 972 930 962 905 907 980 899 909 848 844 927 860 900 777 832 825 822 824 764 821 852 811 808 790 770 782 725 774 816 743 745 758 759 771 744 770 695 737 766 783 772 764 723 772 751 718 747 725 735 776 775 741 767 774 750 725 789 724 753 694 711 760 776 751 783 728 764 730 753 731 725 736 725 767 729 732 760 763 781 775 730 690 714 730 724 756 724 715 774 768 715 745 706 712 712 758 700 763 741 762 750 810 694 800 764 734 752 756 706 751 781 785 733 751 758 832 761 729 723 706 726 760 756 731 728 743 778 749 755 776 729 750 736 730 734 709 766 759 735 729 750 826 750 753 701 736 745 727 751 734 739 773 767 762 785 781 771 758 749 753 713 722 768 780 763 736 762 732 761 760 733 779 762 765 774 721 713 778 744 710 759 779 766 757 723 797 742 726 694 728 738 722 714 771 741 733 728 736 759 744 741 755 736 740 729 726 756 736 725 742 702 707 754 787 737 685 750 761 737 723 778 769 709 742 766 730 726 717 755 784 746 703 718 716 714 748 754 745 812 736 719 773 749 681 790 743 715 790 743 742 755 764 745 742 779 721 769 753 755 743 756 696 784 689 768 766 786 768 768 717 748 787 788 780 713 703 744 786 722 756 720 752 688 704 695 754 733 768 743 799 766 712 746 713 751 753 732 726 744 744 727 753 757 803 684 724 776 733 717 743 738 768 760 749 743 735 791 689 757 754 726 715 754 685 721 700 691 742 736 777 743 765 778 754 715 748 738 758 751 747 741 742 715 774 747 743 742 738 722 719 753 768 806 736 737 776 755 770 695 767 768 766 724 764 735 702 781 789 742 770 705 763 756 743 729 740 769 722 759 755 730 723 720 782 756 738 756 702 752 750 699 698 749 746 690 763 754 726 749 727 754 694 743 742 735 704 713 741 741 666 675 777 713 779 723 726 754 716 730 703 785 779 729 779 768 729 797 756 759 780 715 725 693 732 771 757 747 748 731 731 790 774 785 760 701 728 702 721 745 760 766 792 691 757 687 773 708 715 762 700 829 689 768 734 807 750 733 751 738 744 656 746 792 731 761 761 764 750 759 771 738 724 785 714 751 704 724 731 747 748 749 768 736 721 717 701 730 760 714 759 746 776 758 752 770 706 755 722 737 711 721 713 738 750 726 706 771 707 808 744 746 763 796 767 720 767 787 752 737 707 771 774 762 702 777 745 694 720 744 710 733 760 706 775 749 743 714 776 761 740 706 782 706 763 754 785 748 775 722 743 771 747 787 732 764 708 775 780 708 746 716 776 761 746 767 745 731 729 742 763 787 738 704 777 826 850 748 771 696 745 743 766 742 711 724 707 719 759 773 733 802 767 764 752 737 760 772 773 759 802 736 787 786 790 841 771 847 804 790 781 810 807 786 830 838 809 864 809 818 851 825 846 811 817 821 735 799 876 845 825 894 829 802 875 807 837 825 807 861 822 808 840 792 778 831 818 802 823 865 758 820 767 793 818 812 780 815 821 805 788 789 765 791 855 752 854 834 807 859 787 779 790 782 882 852 838 857 853 862 861 864 821 798 839 831 847 837 823 828 847 796 860 883 802 851 856 809 833 865 816 818 823 816 860 830 793 815 762 824 772 784 817 764 781 776 774 810 779 846 838 821 829 843 797 738 760 802 792 773 756 761 772 791 699 841 736 809 708 809 736 777 750 733 755 771 787 754 739 690 793 762 788 727 751 774 786 731 709 732 722 785 758 705 744 705 802 756 747 745 691 780 768 762 717 730 732 753 735 804 712 692 739 743 760 725 761 747 779 696 730 728 759 788 784 746 732 756 783 750 732 774 755 770 723 741 767 742 772 728 742 740 752 726 751 739 780 794 824 747 742 784 749 710 809 770 747 803 774 771 710 765 736 769 749 785 809 753 747 733 742 723 781 775 789 777 752 730 819 744 751 767 765 783 793 811 773 800 768 754 789 777 720 733 804 813 814 773 785 703 770 768 778 801 718 839 801 797 852 830 792 782 822 882 873 852 862 850 893 865 883 918 922 935 994 947 972 1047 1016 1042 987 1066 1047 1134 1040 1163 1142 1158 1224 1204 1233 1154 1229 1269 1282 1302 1344 1288 1257 1287 1298 1373 1281 1300 1236 1236 1236 1270 1273 1229 1324 1204 1171 1145 1121 1094 1142 1113 1050 1094 1146 1022 1066 1050 1052 990 1004 953 981 935 983 951 963 965 905 908 919 858 848 849 849 860 863 854 851 865 796 801 759 776 783 791 787 814 800 834 782 771 795 765 808 764 803 801 772 768 837 781 779 727 757 759 741 749 731 741 792 773 737 763 794 728 741 795 755 765 780 729 812 735 757 748 781 724 783 790 788 734 795 770 776 767 801 778 758 771 796 785 738 767 736 750 801 744 757 751 776 812 739 746 735 769 797 763 704 780 766 812 769 707 757 789 778 798 834 759 757 757 840 809 771 794 820 804 769 705 785 772 764 782 783 779 793 834 794 806 831 811 820 844 783 770 803 823 822 766 826 822 791 835 868 778 822 849 815 824 804 765 787 800 797 841 791 853 766 786 839 777 825 765 812 771 800 763 830 839 794 797 793 810 790 809 764 788 801 773 815 828 788 754 755 760 785 825 708 737 768 758 846 789 773 761 749 750 746 752 737 761 736 758 727 728 741 782 727 764 738 761 788 767 781 722 725 775 713 777 766 718 702 782 756 762 772 709 772 746 776 717 734 742 718 715 739 755 785 772 765 722 741 738 755 742 819 760 732 785 780 742 739 781 711 773 785 744 789 778 751 789 779 748 758 795 737 774 735 770 788 767 726 741 777 765 749 751 757 711 786 768 781 786 760 794 739 770 730 767 754 750 738 835 799 789 758 795 762 796 778 811 789 754 749 721 764 768 734 782 774 748 772 748 760 739 804 721 762 730 757 784 743 733 764 781 733 778 728 783 744 757 728 736 772 783 753 738 716 754 795 760 719 772 756 775 789 719 772 726 778 745 735 769 690 747 731 732 805 784 773 739 769 722 724 751 766 774 712 746 815 739 770 781 681 753 705 744 753 747 768 723 789 798 758 756 814 739 790 756 741 745 759 736 781 778 769 773 766 791 770 753 746 726 742 742 746 778 749 809 723 795 759 753 802 749 767 711 725 790 745 808 774 771 715 762 775 724 730 798 757 788 763 696 795 769 788 752 774 750 709 800 744 735 705 795 781 795 784 800 705 775 749 773 675 745 764 743 822 751 733 801 774 714 743 741 726 709 702 743 782 771 756 739 745 754 771 789 728 728 751 751 782 774 760 736 782 706 775 737 751 779 752 770 786 762 721 727 756 763 782 754 779 741 733 771 762 772 768 730 723 746 683 816 751 733 727 771 795 752 776 733 778 767 761 746 757 742 723 742 796 774 730 714 740 733 762 726 738 752 770 741 732 761 767 763 755 717 760 756 757 769 766 708 730 799 712 717 692 735 744 712 749 755 765 712 764 767 782 711 749 800 777 747 765 794 830 743 763 784 713 784 768 751 819 771 795 793 805 800 843 800 775 772 793 825 793 847 824 847 792 785 823 830 852 835 842 866 818 812 767 841 830 828 841 765 808 777 849 807 866 729 770 813 874 809 841 858 768 771 791 753 761 711 806 804 790 798 810 845 813 797 800 803 793 770 790 750 748 791 767 801 805 742 760 776 769 767 757 757 792 770 779 809 720 814 727 774 748 793 723 727 725 814 757 729 740 778 744 790 715 755 780 810 725 709 780 757 713 765 776 783 737 720 730 769 772 760 808 772 744 796 705 791 704 767 748 735 758 795 814 771 753 751 752 765 750 797 732 744 701 781 752 752 725 807 754 785 803 781 772 811 771 775 785 745 759 797 779 752 778 818 746 758 797 821 783 766 777 782 759 744 752 753 741 781 787 729 747 748 807 734 837 798 763 810 737 747 776 794 765 769 771 735 681 773 783 761 765 759 746 782 723 737 719 774 762 765 772 797 769 792 735 758 768 751 735 798 733 782 810 752 791 760 768 774 755 744 758 672 781 724 752 768 717 763 788 749 745 774 798 772 783 747 779 734 819 759 772 765 822 773 809 781 759 781 784 784 805 795 752 773 792 788 779 761 809 809 801 796 842 816 752 811 775 856 878 803 838 906 826 853 882 869 905 933 921 991 890 897 955 952 1000 1032 1059 1056 1023 1113 1136 1141 1109 1118 1202 1110 1164 1174 1125 1154 1184 1119 1131 1165 1238 1174 1109 1067 1196 1187 1227 1140 1137 1120 1173 1151 1083 1082 1092 1107 1102 1066 1055 1043 1061 1014 1029 1063 1032 1042 1022 1001 1004 1061 979 979 980 956 951 916 909 890 935 931 907 888 866 896 880 853 857 842 864 811 818 800 823 809 828 796 788 789 753 819 787 790 777 826 765 780 859 767 770 862 757 753 777 788 779 778 844 788 770 845 741 722 786 772 804 713 735 777 765 748 801 775 807 777 758 813 763 749 778 767 814 750 819 742 741 744 759 753 830 799 795 790 773 733 707 804 769 768 743 738 749 741 715 832 734 738 746 819 761 783 717 738 700 757 706 783 791 768 806 798 749 794 770 785 743 803 789 767 736 767 766 727 779 777 775 825 871 809 798 765 819 816 822 810 808 773 814 809 800 806 791 799 824 745 805 790 733 816 814 853 791 841 842 792 777 787 803 792 815 774 792 759 738 776 744 773 733 761 735 807 788 807 765 786 765 736 745 805 745 757 840 752 776 735 776 711 734 744 754 727 775 763 756 807 726 811 771 725 727 771 735 738 764 804 762 751 788 800 807 753 816 743 833 811 780 737 776 756 774 778 791 775 765 759 727 753 732 757 787 773 750 726 738 777 745 784 704 715 788 765 796 749 802 718 748 775 764 753 758 768 752 734 708 786 760 768 728 761 801 784 753 760 788 798 730 801 809 752 826 777 776 788 740 769 772 776 774 710 729 778 751 724 772 705 861 765 790 775 738 778 786 780 777 795 700 714 764 715 738 824 730 768 757 733 760 772 796 716 801 778 776 763 755 762 699 760 744 726 766 761 761 745 761 757 748 824 759 821 787 757 764 748 720 825 800 747 787 734 729 732 768 809 750 709 755 766 828 755 730 741 717 782 743 740 727 799 805 779 790 781 757 827 738 741 779 785 721 768 763 766 785 739 807 767 764 780 760 799 748 755 771 755 726 841 768 788 812 749 721 738 756 751 744 730 739 743 733 756 790 777 723 763 748 738 743 756 715 735 781 756 774 769 798 767 708 770 784 765 724 724 756 738 741 771 744 738 763 763 739 789 759 781 777 731 751 756 770 771 780 775 750 756 788 769 759 760 798 809 720 766 792 765 722 759 734 780 743 762 707 773 758 768 793 805 803 721 764 767 798 716 778 760 803 778 759 714 799 761 737 771 756 789 792 814 802 789 770 741 815 763 686 767 747 755 757 732 718 787 735 742 729 789 740 728 745 752 789 833 718 743 783 757 794 753 775 801 803 743 738 761 775 720 747 746 781 731 781 681 787 744 784 807 768 761 724 797 721 800 735 693 776 744 770 780 728 808 719 798 739 750 764 763 778 764 786 741 744 741 796 789 805 794 789 791 743 727 795 773 778 754 772 751 765 806 801 829 774 786 768 778 821 808 819 854 772 814 817 843 809 842 854 846 854 861 860 862 866 831 878 914 868 873 834 849 809 845 853 825 905 847 819 870 872 896 854 826 841 833 818 840 810 835 859 834 858 862 858 855 886 824 860 858 874 848 869 876 819 884 806 802 832 920 834</counts>
			</dataPoints>
		</scan>
	</xrdMeasurement>
</xrdMeasurements>
