<?xml version="1.0"?>
<xrdMeasurements xmlns="http://www.xrdml.com/XRDMeasurement/2.3" xmlns:xsi="http://www.w3.org/2001/XMLSchema-instance" xsi:schemaLocation="http://www.xrdml.com/XRDMeasurement/2.3 http://www.xrdml.com/XRDMeasurement/2.3/XRDMeasurement.xsd" status="Completed" recordIdentifier="{5AE06899-9D93-42B2-AF46-23FE7B972FF3}">
	<comment>
		<entry/>
	</comment>
	<sample type="To be analyzed">
		<id>GPSS_Li1p5Mg0p5Sc0p5Cl4_110125_69065e22e3432ed06b655fa8</id>
		<name></name>
		<preparedBy></preparedBy>
	</sample>
	<xrdMeasurement measurementType="Scan" status="Completed" sampleMode="Reflection">
		<usedWavelength intended="K-Alpha 1">
			<kAlpha1 unit="Angstrom">1.5405980</kAlpha1>
			<kAlpha2 unit="Angstrom">1.5444260</kAlpha2>
			<kBeta unit="Angstrom">1.3922500</kBeta>
			<ratioKAlpha2KAlpha1>0.5000</ratioKAlpha2KAlpha1>
		</usedWavelength>
		<incidentBeamPath>
			<radius unit="mm">145.00</radius>
			<xRayTube id="1010048" name="Empyrean Cu LFF HR (9430 033 7310x)">
				<tension unit="kV">40.0</tension>
				<current unit="mA">15.0</current>
				<anodeMaterial>Cu</anodeMaterial>
				<focus type="Line">
					<length unit="mm">12.0</length>
					<width unit="mm">0.4</width>
					<takeOffAngle unit="deg">6.0</takeOffAngle>
				</focus>
			</xRayTube>
			<sollerSlit id="21010002" name="Soller slits 0.04 rad.">
				<opening unit="rad">0.0400</opening>
			</sollerSlit>
			<mask id="22031000" name="Fixed mask 13 mm">
				<width unit="mm">9.00</width>
			</mask>
			<divergenceSlit id="22120001" name="Divergence slit 1°" xsi:type="fixedDivergenceSlitType">
				<distanceToSample unit="mm">50.00</distanceToSample>
				<height unit="mm">1.52</height>
			</divergenceSlit>
		</incidentBeamPath>
		<sampleMovement xsi:type="spinningSampleMovementType">
			<spinnerRevolutionTime unit="seconds">1.0</spinnerRevolutionTime>
		</sampleMovement>
		<diffractedBeamPath>
			<radius unit="mm">145.00</radius>
			<antiScatterSlit id="22090040" name="AS slit 9 mm (PIXcel)" xsi:type="fixedAntiScatterSlitType">
				<height unit="mm">9.00</height>
			</antiScatterSlit>
			<sollerSlit id="21020003" name="Large Soller slits 0.04 rad.">
				<opening unit="rad">0.0400</opening>
			</sollerSlit>
			<filter id="20030001" name="Large beta-filter Nickel">
				<material>Ni</material>
				<thickness unit="mm">0.020</thickness>
			</filter>
			<detector id="7010019" name="PIXcel1D-Medipix3 detector" xsi:type="rtmsDetectorType">
				<phd unit="keV">
					<lowerLevel>4.02</lowerLevel>
					<upperLevel>11.27</upperLevel>
				</phd>
				<mode>Scanning</mode>
				<activeLength unit="deg">5.542</activeLength>
			</detector>
		</diffractedBeamPath>
		<scan appendNumber="0" mode="Continuous" scanAxis="Gonio" status="Completed">
			<header>
				<startTimeStamp>2025-11-04T13:55:13-08:00</startTimeStamp>
				<endTimeStamp>2025-11-04T14:03:20-08:00</endTimeStamp>
				<author>
					<name>AutomatedUser</name>
				</author>
				<source>
					<applicationSoftware version="1.7b (136)">PANalytical Aeris Instrument Suite</applicationSoftware>
					<instrumentControlSoftware version="3.2.00000000 20240306">AERIS</instrumentControlSoftware>
					<instrumentID>950485</instrumentID>
				</source>
			</header>
			<dataPoints>
				<positions axis="2Theta" unit="deg">
					<startPosition>10.00943322</startPosition>
					<endPosition>99.99442286</endPosition>
				</positions>
				<positions axis="Omega" unit="deg">
					<startPosition>5.00471661</startPosition>
					<endPosition>49.99721143</endPosition>
				</positions>
				<commonCountingTime unit="seconds">12.495</commonCountingTime>
				<counts unit="counts">2906 2933 2911 2919 2928 2918 3019 2985 3014 2966 2886 2918 2992 2994 2919 2899 3021 2870 2972 2999 2845 2926 2899 2957 2975 2848 2869 2929 2880 2938 2923 2856 3031 2870 2924 2852 2868 2896 2956 2906 2939 2969 2924 2829 2932 2903 2979 2971 2959 3000 2922 3074 2945 3009 2954 2999 2958 2930 2892 2952 3033 2993 2966 2871 3030 2899 2916 2986 2778 2927 2943 2847 2879 2963 2909 2911 2977 2999 2906 3001 3007 2891 2896 2935 2911 2954 2866 2974 2997 2879 2899 2940 2907 2876 2908 2889 2730 2932 2930 2913 2986 2909 2946 2898 2756 2921 2912 2907 2895 2910 2912 2860 2788 2883 2866 2899 2966 2918 2952 2838 2941 2854 2935 2916 2880 2887 2955 2837 2914 2758 2830 2883 2818 2887 2788 2855 2939 2976 2902 2817 2851 2898 2902 2834 2890 2894 2880 2839 2780 2824 2848 2726 2872 2865 2832 2861 2739 2851 2895 2881 2919 2827 2785 2904 2772 2844 2836 2827 2897 2780 2847 2864 2740 2882 2947 2864 2926 2849 2846 2864 2806 2911 2811 2870 2737 2859 2829 2811 2898 2852 2811 2777 2834 2915 2854 2775 2709 2828 2743 2896 2786 2816 2772 2820 2790 2827 2924 2734 2750 2799 2806 2768 2731 2821 2841 2801 2879 2790 2787 2702 2809 2762 2712 2815 2825 2759 2699 2839 2855 2710 2742 2784 2760 2756 2754 2734 2806 2778 2753 2830 2778 2748 2746 2635 2740 2680 2771 2803 2780 2778 2775 2756 2774 2810 2838 2768 2823 2778 2807 2776 2764 2803 2779 2821 2880 2735 2788 2808 2794 2842 2678 2805 2824 2857 2781 2703 2872 2806 2810 2752 2781 2865 2766 2826 2781 2817 2729 2787 2890 2810 2861 2753 2862 2858 2809 2942 2905 2940 2819 2874 2966 2774 2839 2946 2994 2922 2949 2935 2890 2919 2987 2989 2878 2892 2875 2965 3014 2967 2933 2980 2940 2981 2910 2945 2955 3083 3027 3077 2989 3108 3051 3102 3050 3003 3041 3101 3054 2979 3098 3205 3126 3068 3199 3122 3026 3156 3189 3190 3082 3177 3215 3140 3116 3005 3256 3214 3227 3199 3191 3329 3258 3137 3223 3246 3195 3351 3330 3337 3337 3283 3318 3330 3186 3328 3274 3419 3450 3385 3396 3339 3416 3301 3442 3385 3510 3339 3462 3413 3347 3385 3479 3521 3513 3486 3462 3495 3523 3523 3627 3513 3563 3652 3777 3579 3685 3800 3685 3848 3791 3861 4020 3896 3959 4015 3990 4143 4215 4227 4391 4378 4455 4513 4695 4861 5065 5127 5219 5364 5554 5767 5901 6152 6371 6464 6773 6996 7263 7366 7684 7873 7969 8132 8380 8516 8599 8852 9044 8802 8985 8932 9213 9144 9165 9112 9096 9215 9118 9066 8767 8300 7934 7914 7447 7018 6530 6130 5695 5546 5129 4818 4587 4465 4527 4224 4234 3976 4026 3814 3856 3768 3887 3713 3718 3660 3455 3614 3567 3438 3471 3564 3471 3471 3411 3490 3447 3396 3224 3326 3411 3211 3365 3345 3252 3318 3292 3358 3184 3228 3193 3279 3297 3149 3237 3331 3204 3159 3199 3118 3230 3223 3137 3205 3120 3141 3097 3025 3146 3217 3139 3148 3198 3146 3131 3059 3106 3127 3063 2954 3056 3141 3197 3100 3005 3138 3123 3189 3103 3163 3050 3150 3130 3144 3078 3241 3157 3126 3177 3181 3122 3154 3084 3141 3238 3130 3220 3091 3077 3149 3062 3091 3136 3162 3078 3128 3050 3075 3004 2995 2914 3010 2929 3048 3008 2919 2983 2957 2958 2881 2927 2943 2875 2921 2969 2925 2941 2893 3015 2911 2905 2860 2822 2845 2968 2861 2891 2875 2973 2868 2902 3039 2885 2884 2882 2819 3020 2986 2881 2824 2896 2863 3010 2905 2902 2882 2928 2852 2881 2783 2890 3037 3005 2948 2927 2951 2848 2878 2875 2782 2790 2819 2849 2886 2888 2792 2829 2828 2873 2936 2820 2798 2681 2816 2762 2763 2779 2756 2774 2750 2865 2769 2796 2750 2842 2716 2790 2820 2751 2706 2852 2815 2655 2749 2685 2747 2751 2729 2730 2768 2754 2812 2717 2739 2784 2720 2687 2757 2658 2702 2708 2766 2675 2725 2595 2710 2719 2681 2720 2728 2830 2736 2685 2708 2666 2741 2745 2604 2733 2606 2623 2726 2662 2693 2689 2640 2705 2603 2715 2614 2669 2742 2783 2717 2682 2775 2688 2724 2724 2768 2777 2655 2683 2697 2761 2676 2804 2779 2715 2718 2722 2709 2601 2690 2719 2658 2711 2710 2713 2654 2697 2586 2726 2638 2686 2593 2576 2604 2558 2556 2684 2593 2616 2644 2628 2697 2713 2518 2623 2596 2617 2620 2595 2615 2646 2610 2597 2634 2674 2602 2605 2546 2542 2614 2524 2571 2507 2556 2598 2585 2629 2709 2619 2722 2597 2666 2594 2604 2542 2568 2559 2595 2560 2613 2589 2593 2597 2560 2612 2608 2665 2702 2658 2601 2545 2526 2589 2575 2593 2553 2573 2582 2488 2595 2525 2615 2551 2484 2557 2601 2547 2507 2436 2541 2494 2452 2538 2506 2516 2434 2532 2455 2515 2564 2459 2497 2503 2393 2475 2505 2464 2414 2446 2370 2507 2460 2469 2443 2488 2488 2472 2450 2415 2429 2509 2457 2456 2361 2452 2416 2506 2383 2369 2421 2444 2499 2456 2418 2449 2431 2402 2397 2451 2446 2418 2399 2425 2353 2414 2402 2352 2388 2264 2309 2415 2284 2401 2362 2380 2387 2384 2353 2357 2350 2409 2369 2314 2307 2366 2285 2346 2321 2345 2268 2394 2354 2330 2356 2356 2300 2366 2327 2404 2320 2346 2299 2363 2361 2383 2355 2408 2263 2313 2313 2446 2318 2346 2356 2374 2344 2327 2340 2340 2347 2453 2371 2230 2237 2265 2307 2216 2339 2292 2189 2342 2256 2283 2293 2298 2271 2376 2270 2364 2246 2294 2208 2292 2244 2308 2317 2209 2234 2294 2388 2307 2266 2324 2345 2338 2296 2219 2275 2291 2251 2282 2199 2209 2272 2234 2193 2261 2316 2279 2301 2255 2284 2300 2217 2297 2351 2237 2269 2288 2185 2210 2290 2264 2303 2296 2209 2301 2278 2283 2200 2254 2265 2302 2279 2190 2232 2254 2282 2273 2283 2344 2272 2269 2384 2320 2216 2290 2259 2370 2266 2362 2370 2310 2306 2310 2350 2322 2266 2261 2222 2213 2282 2304 2199 2253 2242 2279 2299 2250 2248 2326 2274 2337 2273 2281 2289 2222 2349 2257 2384 2311 2311 2313 2339 2244 2261 2214 2264 2302 2354 2331 2318 2248 2248 2213 2354 2305 2324 2388 2275 2291 2290 2344 2376 2316 2276 2282 2199 2334 2195 2185 2310 2370 2242 2312 2313 2297 2281 2240 2212 2238 2193 2206 2155 2200 2304 2247 2257 2172 2221 2183 2261 2182 2251 2193 2289 2110 2147 2170 2198 2158 2176 2244 2177 2173 2187 2145 2276 2192 2158 2132 2186 2157 2086 2122 2154 2136 2193 2096 2124 2064 2165 2087 2127 2053 2115 2073 2076 2178 2034 2202 2023 2045 2140 1969 2014 2092 2118 1993 2005 2034 2099 2130 2073 1966 2064 1927 2067 2084 1972 2011 2027 2046 1971 2016 1986 2056 1970 1971 1985 2012 2049 1907 1921 1934 1963 1991 1953 1973 1871 2002 1927 1882 1973 1946 1924 1920 1881 1825 2004 1881 1921 1880 1853 1907 1902 1897 1812 1885 1872 1827 1864 1840 1760 1850 1816 1852 1816 1831 1814 1767 1828 1763 1828 1798 1810 1764 1772 1753 1801 1773 1754 1771 1845 1794 1769 1746 1734 1787 1780 1829 1853 1759 1705 1816 1720 1858 1699 1697 1763 1771 1721 1710 1795 1703 1772 1783 1703 1788 1723 1753 1775 1636 1700 1693 1721 1689 1677 1709 1705 1627 1672 1625 1624 1653 1667 1618 1634 1609 1617 1567 1636 1647 1638 1633 1615 1600 1714 1672 1597 1578 1670 1539 1625 1603 1603 1575 1557 1616 1668 1547 1635 1611 1671 1638 1601 1616 1647 1554 1673 1630 1623 1613 1564 1570 1628 1539 1615 1597 1604 1642 1625 1636 1602 1585 1561 1627 1573 1634 1582 1622 1484 1662 1647 1623 1613 1585 1578 1549 1545 1559 1544 1629 1582 1540 1513 1613 1561 1572 1598 1521 1529 1599 1567 1605 1528 1655 1535 1544 1583 1506 1561 1583 1499 1519 1583 1566 1585 1578 1578 1581 1599 1555 1504 1580 1500 1583 1554 1564 1572 1566 1549 1556 1542 1561 1540 1499 1563 1542 1614 1542 1591 1596 1600 1587 1524 1552 1600 1535 1576 1490 1461 1556 1586 1559 1598 1563 1595 1596 1571 1516 1591 1535 1557 1528 1525 1590 1513 1646 1573 1642 1575 1583 1621 1584 1621 1566 1588 1649 1560 1548 1575 1507 1542 1583 1579 1569 1611 1615 1556 1606 1583 1471 1558 1606 1548 1627 1621 1541 1574 1575 1538 1565 1573 1479 1466 1640 1625 1484 1601 1502 1591 1531 1583 1554 1532 1546 1567 1542 1514 1583 1513 1531 1517 1514 1448 1498 1554 1444 1540 1539 1534 1505 1540 1536 1543 1514 1510 1439 1519 1478 1546 1534 1492 1489 1496 1488 1488 1445 1642 1560 1511 1496 1542 1494 1400 1571 1485 1465 1540 1465 1519 1525 1400 1457 1470 1508 1524 1451 1461 1452 1425 1495 1508 1482 1437 1436 1481 1473 1444 1478 1528 1451 1440 1499 1393 1466 1362 1467 1483 1389 1439 1462 1464 1429 1359 1410 1450 1465 1401 1468 1336 1345 1462 1459 1451 1443 1449 1438 1421 1279 1333 1326 1334 1410 1366 1467 1295 1363 1317 1329 1306 1318 1312 1354 1285 1349 1364 1293 1383 1264 1335 1306 1287 1238 1256 1289 1298 1296 1286 1278 1318 1235 1288 1318 1360 1299 1229 1278 1271 1192 1249 1266 1323 1244 1235 1235 1246 1233 1311 1227 1165 1284 1186 1228 1290 1226 1196 1153 1219 1182 1275 1289 1232 1224 1182 1261 1227 1215 1275 1182 1219 1244 1180 1228 1154 1146 1190 1245 1192 1179 1185 1196 1181 1179 1175 1192 1184 1140 1190 1138 1188 1183 1181 1141 1192 1179 1167 1160 1092 1150 1169 1160 1178 1245 1198 1162 1175 1238 1194 1182 1221 1302 1232 1270 1286 1286 1330 1277 1389 1430 1363 1442 1449 1518 1487 1518 1610 1563 1664 1718 1724 1826 1762 1663 1641 1767 1676 1674 1614 1609 1537 1500 1520 1459 1420 1390 1327 1282 1275 1334 1268 1199 1214 1209 1209 1192 1168 1127 1204 1177 1111 1130 1164 1118 1166 1146 1186 1166 1163 1075 1175 1177 1138 1150 1126 1093 1122 1158 1142 1118 1147 1155 1100 1084 1111 1126 1141 1029 1102 1103 1167 1194 1194 1118 1172 1180 1129 1148 1132 1176 1213 1177 1211 1168 1165 1196 1245 1262 1209 1250 1250 1274 1333 1306 1313 1299 1373 1407 1444 1401 1432 1474 1535 1566 1695 1731 1849 1852 2003 2100 2301 2335 2642 2830 3214 3384 3594 4102 4466 4822 5340 5582 6377 6821 7665 8243 8777 9078 9747 10137 10528 10702 10639 10678 10654 10268 10011 9694 9266 8582 8315 7751 7391 6822 6329 5989 5632 5239 5050 4771 4381 4159 3883 3901 3751 3671 3465 3345 3315 3346 3257 3343 3239 3254 3241 3193 3238 3274 3366 3310 3396 3109 3055 3106 2868 2756 2551 2507 2174 2259 2079 1993 1871 1682 1725 1574 1614 1535 1419 1380 1349 1310 1273 1247 1249 1221 1208 1193 1166 1088 1129 1043 1044 991 1044 983 1054 1038 1006 1053 992 993 999 972 982 987 1012 991 983 968 907 979 976 943 903 905 1006 959 979 976 905 962 938 965 904 969 941 918 945 880 1003 873 915 911 928 895 922 885 883 972 962 939 959 927 893 878 864 891 946 992 940 941 910 941 874 827 958 877 974 825 890 852 909 886 893 875 912 904 938 882 863 890 844 885 890 932 887 853 837 874 845 876 849 868 928 938 924 885 926 876 935 888 880 914 938 922 905 945 1032 978 1027 989 1042 1102 1020 1052 1125 1192 1194 1167 1239 1289 1312 1343 1417 1480 1480 1565 1478 1610 1579 1471 1487 1463 1435 1407 1374 1312 1251 1242 1213 1117 1127 1056 985 984 961 975 941 972 942 914 905 951 925 873 873 906 863 811 852 846 864 859 873 818 821 820 786 807 810 825 818 861 878 769 791 865 873 829 847 734 813 826 757 816 823 796 803 842 821 777 760 732 802 804 793 780 786 794 775 753 764 805 796 852 860 834 769 795 838 802 790 736 803 767 793 822 792 847 842 835 783 828 782 803 737 807 798 780 860 756 842 817 806 785 789 802 751 824 768 846 793 792 735 804 787 780 802 827 777 834 792 779 822 814 767 849 812 868 850 803 821 819 868 837 801 794 847 850 887 875 870 835 837 852 829 869 888 877 822 848 877 860 875 836 862 885 855 942 877 937 867 888 880 882 889 914 896 931 929 904 901 963 977 946 952 1014 984 1036 982 975 1090 969 1024 1077 1111 1044 1062 1104 1112 1131 1135 1183 1232 1187 1182 1229 1318 1259 1324 1343 1348 1446 1501 1465 1549 1511 1699 1716 1798 1931 2062 2189 2339 2549 2714 2993 3267 3504 3821 4135 4583 4902 5524 5817 6462 7183 7687 8396 9153 9499 10210 10593 11018 11270 11486 11519 11536 11385 11242 10755 10565 10047 9679 9227 8737 8108 7497 7081 6576 6222 5689 5246 4814 4534 4211 3883 3797 3289 3103 3008 2845 2762 2669 2499 2334 2302 2132 2186 2204 2022 1987 1943 1867 1871 1800 1763 1720 1637 1748 1528 1508 1467 1473 1412 1348 1261 1175 1150 1178 1065 1059 985 1036 1008 986 905 912 895 898 918 866 820 854 841 852 817 785 757 823 801 778 784 801 828 761 789 771 729 715 750 740 719 723 751 730 756 772 734 758 695 708 778 725 785 763 694 700 739 745 750 750 753 716 709 710 655 666 720 689 714 702 710 743 727 719 745 680 737 688 734 712 742 700 742 697 661 697 724 740 674 645 695 719 700 729 715 687 694 705 682 703 674 703 720 673 653 700 674 684 754 722 708 697 689 688 693 668 685 721 697 653 699 696 669 644 723 625 691 693 676 659 652 701 632 659 687 608 668 644 654 681 671 698 675 733 662 676 662 664 624 671 636 679 666 654 659 609 602 625 670 666 643 627 640 636 643 679 652 657 607 625 610 649 636 610 594 621 640 628 593 624 640 599 661 598 646 607 620 661 622 614 665 621 618 617 606 637 623 627 618 669 615 642 563 636 594 628 656 594 589 591 603 586 649 549 574 524 631 583 610 595 595 595 600 592 587 614 582 629 616 594 607 611 631 554 560 617 587 598 549 577 594 556 650 581 630 582 620 617 640 587 585 579 553 589 599 620 635 632 596 671 578 616 586 594 580 598 543 582 592 555 577 599 590 603 584 611 578 591 577 608 588 584 609 618 541 602 577 570 571 548 552 557 596 540 543 575 592 535 587 584 549 567 554 603 556 550 560 585 554 564 581 567 597 511 587 553 572 561 502 517 559 575 547 563 532 551 529 579 539 550 562 533 546 542 537 552 524 526 540 525 519 578 559 528 541 540 566 521 540 537 539 524 557 574 550 527 523 519 530 576 529 565 579 517 521 540 491 577 535 507 547 522 562 505 543 474 521 524 499 525 582 540 533 529 547 537 532 529 503 507 492 502 535 519 537 551 532 540 516 489 508 525 532 532 610 588 553 527 559 556 540 532 521 503 504 531 465 526 542 579 515 486 504 522 511 488 524 512 488 531 468 526 500 518 494 515 486 534 543 534 520 498 518 527 508 504 451 523 515 505 469 573 527 476 477 488 525 521 484 503 489 496 464 475 480 519 552 511 520 535 488 535 524 514 556 540 488 506 517 498 490 487 555 497 507 510 498 508 561 506 515 487 473 487 512 472 487 472 528 503 511 495 551 504 512 502 470 518 503 528 489 476 494 508 524 530 491 510 571 480 529 540 481 482 530 527 523 528 490 472 503 522 466 550 531 508 533 498 528 535 572 538 531 562 527 484 483 527 530 505 481 539 551 500 522 475 499 559 579 555 527 538 520 466 500 522 477 530 487 490 520 556 550 505 521 558 538 542 537 547 534 555 569 596 540 563 585 598 588 642 587 631 617 634 655 682 708 711 730 738 772 812 822 830 912 937 952 968 1013 1007 1029 1045 1016 1077 991 916 926 927 871 922 854 818 754 763 712 695 703 590 629 623 612 596 550 573 560 516 547 515 587 507 544 547 543 564 518 562 503 568 497 510 487 484 500 520 511 484 500 489 502 543 466 462 466 452 484 527 529 479 524 510 496 472 511 497 483 485 493 479 509 505 478 465 461 476 484 426 469 499 479 444 451 499 477 494 514 510 452 504 459 451 476 486 492 465 486 462 489 459 510 493 479 489 461 449 500 454 478 467 494 456 482 475 479 495 458 464 463 475 468 464 503 484 457 499 464 453 475 485 469 447 466 516 452 491 481 475 457 504 472 463 485 514 465 449 511 468 473 503 496 500 462 489 468 467 473 506 475 485 488 468 475 508 478 466 484 502 454 454 484 470 483 446 510 467 485 496 515 469 456 496 483 452 503 483 491 474 445 501 487 539 453 478 458 494 460 468 473 442 492 521 487 473 434 465 513 472 495 511 515 483 444 459 495 511 446 476 488 470 482 471 491 450 468 441 476 489 470 485 462 463 514 418 472 455 509 478 464 468 441 486 467 453 481 502 457 482 435 454 504 499 464 459 475 450 497 498 485 477 503 487 445 424 463 483 461 510 532 515 500 480 454 519 466 483 505 459 499 508 483 487 482 528 484 497 446 517 515 497 502 512 513 465 508 493 525 458 539 470 493 529 469 492 508 505 493 435 513 482 526 483 533 532 550 559 528 565 550 589 570 617 627 688 705 764 790 778 821 826 895 941 1033 987 1039 998 1039 1021 1067 1049 1077 1032 1100 1020 992 1017 1025 992 980 1009 938 899 894 865 862 775 796 764 784 779 756 704 685 668 700 708 659 694 651 612 588 643 586 574 583 530 543 529 538 536 509 524 564 535 517 547 495 561 546 530 551 515 574 587 592 580 570 573 548 598 545 541 528 558 519 545 565 557 521 491 498 479 490 572 514 489 506 470 465 470 485 470 510 462 466 462 481 422 462 408 444 456 454 450 435 445 417 448 466 453 443 423 464 423 397 434 465 438 451 460 447 441 438 441 436 473 459 450 456 469 435 460 393 477 436 460 460 435 440 483 412 497 441 459 433 445 424 436 421 430 440 453 440 464 450 473 402 444 431 448 408 426 421 430 408 429 438 417 444 407 446 399 419 425 395 405 431 401 420 393 449 421 414 461 423 427 456 430 440 435 426 426 442 441 418 424 435 450 459 435 434 435 392 389 444 445 413 425 430 449 437 437 402 455 412 430 368 426 437 448 399 471 418 418 432 445 438 455 441 416 465 461 480 442 415 448 436 444 420 450 445 428 458 457 463 466 444 492 443 423 459 492 466 470 469 477 467 485 465 525 463 477 483 515 476 514 471 481 442 517 475 479 432 502 495 493 477 479 472 464 501 478 466 510 462 431 499 502 498 491 502 457 509 481 520 476 511 503 466 475 502 506 532 475 463 528 507 474 475 475 490 483 484 468 502 440 496 512 496 490 504 470 496 477 491 442 495 508 459 494 536 486 511 481 489 498 492 499 470 512 524 532 503 496 587 537 548 593 572 551 557 553 589 623 572 595 622 567 625 612 587 648 652 622 689 706 701 719 783 792 780 845 819 923 913 963 998 1107 1182 1206 1348 1521 1706 1877 1906 2217 2312 2609 2905 3212 3324 3697 4016 4290 4640 4808 5109 5394 5401 5601 5543 5518 5448 5315 5291 5134 4854 5015 4701 4718 4593 4514 4138 4033 3830 3697 3315 3266 3025 2776 2710 2560 2374 2292 2122 2040 1915 1838 1771 1676 1694 1495 1438 1405 1238 1253 1310 1181 1138 1103 1083 1023 1026 1018 995 961 926 898 890 906 854 853 888 799 884 841 834 848 808 823 780 893 761 783 757 764 715 715 739 715 759 764 680 678 648 696 586 600 587 620 644 594 640 597 561 558 541 536 527 555 493 559 504 508 527 475 537 467 468 446 454 537 456 492 428 465 457 466 450 453 441 464 427 438 464 439 456 452 436 451 419 449 424 427 443 411 465 444 411 428 419 437 372 458 396 392 405 421 421 409 422 435 438 414 434 421 365 404 417 431 414 382 430 403 431 440 414 412 411 403 382 404 385 389 380 410 418 416 428 399 417 428 407 407 370 439 406 403 411 378 388 397 394 384 413 392 382 445 415 436 430 396 421 394 429 462 394 438 429 432 436 420 434 431 454 450 496 468 485 503 537 552 550 594 575 579 627 608 620 697 652 710 749 709 711 728 748 745 705 688 663 711 667 733 615 624 660 623 611 608 610 624 561 501 551 490 507 466 470 453 488 438 419 438 451 419 423 438 434 369 391 411 416 381 449 390 398 422 402 402 387 391 395 422 389 426 378 360 399 386 392 386 387 388 398 391 345 382 363 366 372 381 341 399 369 367 355 376 402 359 376 417 344 375 393 415 392 399 365 392 382 414 358 372 377 360 390 391 380 381 366 405 373 399 380 351 426 411 394 387 391 366 365 364 371 352 376 353 364 374 339 398 409 351 405 316 390 374 393 342 393 368 363 355 345 383 353 388 346 365 353 367 345 339 370 372 397 377 387 383 385 383 411 365 358 347 380 393 319 343 348 370 394 381 385 352 379 354 390 333 374 321 353 337 335 346 348 377 353 363 379 355 361 372 385 349 405 376 353 367 374 373 325 391 369 379 353 333 326 384 322 363 369 342 352 372 358 327 353 369 337 389 362 391 390 398 411 382 415 383 392 398 378 400 378 400 425 419 362 407 491 444 425 471 462 479 486 511 534 534 559 565 569 634 688 705 677 689 726 675 716 707 738 731 681 645 634 657 599 609 631 623 613 587 575 522 498 502 486 447 457 434 458 458 416 422 435 393 428 388 391 377 368 354 355 366 386 361 386 352 356 379 344 346 355 348 341 318 341 342 351 331 334 333 354 406 361 350 308 317 359 372 373 321 343 339 353 291 342 370 342 340 386 362 310 346 350 313 346 381 330 338 353 352 361 330 316 359 352 329 310 341 312 296 325 324 323 332 313 334 285 300 325 305 322 354 259 322 295 328 340 327 299 343 345 334 302 313 334 296 298 317 371 307 316 311 297 287 316 324 291 303 348 314 282 320 311 326 355 330 347 334 345 304 293 360 298 319 363 330 302 314 316 306 323 324 339 300 315 311 295 357 296 320 347 310 350 302 365 333 324 329 329 325 284 315 344 336 315 338 323 329 335 368 336 330 302 329 324 305 311 336 340 343 310 328 341 347 352 303 322 342 297 331 304 326 340 378 351 335 324 332 311 327 329 326 335 324 321 342 313 317 306 319 319 302 332 335 306 306 319 322 341 319 353 325 302 302 318 303 330 315 293 327 320 317 324 336 314 341 345 353 325 350 364 337 286 336 305 312 322 312 329 309 333 325 315 315 322 328 272 353 309 307 331 335 347 348 355 325 339 344 375 313 339 326 335 314 374 330 348 358 332 343 360 324 361 373 361 348 340 335 322 363 347 312 387 374 383 402 382 370 374 395 391 388 428 421 420 407 390 392 376 409 381 417 382 350 392 403 367 386 380 411 403 383 399 387 416 383 411 362 384 405 396 396 395 419 443 397 409 460 392 462 471 439 492 468 454 505 551 551 545 578 654 620 711 729 742 868 874 906 1019 1069 1201 1158 1316 1314 1400 1396 1432 1569 1505 1523 1611 1608 1566 1622 1535 1587 1589 1502 1535 1524 1478 1407 1390 1361 1365 1335 1292 1281 1200 1207 1150 1062 1117 1064 963 939 879 900 852 880 723 786 756 759 702 727 676 698 638 655 602 611 616 558 577 531 587 517 518 505 570 523 470 515 474 476 482 457 486 478 510 506 452 474 437 471 489 495 460 481 469 476 501 490 496 476 462 444 467 444 481 461 426 435 422 459 456 433 424 416 401 445 428 395 408 423 364 427 414 418 361 371 355 376 394 412 365 404 359 412 374 391 391 390 442 389 391 402 371 402 409 391 377 416 420 399 386 369 374 397 356 356 391 351 370 368 342 346 390 408 383 366 346 345 343 297 326 376 371 334 353 324 362 307 380 355 341 318 321 313 328 324 361 319 341 369 306 344 346 384 320 344 321 355 352 345 350 337 321 312 330 350 336 319 314 322 331 346 346 327 329 323 309 344 352 326 320 325 321 310 316 343 346 352 318 363 321 356 327 351 307 329 332 374 332 330 311 373 358 411 363 354 398 380 387 365 352 372 413 412 407 400 408 433 427 391 383 431 471 445 469 473 476 469 504 498 548 605 613 641 658 719 755 792 940 1008 1009 1139 1123 1219 1311 1383 1406 1418 1510 1502 1598 1539 1527 1510 1544 1455 1517 1396 1508 1409 1393 1326 1339 1336 1264 1232 1217 1289 1190 1164 1011 1049 1039 943 900 943 828 800 755 785 768 762 765 721 723 666 647 722 602 672 588 576 579 611 586 577 517 606 541 532 512 497 482 502 486 501 507 469 470 471 451 472 452 472 472 496 475 458 481 480 472 472 465 503 516 527 502 514 550 609 629 672 721 772 774 786 806 865 874 830 785 752 760 673 643 618 600 583 564 566 559 542 601 601 548 575 573 512 456 502 417 451 421 417 417 428 402 373 345 377 338 365 356 346 369 354 380 357 328 356 354 334 336 308 344 326 341 298 348 340 341 326 310 317 312 299 301 318 330 327 334 304 317 262 320 298 313 300 313 280 293 322 272 304 328 272 314 311 299 286 340 323 312 364 308 333 316 326 350 371 366 359 404 417 413 379 394 411 404 450 434 473 409 423 415 458 448 460 467 416 422 431 442 442 404 436 430 472 441 421 426 389 434 417 433 392 370 410 386 411 397 360 363 409 372 364 382 351 385 418 351 409 369 353 355 327 307 332 319 362 340 315 311 339 303 340 322 329 326 313 297 310 257 322 288 317 298 318 312 270 329 273 294 312 293 292 299 266 316 283 294 267 278 244 270 287 245 278 311 293 250 290 288 231 290 246 286 300 302 291 278 264 291 241 287 292 301 259 243 273 273 257 275 236 291 277 267 268 281 262 267 288 248 302 260 262 260 273 271 248 276 233 239 293 242 241 268 281 278 261 241 256 262 227 248 268 248 246 274 242 235 268 222 240 230 257 247 227 268 258 300 244 244 278 231 220 238 226 279 229 236 248 248 229 246 239 226 248 259 249 229 243 250 234 265 250 250 245 230 233 231 207 279 240 247 266 261 275 228 241 222 259 265 249 270 256 237 205 238 271 237 246 243 239 234 219 234 242 226 234 240 238 251 238 247 221 273 256 228 256 273 267 272 267 248 267 229 246 220 229 221 224 256 249 248 243 241 258 265 270 298 288 258 271 262 270 318 298 293 283 268 322 271 278 273 250 256 273 291 292 267 278 243 249 250 249 262 276 247 228 223 281 266 237 258 266 257 243 263 239 259 225 259 245 228 223 259 240 262 233 238 215 258 216 264 216 243 231 229 231 244 275 237 241 239 227 219 247 229 223 264 244 247 217 203 259 214 257 285 223 238 181 212 213 218 231 218 231 247 219 233 190 229 231 221 216 220 229 212 249 205 225 244 213 192 212 215 245 218 215 237 213 249 257 225 240 211 215 220 234 230 225 269 236 248 221 199 228 202 206 258 197 235 222 238 257 198 235 241 237 209 234 209 235 202 269 219 233 205 222 231 218 222 230 236 250 235 220 235 209 218 235 247 247 242 226 220 272 227 232 244 237 220 229 210 229 227 233 208 241 242 216 221 228 241 235 240 229 205 243 236 245 257 242 226 225 227 228 224 214 213 238 210 258 206 239 200 205 219 231 239 211 241 234 229 224 244 238 216 236 232 238 233 229 221 234 233 249 274 266 197 217 233 272 259 244 230 277 239 236 258 295 287 290 275 298 296 313 300 292 309 340 317 318 316 304 328 309 328 315 315 314 322 314 329 315 308 327 300 325 326 333 303 286 271 292 288 295 256 286 286 307 284 250 270 239 244 259 270 268 249 233 260 272 242 264 233 242 233 246 234 272 208 243 243 228 238 246 238 233 283 232 259 249 261 236 259 226 267 220 250 239 237 238 240 237 208 227 226 223 248 232 221 239 248 216 229 241 216 234 225 218 211 231 219 265 244 240 229 206 223 217 232 202 215 208 200 206 206 232 209 202 186 217 214 197 217 212 199 269 231 224 209 218 213 203 193 218 230 229 207 238 186 223 204 210 187 200 186 210 224 216 219 189 200 237 218 215 210 189 219 208 210 191 181 208 211 222 216 228 202 216 218 208 217 211 203 216 229 206 222 234 225 213 257 185 216 183 226 204 216 204 224 216 224 235 220 229 205 215 211 209 192 243 190 209 223 218 238 219 216 199 211 208 204 218 206 214 220 229 233 218 218 186 228 224 243 244 206 220 237 218 251 225 247 231 209 188 217 209 212 216 224 239 188 227 190 201 200 221 236 207 238 230 218 224 209 223 227 241 196 218 216 229 262 259 230 233 242 219 234 235 225 263 229 233 213 234 259 227 246 228 232 268 243 270 237 275 268 281 284 264 296 266 293 297 317 321 289 323 336 332 313 336 339 353 410 382 391 428 462 463 478 470 508 485 558 523 565 577 597 566 592 574 534 615 565 635 560 566 525 589 548 617 554 549 551 548 537 524 554 581 517 515 496 510 475 469 496 447 457 443 415 400 414 396 451 415 368 345 365 364 369 346 336 352 331 350 315 336 313 296 303 318 284 302 265 309 283 258 264 283 246 293 272 248 295 228 274 265 249 247 213 231 228 225 266 247 233 241 266 246 239 236 282 234 243 248 227 269 228 222 227 269 228 280 249 241 234 222 250 226 239 222 242 214 216 238 237 264 257 224 214 221 220 240 228 211 268 238 244 233 224 212 233 222 233 212 223 223 222 221 231 213 215 171 202 226 214 230 190 213 210 210 213 189 219 217 215 211 206 211 240 217 223 196 203 216 196 234 210 196 187 215 199 213 206 212 200 183 204 223 214 222 214 192 226 216 238 257 203 225 196 206 184 223 202 235 223 222 206 223 249 222 234 208 238 218 226 223 226 226 218 238 220 217 217 200 218 223 220 216 202 210 196 208 201 238 215 199 233 196 221 176 203 233 219 201 205 212 230 178 205 210 207 212 208 207 207 183 209 201 219 217 200 178 193 233 183 212 171 206 209 207 216 187 207 219 229 195 200 206 212 187 186 208 209 219 220 216 184 201 198 236 190 191 197 176 210 205 203 206 173 210 217 191 200 204 212 210 225 222 208 215 213 209 195 210 203 222 199 204 193 194 198 209 189 221 191 195 168 202 194 195 202 200 205 180 198 198 203 200 192 196 191 201 200 177 200 197 218 219 177 202 188 202 167 203 221 194 196 197 214 186 219 201 198 229 202 195 204 183 226 194 198 220 199 203 183 177 207 214 197 211 204 210 206 183 236 216 191 206 219 232 226 238 216 225 218 276 210 256 211 217 247 212 245 228 230 238 217 274 230 195 242 229 242 207 232 225 209 225 217 244 212 236 233 202 206 215 271 200 201 226 215 197 201 218 201 192 190 212 212 197 206 193 203 228 207 201 216 226 226 216 226 214 193 202 203 223 198 200 211 186 182 176 179 190 193 179 202 210 206 221 186 226 187 215 191 233 209 223 198 207 187 191 222 203 215 202 197 189 184 202 204 204 222 193 213 211 200 210 195 190 177 225 202 210 199 217 212 226 195 216 170 210 212 181 219 225 191 193 190 201 180 215 199 197 205 211 208 195 197 197 206 188 185 213 203 213 222 204 202 185 203 187 218 231 208 214 200 218 208 208 216 196 203 224 218 191 199 201 155 207 202 221 211 191 200 225 207 188 223 211 191 211 230 221 226 186 213 194 213 180 210 218 187 199 218 203 197 217 214 178 202 203 208 200 185 219 184 268 202 226 215 196 180 201 227 233 230 228 216 209 187 221 192 230 216 199 210 210 192 204 211 222 203 217 222 194 225 224 202 202 213 214 207 218 248 222 215 197 250 208 233 228 228 237 209 213 225 208 220 238 197 220 210 218 222 270 260 243 273 245 264 246 283 246 261 268 285 259 274 300 288 270 290 298 285 300 294 263 280 257 271 262 279 276 245 291 276 292 277 299 275 261 297 282 285 294 294 295 276 305 276 307 303 291 292 291 310 339 309 330 352 364 355 354 385 373 387 419 416 426 451 468 488 507 530 545 506 507 475 540 559 505 537 537 543 524 560 503 527 503 517 486 511 468 471 458 479 410 484 491 509 444 464 427 451 479 408 472 453 394 431 410 396 427 397 374 345 373 328 362 327 349 296 327 339 311 321 362 342 299 327 326 328 304 315 305 309 319 322 345 331 356 310 312 381 311 339 326 347 310 310 295 297 297 311 317 286 307 307 276 283 278 291 308 310 276 311 278 279 292 299 289 286 296 301 286 291 286 288 273 319 289 296 314 250 346 286 309 319 333 328 317 333 329 282 310 327 329 281 279 294 322 318 302 294 281 277 275 259 260 280 277 277 263 292 278 285 265 261 248 264 277 291 238 256 272 235 309 217 276 237 230 209 245 227 245 256 245 261 217 250 282 277 233 234 272 236 258 265 246 240 262 286 249 285 275 282 259 256 289 257 266 291 293 259 311 281 306 313 275 311 304 313 287 312 289 304 319 322 345 324 314 318 367 352 354 426 362 388 401 478 446 486 545 527 522 617 626 637 682 679 701 697 693 781 811 807 865 865 869 894 910 969 857 943 875 945 950 866 938 923 974 913 914 893 917 886 888 902 846 874 822 891 887 827 805 826 765 793 783 735 787 738 763 745 679 705 649 651 674 631 589 617 561 527 531 501 527 516 488 463 489 468 462 465 436 437 445 441 414 423 436 375 436 416 407 366 418 420 413 407 377 420 402 415 422 405 425 436 404 405 397 404 402 384 416 405 385 381 345 386 338 395 344 384 310 344 356 343 348 337 376 319 339 354 348 350 373 387 353 338 354 395 349 335 336 334 326 333 356 327 308 355 330 332 316 301 311 325 328 299 306 321 272 295 300 311 292 301 335 307 322 293 301 294 304 283 288 284 292 284 288 273 303 277 292 292 278 292 285 274 266 306 297 294 267 243 288 250 314 260 310 285 306 290 328 269 268 274 287 301 295 283 247 266 282 307 284 284 263 266 288 265 267 271 261 267 262 279 279 282 243 260 260 268 272 256 282 245 237 273 283 276 269 241 227 233 226 266 237 245 225 233 248 228 231 213 234 188 239 237 239 222 222 248 223 198 210 240 256 236 238 240 259 235 234 222 223 230 214 217 214 240 213 211 195 223 206 216 236 201 228 233 246 220 217 192 190 203 216 207 220 211 211 227 190 225 229 240 206 219 222 218 208 209 230 212 193 199 224 274 239 221 221 199 215 227 229 209 216 214 246 216 222 192 227 226 213 207 187 180 208 211 208 215 181 201 224 233 232 213 235 183 193 223 191 212 212 204 234 218 211 212 235 216 214 201 199 204 218 217 186 204 225 204 219 189 212 202 213 214 236 219 235 205 224 191 227 234 234 212 231 223 213 192 205 193 216 196 207 196 168 187 201 232 256 207 226 225 232 235 205 229 216 203 226 204 218 201 258 222 221 202 221 195 225 207 233 240 225 174 212 230 208 223 217 262 203 262 226 243 231 256 258 268 239 208 236 225 230 227 227 250 238 240 213 223 238 257 221 248 243 245 235 275 241 280 251 258 239 241 250 249 240 259 237 225 232 261 260 287 303 270 297 264 272 292 281 258 267 268 296 272 262 246 294 250 261 233 217 247 238 269 269 263 241 256 262 232 237 237 271 272 238 258 240 267 235 227 235 232 241 237 197 218 214 227 207 221 218 216 231 237 221 213 224 237 207 221 220 218 217 215 233 204 228 233 234 222 231 201 215 224 204 225 209 227 187 214 258 211 214 219 203 194 203 228 240 211 220 219 216 209 189 240 220 228 198 196 179 219 192 219 205 176 197 202 229 236 239 212 250 199 179 225 213 213 192 225 208 201 210 208 218 217 206 246 216 222 200 237 227 213 230 224 242 244 205 239 198 239 259 213 215 209 221 227 186 204 226 199 207 226 205 220 189 220 223 204 229 208 250 200 264 216 212 223 225 262 239 227 247 218 232 219 233 261 207 236 262 271 269 242 274 238 256 248 260 262 281 270 287 270 259 269 266 284 257 280 258 282 266 258 243 298 269 271 266 281 272 277 268 278 284 233 273 245 234 259 235 221 262 211 241 247 240 224 232 235 249 242 215 221 243 224 266 229 229 220 179 222 201 236 203 227 225 233 217 212 244 198 219 219 202 213 214 215 231 247 209 195 225 215 208 233 218 206 224 230 204 204 186 214 202 229 226 204 239 216 235 215 216 221 224 235 189 186 218 228 232 206 218 194 224 215 217 179 202 182 226 208 198 222 197 227 201 198 206 226 188 216 185 204 206 220 205 209 191 196 200 213 218 200 213 225 220 218 224 225 199 220 222 197 218 234 210 217 204 217 200 213 195 227 194 195 208 196 219 234 214 206 206 198 209 215 180 196 207 217 195 221 199 210 201 211 184 185 221 191 207 219 234 244 218 203 210 226 216 219 217 224 233 198 220 217 225 205 192 230 216 203 205 217 205 217 213 209 211 206 214 188 247 231 230 195 236 231 212 182 199 229 265 259 204 210 200 213 209 245 231 221 259 260 239 277 245 283 227 261 282 258 233 258 283 247 256 269 237 268 278 264 272 272 283 282 311 299 340 344 310 298 320 356 373 392 412 425 442 438 402 472 467 514 497 518 500 560 609 580 629 627 660 665 697 660 691 715 706 724 713 723 684 719 727 673 653 649 659 607 641 628 643 646 601 626 619 624 623 572 615 639 599 623 636 598 626 583 554 617 536 560 556 528 518 527 494 479 502 476 411 449 493 405 473 431 450 403 387 389 372 410 393 364 385 341 383 351 351 336 327 347 363 325 346 308 342 294 319 317 343 314 334 313 312 318 313 272 281 295 275 299 275 288 281 276 295 268 263 239 244 259 232 258 263 275 267 217 233 256 281 265 256 240 272 277 249 284 263 271 240 232 222 247 244 234 229 246 277 244 246 273 242 243 222 237 269 232 228 298 259 285 248 294 283 271 232 257 234 264 275 246 310 286 246 265 276 271 232 229 241 247 246 239 282 270 237 247 274 286 244 261 257 270 296 276 259 271 250 271 260 230 269 244 259 247 293 256 234 285 263 264 239 244 248 264 240 243 237 232 247 247 261 243 262 200 247 243 249 221 220 258 231 262 239 244 234 245 256 237 269 241 230 235 236 224 231 234 219 244 217 209 256 222 211 211 245 213 226 209 203 234 195 239 186 233 265 202 228 212 193 239 222 215 215 219 221 210 222 230 231 235 227 235 224 201 218 221 246 211 192 189 219 240 197 210 200 208 198 179 220 196 231 213 182 199 213 224 208 212 210 191 224 197 206 214 221 197 211 186 200 202 188 186 200 217 223 212 200 201 167 209 213 208 187 196 189 198 203 230 219 228 210 209 215 191 180 185 228 216 198 205 215 236 193 205 203 188 212 196 205 181 200 220 194 216 196 226 226 197 244 210 203 229 235 219 219 218 204 203 195 209 219 204 179 200 219 227 221 211 206 231 224 215 197 216 258 215 214 202 223 227 206 231 216 207 223 240 208 220 233 200 193 211 221 200 210 223 195 194 195 235 205 215 220 223 182 233 209 231 196 196 186 179 201 191 186 212 197 194 170 228 220 199 225 191 208 201 203 203 207 213 220 187 227 216 229 225 203 194 200 184 199 179 209 199 196 208 203 205 191 194 193 215 202 204 183 220 213 211 221 196 222 213 198 201 210 230 207 204 212 187 222 215 197 236 198 205 184 204 214 202 191 211 219 229 184 199 182 188 201 206 186 192 189 210 207 169 231 217 191 197 208 169 220 189 194 201 210 199 182 210 215 228 237 194 221 204 208 214 188 210 197 210 177 187 161 200 212 217 187 187 202 183 220 202 215 217 232 185 201 217 211 217 214 187 190 202 190 195 207 191 206 198 183 213 212 220 190 237 194 200 174 189 227 209 234 195 217 182 203 204 190 200 204 201 196 204 194 234 199 215 191 212 216 260 203 217 163 198 206 206 207 224 195 200 216 204 228 223 211 206 240 222 213 230 262 225 218 240 232 240 249 198 217 225 221 210 222 232 203 236 228 249 244 284 257 267 265 250 275 241 274 301 269 293 273 294 297 295 269 294 308 308 319 282 344 291 318 273 304 289 284 288 282 280 286 327 296 295 315 300 312 289 297</counts>
			</dataPoints>
		</scan>
	</xrdMeasurement>
</xrdMeasurements>
