<?xml version="1.0"?>
<xrdMeasurements xmlns="http://www.xrdml.com/XRDMeasurement/2.3" xmlns:xsi="http://www.w3.org/2001/XMLSchema-instance" xsi:schemaLocation="http://www.xrdml.com/XRDMeasurement/2.3 http://www.xrdml.com/XRDMeasurement/2.3/XRDMeasurement.xsd" status="Completed" recordIdentifier="{8210DFEC-927A-4EC9-8383-9AB9447A43C0}">
	<comment>
		<entry/>
	</comment>
	<sample type="To be analyzed">
		<id>GPSS_Li3YCl6_121225_693c5ab8f4d05ae3d6974f19</id>
		<name></name>
		<preparedBy></preparedBy>
	</sample>
	<xrdMeasurement measurementType="Scan" status="Completed" sampleMode="Reflection">
		<usedWavelength intended="K-Alpha 1">
			<kAlpha1 unit="Angstrom">1.5405980</kAlpha1>
			<kAlpha2 unit="Angstrom">1.5444260</kAlpha2>
			<kBeta unit="Angstrom">1.3922500</kBeta>
			<ratioKAlpha2KAlpha1>0.5000</ratioKAlpha2KAlpha1>
		</usedWavelength>
		<incidentBeamPath>
			<radius unit="mm">145.00</radius>
			<xRayTube id="1010048" name="Empyrean Cu LFF HR (9430 033 7310x)">
				<tension unit="kV">40.0</tension>
				<current unit="mA">15.0</current>
				<anodeMaterial>Cu</anodeMaterial>
				<focus type="Line">
					<length unit="mm">12.0</length>
					<width unit="mm">0.4</width>
					<takeOffAngle unit="deg">6.0</takeOffAngle>
				</focus>
			</xRayTube>
			<sollerSlit id="21010002" name="Soller slits 0.04 rad.">
				<opening unit="rad">0.0400</opening>
			</sollerSlit>
			<mask id="22031000" name="Fixed mask 13 mm">
				<width unit="mm">9.00</width>
			</mask>
			<divergenceSlit id="22120001" name="Divergence slit 1°" xsi:type="fixedDivergenceSlitType">
				<distanceToSample unit="mm">50.00</distanceToSample>
				<height unit="mm">1.52</height>
			</divergenceSlit>
		</incidentBeamPath>
		<sampleMovement xsi:type="spinningSampleMovementType">
			<spinnerRevolutionTime unit="seconds">1.0</spinnerRevolutionTime>
		</sampleMovement>
		<diffractedBeamPath>
			<radius unit="mm">145.00</radius>
			<antiScatterSlit id="22090040" name="AS slit 9 mm (PIXcel)" xsi:type="fixedAntiScatterSlitType">
				<height unit="mm">9.00</height>
			</antiScatterSlit>
			<sollerSlit id="21020003" name="Large Soller slits 0.04 rad.">
				<opening unit="rad">0.0400</opening>
			</sollerSlit>
			<filter id="20030001" name="Large beta-filter Nickel">
				<material>Ni</material>
				<thickness unit="mm">0.020</thickness>
			</filter>
			<detector id="7010019" name="PIXcel1D-Medipix3 detector" xsi:type="rtmsDetectorType">
				<phd unit="keV">
					<lowerLevel>4.02</lowerLevel>
					<upperLevel>11.27</upperLevel>
				</phd>
				<mode>Scanning</mode>
				<activeLength unit="deg">5.542</activeLength>
			</detector>
		</diffractedBeamPath>
		<scan appendNumber="0" mode="Continuous" scanAxis="Gonio" status="Completed">
			<header>
				<startTimeStamp>2025-12-16T10:38:46-08:00</startTimeStamp>
				<endTimeStamp>2025-12-16T10:46:53-08:00</endTimeStamp>
				<author>
					<name>AutomatedUser</name>
				</author>
				<source>
					<applicationSoftware version="1.7b (136)">PANalytical Aeris Instrument Suite</applicationSoftware>
					<instrumentControlSoftware version="3.2.00000000 20240306">AERIS</instrumentControlSoftware>
					<instrumentID>950485</instrumentID>
				</source>
			</header>
			<dataPoints>
				<positions axis="2Theta" unit="deg">
					<startPosition>10.00943322</startPosition>
					<endPosition>99.99442286</endPosition>
				</positions>
				<positions axis="Omega" unit="deg">
					<startPosition>5.00471661</startPosition>
					<endPosition>49.99721143</endPosition>
				</positions>
				<commonCountingTime unit="seconds">12.495</commonCountingTime>
				<counts unit="counts">2705 2667 2661 2759 2624 2654 2639 2581 2673 2678 2569 2640 2670 2665 2588 2612 2646 2632 2708 2692 2609 2707 2705 2636 2670 2625 2642 2616 2573 2656 2713 2616 2721 2586 2628 2634 2647 2663 2672 2616 2652 2739 2744 2592 2606 2626 2656 2671 2667 2689 2609 2732 2752 2724 2813 2709 2689 2671 2649 2729 2666 2753 2783 2773 2819 2695 2779 2631 2684 2669 2664 2838 2798 2852 2733 2733 2721 2770 2656 2680 2675 2598 2681 2726 2872 2726 2701 2769 2696 2726 2638 2817 2684 2898 2809 2762 2751 2806 2868 2800 2745 2774 2708 2824 2750 2776 2675 2808 2707 2800 2717 2772 2853 2808 2887 2779 2787 2793 2739 2803 2832 2839 2832 2811 2898 2794 2840 2788 2776 2723 2796 2762 2716 2834 2861 2837 2700 2848 2854 2799 2868 2846 2846 2817 2818 2862 2823 2815 2884 2986 2835 2787 2792 2785 2801 2972 2791 2884 2843 2772 2969 2743 2982 2831 2888 2869 2844 2844 2855 2958 2936 2895 2792 2861 2934 2797 2814 2846 2831 2852 2833 2825 2849 2856 2783 2927 2821 2870 2870 2841 2913 2863 2959 2807 2915 2926 2938 2867 2833 2831 2831 2796 2872 2914 2908 2796 2807 2803 2902 2848 2804 2865 2889 2766 2944 2902 2843 2830 2747 2834 2820 2910 2821 2799 2844 2893 2774 2839 2792 2923 2827 2887 2727 2843 2776 2861 2924 2874 2905 2696 2870 2795 2866 2824 2812 2813 2797 2739 2749 2812 2812 2751 2777 2749 2767 2768 2850 2859 2782 2771 2782 2859 2841 2831 2817 2761 2783 2821 2711 2726 2819 2755 2751 2811 2732 2821 2748 2789 2832 2798 2764 2846 2838 2828 2849 2735 2864 2717 2831 2767 2844 2801 2771 2891 2822 2749 2917 2864 2888 2836 2911 2836 2742 2801 2807 2815 2866 2853 2790 2833 2866 2899 2839 2843 2910 2962 2923 2950 2896 2972 2842 2939 3008 2905 2826 2847 2906 2942 2750 3050 2912 2849 2954 2992 2934 2926 2879 2994 2950 3022 2982 2987 3021 2981 2981 3013 2988 3064 3068 3005 3058 2991 3046 2911 3088 3004 3013 2919 3024 3130 3130 2990 3000 3131 3098 3141 3028 3076 3026 3111 3074 3262 3152 3091 3103 3097 3095 3240 3058 3223 3136 3248 3258 3148 3174 3221 3216 3190 3222 3319 3138 3205 3241 3268 3311 3208 3170 3234 3234 3236 3247 3175 3328 3272 3341 3200 3322 3366 3357 3204 3270 3302 3364 3359 3254 3398 3375 3340 3385 3305 3377 3425 3289 3417 3375 3398 3476 3397 3386 3427 3304 3416 3412 3482 3459 3442 3402 3485 3383 3425 3445 3483 3506 3499 3560 3559 3436 3612 3459 3592 3529 3510 3585 3487 3628 3672 3593 3641 3648 3520 3542 3573 3551 3555 3426 3567 3485 3460 3527 3398 3547 3560 3357 3431 3386 3434 3434 3409 3419 3391 3364 3414 3450 3441 3439 3292 3373 3315 3340 3362 3385 3409 3387 3318 3364 3398 3503 3364 3330 3430 3335 3375 3493 3509 3476 3410 3559 3493 3503 3508 3573 3620 3572 3660 3617 3811 3648 3762 3828 3870 3807 3878 3929 3955 3857 3930 3837 3887 3965 3826 4011 3908 4063 4003 4036 4242 4301 4240 4426 4431 4523 4397 4698 4725 4902 4833 4972 5080 4913 4902 5048 4937 4863 4760 4643 4553 4487 4332 4240 4311 4204 4104 4111 4023 3988 3958 3741 3835 3711 3738 3609 3707 3632 3476 3531 3451 3515 3479 3443 3440 3415 3439 3366 3287 3311 3319 3326 3352 3343 3370 3261 3122 3241 3328 3307 3242 3267 3368 3195 3231 3272 3258 3242 3311 3232 3242 3172 3188 3259 3120 3193 3153 3223 3177 3190 3183 3209 3247 3313 3144 3119 3150 3096 3162 3140 3134 3169 3077 3080 3053 3122 3009 3100 3208 3162 3109 3143 3069 3196 3145 3084 3119 3144 3066 3052 3134 3131 3018 3150 3033 3194 3197 3079 3121 3088 3100 3140 2963 3128 3055 3102 3148 3093 3119 3220 3055 3098 3050 3104 3104 3089 3219 3145 3083 3151 3131 3204 3214 3124 3067 3138 3247 3135 3174 3194 3168 3223 3267 3212 3230 3273 3205 3228 3314 3253 3333 3277 3352 3189 3261 3236 3258 3309 3258 3319 3267 3282 3359 3385 3247 3439 3394 3316 3320 3371 3446 3514 3486 3341 3320 3412 3377 3432 3324 3378 3510 3423 3506 3358 3443 3416 3488 3400 3403 3485 3409 3466 3559 3394 3435 3429 3551 3424 3431 3356 3359 3468 3495 3307 3351 3355 3260 3255 3378 3260 3341 3342 3161 3261 3216 3231 3220 3182 3133 3165 3229 3121 3121 3112 3146 2980 3013 2991 3024 2982 3060 2975 3029 2975 3056 2971 2884 2833 2928 2878 2830 2779 2812 2755 2775 2866 2868 2787 2804 2722 2821 2722 2730 2712 2748 2839 2724 2748 2801 2805 2713 2698 2890 2756 2838 2706 2712 2768 2723 2758 2686 2739 2766 2661 2702 2624 2718 2731 2721 2660 2651 2627 2667 2706 2729 2746 2645 2690 2788 2704 2698 2698 2724 2672 2736 2698 2655 2760 2626 2599 2597 2695 2673 2693 2662 2629 2738 2677 2766 2713 2788 2612 2699 2713 2652 2648 2611 2586 2645 2617 2600 2632 2419 2620 2586 2608 2614 2680 2620 2641 2656 2590 2547 2673 2586 2626 2679 2524 2638 2568 2518 2626 2609 2579 2638 2512 2572 2552 2647 2615 2538 2560 2567 2630 2592 2635 2605 2678 2576 2597 2588 2517 2523 2581 2581 2574 2631 2635 2627 2519 2540 2495 2539 2580 2675 2593 2508 2562 2523 2498 2542 2473 2505 2632 2561 2550 2600 2538 2639 2571 2577 2511 2452 2549 2495 2603 2581 2555 2574 2517 2543 2508 2509 2582 2406 2500 2476 2475 2524 2551 2528 2495 2494 2524 2589 2631 2550 2519 2538 2542 2589 2499 2452 2485 2530 2494 2575 2532 2530 2531 2448 2514 2619 2432 2579 2514 2475 2511 2488 2479 2584 2538 2501 2556 2454 2461 2459 2464 2458 2456 2395 2476 2377 2494 2507 2537 2492 2523 2533 2516 2517 2512 2485 2546 2489 2475 2611 2537 2477 2575 2511 2385 2470 2434 2469 2566 2526 2506 2523 2479 2496 2556 2418 2498 2553 2512 2592 2512 2712 2500 2540 2583 2638 2606 2492 2528 2517 2473 2510 2584 2454 2474 2492 2612 2481 2516 2451 2513 2544 2478 2464 2535 2483 2538 2578 2556 2406 2562 2558 2543 2544 2386 2566 2492 2535 2550 2489 2457 2515 2533 2512 2491 2576 2507 2424 2477 2557 2599 2594 2532 2506 2563 2575 2430 2515 2476 2387 2554 2468 2459 2562 2559 2488 2552 2588 2512 2503 2505 2568 2508 2529 2462 2534 2684 2508 2471 2456 2458 2521 2448 2529 2487 2578 2508 2346 2558 2538 2553 2508 2543 2508 2507 2535 2555 2536 2608 2490 2571 2583 2453 2547 2476 2521 2529 2497 2549 2513 2567 2558 2530 2589 2603 2538 2557 2647 2689 2488 2536 2587 2577 2610 2520 2581 2673 2637 2666 2665 2605 2692 2606 2686 2594 2585 2622 2572 2733 2547 2723 2673 2623 2530 2611 2691 2671 2685 2681 2714 2633 2694 2726 2715 2697 2720 2695 2623 2665 2565 2619 2650 2598 2580 2668 2700 2709 2631 2566 2750 2553 2579 2583 2505 2586 2535 2472 2546 2481 2561 2452 2507 2418 2430 2488 2378 2443 2459 2422 2452 2437 2415 2472 2354 2400 2437 2297 2307 2336 2360 2267 2299 2331 2307 2258 2264 2310 2240 2277 2242 2184 2188 2247 2183 2195 2163 2280 2187 2102 2123 2310 2211 2215 2130 2172 2255 2207 2201 2123 2245 2177 2162 2150 2083 2125 2133 2049 2085 2163 2169 2140 2116 2132 2074 2081 2051 2108 2176 2074 2032 2163 2098 2043 2029 2040 2069 2068 2051 2016 2055 2047 1994 2063 2113 2052 2124 1992 1924 1992 2041 2034 1992 1997 1962 1982 2024 2014 2071 2076 2110 2009 1991 2003 1970 2003 1858 1891 2009 2052 1935 1962 1971 2069 1975 1989 1926 1917 1949 1978 1946 2022 1949 1973 1964 1983 1910 1926 1984 1971 2023 1979 2006 1920 2000 1952 1950 1983 1997 1919 1981 1963 2051 1999 1941 2090 1948 1918 1961 2044 2030 2004 1916 1936 2034 1955 1948 2012 1977 1994 1921 2037 1979 2132 2000 1981 1993 1975 1948 1914 2003 2013 2019 2034 1933 2016 2014 1991 2046 2022 1851 1952 1944 2014 2039 1868 1963 1920 1930 2042 1965 1942 1944 1919 1976 1946 1951 1991 1907 2025 2011 2022 1984 1886 1976 2009 1946 1893 1934 1956 1962 1944 2013 1919 1874 1879 1964 1900 1968 1916 1863 1942 1936 1998 1987 1865 1915 1923 1936 1834 1907 1978 1973 1992 1897 1954 1910 2044 1984 1928 1908 1967 1906 1930 1939 1828 1927 2024 1945 1894 2000 1931 1988 2003 2000 1953 1933 1903 1911 1885 1948 1895 1950 1898 1962 1938 1946 2025 1972 1968 1996 1999 1948 1878 1939 2009 1972 1970 2048 1963 1968 2074 2069 2082 2044 2067 2087 1979 1960 1939 2026 2018 2068 2015 2074 2064 2002 1985 1998 2025 2036 2129 2057 1990 2146 2052 2071 2058 2094 2058 2023 2025 2113 2057 2182 2011 2014 2022 2090 2077 1984 1973 2046 2093 1963 2030 1929 1916 1924 1900 2046 1977 1981 2016 1906 1980 1891 1920 1894 1827 1901 1868 1940 1835 1846 1947 1958 1890 1849 1837 1803 1866 1921 1941 1856 1820 1870 1819 1841 1886 1866 1804 1842 1791 1810 1767 1790 1780 1817 1797 1782 1871 1890 1804 1870 1782 1866 1809 1861 1824 1834 1874 1773 1841 1682 1789 1795 1833 1747 1809 1788 1822 1775 1787 1838 1686 1711 1748 1775 1785 1756 1706 1729 1749 1774 1687 1709 1730 1738 1701 1672 1716 1758 1771 1740 1782 1758 1718 1713 1793 1730 1733 1796 1733 1746 1795 1677 1661 1698 1743 1736 1714 1691 1670 1649 1691 1709 1725 1620 1689 1704 1719 1628 1710 1689 1673 1684 1726 1630 1665 1635 1683 1700 1660 1601 1635 1712 1669 1633 1607 1665 1699 1713 1651 1630 1592 1593 1603 1673 1615 1661 1530 1658 1619 1622 1625 1634 1654 1649 1656 1640 1658 1643 1614 1650 1638 1629 1708 1640 1569 1556 1649 1635 1650 1661 1642 1639 1646 1660 1651 1600 1705 1694 1654 1720 1645 1754 1735 1574 1713 1620 1641 1620 1660 1662 1718 1641 1719 1705 1652 1666 1676 1746 1668 1642 1633 1648 1678 1647 1633 1661 1625 1620 1635 1604 1653 1661 1484 1658 1690 1672 1725 1610 1747 1720 1674 1701 1530 1693 1635 1622 1629 1634 1678 1605 1663 1665 1601 1568 1736 1635 1689 1658 1683 1669 1625 1670 1713 1740 1711 1751 1706 1746 1743 1764 1806 1747 1704 1745 1732 1760 1827 1666 1824 1777 1797 1743 1798 1921 1818 1928 1855 1957 1877 2021 2060 2088 2072 2045 2019 2112 2086 2137 2150 2115 2102 2085 2121 2101 2043 2024 1974 2017 1963 2055 1974 2092 2029 2193 2118 2390 2221 2433 2394 2365 2576 2442 2670 2604 2834 2650 2761 2521 2745 2378 2611 2236 2331 2206 2235 2132 2091 1905 1878 1915 1899 1874 1776 1855 1811 1774 1800 1815 1854 1812 1739 1770 1814 1703 1596 1687 1677 1515 1595 1550 1567 1564 1510 1461 1430 1549 1442 1503 1470 1435 1483 1449 1437 1390 1418 1413 1478 1361 1393 1430 1443 1446 1505 1396 1373 1413 1427 1389 1373 1373 1403 1452 1436 1430 1418 1429 1430 1404 1475 1376 1489 1370 1437 1408 1457 1491 1368 1498 1545 1450 1508 1497 1500 1485 1575 1606 1576 1667 1699 1798 1876 1958 1999 2178 2283 2308 2554 2659 2848 2936 3131 3449 3408 3618 3712 3720 3864 3894 3733 3786 3798 3740 3793 3847 3870 4071 4044 4201 4411 4569 4976 5255 5704 6181 6469 6912 7272 7779 8051 8474 8562 8855 9064 8663 8894 8442 8355 7783 7368 7149 6761 6261 5947 5447 5209 4768 4467 4157 3950 3621 3501 3216 3123 3045 2849 2608 2533 2558 2445 2307 2266 2086 2158 2038 1895 1975 1944 1871 1845 1834 1748 1846 1818 1871 1776 1882 1838 1905 1930 2005 2051 2016 2103 2122 2081 2112 2078 2077 2111 2055 2088 2068 1855 1899 1819 1720 1740 1662 1689 1526 1535 1577 1536 1559 1421 1448 1393 1370 1442 1319 1334 1261 1331 1265 1343 1308 1328 1316 1382 1257 1333 1286 1347 1259 1304 1244 1326 1371 1301 1392 1366 1403 1315 1434 1385 1488 1467 1452 1401 1512 1519 1386 1439 1371 1430 1430 1435 1520 1425 1438 1418 1476 1534 1444 1484 1521 1539 1600 1512 1602 1599 1578 1639 1694 1643 1705 1684 1630 1589 1488 1575 1492 1490 1482 1442 1482 1449 1357 1432 1464 1409 1321 1378 1319 1247 1297 1308 1258 1258 1262 1240 1335 1281 1254 1244 1227 1224 1254 1244 1210 1198 1212 1233 1203 1255 1232 1257 1309 1294 1332 1410 1417 1405 1433 1480 1464 1553 1492 1640 1491 1646 1597 1633 1635 1666 1678 1729 1561 1662 1639 1702 1637 1783 1776 1806 1919 1924 2008 2083 2149 2261 2410 2337 2402 2403 2420 2559 2456 2446 2519 2394 2430 2302 2255 2219 2111 2020 1934 1925 1866 1800 1719 1696 1723 1609 1494 1514 1495 1396 1441 1378 1356 1286 1308 1334 1336 1287 1241 1265 1318 1324 1322 1243 1289 1306 1150 1216 1258 1260 1292 1322 1242 1287 1246 1207 1193 1250 1293 1246 1284 1265 1320 1313 1272 1240 1290 1238 1207 1256 1286 1262 1325 1332 1335 1305 1281 1263 1239 1252 1276 1339 1299 1268 1268 1256 1328 1255 1407 1339 1299 1415 1441 1471 1454 1354 1377 1350 1361 1366 1367 1448 1381 1477 1390 1465 1485 1577 1522 1661 1630 1647 1604 1640 1695 1536 1646 1654 1664 1611 1646 1700 1573 1599 1529 1434 1541 1536 1464 1493 1413 1457 1370 1392 1329 1401 1355 1360 1364 1300 1400 1371 1304 1309 1314 1305 1293 1253 1320 1272 1319 1261 1300 1320 1348 1316 1284 1303 1281 1326 1353 1303 1328 1299 1284 1247 1352 1282 1328 1269 1329 1266 1271 1311 1322 1244 1308 1340 1229 1274 1269 1297 1259 1274 1318 1263 1241 1276 1303 1381 1290 1256 1280 1296 1323 1347 1321 1334 1253 1296 1268 1328 1279 1356 1300 1390 1342 1408 1308 1271 1331 1287 1399 1312 1356 1402 1356 1273 1370 1359 1356 1362 1359 1372 1370 1429 1348 1318 1333 1308 1417 1359 1367 1331 1318 1396 1340 1326 1311 1365 1322 1298 1294 1333 1229 1321 1320 1293 1316 1212 1240 1268 1257 1309 1221 1239 1289 1306 1295 1228 1223 1267 1136 1255 1171 1187 1272 1219 1162 1245 1098 1175 1233 1209 1176 1205 1183 1202 1103 1126 1171 1160 1154 1104 1130 1135 1164 1119 1119 1138 1160 1172 1190 1179 1142 1086 1156 1173 1121 1108 1108 1186 1130 1159 1136 1125 1094 1117 1065 1067 1082 1065 1117 1110 1132 1081 1134 1057 1108 1102 1128 1102 1123 1146 1133 1082 1130 1152 1135 1088 1064 1070 1174 1118 1161 1052 1123 1037 1105 1167 1036 1083 1093 1047 1107 1154 1101 1058 1073 1074 1136 1082 1157 1024 1127 1132 1125 1080 1088 1122 1186 1076 1043 1146 1131 1139 1098 1140 1079 1036 1059 998 1117 1113 1151 1088 1146 1083 1074 1210 1079 1132 1067 1101 1037 1106 1095 1077 1148 1086 1074 1132 1050 1067 1094 1099 1090 1075 1085 1044 1007 1042 1129 1064 1109 1106 1111 1114 1169 1083 1102 1132 1076 1133 1086 1134 1100 1084 1165 1047 1108 1121 1149 1130 1120 1049 1088 1115 1124 1096 1095 1076 1103 1136 1096 1097 1043 1092 1047 1034 1035 1071 1068 1111 1096 1089 1059 1088 1107 1110 1065 1083 1055 1057 1063 1027 1047 1116 1087 1116 1054 1071 1082 1089 1081 1048 1044 1089 1056 1079 1040 1138 1109 1105 1133 1120 1087 1139 994 1006 1081 992 1065 1020 1030 1056 1023 1075 1028 1106 1091 1010 1058 1063 1027 1056 994 995 1075 1063 1075 1076 1052 1185 1028 1018 1091 1068 990 1080 1036 1075 1034 1081 1043 1060 1075 1097 1066 1037 1008 1052 1045 972 1043 1025 1057 1027 1009 1092 1047 1065 1008 1054 990 1014 1001 1052 986 1062 1044 1007 1024 1009 1022 1032 1112 955 1013 974 1038 1013 1092 1054 1008 996 1054 985 1010 978 1022 1059 991 1015 1029 969 978 1114 963 966 1021 998 1028 1020 1015 1058 1072 1071 1037 1020 1039 1025 1060 1046 1045 1032 1068 1037 1065 1065 1048 1035 1108 1073 1046 1054 1046 1017 1034 1082 1062 1050 1083 1048 1072 1090 1101 1096 1100 1034 1112 1131 1089 1079 1060 1117 1108 1182 1126 1136 1218 1136 1225 1208 1256 1286 1311 1389 1409 1412 1548 1587 1688 1687 1846 1917 1938 1991 2009 2099 2167 2266 2320 2267 2393 2471 2534 2543 2590 2617 2867 2740 2948 3227 3312 3435 3656 3782 4053 4398 4402 4659 4756 5005 5170 5185 5192 5313 5143 5159 4857 4924 4616 4431 4303 4105 3948 3778 3599 3290 3133 2894 2730 2549 2366 2270 2188 2057 1920 1812 1672 1704 1510 1551 1438 1512 1431 1416 1318 1380 1240 1299 1234 1177 1231 1144 1227 1172 1128 1200 1129 1123 1050 1099 1145 1111 1100 1139 1083 1105 1183 1141 1011 1078 1079 1112 1108 1096 1048 1051 1047 1072 1081 1036 1084 991 1063 1084 1033 1021 1021 1098 1028 1005 1010 1081 1067 1025 994 979 1050 1040 1072 1039 1051 1019 952 979 1024 1018 991 974 1088 1047 1086 1007 1056 1007 1004 1013 1012 1037 1042 1072 990 1002 1090 993 976 982 1045 995 1045 1056 1070 1049 998 984 1102 1044 1042 965 1100 1020 1035 1075 993 1096 1010 1082 1141 1121 1148 1108 1197 1176 1192 1146 1238 1222 1233 1186 1189 1197 1159 1230 1267 1182 1237 1271 1268 1272 1385 1349 1418 1444 1479 1555 1549 1630 1550 1617 1661 1649 1686 1630 1662 1577 1652 1671 1515 1558 1549 1501 1430 1541 1405 1475 1349 1381 1282 1297 1267 1178 1175 1192 1183 1178 1160 1207 1113 1089 1128 1017 1085 1078 1093 1020 1066 1064 1062 1085 1054 1048 1019 1045 1067 1077 1047 1032 1049 1076 1075 1009 1092 1071 1056 1116 1076 1075 1089 1061 1111 1082 1106 1107 1136 1079 1099 1165 1113 1087 1125 1153 1143 1122 1076 1026 1119 1071 1060 1111 1038 1119 1146 1095 1158 1109 1122 1104 1117 1083 1099 1108 1119 1153 1086 1104 1161 1144 1091 1148 1125 1205 1155 1167 1154 1188 1221 1202 1199 1253 1200 1314 1187 1264 1267 1310 1341 1321 1275 1377 1395 1383 1430 1390 1451 1419 1485 1560 1470 1474 1531 1518 1460 1466 1485 1411 1427 1442 1407 1352 1310 1337 1285 1221 1235 1314 1181 1221 1160 1141 1207 1092 1105 1088 1014 1107 1026 1083 1066 1007 1085 1001 1016 958 1027 1047 1020 1019 1009 1000 1066 1032 1044 985 1050 949 1003 1002 1046 1008 1034 970 994 952 1002 996 995 1019 1072 1015 1058 951 989 1006 1048 980 1003 1044 942 1046 1060 999 1035 1054 1029 999 1023 908 1013 961 969 963 1011 994 998 1093 1083 997 1055 977 1052 998 1011 1008 1033 993 983 1045 1003 1085 960 1055 983 1009 1089 954 1038 1011 982 974 1007 1031 1021 1043 1042 1048 1058 1106 1061 1092 1070 1054 1031 1108 1079 1062 1097 1002 1079 1172 1079 1091 1132 1109 1031 1058 1107 1059 1149 1116 1068 1131 1095 1109 1087 1138 1090 1053 1084 1036 1050 1032 1119 1077 1043 1082 1104 1070 1067 1116 1069 1057 1144 1044 1075 1040 958 1025 1062 1012 1015 1016 975 1050 1032 968 991 999 1028 1016 1047 1025 1004 989 956 1078 979 1007 961 936 1019 1028 1037 1006 955 935 950 994 968 983 996 941 952 948 952 938 1025 949 975 995 1010 954 1006 997 927 982 879 915 932 941 913 919 976 872 933 974 943 965 906 882 930 912 956 922 1012 906 870 924 918 926 970 916 942 866 924 870 930 954 963 956 950 910 931 923 907 896 966 901 990 971 931 957 929 931 951 852 855 895 920 895 892 925 978 914 887 968 906 944 948 958 905 923 994 950 903 855 909 926 927 929 903 949 898 902 952 963 881 893 944 946 868 929 812 890 844 919 854 924 868 923 948 961 902 917 943 911 929 964 927 902 900 924 934 959 979 985 953 964 930 1024 923 919 904 928 983 935 992 936 939 1013 966 1016 1034 956 977 967 1053 1003 1054 1018 999 1093 1073 995 1037 1099 1102 1082 1107 1081 1094 1077 1095 1144 1086 1199 1168 1186 1184 1140 1059 1165 1179 1136 1240 1197 1151 1150 1223 1177 1241 1246 1257 1255 1240 1230 1259 1208 1346 1278 1350 1377 1375 1452 1453 1461 1508 1586 1661 1766 1743 1800 1863 1823 1860 1947 1990 1985 1982 1925 2010 2141 2144 2235 2191 2309 2339 2428 2595 2708 2833 3054 3158 3271 3361 3485 3560 3534 3579 3664 3473 3439 3338 3406 3241 3231 3014 3053 2961 2789 2754 2591 2450 2340 2188 2122 1928 1764 1744 1705 1596 1512 1447 1346 1316 1325 1340 1313 1239 1176 1110 1166 1049 1090 1114 1060 1087 989 1012 997 1027 988 1016 985 1042 1008 992 962 1009 981 910 1020 923 984 940 1010 947 965 967 980 1020 932 937 927 972 984 967 986 909 955 1010 976 941 1026 992 985 873 997 917 990 898 979 966 955 941 975 975 921 958 947 892 961 999 1006 921 932 996 967 959 999 971 1001 987 965 990 974 1032 1004 1018 978 1004 999 944 978 998 1068 1014 1051 1063 1056 1155 1101 1184 1201 1222 1225 1279 1180 1231 1169 1164 1151 1210 1147 1184 1148 1145 1175 1126 1173 1092 1113 1138 1083 1049 1046 1047 1048 1087 1045 1044 1034 1007 1009 972 1030 955 1049 958 952 1110 959 982 991 970 1025 1010 1051 1069 989 960 1052 995 973 979 1012 1022 1029 957 996 987 994 931 1004 1027 991 982 990 1032 956 983 1022 1011 1017 956 999 935 987 1035 962 951 990 952 944 971 1042 946 982 959 984 949 993 1001 999 1050 988 1008 1009 911 987 946 956 928 955 981 998 962 965 920 927 939 951 937 979 926 1011 988 978 1001 955 1013 975 939 997 971 965 919 947 934 947 978 999 1019 977 976 950 1005 949 1043 1039 970 1046 976 901 1012 970 1018 956 1000 1041 1043 1053 1037 1061 1069 1111 1090 1004 1028 1076 1048 1034 1102 1021 1126 992 1063 1053 1071 1124 1065 1090 1105 1097 1104 1062 1104 1098 1156 1090 1129 1060 1043 1066 964 1067 1013 1126 1066 1015 1083 1067 1039 1033 1041 1059 936 1055 1035 1058 1022 1030 1066 955 1062 1023 1078 1049 1094 1078 1071 1063 1071 1010 1013 1107 1039 1102 1080 1066 1066 1120 1118 1119 1149 1096 1187 1236 1163 1148 1184 1139 1220 1165 1177 1180 1254 1228 1354 1285 1355 1377 1371 1424 1382 1438 1465 1583 1501 1463 1461 1494 1496 1511 1520 1410 1444 1389 1232 1351 1353 1222 1292 1203 1221 1292 1209 1205 1114 1116 1117 1092 1043 1052 1027 1003 1001 1030 1034 1012 970 972 943 974 1029 1053 1044 1038 1040 1002 1099 1061 1015 1096 1086 1139 1132 1160 1190 1155 1193 1281 1239 1285 1366 1398 1396 1439 1490 1432 1455 1466 1565 1610 1643 1635 1738 1812 1785 1830 1913 2029 1938 1904 1906 2019 1920 1913 1818 1752 1788 1687 1643 1631 1526 1528 1515 1423 1483 1383 1377 1318 1278 1171 1226 1221 1170 1117 1135 1074 1030 1043 981 1029 946 992 910 916 967 873 977 934 898 904 892 901 931 918 911 935 896 883 937 884 906 864 864 831 895 852 878 848 858 878 860 850 789 805 835 864 854 912 849 849 813 781 861 915 865 841 834 829 783 772 923 891 906 868 791 857 848 872 860 838 815 792 820 859 854 806 901 819 859 841 863 811 861 837 795 818 856 837 835 836 835 898 874 895 876 852 864 797 839 808 885 800 829 814 816 865 848 863 803 840 788 809 835 830 811 819 824 840 824 823 821 797 850 835 785 809 840 832 828 809 834 841 849 843 847 837 797 843 855 894 812 889 883 827 828 804 827 821 898 851 886 859 860 874 839 838 891 824 913 813 850 911 870 887 841 894 799 911 866 893 889 877 898 881 891 861 876 870 895 827 891 832 841 883 869 933 900 849 900 890 927 882 847 808 863 858 901 888 831 823 959 804 818 816 843 889 810 896 874 894 891 868 860 854 858 818 863 917 854 895 847 876 816 895 855 848 907 842 871 860 888 863 915 865 887 847 896 862 820 847 862 884 908 892 830 872 840 892 899 891 898 855 846 830 795 817 878 878 857 832 856 886 849 863 887 907 850 949 892 870 854 833 829 843 853 856 892 853 876 887 833 833 816 799 890 813 907 819 919 854 812 795 904 904 813 833 891 824 893 859 813 871 791 878 873 857 838 909 838 858 846 842 922 841 835 893 892 882 882 829 843 870 878 846 874 888 914 827 826 861 838 925 788 848 881 755 877 884 852 830 852 830 836 909 903 872 878 867 898 867 879 832 859 834 875 888 908 858 881 890 873 911 884 874 878 874 953 911 888 900 867 909 895 1022 936 985 988 966 1008 980 1015 1071 1010 1045 1068 1071 1078 1052 1077 1128 1017 1042 1039 1028 1045 1008 1037 988 1043 972 1042 984 962 1007 978 969 928 891 980 886 883 943 928 884 925 865 910 859 887 834 894 878 853 808 820 842 876 842 847 793 807 807 860 831 897 841 851 884 878 839 846 850 786 850 803 863 915 880 923 864 913 848 892 838 926 880 856 962 952 982 1066 1048 997 1079 1028 1040 1049 1125 1038 1135 1096 1140 1140 1169 1209 1250 1201 1313 1389 1406 1404 1481 1520 1519 1529 1575 1554 1522 1555 1608 1517 1506 1463 1489 1424 1522 1516 1381 1437 1422 1368 1443 1398 1292 1317 1234 1229 1242 1192 1253 1208 1205 1179 1232 1165 1200 1139 1175 1098 1122 1116 1098 1110 1069 1133 1119 1147 1120 1203 1142 1192 1173 1122 1124 1067 989 1050 1040 1109 1048 1085 986 952 985 929 920 996 939 948 965 934 957 915 874 856 855 922 865 932 902 924 911 897 952 874 813 892 910 851 863 900 883 847 944 872 863 854 907 896 831 853 845 819 814 847 827 879 860 845 842 858 902 837 817 819 895 839 855 834 847 841 879 844 809 868 831 846 859 846 881 841 817 778 891 885 871 881 858 858 900 832 890 864 772 857 773 800 805 844 848 826 851 778 796 851 806 838 725 801 795 799 791 802 816 804 799 823 849 798 782 807 771 817 794 732 797 784 829 818 856 812 852 820 859 853 857 841 805 884 879 933 938 910 943 908 967 902 955 929 908 1053 967 1013 1041 1077 1019 1070 1035 1044 1103 1014 1087 1071 1074 1074 1081 1062 1097 1024 1079 1080 1072 1041 1015 999 993 905 987 960 949 893 986 858 917 877 887 933 962 874 830 913 867 899 869 770 874 823 822 790 870 766 803 731 842 770 919 868 829 814 838 839 807 780 824 790 846 848 827 799 813 828 843 840 883 744 827 805 766 802 814 791 809 833 816 794 838 794 812 843 761 838 811 809 739 810 832 831 875 861 786 840 813 885 855 865 847 854 842 866 845 763 858 922 874 894 846 895 890 856 891 881 905 854 908 858 906 897 854 844 906 838 841 853 872 908 779 848 815 854 814 845 817 851 814 822 773 779 852 847 824 780 837 823 778 767 836 793 852 786 795 747 726 814 809 825 835 848 718 762 794 766 729 873 773 773 826 805 770 835 852 815 785 779 732 801 827 799 780 808 810 816 816 806 827 796 829 753 778 777 826 866 803 788 837 803 851 799 818 748 806 760 808 804 822 792 830 848 856 840 916 838 900 824 835 867 832 861 878 836 851 843 860 822 899 849 918 839 924 927 948 921 915 923 865 895 853 850 916 843 838 822 869 832 854 810 856 777 850 816 813 780 786 858 826 789 776 821 802 808 783 830 804 811 748 767 662 759 766 809 740 789 785 710 751 761 745 774 809 792 767 772 694 783 705 768 793 775 706 773 773 778 743 780 746 772 681 761 740 815 777 773 794 726 708 735 775 758 812 738 734 789 788 796 749 747 695 748 763 787 781 767 760 781 824 753 784 702 734 745 797 790 794 774 759 756 755 755 736 831 835 785 756 828 888 822 867 825 888 891 867 925 878 1001 925 1007 950 947 1030 1032 980 1001 1082 1051 1091 1125 1105 1146 1251 1237 1246 1297 1352 1443 1402 1386 1451 1457 1445 1494 1460 1447 1400 1357 1403 1282 1243 1388 1208 1271 1257 1284 1205 1207 1189 1188 1229 1182 1097 1032 1056 1034 1037 1028 1019 963 963 857 859 890 917 888 881 858 850 811 802 813 829 847 793 787 767 798 802 827 821 734 828 804 784 775 739 794 784 777 746 768 820 835 801 817 790 838 851 787 757 756 829 820 760 759 783 760 807 726 761 763 811 756 791 754 756 806 798 765 771 799 776 832 743 825 764 768 812 779 739 872 759 772 747 808 779 856 804 768 819 787 793 838 786 793 773 832 830 825 801 730 858 848 820 801 800 822 794 821 839 801 808 803 857 778 817 868 802 785 787 776 806 750 823 781 854 790 760 800 711 691 768 762 763 790 721 774 755 736 771 787 710 744 777 810 769 739 775 777 771 691 722 733 802 742 769 769 769 720 747 782 771 739 803 715 800 745 787 801 729 810 822 797 815 824 832 893 857 872 856 856 867 815 870 836 864 956 992 903 918 995 1023 1053 1032 1052 1088 1052 1053 975 1040 998 1044 1096 1018 938 1057 1007 993 957 924 966 1017 985 964 994 880 995 900 916 890 897 844 888 820 905 824 820 800 776 827 790 769 775 747 740 768 806 818 772 795 804 752 793 717 752 775 768 733 775 796 727 758 750 823 761 733 770 790 771 762 800 781 733 816 730 813 804 791 754 770 731 753 750 781 792 796 788 737 773 791 831 737 752 777 763 832 747 759 825 774 764 731 785 770 712 823 808 774 771 743 733 735 785 743 799 781 727 775 754 812 798 769 745 753 747 829 809 679 783 715 788 785 743 737 799 739 731 807 736 754 735 770 697 730 731 757 763 783 800 769 791 744 807 773 765 737 715 729 749 753 765 725 778 750 780 740 770 733 744 704 740 761 740 789 774 708 709 706 673 752 732 751 716 795 758 785 776 774 730 751 744 717 717 725 732 712 725 729 773 721 702 763 796 757 747 804 704 760 713 723 721 716 785 747 734 707 718 744 745 723 743 736 753 672 761 740 763 754 725 749 759 723 730 763 716 776 741 719 669 702 713 758 771 790 733 788 740 724 772 744 713 777 773 708 738 761 770 752 715 768 697 756 732 775 789 768 746 796 739 820 793 832 771 801 765 816 764 793 802 767 760 825 867 833 808 805 861 812 880 842 847 926 909 811 780 840 804 818 833 837 883 774 809 752 821 817 795 803 810 781 772 734 764 723 803 723 782 766 745 766 726 702 707 710 693 733 731 720 730 743 753 714 739 705 752 738 715 733 734 730 747 743 738 712 692 698 742 713 758 704 758 756 737 718 747 737 699 674 749 704 707 691 732 745 677 690 742 721 751 708 662 731 662 701 705 785 701 712 738 717 774 704 722 760 728 761 703 703 687 711 725 748 696 724 705 753 737 778 746 729 731 732 812 757 777 779 802 700 771 723 711 725 712 696 678 680 690 751 732 750 791 733 747 734 699 726 687 797 713 804 723 794 745 736 796 733 675 777 725 740 687 767 701 713 721 730 749 720 719 730 748 738 834 737 767 773 712 703 709 731 701 759 719 740 730 766 704 748 751 642 775 762 720 688 723 699 677 700 650 797 683 756 723 763 769 706 753 721 731 745 767 725 772 748 750 713 746 733 689 729 732 739 703 782 694 735 699 707 741 734 742 695 689 729 720 694 759 733 720 703 777 751 769 783 778 777 772 815 832 756 782 744 789 771 781 811 809 769 828 780 860 825 831 765 846 854 907 867 890 852 853 857 848 857 865 854 770 859 777 800 827 855 859 824 793 861 821 783 779 806 787 812 788 776 766 826 782 737 747 735 706 753 745 828 720 666 737 739 742 784 714 731 715 723 734 739 762 746 730 707 697 683 723 738 741 744 755 719 717 767 725 784 779 761 763 737 767 730 738 723 756 794 806 739 774 826 841 768 843 814 816 778 869 804 863 829 807 863 890 872 824 840 817 784 848 867 867 892 869 850 843 860 823 866 849 821 796 780 770 787 807 790 824 845 816 763 736 815 758 767 778 761 790 744 807 823 805 853 791 852 762 842 805 815 811 766 854 815 852 857 872 894 878 904 919 924 879 918 858 926 950 923 920 935 998 1003 1001 932 902 956 925 874 909 900 915 876 885 868 847 791 871 857 843 832 877 855 853 819 806 812 836 804 808 793 815 756 788 782 786 780 746 733 725 790 772 730 725 704 772 763 765 771 725 727 717 747 768 754 693 743 693 767 676 785 715 708 731 666 784 724 741 745 776 767 802 735 816 723 763 765 747 748 748 721 741 730 750 729 718 777 762 758 788 772 741 737 724 791 728 744 787 740 737 748 768 741 733 744 729 750 795 709 706 754 695 748 718 766 780 683 725 690 764 735 728 743 718 737 726 723 687 708 736 748 719 754 763 717 718 696 726 720 719 767 733 748 698 735 757 746 719 736 787 725 717 731 742 713 717 702 692 713 710 700 732 733 746 754 670 726 714 759 716 721 747 711 741 738 756 693 785 757 727 769 727 809 802 830 740 790 694 777 855 746 779 790 823 803 790 795 817 783 864 825 902 888 851 865 846 919 890 849 833 826 842 922 880 811 837 843 876 812 871 847 840 795 810 780 829 838 831 771 831 857 794 838 765 856 790 790 818 812 843 772 737 808 757 782 764 772 797 780 753 753 755 679 759 745 723 739 738 707 712 717 773 752 733 791 733 746 778 756 727 726 718 735 730 690 746 687 730 679 728 747 774 749 691 730 705 747 690 760 680 713 702 719 702 688 724 737 726 784 772 693 704 725 701 716 736 714 725 679 711 717 742 733 755 771 758 780 730 752 760 778 739 746 738 731 738 764 749 764 772 759 751 841 801 744 735 797 764 785 787 688 700 722 742 777 773 706 798 744 785 738 754 748 728 743 746 704 774 746 783 749 787 778 725 744 754 746 819 793 715 742 708 738 751 793 761 796 771 801 811 812 813 764 783 761 764 782 839 758 841 781 802 813 811 787 796 827 825 847 864 818 901 855 829 877 875 870 889 842 894 888 892 882 894 934 960 953 982 995 964 1067 1063 1083 1152 1130 1178 1051 1191 1167 1197 1180 1266 1226 1167 1176 1181 1160 1174 1136 1114 1126 1055 1129 1005 1111 1084 1096 1037 1105 1081 1032 1013 1000 966 1018 979 965 1008 966 950 916 932 968 926 882 851 862 890 878 867 845 841 832 794 843 780 841 819 808 816 826 811 735 829 714 805 780 820 776 761 826 746 739 711 766 801 778 755 744 726 809 772 793 814 772 779 724 782 689 779 674 690 803 712 741 786 717 793 700 764 793 780 766 770 740 712 752 731 747 801 783 733 782 799 813 796 764 857 815 801 837 779 879 890 876 809 832 830 837 927 877 873 869 893 867 875 906 919 829 885 783 895 837 850 913 892 869 914 917 915 879 900 929 919 977 902 950 868 919 906 911 981 925 901 974 905 921 947 948 914 971 966 1005 1054 988 1041 1066 1043 1151 1109 1101 1150 1151 1176 1147 1186 1200 1210 1255 1246 1257 1177 1316 1238 1279 1221 1245 1283 1193 1133 1209 1214 1202 1165 1137 1159 1141 1086 1089 1087 1053 1025 1020 1109 1059 1047 1008 987 1007 972 1018 1030 967 926 905 932 926 888 878 896 860 814 856 862 823 856 896 864 762 776 829 812 781 799 817 735 796 733 770 767 754 800 750 779 759 761 721 756 781 785 813 777 798 735 807 743 734 757 739 723 749 778 748 737 741 741 816 782 738 715 766 767 727 703 747 732 745 792 726 760 790 678 695 735 767 716 758 716 712 728 785 754 713 762 741 771 727 755 720 728 748 771 741 721 756 727 767 718 771 737 756 675 702 733 713 671 731 736 700 730 727 743 733 736 760 725 757 706 741 727 751 746 737 711 686 703 833 738 780 692 716 681 735 719 737 766 791 761 724 739 710 787 786 755 734 704 790 700 723 821 756 789 730 699 725 703 736 793 790 794 795 771 698 789 793 813 793 796 750 750 763 850 797 827 781 801 765 768 808 786 824 773 746 769 796 770 755 766 747 767 744 786 734 766 802 811 821 774 758 727 763 744 786 746 744 768 733 736 734 695 737 800 725 738 722 741 753 754 689 710 762 784 764 714 800 723 701 726 784 749 677 790 736 698 714 730 756 753 790 773 738 740 702 734 757 685 735 735 803 808 758 861 760 774 801 710 735 732 729 767 731 783 745 772 692 765 809 749 744 757 782 741 794 785 741 803 761 767 794 819 841 815 880 822 855 837 886 870 953 918 973 991 974 951 1005 1066 1079 1016 1085 1160 1088 1133 1180 1144 1170 1305 1168 1217 1238 1270 1285 1248 1331 1260 1199 1225 1202 1175 1149 1159 1144 1219 1164 1148 1159 1135 1198 1148 1115 1099 1130 1103 1072 1121 1154 1045 1020 1049 955 1007 998 971 943 972 918 927 938 884 869 863 856 881 832 818 832 818 846 778 839 751 810 785 749 810 786 778 753 769 776 734 762 719 767 700 773 768 745 680 744 756 728 745 763 762 768 728 679 744 777 740 736 751 743 801 730 762 659 703 716 754 681 757 747 765 736 798 752 738 781 769 730 756 772 780 777 749 732 759 737 696 771 762 737 739 780 764 753 778 762 762 714 741 764 712 765 685 757 747 779 772 720 809 753 754 754 781 791 739 751 745 752 732 737 730 738 736 750 721 734 744 728 688 697 713 764 691 737 777 743 743 779 728 791 710 681 699 747 721 749 753 712 748 681 720 736 703 755 740 691 759 666 735 760 765 733 690 771 733 693 721 707 714 709 761 736 720 732 736 790 760 723 816 711 746 731 699 725 709 755 713 718 697 758 752 658 751 744 686 732 788 741 701 740 768 732 688 738 698 755 688 721 688 750 749 668 722 781 692 735 639 711 734 767 750 709 767 727 757 697 672 731 743 765 770 764 746 756 683 759 795 747 741 690 699 764 741 722 762 727 718 710 706 697 715 694 727 729 688 762 739 759 723 678 792 739 733 779 737 686 673 693 725 715 702 707 739 701 720 698 714 669 712 696 697 768 701 743 722 702 700 732 756 684 677 683 637 707 675 666 718 677 728 712 702 673 673 747 704 758 732 723 663 755 686 704 675 738 699 777 652 781 716 697 721 678 728 683 736 728 750 705 689 691 744 691 679 675 757 653 708 675 690 705 740 697 720 693 702 782 724 753 700 737 713 704 659 699 725 752 723 683 739 714 707 718 712 704 728 678 719 733 677 681 686 714 714 692 701 716 719 741 658 730 712 703 734 674 738 656 706 685 687 745 703 715 742 720 748 742 713 714 748 705 700 760 663 703 660 732 737 713 756 648 708 712 697 682 658 670 720 695 701 714 688 750 731 692 697 720 722 794 749 720 759 717 722 771 698 779 753 729 757 805 733 775 731 709 721 792 805 781 784 814 703 766 716 786 759 757 749 801 742 776 740 814 786 739 825 818 818 778 797 830 767 809 786 831 870 862 850 851 843 893 881 868 858 884 883 875 913 908 893 875 906 882 860 893 865 876 808 807 822 816 838 859 833 857 839 870 895 836 817 789 847 842 828 800 843 776 821 825 819 780 868 720 784 748 749 774 718 787 732 772 713 674 790 698 764 705 741 765 728 790 762 703 720 688 686 728 639 656 730 743 718 732 720 713 702 665 675 715 723 691 662 715 692 731 747 718 703 716 732 719 679 723 683 750 734 647 721 708 670 693 685 710 684 675 743 689 729 686 706 658 710 735 669 764 721 671 699 738 701 738 650 718 681 743 711 704 659 687 705 682 703 717 670 660 711 693 690 777 712 714 740 728 765 752 718 673 668 701 650 753 756 685 662 699 721 673 744 732 710 676 704 745 683 699 678 691 747 714 704 683 705 673 668 754 677 684 734 693 724 699 739 690 676 709 690 658 672 718 695 704 713 689 763 745 730 768 692 703 771 709 688 671 782 673 777 705 715 790 721 693 695 749 693 796 721 680 768 708 776 713 746 712 726 761 681 771 738 724 665 697 698 710 744 699 728 712 717 762 674 689 761 670 722 712 710 650 697 741 712 677 730 695 788 744 664 711 738 670 727 733 705 750 714 691 723 707 796 744 772 687 718 714 674 714 743 718 743 768 694 717 717 747 730 768 718 755 758 737 747 716 741 712 755 766 714 741 770 829 760 714 719 758 750 756 768 753 809 763 748 749 747 723 756 775 763 746 774 748 719 776 714 729 723 760 757 738 755 747 726 779 788 773 754 789 755 776 798 736 791 819 840 829 813 852 832 853 852 888 830 910 903 844 868 804 802 867 872 827 842 829 822 817 830 816 800 777 788 805 748 817 807 807 816 785 787 765 738 785 783 772 800 801 767 823 753 764 705 760 765 722 743 753 764 715 711 737 726 711 731 758 704 712 731 648 681 689 696 713 657 681 711 689 719 705 676 718 668 682 706 696 714 730 614 623 734 687 731 653 672 636 723 642 660 673 667 655 686 616 644 606 610 637 663 696 637 695 696 686 639 673 675 653 634 672 629 642 689 630 717 651 628 682 692 675 627 622 664 619 637 660 649 645 659 642 668 698 708 674 657 611 709 656 664 668 668 691 664 669 662 716 674 679 662 652 715 678 662 675 657 642 692 677 647 661 639 765 634 648 642 653 664 709 693 701 700 667 647 687 649 697 658 703 695 699 695 620 662 682 645 678 696 725 666 668 634 643 660 671 684 637 681 674 685 636 692 715 640 670 678 708 689 687 660 668 678 675 677 639 702 670 726 672 705 714 727 660 676 717 678 698 681 695 668 715 665 706 690 728 682 669 664 688 721 661 664 673 673 683 672 668 641 684 691 633 656 589 679 722 681 704 688 638 717 676 637 707 722 741 712 657 631 703 641 695 656 658 681 669 685 675 696 683 686 688 636 631 707 629 657 654 701 621 612 638 644 676 704 655 662 644 652 590 705 655 683 681 747 706 652 693 627 620 668 669 656 714 674 674 633 634 692 688 668 682 678 687 683 679 682 697 648 675 671 663 698 696 612 709 691 732 677 689 718 713 652 719 673 701 705 676 642 687 680 649 739 644 663 670 660 651 674 651 703 665 719 602 713 707 709 639 745 666 695 684 683 692 687 699 713 645 703 644 684 650 731 686 676 678 665 739 664 689 658 659 660 676 715 672 705 687 699 725 666 691 651 703 665 728 734 678 707 678 682 643 652 693 725 646 749 620 689 706 661 680 637 719 701 711 675 686 661 702 666 641 686 653 639 694 673 661 686 721 733 691 706 645 654 687 688 655 688 648 681 723 722 785 680 715 699 696 760 700 705 700 725 720 695 697 704</counts>
			</dataPoints>
		</scan>
	</xrdMeasurement>
</xrdMeasurements>
