<?xml version="1.0"?>
<xrdMeasurements xmlns="http://www.xrdml.com/XRDMeasurement/2.3" xmlns:xsi="http://www.w3.org/2001/XMLSchema-instance" xsi:schemaLocation="http://www.xrdml.com/XRDMeasurement/2.3 http://www.xrdml.com/XRDMeasurement/2.3/XRDMeasurement.xsd" status="Completed" recordIdentifier="{76E11CB4-78C9-4F75-A105-D1565B0EBF57}">
	<comment>
		<entry/>
	</comment>
	<sample type="To be analyzed">
		<id>GPSS_Li1p5Fe0p5Sc0p5Cl4_111225_691549b847a6a0fd7c6580c3</id>
		<name></name>
		<preparedBy></preparedBy>
	</sample>
	<xrdMeasurement measurementType="Scan" status="Completed" sampleMode="Reflection">
		<usedWavelength intended="K-Alpha 1">
			<kAlpha1 unit="Angstrom">1.5405980</kAlpha1>
			<kAlpha2 unit="Angstrom">1.5444260</kAlpha2>
			<kBeta unit="Angstrom">1.3922500</kBeta>
			<ratioKAlpha2KAlpha1>0.5000</ratioKAlpha2KAlpha1>
		</usedWavelength>
		<incidentBeamPath>
			<radius unit="mm">145.00</radius>
			<xRayTube id="1010048" name="Empyrean Cu LFF HR (9430 033 7310x)">
				<tension unit="kV">40.0</tension>
				<current unit="mA">15.0</current>
				<anodeMaterial>Cu</anodeMaterial>
				<focus type="Line">
					<length unit="mm">12.0</length>
					<width unit="mm">0.4</width>
					<takeOffAngle unit="deg">6.0</takeOffAngle>
				</focus>
			</xRayTube>
			<sollerSlit id="21010002" name="Soller slits 0.04 rad.">
				<opening unit="rad">0.0400</opening>
			</sollerSlit>
			<mask id="22031000" name="Fixed mask 13 mm">
				<width unit="mm">9.00</width>
			</mask>
			<divergenceSlit id="22120001" name="Divergence slit 1°" xsi:type="fixedDivergenceSlitType">
				<distanceToSample unit="mm">50.00</distanceToSample>
				<height unit="mm">1.52</height>
			</divergenceSlit>
		</incidentBeamPath>
		<sampleMovement xsi:type="spinningSampleMovementType">
			<spinnerRevolutionTime unit="seconds">1.0</spinnerRevolutionTime>
		</sampleMovement>
		<diffractedBeamPath>
			<radius unit="mm">145.00</radius>
			<antiScatterSlit id="22090040" name="AS slit 9 mm (PIXcel)" xsi:type="fixedAntiScatterSlitType">
				<height unit="mm">9.00</height>
			</antiScatterSlit>
			<sollerSlit id="21020003" name="Large Soller slits 0.04 rad.">
				<opening unit="rad">0.0400</opening>
			</sollerSlit>
			<filter id="20030001" name="Large beta-filter Nickel">
				<material>Ni</material>
				<thickness unit="mm">0.020</thickness>
			</filter>
			<detector id="7010019" name="PIXcel1D-Medipix3 detector" xsi:type="rtmsDetectorType">
				<phd unit="keV">
					<lowerLevel>4.02</lowerLevel>
					<upperLevel>11.27</upperLevel>
				</phd>
				<mode>Scanning</mode>
				<activeLength unit="deg">5.542</activeLength>
			</detector>
		</diffractedBeamPath>
		<scan appendNumber="0" mode="Continuous" scanAxis="Gonio" status="Completed">
			<header>
				<startTimeStamp>2025-11-16T15:28:41-08:00</startTimeStamp>
				<endTimeStamp>2025-11-16T15:36:48-08:00</endTimeStamp>
				<author>
					<name>AutomatedUser</name>
				</author>
				<source>
					<applicationSoftware version="1.7b (136)">PANalytical Aeris Instrument Suite</applicationSoftware>
					<instrumentControlSoftware version="3.2.00000000 20240306">AERIS</instrumentControlSoftware>
					<instrumentID>950485</instrumentID>
				</source>
			</header>
			<dataPoints>
				<positions axis="2Theta" unit="deg">
					<startPosition>10.00943322</startPosition>
					<endPosition>99.99442286</endPosition>
				</positions>
				<positions axis="Omega" unit="deg">
					<startPosition>5.00471661</startPosition>
					<endPosition>49.99721143</endPosition>
				</positions>
				<commonCountingTime unit="seconds">12.495</commonCountingTime>
				<counts unit="counts">2839 2686 2649 2713 2683 2747 2705 2759 2699 2800 2640 2814 2669 2760 2717 2731 2747 2679 2704 2823 2763 2700 2727 2777 2768 2670 2700 2759 2752 2636 2663 2757 2708 2691 2686 2790 2655 2702 2644 2758 2842 2755 2702 2723 2811 2787 2869 2750 2813 2669 2742 2729 2833 2682 2755 2815 2757 2777 2768 2755 2767 2767 2780 2868 2809 2869 2749 2702 2730 2822 2745 2717 2795 2704 2818 2779 2781 2821 2905 2705 2832 2851 2874 2707 2742 2826 2776 2883 2824 2845 2785 2881 2821 2891 2748 2786 2754 2850 2782 2823 2771 2864 2886 2827 2883 2868 2794 2726 2854 2825 2841 2802 2730 2771 2728 2816 2786 2914 2808 2778 2738 2834 2835 2805 2738 2778 2784 2684 2743 2679 2816 2797 2820 2834 2869 2715 2784 2831 2825 2761 2725 2745 2771 2684 2763 2740 2693 2804 2757 2741 2740 2714 2703 2825 2794 2668 2737 2698 2702 2701 2644 2832 2760 2769 2713 2759 2728 2655 2717 2635 2828 2712 2663 2751 2691 2698 2680 2737 2757 2708 2763 2649 2788 2707 2792 2711 2705 2664 2765 2751 2836 2655 2721 2632 2688 2754 2686 2676 2706 2739 2724 2692 2768 2602 2711 2581 2656 2666 2629 2648 2623 2650 2675 2746 2723 2608 2585 2576 2741 2633 2572 2641 2628 2749 2735 2705 2775 2619 2661 2742 2689 2666 2771 2611 2645 2692 2634 2582 2592 2621 2651 2710 2659 2624 2666 2568 2658 2726 2584 2712 2661 2687 2592 2671 2656 2691 2711 2704 2616 2649 2742 2626 2663 2580 2572 2679 2687 2694 2695 2623 2646 2690 2663 2635 2571 2632 2532 2608 2553 2669 2640 2506 2569 2568 2733 2565 2610 2512 2599 2563 2719 2654 2605 2655 2472 2684 2626 2617 2602 2631 2511 2646 2611 2627 2721 2695 2664 2793 2630 2660 2693 2617 2574 2662 2648 2583 2640 2653 2570 2675 2728 2566 2648 2661 2734 2602 2711 2622 2734 2575 2712 2749 2659 2613 2630 2636 2627 2668 2619 2697 2639 2679 2700 2847 2693 2714 2660 2635 2726 2692 2752 2658 2713 2650 2801 2803 2832 2754 2682 2762 2596 2746 2769 2703 2791 2813 2684 2850 2719 2843 2885 2750 2813 2672 2706 2704 2808 2797 2823 2768 2818 2751 2878 2949 2920 2761 2806 2841 2826 2957 2825 2807 2725 2908 2973 2849 2896 2794 2821 2891 2922 2902 2980 2947 2896 2894 3051 2928 2926 2975 2911 3026 3055 2958 2905 2941 3005 2988 3040 3023 3021 3017 3094 2969 3014 3134 3182 3099 3068 3161 3158 3175 3180 3329 3369 3346 3274 3305 3483 3493 3446 3527 3559 3680 3663 3734 3679 3709 3818 3865 3962 4031 4014 4140 4255 4026 4210 4369 4243 4271 4276 4397 4349 4327 4416 4439 4488 4419 4371 4581 4316 4480 4515 4488 4694 4622 4618 4698 4627 4835 4726 4770 4923 4860 4741 4783 4699 4735 4838 4859 4931 4827 5022 4948 4876 4808 4763 4745 4671 4555 4466 4444 4414 4324 4300 4275 4220 4260 4196 4082 4046 3982 3922 4051 3932 3945 3808 3767 3726 3616 3599 3667 3687 3759 3611 3568 3404 3380 3161 3127 3105 3187 3161 3101 2988 2955 3083 3016 2955 3021 2994 2999 3012 2984 2985 3005 2938 2824 3032 2874 2871 2931 2856 2887 3002 2855 2859 2916 2906 2839 2807 2853 2940 2913 3058 2899 2942 2794 2882 2812 2955 2899 2791 2801 2787 2864 2895 2848 2829 2941 2729 2933 2853 2911 2751 2766 2804 2787 2823 2805 2813 2838 2810 2753 2809 2816 2779 2791 2860 2794 2827 2855 2872 2753 2802 2815 2702 2764 2905 2796 2805 2800 2765 2779 2823 2760 2800 2746 2804 2725 2748 2692 2731 2698 2761 2655 2833 2779 2765 2835 2766 2788 2652 2702 2835 2764 2800 2740 2664 2748 2736 2768 2774 2751 2750 2837 2828 2654 2644 2756 2805 2768 2820 2727 2723 2739 2718 2797 2669 2743 2748 2705 2787 2730 2581 2719 2738 2758 2809 2752 2739 2735 2612 2749 2596 2776 2823 2795 2789 2777 2790 2709 2690 2741 2687 2757 2655 2787 2608 2624 2740 2672 2683 2736 2868 2786 2577 2657 2767 2735 2610 2561 2663 2768 2613 2770 2719 2786 2723 2694 2656 2667 2631 2630 2714 2638 2695 2639 2717 2630 2698 2743 2778 2626 2687 2666 2546 2691 2662 2762 2750 2709 2676 2656 2678 2583 2618 2720 2613 2588 2583 2562 2664 2615 2564 2604 2577 2580 2615 2704 2700 2590 2605 2657 2558 2665 2507 2626 2637 2676 2677 2672 2623 2639 2564 2665 2561 2749 2591 2561 2727 2566 2571 2648 2626 2611 2615 2542 2503 2662 2604 2609 2695 2642 2595 2718 2660 2626 2650 2546 2612 2607 2607 2612 2646 2595 2595 2640 2580 2653 2512 2614 2572 2619 2522 2592 2539 2694 2605 2591 2575 2573 2556 2557 2621 2620 2656 2541 2563 2586 2569 2482 2584 2583 2497 2527 2556 2618 2624 2614 2478 2647 2528 2539 2557 2496 2503 2670 2589 2539 2630 2616 2628 2579 2542 2671 2574 2546 2625 2488 2541 2613 2672 2533 2601 2567 2612 2492 2646 2538 2519 2636 2606 2512 2588 2646 2582 2636 2616 2569 2547 2559 2499 2555 2600 2493 2572 2515 2455 2474 2528 2497 2571 2539 2452 2467 2462 2573 2531 2500 2545 2564 2438 2539 2434 2568 2556 2533 2543 2548 2545 2493 2481 2463 2531 2485 2556 2554 2443 2418 2487 2472 2457 2475 2532 2570 2453 2490 2454 2485 2504 2424 2550 2393 2492 2349 2544 2508 2515 2471 2526 2504 2469 2452 2502 2448 2511 2408 2484 2439 2554 2479 2525 2535 2444 2459 2509 2434 2526 2470 2473 2443 2477 2506 2420 2475 2484 2452 2531 2450 2421 2413 2398 2502 2413 2492 2452 2435 2566 2457 2534 2486 2435 2479 2499 2345 2442 2412 2501 2424 2314 2437 2504 2427 2402 2452 2389 2386 2402 2441 2325 2473 2475 2372 2390 2398 2534 2372 2380 2458 2372 2426 2513 2373 2438 2534 2551 2452 2346 2355 2506 2441 2455 2468 2461 2515 2397 2390 2485 2526 2355 2482 2444 2451 2421 2425 2405 2403 2495 2475 2397 2387 2447 2444 2474 2432 2521 2392 2431 2391 2394 2438 2438 2469 2475 2412 2499 2355 2379 2380 2414 2387 2449 2413 2407 2382 2445 2398 2472 2525 2501 2398 2402 2419 2537 2499 2347 2355 2457 2451 2424 2475 2544 2404 2391 2507 2391 2411 2354 2488 2325 2459 2376 2412 2454 2422 2445 2455 2485 2432 2406 2378 2547 2460 2399 2493 2423 2461 2529 2545 2471 2455 2478 2499 2429 2473 2371 2549 2436 2449 2507 2503 2435 2410 2461 2494 2439 2405 2478 2500 2531 2364 2520 2470 2443 2561 2363 2458 2473 2391 2403 2446 2433 2451 2509 2419 2464 2466 2427 2395 2415 2432 2405 2399 2469 2488 2354 2391 2437 2363 2417 2450 2391 2352 2438 2352 2379 2360 2394 2314 2417 2408 2282 2417 2478 2434 2394 2416 2433 2424 2413 2305 2296 2396 2372 2405 2387 2466 2280 2503 2395 2348 2359 2432 2412 2318 2345 2301 2296 2305 2309 2271 2452 2425 2287 2394 2368 2287 2304 2325 2237 2330 2320 2298 2289 2295 2322 2252 2238 2279 2381 2279 2261 2196 2181 2247 2324 2333 2305 2317 2319 2234 2251 2337 2285 2324 2234 2251 2207 2315 2217 2331 2114 2239 2269 2258 2201 2210 2181 2212 2122 2144 2259 2266 2236 2182 2210 2253 2179 2208 2226 2196 2132 2171 2171 2202 2194 2241 2083 2119 2152 2202 2110 2179 2080 2183 2146 2226 2122 2183 2197 2181 2162 2160 2168 2161 2133 2094 2100 2135 2092 2007 2217 2112 2106 2137 2073 2147 2065 2048 2147 2061 2102 2117 2113 2005 2141 2121 2002 2015 2061 2026 2048 2143 2051 2004 1978 2040 1995 2029 2066 2139 2019 2056 1984 2096 2111 2092 2113 2065 2085 2089 2056 2035 2026 2079 2030 2087 2062 2082 2084 2128 2039 2062 2038 2158 2149 2039 2067 2048 2007 2086 2050 2038 1994 2108 2025 1990 1980 2044 2007 2030 2051 2074 2083 2080 2015 2076 2095 2109 2068 2113 2028 2086 1921 2072 2075 2002 1926 2004 1930 2037 2042 1978 2053 1961 2049 2074 2023 2077 1966 2067 2031 2008 1968 1952 2078 2009 2017 1961 1981 2044 2031 1960 1976 1970 2092 2072 2002 1941 1980 2036 2016 2055 1937 2011 1931 2010 1928 1933 2041 1985 1961 2011 1949 2071 2087 1989 1925 2046 2064 1998 1957 2024 2044 1924 1974 1974 2065 2093 2001 1950 2019 1967 2002 1939 1917 1967 1874 1969 2022 1982 2033 2034 2022 2044 2008 2035 2015 1991 1955 1943 2053 2018 2037 1976 2073 2045 2072 2026 1970 2019 2087 2035 2009 1979 1960 2045 2003 2024 2027 2028 2042 1984 1996 2054 1993 1969 2066 2031 2012 2041 2016 2116 1969 2056 1940 1980 1990 1965 2128 2108 1962 2035 1947 1955 1992 1934 1964 1942 2027 2088 2064 2027 2068 1987 1997 2002 1988 2018 2045 2008 1948 1977 1901 1957 1932 2004 1977 2058 1979 1961 2012 1952 2034 1984 1929 2052 2001 1970 2018 1884 2007 1964 1913 1972 1980 2047 1973 1961 2017 1907 1945 1882 1939 2024 1994 1947 1975 1970 1953 2021 1919 1970 1976 1950 1918 1957 1958 1952 1917 1929 1914 1925 2018 1959 1884 1909 1909 1904 1872 1924 1937 1970 1886 1960 1849 1938 1963 1889 1834 1920 1873 1899 1819 1859 1860 1888 1883 1845 1969 1879 1977 1858 1815 1891 1929 1895 1919 1910 1948 1855 1825 1895 1856 1826 1898 1885 1845 1804 1940 1873 1815 1797 1868 1841 1891 1832 1831 1839 1807 1826 1788 1701 1849 1842 1790 1812 1812 1834 1827 1793 1826 1836 1759 1803 1822 1795 1736 1781 1733 1785 1838 1704 1783 1713 1788 1835 1786 1738 1716 1732 1693 1719 1770 1761 1707 1746 1739 1792 1779 1797 1787 1821 1790 1810 1720 1724 1789 1750 1849 1738 1790 1719 1686 1675 1800 1772 1759 1742 1718 1732 1780 1773 1806 1697 1721 1759 1730 1743 1707 1682 1786 1680 1773 1723 1835 1794 1707 1785 1798 1811 1852 1742 1833 1784 1758 1817 1846 1743 1808 1791 1825 1837 1892 1881 1878 1793 1875 1898 1868 1898 1936 1964 2024 1955 1963 1971 1975 1949 1903 1940 1939 1965 2062 2001 2002 2062 2095 2088 2096 2082 2097 2053 2138 2026 2049 2037 2008 2011 1995 1972 2015 2089 1961 2027 1977 1977 1964 1994 1884 1933 1948 1915 1892 1897 1848 1963 1825 1782 1835 1799 1890 1821 1830 1832 1783 1757 1789 1770 1753 1725 1758 1738 1759 1757 1720 1679 1652 1776 1734 1619 1782 1737 1669 1710 1695 1748 1609 1714 1726 1690 1710 1727 1706 1780 1681 1733 1742 1696 1769 1870 1773 1806 1838 1861 1874 1904 1937 1946 1937 1966 1969 2102 2119 2025 2107 2167 2179 2134 2193 2224 2170 2296 2269 2296 2389 2304 2371 2424 2494 2526 2594 2663 2808 2690 2779 2780 2998 2949 3070 3092 3193 3272 3220 3240 3348 3282 3428 3423 3374 3300 3326 3437 3399 3527 3348 3376 3554 3365 3452 3257 3306 3160 3277 3342 3202 3304 3252 3396 3145 3247 3203 3198 3216 3235 3308 3217 3241 3085 3115 3088 3042 3040 2951 2895 2778 2699 2633 2444 2526 2363 2248 2132 2125 2036 1983 1988 1968 1827 1842 1826 1820 1861 1792 1781 1739 1814 1776 1779 1702 1742 1693 1646 1683 1619 1628 1589 1597 1533 1539 1510 1504 1601 1601 1590 1529 1571 1583 1525 1559 1557 1510 1539 1572 1508 1543 1573 1509 1543 1530 1521 1602 1470 1561 1576 1622 1475 1512 1574 1530 1529 1531 1509 1539 1564 1472 1488 1519 1525 1457 1514 1455 1485 1541 1552 1483 1542 1584 1524 1475 1465 1511 1490 1525 1496 1561 1501 1459 1500 1432 1577 1498 1461 1545 1530 1494 1450 1563 1539 1528 1514 1540 1549 1522 1549 1513 1499 1550 1545 1607 1569 1572 1607 1614 1489 1654 1527 1552 1504 1582 1531 1626 1590 1574 1574 1592 1684 1593 1627 1616 1597 1619 1578 1676 1552 1700 1640 1652 1641 1646 1667 1614 1603 1677 1655 1682 1700 1771 1703 1709 1671 1778 1681 1700 1598 1689 1617 1717 1684 1714 1625 1557 1577 1541 1585 1553 1545 1507 1561 1604 1556 1619 1664 1573 1668 1635 1711 1609 1599 1636 1625 1597 1568 1578 1573 1541 1448 1521 1483 1441 1438 1485 1452 1480 1491 1474 1528 1443 1456 1433 1471 1458 1427 1478 1441 1461 1363 1483 1413 1484 1498 1440 1431 1445 1471 1486 1477 1444 1434 1436 1434 1472 1465 1480 1455 1370 1446 1421 1389 1458 1529 1392 1405 1503 1484 1425 1470 1437 1506 1444 1493 1427 1411 1441 1378 1371 1401 1349 1453 1494 1453 1381 1460 1458 1418 1444 1457 1466 1446 1351 1493 1435 1368 1458 1466 1390 1440 1443 1373 1382 1497 1421 1456 1499 1438 1410 1428 1422 1514 1455 1468 1436 1448 1470 1478 1448 1484 1423 1496 1431 1463 1478 1445 1459 1467 1529 1544 1442 1405 1463 1512 1456 1475 1494 1566 1499 1403 1571 1477 1495 1437 1533 1585 1549 1451 1502 1526 1482 1524 1522 1509 1576 1486 1558 1576 1513 1539 1534 1506 1607 1620 1561 1545 1563 1579 1627 1581 1669 1606 1670 1634 1657 1650 1683 1682 1768 1771 1751 1852 1791 1886 1898 2121 2046 2126 2158 2205 2316 2313 2344 2455 2518 2400 2466 2611 2746 2664 2776 2793 2774 2911 3044 2954 3124 3184 3191 3362 3406 3530 3576 3647 3705 3871 4134 4211 4315 4517 4513 4750 4724 4959 5053 5057 5261 5083 5418 5270 5440 5326 5423 5391 5561 5503 5469 5282 5033 5130 4850 4851 4832 4700 4552 4425 4460 4344 4247 4176 4195 4089 4069 3919 3899 3888 3797 3635 3530 3412 3371 3056 3089 3041 2854 2750 2745 2515 2511 2395 2300 2204 2156 2065 1952 1975 1862 1858 1772 1821 1658 1803 1715 1590 1663 1723 1613 1598 1563 1533 1593 1575 1527 1520 1566 1556 1547 1569 1478 1516 1478 1419 1446 1432 1439 1423 1553 1428 1424 1475 1484 1467 1370 1456 1399 1463 1379 1407 1432 1466 1384 1380 1398 1338 1409 1358 1421 1454 1389 1389 1462 1425 1437 1465 1411 1346 1479 1386 1425 1421 1444 1418 1374 1468 1445 1354 1392 1425 1352 1435 1404 1350 1359 1349 1391 1363 1392 1332 1369 1430 1322 1419 1389 1360 1425 1430 1411 1331 1357 1391 1356 1423 1335 1411 1410 1344 1416 1338 1417 1434 1303 1379 1393 1371 1367 1403 1298 1383 1332 1367 1357 1366 1348 1312 1362 1376 1294 1340 1361 1342 1371 1338 1383 1388 1374 1347 1365 1333 1383 1323 1369 1382 1395 1320 1345 1327 1372 1354 1389 1396 1301 1358 1314 1354 1366 1329 1332 1338 1322 1312 1321 1268 1320 1280 1346 1396 1388 1320 1306 1297 1364 1329 1349 1361 1343 1290 1416 1322 1334 1344 1409 1357 1362 1396 1320 1313 1288 1281 1358 1316 1308 1258 1339 1310 1273 1255 1250 1296 1365 1400 1309 1270 1337 1280 1335 1324 1301 1305 1354 1302 1309 1335 1301 1322 1360 1283 1304 1290 1261 1335 1361 1299 1286 1318 1318 1354 1332 1337 1269 1298 1387 1296 1360 1250 1295 1311 1337 1268 1265 1403 1306 1391 1372 1342 1422 1328 1371 1380 1345 1341 1324 1361 1363 1403 1381 1329 1319 1357 1340 1398 1328 1321 1328 1390 1311 1374 1360 1356 1313 1365 1367 1403 1319 1359 1375 1315 1373 1342 1337 1361 1389 1273 1320 1303 1304 1281 1315 1293 1268 1336 1314 1277 1316 1265 1291 1296 1331 1314 1332 1276 1319 1338 1224 1247 1294 1318 1328 1272 1244 1281 1351 1313 1349 1302 1318 1329 1292 1308 1329 1293 1316 1302 1326 1284 1280 1315 1290 1249 1287 1277 1264 1270 1252 1344 1265 1256 1277 1267 1302 1242 1212 1281 1345 1314 1343 1273 1279 1262 1229 1326 1307 1326 1276 1272 1326 1362 1268 1274 1330 1314 1307 1234 1283 1291 1339 1352 1332 1234 1353 1228 1245 1309 1279 1245 1280 1263 1206 1333 1261 1336 1308 1317 1280 1299 1288 1280 1284 1278 1234 1277 1258 1222 1283 1226 1294 1219 1167 1295 1287 1270 1272 1284 1305 1226 1335 1230 1236 1294 1271 1259 1274 1213 1251 1284 1239 1233 1347 1232 1163 1221 1310 1270 1236 1214 1272 1259 1257 1244 1249 1292 1289 1281 1282 1249 1233 1303 1193 1237 1306 1238 1229 1207 1199 1221 1280 1192 1223 1334 1252 1247 1227 1232 1335 1226 1196 1234 1249 1259 1235 1264 1206 1274 1216 1292 1269 1217 1269 1274 1247 1250 1250 1247 1221 1213 1285 1248 1258 1263 1254 1292 1213 1216 1282 1286 1312 1222 1210 1230 1307 1225 1242 1253 1233 1171 1292 1253 1249 1244 1293 1250 1308 1201 1211 1244 1272 1233 1212 1268 1259 1268 1230 1285 1258 1272 1251 1312 1227 1262 1234 1268 1278 1202 1277 1207 1231 1223 1218 1297 1263 1280 1265 1306 1274 1274 1318 1248 1327 1180 1250 1298 1274 1207 1255 1288 1310 1241 1261 1238 1239 1326 1295 1267 1306 1279 1360 1270 1295 1312 1269 1214 1288 1211 1248 1251 1312 1285 1290 1282 1333 1313 1348 1281 1335 1209 1281 1384 1347 1373 1356 1400 1405 1384 1394 1377 1375 1367 1342 1311 1375 1303 1424 1355 1442 1369 1421 1436 1455 1501 1451 1452 1394 1435 1486 1462 1507 1519 1478 1439 1478 1475 1467 1426 1472 1468 1389 1410 1387 1368 1424 1411 1356 1389 1339 1365 1336 1329 1255 1302 1316 1329 1271 1265 1318 1272 1324 1295 1218 1257 1254 1263 1256 1227 1260 1291 1296 1312 1186 1298 1306 1254 1244 1223 1332 1306 1278 1262 1261 1253 1267 1195 1303 1224 1282 1257 1282 1263 1232 1283 1228 1209 1196 1234 1169 1247 1296 1257 1217 1241 1247 1222 1206 1164 1258 1182 1235 1205 1210 1298 1203 1239 1287 1264 1244 1273 1181 1302 1168 1247 1231 1224 1281 1245 1194 1193 1247 1247 1207 1220 1222 1249 1249 1234 1203 1237 1238 1228 1200 1316 1221 1273 1186 1286 1320 1223 1256 1208 1313 1232 1232 1241 1239 1285 1258 1213 1228 1262 1173 1302 1249 1238 1183 1301 1220 1242 1241 1279 1286 1258 1192 1313 1179 1194 1210 1255 1209 1259 1187 1239 1205 1234 1257 1287 1224 1242 1210 1244 1290 1232 1225 1210 1281 1199 1248 1268 1169 1259 1253 1220 1276 1304 1259 1256 1250 1287 1278 1192 1230 1279 1235 1260 1197 1201 1219 1267 1242 1256 1245 1241 1256 1230 1250 1244 1265 1280 1314 1255 1283 1221 1196 1241 1267 1256 1233 1223 1224 1190 1267 1285 1173 1238 1309 1163 1231 1240 1259 1247 1206 1238 1346 1210 1179 1228 1240 1213 1231 1223 1170 1250 1211 1266 1244 1213 1266 1211 1246 1150 1207 1270 1265 1182 1211 1262 1205 1223 1223 1260 1324 1289 1215 1300 1271 1175 1228 1254 1202 1196 1283 1214 1228 1242 1263 1297 1245 1227 1208 1281 1323 1241 1284 1267 1216 1224 1241 1289 1267 1285 1197 1172 1237 1226 1237 1292 1283 1280 1231 1247 1242 1201 1240 1241 1213 1246 1225 1224 1240 1288 1291 1226 1321 1311 1326 1271 1303 1340 1258 1237 1348 1258 1287 1296 1277 1352 1296 1299 1325 1305 1327 1384 1358 1346 1404 1413 1351 1370 1369 1429 1418 1396 1402 1420 1412 1502 1507 1484 1521 1466 1488 1509 1585 1612 1586 1587 1586 1566 1564 1590 1545 1542 1563 1648 1565 1593 1572 1642 1618 1686 1563 1629 1553 1603 1616 1542 1553 1623 1494 1548 1530 1476 1464 1555 1515 1464 1488 1449 1455 1498 1371 1408 1431 1366 1386 1379 1401 1415 1343 1327 1311 1296 1295 1283 1378 1331 1320 1284 1291 1232 1335 1324 1294 1270 1307 1307 1276 1303 1301 1289 1235 1296 1280 1216 1332 1279 1268 1255 1270 1173 1247 1257 1173 1282 1296 1275 1217 1239 1262 1269 1300 1191 1202 1254 1218 1231 1332 1173 1235 1255 1238 1255 1256 1205 1274 1239 1203 1241 1282 1233 1251 1254 1255 1213 1253 1301 1222 1266 1189 1221 1239 1234 1277 1270 1278 1213 1287 1191 1260 1204 1232 1247 1180 1264 1217 1232 1195 1238 1241 1216 1176 1249 1217 1217 1241 1192 1275 1211 1188 1181 1158 1214 1246 1299 1222 1258 1240 1198 1205 1195 1236 1268 1252 1206 1210 1315 1225 1135 1234 1170 1240 1221 1177 1198 1181 1262 1211 1218 1236 1219 1214 1210 1212 1224 1171 1218 1146 1242 1218 1202 1229 1225 1224 1199 1146 1270 1241 1231 1220 1225 1302 1236 1271 1157 1227 1293 1227 1260 1210 1196 1234 1246 1271 1120 1141 1209 1252 1263 1146 1203 1224 1221 1179 1222 1220 1220 1274 1239 1237 1256 1303 1187 1263 1188 1240 1321 1228 1285 1300 1204 1308 1253 1219 1288 1188 1257 1216 1243 1322 1229 1280 1314 1257 1269 1232 1293 1225 1333 1255 1180 1226 1213 1233 1219 1329 1242 1286 1245 1284 1225 1244 1241 1251 1267 1234 1224 1256 1285 1287 1219 1219 1254 1217 1237 1239 1202 1287 1308 1213 1168 1248 1289 1220 1251 1212 1262 1239 1255 1233 1332 1267 1224 1228 1334 1229 1173 1233 1271 1342 1210 1275 1329 1230 1235 1283 1262 1229 1310 1284 1298 1247 1282 1207 1235 1235 1347 1281 1308 1242 1262 1301 1303 1294 1293 1260 1214 1298 1240 1277 1265 1329 1291 1310 1324 1275 1358 1342 1333 1375 1310 1379 1388 1385 1372 1395 1450 1472 1522 1604 1480 1545 1526 1633 1629 1610 1712 1716 1765 1775 1762 1855 1797 1887 1857 1970 1960 2067 2069 2129 2138 2143 2386 2321 2349 2468 2580 2524 2649 2678 2794 2663 2932 2906 2961 2953 3063 3045 3129 3161 3260 3299 3251 3372 3382 3417 3485 3408 3406 3331 3268 3257 3321 3341 3244 3203 3240 3106 3119 3072 2971 2978 2837 2710 2759 2750 2672 2506 2477 2445 2487 2385 2385 2237 2355 2229 2213 2146 2174 2089 2079 1964 2028 1929 1900 1877 1866 1883 1763 1724 1713 1600 1581 1588 1567 1609 1538 1527 1460 1433 1500 1426 1457 1461 1416 1399 1386 1339 1388 1403 1422 1422 1368 1339 1430 1347 1347 1450 1345 1341 1285 1354 1315 1389 1383 1326 1407 1378 1403 1416 1367 1332 1319 1376 1341 1388 1373 1380 1345 1285 1308 1274 1305 1295 1297 1344 1317 1329 1323 1202 1302 1268 1300 1355 1264 1344 1262 1355 1290 1271 1265 1207 1265 1271 1243 1259 1244 1229 1265 1216 1238 1233 1280 1240 1270 1254 1206 1220 1234 1259 1229 1294 1254 1223 1268 1262 1191 1200 1267 1168 1134 1203 1232 1183 1260 1189 1137 1167 1180 1224 1240 1207 1206 1187 1211 1246 1170 1212 1196 1262 1194 1260 1295 1206 1210 1207 1306 1225 1149 1235 1248 1250 1210 1199 1252 1221 1232 1215 1281 1276 1279 1292 1269 1229 1231 1312 1250 1341 1301 1266 1288 1292 1263 1279 1311 1296 1310 1254 1408 1329 1330 1382 1293 1385 1347 1331 1389 1347 1335 1379 1470 1463 1359 1471 1401 1431 1387 1408 1444 1512 1415 1443 1366 1399 1388 1422 1377 1426 1397 1389 1355 1342 1348 1353 1410 1348 1349 1371 1277 1258 1277 1308 1307 1261 1373 1355 1266 1337 1289 1247 1269 1277 1299 1276 1228 1356 1235 1378 1279 1278 1195 1257 1255 1253 1258 1271 1248 1223 1254 1249 1281 1248 1279 1238 1256 1238 1293 1115 1181 1256 1205 1195 1195 1142 1169 1230 1220 1197 1223 1253 1231 1238 1208 1254 1257 1171 1253 1296 1235 1225 1228 1257 1195 1196 1284 1195 1305 1183 1270 1256 1188 1235 1218 1243 1226 1212 1275 1224 1266 1208 1251 1258 1257 1234 1239 1200 1239 1217 1257 1246 1181 1294 1254 1235 1195 1200 1235 1253 1182 1276 1218 1226 1170 1214 1193 1197 1208 1212 1207 1135 1204 1184 1144 1236 1226 1195 1177 1187 1174 1147 1198 1265 1148 1195 1219 1223 1142 1215 1142 1207 1220 1186 1197 1184 1252 1165 1179 1174 1170 1100 1156 1211 1250 1204 1179 1272 1123 1226 1211 1212 1232 1197 1165 1170 1200 1133 1184 1213 1209 1265 1253 1143 1224 1212 1240 1200 1256 1253 1250 1176 1127 1233 1296 1223 1223 1224 1232 1292 1238 1275 1225 1305 1324 1335 1280 1307 1300 1310 1265 1378 1335 1383 1320 1334 1345 1343 1351 1333 1302 1447 1445 1357 1441 1430 1474 1396 1431 1399 1357 1416 1353 1407 1354 1427 1403 1349 1317 1337 1349 1368 1268 1279 1330 1355 1257 1303 1287 1319 1270 1243 1257 1236 1228 1210 1260 1215 1164 1205 1213 1217 1169 1231 1244 1170 1223 1192 1238 1221 1186 1162 1162 1109 1214 1151 1179 1141 1202 1081 1161 1120 1238 1127 1163 1095 1203 1254 1144 1137 1153 1189 1216 1154 1193 1157 1142 1148 1189 1158 1145 1136 1153 1193 1151 1142 1126 1203 1128 1188 1160 1221 1173 1160 1137 1121 1157 1153 1176 1180 1089 1165 1121 1136 1180 1206 1144 1192 1131 1134 1153 1149 1151 1159 1167 1211 1225 1178 1208 1168 1165 1133 1216 1193 1189 1235 1191 1195 1202 1163 1182 1194 1116 1208 1228 1169 1181 1124 1211 1152 1113 1195 1204 1186 1166 1180 1141 1175 1155 1135 1220 1092 1210 1177 1175 1126 1145 1187 1181 1191 1203 1219 1166 1163 1128 1143 1154 1179 1192 1169 1205 1138 1143 1074 1143 1163 1164 1177 1187 1178 1185 1174 1146 1264 1135 1176 1215 1171 1153 1150 1174 1173 1185 1159 1201 1226 1157 1192 1144 1154 1180 1099 1155 1157 1210 1129 1232 1151 1198 1179 1192 1151 1170 1183 1209 1190 1172 1162 1194 1197 1233 1146 1139 1117 1139 1208 1135 1176 1232 1182 1147 1244 1169 1164 1254 1121 1216 1156 1158 1188 1176 1161 1171 1167 1160 1190 1187 1139 1140 1171 1189 1200 1207 1187 1129 1131 1071 1145 1179 1239 1180 1180 1127 1103 1190 1174 1198 1119 1139 1170 1178 1152 1186 1270 1137 1168 1108 1153 1115 1199 1114 1161 1123 1137 1130 1190 1122 1231 1155 1104 1231 1229 1195 1165 1097 1246 1122 1104 1156 1176 1118 1186 1201 1140 1142 1221 1160 1119 1144 1133 1270 1120 1163 1154 1156 1168 1154 1162 1167 1129 1220 1166 1182 1215 1231 1119 1160 1179 1214 1198 1119 1149 1181 1142 1195 1222 1259 1226 1209 1246 1218 1206 1206 1233 1212 1265 1256 1157 1193 1212 1178 1274 1234 1192 1119 1234 1146 1205 1140 1191 1292 1250 1205 1224 1265 1270 1291 1240 1186 1198 1263 1225 1221 1276 1214 1274 1282 1239 1212 1338 1261 1275 1261 1321 1287 1401 1290 1343 1310 1303 1360 1320 1291 1387 1401 1369 1348 1415 1435 1440 1444 1322 1325 1451 1475 1442 1415 1484 1490 1492 1459 1459 1482 1473 1453 1493 1496 1487 1513 1535 1568 1541 1484 1554 1450 1480 1390 1384 1496 1441 1449 1451 1399 1505 1451 1425 1427 1385 1379 1469 1350 1461 1374 1355 1391 1347 1345 1423 1368 1402 1321 1460 1349 1420 1301 1351 1263 1302 1352 1311 1323 1356 1335 1253 1266 1259 1280 1264 1262 1252 1207 1217 1302 1147 1252 1235 1225 1204 1173 1209 1259 1233 1232 1210 1261 1198 1197 1207 1181 1170 1192 1188 1215 1216 1168 1186 1122 1187 1218 1178 1241 1200 1221 1223 1154 1118 1162 1139 1145 1254 1186 1173 1118 1178 1201 1199 1179 1212 1253 1129 1212 1190 1120 1197 1194 1178 1187 1163 1163 1261 1101 1116 1213 1156 1174 1200 1176 1178 1148 1138 1142 1165 1156 1196 1196 1228 1124 1154 1178 1158 1173 1182 1167 1191 1170 1146 1161 1107 1174 1175 1085 1220 1232 1194 1109 1137 1230 1170 1154 1215 1226 1127 1166 1089 1159 1170 1169 1162 1095 1212 1140 1155 1186 1124 1189 1175 1156 1208 1184 1179 1164 1142 1171 1184 1247 1155 1132 1231 1152 1185 1166 1221 1140 1215 1205 1163 1178 1186 1190 1113 1141 1142 1196 1197 1131 1190 1169 1199 1173 1145 1225 1084 1231 1164 1182 1174 1124 1256 1101 1273 1230 1208 1203 1208 1206 1156 1240 1231 1202 1265 1317 1286 1290 1234 1308 1300 1265 1332 1324 1294 1299 1353 1290 1388 1311 1371 1392 1394 1458 1448 1498 1534 1507 1484 1511 1559 1548 1482 1579 1606 1609 1611 1697 1653 1740 1624 1692 1617 1697 1713 1693 1678 1667 1741 1654 1666 1644 1647 1716 1650 1661 1710 1598 1623 1620 1625 1653 1626 1559 1630 1562 1707 1577 1592 1595 1592 1567 1540 1552 1511 1582 1561 1556 1521 1530 1471 1496 1434 1475 1394 1517 1452 1450 1428 1507 1525 1444 1490 1542 1369 1470 1531 1452 1474 1477 1523 1548 1553 1621 1644 1534 1606 1709 1623 1616 1765 1710 1653 1591 1603 1619 1534 1518 1455 1442 1494 1510 1460 1520 1455 1410 1378 1424 1491 1355 1412 1356 1334 1377 1266 1314 1306 1222 1211 1274 1150 1195 1236 1249 1227 1178 1253 1223 1200 1206 1243 1238 1206 1183 1183 1152 1137 1193 1132 1173 1183 1090 1153 1190 1113 1136 1170 1206 1196 1218 1180 1132 1190 1184 1185 1240 1200 1142 1218 1160 1203 1183 1198 1176 1220 1261 1167 1183 1214 1182 1170 1177 1187 1133 1168 1175 1182 1145 1144 1207 1167 1223 1219 1153 1208 1176 1254 1209 1221 1184 1217 1175 1174 1191 1240 1169 1208 1210 1226 1190 1262 1166 1204 1260 1197 1185 1243 1160 1236 1243 1253 1290 1234 1256 1250 1314 1268 1287 1242 1263 1284 1269 1232 1309 1269 1242 1262 1255 1333 1238 1315 1325 1300 1246 1259 1315 1259 1264 1265 1219 1233 1189 1263 1225 1273 1189 1253 1265 1184 1312 1229 1163 1215 1216 1174 1191 1252 1178 1253 1251 1154 1230 1182 1184 1183 1160 1211 1192 1169 1187 1166 1168 1159 1187 1186 1149 1170 1187 1166 1140 1163 1120 1118 1134 1190 1171 1054 1168 1182 1195 1134 1132 1087 1156 1143 1137 1141 1167 1169 1172 1137 1149 1177 1146 1105 1077 1133 1122 1094 1119 1153 1112 1134 1183 1150 1162 1148 1120 1095 1150 1152 1117 1138 1143 1101 1132 1116 1151 1139 1136 1116 1120 1145 1106 1153 1126 1129 1166 1109 1054 1149 1120 1096 1151 1088 1145 1167 1158 1140 1107 1122 1093 1094 1140 1141 1124 1171 1104 1144 1110 1121 1194 1118 1145 1131 1120 1116 1153 1086 1097 1204 1125 1172 1054 1157 1174 1169 1165 1088 1148 1143 1130 1140 1184 1129 1172 1132 1159 1112 1087 1122 1166 1135 1065 1208 1173 1116 1135 1048 1152 1132 1047 1147 1126 1096 1042 1125 1119 1146 1135 1113 1166 1150 1136 1118 1132 1118 1075 1081 1093 1093 1088 1127 1182 1112 1155 1145 1075 1076 1101 1215 1133 1127 1106 1127 1131 1155 1135 1120 1094 1108 1185 1096 1131 1122 1128 1136 1115 1133 1127 1181 1174 1116 1134 1101 1153 1114 1158 1077 1158 1180 1135 1150 1077 1128 1105 1157 1090 1132 1102 1184 1102 1213 1125 1127 1171 1101 1153 1141 1031 1199 1108 1118 1180 1045 1101 1166 1185 1072 1147 1099 1094 1107 1151 1139 1119 1118 1152 1112 1108 1134 1166 1054 1166 1085 1130 1146 1137 1094 1123 1129 1165 1100 1115 1165 1135 1096 1157 1133 1147 1084 1093 1101 1088 1165 1114 1119 1123 1119 1079 1118 1163 1142 1139 1031 1122 1131 1128 1123 1119 1129 1056 1187 1063 1169 1074 1092 1125 1109 1173 1126 1152 1126 1139 1125 1183 1147 1088 1133 1039 1075 1176 1112 1100 1094 1073 1103 1149 1143 1125 1121 1109 1121 1090 1071 1136 1127 1070 1095 1133 1103 1120 1163 1101 1100 1128 1120 1123 1126 1115 1098 1048 1160 1081 1082 1096 1087 1089 1157 1036 1190 1136 1155 1090 1121 1130 1070 1114 1096 1097 1123 1123 1181 1116 1118 1084 1070 1055 1125 1142 1111 1080 1084 1087 1162 1083 1090 1087 1127 1147 1169 1155 1075 1070 1147 1143 1108 1169 1121 1170 1126 1074 1065 1107 1208 1148 1114 1080 1021 1146 1082 1073 1127 1141 1126 1120 1101 1137 1109 1075 1138 1168 1075 1168 1132 1174 1090 1063 1117 1132 1058 1105 1079 1077 1177 1078 1091 1109 1124 1168 1147 1112 1120 1140 1138 1098 1077 1225 1100 1155 1083 1121 1153 1108 1113 1064 1105 1162 1117 1160 1130 1087 1200 1127 1089 1135 1106 1150 1141 1116 1136 1176 1144 1193 1134 1154 1143 1165 1127 1141 1191 1157 1148 1195 1208 1144 1173 1232 1184 1153 1293 1146 1202 1163 1203 1164 1193 1163 1152 1219 1238 1166 1050 1124 1174 1140 1176 1130 1134 1183 1170 1151 1123 1125 1117 1148 1193 1120 1141 1163 1142 1150 1208 1112 1180 1176 1138 1101 1105 1097 1134 1143 1143 1171 1148 1115 1089 1110 1100 1155 1090 1136 1083 1132 1089 1146 1152 1042 1122 1087 1102 1038 1099 1088 1115 1142 1114 1085 1077 1163 1034 1151 1113 1168 1144 1149 1091 1090 1157 1113 1106 1172 1021 1165 1118 1164 1121 1120 1115 1119 1086 1013 1155 1128 1079 1106 1066 1116 1131 1086 1113 1103 1158 1109 1114 1090 1091 1068 1128 1131 1069 1132 1134 1080 1070 1074 1069 1148 1133 1089 1065 1152 1176 1154 1076 1129 1112 1127 1131 1088 1123 1116 1118 1118 1135 1117 1103 1149 1127 1126 1095 1090 1123 1077 1072 1178 1118 1169 1131 1159 1126 1137 1120 1155 1118 1105 1063 1111 1036 1099 1141 1147 1115 1124 1089 1136 1129 1133 1125 1066 1106 1097 1089 1132 1093 1118 1154 1147 1125 1185 1075 1120 1107 1151 1083 1138 1159 1068 1128 1104 1099 1140 1109 1133 1072 1091 1115 1129 1121 1085 1153 1154 1038 1086 1103 1129 1088 1128 1148 1117 1081 1126 1017 1127 1080 1149 1137 1111 1174 1089 1165 1130 1037 1124 1135 1123 1074 1184 1138 1142 1150 1121 1070 1048 1080 1119 1127 1082 1083 1095 1172 1070 1134 1112 1128 1154 1130 1137 1172 1107 1157 1116 1144 1101 1155 1123 1147 1208 1187 1179 1161 1123 1172 1109 1157 1153 1216 1109 1188 1166 1239 1187 1198 1185 1208 1164 1195 1177 1252 1196 1257 1279 1252 1264 1265 1262 1252 1266 1247 1260 1268 1331 1288 1308 1287 1253 1301 1318 1313 1363 1393 1250 1361 1301 1313 1279 1311 1377 1268 1266 1304 1408 1289 1327 1372 1322 1344 1276 1359 1292 1258 1282 1307 1247 1288 1307 1294 1227 1247 1291 1297 1252 1308 1253 1248 1245 1236 1213 1261 1204 1180 1230 1195 1229 1258 1174 1178 1137 1291 1220 1228 1208 1215 1275 1205 1205 1197 1173 1152 1278 1096 1153 1201 1243 1246 1153 1195 1151 1193 1183 1112 1144 1159 1215 1165 1143 1109 1154 1136 1179 1120 1173 1145 1110 1133 1181 1087 1118 1165 1081 1193 1101 1160 1129 1138 1148 1143 1138 1132 1110 1152 1102 1148 1149 1107 1142 1108 1053 1117 1127 1126 1068 1111 1142 1114 1110 1038 1146 1122 1057 1148 1103 1199 1093 1108 1035 1185 1094 1119 1129 1103 1089 1066 1104 1084 1125 1120 1096 1096 1106 1119 1152 1097 1053 1130 1081 1108 1170 1061 1087 1107 1140 1079 996 1054 1077 1084 1137 1171 1109 1126 1115 1155 1095 1157 1109 1117 1069 1124 1072 1098 1180 1145 1130 1091 1146 1146 1129 1099 1161 1068 1069 1103 1128 1083 1069 1148 1112 1117 1091 1085 1164 1129 1116 1016 1165 1146 1107 1182 1135 1167 1160 1125 1121 1109 1120 1100 1126 1105 1113 1096 1121 1128 1121 1114 1078 1111 1120 1164 1166 1123 1130 1095 1074 1176 1128 1042 1033 1034 1074 1100 1106 1159 1068 1132 1174 1066 1075 1117 1142 1132 1084 1142 1069 1068 1166 1084 1103 1120 1109 1097 1118 1184 1047 1113 1141 1088 1099 1120 1189 1082 1124 1065 1110 993 1037 1104 1077 1106 1133 1103 1126 1082 1129 1127 1093 1135 1136 1106 1107 1171 1155 1151 1097 1122 1141 1111 1126 1196 1150 1174 1097 1092 1143 1152 1162 1121 1078 1151 1102 1051 1099 1136 1113 1119 1118 1172 1132 1107 1101 1085 1087 1096 1113 1149 1095 1111 1100 1105 1062 1121 1111 1045 1089 1049 1134 1136 1132 1099 1089 1080 1122 1106 1084 1102 1159 1111 1086 1102 1121 1091 1140 1120 1114 1139 1145 1096 1185 1135 1108 1145 1167 1085 1122 1106 1130 1142 1128 1128 1115 1140 1176 1163 1118 1143 1115 1120 1080 1139 1119 1058 1190 1128 1088 1148 1084 1110 1097 1114 1157 1096 1085 1183 1153 1165 1105 1122 1156 1119 1114 1157 1072 1119 1082 1138 1142 1082 1139 1082 1133 1156 1184 1078 1042 1123 1113 1052 1087 1086 1119 1085 1119 1062 1109 1114 1130 1113 1142 1036 1022 1146 1043 1124 1078 1082 1085 1151 1071 1156 1074 1027 1169 1086 1078 1097 1077 1117 1066 1085 1111 1100 1105 1097 1130 1146 1171 1114 1141 1067 1045 1152 1071 1124 1169 1009 1089 1107 1141 1097 1087 1144 1080 1145 1122 1068 1116 1124 1115 1044 1127 1111 1086 1150 1116 1145 1121 1070 1135 1097 1124 1086 1104 1111 1095 1173 1126 1173 1085 1070 1158 1159 1164 1114 1086 1090 1095 1152 1135 1120 1104 1147 1190 1185 1108 1093 1108 1151 1111 1097 1127 1092 1137 1123 1079 1153 1042 1154 1142 1128 1113 1098 1095 1104 1183 1094 1132 1124 1132 1109 1176 1113 1084 1132 1130 1134 1149 1182 1005 1188 1133 1133 1121 1146 1110 1087 1099 1118 1094 1089 1134 1145 1086 1153 1095 1142 1162 1098 1118 1092 1069 1138 1079 1095 1103 1092 1166 1142 1131 1171 1127 1115 1064 1059 1141 1163 1146 1091 1153 1144 1151 1126 1102 1053 1108 1037 1135 1115 1106 1174 1095 1116 1132 1170 1104 1099 1025 1098 1055 1161 1123 1114 1106 1103 1111 1074 1119 1132 1090 1089 1096 1070 1099 1108 1154 1068 1091 1103 1137 1154 1108 1164 1128 1148 1095 1130 1057 1108 1100 1137 1121 1201 1138 1084 1162 1123 1152 1093 1195 1081 1153 1162 1097 1141 1145 1115 1174 1172 1169 1174 1111 1121 1090 1139 1122 1165 1179 1191 1179 1145 1176 1143 1190 1204 1209 1225 1153 1176 1149 1171 1160 1158 1216 1195 1196 1192 1198 1134 1168 1164 1166 1219 1202 1185 1161 1224 1197 1184 1208 1224 1159 1249 1214 1162 1161 1185 1167 1231 1167 1228 1182 1252 1185 1230 1229 1204 1219 1220 1226 1235 1226 1197 1224 1244 1203 1189 1221 1176 1234 1233 1245 1262 1231 1270 1240 1174 1270 1237 1283 1220 1225 1217 1245 1204 1232 1202 1218 1234 1230 1264 1261 1211 1230 1292 1217 1297 1235 1205 1249 1241 1277 1249 1214 1216 1169 1242 1191 1251 1233 1245 1185 1249 1177 1151 1180 1260 1178 1248 1286 1229 1234 1236 1200 1173 1199 1204 1150 1156 1133 1171 1160 1143 1124 1179 1186 1181 1254 1147 1162 1102 1144 1176 1197 1190 1219 1220 1156 1190 1165 1131 1160 1142 1138 1128 1140 1174 1164 1154 1118 1143 1217 1106 1153 1179 1160 1178 1160 1176 1187 1172 1156 1143 1152 1128 1121 1091 1111 1148 1141 1102 1123 1179 1178 1166 1129 1127 1149 1176 1159 1196 1139 1118 1138 1083 1131 1151 1160 1155 1148 1155 1141 1122 1148 1125 1100 1081 1196 1170 1114 1142 1196 1165 1212 1139 1147 1195 1124 1135 1154 1190 1132 1156 1110 1165 1146 1175 1143 1147 1162 1189 1134 1109 1140 1141 1180 1184 1169 1194 1128 1152 1199 1153 1132 1111 1130 1169 1146 1206 1228 1179 1206 1199 1192 1196 1210 1222 1175 1137 1210 1251 1275 1283 1203 1269 1318 1296 1285 1272 1267 1253 1284 1304 1294 1234 1308 1394 1320 1354 1325 1459 1371 1395 1359 1417 1453 1404 1446 1499 1554 1495 1567 1556 1448 1515 1540 1483 1542 1562 1588 1504 1578 1622 1508 1523 1561 1540 1568 1587 1528 1534 1561 1599 1518 1567 1566 1523 1517 1559 1517 1561 1572 1547 1582 1423 1499 1449 1437 1452 1432 1435 1502 1458 1455 1455 1412 1458 1448 1521 1379 1385 1450 1433 1410 1441 1444 1406 1425 1378 1344 1353 1376 1403 1321 1369 1279 1368 1332 1337 1283 1363 1319 1328 1278 1288 1337 1363 1307 1322 1215 1277 1326 1292 1282 1344 1330 1224 1262 1234 1349 1247 1276 1301 1237 1223 1196 1259 1275 1162 1244 1239 1214 1195 1173 1228 1182 1206 1174 1263 1200 1133 1113 1140 1207 1115 1266 1253 1202 1181 1194 1134 1165 1196 1166 1202 1137 1163 1184 1099 1190 1255 1160 1133 1097 1154 1236 1120 1193 1131 1167 1136 1201 1179 1136 1211 1141 1166 1194 1139 1158 1181 1132 1203 1167 1151 1126 1153 1164 1204 1132 1115 1171 1189 1140 1152 1196 1180 1203 1093 1154 1167 1222 1196 1194 1131 1110 1136 1187 1160 1195 1197 1222 1220 1192 1175 1199 1176 1183 1182 1198 1173 1102 1193 1188 1267 1191 1271 1202 1252 1248 1180 1176 1175 1159 1177 1167 1186 1172 1167 1209 1197 1168 1188 1148 1182 1196 1180 1187 1173 1201 1208 1201 1149 1284 1177 1110 1186 1210 1169 1187 1142 1119 1198 1251 1170 1182 1130 1133 1134 1203 1181 1172 1123 1078 1128 1196 1175 1114 1224 1202 1122 1153 1164 1194 1207 1148 1122 1191 1217 1141 1167 1129 1195 1125 1130 1179 1156 1174 1177 1143 1102 1168 1174 1171 1128 1194 1161 1110 1151 1123 1135 1185 1111 1151 1166 1110 1195 1123 1100 1134 1101 1118 1139 1195 1156 1120 1115 1155 1114 1088 1098 1114 1130 1189 1091 1197 1164 1132 1151 1138 1212 1085 1185 1135 1141 1094 1177 1069 1121 1150 1183 1127 1156 1083 1182 1161 1128 1121 1188 1104 1156 1112 1114 1085 1173 1147 1154 1149 1164 1111 1166 1131 1109 1161 1233 1134 1135 1125 1156 1098 1139 1135 1153 1212 1131 1166 1144 1201 1122 1087 1123 1170 1086 1125 1101 1142 1118 1156 1169 1184 1124 1183 1119 1160 1127 1122 1147 1124 1087 1154 1134 1169 1106 1209 1130 1174 1139 1141 1191 1213 1161 1146 1094 1192 1162 1186 1199 1168 1137 1206 1180 1168 1151 1134 1168 1116 1148 1109 1175 1198 1176 1167 1160 1181 1167 1171 1136 1167 1211 1219 1177 1196 1211 1197 1196 1147 1177 1239 1239 1179 1186 1186 1214 1170 1094 1193 1197 1079 1169 1166 1118 1209 1178 1216 1156 1166 1235 1112 1189 1202 1169 1196 1168 1187 1120 1103 1173 1188 1165 1203 1186 1185 1205 1198 1195 1122 1164 1165 1155 1143 1118 1168 1164 1204 1126 1156 1157 1122 1127 1142 1096 1136 1204 1124 1145 1132 1139 1158 1130 1147 1158 1107 1125 1119 1150 1147 1140 1109 1126 1077 1172 1175 1093 1073 1077 1137 1086 1077 1057 1108 1143 1149 1108 1154 1103 1134 1081 1166 1130 1088 1169 1166 1102 1099 1175 1130 1120 1179 1146 1057 1101 1093 1160 1135 1112 1110 1152 1100 1147 1109 1086 1118 1137 1100 1129 1129 1121 1115 1166 1105 1151 1094 1180 1094 1102 1145 1089 1087 1057 1131 1079 1079 1169 1134 1132 1140 1167 1125 1133 1178 1193 1081 1189 1077 1085 1133 1173 1110 1110 1141 1193 1153 1104 1186 1106 1151 1095 1106 1080 1116 1154 1093 1076 1149 1144 1156 1140 1126 1125 1198 1173 1170 1190 1191 1149 1100 1134 1174 1132 1142 1119 1147 1166 1104 1139 1140 1126 1135 1152 1190 1184 1208 1170 1092 1120 1192 1139 1173 1157 1172 1196 1193 1120 1206 1124 1151 1223 1198 1197 1164 1178 1192 1156 1175 1137 1150 1117 1177 1141 1134 1162 1195 1140 1147 1110 1175 1231 1174 1185 1199 1180 1178 1121 1207 1178 1147 1188 1151 1148 1119 1124 1174 1170 1161 1133 1136 1228 1165 1182 1084 1141 1122 1124 1171 1197 1141 1241 1151 1153 1152 1147 1176 1139 1122 1139 1119 1111 1174 1107 1171 1137 1142 1164 1180 1131 1177 1195 1158 1121 1166 1122 1156 1103 1139 1220 1082 1107 1156 1119 1159 1139 1134 1070 1202 1093 1186 1111 1121 1178 1114 1108 1199 1090 1062 1148 1140 1118 1134 1104 1163 1105 1184 1080 1133 1218 1193 1142 1136 1127 1117 1148 1148 1171 1089 1097 1192 1117 1155 1054 1143 1115 1130 1177 1023 1109 1140 1145 1138 1143 1050 1132 1167 1131 1088 1111 1166 1124 1081 1191 1204 1108 1130 1181 1125 1143 1159 1084 1183 1157 1116 1129 1071 1137 1126 1139 1104 1105 1068 1149 1106 1111 1053 1116 1129 1154 1167 1113 1162 1177 1146 1180 1143 1107 1195 1117 1163 1199 1144 1162 1185 1220 1168 1145 1171 1113 1143 1104 1176 1162 1093 1146 1109 1152 1163 1158 1144 1078 1159 1108 1182 1124 1096 1183 1145 1146 1121 1112 1124 1119 1177 1202 1156 1129 1139 1192 1093 1131 1167 1200 1108 1173 1164 1098 1168 1128 1127 1152 1147 1195 1197 1087 1105 1192 1191 1150 1183 1216 1168 1214 1181 1159 1196 1199 1207 1144 1139 1133 1189 1195 1142 1179 1168 1141 1243 1186 1214 1198 1244 1225 1200 1201 1220 1257 1216 1199 1232 1244 1219 1270 1337 1252 1277 1280 1292 1291 1292 1325 1234 1298 1271 1358 1374 1334 1328 1309 1338 1287 1355 1427 1377 1351 1342 1433 1332 1334 1316 1358 1385 1386 1434 1361 1456 1328 1431 1436 1411 1422 1446 1425 1472 1374 1453 1481 1376 1431 1418 1441 1407 1431 1383 1401 1407 1443 1380 1385 1351 1320 1360 1324 1302 1331 1326 1394 1320 1326 1303 1318 1306 1286 1343 1339 1320 1342 1287 1270 1243 1272 1255 1278 1296 1321 1295 1289 1267 1238 1297 1183 1309 1272 1201 1255 1192 1191 1216 1267 1250 1312 1296 1218 1226 1222 1242 1219 1237 1226 1211 1211 1234 1176 1243 1188 1176 1302 1187 1224 1163 1134 1224 1228 1224 1216 1236 1208 1222 1215 1237 1186 1134 1123 1198 1169 1151 1170 1209 1173 1245 1143 1190 1206 1207 1229 1241 1164 1201 1215 1145 1196 1167 1245 1195 1160 1128 1154 1158 1148 1148 1157 1176 1166 1249 1130 1099 1224 1135 1221 1151 1146 1138 1108 1114 1156 1126 1162 1098 1150 1201 1132 1159 1187 1164 1214 1169 1180 1160 1140 1135 1175 1210 1147 1131 1137 1170 1150 1178 1098 1156 1160 1157 1176 1158 1194 1168 1131 1162 1164 1179 1114 1142 1131 1188 1133 1176 1205 1151 1166 1177 1126 1194 1176 1212 1172 1160 1176 1176 1134 1196 1138 1147 1142 1189 1117 1155 1196 1154 1110 1163 1124 1174 1211 1164 1196 1244 1143 1165 1180 1108 1178 1119 1170 1195 1114 1127 1188 1230 1184 1127 1155 1182 1147 1160 1202 1148 1187 1187 1164 1100 1153 1166 1213 1199 1132 1172 1141 1183 1152 1159 1187 1161 1190 1184 1108 1174 1126 1134 1136 1161 1237 1131 1087 1174 1162 1074 1139 1093 1121 1215 1133 1151 1117 1130 1132 1134 1125 1112 1118 1090 1143 1140 1122 1144 1139 1160 1082 1110 1087 1129 1126 1136 1106 1127 1119 1151 1178 1146 1177 1120 1124 1156 1170 1188 1127 1120 1133 1134 1158 1180 1153 1177 1133 1061 1080 1134 1102 1121 1111 1150 1189 1140 1097 1189 1164 1108 1160 1234 1142 1163 1198 1168 1092 1119 1183 1131 1153 1159 1095 1170 1145 1154 1214 1206 1148 1167 1173 1130 1170 1103 1180 1138 1094 1089 1093 1163 1146 1135 1118 1125 1191 1165 1086 1115 1132 1132 1224 1176 1142 1098 1132 1199 1135 1165 1177 1173 1151 1155 1127 1126 1192 1126 1134 1117 1152 1136 1149 1247 1156 1136 1122 1101 1159 1115 1105 1127 1044 1088 1168 1085 1111 1144 1086 1132 1117 1077 1132 1138 1120 1082 1153 1127 1153 1199 1154 1150 1130 1116 1138 1151 1122 1105 1092 1114 1094 1097 1167 1154 1121 1131 1083 1156 1171 1114 1162 1145 1138 1122 1107 1179 1095 1059 1151 1141 1134 1128 1141 1102 1138 1132 1155 1177 1154 1136 1149 1177 1095 1064 1167 1123 1079 1152 1094 1116 1137 1108 1158 1127 1061 1114 1124 1133 1149 1129 1140 1233 1177 1162 1178 1153 1127 1139 1059 1163 1098 1100 1028 1120 1115 1144 1156 1093 1207 1117 1184 1119 1111 1178 1073 1115 1154 1086 1179 1109 1144 1098 1204 1176 1108 1103 1157 1114 1142 1121 1159 1072 1096 1148 1178 1128 1170 1163 1165 1180 1141 1133 1122 1147 1158 1164 1056 1156 1112 1136 1154 1120 1057 1091 1109 1085 1144 1195 1121 1135 1108 1161 1145 1132 1102 1141 1108 1113 1217 1188 1163 1133 1125 1106 1123 1111 1115 1126 1089 1113 1095 1110 1178 1162 1102 1149 1138 1097 1171 1112 1166 1193 1123 1082 1170 1134 1169 1169 1191 1071 1136 1164 1112 1140 1129 1115 1113 1202</counts>
			</dataPoints>
		</scan>
	</xrdMeasurement>
</xrdMeasurements>
