<?xml version="1.0"?>
<xrdMeasurements xmlns="http://www.xrdml.com/XRDMeasurement/2.3" xmlns:xsi="http://www.w3.org/2001/XMLSchema-instance" xsi:schemaLocation="http://www.xrdml.com/XRDMeasurement/2.3 http://www.xrdml.com/XRDMeasurement/2.3/XRDMeasurement.xsd" status="Completed" recordIdentifier="{1543E263-C46F-44BA-85D0-356EB067D272}">
	<comment>
		<entry/>
	</comment>
	<sample type="To be analyzed">
		<id>GPSS_Li1p4Fe0p8Ta0p2Cl4_111125_691433ae47a6a0fd7c6576f5</id>
		<name></name>
		<preparedBy></preparedBy>
	</sample>
	<xrdMeasurement measurementType="Scan" status="Completed" sampleMode="Reflection">
		<usedWavelength intended="K-Alpha 1">
			<kAlpha1 unit="Angstrom">1.5405980</kAlpha1>
			<kAlpha2 unit="Angstrom">1.5444260</kAlpha2>
			<kBeta unit="Angstrom">1.3922500</kBeta>
			<ratioKAlpha2KAlpha1>0.5000</ratioKAlpha2KAlpha1>
		</usedWavelength>
		<incidentBeamPath>
			<radius unit="mm">145.00</radius>
			<xRayTube id="1010048" name="Empyrean Cu LFF HR (9430 033 7310x)">
				<tension unit="kV">40.0</tension>
				<current unit="mA">15.0</current>
				<anodeMaterial>Cu</anodeMaterial>
				<focus type="Line">
					<length unit="mm">12.0</length>
					<width unit="mm">0.4</width>
					<takeOffAngle unit="deg">6.0</takeOffAngle>
				</focus>
			</xRayTube>
			<sollerSlit id="21010002" name="Soller slits 0.04 rad.">
				<opening unit="rad">0.0400</opening>
			</sollerSlit>
			<mask id="22031000" name="Fixed mask 13 mm">
				<width unit="mm">9.00</width>
			</mask>
			<divergenceSlit id="22120001" name="Divergence slit 1°" xsi:type="fixedDivergenceSlitType">
				<distanceToSample unit="mm">50.00</distanceToSample>
				<height unit="mm">1.52</height>
			</divergenceSlit>
		</incidentBeamPath>
		<sampleMovement xsi:type="spinningSampleMovementType">
			<spinnerRevolutionTime unit="seconds">1.0</spinnerRevolutionTime>
		</sampleMovement>
		<diffractedBeamPath>
			<radius unit="mm">145.00</radius>
			<antiScatterSlit id="22090040" name="AS slit 9 mm (PIXcel)" xsi:type="fixedAntiScatterSlitType">
				<height unit="mm">9.00</height>
			</antiScatterSlit>
			<sollerSlit id="21020003" name="Large Soller slits 0.04 rad.">
				<opening unit="rad">0.0400</opening>
			</sollerSlit>
			<filter id="20030001" name="Large beta-filter Nickel">
				<material>Ni</material>
				<thickness unit="mm">0.020</thickness>
			</filter>
			<detector id="7010019" name="PIXcel1D-Medipix3 detector" xsi:type="rtmsDetectorType">
				<phd unit="keV">
					<lowerLevel>4.02</lowerLevel>
					<upperLevel>11.27</upperLevel>
				</phd>
				<mode>Scanning</mode>
				<activeLength unit="deg">5.542</activeLength>
			</detector>
		</diffractedBeamPath>
		<scan appendNumber="0" mode="Continuous" scanAxis="Gonio" status="Completed">
			<header>
				<startTimeStamp>2025-11-13T16:33:17-08:00</startTimeStamp>
				<endTimeStamp>2025-11-13T16:41:24-08:00</endTimeStamp>
				<author>
					<name>AutomatedUser</name>
				</author>
				<source>
					<applicationSoftware version="1.7b (136)">PANalytical Aeris Instrument Suite</applicationSoftware>
					<instrumentControlSoftware version="3.2.00000000 20240306">AERIS</instrumentControlSoftware>
					<instrumentID>950485</instrumentID>
				</source>
			</header>
			<dataPoints>
				<positions axis="2Theta" unit="deg">
					<startPosition>10.00943322</startPosition>
					<endPosition>99.99442286</endPosition>
				</positions>
				<positions axis="Omega" unit="deg">
					<startPosition>5.00471661</startPosition>
					<endPosition>49.99721143</endPosition>
				</positions>
				<commonCountingTime unit="seconds">12.495</commonCountingTime>
				<counts unit="counts">3413 3320 3427 3398 3397 3490 3368 3513 3433 3393 3394 3434 3479 3400 3538 3534 3406 3512 3441 3348 3498 3503 3481 3512 3439 3458 3389 3556 3449 3512 3388 3455 3556 3485 3538 3407 3412 3436 3559 3575 3496 3494 3585 3400 3517 3587 3498 3611 3428 3532 3537 3536 3578 3463 3535 3552 3546 3574 3401 3667 3577 3632 3605 3467 3772 3608 3612 3558 3555 3709 3624 3499 3586 3664 3567 3555 3545 3606 3624 3602 3576 3568 3571 3553 3701 3516 3614 3759 3629 3623 3631 3691 3665 3594 3641 3662 3588 3668 3619 3627 3568 3645 3624 3631 3559 3664 3535 3577 3589 3649 3595 3748 3678 3665 3703 3641 3693 3645 3623 3688 3751 3662 3702 3549 3572 3668 3680 3628 3721 3587 3715 3714 3659 3670 3717 3668 3559 3561 3686 3656 3701 3583 3653 3658 3658 3742 3724 3619 3764 3655 3824 3637 3717 3682 3689 3735 3753 3692 3679 3654 3665 3635 3633 3628 3645 3598 3579 3765 3712 3639 3581 3776 3628 3758 3634 3677 3557 3694 3608 3668 3710 3630 3633 3666 3628 3623 3694 3646 3599 3576 3593 3618 3672 3569 3661 3597 3591 3699 3610 3615 3614 3783 3653 3548 3601 3650 3592 3687 3722 3582 3603 3598 3450 3593 3638 3695 3601 3594 3643 3747 3613 3672 3612 3529 3633 3646 3694 3465 3704 3580 3642 3796 3751 3602 3635 3613 3680 3579 3626 3597 3671 3707 3661 3646 3596 3665 3663 3629 3696 3556 3716 3628 3645 3701 3584 3584 3719 3820 3628 3717 3745 3645 3682 3741 3678 3814 3730 3646 3650 3708 3770 3609 3683 3620 3650 3638 3680 3699 3733 3773 3684 3708 3692 3660 3824 3577 3712 3768 3722 3754 3848 3708 3699 3752 3832 3733 3799 3843 3752 3779 3716 3774 3894 3837 3756 3663 3808 3752 3857 3755 3931 3789 3793 3736 3804 3856 3801 3900 3944 3802 4032 3854 3850 3844 3918 3881 3882 3887 3897 3879 3806 3937 4011 3933 3925 3947 3958 3955 3875 3959 3979 3941 4153 4036 3930 3941 3997 4078 3892 4114 4087 4072 4045 4058 4049 4091 4072 4078 4103 4084 4150 4177 4030 4108 4148 4136 4177 4088 4241 4016 4168 4167 4164 4168 4237 4211 4199 4287 4314 4232 4161 4244 4344 4265 4260 4336 4298 4381 4298 4410 4321 4386 4344 4394 4431 4349 4418 4381 4350 4295 4317 4381 4538 4379 4457 4547 4516 4511 4638 4622 4515 4585 4529 4515 4680 4697 4715 4834 4784 4851 4760 5021 5052 5120 5262 5188 5366 5516 5588 5693 5787 5786 5810 6121 6032 6216 6376 6433 6339 6381 6195 6510 6376 6371 6263 6259 6228 6298 6333 6121 6176 5924 5985 6011 5897 5812 5948 5744 5728 5533 5767 5462 5418 5364 5321 5308 5265 5402 5333 5231 5274 5194 5182 5148 4977 5018 5191 4960 4994 5023 4794 4824 4813 4658 4870 4671 4644 4734 4727 4721 4584 4482 4523 4577 4580 4469 4413 4484 4427 4453 4433 4425 4367 4448 4421 4384 4346 4345 4362 4294 4301 4414 4338 4307 4321 4274 4291 4237 4229 4222 4367 4228 4183 4313 4257 4169 4219 4319 4028 4123 4204 4334 4233 4183 4181 4099 4172 4126 4136 4096 4094 4138 4188 4140 4104 4165 4217 4099 4161 4038 4196 4077 4113 4158 4139 4092 4157 4075 4077 4078 4120 4072 4021 4113 4022 4055 4059 4052 4020 4070 4056 3913 4040 4077 4107 4028 4077 4061 4016 3999 4227 4023 4012 3981 3883 4015 4083 3985 3939 3908 4023 4080 3976 3951 3994 3933 3918 3922 4005 3988 3973 4060 3847 3958 3940 4024 3928 3966 4008 3911 3986 3901 3886 3919 4032 3918 3930 4071 3982 3954 4038 3907 3992 3940 3905 4006 3988 3941 3835 3910 3877 3943 3841 3969 4051 4034 3890 3962 3981 3971 3950 3844 3859 3963 3934 4139 3982 4015 3964 3954 4023 4015 3954 4008 3967 4098 3917 3904 3822 4054 3957 4119 3980 4102 4103 3866 4152 3943 4141 4035 4098 4005 3985 3996 4029 3888 3982 3876 3906 3918 3979 3901 3931 3919 3991 3846 4037 3952 3961 4027 3906 4094 3915 3825 3879 3925 3937 3904 3890 3816 3941 3775 4081 3882 3885 3964 3973 3869 3836 3890 3901 3930 3943 3939 3846 3715 3830 3959 3848 3755 3825 3818 3853 4101 3866 3914 3845 3825 3855 3886 3807 3797 4001 3873 3934 3983 3756 3910 3873 3757 3843 3933 3888 4005 3955 3815 3839 3918 3771 3909 3812 3978 3956 3850 3848 3916 3925 3863 3830 3799 3732 3799 3878 3846 3890 3805 3818 3950 3950 3933 3866 3797 3855 3863 3714 3766 3849 3994 3991 3763 3881 3789 3756 3809 3774 3867 3864 3845 3837 3883 3793 3843 3834 3893 3867 3806 3982 3782 3769 3886 3798 3828 3805 3832 3744 3885 3786 3780 3798 3858 3788 3853 3721 3868 3868 3781 3809 3761 3674 3833 3945 3844 3827 3800 3790 3737 3819 3870 3777 3769 3753 3800 3681 3707 3772 3741 3831 3811 3884 3771 3842 3780 3797 3726 3700 3838 3840 3792 3915 3754 3821 3763 3778 3842 3744 3727 3866 3776 3794 3759 3788 3745 3768 3737 3789 3814 3756 3724 3716 3704 3819 3725 3699 3815 3747 3903 3750 3920 3805 3696 3776 3764 3754 3656 3761 3637 3714 3770 3814 3714 3750 3708 3694 3719 3754 3801 3769 3753 3669 3700 3734 3825 3785 3768 3764 3743 3699 3679 3585 3652 3646 3628 3669 3626 3629 3717 3846 3787 3674 3725 3777 3754 3607 3681 3809 3644 3643 3708 3784 3877 3658 3638 3860 3712 3805 3699 3805 3576 3710 3646 3709 3602 3747 3636 3738 3707 3787 3685 3749 3588 3733 3817 3776 3724 3669 3550 3641 3652 3631 3663 3706 3604 3672 3747 3707 3728 3600 3612 3582 3738 3644 3745 3769 3705 3587 3648 3738 3662 3730 3730 3754 3817 3662 3637 3828 3780 3689 3703 3688 3580 3545 3629 3627 3781 3774 3672 3692 3727 3606 3656 3808 3684 3717 3560 3653 3713 3610 3802 3644 3606 3662 3631 3719 3651 3796 3804 3717 3637 3565 3695 3692 3738 3892 3705 3789 3718 3749 3664 3695 3767 3810 3714 3645 3633 3733 3729 3629 3739 3745 3728 3686 3753 3659 3783 3626 3763 3689 3854 3749 3752 3791 3726 3675 3671 3685 3826 3718 3697 3703 3598 3768 3568 3651 3728 3796 3691 3627 3675 3701 3663 3628 3719 3735 3820 3688 3746 3728 3792 3663 3737 3583 3687 3739 3702 3804 3796 3681 3595 3741 3821 3664 3675 3787 3690 3881 3764 3792 3746 3758 3666 3752 3806 3656 3437 3800 3677 3700 3776 3641 3746 3777 3684 3695 3666 3756 3687 3742 3742 3690 3674 3912 3713 3647 3708 3796 3598 3619 3657 3731 3727 3618 3631 3736 3640 3799 3663 3703 3754 3649 3715 3562 3624 3732 3672 3734 3735 3739 3622 3667 3678 3594 3679 3627 3643 3633 3609 3577 3640 3624 3580 3654 3689 3637 3586 3660 3595 3654 3543 3554 3676 3544 3565 3604 3598 3648 3572 3548 3653 3506 3506 3621 3587 3571 3603 3558 3526 3571 3485 3565 3563 3570 3647 3535 3512 3533 3560 3559 3551 3604 3589 3492 3426 3433 3584 3430 3443 3531 3552 3614 3492 3514 3485 3366 3327 3506 3508 3451 3473 3475 3395 3477 3450 3439 3422 3498 3456 3325 3450 3461 3541 3371 3484 3353 3477 3457 3483 3464 3459 3332 3292 3327 3406 3438 3309 3405 3397 3330 3460 3419 3422 3429 3418 3457 3383 3410 3420 3395 3283 3356 3348 3253 3254 3216 3296 3381 3302 3313 3326 3180 3273 3258 3258 3264 3374 3196 3340 3295 3335 3253 3342 3269 3181 3211 3191 3196 3326 3190 3308 3330 3164 3165 3290 3174 3389 3292 3259 3149 3272 3262 3246 3245 3236 3274 3209 3152 3232 3155 3246 3349 3318 3198 3200 3282 3239 3245 3339 3259 3347 3236 3324 3296 3354 3344 3343 3298 3270 3281 3393 3253 3319 3383 3310 3259 3199 3215 3258 3294 3356 3402 3270 3255 3312 3230 3227 3286 3189 3211 3287 3182 3182 3235 3262 3211 3221 3217 3252 3221 3203 3179 3215 3175 3122 3133 3135 3219 3220 3300 3252 3099 3195 3145 3205 3214 3159 3213 3205 3213 3054 3106 3249 3225 3146 3131 3151 3180 3125 3129 3050 3286 3193 3158 3231 3208 3279 3172 3223 3196 3138 3249 3204 3162 3190 3105 3117 3216 3148 3136 3224 3189 3144 3079 3224 3134 3119 3161 3252 3246 3165 3153 3207 3233 3151 3213 3130 3126 3087 3123 3266 3237 3110 3217 3079 3173 3232 3172 3118 3255 3236 3222 3201 3113 3118 3176 3135 3166 3144 3200 3131 3201 3175 3298 3164 3186 3240 3117 3149 3250 3183 3199 3259 3210 3137 3302 3205 3204 3206 3281 3219 3178 3001 3220 3229 3241 3180 3139 3224 3272 3189 3281 3191 3208 3125 3114 3173 3138 3277 3204 3223 3180 3194 3166 3124 3255 3248 3193 3031 3170 3141 3165 3107 3151 3088 3219 3163 3211 3225 3163 3187 3066 3058 3080 3269 3104 3208 3116 3149 3106 3131 3178 3190 3203 3242 3112 3041 3215 3037 3152 3130 3026 3155 3108 3262 3159 3160 3102 3060 3117 3168 3131 3079 3078 3087 3110 3058 3040 3126 3120 3094 3044 3103 3127 3068 3057 3028 3053 3108 3098 3105 3143 2967 3087 3089 3051 3053 3036 3034 3138 3141 3026 3109 3073 2915 2970 3044 3006 3057 2973 2962 2988 2994 3034 3118 2971 2914 3028 2990 2913 2914 3003 3082 2996 2978 2876 3064 3018 2967 2919 2935 2949 2979 2946 3037 3022 2960 2935 2923 2893 2981 2991 2925 2956 2927 2962 3105 2931 2971 2945 3011 2894 2954 2897 2932 2985 2919 2877 2873 2838 2940 3052 2918 2875 2952 2914 2953 2835 2885 2919 2940 2873 2890 2927 2923 2857 2824 2905 2904 2849 2836 2914 2807 2902 2884 2875 2810 2911 2848 2857 2888 2899 2899 3053 2951 2958 2861 2893 2802 2885 2936 2834 2838 2939 2802 2894 2954 2925 2959 2883 2900 2975 2949 2993 2878 2989 2927 3032 2943 3003 2995 3152 3044 3142 3199 3205 3274 3401 3448 3673 3471 3623 3743 3678 3768 3811 3871 3897 3868 3846 3823 3799 3929 3877 3828 3746 3696 3824 3794 3742 3763 3782 3698 3678 3623 3499 3504 3481 3337 3393 3318 3369 3460 3183 3166 3160 3078 3143 3184 3071 3004 3062 3062 3120 3053 2965 3069 3004 2921 2929 2964 3005 3027 2886 2917 2838 3041 2850 2960 2985 2785 2902 2843 2856 2742 2767 2836 2854 2838 2893 2773 2823 2702 2755 2785 2926 2777 2809 2795 2815 2762 2696 2783 2804 2737 2678 2748 2816 2712 2844 2779 2773 2795 2910 2813 2865 2895 2827 2847 2811 2915 2896 2903 2856 2905 2925 2933 2917 3075 2997 3066 3197 3227 3376 3388 3485 3621 3592 3738 3989 4140 4169 4207 4213 4447 4359 4295 4471 4458 4535 4500 4546 4519 4551 4478 4554 4601 4571 4485 4500 4482 4455 4509 4300 4160 4230 4108 4009 3912 3948 3703 3723 3527 3472 3535 3531 3430 3506 3310 3206 3308 3282 3252 3227 3033 2978 3022 2998 2969 2846 2935 2863 2969 2804 2707 2641 2750 2819 2727 2814 2667 2693 2619 2767 2623 2665 2714 2611 2647 2683 2739 2559 2618 2558 2632 2591 2571 2595 2601 2725 2658 2570 2659 2591 2586 2582 2631 2643 2654 2572 2586 2565 2612 2617 2629 2580 2577 2604 2578 2622 2637 2636 2596 2632 2555 2537 2554 2521 2576 2575 2541 2579 2553 2642 2548 2673 2575 2625 2648 2610 2601 2449 2548 2584 2456 2504 2515 2548 2540 2530 2657 2569 2607 2558 2445 2548 2596 2586 2546 2567 2643 2556 2453 2526 2606 2556 2446 2528 2550 2565 2588 2551 2555 2471 2557 2443 2475 2523 2554 2518 2572 2602 2503 2541 2526 2560 2539 2580 2635 2591 2443 2533 2560 2563 2493 2598 2515 2630 2603 2583 2538 2507 2551 2528 2515 2419 2576 2589 2517 2591 2626 2580 2548 2489 2523 2507 2517 2556 2491 2471 2431 2494 2557 2417 2480 2423 2491 2500 2475 2564 2489 2485 2505 2470 2521 2366 2431 2522 2460 2510 2530 2472 2548 2615 2478 2469 2484 2420 2432 2519 2420 2488 2435 2425 2404 2481 2471 2464 2482 2510 2494 2512 2517 2556 2480 2477 2482 2470 2485 2474 2504 2501 2577 2467 2456 2499 2456 2396 2463 2546 2452 2486 2470 2502 2409 2471 2474 2474 2545 2484 2470 2465 2468 2542 2432 2519 2513 2551 2466 2523 2439 2498 2439 2482 2351 2426 2514 2486 2465 2529 2576 2485 2444 2496 2540 2525 2486 2441 2423 2503 2535 2482 2486 2535 2519 2487 2432 2552 2411 2402 2443 2583 2390 2421 2423 2584 2469 2468 2581 2453 2415 2470 2570 2482 2394 2431 2500 2577 2404 2462 2404 2480 2520 2547 2575 2361 2500 2418 2476 2501 2523 2493 2457 2430 2403 2463 2494 2539 2518 2441 2548 2570 2619 2530 2517 2459 2548 2513 2529 2476 2529 2474 2610 2535 2475 2497 2584 2449 2531 2546 2537 2580 2399 2602 2535 2516 2526 2486 2545 2651 2610 2506 2610 2594 2524 2558 2580 2621 2554 2550 2596 2575 2568 2586 2607 2664 2624 2589 2614 2686 2657 2627 2671 2674 2727 2629 2656 2741 2705 2802 2801 2732 2872 2840 2840 2921 2943 3007 3040 2987 3076 3270 3219 3363 3398 3782 3770 4008 4150 4467 4674 5062 5306 5784 6069 6186 6715 7210 7353 7647 7950 8227 8385 8579 8689 8777 8865 8762 8883 8973 8964 8966 8951 8882 8620 8593 8467 8365 8060 7921 7720 7661 7357 7065 6865 6567 6369 6272 6062 5862 5675 5565 5440 5410 5291 5134 5054 4935 4871 4743 4732 4570 4407 4269 4190 4085 4005 3840 3812 3545 3509 3343 3302 3249 3149 3108 2989 3017 2971 3096 2943 2787 3000 2707 2840 2871 2788 2797 2725 2801 2749 2712 2727 2640 2614 2727 2680 2771 2583 2698 2584 2655 2556 2627 2614 2494 2467 2521 2671 2577 2551 2627 2534 2523 2592 2530 2474 2540 2466 2475 2637 2495 2570 2485 2524 2478 2527 2511 2540 2436 2523 2479 2491 2523 2488 2475 2429 2529 2404 2377 2457 2478 2482 2487 2576 2518 2517 2467 2515 2533 2501 2541 2429 2464 2508 2424 2501 2411 2428 2412 2371 2451 2453 2417 2470 2506 2503 2446 2359 2437 2336 2410 2449 2398 2451 2422 2465 2389 2453 2478 2416 2464 2512 2490 2440 2466 2408 2470 2393 2453 2378 2504 2485 2426 2443 2411 2391 2394 2452 2379 2479 2462 2374 2409 2359 2474 2369 2532 2396 2398 2394 2360 2479 2365 2339 2345 2420 2557 2409 2385 2377 2411 2446 2384 2525 2394 2314 2472 2422 2403 2380 2332 2374 2356 2463 2530 2415 2398 2412 2507 2374 2334 2395 2453 2324 2401 2405 2459 2360 2448 2498 2381 2374 2436 2356 2484 2466 2428 2268 2387 2444 2361 2374 2355 2424 2328 2404 2443 2326 2461 2461 2430 2424 2386 2409 2374 2398 2414 2393 2483 2327 2489 2406 2270 2394 2366 2425 2417 2343 2430 2350 2444 2347 2363 2402 2335 2496 2392 2420 2350 2343 2445 2364 2396 2388 2395 2414 2473 2415 2361 2365 2397 2401 2416 2328 2369 2416 2416 2409 2443 2449 2426 2461 2362 2520 2502 2428 2522 2458 2494 2547 2504 2471 2465 2544 2485 2354 2416 2530 2380 2403 2281 2516 2492 2422 2404 2498 2380 2383 2443 2277 2383 2450 2398 2318 2375 2365 2434 2322 2382 2375 2391 2405 2424 2291 2356 2410 2358 2516 2317 2326 2401 2303 2336 2317 2394 2403 2288 2435 2361 2352 2295 2323 2337 2302 2364 2342 2410 2291 2360 2320 2327 2373 2342 2281 2371 2295 2309 2387 2348 2379 2412 2400 2230 2341 2308 2365 2359 2372 2356 2348 2445 2432 2298 2309 2365 2316 2250 2188 2314 2298 2278 2361 2267 2359 2350 2360 2289 2355 2331 2521 2415 2230 2347 2319 2419 2351 2306 2270 2411 2275 2403 2375 2379 2262 2283 2415 2407 2381 2333 2351 2376 2262 2325 2266 2333 2241 2313 2310 2359 2339 2230 2364 2382 2304 2353 2306 2296 2271 2294 2345 2325 2356 2340 2314 2257 2345 2366 2271 2291 2320 2324 2296 2307 2318 2204 2225 2250 2279 2244 2301 2335 2322 2274 2278 2337 2297 2281 2356 2247 2268 2236 2282 2311 2233 2285 2276 2311 2336 2280 2358 2303 2321 2252 2290 2214 2319 2205 2170 2244 2427 2261 2251 2334 2243 2213 2237 2208 2257 2322 2343 2256 2262 2297 2230 2312 2324 2241 2297 2179 2336 2311 2241 2379 2275 2223 2329 2217 2370 2261 2265 2281 2366 2211 2286 2339 2255 2141 2337 2316 2258 2252 2225 2254 2350 2187 2261 2167 2224 2215 2133 2320 2189 2256 2188 2306 2243 2180 2343 2271 2273 2328 2297 2238 2161 2274 2205 2261 2268 2251 2224 2192 2222 2305 2184 2317 2240 2282 2258 2332 2254 2310 2212 2312 2224 2287 2329 2293 2299 2255 2238 2217 2245 2299 2269 2298 2252 2105 2268 2285 2245 2189 2204 2265 2219 2267 2253 2272 2257 2219 2198 2170 2268 2245 2251 2268 2269 2224 2217 2229 2236 2262 2272 2273 2293 2294 2310 2236 2261 2225 2219 2249 2231 2159 2245 2242 2234 2274 2225 2341 2160 2242 2180 2256 2280 2274 2240 2295 2216 2178 2270 2241 2297 2282 2323 2292 2226 2278 2177 2223 2183 2157 2231 2223 2321 2218 2275 2248 2211 2225 2254 2263 2220 2204 2304 2228 2238 2272 2289 2210 2264 2258 2284 2268 2170 2336 2222 2223 2277 2237 2199 2187 2246 2154 2274 2264 2332 2162 2196 2248 2209 2175 2197 2157 2189 2281 2174 2182 2206 2279 2207 2206 2258 2200 2175 2212 2289 2268 2193 2201 2280 2252 2209 2315 2291 2170 2240 2239 2210 2326 2326 2203 2246 2213 2139 2208 2270 2218 2153 2267 2199 2290 2209 2302 2262 2172 2179 2256 2230 2171 2193 2296 2292 2226 2316 2294 2161 2145 2216 2289 2181 2212 2209 2268 2224 2290 2336 2311 2287 2219 2168 2194 2223 2249 2253 2259 2260 2228 2263 2267 2213 2296 2344 2290 2271 2271 2187 2212 2250 2250 2239 2298 2221 2211 2295 2269 2168 2242 2308 2190 2139 2257 2210 2212 2197 2348 2249 2261 2281 2130 2218 2318 2295 2151 2194 2134 2272 2304 2242 2206 2214 2333 2242 2177 2179 2165 2175 2350 2162 2253 2179 2189 2248 2203 2222 2199 2231 2163 2224 2211 2201 2270 2277 2256 2244 2058 2207 2188 2257 2217 2221 2232 2220 2186 2286 2267 2162 2229 2263 2097 2237 2169 2180 2164 2326 2250 2171 2221 2228 2185 2211 2212 2231 2173 2276 2279 2202 2257 2184 2245 2210 2190 2179 2253 2363 2292 2220 2202 2216 2172 2261 2312 2264 2164 2246 2182 2178 2126 2271 2106 2222 2227 2218 2205 2236 2222 2230 2264 2225 2234 2216 2262 2204 2207 2233 2125 2209 2083 2339 2252 2281 2210 2173 2241 2202 2244 2171 2229 2176 2290 2197 2202 2264 2246 2185 2280 2292 2245 2273 2197 2215 2259 2266 2177 2240 2199 2279 2304 2279 2327 2147 2206 2210 2221 2194 2244 2312 2328 2199 2274 2182 2277 2255 2288 2202 2292 2257 2162 2236 2219 2326 2343 2181 2282 2240 2299 2249 2274 2372 2379 2365 2403 2300 2421 2393 2373 2453 2428 2447 2624 2628 2585 2591 2611 2781 2769 2738 2814 2849 2844 2893 2927 2937 3011 2914 2932 2951 2825 2943 2978 2940 2849 2883 2889 2850 2844 2805 2840 2731 2700 2680 2699 2640 2729 2472 2545 2651 2610 2564 2475 2564 2505 2486 2450 2424 2481 2351 2432 2321 2433 2422 2287 2282 2413 2321 2422 2468 2348 2333 2408 2325 2366 2225 2340 2255 2326 2171 2348 2265 2334 2235 2208 2274 2221 2318 2223 2295 2244 2295 2268 2247 2164 2193 2214 2204 2159 2232 2271 2259 2228 2199 2189 2320 2240 2211 2224 2187 2208 2240 2255 2160 2145 2227 2225 2223 2250 2122 2160 2258 2353 2201 2295 2233 2177 2157 2343 2209 2256 2240 2243 2276 2172 2247 2294 2214 2241 2252 2248 2287 2193 2272 2240 2202 2229 2217 2211 2238 2280 2156 2308 2214 2286 2140 2247 2237 2270 2239 2324 2239 2243 2250 2216 2196 2223 2246 2180 2228 2188 2189 2194 2214 2194 2222 2239 2238 2232 2170 2167 2230 2222 2228 2181 2246 2212 2214 2309 2175 2210 2180 2204 2171 2231 2217 2166 2175 2198 2287 2159 2244 2227 2181 2202 2202 2255 2199 2321 2237 2167 2211 2201 2215 2078 2206 2200 2150 2196 2316 2200 2245 2253 2233 2240 2209 2169 2181 2227 2253 2165 2130 2205 2211 2202 2203 2187 2210 2225 2227 2268 2208 2204 2248 2237 2284 2253 2183 2233 2209 2228 2316 2229 2186 2244 2208 2221 2252 2203 2233 2130 2167 2230 2219 2344 2191 2160 2225 2247 2267 2308 2221 2259 2260 2247 2169 2255 2211 2212 2198 2293 2199 2267 2239 2097 2278 2233 2182 2267 2247 2278 2222 2228 2242 2216 2322 2175 2226 2215 2302 2267 2200 2182 2154 2202 2269 2261 2245 2183 2199 2143 2228 2281 2218 2250 2272 2264 2214 2245 2205 2218 2289 2200 2234 2178 2201 2217 2287 2305 2310 2240 2301 2247 2141 2162 2280 2250 2269 2244 2156 2185 2205 2143 2290 2189 2297 2254 2347 2282 2251 2265 2314 2318 2310 2263 2244 2283 2158 2304 2238 2246 2242 2341 2269 2306 2210 2294 2363 2252 2318 2334 2392 2369 2309 2335 2365 2285 2369 2323 2326 2340 2364 2416 2386 2317 2348 2405 2417 2465 2499 2485 2475 2484 2497 2549 2533 2600 2737 2758 2802 2852 2936 3139 3197 3317 3373 3605 3709 3983 4146 4190 4193 4507 4635 4749 4756 4975 4916 5139 5204 5469 5483 5528 5541 5542 5488 5459 5449 5446 5138 5277 5231 4909 4913 4698 4667 4536 4382 4484 4179 4136 3982 3960 3965 3758 3711 3521 3578 3538 3469 3419 3248 3299 3243 3291 3148 3148 3068 2951 3105 3108 3019 2990 3047 2918 2864 2918 2737 2790 2842 2764 2718 2680 2637 2685 2611 2707 2525 2465 2611 2530 2570 2410 2485 2482 2435 2556 2458 2511 2489 2410 2431 2467 2481 2335 2489 2465 2555 2464 2438 2485 2471 2426 2501 2440 2485 2574 2489 2498 2451 2547 2504 2544 2555 2528 2477 2401 2448 2451 2414 2454 2423 2342 2394 2411 2429 2375 2360 2428 2356 2345 2445 2306 2266 2267 2249 2266 2295 2272 2251 2310 2289 2367 2311 2296 2301 2215 2273 2220 2181 2205 2169 2204 2254 2239 2253 2247 2290 2212 2171 2265 2147 2210 2248 2196 2195 2296 2193 2244 2168 2239 2291 2244 2275 2188 2169 2166 2154 2210 2204 2125 2292 2224 2181 2191 2296 2296 2251 2235 2251 2218 2179 2194 2206 2249 2221 2270 2199 2234 2223 2272 2186 2241 2187 2190 2241 2172 2205 2146 2195 2247 2201 2323 2210 2277 2285 2261 2205 2208 2259 2247 2264 2280 2245 2301 2247 2290 2402 2402 2273 2408 2448 2432 2426 2327 2458 2437 2401 2532 2576 2475 2528 2566 2583 2582 2537 2563 2602 2649 2545 2621 2617 2465 2656 2592 2562 2486 2588 2520 2527 2517 2525 2420 2513 2407 2361 2484 2420 2370 2320 2416 2370 2350 2376 2321 2340 2345 2337 2281 2291 2255 2266 2239 2305 2268 2266 2293 2329 2362 2311 2328 2241 2360 2329 2326 2266 2293 2268 2287 2322 2340 2182 2275 2217 2231 2321 2265 2241 2226 2124 2266 2334 2240 2229 2230 2214 2234 2265 2217 2303 2260 2248 2244 2237 2232 2183 2282 2295 2294 2255 2258 2229 2264 2226 2294 2250 2336 2234 2241 2222 2283 2302 2185 2274 2336 2233 2259 2280 2291 2258 2252 2282 2201 2335 2264 2326 2184 2268 2159 2231 2173 2158 2253 2223 2342 2259 2205 2255 2274 2170 2178 2167 2121 2251 2196 2206 2135 2191 2208 2211 2161 2229 2214 2167 2272 2151 2152 2234 2127 2150 2116 2200 2202 2186 2136 2160 2142 2129 2240 2270 2199 2151 2158 2176 2158 2228 2128 2112 2148 2102 2085 2142 2168 2268 2156 2198 2184 2184 2190 2252 2167 2219 2145 2196 2250 2172 2198 2113 2150 2223 2278 2170 2246 2179 2178 2218 2245 2241 2137 2226 2148 2132 2156 2190 2159 2181 2166 2077 2179 2134 2183 2256 2169 2146 2036 2151 2155 2098 2314 2223 2160 2216 2197 2171 2119 2194 2068 2127 2202 2120 2203 2112 2108 2169 2122 2097 2179 2167 2193 2207 2261 2169 2189 2226 2164 2156 2090 2080 2233 2238 2192 2129 2117 2211 2151 2157 2168 2209 2129 2207 2132 2124 2204 2271 2089 2233 2092 2090 2193 2167 2129 2209 2249 2170 2131 2246 2186 2202 2191 2244 2225 2163 2141 2151 2202 2244 2186 2152 2159 2142 2174 2145 2134 2163 2165 2193 2145 2181 2115 2156 2199 2264 2085 2170 2163 2116 2162 2162 2279 2176 2175 2173 2166 2164 2217 2150 2105 2173 2124 2116 2144 2160 2173 2136 2112 2172 2154 2145 2156 2149 2131 2161 2164 2175 2144 2236 2198 2143 2175 2154 2119 2253 2213 2087 2151 2229 2189 2174 2123 2122 2176 2187 2157 2134 2211 2115 2060 2130 2188 2156 2168 2115 2214 2146 2169 2174 2125 2138 2116 2181 2135 2120 2152 2148 2157 2188 2090 2173 2235 2126 2150 2205 2197 2147 2142 2206 2101 2229 2153 2100 2096 2172 2128 2161 2179 2183 2233 2121 2219 2165 2106 2156 2139 2163 2133 2178 2213 2210 2134 2237 2208 2221 2212 2194 2151 2108 2166 2264 2065 2285 2164 2168 2102 2162 2152 2205 2049 2174 2238 2245 2148 2206 2139 2070 2122 2156 2152 2225 2137 2120 2220 2096 2120 2126 2148 2159 2176 2228 2238 2073 2168 2211 2205 2166 2154 2175 2060 2170 2158 2257 2181 2127 2145 2087 2119 2087 2162 2092 2155 2050 2150 2201 2198 2167 2173 2170 2149 2154 2080 2133 2187 2153 2177 2159 2208 2152 2126 2174 2256 2119 2191 2085 2172 2014 2218 2161 2174 2154 2177 2187 2198 2138 2101 2166 2147 2184 2147 2114 2146 2171 2123 2160 2170 2193 2107 2154 2104 2159 2195 2210 2175 2128 2147 2097 2160 2056 2092 2091 2080 2154 2066 2275 2187 2236 2129 2102 2139 2093 2240 2108 2077 2190 2112 2167 2121 2070 2069 2124 2168 2089 2227 2180 2095 2033 2227 2181 2188 2187 2225 2254 2111 2241 2206 2231 2148 2203 2211 2203 2152 2228 2233 2235 2304 2240 2235 2216 2173 2187 2252 2270 2269 2154 2216 2210 2167 2179 2255 2262 2249 2156 2229 2124 2198 2131 2193 2093 2211 2226 2217 2208 2167 2188 2113 2182 2079 2180 2105 2190 2185 2177 2248 2131 2119 2218 2195 2151 2195 2299 2253 2271 2213 2292 2319 2263 2296 2286 2316 2349 2300 2349 2284 2441 2412 2368 2399 2405 2399 2520 2484 2470 2495 2431 2460 2460 2490 2455 2459 2465 2407 2536 2504 2506 2428 2386 2381 2443 2355 2478 2306 2336 2362 2352 2359 2387 2355 2356 2270 2279 2235 2290 2385 2368 2235 2382 2321 2274 2228 2314 2259 2246 2374 2225 2256 2326 2306 2317 2314 2346 2257 2284 2335 2209 2332 2311 2234 2249 2210 2275 2259 2261 2282 2283 2212 2242 2225 2095 2134 2230 2193 2193 2336 2202 2200 2144 2145 2190 2089 2202 2112 2169 2053 2140 2120 2187 2161 2135 2132 2147 2119 2091 2179 2115 2148 2069 2133 2126 2078 2123 2178 2146 2156 2146 2117 2177 2179 2164 2225 2094 2068 2036 2205 2069 2138 2103 2075 2215 2143 2127 2245 2030 2153 2090 2171 2180 2021 2099 2122 2058 2094 2101 2137 2119 2156 2126 2146 2086 2157 2189 2093 2122 2093 2029 2034 2186 2127 2187 2099 2223 2095 2096 2112 2118 2211 2221 2191 2105 2176 2066 2107 2207 2041 2148 2121 2146 2113 2038 2124 2079 2027 2171 2137 2202 2083 2161 2108 2017 2112 2147 2097 2223 2142 2091 2112 2171 2174 2191 2188 2167 2193 2048 2119 2122 2152 2206 2149 2136 2095 2119 2077 2098 2084 2123 2071 2118 2114 2161 2117 2156 2094 2124 2078 2120 2122 2160 2094 2154 2099 2129 2193 2104 2128 2231 2200 2134 2135 2165 2090 2182 2176 2177 2185 2207 2103 2154 2193 2187 2197 2153 2161 2139 2164 2172 2167 2224 2253 2246 2306 2243 2298 2351 2317 2371 2382 2556 2509 2654 2590 2531 2624 2577 2807 2670 2759 2784 2835 2731 2833 2874 2928 2925 3030 2986 2946 2979 2875 3001 2943 2910 2828 2784 2739 2786 2724 2747 2703 2752 2675 2605 2688 2520 2595 2618 2492 2499 2467 2397 2477 2407 2467 2367 2327 2349 2293 2268 2337 2300 2252 2283 2321 2279 2295 2275 2264 2324 2235 2189 2275 2336 2309 2194 2298 2293 2271 2255 2284 2268 2310 2165 2171 2256 2236 2174 2190 2188 2132 2207 2221 2197 2175 2241 2080 2212 2263 2191 2148 2132 2126 2238 2219 2166 2083 2082 2170 2210 2155 2159 2092 2082 2216 2110 2079 2076 2133 2201 2132 2148 2257 2071 2129 2108 2165 2157 2160 2152 2194 2118 2198 2195 2088 2164 2109 2111 2088 2134 2062 2178 2119 2136 2072 2187 2157 2156 2136 2099 2130 2194 2113 2122 2137 2128 2144 2104 2099 2136 2132 2147 2178 2102 2026 2096 2118 2147 2031 2157 2174 2173 2099 2227 2154 2151 2182 2128 2145 2130 2141 2080 2274 2029 2198 2142 2157 2130 2233 2092 2144 2160 2209 2147 2187 2165 2084 2198 2242 2207 2189 2192 2210 2224 2175 2187 2108 2227 2251 2234 2253 2255 2255 2265 2416 2307 2262 2244 2356 2281 2332 2337 2310 2435 2369 2362 2335 2324 2354 2236 2324 2296 2355 2216 2295 2285 2261 2225 2219 2197 2201 2258 2231 2309 2227 2170 2213 2147 2253 2190 2182 2220 2190 2053 2130 2202 2206 2206 2149 2204 2171 2145 2077 2077 2148 2109 2172 2088 2223 2139 2104 2088 2145 2207 2085 2145 2108 2114 2132 2131 2131 2126 2161 2046 2230 2048 2159 2164 2209 2105 2084 2126 2066 2136 2129 2085 2101 2135 2095 2095 2107 2049 2032 2134 2046 2053 2150 2075 2056 2150 2055 2058 2074 2125 2060 2063 2109 2141 2085 2115 2058 2161 2053 2199 2124 2078 2045 2094 2039 2109 2073 2099 2135 2103 2070 2137 2049 2161 2126 2135 2043 2038 2067 2098 1996 2054 2104 2041 2089 2130 2107 2155 2046 2114 2087 2050 2197 2161 2051 2136 2090 2159 2123 2061 2085 2128 1979 2159 2099 2104 2168 2021 2180 2054 2041 2023 2059 2055 2028 2135 2080 2121 2137 2043 2124 2077 2181 2117 2072 2092 2061 2091 2061 2110 2067 2039 2026 2122 2069 2041 2071 2098 2081 2117 2163 2031 2054 2111 2036 2078 2094 2069 2045 1998 2147 2046 2130 2057 1964 2080 1998 2057 2072 2064 2097 2031 2048 2062 2105 2121 2022 2157 2077 2101 2060 2121 2105 2120 2142 2097 2081 2113 2186 2039 2031 2043 2060 2090 2041 2145 2074 2044 2148 2060 2025 2063 2096 2103 2079 2040 2085 2044 2109 2044 2040 2094 2105 2192 2139 2085 2131 2124 2098 2108 2001 2079 2017 2185 2102 2026 2071 2111 2132 2064 2045 2032 2043 2007 2093 2106 2169 2019 2109 2018 2061 2093 2086 2056 2032 2128 2076 2041 2065 2029 2103 2043 2126 2055 2066 2032 2076 2097 2059 2029 2052 2064 1986 2091 2031 2116 2088 2109 2113 2028 2085 2054 2007 2014 2019 2094 2063 2106 2111 2121 2057 2085 2064 2110 1993 2103 2171 2081 2079 2040 2042 2041 2062 2063 2111 2066 2065 2066 1980 2074 2097 1967 2143 2119 2077 2033 2078 2100 2101 2061 2080 2088 2074 2049 2082 2119 2133 2071 2009 2107 2027 2116 1999 2095 2131 2105 2084 2134 2109 2186 2109 2122 2088 2066 2170 2045 2083 2059 2121 2066 2068 2159 2111 2121 2146 2091 2053 2044 2111 2089 2133 2170 2040 2111 2089 2091 2024 2056 2126 2025 2025 2110 2028 2034 2095 2051 2030 2160 2084 2074 1977 2067 2167 1950 2138 2063 2084 1978 2090 2023 2048 2062 2033 2016 2130 2016 2031 1984 2082 2100 2060 2096 2100 2099 2108 2077 2078 2102 2067 2086 2121 2074 2126 2145 2012 2005 1966 2082 2056 2051 2058 2081 2124 2126 2141 2031 2057 2101 2062 1972 2131 1982 2006 2053 2054 2057 2098 2076 2086 2093 2178 2060 2010 1947 2015 2013 2071 2140 2174 2118 2057 2124 2090 2163 2067 2079 1996 2045 2098 2101 2086 2060 2119 2165 2128 2120 2141 2152 2109 2102 2094 2136 2229 2161 2146 2110 2086 2220 2218 2202 2185 2212 2191 2209 2214 2087 2198 2182 2205 2202 2258 2175 2156 2083 2105 2217 2149 2187 2228 2102 2164 2199 2223 2122 2133 2153 2092 2157 2157 2077 2104 2076 2116 2182 2084 2163 2121 2163 2192 2130 2098 2116 2170 2120 2049 2183 2127 2105 2063 2063 2125 2040 1955 2124 2127 2141 2050 2179 2051 2102 2090 2144 2152 2040 2144 2120 2167 2077 2023 2051 2070 2061 2105 2123 2055 2059 2101 2054 2101 2108 2090 1981 2096 2043 2031 2005 2156 2063 2112 2051 1999 2013 1998 2074 2035 2059 2048 2057 2058 2084 2047 2118 2108 2046 2080 2015 2159 2029 2081 1997 2051 2072 2046 2017 2054 1999 2074 2034 2055 2010 1997 2137 2094 2089 2099 2089 1971 2051 2102 2127 2109 2061 2115 2087 2064 2024 2040 2095 2042 2052 2023 2058 2160 2032 2069 2106 2120 2133 2011 2048 2154 2001 2098 2090 2084 2189 2090 2093 2031 2069 2036 2005 2128 2043 2149 2039 2008 2105 2118 2026 2006 2132 2056 2077 1977 2106 2059 2048 2086 2029 2106 2145 2109 2070 1997 2050 2092 2174 2025 2054 2144 2140 2077 2026 2061 2086 2069 2140 2042 2012 2126 2016 2119 2110 2095 2040 2124 2098 2060 2101 2079 2159 2021 2025 2035 2055 2047 1964 2028 2093 1991 2073 2081 2041 2098 2106 2064 2124 2073 2027 2035 2031 2085 2103 2049 2126 1975 2079 2077 2009 2079 2071 2142 2011 2068 2050 2070 2036 2041 2094 2067 2080 2070 2123 2063 2113 2005 2042 1981 2091 2112 2012 2043 2124 2098 2064 2093 2039 2070 2108 2080 2056 2067 2084 2138 2197 2125 2152 2087 2187 2077 2034 2126 2118 2164 2131 2157 2201 2172 2154 2218 2254 2124 2268 2133 2338 2232 2212 2328 2353 2346 2289 2276 2370 2380 2288 2360 2374 2379 2382 2391 2375 2360 2344 2362 2350 2331 2383 2453 2349 2385 2212 2433 2335 2353 2292 2301 2314 2270 2311 2290 2191 2252 2171 2231 2219 2245 2222 2253 2162 2110 2243 2235 2128 2197 2268 2117 2161 2134 2253 2176 2132 2101 2190 2161 2143 2188 2143 2220 2087 2204 2054 2197 2097 2130 2121 2178 2129 2239 2063 2212 2098 2197 2152 2149 2147 2166 2265 2233 2120 2180 2147 2066 2126 2122 2049 2215 2127 2068 2151 2154 2247 2141 2121 2055 2102 2211 2085 2060 2104 2180 2110 2161 2100 2074 2097 2111 2013 2121 2216 2134 2027 2000 2051 2060 2134 2082 2004 2104 2098 2089 2031 2114 2089 2103 2112 2085 2064 2032 2072 2107 2069 2090 2136 2083 2007 2034 2024 2069 2006 2055 2024 2063 2022 2006 2098 2121 2015 2028 2073 2040 2050 2073 1961 2102 2019 2043 2095 1990 2132 2085 2060 2104 2082 1979 2093 1997 2062 2069 2108 2023 2019 2041 2055 2001 2054 2051 2055 1996 2052 2045 2060 1986 2127 2009 2150 2014 2077 2000 2147 2024 2118 2014 2020 2038 2091 2019 2168 2172 2046 2020 2034 2047 2002 2082 2122 2039 2135 2090 2096 2040 2077 2102 2115 2074 2083 1998 2085 2021 1991 2030 2091 1935 2101 2089 2043 2105 2131 2001 2099 2022 2173 2041 2080 2015 2074 2087 2032 2043 2012 2100 2090 2072 2041 2093 2058 2090 1999 2085 2034 2101 2056 2029 2000 2039 1957 2069 2106 2148 2090 2090 2141 2129 2079 2089 2065 1960 2060 2061 2140 2144 2099 2116 2084 2068 2091 2136 1999 2080 2069 2033 2028 2015 2036 2036 2118 2073 2131 2104 2012 2083 2139 2039 2059 2022 2046 2142 2024 2073 2106 2093 1989 2154 2100 1992 2050 2085 2085 2023 2077 2022 2085 1999 2150 2048 1995 2065 2057 2127 2101 2033 2036 2043 2105 1995 2086 2098 2116 2106 2112 2021 2160 1961 2047 2091 2056 2038 2045 1983 2010 2034 2095 2125 1998 2018 2105 2106 2135 1989 2047 2128 2070 2065 2089 2053 2088 2009 2118 2110 2080 1996 2084 2033 2034 2115 2000 2036 2056 2182 2143 2030 2013 2066 2029 2092 2146 1965 2043 2014 2021 2078 2012 2060 2031 2063 2090 2133 2040 2078 2094 2047 2032 2114 2090 2177 2028 2007 2043 2022 2014 2068 2036 2024 2054 2051 2037 2034 2089 2060 2089 2000 1997 2113 2059 2061 2054 2082 2092 2162 2125 2057 2055 2080 2058 1989 2087 2059 2029 2060 2057 2053 2050 2034 2082 2026 2020 2079 2103 2085 2041 2166 1993 2039 1998 1982 2132 2055 2066 2086 2107 2108 2093 2092 2057 2030 2118 2108 2158 2030 2048 2149 2101 2074 2093 2065 2073 2033 1985 2128 2118 2054 2075 2041 2006 2018 2104 2113 2087 2082 2077 2096 2033 2116 2117 2093 2088 2100 2091 1980 1967 2001 2032 2081 2176 2051 2096 2073 2044 2029 2109 2049 2071 2186 2081 2166 2008 2035 2109 1984 2082 2119 2098 2184 2029 2011 2045 2025 2068 2053 2074 2154 1952 2062 2061 2018 2096 2092 2102 2015 2071 1994 2134 1988 1986 2054 2032 2070 2054 2046 2042 2057 2073 2111 2056 2014 2025 2112 2056 1962 2055 2079 2079 2019 2049 2072 2097 2112 2081 2123 1977 2038 2149 2081 2004 2048 2092 2088 2064 2016 2048 2033 2086 2085 2108 2063 1977 2084 2041 1996 2049 2049 2060 2069 1994 2054 2134 2135 2100 2147 2148 2108 2080 2066 2082 2107 2047 2101 2094 2109 2055 2048 2071 2036 2074 2153 2079 2064 2061 2077 2082 2064 1998 2091 2097 2064 2040 2080 2147 2075 2078 2102 2059 2076 2044 2042 2058 2095 2105 2021 2095 2127 2078 2072 2165 2062 2077 2100 2115 2076 2092 2102 2179 2078 2046 2100 2068 2093 2069 2202 2174 2049 2066 2047 2078 2102 2189 2216 2110 2143 2149 2127 2155 2153 2114 2120 2082 2152 2221 2113 2195 2118 2274 2126 2171 2141 2176 2177 2147 2173 2107 2167 2169 2163 2159 2189 2102 2225 2179 2179 2086 2205 2098 2155 2063 2164 2114 2181 2041 2194 2183 2118 2050 2112 2104 2057 2178 2157 2233 2060 2171 2193 2081 2183 2159 2160 2187 2061 2100 2162 2197 2214 2158 2167 2190 2203 2186 2131 2167 2107 2193 2122 2207 2176 2105 2187 2223 2251 2137 2090 2113 2242 2156 2285 2179 2128 2140 2125 2191 2175 2154 2073 2185 2070 2097 2132 2105 2050 2131 2119 2103 2105 2016 2133 2124 2143 2117 2117 2073 2096 2160 2156 2157 2103 2090 2117 2088 2096 2069 2083 2119 2200 2148 2111 2079 2080 2077 2182 2101 2134 2099 2030 2191 2122 2083 2085 2121 2169 2171 2181 2085 2144 2118 2142 2102 2187 2163 2130 2089 2112 2060 2169 2094 2073 2119 2151 2121 2131 2187 2124 2131 2143 2044 2134 2146 2156 2162 2061 2055 2147 2132 2055 2106 2078 2120 2135 2090 2194 2115 2124 2101 2067 2155 2087 2033 2084 2077 2014 2039 2078 2042 2172 2033 2044 2150 2085 2073 2061 2134 2101 2025 2128 2105 2085 2061 2036 2162 2097 2075 2060 2105 2168 2064 2116 2100 2132 2127 2070 2072 2073 2097 2155 2072 1991 2204 2024 2132 2119 2149 2184 2020 2080 2074 2064 2055 2082 2104 2109 2124 2185 2147 2139 2142 2049 2072 2130 2080 2184 2081 2105 2136 2065 2179 2080 2108 2177 2078 2134 2185 2153 2158 2164 2129 2172 2151 2146 2197 2232 2171 2116 2245 2197 2184 2187 2148 2161 2236 2242 2181 2293 2299 2279 2357 2332 2422 2315 2396 2400 2405 2501 2511 2507 2474 2562 2541 2713 2613 2560 2657 2696 2814 2746 2737 2638 2662 2755 2625 2663 2600 2603 2676 2626 2642 2635 2648 2598 2561 2510 2665 2574 2558 2523 2499 2526 2513 2613 2486 2519 2402 2474 2494 2429 2389 2403 2494 2420 2303 2358 2338 2328 2289 2250 2306 2298 2217 2306 2259 2214 2142 2210 2199 2234 2275 2210 2223 2225 2221 2242 2290 2172 2122 2298 2208 2275 2283 2204 2192 2204 2176 2146 2267 2176 2201 2238 2184 2289 2180 2233 2187 2206 2209 2222 2196 2205 2252 2146 2218 2208 2178 2189 2238 2108 2207 2221 2115 2207 2184 2207 2193 2199 2143 2142 2131 2197 2244 2173 2235 2225 2204 2153 2094 2165 2059 2152 2113 2186 2139 2182 2128 2107 2120 2104 2119 2179 2175 2189 2074 2106 2108 2113 2085 2068 2031 2100 2052 2123 2096 2153 2040 2040 2148 2102 2075 2075 2176 2167 2133 2141 2221 2113 2048 2064 2159 2108 2093 2180 2135 2142 2095 2156 2188 2114 2120 2122 2103 2130 2112 2181 2098 2112 2131 2183 2126 2189 2124 2108 2144 2106 2271 2105 2204 2100 2113 2127 2177 2187 2162 2195 2226 2179 2224 2113 2137 2134 2213 2233 2206 2161 2124 2153 2201 2092 2160 2198 2103 2186 2075 2223 2176 2189 2173 2142 2228 2148 2220 2195 2149 2182 2175 2054 2170 2208 2109 2122 2150 2091 2207 2106 2096 2114 2026 2144 2078 2119 2157 2083 2072 2054 2190 2091 2120 2074 2096 2065 2108 2111 2077 2161 2148 2107 2084 2093 2147 2242 2079 2082 2220 2147 2047 2082 2124 2103 2107 2126 2075 2098 2064 2083 2120 2148 2118 2069 2137 2140 2126 2068 2047 2108 2128 2066 2090 2035 2117 2165 1964 2111 2043 2137 2097 2099 2032 1987 2029 2039 2000 2120 2088 2138 2099 2118 2152 2037 2087 2061 2139 2092 2086 2044 2040 2044 2098 1975 2085 2115 2101 2090 2034 2027 2162 2040 2069 2067 2052 2110 2105 2020 2098 2114 2211 2058 2118 1977 2111 2120 2015 2118 2003 2003 2096 2093 1970 2111 2021 2049 2114 2017 2034 2129 2101 2022 2017 2155 2163 2028 2030 2082 2007 2049 2011 2093 2031 2042 2098 2083 2102 2127 2060 2127 2067 2081 2069 2064 2067 2108 2159 2129 2055 2112 2130 2002 2108 2050 2129 2049 2110 2154 2124 2069 2089 2129 2076 2103 2093 2141 2065 2017 2047 2118 2066 2108 2017 2058 2056 2128 2060 2050 2123 2080 2087 2055 1975 2047 2054 2153 2071 2055 2100 2089 2182 2090 2089 2064 2029 2047 2041 2053 2144 1976 2169 2051 2047 2081 2155 2001 2046 2049 2008 2062 2064 2120 2147 2023 2136 2079 2097 2151 2090 2051 2084 2058 2126 2060 2061 2043 2046 2126 2076 2049 2116 2044 2041 2144 2073 1993 2100 1992 2021 2072 2137 2131 2063 2138 1959 2062 2025 2052 2034 2151 2113 2006 2110 2019 2052 2103 2058 2120 2046 2074 2137 2029 2107 2082 2209 2050 2053 2073 2059 2111 2114 2097 2032 2028 2050 2096 2053 2089 2073 2112 2063 2081 2031 2097 2139 2150 2051 2106 2007 2087 2101 2148 2064 2012 2153 2051 2009 2161 2063 1992 2015 2130 2031 2052 2082 2088 2086 1992 2062 2093 2094 2096 2065 1997 1981 2075 2064 2070 2051 2007 2076 2060 2025 2095 2054 2080 2115 2134 2110 2094 1960 2035 1969 2090 1996 2062 2095 2089 2165 2058 2075 2025 2097 2075 2060 2086 2133 2100 2009 2053 2128 2086 2016 2055 2160 2056 2072 2150 2055 2042 2075 2124 2024 2039 2006 2102 2115 2119 2153 2049 2117 2105 2099 2099 2101 2038 1971 2122 2083 2074 2092 2076 2138 2064 2127 2121 2059 2114 2129 2161 2197 2054 2124 2135 2118 2185 2028 2106 2124 2052 2177 2110 2060 2186 2181 2161 2159 2129 2081 2184 2168 2126 2092 2137 2286 2139 2249 2125 2201 2088 2122 2045 2154 2163 2177 2177 2145 2221 2188 2096 2151 2152 2124 2085 2081 2129 2060 2074 2105 2135 2086 2097 2132 2077 2153 2253 2099 2117 2154 2058 2056 2103 2072 1992 2097 2123 2074 2191 2027 2066 2094 2102 2014 2137 2101 2086 2095 2071 2157 2165 2139 2067 2011 2122 1963 2079 2070 2063 2076 2031 2083 2041 2092 2095 2038 2068 2117 2115 2059 2066 1945 2073 2117 2144 2111 2109 2038 2106 2103 1991 2085 2084 2027 2033 2043 2095 2145 2044 2049 2083 2023 2089 2173 2067 2156 2085 2123 2091 2007 2077 2033 2125 2033 2059 2038 2145 2039 2157 2077 2137 2053 2073 2135 2061 2120 2105 2118 2080 2150 2108 2073 2110 2078 2066 2145 2044 2068 2100 2076 2053 2113 2055 2076 2127 2128 2034 2052 2099 2031 2096 2098 2042 2117 2053 2118 2115 2031 2072 2059 2096 2066 1973 2124 2089 2075 2120 2047 2044 1990 2007 2099 2088 2001 2027 2040 2109 2119 2045 2074 2119 2065 2033 2085 1985 2128 2109 2188 2110 2039 2118 2026 2169 2033 2159 2125 2031 2050 2089 2052 2036 2124 2084 1963 2123 2074 2062 2083 2119 2088 2132 2148 2145 2030 2106 2053 2094 2087 2111 2153 2069 2062 2081 2121 2126 2077 2111 2059 2122 2092 2140 2061 2091 2085 2111 2045 2119 2096 2067 2037 2144 2150 2161 2029 2124 2095 2186 2116 2235 2103 2158 2156 2108 2106 2183 2095 2037 2169 2157 2128 2148 2135 2071 2152 2151 2135 2246 2153 2179 2091 2174 2230 2204 2194 2231 2289 2223 2322 2322 2305 2336 2366 2344 2297 2466 2411 2387 2410 2565 2406 2447 2400 2429 2481 2445 2454 2473 2486 2499 2366 2428 2385 2492 2542 2458 2401 2408 2545 2303 2388 2482 2464 2516 2444 2418 2367 2307 2448 2440 2518 2440 2331 2355 2349 2409 2244 2232 2352 2278 2276 2343 2246 2314 2283 2309 2167 2262 2293 2180 2237 2223 2205 2160 2248 2185 2194 2046 2181 2166 2103 2230 2138 2139 2172 2122 2135 2187 2172 2211 2087 2095 2206 2110 2084 2134 2149 2160 2063 2176 2255 2078 2191 2164 2180 2201 2156 2183 2237 2169 2170 2159 2127 2269 2185 2145 2232 2118 2189 2153 2185 2132 2130 2109 2189 2227 2147 2153 2166 2095 2099 2193 2158 2076 2166 2100 2089 2183 2185 2119 2102 2160 2133 2100 2199 2123 2190 2090 2098 2023 2098 2079 2165 2139 2147 2022 2207 2187 2102 2095 2150 2119 2187 2085 2080 2131 2152 2060 2121 2083 2149 2122 2041 2189 2036 2152 2074 2115 2128 2041 2053 2097 2040 2110 2108 2151 2152 2136 2164 2108 2142 2122 2137 2069 2124 2121 2112 2155 2055 2134 2077 2205 2139 2107 2130 2113 2116 2115 2120 2058 2173 2123 2179 2115 2133 2065 2173 2166 2124 2187 2112 2070 2128 2171 2072 2073 2176 2132 2063 2094 2088 2159 2180 2131 2112 2100 2116 2093 2173 2097 2129 2168 2050 2153 2070 2090 2161 2136 2112 2140 2061 2046 2066 2123 2133 2108 2068 2109 2018 2097 2022 2099 2204 2050 2113 2099 2124 2111 2071 2035 2065 2090 2105 2101 2126 2079 2107 2059 2017 2168 2129 2107 2045 2054 2093 2094 2146 2048 2126 2103 2051 2028 2092 2029 2122 2106 2072 2043 2089 2049 2154 2020 2110 2026 2086 2111 2087 2104 2114 2112 2103 2044 2078 2164 2096 2063 2142 2110 2114 2074 2065 2068 2076 2031 2063 2173 2079 2036 2037 2099 2109 2067 2094 2022 2069 2108 2075 2179 2071 2038 2039 2060 2134 2138 2139 2054 2057 2032 2066 2178 2097 2182 2065 2142 2073 2085 2055 2089 2106 2047 2090 2078 2070 2045 2107 1999 2077 2045 2100 2079 2111 2110 2049 2037 2099 2043 2156 1975 2104 2163 2055 2048 2037 2069 2095 2143 2031 2133 2104 2080 2077 1974 2123 2034 2033 2060 2109 2051 2196 2045 2126 2146 2050 2107 2107 2099 2014 2133 1999 2074 1991 2063 2024 2128 2135 2092 2071 2104 2050 2147 2023 2086 2096 2091 2123 2103 2067 2077 2099 1993 2032 2089 2071 2035 2126 2079 2113 2059 2061 2101 2144 2114 2018 2106 2026 2039 2035 2147 2122 2111 2101 2091 2039 2135 2045 2080 2062 2134 1967 2042 2083 2076 2048 2103 2056 2102 2092 2070 2040 2054 2029 2161 2153 2070 2124 2027 2094 2049 2064 2074 2013 2117 2167 2041 1967 2036 2162 2090 2158 2067 2053 2029 2079 2096 2127 2072 2080 2069 2124 2162 2152 2023 2130 2077 2024 2157 2120 2107 1984 2113 2080 2102 2135 2030 2083 2151 2088 2129 2082 1975 2158 2070 2090 2044 2185 2073 2026 2054 2053 2076 2028 2052 2134 2021 2122 2084 2074 2072 2128 2034 2025 2165 2152 2113 2151 2130 2119 2095 2124 2140 2017 2122 2052 2117 2003 2064 2133 2051 2095 2137 2058 2126 2100 2096 2035 2118 2093 2179 2131 2015 2149 2123 2029 2069 2149 2081 2090 2040 2092 1978 2104 2097 2107 2032 2094 2097 2073 2106 2101 2087 2054 2047 2086 2075 2086 2053 2028 2155 2177 2158 2165 2148 2063 2088 2090 2080 2099 2077 2064 2036 2049 2026 2082 2099 2077 2026 2134 2159 2054 2053 1998 2144 2087 2168 2091 2010 2109 2109 2109 2139 2085 2083 2057 2119 2160</counts>
			</dataPoints>
		</scan>
	</xrdMeasurement>
</xrdMeasurements>
