<?xml version="1.0"?>
<xrdMeasurements xmlns="http://www.xrdml.com/XRDMeasurement/2.3" xmlns:xsi="http://www.w3.org/2001/XMLSchema-instance" xsi:schemaLocation="http://www.xrdml.com/XRDMeasurement/2.3 http://www.xrdml.com/XRDMeasurement/2.3/XRDMeasurement.xsd" status="Completed" recordIdentifier="{89F29228-8404-4D0B-8FAA-4B54915A598C}">
	<comment>
		<entry/>
	</comment>
	<sample type="To be analyzed">
		<id>GPSS_Li1p65Mn0p65Mg0p30V0p15Cl4_112425_69248ac4f4e53d1f723993d2</id>
		<name></name>
		<preparedBy></preparedBy>
	</sample>
	<xrdMeasurement measurementType="Scan" status="Completed" sampleMode="Reflection">
		<usedWavelength intended="K-Alpha 1">
			<kAlpha1 unit="Angstrom">1.5405980</kAlpha1>
			<kAlpha2 unit="Angstrom">1.5444260</kAlpha2>
			<kBeta unit="Angstrom">1.3922500</kBeta>
			<ratioKAlpha2KAlpha1>0.5000</ratioKAlpha2KAlpha1>
		</usedWavelength>
		<incidentBeamPath>
			<radius unit="mm">145.00</radius>
			<xRayTube id="1010048" name="Empyrean Cu LFF HR (9430 033 7310x)">
				<tension unit="kV">40.0</tension>
				<current unit="mA">15.0</current>
				<anodeMaterial>Cu</anodeMaterial>
				<focus type="Line">
					<length unit="mm">12.0</length>
					<width unit="mm">0.4</width>
					<takeOffAngle unit="deg">6.0</takeOffAngle>
				</focus>
			</xRayTube>
			<sollerSlit id="21010002" name="Soller slits 0.04 rad.">
				<opening unit="rad">0.0400</opening>
			</sollerSlit>
			<mask id="22031000" name="Fixed mask 13 mm">
				<width unit="mm">9.00</width>
			</mask>
			<divergenceSlit id="22120001" name="Divergence slit 1°" xsi:type="fixedDivergenceSlitType">
				<distanceToSample unit="mm">50.00</distanceToSample>
				<height unit="mm">1.52</height>
			</divergenceSlit>
		</incidentBeamPath>
		<sampleMovement xsi:type="spinningSampleMovementType">
			<spinnerRevolutionTime unit="seconds">1.0</spinnerRevolutionTime>
		</sampleMovement>
		<diffractedBeamPath>
			<radius unit="mm">145.00</radius>
			<antiScatterSlit id="22090040" name="AS slit 9 mm (PIXcel)" xsi:type="fixedAntiScatterSlitType">
				<height unit="mm">9.00</height>
			</antiScatterSlit>
			<sollerSlit id="21020003" name="Large Soller slits 0.04 rad.">
				<opening unit="rad">0.0400</opening>
			</sollerSlit>
			<filter id="20030001" name="Large beta-filter Nickel">
				<material>Ni</material>
				<thickness unit="mm">0.020</thickness>
			</filter>
			<detector id="7010019" name="PIXcel1D-Medipix3 detector" xsi:type="rtmsDetectorType">
				<phd unit="keV">
					<lowerLevel>4.02</lowerLevel>
					<upperLevel>11.27</upperLevel>
				</phd>
				<mode>Scanning</mode>
				<activeLength unit="deg">5.542</activeLength>
			</detector>
		</diffractedBeamPath>
		<scan appendNumber="0" mode="Continuous" scanAxis="Gonio" status="Completed">
			<header>
				<startTimeStamp>2025-11-27T10:25:19-08:00</startTimeStamp>
				<endTimeStamp>2025-11-27T10:33:26-08:00</endTimeStamp>
				<author>
					<name>AutomatedUser</name>
				</author>
				<source>
					<applicationSoftware version="1.7b (136)">PANalytical Aeris Instrument Suite</applicationSoftware>
					<instrumentControlSoftware version="3.2.00000000 20240306">AERIS</instrumentControlSoftware>
					<instrumentID>950485</instrumentID>
				</source>
			</header>
			<dataPoints>
				<positions axis="2Theta" unit="deg">
					<startPosition>10.00943322</startPosition>
					<endPosition>99.99442286</endPosition>
				</positions>
				<positions axis="Omega" unit="deg">
					<startPosition>5.00471661</startPosition>
					<endPosition>49.99721143</endPosition>
				</positions>
				<commonCountingTime unit="seconds">12.495</commonCountingTime>
				<counts unit="counts">2781 2882 2739 2784 2687 2733 2696 2732 2647 2669 2658 2902 2690 2728 2715 2749 2728 2652 2612 2722 2716 2721 2628 2739 2677 2757 2731 2743 2691 2678 2668 2781 2727 2699 2747 2751 2676 2730 2787 2759 2706 2619 2728 2693 2684 2752 2795 2710 2703 2743 2698 2649 2640 2772 2674 2789 2769 2836 2659 2701 2676 2741 2721 2612 2777 2759 2707 2770 2693 2660 2794 2700 2660 2710 2674 2683 2665 2738 2725 2735 2729 2703 2658 2740 2647 2610 2721 2727 2751 2787 2687 2664 2706 2646 2704 2692 2705 2715 2723 2787 2719 2755 2595 2771 2633 2737 2702 2710 2712 2716 2723 2644 2752 2706 2730 2674 2730 2757 2723 2743 2655 2722 2728 2746 2689 2760 2757 2760 2728 2666 2652 2669 2660 2754 2720 2645 2738 2677 2783 2739 2810 2751 2758 2742 2744 2756 2636 2715 2705 2734 2592 2671 2825 2769 2750 2773 2733 2709 2641 2689 2692 2625 2683 2770 2686 2779 2693 2772 2692 2781 2735 2697 2669 2732 2726 2759 2759 2723 2688 2668 2791 2680 2704 2690 2760 2667 2714 2764 2763 2661 2625 2754 2714 2660 2655 2598 2681 2686 2635 2680 2681 2710 2640 2695 2667 2673 2727 2524 2711 2689 2687 2542 2571 2669 2666 2647 2732 2621 2642 2603 2661 2687 2677 2639 2672 2681 2728 2658 2636 2488 2668 2508 2650 2654 2585 2640 2651 2624 2594 2603 2641 2489 2649 2567 2478 2642 2585 2525 2588 2566 2631 2578 2621 2573 2686 2519 2694 2587 2535 2632 2647 2672 2558 2524 2641 2600 2566 2559 2554 2634 2631 2489 2593 2478 2633 2628 2653 2561 2609 2675 2599 2581 2532 2614 2647 2689 2623 2760 2631 2692 2613 2587 2621 2680 2578 2663 2566 2543 2641 2609 2766 2654 2723 2656 2627 2696 2696 2572 2648 2694 2557 2607 2746 2715 2692 2630 2677 2630 2712 2750 2683 2655 2713 2810 2706 2711 2746 2687 2735 2736 2764 2812 2696 2810 2656 2773 2767 2613 2707 2764 2827 2823 2761 2797 2767 2813 2758 2750 2794 2793 2794 2945 2884 2896 2783 2784 2875 2751 2818 2975 2880 2800 2935 2914 2875 2896 2894 2865 2904 2855 2864 2952 2899 2949 2978 2949 3028 2907 2948 2907 2985 3072 3001 2908 2941 3039 3068 2978 3021 3015 2980 3001 2991 2955 2927 3024 3007 3003 3125 3039 3136 2960 3057 3043 3210 3050 3006 3067 3073 2964 3071 3120 3077 3126 3057 3085 3092 3040 3100 3219 3267 3125 3168 3198 3164 3183 3165 3233 3215 3207 3211 3303 3303 3254 3298 3208 3320 3222 3337 3217 3301 3378 3246 3361 3334 3428 3386 3284 3415 3390 3500 3458 3480 3600 3418 3537 3498 3522 3645 3788 3672 3640 3597 3710 3743 3685 3681 3708 3667 3709 3715 3855 3802 3729 3743 3776 3893 3787 3831 3858 3791 3870 3832 3899 3766 3872 3804 3840 3846 3782 3839 3840 3859 3714 3776 4000 3844 3889 3867 3898 3897 3933 3796 4016 3780 3787 3755 3743 3667 3640 3715 3742 3572 3595 3666 3578 3583 3434 3435 3387 3483 3273 3276 3192 3168 3172 3193 3082 3116 3105 3122 3020 2945 3050 2954 2976 2878 2978 2839 2832 2948 2856 2822 2921 2849 2815 2839 2966 2911 2877 2853 2907 2919 2898 2847 2767 2906 2876 2875 2824 2784 2917 2798 2815 2783 2795 2771 2995 2797 2733 2707 2817 2817 2738 2743 2723 2770 2857 2775 2742 2669 2657 2757 2635 2758 2677 2727 2763 2681 2870 2736 2747 2684 2720 2679 2629 2717 2730 2761 2769 2728 2756 2754 2804 2780 2804 2706 2740 2734 2697 2732 2645 2614 2653 2730 2719 2717 2637 2659 2654 2655 2587 2597 2718 2725 2664 2637 2601 2640 2579 2615 2652 2581 2737 2540 2606 2687 2672 2685 2609 2660 2678 2763 2681 2657 2513 2690 2640 2594 2683 2658 2700 2609 2630 2594 2626 2604 2524 2595 2615 2656 2605 2615 2679 2609 2631 2618 2739 2615 2631 2646 2555 2632 2606 2584 2552 2579 2533 2491 2576 2512 2586 2576 2578 2523 2573 2509 2544 2564 2528 2646 2620 2626 2562 2568 2507 2592 2602 2468 2519 2552 2480 2564 2561 2564 2625 2589 2574 2461 2479 2583 2505 2625 2549 2602 2593 2574 2510 2630 2546 2531 2606 2482 2493 2619 2573 2576 2475 2608 2595 2547 2587 2466 2619 2625 2540 2586 2532 2562 2466 2451 2640 2567 2513 2579 2490 2555 2420 2518 2546 2541 2454 2447 2469 2482 2499 2518 2447 2447 2558 2573 2463 2492 2488 2388 2483 2590 2535 2469 2464 2485 2505 2548 2505 2556 2502 2418 2648 2431 2561 2441 2548 2436 2564 2590 2575 2465 2452 2448 2448 2502 2503 2499 2574 2480 2389 2495 2440 2504 2368 2377 2453 2449 2531 2555 2424 2542 2452 2559 2512 2515 2433 2512 2538 2476 2458 2509 2441 2523 2548 2386 2388 2409 2506 2379 2465 2471 2479 2467 2483 2446 2459 2389 2445 2439 2535 2437 2481 2429 2419 2393 2476 2498 2458 2447 2468 2360 2424 2366 2390 2321 2502 2471 2446 2405 2468 2454 2394 2485 2436 2443 2445 2323 2402 2360 2369 2421 2465 2475 2324 2463 2366 2378 2476 2421 2404 2504 2448 2368 2403 2368 2339 2361 2423 2320 2375 2338 2391 2385 2434 2415 2347 2352 2308 2402 2401 2302 2352 2225 2386 2364 2378 2417 2392 2439 2339 2411 2374 2306 2308 2362 2350 2418 2304 2336 2382 2265 2293 2394 2313 2379 2375 2332 2384 2348 2316 2267 2360 2341 2430 2370 2346 2331 2334 2262 2394 2419 2362 2379 2301 2323 2237 2227 2347 2409 2336 2286 2353 2346 2320 2270 2351 2284 2280 2237 2209 2287 2343 2255 2306 2315 2299 2289 2271 2259 2306 2213 2329 2313 2269 2256 2280 2358 2236 2194 2272 2293 2237 2325 2378 2355 2327 2287 2345 2238 2401 2245 2252 2354 2232 2327 2257 2197 2307 2302 2200 2284 2305 2269 2225 2246 2274 2288 2307 2278 2263 2280 2337 2353 2283 2293 2296 2255 2320 2245 2222 2346 2330 2311 2345 2338 2199 2247 2280 2293 2247 2278 2229 2260 2197 2278 2186 2250 2168 2313 2194 2226 2195 2257 2253 2277 2328 2326 2225 2171 2192 2208 2103 2300 2311 2295 2255 2292 2219 2318 2268 2257 2336 2301 2289 2271 2337 2321 2300 2169 2289 2249 2244 2360 2310 2233 2183 2241 2264 2299 2274 2281 2332 2285 2261 2276 2184 2314 2280 2277 2244 2254 2198 2281 2253 2267 2393 2315 2231 2242 2368 2276 2333 2262 2281 2247 2272 2231 2338 2227 2287 2237 2266 2236 2277 2300 2314 2259 2317 2215 2260 2257 2204 2219 2178 2290 2240 2204 2283 2162 2225 2255 2212 2239 2238 2225 2236 2245 2183 2246 2257 2179 2229 2256 2113 2206 2217 2147 2213 2223 2121 2266 2212 2203 2233 2151 2265 2194 2204 2171 2184 2061 2124 2115 2139 2133 2127 2086 2089 2146 2167 2181 2115 2134 2174 2041 2039 2134 2122 2087 2110 2049 2089 2156 2176 2115 2113 2082 2168 2085 2052 2047 2066 2036 2089 1979 2010 2059 2012 2087 1961 2046 1971 1998 1987 1942 2050 2005 2012 1999 1922 2005 1985 2012 2008 2009 2025 1874 2046 2047 2011 1945 2033 1866 1889 1961 2013 2015 1938 1956 1958 1896 1962 1953 1900 1953 1868 1896 1883 1867 1889 1932 1933 1876 1890 1838 1850 1882 1928 1883 1885 1997 1861 1864 1906 1785 1852 1773 1917 1796 1834 1837 1753 1842 1852 1867 1873 1846 1786 1829 1832 1786 1809 1762 1826 1812 1756 1783 1735 1760 1836 1820 1776 1700 1805 1695 1791 1660 1705 1717 1773 1703 1807 1703 1740 1633 1765 1751 1735 1772 1691 1736 1665 1752 1733 1756 1712 1680 1689 1728 1704 1685 1680 1680 1681 1657 1673 1741 1665 1680 1748 1699 1641 1681 1644 1622 1692 1714 1687 1733 1675 1677 1672 1636 1703 1607 1660 1659 1756 1698 1726 1699 1669 1622 1723 1661 1695 1639 1684 1639 1664 1644 1678 1648 1713 1620 1614 1644 1720 1655 1706 1737 1625 1607 1603 1660 1671 1619 1638 1672 1670 1608 1706 1723 1603 1654 1641 1605 1653 1630 1649 1654 1599 1626 1646 1778 1640 1748 1673 1661 1680 1637 1646 1579 1588 1649 1554 1588 1606 1650 1653 1663 1612 1645 1686 1607 1651 1632 1664 1593 1642 1712 1623 1637 1612 1652 1628 1624 1629 1640 1617 1727 1667 1667 1626 1580 1651 1638 1638 1657 1658 1696 1658 1658 1620 1599 1706 1702 1632 1653 1663 1654 1639 1656 1632 1685 1576 1655 1692 1595 1631 1729 1601 1636 1692 1723 1614 1588 1639 1672 1651 1646 1597 1603 1651 1657 1607 1600 1647 1667 1571 1665 1675 1739 1650 1682 1624 1685 1681 1632 1699 1669 1668 1674 1592 1757 1716 1621 1768 1683 1734 1669 1704 1714 1609 1689 1653 1571 1718 1620 1592 1664 1594 1638 1720 1604 1701 1702 1610 1729 1668 1666 1645 1616 1603 1621 1693 1618 1654 1565 1660 1561 1679 1612 1594 1570 1684 1641 1605 1558 1634 1524 1611 1596 1687 1562 1651 1618 1594 1640 1548 1561 1650 1591 1525 1621 1596 1610 1592 1540 1553 1503 1548 1556 1575 1569 1529 1561 1573 1529 1521 1618 1474 1596 1569 1493 1548 1497 1593 1592 1514 1600 1517 1451 1523 1447 1532 1521 1560 1438 1513 1521 1532 1513 1537 1581 1524 1454 1458 1493 1493 1508 1482 1451 1543 1437 1472 1467 1453 1539 1445 1325 1491 1507 1543 1422 1462 1464 1379 1367 1389 1428 1427 1425 1445 1385 1382 1402 1410 1453 1368 1415 1402 1418 1443 1457 1405 1422 1365 1404 1352 1433 1408 1423 1334 1415 1409 1445 1377 1394 1362 1426 1447 1379 1403 1325 1323 1394 1433 1441 1447 1387 1334 1364 1376 1385 1364 1378 1348 1327 1445 1403 1427 1404 1417 1362 1350 1451 1364 1435 1434 1414 1413 1492 1503 1432 1421 1461 1502 1454 1459 1444 1413 1501 1463 1554 1473 1500 1508 1502 1504 1509 1525 1583 1558 1600 1610 1610 1697 1620 1712 1771 1680 1751 1727 1708 1796 1782 1789 1846 1744 1809 1821 1833 1847 1779 1830 1817 1873 1861 1738 1778 1781 1701 1708 1722 1697 1657 1623 1619 1599 1539 1552 1580 1500 1460 1477 1465 1498 1414 1422 1438 1358 1410 1350 1388 1407 1363 1297 1378 1304 1289 1368 1304 1246 1319 1245 1312 1228 1279 1208 1228 1239 1263 1347 1221 1246 1206 1194 1231 1240 1249 1254 1227 1268 1230 1209 1175 1207 1198 1239 1259 1267 1218 1230 1279 1314 1235 1236 1250 1331 1328 1354 1256 1305 1402 1311 1384 1448 1397 1524 1483 1518 1452 1541 1457 1516 1456 1556 1546 1599 1520 1554 1639 1657 1566 1668 1679 1648 1735 1705 1794 1750 1927 1893 1976 2075 2127 2147 2108 2205 2233 2332 2325 2489 2548 2552 2612 2646 2650 2773 2787 2834 2697 2789 2907 2893 2790 2874 2839 2790 2919 2839 2851 2818 2727 2857 2737 2676 2613 2616 2553 2499 2443 2434 2406 2333 2262 2240 2213 2209 2086 2113 2025 2048 2036 2013 1938 1838 1904 1882 1897 1836 1849 1813 1702 1743 1741 1697 1647 1573 1574 1550 1530 1469 1419 1368 1389 1340 1216 1302 1194 1249 1253 1194 1201 1198 1186 1249 1149 1133 1114 1139 1204 1081 1099 1171 1147 1115 1103 1120 1113 1145 1100 1135 1053 1087 1095 1111 1090 1116 1142 1104 1131 1062 1108 1051 1122 1078 1132 1045 1058 1079 1071 1152 1029 1126 1089 1036 1038 1061 1055 1068 1051 1017 1027 1071 1033 1057 1030 1084 1031 1065 972 1010 1079 1051 1081 1051 1015 1103 1068 1068 1047 991 1026 1053 1025 1024 1053 1019 1033 987 1049 950 1053 1004 1013 999 1018 1025 1041 1071 1035 995 1072 1010 1061 978 1015 1041 991 1054 980 964 990 1017 956 997 980 970 979 990 1032 1033 1049 1013 950 973 966 994 1023 1007 999 979 948 1022 998 1012 1007 1058 989 969 1003 1009 999 946 995 1004 1041 953 972 974 994 974 979 1032 1023 1003 939 1005 970 1058 962 1047 946 1006 1004 1016 993 952 1054 1026 1027 1028 970 976 980 942 955 952 975 965 994 947 1012 1001 972 1020 992 925 964 944 974 896 964 964 945 928 1017 968 1008 953 1001 974 934 1016 1014 993 887 962 936 969 959 943 1002 942 952 970 1034 923 980 925 976 930 1017 930 993 968 973 1009 1006 986 935 967 959 961 961 945 943 942 931 908 947 948 1026 954 912 1027 983 927 920 919 929 977 917 981 1008 958 966 963 912 977 901 948 893 1001 899 956 932 930 984 959 1010 986 1002 962 974 1007 972 979 1008 998 1021 987 936 1032 966 975 1020 988 983 1006 992 1019 1009 977 954 1035 1053 1042 1031 1021 1059 996 1044 1030 1008 1032 979 1078 1076 1055 1044 1041 1039 1041 975 1057 1105 1041 1040 1098 1062 1149 1120 1137 1184 1195 1205 1239 1238 1236 1278 1313 1302 1339 1415 1402 1434 1473 1539 1504 1574 1587 1710 1715 1724 1763 1800 1768 1879 1895 1917 1999 2060 2085 2123 2200 2283 2348 2376 2524 2542 2505 2663 2627 2739 2725 2974 2964 2987 3025 3162 3151 3245 3437 3574 3566 3726 3779 3954 3985 4089 4100 4027 4311 4449 4279 4445 4351 4496 4466 4450 4595 4602 4587 4618 4470 4586 4486 4378 4369 4348 4356 4176 4106 3837 3893 3818 3825 3648 3547 3591 3360 3266 3240 3053 3012 2977 2930 2768 2840 2748 2616 2501 2433 2233 2432 2308 2205 2173 2113 2048 1993 1948 1919 1933 1781 1798 1777 1714 1700 1591 1633 1539 1519 1460 1458 1353 1429 1298 1281 1258 1219 1209 1228 1150 1213 1160 1159 1061 1101 1067 1092 1047 1062 1045 1081 1030 1022 988 976 981 983 1001 981 1009 947 1028 1035 921 962 969 964 989 983 933 940 993 946 928 989 913 870 1011 946 947 946 916 963 949 940 1002 953 909 946 912 956 915 918 875 942 918 954 959 941 885 936 914 881 934 929 953 895 919 889 901 925 910 922 887 868 843 897 894 869 872 872 906 922 960 909 924 861 941 877 928 937 920 855 918 848 858 879 898 841 881 923 866 906 877 857 919 868 862 863 894 862 921 884 854 863 903 856 902 861 909 853 857 912 838 939 902 877 860 845 864 869 884 861 847 900 840 913 849 841 857 860 877 854 919 869 867 870 827 852 870 884 822 855 866 873 852 843 847 853 877 829 845 852 905 889 829 841 867 840 884 895 848 793 865 921 878 868 828 848 849 823 864 859 834 868 878 835 824 859 872 808 883 898 852 849 864 827 843 827 818 858 936 869 871 847 868 902 878 841 862 912 893 845 883 852 908 875 888 852 846 899 878 912 954 883 859 870 922 812 919 890 906 867 855 897 831 875 944 885 863 917 990 912 905 915 906 872 916 887 924 917 971 931 952 955 913 883 881 867 871 930 912 886 907 912 933 831 872 839 917 900 868 883 833 783 852 824 873 818 827 855 774 800 821 866 823 819 850 812 820 755 869 844 797 787 791 838 824 818 784 793 809 790 799 819 864 814 797 792 794 725 755 775 816 858 805 819 766 833 762 777 807 730 760 834 783 788 816 799 792 810 826 800 737 788 745 811 808 830 799 780 813 769 794 823 774 836 763 780 774 808 770 760 815 775 787 720 800 763 834 766 769 811 763 724 792 765 768 822 813 787 776 792 753 728 759 835 758 817 732 778 761 746 761 777 761 765 753 790 753 715 774 760 770 762 753 747 780 770 821 751 786 747 757 797 785 793 735 740 737 744 739 759 737 742 752 703 756 779 758 710 797 740 790 704 771 774 763 754 788 770 772 787 768 758 774 783 803 737 774 728 718 741 725 742 765 820 799 716 771 774 753 752 772 738 818 781 731 742 706 762 731 753 791 735 732 753 697 765 734 744 732 816 782 721 754 701 772 746 726 749 775 722 791 705 757 697 799 748 725 771 751 740 855 757 764 748 701 786 771 731 784 739 798 713 775 741 720 741 702 747 754 729 711 788 704 714 753 711 743 746 753 687 738 715 800 801 766 757 754 779 763 724 746 809 701 760 719 740 734 738 761 812 762 704 747 714 749 724 717 737 740 737 761 771 718 731 734 749 805 750 732 712 797 734 692 743 697 708 755 728 728 723 769 742 698 722 762 696 734 728 712 742 694 746 687 705 680 722 767 728 794 701 752 732 746 713 734 722 759 724 694 755 699 694 693 781 709 713 694 702 741 743 732 742 728 734 740 722 682 689 712 757 716 689 688 687 708 713 742 722 713 705 713 695 763 690 719 809 720 751 721 680 743 757 687 740 693 700 756 727 728 766 752 701 762 701 747 754 748 723 753 736 784 758 740 711 753 684 722 719 659 744 715 703 713 699 724 736 719 722 694 717 743 723 742 740 731 732 729 681 720 719 736 736 753 678 680 726 707 724 721 742 723 683 693 701 702 714 697 741 831 687 710 677 704 752 687 719 724 716 692 725 716 684 686 707 698 705 688 685 775 695 676 716 671 722 742 696 697 718 724 685 741 663 754 695 732 695 686 749 694 744 731 668 709 713 736 689 692 725 721 688 690 735 687 684 746 754 692 748 717 761 685 739 704 676 701 715 721 721 765 701 724 726 707 695 729 695 690 679 696 702 734 703 717 697 724 702 714 717 723 675 704 712 673 657 687 719 730 681 690 693 673 750 698 645 730 700 704 721 721 683 689 687 671 783 719 693 689 706 698 721 684 716 697 717 728 726 706 746 723 668 758 672 725 725 696 728 710 702 719 726 701 674 729 685 715 668 744 744 739 759 775 703 684 739 784 733 761 757 730 723 740 769 771 748 763 761 758 761 783 768 782 775 731 816 706 780 780 830 775 783 824 761 838 792 807 796 807 845 847 853 846 844 843 851 843 827 875 842 819 871 904 861 864 918 887 880 920 874 866 877 887 859 854 908 871 895 872 908 861 846 845 873 849 831 778 838 912 825 869 840 749 837 810 830 774 744 813 834 825 848 802 826 781 803 844 852 816 744 785 812 818 802 870 826 857 800 827 822 874 855 829 903 850 872 871 885 862 881 841 793 801 831 868 873 831 813 880 819 825 826 813 796 814 790 786 748 803 734 756 731 745 777 743 757 823 722 758 785 747 746 687 768 739 721 709 690 739 721 732 706 649 703 735 688 707 752 723 710 727 754 687 736 728 721 686 758 674 748 722 739 746 733 768 647 750 658 742 651 680 696 742 713 720 675 675 750 720 717 678 713 708 699 715 692 678 688 653 673 720 689 734 735 733 675 705 645 697 695 761 721 708 728 707 692 725 680 706 707 718 716 688 695 710 649 679 650 693 690 696 679 746 664 692 616 694 756 721 708 743 706 701 681 711 694 763 689 683 703 718 668 719 670 687 706 644 688 747 670 688 666 687 646 748 694 721 690 711 718 685 708 731 643 734 715 690 709 684 664 703 704 733 670 736 623 676 682 699 696 709 698 722 675 718 709 712 708 741 662 720 699 687 666 678 703 735 694 690 690 726 658 720 700 691 716 661 746 716 714 727 711 668 693 735 670 671 657 718 723 651 716 696 714 715 706 741 692 715 761 692 691 680 738 699 718 704 701 713 766 724 696 728 746 725 784 750 737 721 728 750 773 769 793 798 784 829 820 849 886 862 895 869 883 919 918 954 928 958 968 1028 945 1074 1010 1002 1067 1066 1028 1085 1129 1115 1173 1208 1176 1274 1276 1330 1347 1417 1483 1512 1566 1556 1674 1717 1715 1759 1688 1749 1906 1921 1806 1792 1886 1902 1894 1929 1920 1837 1889 1821 1863 1848 1790 1855 1754 1818 1776 1825 1858 1873 1842 1899 1979 1878 1887 1867 1852 1862 1814 1856 1805 1802 1825 1869 1699 1799 1768 1696 1827 1813 1686 1610 1663 1569 1576 1574 1498 1482 1442 1425 1458 1359 1360 1289 1357 1264 1332 1211 1260 1164 1212 1231 1220 1236 1198 1195 1217 1198 1251 1219 1308 1195 1293 1265 1300 1248 1236 1232 1365 1308 1327 1331 1257 1278 1268 1374 1294 1231 1311 1270 1306 1239 1318 1267 1197 1212 1249 1262 1265 1270 1227 1209 1247 1263 1235 1270 1248 1223 1182 1130 1201 1089 1138 1095 1117 1116 1076 1078 1035 991 1038 999 1002 984 965 917 894 932 884 897 866 761 861 808 838 826 803 810 811 746 781 749 703 741 732 726 746 728 730 692 743 692 687 742 710 725 754 722 690 715 682 727 755 668 711 708 693 713 693 662 688 682 710 720 730 665 650 702 674 750 722 698 697 682 712 682 719 708 727 702 704 695 682 807 739 780 707 744 740 771 754 753 792 726 739 803 764 734 780 742 760 772 768 799 786 820 785 898 816 814 857 847 923 829 850 912 942 898 984 934 916 922 901 1005 948 952 944 905 909 910 944 926 945 901 916 962 882 879 887 824 888 891 856 830 825 766 848 819 809 714 785 738 763 720 754 772 705 702 695 758 749 746 709 708 726 674 701 723 667 694 685 673 642 695 640 655 631 635 699 670 661 654 686 719 680 658 675 703 630 689 597 617 630 644 624 657 659 677 668 623 608 652 660 617 651 662 619 636 637 628 646 641 634 630 670 626 669 639 680 644 597 673 615 649 663 653 610 601 624 676 652 652 605 651 629 596 567 585 647 669 671 664 656 702 660 650 603 628 664 684 665 655 663 630 644 620 624 638 642 649 643 606 594 661 633 612 666 623 658 615 646 605 622 657 608 640 607 621 620 672 639 606 635 602 597 673 632 595 637 630 640 619 644 658 608 562 665 664 624 656 623 606 593 636 623 632 593 652 661 681 631 592 648 630 602 649 587 633 616 582 598 632 642 624 576 623 641 616 633 638 572 631 606 584 610 616 658 609 632 599 658 655 623 664 619 600 618 622 652 609 614 630 632 555 586 614 628 661 604 601 650 658 607 624 634 599 634 653 563 628 623 620 626 612 615 612 586 606 596 555 636 612 581 590 625 647 640 538 619 622 565 659 657 622 617 597 600 554 577 606 624 598 571 647 587 654 592 644 608 569 604 624 643 609 627 629 599 594 588 620 611 634 633 619 583 609 636 607 616 603 648 647 571 628 633 637 558 622 591 641 565 594 593 641 631 597 605 645 593 573 566 563 599 615 594 591 580 599 620 528 612 616 600 583 613 625 634 611 550 643 549 639 595 568 567 611 584 627 626 623 586 588 630 644 639 611 611 626 602 600 628 623 596 573 604 565 632 596 579 573 614 613 619 592 621 615 599 635 656 598 620 583 610 577 599 660 612 620 583 568 603 595 629 607 651 620 582 602 608 607 607 547 572 608 622 678 624 619 623 601 617 621 655 601 594 612 587 592 573 586 589 559 598 567 634 614 602 583 586 605 551 585 581 612 605 633 621 587 605 594 550 631 574 604 588 576 576 549 591 578 635 588 584 560 585 584 572 610 628 598 575 569 592 629 587 622 600 603 588 619 563 596 623 577 637 627 638 618 626 569 590 606 605 575 587 576 599 585 588 568 608 566 612 591 590 648 605 581 626 631 625 633 626 599 642 610 611 660 611 642 573 597 616 679 641 608 621 668 630 601 642 666 638 622 641 605 621 684 619 636 685 674 643 628 610 661 624 612 665 655 647 617 623 657 639 628 689 668 694 688 614 663 642 577 671 647 653 625 643 641 646 607 593 610 633 596 607 609 650 622 617 622 588 639 584 596 615 595 633 645 616 634 636 619 642 637 603 596 649 668 662 636 656 604 624 648 648 601 651 667 645 684 725 700 696 702 709 697 699 719 733 736 676 682 748 749 744 676 747 756 728 723 762 707 816 766 732 808 822 823 843 813 818 831 861 862 856 869 837 880 902 854 819 858 875 796 870 892 838 838 865 851 881 827 820 821 785 850 842 793 878 809 804 787 744 790 787 737 737 762 737 687 776 766 790 730 760 740 758 770 774 744 757 723 758 719 735 720 753 794 727 751 761 751 782 768 814 753 775 739 801 782 767 823 791 782 826 780 774 770 818 790 784 844 785 796 787 836 812 762 798 792 745 716 787 771 803 781 775 680 706 733 779 698 724 683 691 720 690 674 684 668 623 658 658 608 650 619 604 655 664 628 664 652 602 625 568 612 582 619 568 556 605 670 613 582 588 582 538 626 610 587 588 618 600 603 596 565 623 605 599 571 583 620 591 604 562 615 568 585 633 620 581 595 609 581 545 611 571 582 609 576 582 612 619 574 597 562 552 568 616 570 603 641 586 627 599 564 640 580 611 572 601 621 620 599 592 608 614 589 603 630 597 623 666 604 615 599 596 588 589 602 605 623 632 598 697 668 644 620 674 685 703 671 616 678 681 699 700 735 666 762 704 743 748 704 744 778 797 738 823 759 794 865 810 882 893 858 881 848 878 901 926 989 934 1004 991 1005 940 952 930 957 936 935 1001 1003 1075 1001 990 998 943 970 1038 1000 1003 973 977 955 926 952 941 936 961 950 905 880 938 917 877 795 920 832 840 829 854 817 821 807 753 791 773 800 795 728 731 751 751 692 718 692 728 684 723 681 679 735 689 744 681 662 634 685 646 669 688 650 625 663 625 689 692 656 695 677 681 650 707 671 724 700 685 653 652 728 729 709 707 711 729 724 706 639 684 707 725 622 667 716 697 689 680 661 652 640 626 653 646 678 621 655 609 637 650 635 635 670 634 595 604 646 587 617 608 575 579 648 637 619 576 593 600 570 591 577 560 657 586 617 629 623 528 622 573 584 579 625 593 574 575 630 635 616 601 608 590 599 657 622 633 607 583 646 604 619 621 587 611 594 628 598 631 618 664 656 621 626 663 671 643 660 719 635 676 687 705 669 684 722 682 705 736 645 748 671 661 685 689 658 740 652 689 704 686 658 682 701 686 655 638 685 645 696 659 686 634 692 698 621 634 633 664 616 641 594 571 638 619 652 614 616 606 619 601 583 598 599 595 581 591 582 583 605 597 588 577 546 606 592 584 604 575 589 608 555 557 594 548 569 525 542 562 553 567 579 556 578 563 597 590 578 588 574 614 574 600 577 596 572 588 571 579 590 565 577 590 601 603 558 551 579 548 554 574 569 542 582 591 612 565 594 572 560 586 594 633 547 544 588 550 564 563 540 584 564 540 602 577 615 563 601 614 566 592 582 552 540 601 600 596 602 606 562 605 570 667 589 583 593 612 616 613 603 603 615 586 592 615 582 621 580 579 606 615 615 585 580 594 586 620 603 571 573 591 545 550 567 581 525 558 619 561 567 538 608 542 562 589 559 512 603 596 537 587 529 582 533 551 538 569 533 582 539 541 528 528 603 589 511 550 571 515 577 528 562 501 529 536 603 538 570 528 556 528 530 588 554 560 525 536 571 546 557 559 569 595 506 542 536 531 526 575 564 558 544 545 545 602 540 526 554 529 561 527 541 536 538 536 546 521 603 537 559 560 533 527 587 584 532 605 613 597 564 539 579 520 600 543 557 572 568 572 490 539 542 503 552 589 521 544 526 508 534 526 562 533 570 501 531 559 528 548 536 536 556 602 604 566 546 577 547 536 547 567 575 557 568 559 537 545 557 510 568 590 519 560 556 521 526 504 561 521 532 574 569 559 530 586 554 570 518 542 526 555 544 580 599 533 526 539 583 539 569 501 526 549 542 573 537 563 544 570 536 559 525 530 570 598 521 515 576 553 578 559 566 534 535 575 548 559 571 548 549 569 514 558 559 525 533 532 528 560 547 537 536 533 567 557 540 562 531 538 528 537 563 549 518 532 535 527 556 526 534 546 507 536 507 537 534 545 541 546 538 558 571 500 516 517 519 543 550 518 574 507 543 550 547 535 508 550 514 562 534 531 524 566 552 535 531 509 484 576 538 547 510 565 542 518 514 503 531 544 531 525 517 542 512 553 582 571 562 515 570 511 531 587 575 557 569 558 574 542 534 547 601 529 534 554 567 568 570 519 497 582 572 598 565 562 556 559 596 604 557 549 604 579 586 589 602 603 604 558 517 580 569 610 580 566 595 598 593 580 580 560 574 581 598 602 641 601 605 572 544 592 576 563 543 613 624 586 646 548 608 577 644 587 621 534 573 564 583 549 571 609 545 588 597 555 608 568 632 575 580 572 598 570 589 560 593 579 558 541 545 582 590 576 575 554 563 568 540 600 540 589 570 557 587 552 565 569 581 590 567 562 561 593 537 536 596 583 575 544 516 543 566 555 526 559 537 514 593 527 560 546 569 519 512 564 600 552 562 524 525 547 549 574 528 589 550 512 536 534 559 530 514 564 518 551 527 549 558 501 522 551 517 526 517 545 539 552 509 536 527 501 572 556 542 555 531 546 551 538 555 532 521 522 562 496 510 503 558 548 560 515 552 578 529 522 539 522 515 502 573 550 541 513 541 527 538 518 496 560 548 556 558 551 540 541 519 547 551 558 544 543 538 547 558 543 556 501 540 496 521 564 532 569 522 557 505 497 579 583 578 559 516 538 543 508 589 534 566 574 534 544 562 565 529 487 554 540 549 566 580 530 511 586 502 529 547 538 600 526 550 504 504 594 555 564 586 546 557 525 546 566 579 546 553 567 564 573 566 545 574 525 537 533 550 559 551 585 590 590 561 574 567 601 588 580 595 566 582 557 604 587 643 617 573 614 627 571 580 588 612 641 616 606 604 639 619 625 631 626 679 604 645 652 642 662 645 666 668 659 637 677 662 698 676 681 681 672 672 697 722 698 710 667 659 713 666 672 686 644 672 682 676 660 697 723 657 708 747 692 671 691 650 650 688 679 703 705 622 687 695 714 638 670 648 649 650 662 617 704 663 642 617 658 618 685 666 620 604 630 643 613 624 628 618 596 630 603 619 556 609 624 569 547 648 649 623 622 618 590 577 570 623 576 589 568 641 608 607 591 618 599 633 589 553 612 608 619 601 614 616 617 611 594 579 541 546 571 580 611 588 623 591 534 589 561 614 593 573 535 558 581 556 577 543 543 510 523 544 544 562 539 586 583 543 538 565 558 530 594 551 530 588 564 547 522 566 532 543 556 517 558 551 547 547 555 545 565 544 541 523 549 572 540 529 567 559 521 525 567 535 544 591 534 543 562 522 545 533 526 570 530 533 585 504 573 537 546 584 544 518 558 529 566 561 544 530 555 538 527 538 528 536 508 561 532 548 508 508 541 554 537 542 542 572 592 555 573 525 607 572 548 569 522 592 516 542 510 528 529 526 514 528 512 504 517 522 556 516 517 492 547 519 569 525 523 529 505 550 507 560 579 547 551 500 558 610 513 575 548 539 558 535 567 530 533 549 569 544 498 535 480 526 547 510 508 506 512 515 504 541 550 518 579 578 549 535 533 507 532 526 525 541 512 553 543 502 532 522 528 529 556 501 515 497 527 526 525 539 567 543 504 503 505 504 528 531 540 551 555 518 544 565 530 535 578 518 558 504 520 488 574 566 537 532 574 547 508 552 582 529 504 544 500 579 541 532 579 585 543 516 533 519 518 539 555 537 527 517 560 525 527 490 562 550 555 529 517 550 533 538 478 508 556 547 548 572 533 533 534 513 547 576 537 552 549 585 565 506 532 515 526 526 550 538 570 560 550 565 557 545 505 536 533 488 543 529 536 533 510 515 512 535 527 526 518 547 516 509 555 528 521 503 551 500 540 560 520 578 571 579 545 523 504 563 530 539 504 592 542 554 538 568 537 583 530 527 554 525 527 535 518 501 539 518 539 494 537 464 509 538 566 559 528 535 524 548 549 522 535 541 535 576 516 597 535 543 577 580 538 532 550 505 519 547 548 528 521 531 541 596 570 548 556 503 512 555 530 539 562 477 520 575 499 495 544 560 506 516 571 513 559 542 555 540 544 566 547 489 519 527 546 540 517 548 531 538 537 540 514 512 551 539 542 531 571 560 562 543 501 513 575 527 550 533 597 567 530 576 564 555 546 502 569 530 555 554 516 594 569 565 530 587 552 561 568 564 550 559 583 601 571 564 532 578 537 529 572 577 599 570 538 538 551 606 592 564 588 560 573 579 604 611 606 586 542 588 592 525 591 623 551 607 587 614 597 592 523 600 577 530 567 554 591 537 545 561 535 593 559 566 599 568 598 557 574 594 523 574 520 581 583 562 563 560 542 571 558 604 587 556 552 501 569 566 548 579 577 558 564 526 581 556 589 575 570 596 603 616 586 561 583 531 568 577 582 580 594 578 562 611 598 607 557 536 605 578 583 556 586 578 570 605 569 648 596 589 589 559 628 562 569 585 616 603 610 583 596 604 570 581 586 622 578 612 625 650 615 627 618 605 626 617 640 620 648 625 620 625 611 626 610 593 586 644 588 596 609 629 614 602 621 568 616 592 582 611 610 574 611 611 618 606 605 618 634 605 585 600 581 652 564 591 600 577 589 558 605 616 575 578 587 580 565 579 601 578 579 559 562 587 580 567 562 530 612 552 576 607 582 535 573 564 565 598 609 617 580 572 619 593 588 635 553 594 597 602 573 549 627 625 556 638 614 585 620 583 571 590 615 587 594 659 573 592 635 641 598 598 604 564 579 587 659 632 620 588 637 621 590 640 594 667 667 597 613 593 650 634 597 632 616 600 649 592 604 596 627 668 610 620 582 596 562 630 613 613 683 598 609 630 637 571 563 598 588 609 595 609 617 649 634 611 619 588 646 636 655 660 690 671 663 665 624 630 658 676 677 659 714 661 662 696 728 729 711 726 711 768 775 741 738 766 792 769 816 760 802 710 774 749 733 829 815 753 727 781 780 770 770 809 735 820 785 764 805 792 789 821 773 784 811 770 767 801 827 857 818 750 764 822 749 807 757 855 774 771 803 795 760 785 799 765 843 775 785 752 807 741 753 794 760 736 749 759 792 742 745 704 753 707 697 677 732 659 698 681 670 692 704 618 635 653 678 710 652 649 656 679 725 598 622 659 668 685 627 620 594 641 620 614 635 635 613 641 668 633 606 648 666 616 658 606 619 607 620 688 629 670 651 622 641 639 619 642 647 636 625 648 604 654 643 628 622 646 653 680 627 604 612 654 688 695 657 649 703 648 704 719 743 682 747 695 687 751 738 754 765 712 754 717 746 750 746 752 800 751 772 744 753 766 781 781 758 784 769 758 759 742 757 773 758 726 723 758 713 710 720 697 712 722 775 716 697 693 691 744 660 677 645 664 662 675 658 634 663 671 699 674 666 654 636 621 575 627 671 644 620 618 627 629 654 628 602 584 596 616 608 570 590 648 618 585 627 623 597 581 516 566 582 562 510 568 598 592 583 588 599 604 580 573 540 531 575 628 564 603 582 566 573 553 576 503 593 561 587 568 544 554 534 568 580 521 493 548 519 525 567 538 586 565 582 501 571 538 575 578 527 539 550 505 556 598 551 588 591 605 539 539 580 601 606 580 534 582 527 568 587 571 544 536 587 548 597 537 557 558 542 521 583 544 507 592 584 576 552 523 549 550 610 545 579 550 563 558 591 583 561 561 568 540 581 558 513 552 529 547 571 558 529 514 545 526 515 575 553 527 519 593 557 540 553 551 544 572 581 544 571 541 565 557 517 547 585 571 482 571 560 553 533 551 537 560 543 534 558 514 552 526 515 540 568 560 548 554 523 523 549 513 549 539 514 567 529 557 556 539 494 544 501 596 513 529 558 552 511 511 553 547 507 585 558 565 535 593 526 547 568 503 533 529 505 531 537 527 588 518 496 552 546 510 570 539 578 563 571 556 552 536 516 539 541 553 553 523 477 519 572 555 572 538 520 479 518 571 495 491 520 539 557 537 515 526 532 543 528 504 522 559 573 524 544 527 536 565 505 498 513 486 544 513 507 575 527 525 503 552 504 511 571 576 539 528 546 515 568 529 516 543 519 549 536 541 541 501 564 500 570 491 518 487 548 556 570 555 569 545 539 532 548 555 541 556 540 531 578 520 609 569 544 570 589 489 572 520 489 502 528 595 582 558 542 463 546 533 530 554 548 507 579 542 531 524 560 530 546 506 561 543 540 558 546 550 543 546 554 518 560 540 541 542 550 557 547 542 543 557 571 541 543 571 543 584 520 538 504 574 523 539 577 612 535 483 541 526 541 558 523 549 520 611 519 504 525 530 513 528 561 499 552 556 580 547 580 561 526 598 544 543 565 556 533 543 536 517 536 590 547 568 562 506 533 575 543 574 596 582 562 575 543 586 592 590 546 584 565 560 551 591 595 580 576 588 562 598 543 570 600 571 589 590 615 599 643 605 575 602 556 582 595 608 566 590 585 568 568 604 581 605 565 561 576 600 589 585 547 601 557 609 587 599 594 549 564 565 592 568 531 577 519 552 577 535 588 578 589 530 558 517 566 541 505 563 541 556 532 560 534 565 527 564 562 554 562 556 546 558 537 570 538 595 531 526 546 553 568 512 495 566 542 527 548 542 525 540 527 522 519 521 562 521 499 540 516 548 515 542 531 547 548 561 551 531 567 520 563 499 563 561 543 535 545 590 545 534 532 536 565 532 563 593 517 528 563 547 547 555 571 561 588 543 568 543 559 565 575 529 571 542 545 589 530 546 545 584 597 556 525 581 551 541 545 601 550 558 560 584 568 577 547 499 529 548 574 567 530 538 542 541 541 561 562 552 551 581 565 517 560 563 554 570 521 577 528 538 560 591 519 520 548 564 588 588 581 530 554 579 569 566 561 579 617 592 568 610 586 620 560 621 549 571 592 592 604 584 674 640 593 565 571 584 622 602 653 621 612 608 597 646 598 639 616 633 604 598 620 624 579 623 610 643 584 615 603 622 609 664 623 649 650 650 624 592 643 638 690 656 627 643 632 597 663 654 617 634 612 682 614 665 661 642 649 620 666 598 667 669 604 659 638 665 688 695 683 705 698 705 759 692 724 689 728 771 723 747 812 802 754 730 772 712 709 743 751 717 753 733 744 750 766 767 759 736 725 757 738 711 687 723 719 748 748 659 694 750 669 664 662 717 675 657 670 673 653 611 646 667 637 654 647 698 678 648 645 617 681 589 649 596 612 627 616 615 610 633 596 585 626 576 616 561 549 593 605 568 533 621 606 592 611 600 604 563 552 585 585 570 586 588 601 610 563 626 609 582 573 593 577 572 621 592 638 519 599 602 587 601 603 580 619 612 593 606 604 654 636 657 657 573 639 620 629 613 571 583 587 606 601 644 624 593 594 596 605 644 623 628 641 655 640 616 619 664 597 638 562 619 636 609 623 603 573 638 660 607 610 574 599 599 590 599 613 596 617 605 645 583 604 616 581 565 627 572 565 548 616 587 599 582 602 572 569 566 603 556 539 546 582 588 579 598 571 580 543 537 573 613 588 560 548 533 525 618 579 569 562 582 547 586 524 529 548 555 563 576 591 587 556 538 555 561 523 585 546 553 576 528 572 581 535 522 581 554 522 577 599 575 520 515 518 521 576 581 568 560 551 535 569 504 569 540 568 559 540 530 526 574 508 537 575 584 577 574 589 605 548 562 561 549 588 591 584 522 551 551 591 543 554 558 605 534 554 566 514 538 617 563 589 526 537 547 599 548 580 566 547 528 587 571 570 523 560 554 565 537 579 550 558 515 561 577 519 581 582 544 561 526 581 548 536 548 554 526 548 565 534 593 570 577 535 548 564 551 492 531 520 585 526 557 542 567 525 544 558 545 515 521 575 508 529 549 528 524 560 583 548 504 541 561 544 538 577 539 514 527 525 539 537 541 528 561 558 554 550 575 517 537 517 512 541 555 552 566 577 554 540 497 538 549 528 532 540 536 555 540 510 527 542 520 534 526 480 557 548 525 542 504 520 550 561 527 554 526 526 550 597 580 542 534 556 534 562 568 537 561 522 549 576 526 507 529 518 510 553 523 487 552 550 554 579 524 517 568 502 554 525 538 545 519 533 481 537 551 532 571 535 528 520 501 530 548 502 574 567 518 500 546 511 538 542 540 552 559 554 493 538 537 548 530 480 548 561 565 553 537 554 492 495 514 561 546 503 516 524 530 522 521 541 549 501 480 526 554 553 537 549 531 545 540 513 543 542 519 518 533 537 549 549 554 553 529 573 557 553 542 519 553 516 549 534 529 507 508 560 554 546 530 561 528 568 621 557 563 521 492 545 513 536 536 541 526 552 507 563 491 545 538 525 544 503 535 544 546 498 548 557 535 532 526 538 568 563 506 539 547 535 535 566 559 513 517 560 566 509 549 561 533 523 541 575 474 555 537 562 568 587 554 578 545 590 502 563 514 584 563 541 582 552 582 565 562 539 546 542 568 571 554 557 557 572 564 542 513 520 554 547 609 519 605 589 564 546 572 570 538 605 570 559 586 616 554 555 591 549 604 570 536 570 554 579 563 593 566 577 539 600</counts>
			</dataPoints>
		</scan>
	</xrdMeasurement>
</xrdMeasurements>
