<?xml version="1.0"?>
<xrdMeasurements xmlns="http://www.xrdml.com/XRDMeasurement/2.3" xmlns:xsi="http://www.w3.org/2001/XMLSchema-instance" xsi:schemaLocation="http://www.xrdml.com/XRDMeasurement/2.3 http://www.xrdml.com/XRDMeasurement/2.3/XRDMeasurement.xsd" status="Completed" recordIdentifier="{7257C79E-EF48-497F-A499-5B43E59E8C44}">
	<comment>
		<entry/>
	</comment>
	<sample type="To be analyzed">
		<id>GPSS_Li1p4Mn0p4Sc0p6Cl4_121825_6943d914f4d05ae3d69790ae</id>
		<name></name>
		<preparedBy></preparedBy>
	</sample>
	<xrdMeasurement measurementType="Scan" status="Completed" sampleMode="Reflection">
		<usedWavelength intended="K-Alpha 1">
			<kAlpha1 unit="Angstrom">1.5405980</kAlpha1>
			<kAlpha2 unit="Angstrom">1.5444260</kAlpha2>
			<kBeta unit="Angstrom">1.3922500</kBeta>
			<ratioKAlpha2KAlpha1>0.5000</ratioKAlpha2KAlpha1>
		</usedWavelength>
		<incidentBeamPath>
			<radius unit="mm">145.00</radius>
			<xRayTube id="1010048" name="Empyrean Cu LFF HR (9430 033 7310x)">
				<tension unit="kV">40.0</tension>
				<current unit="mA">15.0</current>
				<anodeMaterial>Cu</anodeMaterial>
				<focus type="Line">
					<length unit="mm">12.0</length>
					<width unit="mm">0.4</width>
					<takeOffAngle unit="deg">6.0</takeOffAngle>
				</focus>
			</xRayTube>
			<sollerSlit id="21010002" name="Soller slits 0.04 rad.">
				<opening unit="rad">0.0400</opening>
			</sollerSlit>
			<mask id="22031000" name="Fixed mask 13 mm">
				<width unit="mm">9.00</width>
			</mask>
			<divergenceSlit id="22120001" name="Divergence slit 1°" xsi:type="fixedDivergenceSlitType">
				<distanceToSample unit="mm">50.00</distanceToSample>
				<height unit="mm">1.52</height>
			</divergenceSlit>
		</incidentBeamPath>
		<sampleMovement xsi:type="spinningSampleMovementType">
			<spinnerRevolutionTime unit="seconds">1.0</spinnerRevolutionTime>
		</sampleMovement>
		<diffractedBeamPath>
			<radius unit="mm">145.00</radius>
			<antiScatterSlit id="22090040" name="AS slit 9 mm (PIXcel)" xsi:type="fixedAntiScatterSlitType">
				<height unit="mm">9.00</height>
			</antiScatterSlit>
			<sollerSlit id="21020003" name="Large Soller slits 0.04 rad.">
				<opening unit="rad">0.0400</opening>
			</sollerSlit>
			<filter id="20030001" name="Large beta-filter Nickel">
				<material>Ni</material>
				<thickness unit="mm">0.020</thickness>
			</filter>
			<detector id="7010019" name="PIXcel1D-Medipix3 detector" xsi:type="rtmsDetectorType">
				<phd unit="keV">
					<lowerLevel>4.02</lowerLevel>
					<upperLevel>11.27</upperLevel>
				</phd>
				<mode>Scanning</mode>
				<activeLength unit="deg">5.542</activeLength>
			</detector>
		</diffractedBeamPath>
		<scan appendNumber="0" mode="Continuous" scanAxis="Gonio" status="Completed">
			<header>
				<startTimeStamp>2025-12-22T13:35:10-08:00</startTimeStamp>
				<endTimeStamp>2025-12-22T13:43:17-08:00</endTimeStamp>
				<author>
					<name>AutomatedUser</name>
				</author>
				<source>
					<applicationSoftware version="1.7b (136)">PANalytical Aeris Instrument Suite</applicationSoftware>
					<instrumentControlSoftware version="3.2.00000000 20240306">AERIS</instrumentControlSoftware>
					<instrumentID>950485</instrumentID>
				</source>
			</header>
			<dataPoints>
				<positions axis="2Theta" unit="deg">
					<startPosition>10.00943322</startPosition>
					<endPosition>99.99442286</endPosition>
				</positions>
				<positions axis="Omega" unit="deg">
					<startPosition>5.00471661</startPosition>
					<endPosition>49.99721143</endPosition>
				</positions>
				<commonCountingTime unit="seconds">12.495</commonCountingTime>
				<counts unit="counts">2886 2988 3116 2909 2975 2979 3032 3068 3111 3036 3061 2938 3102 3042 2947 3000 2929 3039 3026 3010 2950 3116 3067 3035 3061 2976 3036 3083 3089 3003 3132 3247 3119 3128 3064 3189 3129 3153 3110 3088 3106 3168 3072 3172 3164 3180 3206 3300 3208 3289 3239 3212 3366 3303 3180 3308 3320 3391 3302 3366 3304 3243 3386 3211 3331 3427 3269 3363 3420 3391 3433 3344 3376 3311 3486 3416 3322 3332 3435 3350 3375 3367 3273 3402 3482 3367 3362 3406 3342 3324 3297 3280 3227 3241 3372 3183 3243 3270 3243 3282 3269 3266 3237 3263 3190 3228 3239 3250 3182 3248 3232 3137 3247 3190 3156 3163 3228 3302 3197 3130 3216 3145 3169 3195 3206 3183 3132 3151 3157 3138 3123 3137 3188 2976 3095 3121 3134 3112 3095 3240 3034 3162 3029 3200 3131 3156 3174 3201 3124 3157 3017 3040 3094 3122 3115 3179 3098 3186 3121 3203 3089 3097 3167 3209 3216 3115 3144 3133 3204 3186 3130 3164 3272 3067 3222 3052 3005 3128 3066 3191 3178 3089 3123 3190 3094 3157 3124 3015 3134 3185 3002 3124 3174 3069 3053 3026 3119 3134 3110 3168 3152 3060 3169 3231 3081 3201 3068 3141 2979 3143 3133 2996 3099 3094 3016 2994 2972 3138 3033 3156 2936 3027 3106 2937 3101 2974 3016 3119 3045 3085 3123 3004 2900 3009 3094 3011 3075 3022 3121 3120 2997 3101 3069 2943 3119 3119 3080 3052 3092 3026 3042 2992 3118 3077 3082 3004 3161 3113 3051 3004 3115 3047 3064 2988 2944 2922 2972 3091 3159 2967 3065 3038 2999 3039 3066 3104 3004 3060 2964 3068 3115 3130 3069 3095 2948 3037 3092 3023 3058 3068 3114 2975 3084 3008 3074 3029 3153 3263 3132 3181 2994 3065 3185 3141 3137 3144 2997 3111 3115 2977 3143 3154 3091 3116 3234 3250 3141 3200 3170 3323 3212 3119 3258 3244 3244 3128 3159 3241 3161 3164 3281 3283 3232 3238 3140 3220 3231 3228 3291 3287 3380 3284 3308 3305 3258 3384 3190 3427 3294 3287 3234 3315 3238 3226 3253 3324 3455 3367 3405 3480 3364 3385 3333 3463 3371 3415 3478 3400 3343 3338 3379 3411 3387 3357 3408 3295 3407 3448 3394 3410 3537 3536 3551 3486 3389 3566 3617 3592 3548 3583 3515 3726 3510 3611 3547 3507 3630 3663 3611 3637 3574 3640 3733 3625 3792 3570 3713 3803 3831 3744 3791 3836 3889 3849 3908 3876 3871 3977 3898 3896 4046 4083 4188 4161 4287 4298 4422 4513 4563 4725 4869 5124 5141 5265 5414 5456 5680 5871 6040 6232 6536 6976 7052 7041 7312 7384 7577 7670 7414 7506 7507 7513 7581 7602 7387 7275 7320 7198 7071 6875 6567 6203 5808 5479 4951 4668 4365 4247 4071 4016 3853 3780 3745 3792 3597 3624 3550 3732 3653 3628 3706 3506 3650 3536 3484 3475 3533 3461 3600 3487 3481 3543 3492 3517 3470 3391 3578 3447 3415 3554 3437 3399 3452 3410 3532 3466 3285 3309 3417 3372 3308 3385 3330 3402 3396 3381 3281 3305 3311 3264 3303 3254 3275 3239 3223 3245 3209 3362 3318 3222 3211 3346 3208 3343 3340 3330 3383 3305 3232 3148 3259 3347 3290 3301 3331 3325 3346 3356 3316 3414 3408 3388 3375 3483 3451 3379 3457 3485 3524 3423 3484 3485 3478 3378 3426 3439 3297 3247 3210 3315 3193 3324 3205 3169 3214 3058 3188 3124 3218 3060 3124 3030 3010 2975 3099 3081 3078 3031 3059 3016 3002 3125 2943 2988 3055 2989 2968 2972 2969 2911 2942 3002 2886 3044 2919 2948 3061 2924 2927 2852 2902 2892 2863 2992 2961 2941 2931 2949 3013 2911 3018 2955 2824 2959 2871 2975 3003 2935 2997 2945 2989 2804 2930 2924 2849 2867 2984 3004 2999 2884 2850 2887 2879 2920 2909 2894 2904 2880 2973 2825 2913 2846 2912 2860 2887 2828 2853 2745 2909 2907 2884 2877 2763 2918 2987 2903 2848 2782 2860 2805 2813 2919 2868 2850 2812 2865 2880 2806 2817 2780 2849 2860 2833 2817 2902 2775 2883 2897 2932 2789 2746 2849 2773 2791 2899 2829 2870 2841 2843 2830 2858 2832 2846 2761 2785 2919 2771 2714 2758 2863 2822 2884 2765 2876 2744 2868 2857 2886 2887 2947 2947 2933 2947 3011 2997 2934 3075 2953 2983 3005 3042 3043 3016 2974 3009 2973 3004 2934 2916 2899 2907 2905 2916 2876 2898 2826 2849 2825 2844 2765 2791 2710 2828 2813 2819 2857 2813 2695 2741 2698 2718 2802 2656 2724 2752 2602 2790 2731 2654 2882 2692 2714 2710 2641 2689 2748 2720 2725 2781 2682 2745 2726 2710 2793 2697 2794 2646 2686 2699 2731 2680 2802 2717 2642 2745 2715 2586 2711 2707 2732 2760 2687 2772 2621 2679 2740 2742 2676 2785 2675 2647 2722 2692 2615 2698 2687 2772 2663 2662 2617 2652 2723 2692 2646 2673 2733 2624 2587 2601 2717 2662 2655 2639 2630 2628 2597 2627 2719 2557 2616 2587 2603 2597 2542 2612 2650 2616 2632 2621 2539 2601 2594 2538 2582 2580 2636 2606 2578 2594 2561 2579 2508 2652 2543 2486 2483 2559 2539 2541 2574 2460 2513 2596 2554 2571 2500 2588 2570 2524 2556 2660 2514 2537 2561 2460 2651 2523 2454 2477 2564 2591 2561 2534 2526 2562 2562 2550 2528 2532 2529 2519 2579 2463 2569 2527 2547 2363 2359 2474 2479 2457 2523 2539 2551 2470 2421 2550 2533 2584 2596 2626 2609 2688 2569 2525 2640 2616 2678 2649 2574 2658 2665 2607 2596 2530 2637 2555 2596 2580 2533 2490 2527 2574 2560 2561 2546 2554 2476 2491 2522 2491 2523 2505 2494 2408 2444 2495 2534 2509 2433 2497 2389 2431 2439 2459 2471 2455 2388 2516 2375 2415 2445 2423 2420 2511 2359 2401 2414 2306 2461 2437 2386 2550 2393 2461 2380 2401 2314 2399 2455 2489 2481 2455 2540 2463 2517 2388 2341 2420 2466 2327 2384 2370 2418 2372 2362 2344 2458 2368 2424 2353 2431 2406 2479 2411 2419 2401 2509 2417 2438 2438 2431 2378 2465 2419 2410 2353 2435 2451 2367 2456 2426 2536 2364 2421 2500 2411 2465 2504 2452 2438 2517 2456 2436 2435 2374 2400 2344 2451 2424 2488 2423 2435 2381 2430 2494 2359 2476 2418 2386 2466 2355 2476 2430 2531 2446 2507 2546 2476 2417 2466 2450 2427 2375 2393 2392 2430 2386 2489 2414 2407 2396 2366 2341 2450 2454 2422 2375 2408 2360 2402 2460 2328 2385 2437 2391 2455 2365 2427 2429 2356 2391 2407 2299 2378 2415 2317 2480 2332 2412 2398 2398 2318 2371 2336 2339 2308 2464 2273 2429 2417 2352 2344 2376 2292 2369 2441 2373 2343 2360 2361 2274 2348 2391 2357 2322 2249 2331 2246 2239 2274 2272 2292 2328 2316 2292 2344 2259 2360 2167 2248 2285 2217 2287 2331 2200 2187 2247 2160 2258 2220 2223 2246 2226 2199 2260 2281 2240 2285 2198 2207 2271 2180 2175 2138 2145 2155 2148 2234 2175 2220 2206 2133 2119 2231 2127 2092 2195 2081 2200 2229 2094 2147 2130 2111 2058 2094 2160 2081 2022 1989 2069 2152 2134 2042 2152 2018 2120 2086 2123 2146 2046 2127 2085 2101 2066 2057 2048 1970 2007 1971 1942 1994 2059 1982 2074 2054 1976 1996 2034 2000 1910 2021 1981 2038 2063 2045 2009 2025 1962 2074 2070 2070 2088 2014 2023 2037 2085 2090 1982 2031 2001 1995 2089 2003 2024 1950 1966 1997 1900 2071 1993 1954 1966 1872 1967 1886 1936 1831 1839 1911 1914 1826 1914 1907 1838 1865 1827 1862 1769 1851 1802 1859 1806 1761 1781 1796 1781 1804 1927 1868 1853 1750 1786 1773 1838 1839 1732 1747 1822 1810 1725 1783 1850 1724 1769 1755 1795 1843 1771 1922 1784 1778 1813 1795 1729 1882 1804 1765 1809 1723 1687 1819 1753 1710 1783 1761 1766 1772 1787 1784 1762 1754 1786 1774 1802 1772 1770 1685 1672 1673 1878 1824 1781 1777 1771 1764 1691 1720 1762 1783 1776 1793 1782 1818 1792 1770 1793 1718 1866 1784 1774 1784 1746 1822 1828 1758 1809 1777 1743 1813 1760 1832 1787 1738 1746 1736 1832 1882 1862 1900 1915 1832 1855 1746 1832 1775 1787 1728 1842 1786 1732 1781 1772 1791 1714 1845 1762 1831 1807 1791 1785 1783 1750 1768 1700 1802 1725 1719 1715 1804 1794 1690 1773 1758 1770 1734 1809 1755 1711 1759 1697 1772 1752 1654 1756 1712 1797 1767 1690 1840 1720 1821 1725 1749 1777 1775 1871 1731 1824 1705 1742 1721 1737 1681 1750 1757 1777 1658 1805 1690 1782 1741 1717 1796 1752 1716 1766 1725 1711 1739 1803 1749 1738 1697 1740 1744 1678 1816 1769 1770 1666 1752 1754 1725 1748 1757 1782 1828 1760 1700 1725 1739 1689 1759 1713 1821 1712 1654 1708 1714 1649 1830 1693 1699 1658 1735 1632 1716 1675 1742 1764 1627 1760 1697 1630 1709 1726 1717 1704 1698 1803 1818 1731 1743 1688 1679 1700 1696 1706 1677 1699 1598 1735 1687 1721 1718 1693 1654 1708 1698 1603 1624 1684 1706 1694 1663 1681 1589 1652 1627 1699 1631 1628 1672 1578 1668 1609 1695 1648 1592 1630 1596 1545 1555 1599 1632 1626 1633 1591 1589 1646 1625 1569 1624 1588 1576 1551 1557 1602 1567 1637 1553 1555 1586 1519 1493 1518 1578 1519 1520 1551 1572 1547 1473 1534 1506 1500 1528 1571 1500 1553 1501 1571 1563 1480 1520 1566 1459 1504 1509 1576 1483 1407 1495 1475 1475 1558 1543 1553 1424 1502 1466 1500 1470 1483 1451 1489 1434 1509 1465 1519 1382 1576 1481 1499 1512 1445 1419 1476 1550 1476 1417 1482 1506 1442 1461 1514 1395 1488 1405 1452 1494 1445 1483 1419 1383 1460 1467 1446 1456 1411 1369 1441 1495 1412 1397 1509 1476 1434 1410 1478 1453 1389 1517 1444 1485 1484 1486 1519 1496 1586 1545 1620 1673 1616 1687 1718 1852 1846 1960 2021 2048 2157 2263 2309 2330 2330 2417 2421 2318 2468 2286 2272 2306 2282 2168 2182 2131 2069 1954 1998 1885 1807 1717 1704 1652 1565 1564 1483 1468 1390 1414 1375 1382 1341 1317 1323 1361 1350 1415 1353 1353 1290 1372 1294 1349 1306 1272 1336 1366 1321 1359 1299 1308 1288 1244 1338 1255 1294 1290 1273 1307 1329 1255 1319 1398 1287 1267 1319 1299 1276 1252 1246 1313 1331 1253 1274 1292 1323 1283 1332 1332 1299 1337 1315 1356 1326 1336 1335 1267 1344 1336 1301 1324 1346 1382 1363 1424 1367 1436 1471 1449 1496 1535 1477 1531 1658 1696 1638 1761 1909 2035 2025 2240 2309 2475 2641 2964 3042 3390 3685 3892 4234 4463 4595 4867 4930 5087 5221 5232 5269 5165 5185 4889 4891 4793 4771 4624 4593 4456 4517 4315 4018 3967 3942 3803 3750 3710 3697 3539 3581 3365 3424 3263 3293 3237 3224 3083 3079 3006 2854 2823 2649 2565 2420 2392 2253 2206 2112 2004 1838 1898 1756 1763 1660 1538 1636 1494 1466 1443 1389 1401 1319 1259 1301 1267 1233 1233 1276 1208 1258 1155 1166 1156 1151 1113 1150 1129 1093 1126 1218 1228 1144 1129 1160 1195 1173 1109 1126 1160 1146 1152 1133 1155 1108 1184 1137 1152 1168 1146 1085 1091 1096 1136 1126 1180 1159 1134 1077 1151 1111 1135 1086 1134 1105 1160 1114 1113 1089 1168 1110 1119 1130 1111 1091 1146 1091 1091 1088 1137 1173 1148 1113 1112 1031 1108 1083 1093 1056 1121 1058 1064 1123 1081 1074 1162 1014 1079 1072 1105 1050 1042 1042 1024 1063 1072 1024 1067 1060 1008 1062 1057 1115 1099 1093 1088 1083 1054 1095 1091 1093 1167 1052 1053 1085 1016 1003 1131 1032 1030 1037 1088 1034 1067 1045 1043 1028 1082 1030 1022 1055 1079 1048 1073 1067 1031 1065 1072 1031 1075 1065 1083 1107 1032 1039 1055 1060 1070 1076 994 1097 1084 1034 1087 1072 1042 1034 1067 1085 1118 1049 1022 1035 1058 1037 1020 1012 1062 964 1034 1023 1006 1030 1051 1013 1011 1054 1010 1039 1000 957 1032 1030 953 1026 967 1041 970 971 993 942 1002 957 999 1014 989 981 996 1014 1017 1083 982 1029 953 1011 908 1027 952 1009 1024 1005 993 1054 1007 972 1011 1012 1036 991 950 1026 975 986 966 991 958 1001 1046 1019 977 1002 1027 1019 1067 990 988 1041 1014 983 1026 1006 996 984 1083 1025 1013 976 975 1020 1017 1001 1047 968 1023 969 934 996 957 984 943 983 946 970 1014 944 943 958 908 995 1008 1018 976 1060 998 1031 1027 1039 1002 1011 1056 1025 1079 1003 1059 1021 1033 985 1129 1047 1061 1038 1051 1010 1038 1035 1065 994 1078 1044 1038 1069 1083 1033 1077 1101 1048 1082 1081 1095 1095 1152 1096 1104 1087 1054 1032 1070 1147 1073 1080 1146 1159 1107 1144 1111 1090 1081 1186 1188 1158 1151 1200 1150 1134 1217 1231 1208 1249 1197 1229 1306 1280 1241 1326 1278 1424 1314 1319 1404 1343 1481 1437 1414 1458 1488 1517 1490 1535 1606 1671 1736 1807 1900 1912 2146 2247 2353 2543 2745 2982 3132 3502 3913 4402 4877 5428 6164 6497 7466 8478 8849 9776 10460 11055 11716 12207 12488 12711 13181 12971 13070 12721 12501 12058 11783 11144 10701 10077 9582 8976 8244 7389 6738 6161 5588 4985 4648 4068 3717 3421 3039 2792 2474 2254 2106 1856 1718 1647 1641 1567 1504 1401 1462 1393 1365 1390 1357 1242 1210 1304 1226 1232 1230 1214 1183 1208 1118 1165 1173 1141 1068 1137 1102 1090 1069 1049 1039 1058 1004 1047 1056 1051 1015 1006 1108 976 1009 1016 966 1002 972 1020 979 1014 976 970 961 1001 1008 1012 991 1023 973 981 937 944 916 944 896 928 882 897 968 943 961 926 960 925 957 951 967 972 945 954 904 941 987 932 936 980 994 892 904 949 967 926 960 917 916 899 963 925 1000 936 935 891 903 905 914 922 924 884 915 924 912 932 885 913 952 939 903 952 981 886 930 947 959 902 922 964 918 926 906 932 940 933 936 946 967 963 922 934 983 859 937 1009 900 912 889 971 957 886 934 989 923 989 902 982 970 906 916 927 902 945 919 881 903 891 913 932 868 869 918 870 1002 851 923 855 897 865 983 837 869 882 897 873 914 858 902 859 878 879 850 874 934 855 842 812 850 872 885 867 842 943 903 847 907 876 902 938 897 923 906 862 887 829 868 895 879 840 937 849 856 920 864 883 892 866 891 881 876 914 853 878 867 853 863 806 876 836 856 855 870 904 806 832 890 866 851 796 878 859 830 841 847 843 890 878 876 861 843 844 896 860 832 961 863 899 921 946 955 967 976 933 954 983 976 971 1000 970 969 947 933 910 920 980 885 856 983 947 891 866 861 875 839 793 849 909 908 821 910 843 856 865 875 895 823 861 775 807 805 878 863 886 822 808 781 811 804 799 844 766 833 826 851 769 803 853 766 835 779 764 808 829 726 817 811 735 744 760 789 819 801 813 841 813 835 772 746 825 763 789 756 801 767 810 803 837 819 845 751 799 770 802 803 747 792 761 770 719 804 802 830 788 810 771 826 795 798 781 762 772 741 749 788 764 831 799 762 724 769 786 820 777 777 762 745 770 743 743 760 806 757 772 789 785 806 807 797 748 742 773 762 748 768 777 844 742 785 829 773 820 743 844 795 791 813 789 835 855 834 813 819 799 823 794 773 760 754 795 809 782 827 791 795 838 799 731 780 773 779 761 814 805 739 757 743 769 777 755 753 793 803 714 785 762 727 771 774 764 777 787 781 725 763 692 740 727 762 725 685 742 760 757 714 737 754 705 754 685 701 761 738 756 685 794 732 746 766 735 766 724 768 743 773 726 767 753 709 749 728 769 739 741 749 738 774 780 786 763 743 770 729 730 727 760 732 725 769 694 742 795 726 750 737 766 743 732 723 741 783 723 723 716 738 789 772 769 756 694 743 786 791 713 758 767 760 731 751 720 787 727 726 781 758 710 764 756 790 763 778 746 782 752 715 794 745 722 737 750 751 764 695 769 740 758 766 770 763 743 759 739 759 767 745 802 767 752 753 777 828 736 808 734 724 798 776 767 855 778 771 716 751 785 727 773 751 773 765 796 733 719 731 785 754 771 795 837 790 741 743 711 744 768 755 791 754 775 732 808 749 788 777 810 758 739 740 706 718 741 768 742 756 777 816 795 826 725 813 716 743 705 739 756 746 768 742 734 749 731 731 757 690 730 772 758 685 771 681 772 738 739 753 740 734 751 728 774 694 728 745 733 738 689 697 733 701 707 751 784 711 809 730 724 736 724 738 725 693 725 747 805 760 764 674 739 676 706 752 735 708 688 779 732 708 696 741 681 783 757 713 743 746 783 729 730 718 748 724 747 671 745 732 719 738 715 729 723 676 759 702 785 756 770 760 763 795 756 794 801 759 790 797 769 759 806 825 788 835 829 833 824 755 737 782 744 803 738 788 783 741 731 744 700 754 766 769 748 737 763 752 702 767 737 757 747 715 701 704 687 676 725 751 701 684 723 727 650 687 751 714 717 713 760 746 735 722 779 686 732 772 775 713 741 787 727 748 736 787 787 710 740 762 707 727 808 758 722 759 765 769 777 737 808 743 750 766 760 796 723 755 734 730 744 740 695 747 705 731 771 756 713 797 689 737 714 740 708 711 699 763 712 743 736 781 750 716 780 664 737 719 745 682 742 713 714 679 702 741 702 708 749 702 715 739 714 792 728 788 757 765 739 701 706 735 722 718 805 716 763 734 704 702 704 734 728 746 749 741 737 758 707 759 703 736 729 771 718 715 743 734 780 732 806 766 749 754 741 730 772 759 785 744 782 773 763 818 752 802 759 793 780 813 822 829 872 800 822 781 801 853 843 908 888 946 939 1009 1049 1011 1093 1055 1173 1308 1276 1311 1297 1359 1480 1445 1454 1424 1558 1475 1405 1477 1492 1484 1413 1440 1434 1328 1307 1322 1178 1235 1138 1177 1076 1128 1055 995 991 941 927 904 884 833 836 804 832 837 783 772 754 747 819 716 795 732 731 812 794 775 740 778 791 761 785 775 772 790 714 757 779 736 781 796 787 805 776 783 802 734 716 720 641 754 732 751 733 711 753 749 710 696 771 737 719 735 717 722 713 757 744 726 712 728 695 744 711 726 700 740 706 730 726 745 764 756 734 705 727 710 698 736 723 790 757 689 730 750 737 779 760 794 744 711 761 762 697 736 763 760 783 726 750 723 802 682 735 729 737 750 723 716 691 656 706 688 702 760 698 727 721 709 725 691 654 700 755 672 728 645 646 683 713 658 699 651 683 700 712 684 691 693 687 699 752 674 648 656 694 683 735 698 721 659 710 681 707 680 689 656 671 684 636 649 696 689 703 719 699 722 674 668 703 692 707 671 741 662 701 689 694 704 722 720 710 676 663 778 715 750 691 680 733 689 746 706 667 720 729 743 665 714 719 720 698 681 662 695 719 655 741 716 697 718 735 702 746 705 686 733 742 715 704 719 728 720 720 722 763 745 701 732 753 731 719 765 786 723 786 749 732 718 779 757 727 793 760 736 688 736 689 688 675 760 763 685 754 729 723 749 720 700 712 662 708 747 762 776 826 756 695 785 690 768 766 748 798 762 710 724 778 755 750 756 739 778 776 774 806 742 780 754 760 805 744 782 792 798 792 790 828 781 800 849 845 821 797 823 810 875 792 878 823 896 801 886 886 917 929 946 918 921 987 1052 1025 1090 1132 1161 1257 1338 1390 1418 1591 1847 1951 2149 2350 2667 2936 3082 3510 3586 3655 3846 3991 3932 4037 3862 3994 3980 3939 3972 3879 3742 3731 3688 3768 3616 3566 3574 3524 3479 3477 3522 3518 3494 3527 3538 3633 3650 3567 3630 3563 3561 3521 3386 3494 3392 3417 3365 3204 3060 2940 2863 2791 2586 2464 2325 2314 2161 2136 1962 1821 1719 1584 1558 1474 1399 1338 1319 1188 1196 1128 1088 1037 1063 995 948 957 969 844 920 885 897 816 884 852 848 845 788 827 775 825 839 798 827 726 821 789 822 778 789 743 765 781 691 761 733 766 773 723 692 746 726 744 688 752 746 731 712 704 766 699 711 655 678 679 741 715 690 698 705 700 695 682 684 690 690 651 761 710 709 661 681 648 675 690 692 635 678 721 655 737 763 695 676 655 713 644 708 678 707 694 712 650 699 642 665 705 689 661 665 685 660 691 713 650 738 706 633 670 676 657 677 666 662 644 663 693 674 681 675 696 708 682 653 706 709 665 683 690 719 635 661 645 662 623 674 619 680 649 673 672 691 737 671 692 689 663 693 662 742 700 775 735 747 751 754 778 756 832 853 869 922 1043 996 1045 1070 1127 1128 1198 1208 1215 1220 1213 1170 1148 1147 1161 1072 1051 1094 1059 1091 991 1057 965 948 915 937 879 850 833 842 818 757 707 739 761 724 719 686 666 624 645 670 729 655 645 722 659 610 656 625 684 686 650 654 597 645 657 667 632 674 605 619 646 648 675 645 624 623 660 617 630 647 620 629 602 624 689 601 596 614 553 656 608 610 633 612 637 622 626 630 601 620 620 646 637 616 658 652 658 588 693 614 659 594 613 602 664 671 640 613 653 680 636 651 626 620 610 617 631 626 630 612 593 603 619 680 609 625 572 623 643 632 610 618 615 592 606 640 619 600 599 605 645 554 587 605 613 602 580 593 643 587 640 614 664 595 620 632 600 621 611 617 653 579 629 623 605 556 613 570 671 580 657 602 578 628 604 610 592 600 654 581 593 609 582 617 621 604 596 592 622 615 661 632 598 624 583 587 600 604 592 625 577 637 624 566 614 601 671 608 612 566 633 579 560 629 604 640 621 599 604 651 619 634 593 581 573 596 573 581 612 588 616 595 624 585 563 551 584 605 605 604 578 628 632 594 605 567 595 577 589 598 587 565 635 585 654 628 624 636 611 665 623 601 583 659 604 610 622 593 612 642 622 605 608 591 639 616 622 644 607 681 631 624 618 601 585 612 598 639 607 563 627 528 615 571 614 631 582 602 577 623 579 591 546 643 613 566 547 603 617 574 564 589 564 607 583 620 556 607 578 602 620 623 578 579 573 566 580 585 586 567 604 586 623 554 622 575 581 564 584 588 567 609 596 553 596 603 614 582 607 632 571 561 559 569 630 576 599 576 563 566 583 568 568 598 589 556 567 563 603 533 593 590 579 575 610 562 545 568 569 561 538 595 563 581 555 554 606 601 569 578 568 583 580 533 574 543 562 612 585 541 590 526 544 549 569 565 595 581 528 606 538 585 588 627 574 561 592 581 621 580 603 581 569 595 547 532 587 625 597 612 570 582 592 598 575 600 578 548 581 594 595 562 571 611 587 568 602 543 557 550 558 606 564 608 533 573 593 569 589 608 574 604 584 558 591 560 572 548 572 548 561 568 554 568 561 588 569 571 573 567 566 592 575 582 572 593 567 628 606 623 564 562 612 617 602 612 544 528 597 574 557 584 606 589 555 548 628 601 553 573 568 544 564 564 561 533 589 555 612 614 585 584 584 585 630 579 615 604 567 611 578 534 602 572 579 651 554 591 596 555 610 631 592 586 629 595 562 580 593 569 594 605 608 622 566 605 632 677 659 669 696 644 669 718 668 657 625 680 700 658 719 661 656 679 638 693 654 706 630 659 654 647 660 641 635 628 596 652 652 636 646 609 629 605 603 610 636 645 634 595 621 693 613 598 583 655 646 682 693 676 656 632 618 651 673 733 717 671 748 691 753 799 815 805 854 799 866 918 935 949 973 1063 1030 1073 1065 1120 1139 1187 1185 1293 1259 1241 1220 1272 1251 1242 1140 1269 1218 1231 1233 1203 1186 1164 1198 1115 1154 1051 1022 1181 1088 1122 1044 1001 991 998 958 965 993 955 922 934 867 853 936 903 865 818 820 787 830 784 821 820 786 697 751 730 739 715 711 654 691 673 673 664 666 639 608 653 625 654 625 660 600 631 601 589 643 576 621 625 630 621 624 576 572 621 587 589 537 583 566 602 610 588 617 592 605 577 588 594 565 549 585 580 562 538 613 595 627 566 608 579 567 635 582 599 590 563 595 569 551 585 589 576 562 574 614 611 580 562 564 631 589 576 602 572 576 581 605 596 583 562 573 572 616 548 569 600 608 545 557 576 569 564 576 579 598 562 611 603 555 548 581 569 565 572 648 588 579 618 615 601 599 587 564 577 565 627 590 601 622 586 572 570 552 613 555 559 618 598 573 576 582 549 548 536 533 601 557 586 553 586 603 594 564 612 579 597 539 574 592 627 616 630 625 585 602 615 637 639 585 607 636 635 597 620 619 650 590 651 603 660 601 646 634 643 676 652 661 645 664 696 643 671 662 694 699 690 654 700 696 719 793 777 825 815 924 930 960 1062 1153 1252 1298 1340 1412 1509 1560 1636 1673 1618 1653 1622 1614 1561 1543 1460 1524 1433 1449 1464 1465 1366 1361 1327 1338 1359 1271 1237 1179 1094 1086 1004 1090 952 981 956 928 859 903 908 845 868 833 832 872 882 894 896 928 856 936 896 929 866 897 922 902 940 820 946 942 945 897 923 948 912 873 856 842 867 882 818 745 810 757 816 791 838 765 764 825 698 768 756 698 692 651 640 653 653 672 679 691 686 651 668 641 622 605 609 618 619 620 619 694 618 639 626 667 720 639 667 660 649 710 656 634 633 653 597 599 616 566 625 594 646 652 633 638 618 621 575 584 544 575 601 571 576 544 603 578 555 564 594 559 529 557 542 510 569 552 548 531 530 556 521 533 543 559 555 506 592 534 558 569 566 529 598 545 586 583 549 526 551 546 548 550 576 605 549 552 550 574 556 558 543 562 567 587 551 579 536 533 536 574 569 595 566 542 611 601 587 563 563 577 620 518 579 574 604 625 559 582 624 596 570 560 572 587 619 574 632 631 591 661 679 629 645 664 691 688 702 669 733 699 719 738 771 707 813 742 715 729 731 707 717 811 736 727 726 693 721 707 706 753 674 671 671 683 634 648 627 671 605 648 605 655 580 615 613 615 588 546 583 608 598 556 579 516 571 561 557 604 575 602 585 522 547 563 557 565 544 554 535 496 561 525 530 504 520 528 576 536 573 513 552 551 566 556 585 545 533 556 524 567 579 553 531 544 535 534 524 525 500 508 509 538 555 569 476 514 553 559 566 548 522 536 554 492 583 490 545 529 479 493 514 519 534 526 523 530 540 557 497 532 542 529 518 509 563 540 534 546 514 537 516 514 535 549 483 552 488 509 504 538 500 527 526 501 521 523 502 499 531 573 522 502 510 522 526 541 498 541 536 547 539 516 512 526 528 517 516 520 502 556 508 510 474 500 517 526 510 508 541 524 520 502 499 494 503 517 532 510 521 514 521 528 477 501 503 482 531 511 541 489 519 506 494 530 513 536 528 505 531 490 528 510 537 498 516 497 523 500 505 550 552 571 508 523 526 499 506 510 511 546 513 517 509 512 509 507 529 480 504 484 496 472 493 500 520 495 526 517 500 508 462 523 500 541 521 529 470 520 493 539 506 518 483 528 527 487 544 490 531 517 496 518 484 530 490 494 542 486 513 475 493 494 513 525 532 496 480 545 508 503 497 514 535 537 489 495 540 524 559 537 456 532 498 460 525 477 507 538 448 495 496 513 512 527 523 539 527 536 502 515 511 521 563 490 565 543 521 539 512 528 479 497 516 498 554 509 554 566 554 502 497 525 547 546 556 480 509 565 519 519 495 503 490 534 478 490 513 486 505 523 511 479 509 472 482 498 498 505 514 558 480 500 532 521 511 516 492 525 519 487 480 526 498 508 515 510 533 526 506 564 500 519 484 518 522 580 454 499 525 506 526 521 506 495 490 510 526 489 495 526 495 470 540 504 535 495 515 527 502 473 542 481 519 496 518 488 523 513 515 549 481 529 475 563 538 528 504 514 513 512 506 523 512 523 519 549 520 495 506 498 514 527 521 523 561 555 532 536 504 514 525 505 497 554 515 553 552 560 523 534 561 563 604 592 574 541 577 595 558 591 656 598 608 608 546 624 595 600 567 610 599 600 534 587 553 576 564 561 535 574 575 579 565 594 530 547 540 546 513 553 517 549 524 521 533 529 497 509 526 511 503 546 529 489 515 529 496 488 499 537 503 525 514 499 511 525 481 499 472 505 509 488 519 514 468 518 510 502 514 497 477 516 472 525 446 484 498 514 511 490 466 495 514 523 492 509 531 485 472 496 496 501 498 502 540 490 495 526 506 493 486 466 500 502 480 493 495 507 500 490 513 524 496 491 503 507 504 500 514 479 499 471 501 453 509 497 506 523 506 493 490 472 484 483 481 480 453 476 514 533 454 503 459 492 470 487 465 474 506 490 498 524 490 461 464 497 520 504 509 493 471 520 517 504 469 520 483 478 532 491 539 513 535 476 472 502 462 508 544 525 508 451 495 491 482 505 487 538 494 495 468 536 513 527 506 500 522 507 522 507 492 498 512 512 493 491 481 495 508 495 504 528 506 525 504 497 481 471 465 514 507 482 469 477 529 485 510 488 487 526 532 495 496 523 510 511 526 459 518 508 521 532 514 540 514 473 512 542 511 481 497 564 523 488 513 533 519 500 499 469 529 528 496 602 515 562 561 517 558 527 550 535 539 530 586 586 589 515 557 607 566 571 553 593 584 617 646 615 594 648 633 671 683 765 747 762 831 850 827 860 826 959 865 945 903 950 949 970 972 979 956 984 973 968 963 932 945 892 909 930 906 899 857 934 920 890 880 848 823 775 830 783 733 755 699 670 698 702 655 654 581 628 626 623 632 599 584 567 585 543 550 604 566 543 550 550 564 535 541 545 528 524 491 500 478 495 540 508 498 489 546 521 522 529 520 495 499 482 515 567 472 521 518 479 501 469 524 542 499 476 487 548 492 528 494 480 524 520 495 501 530 505 469 489 479 515 520 482 537 508 482 514 498 509 460 489 495 474 474 503 481 498 508 514 511 523 511 533 480 476 523 511 514 515 519 517 485 462 468 476 488 497 527 502 492 475 512 493 474 470 485 466 500 488 512 479 478 485 462 506 503 530 473 493 506 488 457 511 475 469 488 454 505 494 502 490 490 528 455 477 499 519 487 520 500 487 501 481 491 484 488 491 437 495 476 501 456 496 522 450 495 496 475 468 489 497 530 522 477 468 497 490 485 442 483 500 475 497 500 480 481 462 497 466 502 500 485 475 515 455 478 506 494 468 501 514 487 510 504 499 481 472 488 482 500 447 481 486 488 502 454 500 517 486 463 480 469 509 510 480 495 501 439 523 468 441 481 506 438 483 493 482 486 444 471 454 469 463 499 466 463 523 421 519 500 501 465 432 489 485 512 505 444 514 467 506 552 500 479 462 515 487 489 469 501 471 485 483 527 506 471 500 495 501 476 476 496 484 472 460 469 501 490 471 499 468 483 467 459 459 507 457 457 467 459 495 467 475 497 481 474 479 467 501 505 524 474 520 502 514 508 476 524 527 550 478 488 495 479 458 495 490 473 466 481 501 456 501 511 521 505 496 514 483 498 455 482 445 478 513 478 482 502 530 505 487 524 512 453 522 443 499 471 468 471 481 523 492 459 494 472 507 515 479 475 476 446 506 482 486 500 487 487 500 477 495 480 517 481 507 493 466 498 488 508 488 494 500 490 507 471 487 467 494 463 495 484 488 524 489 469 477 511 464 472 487 519 527 485 471 528 465 492 547 492 460 468 485 491 470 481 463 500 493 484 500 486 503 446 464 488 462 484 478 457 469 452 467 478 491 461 476 449 469 560 478 499 483 463 516 452 453 482 477 487 510 469 449 459 470 454 480 463 502 464 467 453 473 488 487 509 496 472 505 491 440 485 502 493 485 491 511 472 490 451 477 500 492 513 498 484 498 511 439 526 518 483 451 494 456 482 510 491 502 506 457 495 482 473 519 505 448 475 474 489 499 498 486 462 520 469 484 488 528 475 477 525 523 457 483 483 513 465 480 506 449 449 447 511 510 464 496 557 514 507 455 506 528 472 547 547 488 477 545 490 502 493 488 501 472 509 539 473 499 445 519 473 496 505 497 497 461 492 494 509 491 529 471 501 514 555 472 486 496 478 490 550 545 504 533 475 532 548 531 571 557 533 524 570 552 541 557 535 522 563 518 533 494 524 538 545 551 545 558 502 522 529 523 554 510 539 508 539 560 566 523 558 514 509 515 504 550 538 523 508 558 528 532 539 518 544 558 578 546 571 537 536 557 583 582 635 646 582 667 676 644 631 652 645 662 659 668 651 647 650 565 672 635 648 657 617 609 645 600 669 697 692 624 687 679 659 636 651 649 650 628 605 644 622 625 612 586 603 578 612 597 614 609 581 626 590 534 617 619 583 603 624 622 652 595 611 597 589 538 580 602 555 581 558 545 566 574 560 578 571 560 546 575 555 554 570 565 565 550 569 525 529 589 548 577 561 534 524 557 565 534 550 542 563 532 528 574 528 540 519 541 499 560 494 526 503 511 486 542 521 507 499 508 570 476 510 508 530 520 515 501 508 519 573 535 540 520 553 533 561 570 474 513 513 569 494 535 548 535 489 475 523 522 498 493 520 512 529 521 481 552 537 488 596 525 538 487 457 509 545 540 538 517 531 503 525 542 496 501 496 553 494 509 528 539 535 549 529 536 528 533 517 515 545 527 543 546 527 585 518 543 536 529 552 527 533 520 591 567 497 584 525 541 576 579 569 570 548 578 623 611 580 587 598 599 606 568 635 608 659 691 642 716 699 710 810 862 863 886 922 982 1011 1070 1031 1079 1149 1134 1117 1073 1067 1072 1062 1011 1044 960 991 924 1027 918 949 966 976 947 962 970 971 1038 1050 1036 1030 1046 1023 1051 1016 1037 1035 1079 1039 1019 1023 1058 1013 1079 959 1021 985 1043 959 992 983 974 945 971 966 922 1018 937 981 930 884 883 864 888 832 889 874 852 835 832 785 801 817 791 767 721 774 729 722 678 695 692 702 710 689 632 644 696 628 629 613 640 583 613 566 633 599 601 627 597 593 614 583 490 556 571 563 565 562 604 536 563 576 564 554 553 591 554 585 550 519 588 533 530 520 538 528 515 538 517 532 520 553 506 524 552 516 545 516 524 499 536 534 536 541 540 553 545 550 535 535 513 520 533 519 527 499 529 524 480 530 521 534 582 498 548 501 531 536 552 520 507 505 507 515 527 500 522 516 537 511 558 558 538 536 528 544 443 556 494 533 553 514 567 539 543 564 561 547 547 558 551 554 542 544 545 610 550 561 579 574 553 563 569 581 532 555 608 532 605 562 573 581 566 540 556 567 534 556 533 616 535 537 565 551 534 515 543 528 549 592 542 520 539 555 540 517 515 536 577 523 516 477 554 505 569 520 511 506 492 483 518 540 492 526 549 490 505 483 496 522 496 493 513 505 458 501 486 441 497 517 482 534 508 490 502 466 530 504 491 490 499 503 543 491 508 494 499 458 501 480 488 527 526 508 525 466 514 495 493 485 482 518 474 489 470 476 482 479 476 481 527 509 507 496 565 502 474 522 480 476 476 503 504 531 456 521 500 519 465 516 469 476 516 486 511 499 520 521 479 513 481 506 476 521 513 508 491 475 508 499 477 495 522 488 516 516 505 547 511 501 511 528 483 522 493 522 456 457 505 504 502 498 515 494 490 460 485 489 468 499 469 498 509 467 501 512 477 505 451 465 537 491 498 475 471 505 467 525 529 529 492 453 442 516 446 509 480 524 492 505 480 473 505 499 506 448 454 494 467 492 511 468 502 491 498 519 484 481 480 506 442 530 514 495 508 532 520 469 515 448 465 503 485 486 465 494 530 464 458 457 468 496 453 491 495 474 508 470 478 460 479 497 505 460 461 510 500 508 485 519 460 499 488 440 494 518 508 477 493 474 480 478 519 484 441 492 495 492 488 500 501 514 500 506 488 478 504 470 460 502 550 455 496 497 433 458 487 485 484 499 473 508 515 484 478 477 465 517 465 497 489 464 490 459 477 488 491 433 536 490 499 474 482 494 485 484 491 480 504 489 509 474 517 490 517 479 512 491 494 518 489 496 460 511 502 483 494 490 486 483 462 512 466 488 484 489 449 522 491 467 500 474 499 517 528 469 431 557 513 512 487 534 487 487 458 501 539 494 488 493 462 484 486 494 496 542 502 515 495 497 493 472 481 480 498 531 532 517 515 515 520 511 495 514 515 523 502 513 512 509 534 519 487 538 517 584 532 559 589 522 570 537 563 620 578 527 535 566 576 555 561 542 591 539 534 573 549 582 587 599 555 507 553 532 554 553 526 513 526 505 523 506 606 559 542 488 533 523 515 538 507 515 522 529 527 522 531 527 509 498 494 463 517 494 517 524 507 499 495 523 510 520 480 467 507 498 515 505 464 511 445 510 512 457 507 509 485 495 510 433 504 471 505 480 467 494 491 492 541 531 494 479 477 536 468 482 548 472 456 490 446 483 453 476 507 476 497 504 481 471 477 528 491 486 482 520 483 482 485 532 492 488 500 486 482 507 516 481 521 489 503 442 486 469 460 545 491 527 473 474 481 505 515 484 466 504 481 464 511 496 514 484 486 455 513 467 513 457 493 469 460 498 479 437 469 487 482 511 459 490 519 498 465 452 489 499 495 513 474 470 509 477 492 494 528 495 494 484 489 509 474 495 484 497 500 501 500 525 528 478 491 504 489 541 512 516 497 487 479 490 511 514 469 551 484 467 492 504 523 503 493 507 546 507 554 548 496 482 513 528 499 509 535 528 478 517 495 528 482 570 518 534 508 517 522 519 548 530 523 547 536 568 530 526 485 566 600 536 550 562 564 581 622 570 531 577 606 601 615 655 633 670 669 684 715 738 694 790 796 798 785 777 776 793 795 785 863 850 810 839 830 868 819 871 892 903 927 955 897 921 925 951 948 920 921 946 917 915 950 894 864 884 885 853 786 834 830 788 809 756 717 789 775 747 766 779 753 781 734 738 717 764 698 723 712 705 715 676 725 675 700 711 652 618 661 635 641 686 639 641 658 617 624 627 652 605 632 645 643 629 658 625 604 636 606 624 658 616 588 632 638 583 712 614 587 618 573 590 611 625 649 618 587 581 593 586 574 564 589 579 594 541 549 578 621 575 577 565 520 538 550 566 561 518 539 606 553 477 528 566 540 538 529 513 504 519 486 590 536 506 511 489 516 529 532 524 493 537 534 528 519 528 503 537 523 531 480 536 508 508 500 551 548 578 490 544 490 535 514 506 549 527 585 545 568 513 548 535 572 537 558 517 551 491 537 542 547 530 539 532 552 506 514 493 519 562 493 551 523 506 556 521 531 505 551 537 528 483 565 517 546 511 484 543 479 513 504 510 542 496 547 489 507 526 465 468 482 474 493 521 517 511 513 551 447 491 478 453 491 482 465 457 481 475 524 509 479 453 508 477 502 509 495 451 492 493 497 469 501 454 499 490 506 469 463 489 474 502 518 467 489 495 517 485 496 519 473 481 511 504 477 467 462 472 476 496 498 506 468 471 509 516 486 551 470 481 486 482 469 495 507 505 474 484 468 499 509 503 474 526 471 474 508 538 492 509 478 489 513 496 513 451 524 456 474 521 481 479 475 474 481 485 478 492 467 503 437 544 475 536 457 467 500 478 467 478 524 498 482 497 510 483 505 507 469 461 470 492 466 477 468 452 530 475 484 478 507 492 482 494 557 458 503 513 478 504 490 498 465 532 510 479 483 495 483 486 462 520 482 498 529 483 492 507 518 444 459 458 489 485 464 521 469 482 477 472 490 513 490 512 487 502 539 490 516 504 491 460 443 503 449 491 501 437 481 518 516 463 538 469 479 499 499 505 469 473 471 513 510 432 503 469 458 474 511 523 482 518 497 512 499 520 460 471 440 488 483 466 476 491 457 472 419 460 483 474 502 480 451 478 484 554 521 510 454 480 498 480 497 486 497 487 493 493 489 468 461 458 484 503 475 488 473 501 419 490 471 476 461 509 470 466 488 482 428 469 498 423 501 477 498 456 487 470 496 485 538 481 507 475 467 471 466 490 469 462 510 496 451 516 440 495 440 516 466 488 517 468 491 516 464 482 455 428 468 511 480 470 450 481 450 439 496 475 448 474 473 487 499 493 474 501 477 535 483 479 455 488 475 440 436 531 468 461 484 477 466 479 519 501 492 493 498 506 464 483 502 457 495 498 508 464 467 462 508 467 467 454 489 508 478 465 519 487 471 488 480 471 491 472 442 506 507 451 477 481 456 487 479 472 452 512 467 486 499 500 502 489 474 480 445 479 482 507 508 447 531 480 464 512 478 505 483 492 456 484 505 457 476 471 503 494 499 480 495 480 519 525 497 486 550 496 496 488 504 488 507 514 494 513 486 474 535 482 494 508 507 501 531 502 507 564 511 566 554 543 515 494 531 531</counts>
			</dataPoints>
		</scan>
	</xrdMeasurement>
</xrdMeasurements>
