<?xml version="1.0"?>
<xrdMeasurements xmlns="http://www.xrdml.com/XRDMeasurement/2.3" xmlns:xsi="http://www.w3.org/2001/XMLSchema-instance" xsi:schemaLocation="http://www.xrdml.com/XRDMeasurement/2.3 http://www.xrdml.com/XRDMeasurement/2.3/XRDMeasurement.xsd" status="Completed" recordIdentifier="{0B163518-A08D-4394-864A-421E86CE06A8}">
	<comment>
		<entry/>
	</comment>
	<sample type="To be analyzed">
		<id>GPSS_Li1p4Cr1p2Cl4_102325_68fa7650028f64128e25ed82</id>
		<name></name>
		<preparedBy></preparedBy>
	</sample>
	<xrdMeasurement measurementType="Scan" status="Completed" sampleMode="Reflection">
		<usedWavelength intended="K-Alpha 1">
			<kAlpha1 unit="Angstrom">1.5405980</kAlpha1>
			<kAlpha2 unit="Angstrom">1.5444260</kAlpha2>
			<kBeta unit="Angstrom">1.3922500</kBeta>
			<ratioKAlpha2KAlpha1>0.5000</ratioKAlpha2KAlpha1>
		</usedWavelength>
		<incidentBeamPath>
			<radius unit="mm">145.00</radius>
			<xRayTube id="1010048" name="Empyrean Cu LFF HR (9430 033 7310x)">
				<tension unit="kV">40.0</tension>
				<current unit="mA">15.0</current>
				<anodeMaterial>Cu</anodeMaterial>
				<focus type="Line">
					<length unit="mm">12.0</length>
					<width unit="mm">0.4</width>
					<takeOffAngle unit="deg">6.0</takeOffAngle>
				</focus>
			</xRayTube>
			<sollerSlit id="21010002" name="Soller slits 0.04 rad.">
				<opening unit="rad">0.0400</opening>
			</sollerSlit>
			<mask id="22031000" name="Fixed mask 13 mm">
				<width unit="mm">9.00</width>
			</mask>
			<divergenceSlit id="22120001" name="Divergence slit 1°" xsi:type="fixedDivergenceSlitType">
				<distanceToSample unit="mm">50.00</distanceToSample>
				<height unit="mm">1.52</height>
			</divergenceSlit>
		</incidentBeamPath>
		<sampleMovement xsi:type="spinningSampleMovementType">
			<spinnerRevolutionTime unit="seconds">1.0</spinnerRevolutionTime>
		</sampleMovement>
		<diffractedBeamPath>
			<radius unit="mm">145.00</radius>
			<antiScatterSlit id="22090040" name="AS slit 9 mm (PIXcel)" xsi:type="fixedAntiScatterSlitType">
				<height unit="mm">9.00</height>
			</antiScatterSlit>
			<sollerSlit id="21020003" name="Large Soller slits 0.04 rad.">
				<opening unit="rad">0.0400</opening>
			</sollerSlit>
			<filter id="20030001" name="Large beta-filter Nickel">
				<material>Ni</material>
				<thickness unit="mm">0.020</thickness>
			</filter>
			<detector id="7010019" name="PIXcel1D-Medipix3 detector" xsi:type="rtmsDetectorType">
				<phd unit="keV">
					<lowerLevel>4.02</lowerLevel>
					<upperLevel>11.27</upperLevel>
				</phd>
				<mode>Scanning</mode>
				<activeLength unit="deg">5.542</activeLength>
			</detector>
		</diffractedBeamPath>
		<scan appendNumber="0" mode="Continuous" scanAxis="Gonio" status="Completed">
			<header>
				<startTimeStamp>2025-10-28T18:05:15-07:00</startTimeStamp>
				<endTimeStamp>2025-10-28T18:13:22-07:00</endTimeStamp>
				<author>
					<name>AutomatedUser</name>
				</author>
				<source>
					<applicationSoftware version="1.7b (136)">PANalytical Aeris Instrument Suite</applicationSoftware>
					<instrumentControlSoftware version="3.2.00000000 20240306">AERIS</instrumentControlSoftware>
					<instrumentID>950485</instrumentID>
				</source>
			</header>
			<dataPoints>
				<positions axis="2Theta" unit="deg">
					<startPosition>10.00943322</startPosition>
					<endPosition>99.99442286</endPosition>
				</positions>
				<positions axis="Omega" unit="deg">
					<startPosition>5.00471661</startPosition>
					<endPosition>49.99721143</endPosition>
				</positions>
				<commonCountingTime unit="seconds">12.495</commonCountingTime>
				<counts unit="counts">2904 2795 2944 2818 2942 2875 2975 2882 2811 2950 2931 2920 2812 2902 2838 3005 2924 2913 2928 2866 2865 2909 2864 2931 2901 2860 2873 2942 2829 2891 2828 2928 2871 2975 2957 2967 2914 2822 2922 2977 2888 2923 2910 2921 2964 2974 2956 2927 3036 2867 2954 2884 2984 2995 3038 2881 2949 2896 2952 2858 3000 2982 2899 2919 3003 2793 2987 2840 2898 2848 2991 2968 2961 2943 2974 2969 2981 2994 3101 3076 2892 2958 2974 2955 2962 2984 2986 2989 2995 2944 2995 2957 3070 3016 3072 2932 2937 3002 2915 2990 2969 3007 2975 2995 3026 2963 3074 3003 3000 2913 2966 2981 2948 3011 3057 2980 2967 2987 2921 3052 2895 2952 2947 2911 2968 2915 3068 2969 2906 2946 3024 2892 2923 2934 2936 2960 2980 2927 2967 2956 2993 2970 2874 2880 2828 3005 2879 2959 3019 2951 2910 2988 2940 2955 2987 2924 2855 2849 2903 2926 2933 2911 2983 2975 2828 2936 2904 2995 2930 2952 2996 3060 2956 2826 2915 2930 2846 2970 2919 2952 2800 2967 3015 3007 2953 2977 2760 3021 2967 2958 2980 3096 2960 2899 2959 2958 2991 2933 2903 3037 3006 2930 2928 2944 2858 2904 2972 2965 2795 2868 2785 2731 2810 2823 2853 2793 2863 2912 2860 2923 2854 2815 2846 2801 2806 2747 2800 2744 2877 2774 2829 2875 2685 2821 2797 2795 2955 2734 2844 2781 2780 2846 2745 2812 2755 2827 2767 2801 2768 2788 2821 2810 2786 2729 2896 2794 2719 2836 2762 2886 2770 2785 2768 2750 2832 2962 2786 2728 2675 2753 2796 2801 2793 2701 2776 2861 2907 2873 2945 2777 2790 2876 2784 2865 2887 2890 2809 2773 2870 2900 2820 2881 2815 2893 2928 2799 2873 2929 2856 2830 2804 2986 2954 2895 2967 2949 2980 2921 2872 3011 2839 2934 2886 3010 2943 3027 2957 2970 3006 2981 2965 2925 2952 2998 3042 3051 2968 2981 2925 2943 3013 3092 2973 2964 3150 3170 3133 3055 3033 3031 3073 3148 3149 3082 3073 3106 3109 2985 3125 3073 3089 3051 3090 3041 3082 3204 3146 3197 3212 3118 3238 3292 3184 3185 3283 3312 3250 3148 3209 3204 3204 3278 3185 3188 3239 3135 3232 3194 3333 3210 3283 3277 3360 3283 3256 3325 3442 3388 3230 3398 3280 3140 3251 3272 3281 3369 3345 3364 3369 3433 3434 3449 3466 3349 3349 3373 3367 3514 3480 3487 3488 3542 3496 3559 3510 3696 3561 3671 3607 3726 3776 3863 3803 3963 3903 3985 4001 4067 4035 4199 4254 4219 4193 4366 4246 4373 4077 4225 4345 4169 4106 4172 3989 4071 4051 3974 3994 3969 4076 3864 3951 3864 3885 3794 3786 3769 3784 3753 3783 3724 3688 3795 3629 3553 3641 3579 3580 3656 3481 3603 3556 3751 3684 3633 3666 3662 3590 3661 3573 3622 3520 3668 3567 3525 3480 3322 3397 3453 3303 3246 3418 3272 3351 3317 3237 3223 3245 3233 3153 3174 3141 3138 3142 3088 3085 3081 2976 3108 3016 3065 3036 2966 2982 3074 2995 3038 3017 3006 2924 3061 2963 2865 2892 2995 2946 2962 2995 3040 2883 2902 2777 2883 2875 2762 2829 2850 2929 2815 2965 2817 2923 2884 2868 2925 2785 2858 2821 2800 2844 2862 2847 2843 2813 2771 2781 2751 2791 2883 2872 2827 2821 2807 2777 2771 2804 2785 2713 2672 2819 2732 2709 2732 2850 2757 2746 2772 2752 2740 2739 2702 2683 2646 2646 2745 2774 2757 2690 2729 2683 2751 2709 2616 2753 2711 2613 2777 2674 2730 2668 2764 2739 2733 2700 2696 2680 2712 2632 2734 2690 2667 2714 2637 2699 2582 2605 2652 2550 2656 2665 2685 2577 2739 2630 2631 2691 2671 2701 2578 2620 2677 2617 2582 2650 2609 2620 2491 2686 2667 2676 2691 2762 2671 2683 2594 2655 2625 2658 2751 2692 2658 2653 2740 2616 2633 2559 2735 2787 2640 2713 2702 2813 2654 2728 2626 2739 2714 2881 2816 2808 2735 2729 2794 2718 2747 2767 2946 2746 2894 2797 2876 2822 2743 2762 2755 2781 2821 2782 2703 2672 2701 2742 2701 2720 2675 2586 2644 2651 2643 2721 2562 2591 2699 2610 2625 2688 2669 2583 2632 2519 2568 2500 2616 2549 2583 2536 2571 2528 2567 2601 2581 2514 2580 2492 2519 2594 2547 2671 2451 2529 2550 2570 2483 2549 2435 2499 2455 2536 2433 2437 2543 2510 2565 2604 2677 2497 2612 2500 2578 2559 2499 2503 2530 2532 2487 2563 2592 2437 2494 2614 2588 2547 2499 2430 2510 2479 2496 2484 2484 2443 2470 2421 2504 2493 2513 2418 2379 2426 2493 2516 2505 2382 2446 2502 2463 2521 2487 2430 2521 2530 2461 2544 2554 2458 2449 2428 2370 2564 2515 2455 2446 2531 2471 2456 2452 2437 2464 2397 2467 2402 2454 2460 2493 2451 2432 2454 2422 2449 2461 2477 2505 2508 2428 2516 2434 2333 2589 2540 2497 2519 2342 2473 2419 2478 2351 2380 2469 2480 2404 2415 2428 2397 2486 2476 2537 2378 2420 2535 2405 2509 2609 2500 2513 2504 2497 2546 2452 2618 2509 2564 2573 2624 2488 2557 2517 2547 2605 2494 2503 2435 2525 2453 2513 2464 2404 2524 2473 2507 2445 2455 2470 2516 2508 2538 2431 2536 2604 2565 2558 2557 2648 2535 2625 2650 2682 2835 2908 2887 3000 3038 3198 3153 3448 3528 3533 3613 3789 3995 4020 4211 4128 4152 3983 4090 4063 3861 3895 3748 3628 3541 3386 3360 3330 3163 3166 3016 2977 2919 2776 2879 2719 2656 2588 2692 2613 2556 2520 2438 2647 2462 2421 2409 2324 2367 2347 2336 2397 2347 2343 2329 2296 2260 2328 2297 2288 2363 2258 2342 2154 2304 2290 2295 2243 2304 2360 2225 2274 2231 2242 2243 2287 2353 2227 2231 2309 2284 2250 2274 2335 2231 2331 2305 2125 2247 2185 2338 2208 2348 2192 2325 2291 2184 2218 2243 2244 2285 2321 2228 2254 2240 2228 2305 2269 2283 2238 2174 2207 2255 2326 2396 2281 2239 2304 2242 2306 2312 2319 2373 2192 2314 2254 2372 2348 2276 2408 2269 2337 2357 2350 2350 2341 2344 2464 2365 2503 2311 2354 2396 2317 2337 2303 2354 2302 2334 2306 2334 2300 2260 2293 2328 2266 2271 2283 2382 2272 2273 2360 2276 2368 2260 2331 2265 2266 2311 2339 2198 2187 2297 2222 2349 2311 2221 2295 2261 2343 2198 2223 2366 2317 2278 2227 2229 2344 2222 2289 2278 2193 2380 2373 2255 2287 2260 2221 2228 2186 2226 2291 2303 2176 2189 2166 2207 2313 2346 2226 2366 2219 2276 2237 2201 2211 2271 2187 2190 2160 2203 2235 2248 2227 2184 2206 2211 2253 2140 2156 2153 2258 2197 2147 2108 2235 2157 2130 2155 2189 2195 2107 2167 2036 2229 2096 2176 2154 2112 2099 2114 2087 2115 2032 2121 2120 2054 2076 2082 2068 2069 2056 2040 2072 2082 2086 2058 2013 2036 1993 2033 2032 1979 1955 2033 1991 2107 1999 1965 2010 1971 2006 2014 1994 2016 1954 1955 1948 1967 2000 1944 1954 1963 1915 1901 2021 1901 1943 1856 1855 1967 1939 1952 1905 1897 1986 1890 1902 1853 1837 1868 1890 1886 1871 1857 1846 1894 1867 1862 1908 1833 1861 1852 1897 1876 1838 1854 1836 1773 1803 1848 1827 1853 1868 1846 1800 1900 1865 1833 1869 1894 1822 1904 1878 1822 1831 1943 1834 1776 1935 1830 1820 1760 1880 1742 1735 1789 1773 1804 1716 1754 1828 1743 1760 1694 1639 1725 1754 1662 1695 1688 1807 1687 1661 1698 1722 1759 1800 1699 1792 1698 1684 1652 1686 1810 1736 1755 1734 1711 1657 1763 1703 1714 1603 1625 1672 1637 1724 1673 1725 1605 1658 1630 1575 1711 1658 1665 1642 1597 1594 1690 1561 1635 1644 1654 1610 1625 1646 1598 1615 1687 1615 1591 1701 1648 1620 1766 1713 1715 1665 1717 1665 1705 1698 1635 1677 1645 1714 1680 1685 1579 1669 1656 1641 1653 1622 1580 1565 1587 1603 1574 1592 1600 1662 1528 1589 1605 1579 1551 1613 1549 1628 1519 1485 1609 1526 1537 1633 1594 1537 1530 1511 1514 1578 1616 1570 1556 1577 1566 1549 1470 1578 1505 1555 1531 1569 1522 1502 1549 1610 1518 1509 1493 1496 1495 1498 1543 1553 1549 1563 1518 1570 1481 1478 1559 1558 1508 1510 1512 1573 1508 1560 1500 1554 1572 1581 1545 1553 1638 1549 1551 1543 1599 1562 1578 1535 1598 1587 1562 1463 1566 1617 1571 1638 1475 1542 1579 1561 1582 1613 1644 1677 1587 1665 1518 1605 1628 1590 1570 1578 1554 1576 1589 1613 1588 1554 1570 1640 1597 1567 1540 1527 1611 1559 1550 1620 1589 1635 1566 1571 1534 1610 1632 1583 1629 1619 1606 1554 1604 1589 1567 1508 1514 1589 1587 1548 1578 1602 1548 1626 1577 1626 1560 1573 1545 1542 1628 1557 1576 1507 1527 1491 1521 1579 1534 1488 1571 1546 1526 1564 1488 1535 1548 1594 1550 1561 1533 1590 1557 1518 1522 1597 1550 1556 1514 1488 1496 1589 1547 1564 1524 1614 1510 1589 1578 1602 1571 1541 1612 1748 1635 1644 1674 1720 1757 1747 1735 1762 1654 1722 1701 1774 1728 1809 1792 1754 1815 1764 1731 1710 1736 1688 1769 1758 1746 1705 1693 1704 1724 1680 1627 1579 1672 1663 1606 1585 1604 1513 1560 1525 1543 1532 1475 1477 1494 1460 1382 1450 1424 1440 1414 1460 1351 1458 1396 1445 1378 1400 1386 1317 1295 1318 1335 1369 1355 1322 1330 1282 1285 1321 1266 1283 1308 1253 1319 1306 1290 1297 1282 1242 1290 1292 1237 1283 1253 1240 1285 1252 1282 1244 1232 1186 1321 1299 1294 1271 1285 1261 1242 1208 1173 1166 1222 1171 1190 1204 1255 1225 1170 1219 1166 1210 1222 1173 1223 1198 1163 1221 1182 1156 1240 1187 1192 1181 1151 1152 1136 1186 1155 1110 1153 1164 1112 1206 1268 1139 1112 1186 1129 1109 1135 1183 1194 1148 1186 1090 1169 1133 1110 1230 1158 1185 1141 1115 1150 1157 1124 1076 1123 1112 1138 1166 1160 1171 1143 1143 1239 1116 1116 1142 1090 1119 1079 1061 1187 1172 1171 1232 1126 1184 1161 1207 1265 1230 1267 1200 1229 1239 1268 1278 1255 1230 1267 1260 1253 1284 1286 1294 1246 1243 1271 1302 1255 1294 1272 1256 1219 1230 1169 1285 1178 1206 1165 1257 1197 1115 1161 1102 1166 1169 1116 1147 1096 1143 1154 1131 1124 1136 1172 1170 1171 1106 1160 1198 1209 1177 1150 1278 1244 1252 1264 1380 1344 1326 1393 1401 1355 1328 1440 1376 1412 1390 1423 1464 1499 1553 1543 1508 1485 1598 1588 1569 1623 1534 1621 1672 1549 1610 1574 1640 1582 1579 1640 1519 1603 1597 1588 1514 1553 1602 1610 1498 1617 1520 1474 1497 1543 1490 1486 1448 1486 1406 1416 1435 1379 1413 1349 1396 1330 1381 1364 1409 1454 1417 1488 1486 1561 1501 1454 1504 1547 1424 1565 1635 1585 1695 1688 1652 1646 1620 1741 1744 1760 1760 1694 1668 1620 1584 1655 1502 1544 1547 1477 1421 1427 1320 1295 1362 1322 1275 1229 1233 1186 1146 1170 1194 1090 1078 1107 1097 1201 1128 1095 1050 1126 1112 1212 1110 1255 1271 1314 1390 1398 1425 1459 1705 1612 1763 1779 1837 1977 1796 1896 1989 1820 1918 1792 1869 1728 1698 1578 1525 1489 1407 1426 1390 1296 1268 1140 1213 1198 1132 1086 1081 1151 1036 1029 977 1044 994 1019 1021 980 965 950 950 966 974 960 924 881 891 911 928 951 990 936 982 976 981 849 945 919 957 874 941 903 913 937 914 938 900 928 944 899 892 918 897 921 912 945 933 864 893 910 922 891 908 908 1011 838 927 922 908 893 926 904 884 935 944 871 940 870 902 931 865 907 846 881 900 955 942 884 848 907 861 916 828 961 908 920 916 898 956 930 922 976 971 967 953 953 971 987 984 963 1049 980 1067 1040 1101 1114 1027 1158 1209 1181 1156 1281 1294 1303 1397 1337 1424 1510 1469 1579 1528 1545 1586 1559 1663 1536 1544 1589 1569 1602 1677 1643 1593 1572 1562 1659 1709 1745 1806 1771 1762 1814 1875 1818 1833 1850 1796 1815 1763 1756 1592 1659 1596 1479 1457 1448 1318 1311 1323 1185 1138 1116 1140 1081 1127 1057 1047 993 967 986 941 970 925 906 913 880 897 856 888 868 843 933 846 821 762 815 893 788 843 778 882 798 799 798 832 814 765 830 750 788 826 810 774 793 764 802 800 764 828 792 753 790 777 760 806 784 780 861 787 816 822 744 799 783 788 863 836 883 810 879 860 890 916 869 900 961 902 927 881 864 874 873 852 858 827 839 821 807 824 779 769 764 792 839 770 770 734 767 739 777 828 753 752 734 752 808 792 741 724 774 681 806 780 763 758 804 735 795 797 772 799 801 751 824 797 745 719 806 809 813 826 744 794 800 734 780 731 768 837 866 787 777 770 816 808 822 735 832 836 742 807 800 761 825 790 795 831 827 872 864 816 801 847 835 770 808 865 879 911 921 959 887 939 885 888 961 913 973 975 1037 920 995 1069 1036 1171 1081 1166 1180 1266 1237 1310 1330 1445 1398 1413 1523 1530 1590 1624 1676 1739 1711 1778 1780 1851 1888 1925 1964 1941 1965 1886 2018 2018 1980 1999 2074 2120 2095 2221 2178 2231 2209 2182 2314 2360 2320 2357 2470 2427 2337 2385 2436 2374 2321 2275 2256 2155 2124 2104 1990 1977 1883 1843 1681 1712 1641 1567 1573 1401 1446 1286 1329 1244 1234 1163 1181 1118 1072 1087 1040 1014 986 960 927 958 943 955 894 877 883 845 855 835 822 813 829 808 791 845 859 830 794 815 810 845 791 786 789 786 757 774 782 789 798 762 782 727 832 770 829 792 794 762 812 780 826 813 854 872 859 866 887 898 874 927 865 835 883 824 833 873 875 851 875 843 789 806 823 818 787 858 793 843 836 852 786 740 846 772 812 801 769 799 769 730 797 790 792 818 758 789 739 769 748 725 749 691 764 775 739 756 759 701 736 779 727 728 693 703 730 762 760 755 671 713 746 760 752 763 736 757 763 761 782 708 783 794 755 788 783 737 803 766 756 797 720 740 684 737 713 699 731 729 644 718 708 708 693 731 723 677 723 714 708 749 716 734 723 675 756 709 674 747 702 716 710 762 731 694 729 703 735 706 712 734 773 731 722 725 616 677 663 710 616 660 668 634 702 669 629 655 687 674 640 652 604 667 644 665 612 652 663 676 649 629 665 637 640 660 616 677 610 706 664 690 648 619 650 631 634 615 651 642 652 606 639 637 608 584 625 700 622 642 613 656 632 620 623 602 672 640 649 650 627 603 628 665 687 617 625 634 627 646 607 634 661 637 656 651 652 595 623 599 609 628 621 611 622 650 598 646 625 636 628 614 658 647 595 642 649 632 593 630 583 605 602 625 601 598 641 586 611 608 684 649 586 633 583 615 606 592 588 615 591 610 645 591 603 582 617 614 581 622 586 617 607 605 615 631 595 643 598 632 588 579 604 633 607 633 623 628 642 577 622 584 625 595 638 628 612 639 629 636 653 621 558 551 607 616 574 564 607 616 563 611 591 596 612 614 583 612 638 621 614 587 617 643 636 595 652 610 653 684 599 653 636 633 650 596 640 621 591 632 610 644 685 596 604 578 612 626 579 631 602 613 650 605 606 593 611 621 586 589 610 639 618 651 547 634 629 628 591 614 595 642 602 607 669 674 681 663 665 618 690 644 673 666 649 712 728 753 807 807 832 848 858 892 885 955 982 1068 998 1016 1063 1013 997 1030 1034 1001 1017 1003 1094 1013 1070 1042 1048 1032 1000 975 981 998 989 933 904 867 952 881 870 855 833 764 792 714 757 724 713 715 688 655 691 691 675 670 652 634 617 623 584 635 634 600 548 590 557 608 583 558 567 638 584 541 591 608 575 573 574 531 627 572 624 580 607 615 642 546 580 574 581 545 539 556 550 599 543 590 605 619 605 565 612 567 640 585 613 610 585 672 596 582 663 632 589 647 628 644 630 657 601 574 629 600 587 584 590 614 591 642 585 630 629 624 622 640 606 623 657 653 623 671 613 632 666 702 713 734 721 753 800 803 826 872 895 1021 1084 1087 1164 1236 1304 1408 1444 1471 1508 1489 1509 1481 1537 1401 1456 1437 1409 1379 1263 1292 1227 1155 1054 1095 1034 955 900 888 857 840 825 810 767 744 733 720 698 644 675 658 703 644 652 654 598 601 624 646 609 605 623 571 610 572 583 602 623 600 570 536 544 580 571 628 598 590 609 627 596 600 597 590 607 604 599 609 617 613 601 583 609 606 601 599 598 617 630 602 631 640 628 643 642 581 576 641 581 624 653 627 593 599 569 587 631 586 626 608 630 568 582 610 578 621 596 551 624 555 628 557 567 578 584 557 526 562 567 558 589 534 566 537 586 576 536 537 532 584 565 611 544 557 638 580 604 640 627 675 586 652 606 641 602 584 631 592 655 619 616 618 615 582 602 628 618 599 560 587 529 563 584 579 566 570 497 569 532 580 560 549 541 534 537 529 508 511 512 545 507 561 531 538 533 516 552 530 497 538 509 512 501 556 595 534 534 536 528 553 530 529 526 561 513 534 540 539 533 534 559 520 523 505 517 504 538 532 542 508 513 515 556 511 540 501 513 530 510 537 506 529 576 526 498 531 516 521 505 502 509 482 498 503 511 468 514 519 487 505 506 487 519 527 537 502 541 542 529 524 547 529 477 512 535 519 466 529 526 551 522 515 555 563 534 479 497 537 508 539 517 531 538 565 507 518 519 542 513 530 541 537 524 501 532 534 532 507 515 503 567 517 547 502 554 529 557 521 536 533 537 505 525 518 546 540 500 525 523 520 555 476 511 547 550 549 492 502 541 528 468 549 459 564 491 542 530 497 492 479 489 503 522 526 506 512 550 526 495 544 557 546 516 529 553 522 539 570 582 557 527 581 561 559 519 545 570 600 595 610 609 609 623 641 616 582 591 629 611 610 655 601 596 686 604 656 671 652 665 670 698 611 654 622 635 665 608 613 645 624 587 598 607 618 623 606 615 646 604 655 661 589 608 607 586 592 583 559 614 535 593 531 601 530 518 587 555 547 548 515 534 523 476 525 498 522 490 599 535 540 478 512 528 539 564 534 534 540 504 511 538 527 498 524 490 513 517 518 547 507 527 487 486 547 468 515 539 536 516 541 524 527 518 528 567 505 493 529 545 536 558 500 527 524 469 546 580 552 523 520 504 559 497 493 549 543 545 518 538 574 518 566 529 546 558 533 596 557 583 567 606 551 564 581 624 579 557 603 568 583 630 602 621 569 535 588 569 556 523 573 520 570 570 550 621 578 580 601 565 583 594 573 533 536 537 549 553 565 565 576 593 570 560 558 596 592 629 558 601 664 656 621 649 657 665 640 640 653 675 617 740 699 709 674 713 704 750 751 660 713 727 658 694 701 702 737 689 713 715 727 831 712 767 749 755 754 754 796 810 830 882 837 879 895 1017 912 971 1008 1046 1101 1090 1134 1163 1185 1129 1161 1177 1136 1134 1097 1135 1082 1090 1046 970 1001 980 973 891 858 859 860 861 816 787 810 764 786 732 713 708 705 711 670 708 682 731 675 701 715 665 702 695 660 665 691 677 670 638 677 659 609 676 660 621 643 677 584 579 626 597 578 570 600 573 565 547 537 483 574 547 535 520 544 545 523 509 534 574 534 511 556 491 529 521 525 536 545 562 450 542 507 568 522 571 503 528 564 539 520 490 528 499 492 513 515 573 508 529 540 532 534 527 529 520 507 502 535 538 557 564 540 551 579 552 548 569 609 587 621 608 598 647 661 634 655 646 632 680 726 690 742 707 702 698 709 754 779 743 765 771 726 779 767 759 760 827 752 784 764 807 874 823 860 897 909 874 888 906 913 875 876 909 885 841 927 900 887 897 874 817 840 899 847 847 827 834 877 823 824 841 837 801 775 821 805 820 813 854 729 790 760 749 718 752 766 729 744 667 734 661 623 702 639 653 603 605 582 604 638 606 614 606 600 601 582 569 550 553 557 536 572 552 569 575 530 582 559 541 517 515 544 523 509 525 530 529 540 516 522 570 528 539 526 489 527 449 507 536 521 505 505 499 520 491 478 495 533 516 475 500 521 489 501 508 525 556 517 512 535 565 517 574 545 527 504 487 512 517 493 518 541 528 520 520 536 526 510 570 541 600 538 510 564 558 568 532 567 538 580 540 557 604 551 545 536 598 523 547 528 527 597 541 544 535 550 530 543 482 529 489 514 539 529 543 544 498 567 576 524 553 627 637 617 639 657 666 655 697 653 642 701 706 745 642 628 646 656 636 646 672 630 626 623 601 631 585 597 611 651 557 545 547 576 564 577 611 623 534 571 593 616 615 594 622 670 665 655 632 665 587 639 650 648 620 582 661 631 643 622 618 631 627 621 529 591 547 637 557 586 616 536 609 570 577 553 584 593 600 532 571 577 528 598 548 528 552 536 548 501 527 549 483 510 547 502 493 508 501 493 500 483 480 522 458 483 491 495 502 539 505 516 514 525 580 514 527 514 546 548 522 495 527 534 537 499 521 522 475 519 501 479 474 518 502 473 485 475 450 426 424 487 428 474 494 446 437 456 449 503 422 435 439 483 449 461 473 474 424 445 477 455 466 489 457 415 460 461 464 484 390 444 426 448 424 466 460 486 470 420 450 500 406 442 422 415 477 440 496 429 468 442 401 464 433 420 444 465 453 450 442 461 424 477 424 465 447 451 482 454 461 476 454 475 456 514 508 483 510 562 550 596 566 547 599 639 661 558 602 596 615 563 545 560 555 610 553 583 559 528 504 538 498 444 499 506 494 492 478 449 435 431 459 412 460 464 453 456 463 418 453 457 407 466 459 467 432 496 435 381 416 416 409 427 435 456 399 424 420 452 440 465 459 397 432 389 424 459 445 429 432 415 459 423 454 450 429 477 434 441 434 449 445 462 410 459 426 418 461 472 432 453 382 485 454 434 448 429 394 428 449 445 395 474 425 420 456 416 434 406 479 406 391 451 413 438 401 444 406 415 413 399 415 419 371 440 424 441 413 424 459 418 432 429 408 419 447 410 412 397 428 439 462 413 408 468 460 454 472 440 445 450 427 464 394 392 446 385 443 412 468 441 439 458 460 455 445 448 475 499 504 509 479 538 531 541 560 555 548 494 488 497 525 496 496 515 517 481 527 549 485 505 474 465 488 410 438 468 459 457 469 477 417 427 423 427 424 445 415 422 409 438 411 397 421 415 435 389 409 410 390 399 400 435 385 449 401 408 403 399 408 441 416 370 391 408 400 446 407 422 410 428 429 412 396 417 377 402 435 424 426 440 434 438 391 421 393 392 440 365 432 412 361 432 412 429 451 397 404 399 401 444 405 410 403 402 396 393 405 406 449 402 382 423 416 428 408 430 416 425 432 367 360 398 406 406 415 411 411 439 391 406 405 393 413 429 400 406 427 400 438 421 423 415 394 412 393 433 386 422 422 413 418 454 403 429 454 423 430 411 409 387 429 419 419 446 459 381 462 427 437 418 399 415 372 421 405 446 380 428 419 403 443 425 394 431 381 418 380 443 408 418 411 451 420 393 399 391 411 424 418 406 427 455 448 414 425 468 396 410 435 451 425 442 435 405 428 386 416 415 418 460 421 389 397 355 419 426 394 418 401 419 380 402 402 404 384 349 431 396 339 387 398 408 405 436 398 411 373 425 374 395 409 388 446 365 434 443 417 401 407 426 438 394 430 437 430 432 411 433 459 432 442 445 425 440 434 508 456 478 469 451 443 468 477 427 487 475 515 482 512 493 509 469 553 484 523 538 509 527 517 523 500 537 557 534 543 522 499 537 507 528 528 553 530 518 559 536 534 471 525 482 528 497 533 529 507 506 474 519 444 497 515 559 507 544 502 498 518 520 553 491 490 471 484 464 471 420 435 466 454 449 496 448 438 430 472 438 436 425 455 389 434 423 432 416 440 409 459 413 403 393 376 372 415 408 422 395 426 411 424 426 393 420 379 424 391 415 435 454 456 440 400 443 427 415 444 420 437 428 398 459 455 409 442 421 424 463 464 473 423 445 461 431 426 453 480 411 456 457 448 467 420 462 465 448 439 498 492 500 438 419 459 453 469 444 431 444 431 437 436 421 423 453 425 454 442 445 453 438 413 437 434 436 426 446 435 433 449 398 416 442 411 422 455 434 475 430 468 484 423 450 412 444 420 422 417 458 442 441 506 459 460 454 523 479 515 559 485 541 525 551 530 577 562 518 553 583 607 640 611 610 627 597 627 627 587 559 562 545 584 560 556 565 581 512 557 562 519 543 550 511 472 502 495 491 468 462 458 465 405 467 423 439 454 435 449 434 448 448 455 431 444 473 454 457 414 438 444 438 468 430 444 422 472 465 484 508 481 494 466 455 516 542 478 560 502 528 536 489 498 507 507 532 490 508 530 498 535 542 541 533 499 531 492 543 512 499 514 526 504 507 490 498 493 468 497 553 463 477 457 474 501 484 435 440 428 404 414 423 432 440 448 429 477 433 404 439 430 475 387 420 435 437 433 390 442 426 443 470 411 459 461 452 433 395 396 411 395 423 406 448 408 441 458 397 413 386 395 383 402 427 415 371 399 421 386 360 420 347 356 402 351 379 368 418 403 394 403 395 404 414 418 430 428 431 485 448 461 430 441 490 481 461 464 478 497 546 504 551 528 515 528 587 567 594 589 622 537 578 605 527 526 576 523 524 504 518 528 487 528 528 474 481 518 459 523 508 476 450 450 458 447 416 372 385 424 388 404 410 395 434 383 425 410 373 408 394 434 408 399 380 386 370 398 355 355 397 367 345 363 384 340 416 371 371 371 363 396 395 384 384 401 388 410 398 375 388 384 386 399 410 394 422 398 422 394 425 432 410 420 442 437 443 426 422 387 457 447 398 418 396 443 417 396 412 355 418 384 407 371 432 424 393 450 399 442 438 390 404 412 398 386 389 431 399 388 400 400 420 416 399 380 371 394 403 391 357 371 393 399 372 363 385 388 371 395 411 389 368 407 380 365 381 397 375 389 366 415 404 350 393 358 395 355 409 343 381 354 367 366 337 378 405 374 381 366 370 355 376 379 417 330 388 328 345 367 369 377 333 344 361 360 361 360 376 359 350 387 364 373 356 383 353 395 398 382 359 356 369 361 352 361 380 355 382 396 375 360 396 371 367 344 374 339 392 364 347 361 366 367 353 332 332 385 355 355 393 379 373 378 347 371 363 316 373 346 374 363 350 360 350 377 387 390 352 376 373 351 376 371 371 352 360 356 373 359 346 359 373 360 401 342 384 343 355 375 368 359 345 348 355 357 361 357 348 361 359 334 346 377 329 388 330 351 373 340 361 337 382 328 376 343 340 364 343 358 378 346 347 373 325 359 333 367 328 378 346 357 346 385 343 356 379 386 341 351 359 340 337 348 361 334 359 354 409 363 366 360 364 362 352 355 383 369 374 389 371 348 345 354 406 373 385 415 383 403 380 378 386 410 378 413 425 362 377 363 379 366 376 382 374 331 394 342 392 375 359 387 362 408 369 416 350 404 391 411 366 398 425 408 388 395 438 343 420 371 415 377 400 380 390 408 348 389 341 375 378 383 377 361 370 373 392 405 385 379 385 383 378 383 427 368 365 365 347 356 352 363 386 374 355 359 365 359 398 393 370 386 357 367 382 356 375 389 359 370 315 375 360 340 349 350 376 381 394 349 354 342 363 351 339 397 358 374 385 369 349 370 361 380 364 363 329 343 332 381 362 336 357 326 341 318 337 342 306 337 358 345 358 361 338 336 368 350 345 355 348 373 379 317 332 355 354 361 371 333 365 352 346 315 321 325 340 354 354 344 348 388 362 338 337 388 328 347 323 342 362 356 337 384 366 345 342 371 371 350 339 369 350 351 342 348 363 358 373 366 351 380 389 366 360 342 371 361 344 371 349 337 359 330 349 362 325 344 354 365 344 360 372 349 340 360 323 396 335 347 375 323 366 330 347 334 369 384 392 363 374 337 359 367 369 388 347 363 325 368 378 356 373 348 357 308 342 319 368 343 400 351 384 375 372 371 349 366 333 359 334 331 345 375 343 382 357 365 334 366 357 356 310 332 344 368 301 343 326 336 343 345 362 391 367 340 353 338 323 361 369 306 338 343 352 322 312 340 352 326 358 334 331 306 318 346 350 321 344 292 339 332 313 355 339 328 336 303 314 340 364 320 370 348 336 313 312 304 295 324 319 335 326 349 350 321 377 320 348 338 330 317 335 383 276 352 355 341 342 328 332 298 333 352 312 351 330 344 369 338 329 379 332 363 326 324 332 316 353 302 320 350 370 331 292 351 349 322 352 309 329 318 346 353 366 331 340 313 356 299 328 342 342 329 321 345 361 366 332 334 339 314 385 323 321 319 320 339 327 359 351 337 324 363 366 360 345 319 346 358 350 321 296 311 323 338 367 324 350 344 336 350 346 309 337 341 308 302 360 343 387 332 332 337 338 373 345 334 363 332 349 368 352 362 352 368 342 360 383 313 381 377 393 357 373 353 371 336 319 368 364 376 379 392 347 355 367 382 338 340 319 316 373 320 355 354 358 374 331 331 336 401 361 342 342 352 343 343 328 366 325 348 382 355 333 351 322 345 382 332 373 346 358 358 331 360 365 359 337 344 335 342 333 364 321 320 354 358 369 358 348 357 330 348 349 356 370 356 384 363 346 388 362 355 375 385 363 387 373 345 354 367 375 355 347 392 331 374 385 351 323 347 365 352 346 392 335 385 345 366 339 363 394 368 340 349 363 347 373 384 378 327 359 373 363 357 372 385 348 341 370 374 409 377 376 359 354 363 407 352 362 393 418 391 397 352 366 378 388 395 430 393 424 390 410 361 371 352 321 384 387 423 375 412 410 348 361 376 413 404 379 372 374 367 368 359 380 378 385 347 360 406 387 402 369 343 361 354 360 354 375 351 347 347 361 348 363 351 368 349 369 386 334 355 352 381 365 298 323 343 350 342 340 383 308 340 381 358 370 321 308 325 381 326 353 349 320 358 353 340 364 332 341 343 348 335 334 358 342 323 379 329 341 317 360 335 319 380 357 317 333 306 310 361 322 325 310 344 339 343 344 329 336 320 332 348 363 345 352 326 349 338 356 344 337 344 361 338 339 330 296 336 374 337 335 330 363 337 326 361 305 335 352 372 347 366 366 362 331 331 356 352 368 355 348 310 390 321 348 378 357 363 332 330 336 326 324 350 381 380 340 334 364 372 340 330 364 380 341 363 384 357 343 329 378 367 373 366 344 369 329 389 351 365 359 377 340 357 374 351 392 395 361 325 395 359 382 402 362 406 374 371 372 349 336 380 369 354 370 392 397 379 371 369 362 332 349 380 400 377 352 365 313 344 359 362 343 336 343 335 340 360 339 347 350 312 316 352 349 310 348 328 326 333 364 330 315 370 350 357 345 330 358 332 357 334 361 302 353 355 357 341 355 334 333 383 350 344 355 344 335 352 361 345 332 341 333 336 332 357 330 365 358 382 332 378 343 361 328 360 358 329 340 343 375 371 348 338 328 352 335 366 312 366 358 317 365 330 336 321 360 359 324 366 363 345 341 341 379 315 363 368 372 369 342 363 354 376 371 358 376 405 382 390 405 367 369 346 367 355 377 367 381 348 366 388 375 394 362 384 340 378 432 407 386 397 351 405 352 358 361 404 432 389 352 369 380 365 384 362 440 396 383 378 384 407 382 402 420 379 393 382 383 386 411 382 376 410 398 366 357 388 369 411 368 350 394 377 351 346 362 345 385 368 382 408 348 329 404 349 353 354 388 325 342 341 392 365 379 364 368 396 368 364 355 368 373 364 376 389 391 344 353 375 398 368 355 371 376 404 372 369 370 364 353 357 357 374 371 348 369 338 348 355 359 319 313 370 354 346 337 387 359 357 351 367 343 325 345 345 346 362 366 334 368 340 362 336 333 345 360 380 358 353 383 365 346 358 372 372 347 380 359 342 358 335 385 351 377 355 381 383 354 351 332 321 371 330 370 360 362 312 355 364 362 357 361 375 321 351 367 329 316 329 342 350 316 353 334 345 358 313 330 344 347 359 351 355 356 348 317 336 364 334 367 331 350 352 334 319 357 338 372 339 316 307 343 350 320 321 337 356 321 313 332 314 349 330 340 351 333 351 338 336 337 365 378 325 332 361 361 318 329 341 338 358 344 359 362 315 372 319 351 329 361 335 335 357 350 357 343 335 332 369 340 360 322 360 346 326 363 356 378 315 358 331 377 361 394 367 368 382 347 318 336 352 383 366 362 333 378 368 340 316 370 364 380 363 361 377 344 405 403 354 398 372 349 388 396 409 387 428 374 419 386 407 422 395 380 352 384 373 362 392 373 377 374 376 340 370 370 366 356 365 382 409 392 395 381 359 358 356 400 371 325 340 381 400 362 362 361 416 383 381 393 349 388 371 398 367 392 386 382 337 364 363 386 379 351 369 372 389 358 383 367 357 420 380 364 370 389 396 451 401 397 388 432 400 394 425 379 407 401 412 410 424 409 387 397 391 386 397 382 368 429 389 383 397 390 387 385 377 419 361 373 399 352 371 398 377 359 358 347 342 365 386 352 366 354 363 349 379 349 382 366 350 353 365 356 374 367 373 404 372 359 344 390 322 359 377 385 369 401 353 345 388 350 368 335 411 347 353 369 377 361 369 362 384 343 356 325 345 363 380 372 369 390 398 379 378 336 372 348 351 365 377 379 348 378 370 380 370 332 362 354 396 365 392 347 355 351 357 362 376 335 393 361 362 354 397 374 362 386 354 367 370 331 381 383 381 360 360 374 352 362 408 383 368 360 349 341 391 383 373 379 380 368 347 345 364 391 365 401 361 395 405 373 402 369 349 406 345 409 381 416 383 374 401 417 390 395 374 399 426 391 379 420 378 398 394 417 400 374 381 380 389 379 394 421 412 402 417 410 396 396 369 385 388 397 391 394 387 371 386 406 394 397 374 422 437 399 421 411 412 376 398 422 393 387 388 362 431 397 381 361 384 383 412 437 428 405 389 405 378 360 392 366 381 413 356 363 384 398 415 407 396 376 386 348 417 383 408 402 396 390 396 397 392 396 395 389 353 363 406 385 414 379 397 386 391 396 392 388 413 394 418 372 383 382 376 382 373 421 398 373 383 353 368 349 384 391 376 326 365 402 379 372 349 335 342 351 368 365 371 369 364 340 395 376 387 351 363 375 360 374 379 377 389 386 402 395 366 359 361 358 355 357 381 357 333 320 354 374 364 355 360 356 363 351 354 380 361 318 362 347 382 363 392 362 389 348 391 395 380 421 354 352 398 375 380 373 375 364 356 368 367 362 329 364 379 340 350 347 327 390 320 356 343 362 341 350 353 345 380 343 362 339 366 327 337 355 389 334 348 358 367 352 342 358 356 329 336 343 335 341 310 378 348 352 363 314 343 368 350 350 358 322 349 356 317 366 353 338 365 356 379 373 346 386 354 381 368 344 408 352 388 395 398 397 404 365 405 397 416 387 378 353 393 376 371 358 377 353 409 368 388 370 374 363 351 407 395 403 372 415 398 366 374 416 382 365 400 373 367 355 369 409 331 354 389 350 356 375 338 352 373 336 359 346 330 336 374 368 363 342 345 346 356 329 326 318 344 326 362 378 354 383 359 335 353 340 343 347 365 344 367 354 359 374 338 343 357 358 374 332 312 359 369 378 343 375 341 325 351 319 329 359 344 387 316 326 358 296 330 325 343 356 354 342 367 360 328 380 360 328 334 343 346 320 378 371 343 357 305 368 345 347 377 319 376 363 319 326 333 351 350 353 359 322 335 311 303 343 345 311 356 338 344 357 337 351 310 360 317 322 317 386 319 349 330 311 348 344 333 333 338 370 323 315 345 326 324 333 331 331 356 303 359 352 330 334 311 307 320 339 325 322 343 303 339 325 309 347 334 318 306 329 338 324 347 307 329 322 330 351 301 362 334 362 346 338 342 316 325 324 359 324 346 359 332 323 332 332 320 362 364 310 337 321 328 321 361 366 341 290 340 351 323 339 358 325 343 357 322 338 347 355 350 367 351 341 355 357 367 339 361 314 387 351 379 367 378 326 324 334 331 328 325 349 352 340 333 334 328 357 333 310 339 360 364 372 366 363 348 324 328 356 325 330 311 326 323 343 323 318 331 358 343 319 310 339 354 335 299 298 361 297 307 318 354 309 316 322 338 315 347 335 345 322 326 299 296 346 312 350 362 315 300 302 328 323 322 336 323 299 332 363 338 337 335 317 337 357 312 375 337 368 328 326 356 318 351 314 374 377 341 326 312 334 336 332 312 276 329 338 310 328 339 351 336 333 361 350 321 304 336 304 338 296 350 329 343 357 364 328 307 327 296 324 337 359 354 338 352 323 363 333 384 365 352 359 361 341 335 367 326 345 331 337 342 325 336 328 336 333 345 349 346 314 351 363 350 336 334 353 362 385 331 357 326 334 372 376 380 405 359 321 397 394 399 369 390 376 363 362 356 365 387 391 325 369 370 382 353 333 369 368 351 367 388 328 361 363 316 346 331 362 336 365 373 363 363 344 366 352 339 382 371 366 320 338 330 364 359 364 300 348 312 348 310 345 371 327 305 337 331 353 339 346 309 295 346 322 327 305 293 316 321 322 323 322 331 317 323 348 309 309 324 338 318 304 334 338 313 346 327 333 329 345 309 309 308 343 335 320 311 341 316 307 319 323 312 342 336 341 311 346 332 337 313 329 321 293 334 306 347 313 355 305 319 328 310 336 342 335 334 331 369 345 359 347 315 306 331 353 334 334 308 383 316 338 332 354 308 361 329 354 352 328 310 345 330 350 341 383 324 352 299 341 330 343 364 390 363 328 343 351 328 328 363 363 351 322 374 361 357 349 352 352 367 364 349 343 332 333 374 348 348 356 332 339 341 336 344 378 332 354 390 345 366 352 329 369 375 321 309 362 351 341 345 349 336 340 356 334 367 322 328 331 367 335 380 328 318 360 332 345 338 387 357 336 326 366 378 344 352 328 339 339 321 322 351 357 335 356 365 344 382 351 343 360 344 325 383 403 384 369 363 360 391 353 362 336 311 362 353 367 358 365 380 348 323 361 374 357 392 363 363 379 398 365 347 352 376 371 391 347 362 375 339 387 389 406 357 384 362 355 325 359 336 366 343 379 329 354 375 375 342 361 384 351 362 397 337 345 329 342 318 382 356 354 373 354 342 331 314 359 363 316 343 347 345 331 333 335 291 331 355 325 343 329 372 373 338 355 316 311 355 315 337 329 325 307 325 333 351 309 282 344 334 341 343 339 342 334 309 314 337 300 353 338 346 319 321 315 327 357 347 347 332 322 320 300 320 314 333 374 340 342 329 345 319 315 328 340 315 318 319 317 355 335 317 334 283 326 304 329 301 316 351 322 308 321 337 341 306 336 307 300 329 328 347 341 308 304 323 350 320 336 325 313 316 327 355 310 379 339 328 347 347 342 350 345 365 339 303 340 328 340 298 323 327 327 357 310 380 334 354 317 342 318 312 357 322 301 354 334 332 300 328 329 349 346 345 347 344 294 334 321 299 330 338 323 327 335 322 305 325 316 316 283 298 309 312 318 334 300 326 342 304 331 310 284 331 322 296 287 302 349 343 328 317 290 309 307 333 295 335 326 327 332 335 330 361 351 347 315 302 309 326 327 328 325 336 340 285 312 331 327 319 312 313 322 299 290 320 301 306 325 326 320 376 307 318 318 318 301 338 274 319 308 312 333 308 315 318 309 309 325 321 288 332 314 314 269 300 286 316 334 302 307 306 312 306 340 286 308 326 358 323 334 309 330 318 314 314 293 322 355 313 299 307 355 357 289 349 359 298 301 351 309 342 301 334 331 346 315 313 300 344 319 319 324 341 298 331 292 297 305 350 325 314 327 349 311 303 310 325 302 307 301 303 323 336 329 301 315 347 275 304 324 315 345 334 314 311 318 313 341 336 312 345 333 296 327 316 283 263 330 348 329 353 307 308 294 310 317 328 338 318 322 322 297 304 324 303 314 304 330 303 352 304 337 320 285 264 329 318 332 310 350 324 296 305 324 343 328 321 308 307 340 323 292 305 325 331 313 370 306 318 334 333 326 319 321</counts>
			</dataPoints>
		</scan>
	</xrdMeasurement>
</xrdMeasurements>
