<?xml version="1.0"?>
<xrdMeasurements xmlns="http://www.xrdml.com/XRDMeasurement/2.3" xmlns:xsi="http://www.w3.org/2001/XMLSchema-instance" xsi:schemaLocation="http://www.xrdml.com/XRDMeasurement/2.3 http://www.xrdml.com/XRDMeasurement/2.3/XRDMeasurement.xsd" status="Completed" recordIdentifier="{DE3BCC77-770A-4481-B7F9-B39FA63F528D}">
	<comment>
		<entry/>
	</comment>
	<sample type="To be analyzed">
		<id>GPSS_Li1p9Mn0p9Cr0p1Cl4_111725_691b7e20f3837ac4a0a9937f</id>
		<name></name>
		<preparedBy></preparedBy>
	</sample>
	<xrdMeasurement measurementType="Scan" status="Completed" sampleMode="Reflection">
		<usedWavelength intended="K-Alpha 1">
			<kAlpha1 unit="Angstrom">1.5405980</kAlpha1>
			<kAlpha2 unit="Angstrom">1.5444260</kAlpha2>
			<kBeta unit="Angstrom">1.3922500</kBeta>
			<ratioKAlpha2KAlpha1>0.5000</ratioKAlpha2KAlpha1>
		</usedWavelength>
		<incidentBeamPath>
			<radius unit="mm">145.00</radius>
			<xRayTube id="1010048" name="Empyrean Cu LFF HR (9430 033 7310x)">
				<tension unit="kV">40.0</tension>
				<current unit="mA">15.0</current>
				<anodeMaterial>Cu</anodeMaterial>
				<focus type="Line">
					<length unit="mm">12.0</length>
					<width unit="mm">0.4</width>
					<takeOffAngle unit="deg">6.0</takeOffAngle>
				</focus>
			</xRayTube>
			<sollerSlit id="21010002" name="Soller slits 0.04 rad.">
				<opening unit="rad">0.0400</opening>
			</sollerSlit>
			<mask id="22031000" name="Fixed mask 13 mm">
				<width unit="mm">9.00</width>
			</mask>
			<divergenceSlit id="22120001" name="Divergence slit 1°" xsi:type="fixedDivergenceSlitType">
				<distanceToSample unit="mm">50.00</distanceToSample>
				<height unit="mm">1.52</height>
			</divergenceSlit>
		</incidentBeamPath>
		<sampleMovement xsi:type="spinningSampleMovementType">
			<spinnerRevolutionTime unit="seconds">1.0</spinnerRevolutionTime>
		</sampleMovement>
		<diffractedBeamPath>
			<radius unit="mm">145.00</radius>
			<antiScatterSlit id="22090040" name="AS slit 9 mm (PIXcel)" xsi:type="fixedAntiScatterSlitType">
				<height unit="mm">9.00</height>
			</antiScatterSlit>
			<sollerSlit id="21020003" name="Large Soller slits 0.04 rad.">
				<opening unit="rad">0.0400</opening>
			</sollerSlit>
			<filter id="20030001" name="Large beta-filter Nickel">
				<material>Ni</material>
				<thickness unit="mm">0.020</thickness>
			</filter>
			<detector id="7010019" name="PIXcel1D-Medipix3 detector" xsi:type="rtmsDetectorType">
				<phd unit="keV">
					<lowerLevel>4.02</lowerLevel>
					<upperLevel>11.27</upperLevel>
				</phd>
				<mode>Scanning</mode>
				<activeLength unit="deg">5.542</activeLength>
			</detector>
		</diffractedBeamPath>
		<scan appendNumber="0" mode="Continuous" scanAxis="Gonio" status="Completed">
			<header>
				<startTimeStamp>2025-11-20T13:34:37-08:00</startTimeStamp>
				<endTimeStamp>2025-11-20T13:42:44-08:00</endTimeStamp>
				<author>
					<name>AutomatedUser</name>
				</author>
				<source>
					<applicationSoftware version="1.7b (136)">PANalytical Aeris Instrument Suite</applicationSoftware>
					<instrumentControlSoftware version="3.2.00000000 20240306">AERIS</instrumentControlSoftware>
					<instrumentID>950485</instrumentID>
				</source>
			</header>
			<dataPoints>
				<positions axis="2Theta" unit="deg">
					<startPosition>10.00943322</startPosition>
					<endPosition>99.99442286</endPosition>
				</positions>
				<positions axis="Omega" unit="deg">
					<startPosition>5.00471661</startPosition>
					<endPosition>49.99721143</endPosition>
				</positions>
				<commonCountingTime unit="seconds">12.495</commonCountingTime>
				<counts unit="counts">2611 2771 2639 2697 2553 2707 2659 2664 2604 2643 2738 2676 2663 2659 2623 2590 2561 2580 2660 2595 2659 2695 2672 2558 2586 2643 2654 2538 2660 2536 2577 2669 2596 2635 2562 2612 2654 2677 2657 2620 2695 2595 2639 2625 2626 2572 2682 2578 2640 2709 2719 2621 2702 2660 2628 2534 2620 2592 2573 2668 2736 2619 2650 2681 2635 2575 2629 2575 2629 2656 2588 2585 2597 2682 2642 2696 2671 2644 2654 2627 2650 2622 2688 2578 2709 2573 2696 2707 2667 2665 2721 2689 2723 2694 2691 2679 2741 2616 2716 2704 2779 2772 2637 2648 2660 2681 2716 2691 2677 2705 2730 2686 2705 2750 2690 2635 2779 2737 2688 2729 2625 2668 2712 2708 2758 2738 2717 2536 2700 2637 2644 2715 2699 2667 2693 2702 2583 2636 2619 2653 2734 2645 2629 2642 2643 2656 2600 2695 2676 2739 2617 2631 2583 2569 2637 2696 2578 2620 2574 2637 2663 2596 2571 2531 2506 2655 2584 2632 2647 2589 2506 2611 2539 2597 2569 2515 2523 2602 2586 2699 2651 2608 2634 2635 2536 2632 2542 2582 2631 2503 2576 2610 2608 2598 2544 2684 2605 2679 2557 2613 2530 2546 2568 2592 2642 2570 2570 2616 2602 2588 2540 2525 2575 2411 2561 2505 2632 2495 2621 2519 2561 2626 2554 2560 2622 2635 2556 2580 2591 2506 2465 2458 2610 2615 2554 2569 2647 2594 2594 2527 2504 2441 2532 2553 2540 2619 2670 2578 2557 2525 2480 2625 2613 2590 2625 2527 2621 2471 2547 2582 2623 2651 2582 2673 2393 2508 2488 2606 2534 2501 2543 2538 2484 2597 2565 2511 2596 2595 2540 2623 2544 2662 2594 2591 2436 2609 2583 2603 2545 2633 2550 2633 2595 2566 2553 2540 2712 2649 2559 2681 2561 2513 2575 2589 2608 2618 2596 2592 2656 2621 2665 2722 2714 2630 2591 2575 2654 2557 2663 2603 2611 2697 2665 2555 2673 2645 2820 2693 2780 2736 2638 2621 2737 2798 2708 2683 2648 2757 2642 2676 2797 2630 2732 2746 2720 2723 2729 2763 2752 2647 2781 2759 2732 2681 2711 2779 2816 2721 2785 2749 2896 2691 2894 2789 2766 2858 2909 2828 2816 2777 2783 2932 2822 2738 2872 2926 2948 2853 2960 2807 2864 2980 2899 2860 2941 2849 2927 2951 2932 3005 3058 3048 2995 3076 3042 3074 3129 3078 3102 3122 3069 3115 3056 3154 3281 3188 3270 3192 3278 3287 3389 3434 3515 3668 3510 3624 3655 3712 3963 3957 4108 4111 4271 4383 4484 4657 4624 4574 4529 4457 4441 4280 4318 4268 4227 4281 4199 4055 4041 4158 4091 4150 4134 3948 3934 3963 3936 4026 4038 3986 3947 3890 3774 3982 4081 3897 3826 3973 3757 3854 3896 4044 3931 4017 3898 3924 3964 3882 3968 3957 3996 4009 4035 4061 4079 3955 3965 4004 3995 4001 4017 3832 3892 3869 3836 3870 3752 3754 3733 3721 3763 3737 3639 3735 3527 3591 3692 3485 3489 3544 3463 3413 3512 3447 3384 3370 3363 3465 3435 3404 3434 3436 3313 3450 3329 3463 3444 3322 3342 3352 3293 3311 3082 3287 3344 3235 3190 3237 3185 3142 3208 3225 3240 3412 3241 3199 3272 3199 3143 3308 3178 3202 3157 3092 3183 3132 3081 3153 3103 3151 3017 3247 3024 3144 3035 3008 3033 3119 3093 3074 3149 3103 3139 3152 3148 3146 3040 3034 3056 3085 3104 3023 3098 3153 3027 3105 2951 2964 3030 2880 3019 3110 3054 2960 3014 2933 3088 3132 3035 2913 2975 2971 3011 2904 2965 3027 3038 3028 3042 2929 2987 2985 2986 3056 2903 3006 3026 2972 2980 3027 3024 2972 2992 3038 2868 2970 2940 2872 3113 3011 3035 2963 2958 2979 2983 2952 2886 3004 2955 2958 2977 2997 2864 2965 3018 2844 2940 2962 2964 3014 2843 2898 2959 2817 2909 2970 2854 2845 2932 3023 2857 2894 2953 2906 2896 2941 2866 2884 2824 2885 2856 2919 2829 2830 2890 2820 2877 2872 2864 2878 2920 2941 2938 2948 2922 2855 2872 2847 2968 2890 2907 2896 2831 2955 2898 2915 2900 2861 2844 2797 2857 2891 2913 2810 2867 2927 2887 2927 2971 2888 2894 2837 2925 2928 2854 2902 2919 2831 2856 2879 2864 2830 2884 2907 2890 2825 2873 2908 2822 2940 2855 2878 2824 2834 2918 2897 2874 2865 2818 2870 2878 2883 2823 2847 2780 2807 2922 2789 2830 2795 2725 2913 2779 2859 2847 2780 2849 2806 2890 2898 2899 2766 2814 2884 2841 2826 2884 2720 2843 2884 2819 2915 2788 2745 2712 2853 2827 2943 2865 2891 2843 2780 2872 2775 2748 2751 2855 2782 2862 2782 2877 2901 2817 2777 2905 2736 2806 2752 2788 2761 2882 2755 2874 2782 2816 2799 2818 2894 2760 2814 2730 2749 2743 2753 2700 2709 2765 2776 2844 2911 2848 2660 2779 2826 2820 2764 2712 2797 2797 2789 2752 2682 2699 2788 2722 2822 2776 2835 2636 2781 2729 2842 2841 2737 2781 2781 2705 2788 2691 2719 2748 2797 2771 2703 2764 2686 2716 2711 2765 2654 2730 2687 2746 2657 2694 2645 2780 2672 2769 2734 2715 2736 2723 2837 2643 2690 2682 2743 2715 2797 2702 2697 2743 2668 2754 2612 2779 2671 2641 2756 2711 2634 2748 2625 2650 2718 2681 2691 2609 2687 2732 2724 2704 2667 2737 2730 2640 2659 2671 2625 2643 2659 2597 2751 2636 2727 2667 2673 2589 2618 2681 2752 2748 2617 2675 2618 2760 2622 2668 2584 2552 2740 2632 2670 2646 2644 2599 2598 2612 2565 2632 2631 2643 2735 2561 2597 2661 2514 2593 2547 2571 2834 2652 2648 2685 2632 2564 2564 2558 2565 2659 2635 2638 2707 2557 2642 2588 2607 2559 2624 2563 2504 2682 2603 2788 2554 2625 2542 2614 2510 2596 2567 2583 2629 2657 2546 2625 2561 2633 2556 2623 2611 2609 2554 2622 2600 2572 2513 2612 2506 2605 2580 2601 2531 2523 2531 2572 2485 2554 2576 2578 2612 2533 2574 2564 2492 2553 2605 2532 2643 2595 2556 2558 2474 2501 2561 2521 2600 2519 2551 2552 2541 2518 2613 2606 2521 2491 2500 2537 2562 2560 2682 2403 2539 2522 2515 2546 2513 2481 2411 2498 2482 2447 2547 2530 2559 2544 2479 2528 2480 2594 2587 2611 2534 2539 2501 2476 2591 2413 2539 2525 2527 2549 2492 2514 2529 2476 2495 2523 2506 2513 2498 2522 2517 2659 2540 2546 2559 2541 2528 2551 2581 2457 2558 2625 2591 2533 2521 2510 2563 2458 2517 2491 2600 2456 2542 2520 2625 2464 2500 2544 2602 2537 2583 2562 2627 2514 2498 2589 2429 2507 2540 2491 2484 2479 2608 2492 2457 2501 2540 2484 2505 2526 2485 2550 2492 2483 2493 2445 2536 2461 2583 2504 2461 2434 2390 2493 2456 2528 2565 2524 2580 2494 2550 2382 2425 2414 2498 2437 2445 2519 2513 2495 2430 2524 2382 2487 2390 2491 2470 2546 2492 2492 2405 2413 2517 2443 2415 2410 2473 2311 2444 2331 2383 2422 2440 2487 2382 2415 2435 2432 2376 2412 2430 2313 2447 2324 2441 2358 2447 2332 2349 2337 2359 2460 2423 2319 2303 2265 2365 2279 2362 2348 2286 2314 2323 2269 2377 2253 2339 2379 2335 2278 2328 2306 2371 2291 2205 2273 2319 2269 2364 2218 2373 2312 2312 2232 2219 2200 2175 2257 2291 2269 2255 2256 2364 2292 2153 2264 2163 2190 2150 2227 2246 2262 2282 2197 2127 2185 2268 2184 2207 2118 2096 2091 2083 2232 2186 2113 2160 2110 2159 2159 2102 2206 2161 2186 2062 2161 2149 2037 2075 2044 2144 2226 2173 2199 2190 2173 2142 2165 2098 2098 2206 2095 2259 2103 2105 2123 2110 2118 2093 2103 2064 2173 2162 2091 2145 2078 2148 2009 2073 1946 2136 2064 2092 2064 2111 2077 2088 2045 2067 1946 2060 2057 2002 2113 2075 2042 2023 2064 2085 2015 2015 2055 2036 2053 2035 2016 2009 1999 2075 1880 1966 2014 1974 2077 1935 2000 2058 2041 1971 1982 2096 1920 1990 1970 2018 1964 2034 1970 1958 1948 1963 1899 1939 1918 1981 1971 1944 1958 1974 1976 1935 1949 2025 1941 1889 1971 1938 1949 2041 2004 1994 1911 1900 1978 1880 1938 1951 1911 1905 1965 1955 1912 1959 1919 1952 1881 2013 1983 1920 1965 1999 2038 1968 1983 1928 1888 2000 1942 1958 1896 1979 1912 2030 2032 2026 1962 1961 1951 1939 1953 1988 2012 1850 1920 1904 1982 1840 1947 1918 1916 1935 1941 1953 2051 1918 2038 1901 2017 1823 1966 1993 2052 2036 1910 2032 1922 2076 2014 1955 1847 2013 1963 1991 1906 1976 1967 2017 1933 1943 1908 1906 2000 2011 1914 1987 2032 1982 1897 1905 2015 1993 2069 1992 1991 2046 1931 1952 2014 1997 1953 1980 1990 2035 1993 1979 2038 1994 1928 2007 2042 1987 2025 2022 1944 1950 1914 1950 1979 2029 1867 1997 1906 2041 1947 2013 2052 2062 1948 2029 2007 2056 1868 1982 1999 1918 1958 1931 1869 1951 1988 1994 1976 2026 1973 1992 1948 1972 1925 1933 1945 1980 1909 2007 2043 2018 2006 1915 1972 1935 1929 1984 1963 1993 1947 1941 1951 1965 1944 1959 1882 1907 1935 1918 1811 1961 1957 1876 1958 1836 1949 1989 1980 1923 1865 1887 1971 1922 1925 1941 1916 1908 1838 1931 2005 1888 1901 1943 1872 1888 1832 1896 1908 1870 1878 1929 1869 1955 1883 1908 1915 1908 1917 1816 1917 1776 1910 1869 1891 1826 1848 1900 1877 1893 1896 1952 1850 1863 1886 1864 1830 1867 1822 1845 1808 1927 1914 1812 1901 1812 1767 1829 1845 1833 1792 1849 1846 1810 1832 1755 1838 1796 1846 1835 1796 1835 1877 1867 1870 1834 1819 1809 1752 1812 1891 1807 1843 1788 1803 1797 1826 1820 1792 1788 1890 1856 1748 1775 1727 1770 1795 1920 1986 1869 1890 2017 2091 2038 2014 2164 2086 2357 2312 2406 2581 2644 2674 2890 2929 3030 3204 3299 3257 3155 3177 3057 3098 3008 2884 2809 2762 2702 2505 2464 2421 2351 2237 2216 2124 2060 2070 2020 2052 2042 1997 1923 1896 1978 1905 1923 1881 2009 1915 1903 1891 1959 1919 1888 1788 1800 1852 1850 1945 1924 1911 1853 1847 1835 1868 1837 1895 1897 1843 1809 1761 1832 1783 1879 1779 1870 1785 1732 1699 1755 1741 1720 1697 1646 1718 1700 1676 1690 1695 1663 1772 1765 1760 1742 1706 1693 1740 1709 1759 1706 1778 1715 1721 1712 1736 1706 1718 1636 1706 1767 1691 1767 1718 1800 1858 1822 1839 1969 1992 2038 2089 2275 2282 2428 2620 2757 2909 2986 3284 3560 3748 4041 4251 4572 4703 4873 4900 4817 4596 4466 4279 4212 4097 3916 3739 3478 3286 3041 2947 2820 2643 2517 2329 2382 2290 2104 2125 2136 2075 2054 2081 2080 2111 2052 2064 2214 2046 2145 1963 2091 1954 2097 1997 2007 2082 2020 1905 2082 2075 2170 2170 2188 2179 2407 2345 2367 2430 2489 2537 2599 2620 2743 2588 2650 2518 2483 2513 2366 2350 2259 2210 2152 2203 2009 2052 2018 2056 1943 1928 1838 1859 1802 1808 1809 1778 1753 1704 1789 1753 1690 1717 1749 1740 1764 1787 1799 1841 1739 1796 1689 1696 1767 1736 1704 1668 1713 1736 1662 1714 1649 1655 1662 1605 1681 1715 1683 1600 1649 1576 1600 1559 1639 1687 1549 1586 1598 1604 1619 1635 1646 1588 1689 1579 1542 1648 1511 1550 1556 1510 1544 1582 1525 1576 1566 1580 1480 1521 1474 1489 1505 1492 1487 1516 1445 1403 1424 1452 1396 1389 1501 1499 1479 1494 1430 1478 1387 1412 1434 1466 1560 1361 1424 1419 1466 1412 1425 1359 1369 1338 1404 1392 1368 1374 1457 1382 1423 1407 1439 1418 1427 1388 1393 1365 1393 1442 1473 1413 1387 1364 1414 1405 1429 1425 1464 1394 1395 1432 1377 1458 1356 1391 1415 1402 1352 1425 1386 1376 1428 1411 1455 1392 1401 1358 1321 1444 1363 1423 1317 1475 1393 1343 1387 1347 1419 1345 1430 1415 1404 1372 1338 1400 1410 1364 1386 1412 1380 1319 1394 1408 1395 1312 1464 1350 1403 1381 1393 1334 1347 1403 1344 1360 1318 1424 1355 1360 1374 1367 1381 1407 1340 1396 1410 1342 1415 1366 1313 1289 1409 1373 1369 1370 1392 1409 1336 1381 1383 1360 1256 1357 1441 1360 1381 1311 1381 1325 1324 1339 1395 1406 1314 1347 1352 1329 1304 1353 1428 1387 1352 1338 1324 1390 1359 1318 1401 1346 1397 1290 1339 1408 1299 1359 1341 1427 1408 1446 1400 1365 1393 1306 1394 1427 1385 1462 1357 1416 1339 1405 1413 1361 1351 1347 1401 1397 1385 1356 1352 1338 1412 1336 1381 1371 1373 1448 1371 1384 1405 1410 1370 1373 1333 1362 1408 1377 1448 1372 1415 1343 1449 1358 1369 1431 1346 1411 1359 1425 1355 1402 1497 1437 1385 1440 1415 1426 1394 1401 1512 1432 1474 1570 1414 1486 1502 1500 1534 1503 1518 1447 1480 1461 1568 1608 1627 1630 1612 1595 1652 1664 1682 1631 1639 1773 1779 1803 1895 1897 1984 2155 2188 2408 2461 2619 2877 3163 3552 3888 4320 4703 5378 5912 6702 7325 8321 8972 9887 10700 11388 11668 11979 11691 11441 10940 10555 10062 9512 9142 8667 8023 7287 6704 5892 5440 4731 4328 4107 3769 3399 3388 3094 3070 2896 2869 2911 2839 3018 2882 2954 3131 2966 3066 3063 3075 3056 3002 3117 3020 3049 3063 2984 2946 2876 2979 2804 2852 2923 2751 2715 2741 2647 2723 2769 2768 2761 2663 2682 2688 2707 2697 2701 2754 2726 2768 2721 2744 2756 2675 2599 2597 2533 2521 2352 2452 2330 2304 2112 2136 2147 2074 2020 1952 1875 1877 1778 1735 1711 1701 1718 1716 1652 1652 1664 1644 1595 1599 1586 1525 1546 1568 1546 1523 1557 1546 1467 1542 1470 1447 1481 1502 1429 1465 1432 1447 1503 1432 1441 1453 1396 1519 1402 1474 1339 1397 1388 1472 1375 1428 1372 1408 1415 1401 1346 1249 1415 1428 1277 1247 1386 1354 1388 1318 1357 1393 1325 1380 1270 1325 1288 1321 1327 1296 1306 1288 1346 1333 1243 1356 1289 1294 1372 1305 1353 1309 1315 1342 1303 1314 1270 1303 1331 1313 1319 1309 1349 1299 1286 1293 1252 1290 1259 1237 1248 1300 1351 1312 1288 1316 1297 1270 1305 1264 1281 1344 1236 1251 1230 1294 1290 1264 1363 1362 1246 1305 1299 1303 1321 1265 1234 1250 1342 1301 1269 1266 1279 1300 1313 1321 1311 1248 1269 1260 1252 1279 1266 1279 1347 1273 1272 1217 1242 1301 1263 1309 1245 1256 1283 1222 1291 1270 1236 1289 1230 1281 1295 1245 1195 1250 1229 1204 1230 1184 1274 1283 1285 1250 1238 1251 1289 1232 1233 1273 1261 1179 1248 1296 1226 1274 1266 1226 1235 1291 1267 1225 1246 1293 1279 1333 1322 1208 1241 1219 1296 1271 1272 1241 1296 1285 1252 1415 1352 1364 1353 1385 1305 1309 1303 1369 1241 1209 1270 1275 1225 1299 1271 1296 1233 1232 1272 1264 1307 1300 1234 1223 1243 1233 1153 1276 1184 1241 1286 1231 1195 1285 1297 1188 1229 1240 1191 1265 1177 1178 1235 1258 1231 1225 1189 1244 1273 1237 1237 1235 1288 1287 1265 1230 1198 1250 1270 1171 1210 1259 1212 1233 1226 1222 1212 1152 1218 1161 1196 1244 1229 1176 1192 1165 1181 1193 1182 1212 1183 1189 1156 1149 1150 1166 1222 1199 1152 1192 1219 1200 1151 1218 1186 1186 1166 1120 1203 1165 1196 1187 1181 1170 1185 1177 1220 1106 1165 1121 1156 1202 1136 1085 1195 1166 1162 1181 1201 1166 1166 1185 1158 1121 1205 1106 1158 1231 1173 1102 1155 1193 1138 1175 1168 1118 1164 1141 1163 1189 1192 1186 1111 1171 1196 1196 1159 1174 1148 1186 1217 1134 1172 1153 1166 1147 1164 1166 1154 1113 1133 1146 1149 1205 1156 1088 1225 1127 1263 1147 1144 1119 1142 1150 1113 1121 1157 1107 1173 1144 1146 1188 1158 1137 1163 1206 1147 1155 1086 1185 1115 1158 1110 1135 1201 1115 1156 1173 1145 1230 1151 1147 1158 1147 1132 1121 1132 1056 1079 1113 1211 1117 1097 1090 1107 1106 1135 1169 1114 1145 1101 1106 1163 1075 1153 1089 1119 1087 1177 1148 1123 1136 1085 1106 1139 1069 1122 1143 1132 1143 1130 1105 1134 1115 1107 1089 1114 1106 1139 1089 1185 1100 1123 1150 1074 1159 1109 1159 1115 1086 1111 1130 1182 1151 1130 1160 1125 1070 1082 1093 1151 1060 1090 1179 1089 1151 1098 1102 1160 1117 1087 1146 1085 1108 1102 1118 1100 1142 1131 1074 1140 1140 1104 1127 1068 1106 1086 1083 1076 1062 1165 1087 1093 1108 1151 1056 1148 1076 1140 1072 1093 1169 1101 1098 1135 1127 1127 1136 1107 1189 1031 1140 1174 1147 1053 1068 1051 1097 1049 1168 1131 1084 1086 1087 1047 1106 1093 1178 1077 1133 1118 1121 1112 1089 1055 1066 1133 1137 1141 1035 1120 1095 1107 1105 1161 1124 1134 1092 1064 1095 1143 1107 1085 1063 1133 1072 1040 1142 1094 1079 1097 1086 1155 1080 1085 1126 1108 1081 1109 1076 1109 1142 1067 1072 1064 1071 1103 1115 1089 1077 1135 1112 1015 1089 1095 1107 1054 1087 1087 1099 1079 1099 1073 1095 1104 1144 1087 1104 1114 1093 1095 1129 1064 1111 1099 1085 1106 1112 1072 1097 1025 1098 1055 1065 1077 1055 1044 1073 1120 1116 1060 1081 1105 1100 1129 1142 1104 1043 1090 1157 1089 1124 1135 1081 1093 1088 1136 1064 1053 1077 1103 1043 1086 1118 1117 1034 1065 1112 1063 1082 1093 1103 1091 1089 1120 1050 1150 1056 1086 1114 1129 1107 1124 1114 1144 1026 1125 1136 1105 1094 1094 1127 1139 1093 1065 1078 1088 1065 1092 1115 1063 1078 1095 1080 1076 1102 1055 1063 1086 1095 1058 1054 1112 1117 1104 1106 1139 1071 1115 1058 1078 1122 1141 1046 1114 1082 1060 1050 1113 1105 1052 1087 1165 1066 1089 1114 1022 1107 1111 1133 1077 1067 1054 1054 1111 1028 1079 1034 1082 1079 1091 1077 1086 1090 1081 1067 1154 1119 1096 1088 1093 1110 1078 1099 1089 1079 1104 1084 1127 1081 1057 1094 1089 1078 1102 1049 1097 1041 1021 1024 1033 1093 1084 1117 1050 1061 1173 1099 1099 1110 1078 1048 1045 1154 1023 1116 1050 1151 1108 1030 1135 1098 1063 1064 1111 1089 1070 1047 1070 1116 1055 1121 1063 1099 1091 1140 1119 1049 1079 1057 1103 1068 1086 1079 1075 1094 1049 1073 1116 1094 1142 1066 1123 1165 1076 1057 1075 1117 1106 1072 1060 1042 1103 1101 1088 1032 1058 1161 1135 1134 1067 1057 1124 1044 1121 1091 1052 1060 1030 1071 1139 1064 1094 1085 1056 1135 1061 1078 1117 1152 1044 1105 1083 1084 1154 1125 1122 1111 1135 1110 1102 1152 1166 1135 1160 1180 1209 1156 1221 1242 1320 1358 1411 1374 1551 1549 1625 1722 1833 1899 1986 2146 2218 2203 2183 2115 1993 1990 1857 1919 1867 1839 1831 1752 1708 1647 1618 1523 1448 1420 1348 1363 1272 1231 1225 1217 1195 1176 1136 1117 1077 1085 1129 1117 1110 1166 1102 1149 1079 1103 1136 1139 1137 1126 1113 1129 1123 1130 1113 1163 1116 1126 1100 1109 1136 1133 1172 1150 1125 1154 1186 1046 1169 1124 1188 1204 1192 1150 1188 1135 1181 1194 1103 1123 1156 1132 1166 1131 1067 1136 1220 1159 1115 1150 1156 1190 1190 1145 1040 1169 1142 1117 1150 1119 1148 1167 1173 1188 1138 1035 1121 1150 1087 1129 1082 1164 1133 1101 1015 1088 1157 1043 1091 1058 1118 1031 1052 1034 1085 1042 1070 1096 1053 1107 1068 1035 1130 1075 1058 1122 1076 1134 1061 1058 1060 1076 1101 1032 1098 1113 1130 1068 1164 1039 1092 1027 1100 1062 1009 1012 1059 1090 1063 1075 1097 1080 1115 1048 1069 1013 1078 1066 1102 998 1068 1090 1117 1088 1075 1000 1030 1108 1059 1059 1034 1049 1047 1058 1027 1031 1085 1023 1065 1074 1032 1051 1076 1065 1008 1074 1095 991 1063 1107 1043 1096 1090 1078 1072 1037 1061 1063 1052 1130 1067 1040 1064 1053 1120 1080 1055 1062 1122 1087 1067 1057 1044 1036 1088 1079 1073 1045 1016 1099 1040 1038 1129 1085 1015 1061 1118 1103 1087 1071 1082 1088 1089 1088 1064 1131 1053 1098 1016 1045 1076 1088 1145 1033 1053 1020 1073 1123 1086 1030 1101 1102 1082 1151 1032 1030 1063 1057 1071 1074 1059 1097 1068 1021 1122 1080 1032 1084 1114 1058 1146 1077 1078 1123 1030 1084 1068 1101 1070 1058 1041 1073 1030 1099 1034 1070 1041 1076 1036 1057 1083 1024 1079 1080 1076 1108 1050 1103 1058 1093 1075 1044 1049 1028 1124 1065 1033 1050 1059 1029 1108 1067 1082 1030 1090 1068 1080 1079 974 1080 1074 1101 1118 1085 1126 1146 1043 1036 1079 1124 1118 1052 1086 1081 1092 1136 1133 1183 1153 1103 1110 1120 1176 1176 1171 1152 1160 1219 1200 1122 1170 1163 1201 1137 1155 1167 1214 1214 1341 1182 1236 1207 1359 1272 1378 1312 1355 1425 1444 1503 1525 1660 1779 1872 1954 2241 2363 2629 2866 3270 3649 4287 4616 5263 5733 6189 6624 6726 6717 6313 6122 5737 5326 5041 4927 4814 4721 4710 4749 4582 4377 3863 3666 3237 2978 2724 2442 2282 2069 1920 1755 1683 1703 1555 1504 1408 1413 1360 1301 1261 1309 1270 1289 1256 1236 1225 1256 1247 1221 1266 1158 1337 1242 1364 1296 1357 1369 1334 1325 1300 1386 1365 1414 1473 1438 1431 1406 1463 1489 1397 1437 1521 1462 1489 1458 1492 1508 1515 1436 1508 1536 1456 1424 1460 1430 1496 1376 1491 1522 1457 1363 1439 1434 1425 1400 1492 1450 1479 1454 1556 1498 1534 1550 1566 1585 1638 1558 1533 1590 1581 1416 1493 1637 1519 1504 1561 1465 1528 1464 1359 1430 1398 1372 1426 1361 1311 1296 1312 1257 1258 1241 1331 1357 1288 1206 1164 1201 1199 1170 1148 1161 1118 1147 1165 1121 1148 1157 1162 1136 1169 1113 1162 1083 1156 1130 1111 1121 1165 1167 1140 1087 1168 1091 1137 1139 1102 1111 1062 1193 1101 1074 1164 1141 1137 1119 1153 1134 1173 1102 1101 1117 1124 1166 1033 1102 1070 1083 1113 1092 1144 1045 1112 1122 1128 1120 1078 1100 1088 1072 1080 1132 1052 1057 1005 1056 1091 1062 1055 1091 1054 1130 1053 1138 1109 1159 1114 1171 1141 1195 1218 1217 1334 1397 1352 1473 1518 1546 1645 1598 1650 1618 1630 1607 1557 1539 1494 1394 1441 1494 1382 1462 1478 1406 1389 1388 1385 1342 1328 1212 1175 1236 1201 1116 1156 1142 1135 1146 1105 1079 1138 1070 1025 1054 1089 1085 1067 1046 1089 1043 1093 998 1110 1092 1064 1003 1077 1020 1047 971 1057 1034 1052 992 1003 990 1018 1025 1008 1057 970 1081 1031 1109 990 1036 1043 1036 1075 1064 1066 1091 1064 999 1032 1063 1102 1064 1068 1078 1065 1065 1060 1113 1025 996 1057 1073 1066 979 1049 1001 1049 1021 1068 1013 1005 1049 1083 1020 999 1025 1038 1014 1020 1029 1046 964 977 970 986 1047 962 956 1022 1022 1022 976 980 961 1007 1031 1047 1037 1046 969 988 974 1030 1051 1020 984 986 991 1002 996 1054 995 959 1020 1001 996 988 1038 1034 1043 980 999 1023 1006 1049 1034 1048 969 1024 1028 1040 1028 950 1083 1052 1011 1000 1000 1055 1038 1030 1027 1031 1032 1041 1065 1007 1026 1108 948 1035 1010 1042 985 1037 959 1051 972 1050 1038 968 941 924 968 965 986 1003 986 1001 1005 1054 1003 980 996 1000 1010 1022 1004 1038 957 1033 1050 995 992 1015 948 1009 994 1004 987 1018 951 995 1009 974 1010 979 998 945 1028 977 1002 967 991 986 947 968 992 1005 975 968 941 984 970 957 960 1004 996 1006 982 970 921 1018 943 1007 960 926 975 937 975 954 963 978 978 975 966 938 938 1035 1020 988 900 920 916 974 981 986 992 1012 922 933 968 945 976 943 1006 1006 967 1021 937 968 985 1044 959 912 971 950 994 926 1039 970 971 929 981 985 927 979 948 923 914 946 996 953 920 999 899 978 968 913 965 954 924 986 957 955 951 1017 913 992 958 966 1007 910 965 942 969 968 947 997 958 916 993 940 1022 931 969 999 959 979 989 988 978 980 976 1022 1026 969 941 982 965 958 948 945 988 974 972 966 956 933 965 993 999 1012 894 971 914 981 957 969 977 943 942 948 1018 962 988 1015 996 951 990 929 981 903 926 980 1000 954 941 981 995 953 959 950 1016 950 973 937 951 963 956 1010 971 998 965 967 940 970 1000 982 935 1005 933 947 957 904 906 933 952 966 990 947 960 921 992 933 987 943 945 953 976 994 944 939 980 968 964 961 949 992 921 949 999 1006 1011 944 912 951 982 927 939 1000 980 945 984 891 940 916 955 882 901 933 966 986 974 962 908 974 935 955 961 1030 941 1016 906 964 949 957 976 958 895 960 977 968 987 984 956 903 925 964 941 1005 969 927 993 1030 919 960 919 921 929 955 963 978 921 958 969 992 960 949 940 963 946 982 920 970 946 885 943 930 910 947 957 959 960 949 983 1018 935 983 942 930 957 941 959 1001 946 1001 985 973 979 1014 971 982 977 1018 1015 999 1065 1068 1071 1052 1131 1136 1139 1086 1075 1070 1058 1020 1058 1058 1001 1041 991 1067 1036 1029 1052 988 1035 1021 1046 977 993 1006 1012 946 1016 968 992 1011 1036 978 961 929 937 970 1006 1017 1004 1000 904 981 935 992 969 978 984 995 997 971 1010 1081 1064 1074 1076 1119 1029 1156 1180 1147 1303 1356 1340 1479 1607 1641 1690 1681 1666 1720 1696 1643 1608 1506 1427 1497 1362 1320 1420 1410 1428 1414 1410 1496 1367 1329 1309 1298 1173 1162 1141 1088 1099 1117 1042 1006 1105 1011 967 1057 975 1030 972 1004 1009 1009 1002 968 1017 965 929 988 981 976 977 992 977 965 980 992 968 900 882 859 936 1025 956 1014 969 899 919 994 963 960 934 1010 948 958 969 916 975 924 962 969 869 956 980 952 1007 966 1035 984 1026 954 965 997 1007 970 1004 933 955 983 1028 981 979 968 992 943 968 1014 1004 993 1042 1001 1055 1049 1013 1001 1036 1062 1068 1022 1069 1034 1089 1088 1081 1106 1167 1202 1196 1175 1099 1150 1161 1082 1115 1097 1089 1087 1065 1113 1057 1078 1100 1069 1108 1068 1045 1022 960 1036 1048 949 1001 997 1016 998 954 972 906 924 885 944 1000 924 963 941 970 964 972 935 977 947 950 953 926 963 927 981 940 997 956 944 964 1002 947 912 928 956 915 948 965 975 924 931 942 941 929 949 904 940 917 962 893 910 884 956 909 974 967 927 918 906 911 955 965 917 918 930 992 973 969 961 959 964 1017 969 920 994 924 1026 931 929 968 994 996 997 974 1011 1030 973 1010 1015 987 983 975 1025 1017 983 1010 968 1034 1005 1031 1110 1076 1085 1108 1197 1211 1359 1321 1429 1584 1676 1751 1963 2074 2259 2343 2452 2413 2306 2038 2039 1905 1882 1682 1724 1653 1661 1735 1711 1736 1747 1843 1724 1738 1673 1628 1532 1417 1431 1320 1288 1245 1191 1188 1138 1088 1052 1141 1040 1078 1079 1075 952 1095 1014 973 996 936 968 1024 1011 983 1020 1013 998 942 939 899 939 909 919 991 939 918 966 901 973 962 939 953 924 974 878 947 938 960 909 920 956 933 864 933 930 972 1012 876 938 923 999 996 881 939 909 892 915 933 911 907 892 919 941 892 926 911 960 938 901 904 929 937 925 991 907 890 934 895 956 938 931 973 959 927 966 921 950 950 973 968 951 1046 1077 1020 1044 990 1007 1023 1060 959 1024 991 963 953 1001 991 973 975 998 887 1009 987 994 1000 1014 951 955 932 942 982 1003 984 901 980 929 947 920 938 932 942 974 901 964 967 897 934 935 965 913 939 909 924 955 968 949 958 981 940 987 991 1032 1045 1036 1010 1074 1158 1162 1149 1236 1317 1183 1240 1203 1245 1202 1221 1140 1106 1142 1131 1114 1073 1035 1141 1125 1101 1144 1100 1074 1115 1040 1040 1040 1041 1045 996 1040 952 963 967 940 954 963 1000 893 999 930 884 879 929 944 976 886 944 912 877 913 911 945 926 916 902 934 897 908 923 885 920 917 948 892 920 913 909 853 875 926 818 903 898 875 944 916 946 919 915 943 913 982 923 934 939 923 918 905 929 917 906 887 1003 958 956 1025 914 938 986 925 931 1003 905 969 966 919 898 914 896 931 929 897 885 934 916 891 897 905 918 925 941 902 932 935 877 955 901 903 979 866 850 903 942 907 922 998 910 916 873 889 893 925 927 904 924 919 875 935 904 950 883 899 932 883 947 868 897 914 942 887 920 933 924 855 920 941 933 934 929 906 880 902 903 916 889 928 880 896 868 852 895 928 948 907 859 934 951 941 944 922 963 969 884 950 923 912 967 911 922 925 907 902 944 879 906 869 933 895 963 906 886 877 944 906 906 894 914 959 867 931 958 945 884 912 901 923 912 905 908 937 882 877 925 900 916 934 940 929 892 942 917 912 977 946 879 924 826 915 907 905 894 883 900 906 950 930 970 926 900 867 880 949 1012 899 881 925 887 896 941 944 907 881 941 886 918 875 972 894 937 957 911 982 939 961 962 945 945 918 1011 894 898 863 961 986 908 887 976 878 888 934 890 959 885 912 903 968 905 936 906 858 891 926 892 883 981 922 976 940 878 951 957 949 908 909 882 876 951 974 937 927 939 934 889 964 944 953 938 967 918 956 918 952 891 957 945 913 885 955 904 928 896 922 890 952 949 904 936 886 939 896 877 946 971 965 928 903 967 936 983 937 923 863 922 916 938 913 931 940 947 865 948 911 919 895 887 927 921 908 917 921 907 902 981 926 970 890 858 887 900 868 880 969 908 929 950 921 842 866 935 921 915 909 899 884 925 922 956 920 920 905 928 948 915 861 942 940 896 912 938 919 924 898 899 945 857 956 985 917 926 944 920 931 972 927 923 902 946 897 908 906 935 880 980 892 853 940 902 915 995 900 964 971 943 868 933 943 876 891 894 913 997 925 946 956 915 918 950 933 874 900 919 969 949 923 959 942 970 924 931 940 960 965 957 1018 1023 1105 1081 1098 1121 1157 1141 1150 1132 1132 1174 1105 1048 1064 1031 1012 1088 1026 1040 1023 956 1023 1027 990 1019 1056 1008 973 983 1048 976 983 983 957 990 952 974 935 917 931 996 931 957 909 960 947 880 928 961 925 952 868 940 893 944 876 953 893 986 861 894 935 906 911 936 965 899 894 856 935 945 904 916 902 913 951 938 946 944 960 884 904 930 901 901 946 926 922 927 896 904 929 998 903 960 973 973 908 887 965 955 928 938 886 966 973 913 881 890 899 987 946 918 928 930 993 942 899 941 925 847 928 974 921 950 924 948 934 970 953 962 920 952 959 951 921 931 983 906 926 896 897 908 928 879 946 912 953 912 930 966 922 943 917 1012 921 943 894 940 958 950 936 955 969 901 930 897 905 899 922 944 879 960 867 965 917 926 897 903 943 926 907 899 892 907 887 893 948 906 884 938 897 942 914 879 922 906 887 853 851 892 926 925 960 957 889 899 927 931 888 904 873 927 950 983 952 940 916 923 889 906 961 959 969 898 855 846 917 915 925 875 923 967 952 908 917 908 915 898 923 920 891 945 966 952 893 921 946 903 961 905 985 913 890 937 1014 913 918 913 944 948 838 958 952 909 890 907 931 920 898 947 947 883 957 938 896 931 926 914 945 962 908 956 976 958 968 968 977 975 952 951 954 1008 960 1068 1061 1089 1162 1129 1158 1123 1213 1306 1349 1398 1348 1461 1470 1504 1487 1517 1498 1475 1465 1383 1383 1373 1332 1288 1223 1292 1228 1290 1204 1314 1230 1324 1304 1269 1217 1225 1235 1208 1127 1193 1137 1091 1115 1120 1097 1054 980 974 952 1033 933 921 1015 875 1031 947 940 955 967 901 977 898 918 922 924 909 931 969 949 941 948 875 939 955 965 981 949 929 912 947 937 955 931 859 923 901 951 968 922 958 941 987 1017 953 945 906 924 887 937 958 936 902 976 932 887 965 887 910 888 907 989 914 929 962 920 897 962 899 892 923 929 941 937 933 945 909 960 921 974 916 912 961 928 940 895 901 922 977 955 862 928 887 932 922 960 943 875 869 905 902 982 954 884 892 865 929 931 931 943 923 954 899 893 914 963 928 905 997 959 956 914 958 960 941 939 988 981 932 979 922 931 935 990 925 948 877 895 942 952 976 985 893 956 956 932 985 921 946 1019 906 863 941 956 936 911 885 887 851 869 926 935 923 948 946 870 933 886 918 963 937 894 830 892 947 969 913 880 892 894 921 896 937 893 951 918 920 942 927 913 889 956 960 963 923 903 871 940 904 936 873 911 884 920 915 931 870 883 915 905 886 893 894 885 950 895 885 884 888 909 897 880 873 875 896 927 912 921 920 901 935 946 870 913 899 914 962 954 878 929 853 895 896 943 870 892 860 870 844 861 864 944 942 933 945 842 947 938 882 915 897 915 924 834 945 899 895 868 895 937 901 895 883 890 896 903 846 845 904 907 864 903 934 930 918 872 927 842 892 921 892 891 941 888 918 892 929 934 919 913 891 887 874 874 907 841 937 902 869 903 867 854 941 897 938 887 901 897 922 932 896 864 915 915 894 856 937 903 976 901 902 905 881 852 909 924 917 913 947 863 953 905 881 895 868 870 877 912 916 936 919 885 885 939 920 886 924 884 899 925 894 898 884 885 894 862 857 965 931 943 911 937 905 941 889 873 990 905 908 931 908 900 904 857 905 905 963 923 925 938 957 878 901 914 911 874 922 901 952 866 905 894 914 910 933 908 896 924 872 894 931 922 876 908 950 937 913 887 927 910 916 877 878 903 936 879 959 937 955 888 862 912 867 933 921 958 883 906 863 920 902 930 936 899 932 848 858 968 893 892 856 897 886 893 873 895 900 933 914 948 923 935 911 897 860 894 932 959 955 904 885 887 908 894 871 951 923 945 883 895 950 956 923 899 872 934 891 927 885 877 866 907 928 945 925 913 943 897 938 930 914 866 895 902 873 934 915 983 942 970 883 869 948 871 930 900 942 915 960 971 933 899 914 925 910 919 881 918 877 882 925 926 963 925 901 973 855 919 924 937 929 926 882 962 925 1016 867 973 890 968 871 928 941 889 936 950 908 964 881 940 968 988 936 946 920 951 959 919 913 987 927 861 950 873 930 907 955 926 921 911 1002 981 969 884 916 933 923 892 1024 996 924 958 954 973 959 918 943 910 1001 954 1017 950 985 1007 993 1003 1040 1084 1055 1086 1074 1094 1055 1045 990 988 1077 1028 1000 1086 991 1019 996 995 1043 997 1024 994 1002 1046 1007 984 973 1010 1067 1021 1000 1045 1024 1019 1097 968 971 957 983 966 993 961 988 958 973 954 973 1008 975 994 1004 1022 977 1001 1057 960 1047 1082 1065 1118 1136 1153 1107 1123 1161 1192 1031 1081 1113 1051 1057 1064 1049 1036 1039 1004 999 1032 963 1073 1001 1049 1049 1030 1011 998 1044 1019 998 1001 1011 990 957 974 906 937 941 992 949 925 943 899 918 991 987 959 917 909 933 934 978 957 926 977 950 946 960 912 939 963 934 910 906 957 876 934 984 945 1009 948 1005 960 970 975 988 929 900 951 921 967 928 919 948 958 981 974 932 954 925 965 943 910 973 999 894 924 966 906 946 996 992 984 950 1000 969 948 912 925 908 897 925 924 946 955 926 921 932 916 934 878 923 907 942 921 962 945 946 998 953 926 1008 953 946 952 929 967 926 976 978 980 934 975 935 982 958 987 1009 974 922 970 977 929 1022 1034 976 959 917 955 973 980 975 1012 946 974 1012 1029 989 994 973 1005 986 969 973 985 993 1044 1009 1027 1008 1070 1037 1036 1027 1029 1106 1028 1045 1024 1033 1024 1061 1111 1077 1074 1029 1028 1045 1034 1127 1034 1134 1050 1083 1029 1041 1049 1083 1036 1115 1067 1040 1095 1047 1090 1156 1083 1104 1102 1185 1196 1169 1305 1304 1317 1368 1432 1489 1538 1648 1776 1774 1799 1828 1870 1834 1818 1803 1772 1725 1695 1587 1572 1479 1503 1438 1442 1379 1417 1446 1390 1444 1420 1465 1501 1516 1445 1486 1426 1414 1492 1366 1307 1330 1317 1309 1275 1141 1156 1196 1085 1134 1135 1070 1072 1123 1043 1036 1037 1087 1000 1023 1002 1021 968 1045 1026 1002 1015 1008 942 951 895 907 962 1003 968 1007 987 992 945 946 936 932 889 932 944 936 929 956 965 886 1006 981 942 933 957 977 955 1030 958 948 970 998 890 982 1016 989 966 966 976 980 943 943 920 955 975 978 944 983 923 940 949 947 901 920 943 980 944 979 985 896 936 946 962 955 1001 1027 981 925 939 950 912 959 1007 935 937 950 980 988 955 938 974 932 912 985 980 913 889 924 927 906 1006 928 1003 962 981 962 957 974 1030 941 941 991 981 962 997 982 1014 993 1035 1029 1059 1008 1039 1002 1024 1046 1095 1067 1037 1028 1035 1032 1037 1037 1049 1069 1054 1014 1046 1049 1099 1051 1089 1080 1075 1056 1074 1117 1051 1069 1080 1118 1032 1048 1048 1025 1007 1042 1036 1054 1014 1032 985 1040 1061 1014 1018 1034 1036 1041 1000 1049 973 967 971 977 975 997 956 936 969 991 956 932 954 948 973 973 944 942 958 901 919 918 939 956 941 926 966 933 919 923 957 928 878 958 949 918 904 945 956 942 914 919 933 877 879 968 910 957 898 971 959 937 997 909 892 945 932 941 1007 913 915 887 922 899 952 974 888 956 934 934 931 963 830 940 849 958 865 966 922 898 918 917 932 912 969 888 982 895 904 975 881 943 856 929 930 902 943 925 893 898 929 972 972 932 1018 910 915 896 921 944 940 972 883 881 939 954 969 928 945 930 907 933 924 937 900 908 914 942 911 890 947 900 884 932 930 939 925 946 917 938 958 928 930 902 921 966 871 940 954 943 945 913 924 918 911 965 962 867 957 888 908 946 924 885 890 894 1006 896 909 990 918 900 914 915 852 883 936 911 905 923 919 917 1016 887 937 887 881 965 922 946 936 866 965 953 926 887 956 901 892 931 931 893 903 923 897 912 952 899 979 920 898 914 898 883 912 887 923 894 931 945 879 852 924 911 878 959 941 939 942 903 894 905 947 905 868 923 913 916 933 959 902 933 906 952 939 912 910 970 916 918 909 996 895 968 926 953 920 918 866 892 897 891 886 890 924 848 876 898 863 883 867 886 925 909 930 907 902 917 912 989 919 934 965 891 903 1010 908 934 939 944 938 946 940 954 919 922 954 901 946 942 926 991 999 969 956 957 940 942 906 873 953 888 947 847 934 941 914 881 925 947 941 959 954 925 964 933 965 938 965 971 967 914 923 926 885 995 887 950 957 1007 964 980 958 951 980 1019 969 932 943 962 898 988 938 911 938 1013 948 936 960 1045 943 956 984 1004 902 955 966 955 994 947 956 999 971 952 932 974 964 918 961 960 900 1026 993 940 948 1006 944 950 918 988 922 953 1010 964 959 953 935 986 951 1037 975 998 1016 994 1015 1008 1016 1004 1054 948 1090 1006 986 1022 1045 1021 960 1030 1007 1011 992 1010 955 967 969 1019 992 1020 1032 1052 982 997 983 951 983 1015 963 992 944 957 1026 994 928 959 978 984 924 955 933 951 980 913 944 925 872 945 931 1014 949 946 934 953 959 924 949 950 925 904 911 955 971 943 931 903 949 970 943 920 962 924 960 1011 942 931 921 926 1001 937 926 945 947 945 988 974 957 945 905 896 933 932 921 932 951 1005 964 957 966 954 922 985 953 988 909 985 979 944 902 997 965 945 961 932 932 927 961 946 927 988 925 1002 945 941 981 944 946 989 939 962 965 967 978 941 970 974 967 955 962 992 950 982 969 932 977 945 950 944 990 999 997 950 938 1005 1015 1002 992 968 888 932 967 979 962 977 923 921 928 965 953 952 921 955 949 949 929 967 963 939 921 995 996 883 1002 1011 925 883 958 980 959 959 1007 917 917 884 942 944 893 929 957 974 925 904 908 956 976 947 946 1017 967 959 906 883 960 943 947 926 962 907 958 917 956 885 961 942 950 938 956 909 939 1009 953 975 926 959 991 940 944 957 938 973 965 983 960 972 992 946 969 963 962 967 947 978 1022 970 968 972 1004 1028 998 989 963 1017 960 1002 1001 1053 996 1100 1027 1064 1089 1083 1139 1207 1173 1174 1161 1177 1177 1263 1210 1277 1271 1342 1324 1377 1343 1395 1426 1410 1400 1400 1415 1352 1321 1367 1360 1267 1252 1337 1273 1277 1261 1207 1178 1222 1234 1206 1280 1223 1200 1203 1236 1229 1245 1183 1212 1163 1263 1263 1193 1150 1148 1142 1130 1089 1141 1082 1056 1109 1048 1051 1040 1016 1033 1059 1070 990 1007 1013 992 1027 1003 1099 982 980 991 969 954 978 995 950 968 935 978 999 967 977 928 947 984 964 952 943 978 939 950 897 976 968 987 986 971 941 935 918 927 966 956 967 920 977 981 974 929 936 931 955 1010 888 956 932 948 949 935 978 902 955 963 926 925 961 969 909 1004 949 888 927 958 977 941 938 934 984 906 934 950 974 913 937 893 928 931 941 913 1005 937 910 924 986 940 938 904 934 919 930 957 946 959 963 950 985 980 875 889 939 963 983 937 894 914 874 926 898 963 907 933 983 956 938 1010 946 943 969 1011 980 1005 967 972 903 957 929 976 931 934 934 916 894 927 959 912 925 936 966 967 875 903 940 953 973 941 906 960 974 943 929 971 951 973 964 973 937 946 970 913 948 958 1026 950 943 947 966 949 977 928 995 969 989 981 1067 956 952 955 937 932 961 923 946 963 977 920 980 883 908 979 940 952 962 986 951 949 866 904 971 938 954 912 915 981 917 853 948 927 866 937 948 948 905 906 896 881 934 966 906 864 959 894 915 910 949 936 922 851 950 854 894 925 955 956 879 930 901 925 937 872 918 952 897 925 925 911 889 865 909 918 895 886 922 890 891 879 897 885 920 897 916 948 931 876 930 940 864 885 959 911 931 982 957 883 880 936 912 900 951 900 893 863 864 838 881 956 943 910 877 912 922 870 917 940 908 917 917 967 900 891 893 912 891 894 910 899 903 903 978 905 943 908 939 933 910 911 918 991 977 928 875 900 973 870 935 952 972 871 918 906 988 917 926 883 873 963 946 919 916 924 907 897 942 931 869 940 928 948 937 903 877 865 920 865 922 886 921 962 909 880 969 938 886 954 883 964 921 943 895 951 886 904 915 962 974 885 875 927 934 944 968 867 907 960 845 907 959 863 898 952 934 862 921 956 960 969 950 909 932 952 920 948 936 929 893 941 957 881 920 931 873 947 984 936 873 956 916 879 894 883 866 887 908 888 852 952 917 876 948 908 895 922 910 921 960 859 948 881 977 911 865 966 924 908 928 905 940 940 936 911 966 919 850 911 952 965 933 899 912 920 923 926 962 934 956 932 925 948 904 891 963 890 897 934 943 888 916 895 913 953 862 925 947 921 905 934 948 892 962 896 958 937 897 944 893 910 912 888 941 936 914 927 857 926 977 945 872 921 895 878 927 881 912 937 918 924 936 952 917 919 956 892 916 942 890 924 892 896 900 937 944 920 939 930 951 872 892 907 905 919 939 929 935 950 916 944 904 867 956 912 844 931 964 942 1018 947 951 938 970 982 952 929 971 959 1009 987 957 1028 973 908 945 995 1065 990 982 1028 984 981 1023 1004 988 1016 959 1000 1005 991 964 967 935 987 982 992 945 1007 974 1028 955 1010 994 945 964 995 919 959 896 943 954 965 1024 992 1005 944 966 945 969 973 956 986 971 1024 973 961 955 958 1020 997 971 1035 1001 988 988 967 983 1016 995 958 949 1006 985 947 979 921 952 939 985 1037 922 904 961 961 997 934 962 958 962 1003 894 969 991 952 1028 992 1028 935 991 993 921 961 974 947 959 933 1028 966 937 876 918 941 920</counts>
			</dataPoints>
		</scan>
	</xrdMeasurement>
</xrdMeasurements>
