<?xml version="1.0"?>
<xrdMeasurements xmlns="http://www.xrdml.com/XRDMeasurement/2.3" xmlns:xsi="http://www.w3.org/2001/XMLSchema-instance" xsi:schemaLocation="http://www.xrdml.com/XRDMeasurement/2.3 http://www.xrdml.com/XRDMeasurement/2.3/XRDMeasurement.xsd" status="Completed" recordIdentifier="{73F55EB4-8199-41A5-B091-1399BCDB7E8E}">
	<comment>
		<entry/>
	</comment>
	<sample type="To be analyzed">
		<id>GPSS_Li1p9Co0p525Zn0p525Cl4_121825_6943d914f4d05ae3d69790ad</id>
		<name></name>
		<preparedBy></preparedBy>
	</sample>
	<xrdMeasurement measurementType="Scan" status="Completed" sampleMode="Reflection">
		<usedWavelength intended="K-Alpha 1">
			<kAlpha1 unit="Angstrom">1.5405980</kAlpha1>
			<kAlpha2 unit="Angstrom">1.5444260</kAlpha2>
			<kBeta unit="Angstrom">1.3922500</kBeta>
			<ratioKAlpha2KAlpha1>0.5000</ratioKAlpha2KAlpha1>
		</usedWavelength>
		<incidentBeamPath>
			<radius unit="mm">145.00</radius>
			<xRayTube id="1010048" name="Empyrean Cu LFF HR (9430 033 7310x)">
				<tension unit="kV">40.0</tension>
				<current unit="mA">15.0</current>
				<anodeMaterial>Cu</anodeMaterial>
				<focus type="Line">
					<length unit="mm">12.0</length>
					<width unit="mm">0.4</width>
					<takeOffAngle unit="deg">6.0</takeOffAngle>
				</focus>
			</xRayTube>
			<sollerSlit id="21010002" name="Soller slits 0.04 rad.">
				<opening unit="rad">0.0400</opening>
			</sollerSlit>
			<mask id="22031000" name="Fixed mask 13 mm">
				<width unit="mm">9.00</width>
			</mask>
			<divergenceSlit id="22120001" name="Divergence slit 1°" xsi:type="fixedDivergenceSlitType">
				<distanceToSample unit="mm">50.00</distanceToSample>
				<height unit="mm">1.52</height>
			</divergenceSlit>
		</incidentBeamPath>
		<sampleMovement xsi:type="spinningSampleMovementType">
			<spinnerRevolutionTime unit="seconds">1.0</spinnerRevolutionTime>
		</sampleMovement>
		<diffractedBeamPath>
			<radius unit="mm">145.00</radius>
			<antiScatterSlit id="22090040" name="AS slit 9 mm (PIXcel)" xsi:type="fixedAntiScatterSlitType">
				<height unit="mm">9.00</height>
			</antiScatterSlit>
			<sollerSlit id="21020003" name="Large Soller slits 0.04 rad.">
				<opening unit="rad">0.0400</opening>
			</sollerSlit>
			<filter id="20030001" name="Large beta-filter Nickel">
				<material>Ni</material>
				<thickness unit="mm">0.020</thickness>
			</filter>
			<detector id="7010019" name="PIXcel1D-Medipix3 detector" xsi:type="rtmsDetectorType">
				<phd unit="keV">
					<lowerLevel>4.02</lowerLevel>
					<upperLevel>11.27</upperLevel>
				</phd>
				<mode>Scanning</mode>
				<activeLength unit="deg">5.542</activeLength>
			</detector>
		</diffractedBeamPath>
		<scan appendNumber="0" mode="Continuous" scanAxis="Gonio" status="Completed">
			<header>
				<startTimeStamp>2025-12-22T13:43:54-08:00</startTimeStamp>
				<endTimeStamp>2025-12-22T13:52:02-08:00</endTimeStamp>
				<author>
					<name>AutomatedUser</name>
				</author>
				<source>
					<applicationSoftware version="1.7b (136)">PANalytical Aeris Instrument Suite</applicationSoftware>
					<instrumentControlSoftware version="3.2.00000000 20240306">AERIS</instrumentControlSoftware>
					<instrumentID>950485</instrumentID>
				</source>
			</header>
			<dataPoints>
				<positions axis="2Theta" unit="deg">
					<startPosition>10.00943322</startPosition>
					<endPosition>99.99442286</endPosition>
				</positions>
				<positions axis="Omega" unit="deg">
					<startPosition>5.00471661</startPosition>
					<endPosition>49.99721143</endPosition>
				</positions>
				<commonCountingTime unit="seconds">12.495</commonCountingTime>
				<counts unit="counts">2792 2845 2798 2739 2870 2837 2863 2836 2774 2863 2742 2835 2833 2823 2807 2860 2802 2889 2740 2758 2761 2828 2829 2805 2799 2867 2808 2789 2814 2703 2812 2712 2792 2882 2924 2825 2732 2885 2827 2823 2780 2854 2749 2751 2819 2887 2771 2743 2868 2833 2863 2893 2839 2817 2905 2885 2811 2938 2825 2751 2881 2879 2872 2831 2880 2866 2893 2900 2941 2887 2849 2841 2932 2854 2929 2930 2892 2965 2889 2964 2914 2941 2935 2948 3053 2946 2909 2904 2910 2884 2910 2904 2862 2985 2885 2877 2909 2948 2882 2874 2966 2905 2938 2917 3004 2914 2894 2986 2970 2919 2850 3031 2990 2891 3013 2934 2956 2911 2975 2941 2934 2964 2834 2959 2902 2959 2852 3004 2984 3105 2843 2996 2999 2893 2881 2937 2919 3014 2897 3021 2859 2879 2935 2917 3040 2990 2920 2945 2927 2914 2919 2895 2872 2928 3038 2866 2891 2899 2905 2866 2960 2787 2979 2943 2958 2869 2871 2910 2953 2927 2877 3000 2847 2868 2871 2980 2963 2892 2855 3051 2797 2823 2865 2915 2951 2925 2888 2893 2807 2818 2910 2887 2883 2826 2850 2879 2905 2929 2893 2863 2887 2897 2932 2897 2895 2840 2837 2858 2867 2873 2897 3009 2929 2898 2868 2871 2726 2880 2777 2810 2840 2895 2770 2852 2909 2863 2845 2884 2842 2869 2861 2858 2866 2836 2836 2870 2868 2958 2827 2916 2857 2873 2802 2857 2849 2915 2868 2906 2863 2873 2889 2832 2770 2920 2813 2851 2861 2895 2878 2980 2903 2916 2836 2832 3017 2855 2968 2961 2992 2908 2890 2924 2926 2946 2858 2928 2873 3058 2895 2900 2938 2876 2841 2866 2826 2861 2928 2863 2992 2935 3049 2926 2922 2925 2946 2895 2941 2901 2968 2851 2785 2963 2804 2957 2817 2919 2877 2930 2931 3020 3022 2980 3055 3033 2905 2949 2973 3010 2918 3035 3075 3006 2976 2996 3022 3078 3054 2981 3105 2880 3070 2872 2999 3040 2983 2990 3024 3096 2993 3104 3006 3085 3060 3110 3147 3031 3120 2980 3182 3042 3166 3047 3141 3076 3118 3083 3030 3230 3060 3015 3160 3158 3049 3121 3183 3161 3128 3157 3143 3218 3218 3210 3133 3210 3193 3261 3130 3125 3238 3169 3197 3222 3222 3152 3258 3341 3250 3300 3277 3209 3204 3226 3271 3220 3267 3299 3306 3372 3354 3202 3305 3409 3292 3312 3243 3170 3316 3359 3424 3443 3326 3383 3306 3422 3391 3294 3490 3382 3357 3338 3405 3277 3335 3377 3542 3513 3308 3509 3400 3380 3430 3412 3357 3430 3515 3492 3561 3520 3470 3454 3409 3422 3458 3539 3475 3457 3414 3404 3351 3380 3350 3534 3441 3395 3535 3446 3458 3478 3547 3475 3308 3520 3495 3514 3506 3497 3494 3549 3460 3481 3631 3516 3526 3563 3610 3550 3383 3629 3484 3621 3556 3542 3523 3440 3453 3516 3425 3469 3562 3343 3556 3451 3368 3343 3412 3582 3416 3468 3384 3418 3426 3463 3365 3461 3469 3509 3336 3514 3503 3386 3401 3407 3434 3422 3432 3459 3391 3526 3301 3300 3348 3459 3365 3304 3408 3321 3353 3453 3329 3390 3380 3315 3355 3350 3391 3236 3233 3442 3289 3311 3313 3315 3260 3439 3391 3335 3308 3378 3301 3402 3304 3465 3434 3451 3430 3480 3268 3470 3438 3424 3422 3410 3441 3343 3389 3456 3467 3371 3382 3374 3350 3315 3240 3288 3276 3360 3262 3205 3298 3286 3133 3340 3131 3264 3268 3159 3265 3180 3294 3153 3289 3241 3176 3181 3190 3261 3212 3189 3090 3149 3133 3169 3185 3177 3197 2935 3136 3074 3249 3218 3096 3090 3237 3139 3241 3137 3102 3092 3247 3166 3187 3221 3242 3181 3166 3111 3159 3176 3175 3255 3049 3161 3136 3041 3183 3122 3022 3020 3099 3128 3148 3052 3079 2945 3021 3014 3026 3082 3092 3028 3116 3069 3104 3202 3153 3080 3240 3137 3162 3030 3102 3136 3175 3071 3010 2942 3096 3053 3090 3075 3070 3063 3053 3147 2859 3067 2904 3000 3076 2919 2914 3018 3012 3054 2990 3030 3074 2987 3021 3030 3014 3113 3082 2989 2961 2970 2967 2887 3014 3019 2966 2883 3056 3079 3020 3004 3039 2957 3059 3019 2996 2994 2985 3091 2983 3053 3052 2963 2957 2948 3078 2988 2960 2969 2945 2969 2920 3023 2937 3126 2919 2783 2879 2947 2876 3019 2913 3008 2990 2846 2895 2835 2901 2819 3003 2902 2838 2929 2864 2938 2881 2824 2785 2940 2925 2935 2868 2977 2935 2806 2928 2860 2976 2880 2973 2820 2997 2857 2980 2924 2809 2876 2987 2901 2913 2896 2875 2911 2962 2824 2857 2952 2896 2915 2893 3015 2930 2962 2951 2976 3004 2941 2938 2950 3001 2927 2842 2933 3007 2899 2821 3016 2858 2833 2907 2980 2807 2943 2732 2874 2936 2868 3008 2922 2812 2861 2855 2844 2787 2782 2936 2858 2773 2830 2827 2721 2802 2861 2802 2743 2771 2839 2924 2832 2828 2820 2794 2890 2783 2819 2927 2892 2884 2847 2901 2784 2811 2848 2735 2836 2768 2931 2873 2800 2800 2733 2836 2848 2730 2817 2860 2844 2889 2821 2759 2867 2853 2871 2680 2896 2848 2738 2832 2728 2802 2810 2731 2789 2779 2804 2773 2791 2709 2903 2783 2723 2747 2756 2779 2826 2693 2677 2732 2754 2716 2719 2690 2718 2839 2740 2836 2765 2784 2786 2666 2758 2760 2701 2736 2787 2795 2789 2733 2742 2710 2734 2791 2747 2613 2727 2724 2697 2694 2749 2664 2774 2671 2720 2688 2674 2619 2710 2688 2748 2642 2738 2721 2684 2693 2736 2647 2795 2742 2665 2649 2634 2673 2689 2651 2693 2735 2713 2750 2737 2689 2673 2671 2671 2643 2645 2646 2706 2653 2682 2636 2637 2712 2691 2723 2578 2655 2729 2652 2584 2693 2679 2666 2764 2671 2722 2710 2676 2676 2659 2798 2690 2619 2697 2698 2667 2599 2702 2687 2545 2648 2622 2577 2628 2639 2668 2656 2612 2651 2607 2662 2656 2584 2667 2669 2673 2650 2678 2571 2699 2663 2652 2560 2582 2636 2648 2725 2613 2656 2558 2558 2619 2624 2679 2550 2645 2732 2628 2558 2619 2693 2653 2666 2638 2605 2663 2500 2610 2596 2526 2628 2768 2595 2632 2589 2682 2695 2613 2613 2575 2596 2717 2606 2627 2657 2694 2649 2642 2554 2596 2580 2691 2604 2590 2671 2676 2636 2602 2644 2603 2542 2579 2699 2583 2665 2570 2652 2624 2549 2739 2703 2570 2630 2669 2617 2583 2649 2668 2606 2562 2738 2751 2708 2760 2650 2702 2710 2705 2687 2779 2802 2732 2715 2688 2702 2623 2711 2619 2649 2654 2606 2726 2633 2625 2703 2600 2643 2619 2691 2602 2731 2634 2582 2658 2618 2651 2741 2591 2588 2540 2672 2598 2725 2693 2558 2724 2624 2727 2735 2664 2690 2603 2607 2552 2695 2652 2525 2583 2627 2530 2621 2615 2668 2618 2617 2617 2670 2648 2663 2520 2578 2538 2574 2526 2502 2582 2621 2641 2612 2603 2578 2565 2604 2641 2608 2575 2484 2637 2524 2508 2430 2439 2501 2385 2509 2389 2475 2466 2465 2392 2467 2469 2480 2474 2441 2439 2413 2471 2416 2558 2423 2476 2324 2415 2429 2422 2432 2414 2427 2429 2357 2457 2424 2469 2459 2492 2380 2442 2413 2389 2397 2447 2422 2427 2316 2458 2322 2390 2454 2358 2299 2378 2307 2308 2383 2326 2234 2272 2372 2321 2343 2252 2322 2373 2233 2320 2252 2264 2257 2320 2198 2260 2229 2262 2224 2346 2238 2162 2215 2198 2216 2260 2199 2248 2293 2197 2271 2200 2209 2242 2247 2160 2115 2136 2135 2254 2202 2210 2200 2154 2137 2117 2163 2157 2187 2211 2108 2131 2188 2031 2199 2093 2059 2092 2215 2120 2152 2069 2141 2181 2174 2085 2114 2071 2108 2066 2071 2132 2132 2027 2065 2061 1986 2081 2020 1985 2118 2050 2046 2060 2063 1968 2096 2009 2043 2146 2021 1943 2076 2041 2027 2074 2050 1957 2017 2079 1968 1984 1931 2037 1998 1922 2060 2027 2003 1969 1996 2019 2013 1966 1939 1868 1979 1988 1987 1961 1973 2011 1953 1978 2061 1916 1977 1969 1948 2061 2008 1890 1995 1877 1965 1963 1952 1960 1993 1968 2009 2040 2046 1914 1976 1884 2000 1977 1955 1894 2002 1924 1986 2011 1941 1956 1981 2009 1940 2006 2009 1924 1968 1972 1958 1984 2027 1983 1946 1964 1972 1988 2003 1957 2025 2104 2034 1995 1993 1936 1927 1997 2018 1921 1926 1958 1907 1944 1892 1924 2013 1989 1939 1979 2030 1981 1991 1940 1955 2063 2007 2015 1992 2009 1982 2003 1996 1992 1993 1975 1997 1971 2025 1942 1983 1943 1967 1893 2041 1973 1987 2002 2036 1960 2019 1992 2055 1950 1987 2025 1996 2006 1968 1999 1973 1987 1953 1955 2020 1951 1987 2043 1936 1923 2019 2146 1976 2006 1989 1964 2008 1979 2030 1961 1955 1973 2017 1930 1999 2001 2085 1986 1972 1932 1907 1959 1938 1953 1960 2163 2016 1976 1969 2012 1986 1954 1907 2024 2002 1953 1975 2015 2020 1928 1896 1942 2018 2018 1975 1975 2003 1980 1958 1962 1933 2016 2058 2001 1956 1982 2023 1987 1927 1967 1953 1986 1956 1932 1931 1992 1893 1836 1920 1895 1913 1902 1919 1897 1977 1969 1926 1931 1947 1921 2005 1897 1916 1940 1954 1969 1992 1937 1981 1925 1954 1949 1996 1839 1881 1837 1857 1822 1897 1966 1878 1949 1905 1879 1861 1890 1921 1879 1860 1904 1906 1854 1814 1892 1873 1926 1900 1944 1901 1905 1891 1829 1893 1815 1885 1941 1865 1864 1925 1829 1820 1917 1827 1877 1881 1875 1745 1879 1824 1841 1713 1816 1860 1791 1790 1720 1859 1758 1817 1858 1838 1766 1691 1722 1749 1775 1806 1744 1859 1769 1715 1780 1683 1760 1791 1761 1713 1759 1823 1713 1725 1745 1674 1732 1710 1771 1741 1749 1741 1739 1645 1668 1693 1661 1726 1692 1749 1648 1719 1747 1695 1676 1717 1731 1718 1671 1703 1793 1744 1690 1733 1707 1689 1727 1667 1766 1668 1659 1646 1610 1680 1656 1692 1657 1630 1688 1697 1639 1677 1717 1736 1659 1758 1760 1713 1720 1751 1721 1747 1780 1730 1671 1748 1745 1834 1678 1764 1686 1746 1613 1738 1643 1637 1616 1681 1674 1643 1597 1708 1695 1705 1647 1623 1643 1619 1616 1604 1754 1707 1598 1676 1684 1704 1699 1765 1617 1609 1650 1711 1674 1749 1689 1660 1617 1663 1664 1610 1597 1636 1605 1613 1603 1713 1589 1668 1618 1649 1574 1621 1675 1630 1678 1633 1706 1634 1658 1639 1660 1644 1595 1589 1546 1577 1595 1619 1528 1555 1576 1645 1570 1586 1628 1506 1578 1543 1537 1504 1507 1561 1562 1625 1552 1560 1484 1562 1589 1559 1581 1604 1589 1481 1529 1555 1534 1582 1521 1642 1616 1628 1559 1660 1665 1644 1656 1656 1709 1693 1688 1774 1712 1724 1764 1773 1728 1789 1785 1779 1782 1820 1716 1740 1810 1677 1721 1709 1653 1654 1636 1714 1725 1770 1801 1846 1787 1733 1864 1875 1781 1800 1811 1815 1655 1787 1752 1836 1780 1757 1728 1820 1706 1790 1677 1714 1690 1662 1637 1732 1686 1685 1549 1561 1584 1665 1532 1589 1560 1512 1524 1547 1472 1566 1597 1566 1569 1511 1556 1527 1559 1491 1528 1553 1524 1474 1510 1453 1409 1473 1480 1452 1464 1458 1458 1503 1415 1466 1498 1455 1429 1457 1462 1450 1479 1470 1504 1470 1481 1429 1464 1414 1484 1438 1398 1470 1409 1433 1359 1437 1436 1400 1488 1599 1594 1558 1612 1569 1509 1478 1548 1493 1483 1502 1531 1457 1494 1469 1418 1423 1370 1391 1434 1423 1347 1397 1379 1478 1347 1375 1394 1395 1440 1396 1423 1377 1452 1404 1403 1388 1435 1479 1410 1425 1430 1478 1457 1415 1417 1430 1460 1391 1353 1420 1414 1389 1343 1423 1416 1423 1381 1304 1380 1392 1284 1346 1346 1324 1284 1384 1327 1330 1438 1352 1396 1355 1315 1390 1328 1345 1287 1330 1284 1327 1350 1343 1361 1339 1417 1297 1343 1364 1301 1349 1265 1379 1293 1258 1343 1335 1330 1360 1375 1368 1356 1352 1306 1313 1346 1332 1340 1326 1300 1369 1325 1366 1346 1347 1417 1349 1258 1364 1304 1306 1281 1389 1342 1301 1368 1381 1349 1297 1409 1326 1346 1331 1374 1379 1342 1385 1339 1375 1365 1314 1374 1355 1398 1361 1378 1433 1448 1461 1499 1467 1506 1449 1395 1432 1476 1414 1400 1496 1457 1465 1452 1437 1442 1401 1482 1477 1487 1427 1495 1498 1392 1468 1448 1464 1472 1450 1498 1427 1472 1465 1414 1569 1525 1553 1621 1536 1579 1536 1546 1550 1499 1540 1557 1471 1543 1499 1553 1512 1508 1516 1525 1479 1505 1519 1420 1498 1609 1533 1440 1497 1557 1508 1487 1553 1495 1447 1521 1481 1488 1506 1612 1526 1572 1568 1586 1522 1497 1570 1546 1509 1492 1546 1537 1418 1495 1443 1495 1504 1438 1452 1437 1378 1434 1386 1462 1390 1448 1396 1460 1454 1416 1414 1363 1377 1369 1331 1411 1416 1353 1384 1438 1355 1407 1345 1316 1319 1478 1342 1340 1366 1408 1378 1370 1362 1391 1324 1405 1379 1364 1345 1357 1395 1428 1420 1412 1410 1366 1342 1414 1353 1335 1366 1366 1354 1276 1317 1275 1275 1291 1287 1375 1301 1247 1333 1317 1343 1276 1261 1334 1326 1298 1267 1304 1379 1326 1340 1332 1422 1374 1352 1433 1295 1428 1459 1436 1338 1440 1454 1434 1420 1490 1430 1457 1478 1525 1526 1413 1464 1439 1437 1432 1491 1462 1418 1458 1425 1413 1422 1431 1391 1460 1454 1462 1388 1648 1475 1611 1636 1704 1707 1772 1673 1757 1638 1736 1611 1692 1692 1685 1662 1606 1622 1665 1630 1569 1578 1586 1521 1571 1527 1476 1513 1458 1489 1438 1524 1472 1500 1511 1519 1541 1651 1465 1567 1507 1561 1474 1563 1556 1505 1446 1419 1469 1493 1491 1458 1399 1442 1423 1436 1361 1344 1368 1344 1275 1367 1363 1317 1313 1302 1296 1287 1359 1346 1254 1284 1320 1346 1337 1312 1313 1284 1393 1319 1325 1342 1399 1297 1361 1417 1380 1393 1415 1406 1451 1420 1397 1355 1436 1405 1385 1470 1445 1368 1369 1342 1390 1362 1354 1327 1346 1274 1280 1243 1188 1289 1243 1245 1292 1221 1271 1178 1198 1255 1217 1183 1221 1215 1262 1184 1193 1184 1197 1171 1127 1192 1230 1198 1146 1236 1153 1189 1176 1191 1173 1152 1179 1200 1185 1137 1112 1195 1137 1126 1217 1120 1128 1165 1135 1142 1153 1117 1163 1150 1087 1116 1125 1142 1150 1116 1101 1090 1091 1142 1109 1106 1110 1146 1093 1133 1145 1139 1110 1127 1140 1065 1071 1098 1126 1150 1185 1077 1142 1153 1124 1129 1115 1106 1071 1094 1109 1099 1101 1084 1123 1057 1065 1065 1140 1081 1059 1095 1080 1129 1060 1108 1076 1063 1055 1045 1057 1124 1055 1100 1090 1034 1123 1096 1100 1040 1023 1093 1104 1170 1109 1098 1100 1092 1165 1120 1061 1102 1085 1088 1115 1056 1073 1049 1045 1103 1041 1138 1068 1090 1129 1081 1087 1081 1095 1045 1083 1075 1115 1104 1132 1093 1105 1131 1134 1118 1099 1073 1081 1129 1034 1109 1084 1039 1109 1063 1054 1095 1100 1023 1059 1089 1097 1097 1139 1080 1042 1154 1096 1070 1124 1066 1089 1026 1034 1067 1038 1044 1088 1037 1083 1124 1024 1032 1070 1049 1057 1075 1098 1041 1104 1076 1064 1094 1143 1068 1091 1115 1026 1120 1042 1102 1067 1092 1034 1067 1063 1119 1062 1088 1015 1048 1036 1063 1059 1065 1059 1024 1023 1103 1014 1045 1020 1022 1090 1026 1080 1070 1087 1068 1134 1067 1017 1074 1085 1062 1178 1029 1012 1097 1074 1057 1080 1070 1079 1092 1061 1034 1082 1090 1079 1096 1043 1015 1038 1062 1043 1083 1016 1072 1078 1121 1013 1076 1020 1059 1116 1076 1043 1094 1053 1053 1085 1002 1033 1013 966 1017 979 993 1017 1033 1070 1084 1038 1050 1020 997 1012 1019 1051 1033 1105 1042 1028 1081 1046 1002 1025 1027 1011 1083 1044 1014 997 1085 1035 1012 1035 1069 1051 1011 1017 1085 1016 1032 1002 1004 989 1043 983 1013 1008 1062 1064 1036 1021 1058 1028 1014 1043 1028 980 989 1007 1034 981 999 1045 1061 1045 1013 978 1013 1029 1063 1069 1042 1033 1046 1004 997 1012 1006 997 1026 1009 995 1022 1024 968 1034 912 949 1011 1036 990 1016 935 994 984 960 958 1021 1012 1009 1005 961 1056 1019 1015 972 974 1040 1050 1025 1000 1021 963 1048 1015 1019 1030 963 1013 1018 1008 901 993 944 1023 958 1004 1017 973 993 989 1058 1013 979 1011 874 992 985 933 978 894 1002 1022 1006 975 1014 990 965 1007 931 993 1027 955 943 942 931 924 1026 966 1026 956 942 971 1013 987 1031 974 889 1004 960 994 917 980 991 1002 941 945 947 1027 1017 963 956 965 951 977 992 982 984 982 965 966 1004 960 997 973 940 911 991 975 973 1028 953 990 944 989 995 932 1031 1008 973 907 962 981 977 973 971 1005 967 989 989 989 981 999 960 912 942 952 1014 910 975 901 946 950 961 943 986 915 999 975 999 982 983 981 988 976 938 1002 943 937 930 926 966 955 959 949 971 1005 950 959 936 960 979 955 965 1002 1000 971 938 930 993 913 954 959 953 1012 998 946 999 974 1020 940 987 976 984 995 1021 946 936 914 932 1030 955 971 937 957 945 976 994 1029 916 1011 1033 978 968 956 951 952 949 969 985 974 955 947 974 905 953 953 950 905 961 997 999 924 1001 890 1000 995 1001 1028 965 987 972 982 1002 1015 951 966 956 989 978 968 965 942 979 981 1005 991 998 952 951 950 959 963 912 961 959 964 988 939 987 968 965 942 958 966 932 995 944 952 999 942 938 956 963 953 980 987 937 974 915 939 958 950 943 906 955 965 949 963 957 921 912 966 916 924 1009 955 1006 999 950 974 923 969 960 953 890 931 975 927 925 929 965 927 892 958 913 882 948 934 931 910 970 906 935 903 860 912 928 874 932 956 900 942 970 898 964 947 907 944 970 876 935 972 939 928 967 961 919 920 894 917 971 953 949 934 919 997 928 937 902 950 933 969 912 925 916 979 973 872 954 968 921 924 975 945 960 944 990 917 931 945 905 938 958 945 975 1010 945 969 994 906 948 948 1005 921 1039 1024 942 1000 902 1035 1008 998 1039 974 937 953 1002 1059 1007 979 1009 939 993 1005 983 1036 1003 929 959 923 1001 911 941 956 982 931 992 965 943 937 912 971 964 941 943 967 945 980 928 940 897 898 983 970 984 905 907 937 937 950 891 936 898 909 977 894 954 944 907 963 911 891 897 934 918 970 924 923 948 919 977 948 917 922 907 939 984 1003 919 972 944 915 951 886 911 899 952 901 867 951 944 921 1001 961 952 920 969 962 930 953 999 984 944 981 938 935 1004 936 936 897 924 993 960 977 868 966 923 936 976 908 965 952 951 954 950 973 991 970 936 974 945 956 915 933 931 931 975 967 928 933 951 965 988 918 920 920 1028 964 930 949 897 895 947 919 931 909 932 890 898 872 931 940 889 880 867 922 863 826 870 920 911 901 927 865 891 870 947 896 900 890 900 884 916 910 872 875 899 839 899 935 915 931 921 922 946 900 932 900 904 907 921 865 849 849 820 918 919 911 860 915 879 898 954 869 877 866 828 889 922 892 894 936 936 919 921 891 870 862 900 923 876 885 930 896 967 896 950 868 915 868 909 871 892 823 891 901 856 889 918 837 917 910 838 861 916 804 899 824 862 849 886 871 885 903 846 837 885 870 863 869 816 853 869 846 877 857 862 856 889 889 883 861 907 897 853 946 891 901 864 897 952 868 811 869 868 846 917 932 837 886 829 838 889 926 812 850 813 930 884 896 953 843 837 832 844 910 918 885 905 916 949 920 919 936 899 914 868 926 921 898 883 910 866 910 909 896 840 887 851 899 908 881 961 902 921 954 846 875 869 898 889 911 917 944 921 908 897 891 882 850 882 907 896 860 881 898 921 898 912 895 864 889 879 912 800 917 884 865 845 855 891 875 905 900 870 883 894 940 860 913 869 897 929 899 894 869 917 895 889 792 920 931 852 864 856 826 929 825 853 883 873 886 901 850 884 892 877 805 875 849 876 905 925 914 842 855 879 881 839 852 856 842 804 867 873 849 911 857 862 837 862 873 814 853 807 867 846 836 807 794 847 894 861 832 819 908 885 829 855 853 881 865 885 845 906 834 860 808 838 923 872 873 882 913 881 866 834 876 872 883 876 933 873 936 888 886 920 903 958 967 961 958 902 965 990 900 886 886 840 957 904 887 928 959 924 945 906 903 934 938 895 963 923 957 936 885 932 913 976 882 955 887 969 901 905 917 860 897 891 886 920 906 853 885 944 902 924 918 919 935 928 842 926 869 884 948 901 891 917 885 919 866 894 914 875 843 926 861 914 844 934 884 900 899 928 888 837 858 944 852 888 860 842 811 898 855 829 832 856 861 907 878 816 883 841 799 850 816 834 850 837 880 793 883 903 845 870 874 909 879 834 865 873 823 858 893 871 844 859 849 818 831 873 846 847 814 845 842 808 813 896 854 792 863 858 834 826 798 830 868 854 888 877 857 848 847 833 891 875 863 875 814 864 858 839 881 901 800 875 812 841 874 868 840 871 870 810 872 827 844 815 842 882 865 790 790 843 793 824 852 786 924 856 853 833 861 853 795 829 827 812 874 791 842 828 814 859 858 937 809 804 836 796 864 854 825 862 850 853 831 855 789 825 831 820 825 789 888 865 820 851 832 796 850 799 814 819 781 841 778 800 796 870 798 804 803 840 813 818 787 853 847 856 792 815 828 809 795 766 854 831 815 837 823 815 868 848 801 785 808 842 835 838 835 807 872 816 826 779 756 797 808 809 796 841 782 832 805 773 825 802 791 826 810 773 905 814 833 818 754 796 787 814 806 824 819 750 744 787 825 809 789 784 798 799 785 841 750 823 780 797 827 760 780 809 765 812 821 807 793 756 805 804 831 750 764 755 766 795 800 763 816 831 847 786 793 776 824 776 803 810 810 780 794 774 771 838 752 750 811 813 785 820 769 797 787 794 823 823 802 767 764 792 775 710 786 772 754 767 767 874 836 798 780 814 767 764 760 774 795 792 843 824 797 744 782 750 775 780 778 799 784 778 810 826 772 765 740 784 767 809 761 783 857 792 739 788 728 823 761 770 739 833 805 799 791 763 766 754 764 771 781 738 764 776 799 795 828 764 737 748 794 797 763 743 756 765 751 828 795 792 822 784 800 748 812 820 776 799 772 812 788 823 810 855 833 791 770 827 840 758 827 809 825 792 813 793 806 761 768 746 767 808 754 752 771 779 768 791 811 764 766 750 804 820 735 852 754 822 772 792 764 764 764 767 766 735 828 736 813 772 753 768 757 758 817 761 743 731 739 755 764 731 753 812 737 819 778 818 777 750 793 783 763 829 805 741 758 786 787 794 779 727 760 785 767 803 762 787 770 756 753 744 763 735 822 759 799 764 764 756 744 756 781 772 769 754 719 773 755 749 748 765 755 748 748 770 758 702 731 765 729 721 777 784 789 758 764 799 728 775 808 767 739 750 795 752 716 720 736 739 737 808 737 734 771 746 756 769 768 760 683 723 743 756 725 767 770 728 745 772 747 745 754 768 725 772 754 746 720 711 725 781 695 775 776 731 806 755 756 781 739 762 741 764 735 746 707 770 754 703 775 711 756 760 734 775 779 777 745 788 729 728 767 767 681 736 777 733 709 698 703 770 702 771 730 733 738 738 742 723 744 739 780 761 744 701 779 729 716 721 751 778 760 728 731 711 779 741 776 730 754 711 742 738 753 743 724 692 720 736 689 750 775 711 727 743 726 752 739 727 731 711 745 721 710 735 729 741 738 768 692 741 722 737 723 689 702 744 749 766 740 751 704 684 736 698 725 717 775 730 725 715 730 741 722 751 755 761 756 746 724 766 717 751 676 691 736 722 730 739 695 760 739 732 710 744 712 736 717 760 722 701 760 709 742 714 800 752 742 770 728 738 741 729 732 740 704 778 735 722 772 653 753 738 725 743 775 727 799 767 765 785 761 722 718 703 752 728 723 747 751 729 740 768 780 745 731 756 757 672 763 737 727 679 720 729 782 792 769 719 745 710 742 726 803 687 710 704 692 699 753 719 748 779 745 749 751 735 774 696 756 698 747 777 699 772 741 716 726 722 705 731 743 750 736 789 787 729 778 766 736 772 746 741 762 724 736 785 743 760 777 787 780 743 739 769 778 766 737 777 740 781 678 734 751 826 732 772 779 753 707 734 798 765 761 751 718 683 742 750 725 693 698 750 742 697 769 719 731 684 744 787 740 706 760 725 801 718 705 711 731 699 673 743 718 729 737 723 707 707 722 707 740 683 740 687 676 647 729 676 727 735 771 708 739 736 688 729 736 642 687 722 726 697 716 741 681 719 693 713 689 747 718 718 681 736 710 752 674 745 744 717 725 704 714 705 656 704 703 675 679 688 669 693 698 709 694 680 699 713 750 703 706 693 688 701 670 679 739 636 700 730 664 646 694 705 701 665 732 701 695 687 697 657 690 692 691 721 666 704 660 698 634 711 702 697 729 703 759 680 665 744 719 641 664 714 694 680 705 690 669 735 729 715 676 705 698 716 759 724 686 630 691 684 737 708 719 704 721 745 632 701 677 758 665 706 671 733 677 692 716 711 678 700 724 702 723 675 701 708 675 684 695 723 661 668 722 724 649 702 711 690 701 670 715 706 675 689 718 662 697 716 682 683 725 671 711 683 703 695 713 681 674 655 659 721 735 680 653 699 674 768 709 680 652 749 733 727 707 712 664 720 738 656 691 684 706 750 761 690 711 675 719 721 739 737 747 735 655 634 673 728 729 714 662 729 699 695 736 667 724 718 703 713 679 687 636 722 738 744 668 639 692 727 721 709 705 717 660 651 716 722 709 686 718 666 670 707 678 642 699 661 638 698 641 728 684 694 716 691 656 690 684 702 697 661 711 655 673 703 657 641 685 674 708 704 668 651 639 683 720 672 663 694 732 726 662 695 633 663 679 702 634 677 709 657 650 714 694 685 722 639 670 664 641 631 679 706 673 600 637 673 701 676 653 669 643 675 689 667 655 660 672 661 688 610 738 680 660 673 698 654 631 643 670 671 680 705 692 676 657 650 717 697 696 668 702 711 664 723 677 685 702 675 667 688 661 674 707 697 751 684 628 695 658 646 691 634 647 716 689 722 687 690 664 673 642 681 654 703 704 625 677 683 677 673 665 657 676 659 667 676 667 632 681 666 675 708 643 689 659 655 679 653 662 623 688 669 660 617 657 688 699 676 687 650 673 653 626 655 668 682 634 687 641 697 650 686 660 694 673 632 678 643 638 666 687 654 669 677 661 670 644 652 684 669 644 702 670 631 683 677 644 648 650 641 632 681 671 622 647 611 672 670 642 624 651 642 660 674 703 633 630 646 719 641 694 616 658 615 644 683 628 655 629 661 667 641 605 599 649 639 618 627 681 636 662 670 655 640 635 605 691 624 647 659 640 613 654 693 655 688 664 673 654 663 667 613 652 639 670 649 656 665 662 674 619 609 634 616 671 624 668 643 643 635 629 679 653 678 644 664 613 651 638 655 669 656 660 629 691 644 623 653 641 644 659 621 649 608 677 627 680 694 642 670 677 626 638 603 616 641 643 684 620 652 636 630 696 661 656 633 699 653 632 591 658 631 661 630 661 636 632 687 690 630 671 596 616 672 620 671 687 643 665 654 661 641 649 650 639 577 689 631 640 628 674 656 614 674 619 648 661 622 616 613 633 639 658 589 618 670 638 607 663 618 635 612 641 613 618 643 637 644 629 656 667 671 662 645 639 715 640 676 624 609 625 645 647 615 622 686 662 655 610 650 627 640 644 649 660 639 630 634 671 610 609 640 651 655 653 604 544 662 680 611 673 684 634 624 684 599 602 598 627 674 634 647 642 605 632 675 653 641 668 647 638 666 650 659 629 629 668 632 622 621 622 628 601 670 620 627 657 671 677 628 654 696 636 652 636 654 640 671 622 638 613 638 674 647 629 644 676 610 635 622 636 609 680 641 673 582 628 651 591 635 586 643 621 630 663 667 692 637 674 636 634 640 672 655 658 674 668 609 639 708 678 621 611 656 576 664 574 654 649 632 636 613 629 565 613 625 651 675 643 641 626 620 602 683 604 629 651 621 632 663 587 644 594 628 662 599 614 652 633 649 657 581 664 651 627 631 632 650 612 651 643 638 657 627 583 620 682 648 627 670 640 607 589 617 624 629 635 647 574 647 652 590 633 591 632 650 629 656 639 659 626 609 672 630 631 643 601 633 609 628 630 656 636 680 629 587 678 636 631 621 603 702 637 641 683 604 632 639 597 639 624 645 647 626 643 651 647 588 620 676 668 658 621 614 662 637 609 655 646 623 664 620 604 610 648 643 663 686 626 569 636 605 614 619 649 679 668 631 599 647 600 629 595 626 588 633 631 606 588 609 670 597 625 682 599 637 621 641 574 625 681 638 642 660 618 664 643 644 615 661 651 621 635 637 657 667 656 611 624 656 664 620 621 624 633 639 629 617 628 623 661 669 636 595 609 625 607 641 654 620 661 637 636 637 645 634 706 646 628 650 637 621 615 708 618 646 613 633 664 659 647 624 609 621 661 639 604 678 580 646 686 606 641 613 661 611 619 647 640 625 569 610 581 611 616 590 619 613 572 643 639 665 610 659 617 640 626 620 647 658 677 654 637 664 642 615 642 619 636 605 621 632 624 615 608 595 610 659 632 582 668 651 676 636 610 608 639 581 636 635 637 628 671 648 583 616 609 609 656 579 624 586 602 621 654 617 671 612 609 632 639 627 582 599 589 651 628 609 559 622 593 637 615 641 654 633 620 604 629 575 645 679 638 648 592 643 574 610 611 633 651 591 616 565 609 638 597 600 610 614 625 649 590 627 642 649 640 635 661 599 598 624 597 567 649 630 625 630 645 650 637 623 649 632 623 629 608 593 588 670 584 638 613 573 653 615 602 625 612 640 564 593 648 622 617 598 596 614 616 637 595 658 621 617 626 635 622 628 610 595 613 621 635 679 678 635 619 664 700 653 653 653 690 721 660 701 646 715 673 671 712 699 654 686 711 707 670 667 660 668 679 671 674 650 696 695 675 676 661 688 685 675 640 647 701 637 678 638 637 685 700 648 648 677 648 644 690 691 619 662 604 665 640 655 645 577 620 628 625 629 611 691 623 641 664 683 651 639 654 605 581 627 624 613 632 642 648 613 614 622 591 681 604 625 621 612 652 638 636 627 641 632 634 598 630 648 613 627 677 683 633 608 627 614 663 630 645 635 639 635 616 638 654 620 615 606 561 606 615 617 662 569 598 626 604 613 614 613 642 677 609 652 592 654 638 600 600 610 592 590 620 599 625 614 609 601 628 598 594 624 665 647 646 661 597 585 611 632 644 585 577 624 595 597 619 611 624 643 656 621 648 632 621 630 623 611 600 603 616 597 630 589 625 564 620 607 613 579 664 632 602 656 643 625 621 627 612 639 620 682 626 649 618 622 611 616 611 640 632 627 567 613 671 663 650 604 626 652 626 659 645 624 650 571 637 622 626 648 644 617 630 593 637 587 658 623 616 669 671 644 689 635 616 628 633 662 594 591 605 607 563 609 625 670 623 649 598 619 609 653 664 630 605 605 638 641 621 627 604 637 648 637 618 614 586 621 647 565 666 619 601 607 580 609 608 633 614 586 619 649 637 661 630 630 629 616 628 664 605 632 596 590 591 645 611 593 601 607 629 647 606 647 649 602 612 583 634 559 626 615 631 582 561 631 634 578 575 620 604 615 582 616 622 590 613 587 588 592 625 611 656 629 620 604 583 592 644 591 572 652 568 593 615 575 606 606 623 593 594 648 576 624 603 662 625 613 560 564 582 633 642 599 635 630 619 609 595 652 631 622 608 636 603 648 628 584 627 598 584 578 657 634 633 601 651 635 575 622 612 627 588 606 649 621 560 562 594 580 624 589 580 625 615 591 607 611 579 557 623 564 595 566 615 580 608 621 605 593 589 581 588 575 619 608 602 621 610 606 608 635 615 557 571 620 537 593 580 626 588 636 622 622 602 663 614 618 580 647 662 602 607 604 604 606 635 587 652 666 639 614 593 605 598 649 607 590 635 601 659 630 620 639 609 595 618 661 598 619 604 673 638 605 649 584 625 567 629 616 602 604 647 616 624 648 640 588 570 613 615 610 611 611 594 621 642 603 608 627 640 605 613 593 635 645 616 641 616 639 559 585 580 638 607 577 626 585 613 644 623 592 605 641 643 630 605 624 672 564 636 628 588 574 599 623 604 604 611 629 619 595 632 581 585 626 641 605 609 645 610 604 625 627 624 555 595 621 634 604 613 604 637 609 604 613 652 606 628 626 618 645 608 586 650 628 597 619 632 614 666 608 682 642 651 600 588 600 597 677 625 604 591 604 571 651 661 613 610 632 650 605 623 640 595 617 624 604 635 664 621 646 625 592 602 604 630 571 622 629 619 595 618 611 617 602 637 616 584 631 612 566 637 647 597 623 597 617 611 612 621 583 636 618 569 587 675 600 652 619 641 617 639 642 589 597 617 633 616 589 658 631 631 609 612 567 604 550 607 602 597 613 631 620 599 607 581 624 591 628 641 637 626 636 657 609 605 574 614 628 624 647 636 662 554 624 578 599 595 634 610 624 585 619 612 622 611 644 604 620 659 593 621 641 586 621 629 614 668 592 631 615 621 593 619 641 587 589 644 612 636 631 596 586 617 619 612 624 626 649 648 637 600 605 630 642 646 626 624 652 611 641 585 667 613 641 628 626 628 643 665 631 608 647 617 666 625 590 616 618 641 612 630 623 608 643 591 577 644 664 568 627 567 650 585 624 597 611 603 627 610 575 617 593 595 629 576 612 615 548 622 568 633 599 600 576 595 614 592 598 570 568 621 623 596 573 585 556 588 609 577 616 627 574 608 596 601 570 690 667 614 625 598 604 591 631 604 620 612 615 597 583 624 597 565 590 656 580 586 616 606 616 575 601 596 620 621 646 596 587 627 587 618 545 638 643 604 603 627 605 622 587 597 603 596 596 634 617 611 548 550 560 601 610 615 645 625 652 581 580 557 636 628 620 628 606 658 675 607 665 599 636 624 646 585 645 615 616 581 573 567 616 623 641 575 573 634 614 625 634 592 639 668 612 577 644 590 661 614 584 603 598 603 621 608 632 614 613 612 650 604 628 581 591 607 624 637 633 637 571 601 582 593 612 591 633 626 630 582 603 633 593 582 601 600 563 633 607 639 609 597 627 582 599 597 631 633 615 617 615 653 610 609 635 598 632 628 615 591 612 591 642 610 617 613 562 595 568 595 644 586 619 609 549 628 594 608 628 611 589 602 627 598 584 605 601 599 614 628 616 592 565 604 575 564 607 593 649 587 562 606 559 562 564 568 588 590 591 623 586 629 561 592 600 576 629 601 593 615 621 607 600 580 573 597 601 650 601 570 595 640 581 598 576 525 592 561 593 628 558 604 582 594 561 583 613 611 591 563 563 592 570 581 569 588 571 637 587 589 557 544 655 599 581 590 607 612 600 570 620 568 597 567 595 561 608 583 556 584 603 574 577 591 585 577 568 535 576 570 623 594 568 564 599 581 605 582 617 617 556 630 595 646 593 605 585 573 636 562 597 585 611 584 598 625 573 576 562 583 607 587 656 560 613 582 549 586 559 557 576 605 582 582 572 585 630 608 580 548 594 595 582 592 557 566 574 576 549 572 557 591 583 598 612 569 636 623 569 588 586 626 544 611 594 596 636 637 608 606 558 580 632 588 555 608 628 578 591 544 610 585 605 633 555 607 562 553 591 612 567 598 592 569 598 590 551 614 597 612 621 619 595 532 603 591 577 576 589 605 593 624 601 590 611 621 562 605 586 590 617 564 579 570 603 593 600 608 616 606 599 589 597 534 601 570 615 606 569 623 531 570 568 572 568 575 587 567 577 594 553 575 588 587 567 535 572 579 587 596 592 601 532 605 543 600 591 577 604 515 612 603 554 586 561 573 565 567 588 591 562 562 591 563 577 599 578 583 579 522 612 566 575 557 568 593 571 551 555 603 547 624 572 559 549 559 588 552 580 567 592 570 582 574 607 598 589 581 592 562 625 572 538 583 630 543 584 579 589 569 544 600 581 572 589 596 577 533 563 558 555 619 609 538 548 564 530 599 541 595 564 584 579 586 575 574 558 544 592 587 521 590 599 594 550 589 588 627 522 521 599 604 598 606 606 538 559 544 580 604 575 584 575 558 561 566 546 591 582 525 560 569 549 597 565 568 595 614 587 557 580 557 562 603 567 572 551 613 583 594 521 606 584 563 607 568 562 584 543 516 570 570 549 637 584 586 549 558 615 567 538 620 595 534 541 603 597 563 585 595 656 560 572 605 601 547 559 604 543 589 614 554 575 548 590 582 556 602 562 581 558 538 526 578 517 568 582 570 576 553 583 521 591 600 640 575 581 556 546 556 577 573 574 561 577 605 513 564 567 618 542 563 573 560 590 553 559 536 552 561 540 569 600 583 587 607 584 554 574 514 541 552 585 628 566 547 524 548 542 523 566 518 560 579 565 562 513 598 522 578 512 607 523 560 618 567 566 580 563 552 526 625 518 539 594 555 596 593 571 580 576 555 545 553 543 576 538 565 568 584 527 585 574 567 542 525 551 586 577 578 557 604 583 621 599 572 562 561 578 562 613 590 557 582 554 562 590 546 563 574 558 543 565 567 579 540 584 537 514 548 550 568 552 564 557 596 566 538 555 539 496 568 554 585 531 543 580 547 560 572 575 555 600 580 555 567 561 593 565 541 538 566 568 564 581 525 541 561 594 581 540 560 587 573 587 577 539 552 574 501 590 614 545 567 546 570 552 550 521 569 564 568 556 552 555 585 579 572 565 540 530 559 528 534 555 515 541 539 549 578 546 513 535 514 566 525 579 546 541 623 567 556 556 603 555 545 521 599 573 569 573 575 572 535 581 534 622 572 545 616 536 554 515 576 551 548 597 537 538 575 540 572 544 580 601 581 543 579 575 572 541 563 587 566 589 547 598 551 607 608 581 589 541 579 550 574 514 574 537 556 565 561 576 550 574 529 572 511 586 550 597 625 529 532 558 566 561 580 556 576 552 524 526 539 539 545 539 517 577 599 625 538 549 568 580 555 587 583 575 533 565 562 587 556 544 591 569 560 545 597 526 516 556 558 609 552 579 589 545 542 547 570 531 584 557 549 535 535 567 555 562 540 568 551 504 591 537 573 540 588 580 603 619 569 569 552 566 595 529 574 543 578 594 554 557 524 576 583 568 549 553 585 537 570 551 571 609 537 537 593 571 553 623 565 567 565 504 570 544 555 540 579 562 578 596 622 579 592 573 559 558 574 562 561 568 534 599 609 569 584 622 514 589 565 541 543 580 536 553 582 561 562 568 527 551 598 532 575 550 547 538 594 572 515 569 550 555 566 573 609 609 560 576 582 621 533 562 590 546 560 544 518 555 539 579 599 591 557 525 578 535 504 563 557 530 585 578 561 566 546 563 558 552 532 514 533 576 542 524 508 566 551 565 538 570 568 579 542 548 567 545 563 580 581 525 571 504 542 554 526 510 554 555 558 565 521 547 558 550 530 540 602 496 527 554 529 550 559 569 560 553 534 592 547 536 556 525 573 586 577 555 579 530 561 542 572 498 503 534 571 519 567 543 578 523 551 532 557 535 527 602 561 572 594 591 568 563 547 559 524 563 513 580 580 551 543 585 502 529 533 539 567 546 560 589 552 497 550 583 574 556 582 589 540 538 593 538 507 587 555 565 600 561 550 548 528 565 560 555 509 567 543 564 546 560 567 513 558 557 538 529 557 543 519 556 556 556 554 563 563 551 522 549 584 567 511 573 567 563 596 539 572 527 547 553 587 592 572 566 541 551 556 545 572 529 532 546 553 542 534 539 533 554 547 566 529 561 555 546 561 529 547 517 578 544 525 558 578 553 546 545 506 570 564 531 563 603 560 552 507 563 551 549 506 534 590 555 542 553 550 505 495 521 563 539 516 594 539 559 574 535 548 493 588 575 544 544 543 588 621 538 581 557 557 549 557 547 533 550 577 563 564 616 538 574 549 575 547 572 557 568 513 543 566 523 526 546 533 515 552 534 550 544 560 555 555 551 527 569 523 592 520 558 507 540 547 520 588 529 521 565 513 541 522 555 569 526 536 532 506 503 547 522 554 535 591 555 541 528 516 550 536 557 555 522 510 509 556 525 568 513 541 531 560 548 569 548 561 555 521 559 532 549 544 552 544 566 572 542 587 502 519 489 520 501 492 564 543 485 542 565 528 541 563 540 544 544 530 546 535 531 524 514 550 498 566 538 535 589 532 551 584 539 538 524 535 535 534 582 490 577 574 524 510 533 524 545 541 581 573 516 526 570 573 589 556 496 558 536 562 567 576 564 533 551 500 586 544 555 520 559 477 553 545 512 554 557 550 539 576 532 502 551 537 537 525 528 542 532 539 547 559 532 521 523 548 545 521 520 549 508 535</counts>
			</dataPoints>
		</scan>
	</xrdMeasurement>
</xrdMeasurements>
