<?xml version="1.0"?>
<xrdMeasurements xmlns="http://www.xrdml.com/XRDMeasurement/2.3" xmlns:xsi="http://www.w3.org/2001/XMLSchema-instance" xsi:schemaLocation="http://www.xrdml.com/XRDMeasurement/2.3 http://www.xrdml.com/XRDMeasurement/2.3/XRDMeasurement.xsd" status="Completed" recordIdentifier="{544C4F96-82F9-4ECC-ABDF-8528A4D45FA4}">
	<comment>
		<entry/>
	</comment>
	<sample type="To be analyzed">
		<id>GPSS_Li1p4Mn0p8Ta0p2Cl4_101325_68ed636b07cf888582f978de</id>
		<name></name>
		<preparedBy></preparedBy>
	</sample>
	<xrdMeasurement measurementType="Scan" status="Completed" sampleMode="Reflection">
		<usedWavelength intended="K-Alpha 1">
			<kAlpha1 unit="Angstrom">1.5405980</kAlpha1>
			<kAlpha2 unit="Angstrom">1.5444260</kAlpha2>
			<kBeta unit="Angstrom">1.3922500</kBeta>
			<ratioKAlpha2KAlpha1>0.5000</ratioKAlpha2KAlpha1>
		</usedWavelength>
		<incidentBeamPath>
			<radius unit="mm">145.00</radius>
			<xRayTube id="1010048" name="Empyrean Cu LFF HR (9430 033 7310x)">
				<tension unit="kV">40.0</tension>
				<current unit="mA">15.0</current>
				<anodeMaterial>Cu</anodeMaterial>
				<focus type="Line">
					<length unit="mm">12.0</length>
					<width unit="mm">0.4</width>
					<takeOffAngle unit="deg">6.0</takeOffAngle>
				</focus>
			</xRayTube>
			<sollerSlit id="21010002" name="Soller slits 0.04 rad.">
				<opening unit="rad">0.0400</opening>
			</sollerSlit>
			<mask id="22031000" name="Fixed mask 13 mm">
				<width unit="mm">9.00</width>
			</mask>
			<divergenceSlit id="22120001" name="Divergence slit 1°" xsi:type="fixedDivergenceSlitType">
				<distanceToSample unit="mm">50.00</distanceToSample>
				<height unit="mm">1.52</height>
			</divergenceSlit>
		</incidentBeamPath>
		<sampleMovement xsi:type="spinningSampleMovementType">
			<spinnerRevolutionTime unit="seconds">1.0</spinnerRevolutionTime>
		</sampleMovement>
		<diffractedBeamPath>
			<radius unit="mm">145.00</radius>
			<antiScatterSlit id="22090040" name="AS slit 9 mm (PIXcel)" xsi:type="fixedAntiScatterSlitType">
				<height unit="mm">9.00</height>
			</antiScatterSlit>
			<sollerSlit id="21020003" name="Large Soller slits 0.04 rad.">
				<opening unit="rad">0.0400</opening>
			</sollerSlit>
			<filter id="20030001" name="Large beta-filter Nickel">
				<material>Ni</material>
				<thickness unit="mm">0.020</thickness>
			</filter>
			<detector id="7010019" name="PIXcel1D-Medipix3 detector" xsi:type="rtmsDetectorType">
				<phd unit="keV">
					<lowerLevel>4.02</lowerLevel>
					<upperLevel>11.27</upperLevel>
				</phd>
				<mode>Scanning</mode>
				<activeLength unit="deg">5.542</activeLength>
			</detector>
		</diffractedBeamPath>
		<scan appendNumber="0" mode="Continuous" scanAxis="Gonio" status="Completed">
			<header>
				<startTimeStamp>2025-10-17T15:21:28-07:00</startTimeStamp>
				<endTimeStamp>2025-10-17T15:29:36-07:00</endTimeStamp>
				<author>
					<name>AutomatedUser</name>
				</author>
				<source>
					<applicationSoftware version="1.7b (136)">PANalytical Aeris Instrument Suite</applicationSoftware>
					<instrumentControlSoftware version="3.2.00000000 20240306">AERIS</instrumentControlSoftware>
					<instrumentID>950485</instrumentID>
				</source>
			</header>
			<dataPoints>
				<positions axis="2Theta" unit="deg">
					<startPosition>10.00943322</startPosition>
					<endPosition>99.99442286</endPosition>
				</positions>
				<positions axis="Omega" unit="deg">
					<startPosition>5.00471661</startPosition>
					<endPosition>49.99721143</endPosition>
				</positions>
				<commonCountingTime unit="seconds">12.495</commonCountingTime>
				<counts unit="counts">3081 2939 2974 2928 2936 3051 2972 3035 2993 2961 2938 2931 3039 3023 3013 3027 3071 3062 2980 2928 2969 2979 2948 2934 2994 2958 3021 2973 3121 3052 2950 2932 2939 3003 3028 2905 2956 3007 2913 2938 2975 2972 3045 2977 3102 3117 2961 2947 2959 2878 3117 3009 2990 3012 2929 2955 2900 3018 3103 2977 2999 3063 3016 3121 3020 3038 3112 3025 2965 3121 2913 3034 3039 3032 3110 2977 3131 3072 3052 3147 3091 3135 3131 3102 3082 3172 3145 3178 3149 3142 3136 3159 3193 3036 3059 3094 3144 3011 3106 3149 3174 3114 3093 3210 3028 3095 3023 3034 3052 3118 3070 3078 3053 3055 3044 3160 2916 3021 3015 3049 2935 3082 3041 3063 3016 3011 2986 3084 2930 3070 2985 2990 2915 2901 2936 2968 2880 2900 2918 2932 2919 2964 2916 2941 2951 2947 2975 2996 2952 3028 2918 3060 2998 2996 2999 3077 2924 2890 2899 2955 2879 2888 2952 2897 2949 2966 2934 2893 2974 2924 2896 2855 2837 2945 2933 3003 2968 2924 2964 2931 2904 2949 2850 2906 2921 2915 2945 2893 2856 2816 2881 2956 2989 2993 2896 2952 2897 2874 2947 2861 2930 2933 2959 2882 2907 2920 2989 2904 2909 2856 2909 2947 3028 2915 2843 2951 2892 2961 2867 2898 2953 2865 2874 2842 2996 2894 2923 2901 2997 2975 2924 2839 2845 2961 2953 3024 2919 2932 2897 2919 2841 2856 2792 2884 2929 2898 2910 2851 2865 2930 3014 2868 2918 2960 2956 2893 2957 2941 2900 2935 2893 2957 3043 2931 2947 2972 2959 3051 2976 2915 2947 2899 2900 3005 2955 2966 2940 2995 3019 2933 2969 2962 3084 2932 2926 2932 2905 2924 2993 2947 2998 2894 2947 2966 2961 3157 2985 2977 2969 3076 3095 2958 2952 3044 2997 3078 3092 3209 3108 2956 3128 3078 3146 3139 3122 3067 3155 3084 3050 3080 3109 3122 3249 3053 3138 3296 3123 3181 3116 3270 3218 3192 3335 3285 3301 3162 3120 3211 3264 3236 3152 3213 3152 3226 3281 3256 3312 3279 3271 3411 3253 3245 3410 3345 3268 3344 3302 3327 3312 3360 3367 3329 3354 3437 3508 3412 3401 3418 3460 3408 3462 3380 3401 3410 3397 3461 3460 3541 3493 3513 3530 3589 3435 3668 3577 3632 3594 3625 3531 3621 3751 3659 3582 3753 3736 3815 3691 3838 3946 3902 3963 3848 3924 3965 4001 4092 4075 4131 4257 4331 4422 4476 4625 4635 4744 4984 4958 5211 5253 5370 5342 5481 5351 5278 5208 5372 5140 5257 5143 5092 5182 5147 4899 5076 4937 5029 4944 4834 4949 4771 4617 4663 4606 4609 4609 4531 4464 4460 4508 4358 4345 4372 4280 4377 4439 4376 4371 4296 4458 4559 4402 4582 4491 4546 4675 4508 4631 4680 4538 4539 4541 4535 4573 4363 4437 4392 4390 4437 4225 4480 4363 4354 4203 4301 4201 4288 4217 4224 4088 4119 4216 4080 3920 3981 3994 3926 4093 3879 3881 3942 3852 3737 3761 3779 3777 3829 3706 3760 3674 3768 3683 3694 3781 3674 3663 3576 3636 3597 3595 3665 3538 3579 3594 3654 3629 3590 3545 3625 3597 3676 3594 3582 3583 3635 3539 3536 3560 3441 3512 3447 3547 3496 3469 3441 3381 3465 3372 3558 3506 3421 3483 3377 3385 3463 3438 3436 3471 3475 3572 3402 3354 3422 3355 3373 3384 3375 3321 3336 3421 3410 3507 3370 3353 3374 3472 3404 3371 3357 3420 3226 3416 3355 3324 3395 3384 3389 3310 3270 3267 3417 3353 3382 3363 3262 3361 3349 3282 3283 3283 3275 3392 3261 3254 3435 3381 3290 3221 3324 3272 3188 3240 3300 3259 3383 3242 3286 3215 3315 3309 3239 3278 3441 3282 3267 3280 3354 3275 3274 3330 3329 3197 3259 3278 3219 3304 3262 3236 3321 3186 3127 3277 3248 3208 3193 3289 3428 3351 3218 3256 3352 3210 3300 3173 3203 3140 3174 3358 3154 3253 3219 3182 3187 3192 3215 3252 3191 3109 3244 3180 3237 3213 3291 3237 3208 3149 3136 3281 3232 3138 3194 3155 3217 3269 3201 3203 3169 3045 3188 3202 3291 3200 3158 3166 3208 3217 3176 3172 3203 3116 3260 3162 3247 3144 3203 3119 3275 3238 3118 3183 3247 3154 3106 3163 3151 3140 3224 3234 3295 3199 3295 3177 3079 3150 3149 3291 3124 3173 3155 3050 3190 3120 3055 3171 3268 3185 3222 3109 3094 3227 3136 3127 3066 3167 3220 3077 3230 3145 3151 3089 3125 3140 3128 3172 3163 3236 3163 3257 3104 3234 3230 3151 3222 3267 3135 3243 3251 3088 3105 3131 3107 3113 3157 3202 3058 3081 3127 3100 3072 3125 3096 3119 3182 3065 3134 3131 3206 3156 3114 3125 3162 3162 3230 3076 3176 3172 3117 3145 3221 3056 3222 3143 3007 3144 3050 3054 3053 3110 3001 3036 3086 3050 3072 3172 3069 3110 3135 3053 3129 3138 3091 3098 3168 3121 3139 3213 3118 3150 3056 3096 3180 3111 2934 3207 3069 2992 3053 3144 3078 2999 2918 3037 3078 3097 3150 3041 3017 3140 2905 3019 2999 3059 3050 3075 3026 3054 3042 3137 3058 2982 3042 2990 3001 3096 3051 3029 3079 2930 3037 2951 3028 2946 2979 2978 3129 3002 3057 3080 2968 3011 3120 2947 2931 2995 2968 2990 2951 3018 2967 2998 3053 2915 3042 2962 3011 2935 3044 2959 3093 3009 2936 2976 3012 2887 2995 2939 3019 3024 2954 2920 3022 2934 2956 3036 2965 2954 2962 3068 3001 3030 2926 2926 2930 2985 2956 2860 2911 2889 3004 2986 3003 2815 3060 2991 3046 2914 3058 2896 2925 2925 2883 2907 2884 2951 2945 2891 2868 2968 2897 2897 2841 2817 2989 2909 2968 2918 2922 2906 2933 2897 2858 2919 2954 2984 2889 2941 2911 3013 2942 2955 2874 2947 2868 2826 2834 2971 2839 2958 2929 2990 2867 2909 2844 2880 2938 2985 2980 2945 2950 2841 3002 2795 2950 2796 2956 3005 2762 2955 2919 2992 2955 2911 2875 2881 2826 2857 2906 2986 2981 2963 2999 2899 2967 2879 2887 2841 2913 2838 2809 2855 2898 2960 2910 2920 2872 2893 2711 2884 2880 2861 2910 2921 2871 2883 2970 2895 2942 2933 3057 2996 2990 2909 2881 2926 2882 2882 2936 2885 2924 2920 2971 2935 2932 2867 2929 3018 2953 2932 3023 2852 2976 2894 2840 2906 2894 2910 2905 2950 2955 2913 2938 2948 2915 2897 2918 2907 3012 3010 3062 2926 2900 2936 2916 2874 2944 2943 2954 3066 2987 2949 2902 2955 3013 2878 2834 2866 2896 2856 2789 2950 2888 2877 2912 2958 2836 2897 2951 2911 2860 2939 2976 2938 3029 2858 2931 2944 2896 2919 2949 2875 2958 2908 2891 2799 2881 2868 2910 2834 2776 2862 2886 2835 2989 2886 2904 2881 2942 2814 2938 2921 2896 2910 2973 2802 2909 2714 2805 2850 2857 2897 2797 2791 2813 2945 2769 2805 2804 2898 2884 2843 2817 2795 2811 2746 2681 2880 2852 2850 2772 2826 2832 2799 2907 2792 2780 2742 2791 2765 2831 2787 2748 2878 2749 2795 2770 2826 2725 2787 2783 2731 2663 2750 2711 2846 2758 2823 2687 2772 2775 2614 2784 2740 2732 2734 2669 2744 2742 2761 2710 2777 2724 2669 2682 2694 2719 2607 2643 2517 2598 2671 2592 2648 2510 2650 2558 2497 2574 2580 2592 2641 2575 2576 2549 2447 2566 2434 2545 2572 2561 2487 2499 2487 2549 2567 2579 2392 2537 2454 2491 2489 2462 2494 2410 2465 2512 2485 2398 2429 2460 2445 2455 2457 2476 2417 2358 2488 2404 2359 2449 2424 2382 2401 2426 2395 2439 2427 2377 2317 2381 2410 2400 2409 2438 2390 2446 2389 2400 2363 2392 2404 2291 2334 2414 2395 2412 2255 2358 2370 2326 2396 2276 2285 2305 2373 2341 2317 2346 2419 2256 2441 2385 2358 2225 2286 2226 2390 2303 2319 2284 2282 2266 2345 2266 2267 2328 2257 2225 2311 2263 2242 2340 2201 2204 2181 2327 2256 2270 2250 2256 2222 2322 2238 2233 2334 2280 2268 2292 2250 2249 2319 2217 2112 2259 2228 2199 2224 2201 2246 2262 2228 2142 2193 2230 2294 2289 2234 2289 2183 2229 2043 2251 2101 2224 2201 2206 2277 2227 2219 2239 2255 2254 2261 2196 2283 2160 2277 2242 2186 2210 2280 2248 2147 2202 2191 2174 2167 2231 2276 2262 2264 2264 2146 2195 2154 2259 2263 2151 2178 2158 2247 2240 2211 2147 2246 2223 2173 2205 2193 2234 2290 2254 2213 2220 2232 2194 2221 2244 2228 2222 2220 2189 2211 2176 2279 2236 2294 2254 2228 2238 2316 2191 2325 2256 2283 2255 2236 2221 2298 2235 2207 2216 2223 2213 2206 2283 2220 2256 2227 2260 2250 2172 2160 2242 2272 2205 2242 2182 2219 2148 2229 2313 2224 2244 2295 2208 2285 2251 2302 2119 2266 2241 2280 2232 2298 2226 2248 2218 2222 2252 2207 2255 2230 2206 2209 2122 2228 2186 2259 2250 2129 2185 2186 2234 2230 2193 2205 2206 2285 2228 2136 2216 2095 2188 2203 2197 2125 2179 2171 2250 2199 2149 2182 2205 2215 2209 2130 2221 2217 2127 2209 2178 2190 2152 2145 2181 2091 2140 2196 2225 2040 2148 2102 2161 2182 2192 2142 2092 2247 2122 2230 2119 2127 2070 2155 2153 2139 2065 2081 2004 2107 2055 2198 2171 2084 2120 2132 2144 2100 2079 2145 2018 1994 2089 2036 2120 2086 2074 2138 2121 2110 2077 2019 2007 2064 2071 1959 2005 2075 1977 2082 2024 2009 2010 2047 2133 2078 2101 2065 2047 1998 2035 2072 2021 1945 1982 1950 2115 1967 2100 1994 1989 1960 2010 2023 1985 1955 2019 1953 1956 1982 1947 1927 2022 2009 1999 1949 2002 2022 1942 2051 2027 1933 1982 2024 1953 1931 1959 2018 1952 2043 2066 1964 2016 1903 2058 2077 2003 2024 2086 2081 2113 2153 2127 2168 2309 2242 2316 2244 2465 2415 2514 2694 2724 2890 3026 3125 3262 3469 3440 3650 3624 3688 3662 3610 3573 3415 3409 3267 3292 3147 2996 2934 2948 2872 2800 2658 2575 2612 2555 2501 2443 2339 2343 2366 2322 2284 2277 2299 2239 2293 2191 2221 2150 2028 2092 2266 2113 2165 2065 2052 2167 2033 2177 2164 2155 2093 2089 2078 1997 2123 1945 2013 2078 1988 2027 1987 1943 2023 1964 1991 1937 1910 1931 1933 1969 1901 1905 1941 1894 1806 1975 1904 1907 1924 1796 1815 1945 1909 1788 1857 1922 1848 1927 1851 1867 1922 1837 1856 1852 1857 1930 1912 1923 1904 1818 1911 1974 1978 2001 2003 2030 2167 2235 2235 2357 2422 2515 2678 2911 3116 3326 3564 3806 4074 4347 4498 4570 4626 4618 4648 4562 4580 4474 4232 4155 3957 3789 3605 3515 3418 3305 2984 2947 2843 2795 2715 2519 2511 2511 2364 2309 2252 2137 2231 2141 2137 1981 2034 2043 2049 1976 1978 1969 1956 1979 1924 2035 1914 2011 1913 1948 2017 1989 2081 2002 2014 2145 2163 2256 2292 2316 2252 2288 2282 2332 2429 2300 2250 2236 2224 2197 2094 2107 1991 2002 1984 2103 1943 1919 1899 1858 1783 1736 1776 1793 1684 1825 1749 1745 1668 1682 1711 1718 1656 1651 1704 1732 1648 1697 1625 1637 1717 1725 1692 1629 1642 1599 1597 1643 1687 1675 1625 1622 1627 1656 1641 1594 1638 1670 1632 1585 1655 1595 1670 1683 1562 1680 1591 1554 1621 1590 1613 1673 1573 1647 1606 1574 1601 1592 1535 1600 1508 1611 1475 1525 1622 1518 1522 1540 1543 1561 1568 1533 1624 1517 1499 1525 1593 1569 1538 1490 1544 1536 1530 1533 1498 1511 1482 1542 1598 1583 1528 1470 1425 1523 1431 1598 1507 1517 1488 1548 1531 1494 1556 1461 1536 1501 1585 1534 1563 1462 1547 1513 1546 1542 1528 1406 1503 1509 1538 1485 1545 1510 1540 1526 1493 1483 1464 1498 1569 1516 1421 1502 1480 1492 1491 1540 1458 1450 1483 1470 1412 1459 1423 1504 1503 1459 1542 1484 1446 1497 1453 1537 1487 1473 1454 1550 1482 1566 1557 1527 1488 1499 1485 1400 1417 1528 1570 1489 1547 1484 1577 1540 1422 1516 1471 1480 1511 1445 1502 1482 1493 1522 1537 1509 1495 1394 1492 1473 1521 1487 1527 1512 1506 1545 1605 1541 1487 1566 1552 1536 1487 1555 1532 1470 1557 1474 1488 1509 1412 1582 1518 1545 1519 1430 1534 1505 1533 1451 1523 1575 1502 1473 1477 1523 1495 1519 1482 1499 1504 1467 1407 1482 1485 1482 1521 1509 1540 1494 1460 1528 1464 1472 1464 1487 1582 1487 1489 1496 1552 1532 1501 1511 1464 1470 1546 1503 1475 1406 1564 1485 1502 1512 1486 1396 1511 1531 1548 1490 1544 1553 1466 1451 1543 1539 1553 1494 1569 1479 1537 1525 1464 1523 1535 1492 1510 1577 1531 1469 1459 1467 1475 1553 1495 1528 1520 1575 1545 1485 1550 1575 1526 1527 1513 1523 1512 1521 1489 1536 1563 1622 1559 1620 1632 1690 1660 1643 1609 1639 1679 1666 1744 1683 1705 1616 1730 1717 1823 1765 1823 1825 1851 1905 1905 1961 2014 2107 2084 2307 2330 2413 2646 2747 3036 3155 3596 3928 4199 4724 5371 5952 6892 7481 8160 9091 9742 10200 10274 10752 10528 10519 10177 10069 9784 9617 9052 8606 8196 7837 7049 6587 6192 5733 5195 5007 4680 4416 4186 4083 3862 3656 3442 3293 3175 3061 3080 3032 3078 3115 3138 3090 3160 3157 3240 3196 3190 3160 3117 3020 3085 2981 3018 3063 2937 2858 2842 2725 2849 2769 2659 2537 2532 2468 2540 2415 2457 2372 2419 2411 2459 2434 2438 2406 2410 2481 2406 2442 2349 2339 2256 2241 2252 2138 2167 2105 2127 2027 1923 1887 1891 1860 1886 1783 1729 1743 1711 1607 1656 1691 1607 1583 1565 1603 1516 1502 1557 1541 1526 1473 1515 1460 1484 1498 1468 1409 1470 1456 1530 1421 1395 1406 1478 1427 1406 1506 1458 1458 1526 1399 1527 1406 1452 1461 1410 1414 1401 1465 1349 1395 1452 1362 1484 1455 1450 1448 1440 1370 1411 1395 1401 1426 1363 1382 1410 1362 1333 1391 1409 1335 1320 1367 1414 1338 1402 1369 1396 1363 1426 1405 1412 1366 1413 1338 1411 1384 1403 1333 1323 1304 1380 1385 1369 1406 1383 1398 1333 1289 1320 1321 1407 1394 1343 1384 1359 1406 1392 1311 1364 1395 1443 1344 1320 1319 1306 1455 1363 1360 1391 1390 1387 1327 1342 1329 1362 1288 1367 1310 1382 1374 1383 1282 1370 1317 1315 1373 1383 1360 1475 1350 1385 1363 1460 1337 1344 1393 1354 1374 1404 1318 1443 1349 1333 1451 1419 1384 1362 1388 1360 1357 1384 1375 1336 1359 1372 1377 1429 1375 1450 1438 1399 1381 1378 1411 1406 1350 1394 1450 1421 1446 1424 1370 1406 1357 1360 1395 1337 1401 1480 1325 1424 1498 1334 1396 1349 1336 1379 1356 1429 1373 1450 1350 1424 1427 1417 1498 1465 1430 1477 1546 1480 1412 1476 1424 1452 1435 1505 1358 1439 1317 1511 1406 1399 1373 1460 1387 1509 1437 1409 1321 1324 1347 1372 1417 1304 1324 1315 1376 1339 1350 1300 1348 1353 1354 1346 1303 1380 1367 1395 1333 1338 1357 1349 1357 1329 1374 1350 1433 1347 1374 1381 1374 1397 1353 1373 1413 1366 1336 1333 1401 1352 1384 1369 1491 1313 1344 1336 1321 1397 1342 1421 1288 1335 1417 1316 1331 1365 1329 1338 1319 1339 1333 1343 1347 1354 1259 1356 1305 1271 1312 1335 1342 1250 1361 1234 1245 1294 1245 1319 1231 1291 1279 1278 1299 1269 1292 1319 1302 1338 1251 1288 1215 1319 1238 1288 1244 1265 1284 1210 1262 1222 1233 1301 1227 1215 1256 1193 1232 1276 1224 1271 1244 1251 1307 1291 1290 1262 1268 1255 1202 1228 1269 1283 1166 1265 1344 1229 1282 1231 1189 1216 1267 1272 1201 1188 1228 1238 1261 1262 1206 1245 1227 1218 1282 1285 1282 1229 1198 1244 1240 1203 1282 1192 1250 1318 1264 1265 1248 1182 1254 1231 1248 1244 1275 1239 1229 1267 1186 1218 1255 1210 1251 1261 1234 1274 1261 1155 1222 1253 1260 1239 1257 1245 1267 1195 1279 1190 1219 1190 1209 1289 1172 1170 1202 1235 1270 1181 1263 1273 1223 1259 1250 1193 1225 1192 1227 1193 1227 1272 1177 1193 1287 1269 1286 1199 1185 1202 1213 1220 1218 1238 1157 1241 1183 1163 1240 1204 1203 1188 1209 1231 1235 1129 1226 1230 1289 1238 1224 1247 1236 1218 1165 1231 1182 1187 1235 1177 1290 1190 1243 1164 1203 1177 1248 1239 1216 1229 1232 1266 1180 1221 1186 1171 1199 1250 1214 1147 1248 1186 1261 1206 1200 1164 1208 1207 1211 1218 1185 1199 1270 1279 1226 1261 1213 1247 1232 1241 1203 1234 1168 1265 1159 1211 1199 1165 1215 1172 1192 1151 1258 1231 1195 1192 1146 1135 1182 1238 1167 1178 1172 1252 1196 1229 1234 1188 1169 1141 1166 1168 1204 1200 1155 1218 1186 1188 1173 1249 1210 1186 1210 1194 1178 1181 1170 1186 1122 1139 1185 1160 1198 1143 1244 1181 1124 1239 1196 1141 1233 1223 1176 1138 1189 1213 1237 1202 1209 1170 1227 1129 1199 1238 1172 1221 1164 1125 1157 1247 1212 1194 1202 1200 1164 1216 1215 1181 1182 1209 1266 1252 1214 1215 1186 1217 1136 1146 1138 1166 1206 1177 1223 1132 1228 1233 1209 1196 1174 1138 1171 1161 1155 1218 1187 1182 1238 1131 1206 1160 1169 1205 1241 1167 1129 1201 1111 1153 1102 1206 1179 1209 1183 1195 1190 1212 1234 1233 1164 1229 1172 1188 1187 1241 1143 1229 1161 1195 1250 1248 1226 1192 1124 1176 1123 1154 1213 1259 1138 1185 1178 1204 1165 1112 1273 1219 1223 1154 1274 1171 1171 1186 1198 1151 1130 1177 1230 1172 1175 1186 1171 1143 1181 1178 1194 1170 1167 1154 1201 1168 1274 1161 1170 1167 1098 1154 1158 1156 1186 1230 1173 1202 1156 1300 1088 1227 1222 1202 1191 1169 1136 1204 1203 1150 1225 1172 1156 1203 1198 1182 1204 1173 1187 1143 1199 1154 1187 1184 1146 1203 1187 1154 1168 1261 1226 1177 1178 1104 1131 1131 1256 1230 1175 1167 1141 1214 1108 1201 1202 1214 1168 1238 1231 1207 1093 1179 1127 1203 1182 1141 1195 1129 1174 1167 1164 1176 1216 1178 1165 1181 1185 1212 1152 1171 1172 1191 1271 1205 1187 1172 1206 1201 1223 1222 1219 1156 1121 1140 1173 1185 1209 1162 1197 1189 1165 1180 1189 1183 1132 1259 1224 1147 1156 1217 1175 1150 1218 1160 1169 1228 1169 1189 1223 1257 1181 1233 1217 1150 1269 1192 1181 1256 1229 1264 1226 1171 1222 1200 1175 1169 1167 1229 1164 1124 1203 1171 1170 1251 1186 1201 1231 1237 1193 1191 1297 1184 1228 1285 1248 1259 1194 1204 1161 1197 1177 1189 1265 1193 1203 1250 1225 1210 1253 1270 1251 1292 1237 1235 1244 1283 1394 1282 1327 1387 1389 1457 1491 1607 1689 1711 1903 1951 2008 2028 2106 2081 2118 2069 2102 2023 2017 2049 2050 1889 1918 2009 1832 1771 1792 1714 1680 1658 1583 1500 1456 1431 1435 1429 1385 1370 1345 1351 1334 1258 1333 1297 1280 1309 1263 1322 1287 1253 1234 1243 1248 1318 1273 1259 1329 1286 1240 1194 1240 1262 1158 1275 1226 1195 1257 1242 1250 1237 1232 1209 1210 1178 1194 1152 1228 1183 1152 1153 1194 1216 1184 1213 1168 1165 1204 1194 1236 1184 1138 1250 1168 1204 1203 1280 1243 1290 1283 1309 1264 1307 1262 1323 1259 1257 1296 1337 1248 1246 1273 1297 1269 1254 1240 1237 1261 1161 1242 1193 1211 1247 1265 1240 1204 1144 1231 1254 1173 1160 1158 1201 1188 1173 1189 1185 1131 1235 1186 1166 1216 1233 1166 1163 1218 1182 1170 1141 1152 1183 1192 1248 1201 1219 1151 1213 1161 1124 1218 1198 1135 1200 1174 1166 1184 1180 1172 1234 1185 1200 1185 1177 1189 1198 1163 1221 1123 1133 1192 1147 1187 1186 1219 1069 1190 1175 1157 1216 1168 1191 1169 1239 1170 1137 1185 1174 1128 1142 1138 1165 1125 1157 1246 1127 1178 1185 1123 1250 1151 1235 1162 1171 1178 1143 1181 1202 1227 1222 1169 1164 1138 1159 1128 1140 1126 1183 1122 1192 1176 1174 1200 1207 1173 1200 1195 1174 1123 1213 1195 1177 1140 1207 1143 1206 1177 1218 1139 1197 1113 1188 1239 1179 1187 1247 1215 1245 1204 1169 1233 1227 1142 1193 1150 1118 1163 1154 1180 1166 1178 1210 1203 1165 1183 1144 1166 1190 1179 1198 1164 1162 1189 1163 1211 1246 1207 1156 1217 1196 1196 1198 1251 1199 1140 1193 1189 1241 1140 1205 1163 1247 1161 1192 1222 1177 1224 1189 1205 1192 1167 1187 1197 1117 1204 1207 1183 1152 1188 1133 1224 1267 1170 1116 1138 1148 1160 1130 1164 1198 1236 1202 1186 1242 1185 1181 1188 1198 1219 1221 1288 1187 1218 1158 1218 1150 1179 1202 1171 1213 1168 1241 1226 1256 1232 1244 1249 1265 1258 1260 1212 1255 1254 1271 1339 1333 1305 1333 1355 1315 1280 1347 1351 1334 1398 1407 1451 1345 1469 1413 1408 1562 1503 1543 1628 1686 1648 1812 1772 1879 2003 2158 2415 2573 2887 3124 3628 4112 4574 5058 5788 6134 6523 6731 6931 6737 6514 6207 5966 5768 5387 5487 5423 5204 5267 5151 4888 4755 4597 4212 3825 3542 3224 3062 2806 2638 2495 2481 2312 2171 2060 2029 1903 1926 1910 1820 1773 1737 1673 1675 1611 1588 1541 1582 1609 1591 1515 1562 1467 1507 1488 1573 1506 1427 1477 1396 1402 1433 1363 1432 1325 1357 1390 1308 1287 1336 1314 1365 1305 1278 1269 1355 1231 1203 1296 1253 1324 1293 1243 1221 1214 1289 1344 1298 1258 1289 1269 1314 1328 1333 1443 1399 1366 1347 1317 1415 1475 1444 1535 1501 1533 1600 1549 1672 1599 1676 1649 1665 1675 1615 1707 1604 1691 1666 1665 1657 1634 1629 1605 1581 1529 1432 1490 1472 1501 1505 1402 1440 1494 1365 1398 1316 1377 1363 1297 1317 1338 1306 1335 1343 1285 1329 1333 1183 1281 1241 1231 1272 1259 1286 1135 1224 1187 1245 1192 1218 1232 1183 1221 1171 1213 1276 1224 1237 1171 1165 1187 1198 1209 1185 1183 1201 1159 1182 1233 1240 1132 1156 1207 1176 1191 1208 1211 1212 1232 1185 1180 1150 1189 1208 1186 1170 1148 1113 1200 1197 1177 1153 1262 1151 1182 1273 1199 1140 1135 1168 1255 1186 1240 1229 1166 1203 1206 1246 1353 1288 1338 1320 1427 1477 1541 1543 1637 1538 1707 1643 1728 1590 1693 1653 1572 1568 1653 1616 1635 1657 1663 1679 1640 1654 1552 1528 1517 1514 1559 1400 1389 1505 1316 1356 1368 1325 1311 1364 1374 1288 1319 1271 1350 1314 1175 1226 1182 1285 1217 1231 1213 1220 1158 1121 1133 1202 1159 1176 1128 1193 1151 1168 1119 1136 1131 1152 1201 1195 1192 1086 1145 1081 1169 1128 1202 1124 1114 1058 1130 1127 1174 1115 1038 1116 1129 1066 1119 1092 1079 1090 1162 1062 1047 1068 1113 1106 1112 1117 1103 1091 1117 1117 1106 1110 1150 1118 1110 1057 1112 1119 1063 1070 1075 1116 1127 1110 1118 1076 1060 1092 1125 1060 1105 1134 1032 1108 1040 1152 1062 1142 1066 1075 1101 1056 1093 1077 1026 1125 1047 1080 1092 1137 1082 1134 1072 1177 1123 1152 1058 1090 1142 1092 1157 1109 1074 1112 1055 1155 1056 1057 1079 1020 1089 1069 1076 1105 1076 1045 1118 1124 1112 1091 1062 1078 1021 1032 1086 1085 1114 1080 1022 1069 1081 1094 1040 1007 1061 1069 1070 1031 1113 1048 1119 1096 1094 1146 1116 1058 1068 1122 1052 1058 1107 1061 1117 1046 1144 1121 1079 1134 1092 1029 1081 1115 1110 1137 1170 1097 1021 1142 1141 1058 1084 1109 1080 1058 1109 1114 1029 1055 1040 1125 1098 1064 1153 1064 1057 1079 1117 1014 1041 1052 1120 1068 1078 1158 1092 1108 1073 1089 1119 1065 1053 982 1089 1013 1010 1074 1112 1164 1116 1071 1076 1106 1055 1136 1088 1132 1030 1121 1131 1070 1054 1093 1077 1023 1071 1075 1150 1050 1080 1055 1035 1102 1048 1113 1109 1076 1128 1020 1043 1023 1126 1037 1066 1049 1094 1120 1059 1092 1029 1025 1070 1095 1087 1072 1121 1103 1056 1085 1052 1025 1087 1095 1073 1054 1025 1093 1071 1092 1052 1123 1070 1100 1073 1050 1096 1088 1127 1021 1050 1044 1068 1048 1109 1096 1098 1071 1033 1099 1091 1076 1100 1073 1076 1138 1063 1093 1058 1080 1069 1037 1022 1119 1091 1071 1078 1102 1065 998 1071 1048 1039 1090 1024 1118 1044 1065 1145 1052 1132 1067 1022 1136 1020 1108 1082 1122 1073 1110 1093 1083 1146 1130 1100 1150 1084 1103 1117 1088 1099 1102 1049 1109 1086 1079 1116 1099 1106 1047 1164 1086 1087 1074 1114 1110 1126 1088 1092 1118 1117 1069 1121 1084 1071 1071 1098 1060 1146 1042 1082 1095 1136 1067 1120 1096 1114 1065 1132 1057 1074 997 1101 1090 1086 1104 1060 1154 1121 1047 1112 1086 1128 1084 1107 1057 1102 1057 1114 1082 1063 1080 1036 1133 1194 1104 1113 1105 1091 1146 1060 1084 1102 1119 1064 1052 1067 1120 1077 1099 1115 1046 1114 1152 1058 1047 1116 1116 1099 1029 989 1134 1064 1064 1119 1005 1077 1093 1100 1098 1046 1121 1085 1076 1061 1072 1073 1118 1076 1074 1069 1073 1135 1064 1069 1078 1107 1109 1025 1074 1072 1094 1060 1124 1064 1030 1158 1073 1006 1093 1080 1061 1148 1061 1075 1075 1087 1074 1050 1035 1027 1066 1050 1068 1113 1052 1010 1067 1117 1052 1103 1094 1059 1089 1097 1051 1034 1044 1062 1081 1096 1076 1087 1093 1070 1075 1102 1118 1206 1102 1124 1095 1133 1164 1155 1249 1156 1207 1209 1221 1230 1153 1220 1218 1202 1164 1245 1156 1132 1186 1176 1200 1180 1204 1174 1191 1173 1190 1136 1142 1206 1137 1149 1114 1090 1095 1128 1056 1113 1062 1135 1113 1169 1083 1095 1153 1076 1149 1150 1156 1060 1146 1091 1137 1135 1142 1111 1177 1144 1135 1211 1084 1183 1178 1245 1299 1319 1424 1370 1519 1570 1677 1647 1654 1723 1737 1704 1658 1587 1588 1506 1420 1545 1507 1503 1492 1528 1578 1472 1488 1556 1394 1375 1393 1368 1379 1223 1310 1255 1297 1211 1248 1172 1133 1178 1103 1171 1162 1107 1177 1123 1073 1073 1082 1140 1157 1121 1146 1111 1132 1081 1093 1132 1105 1131 1059 1095 1110 1096 1095 1091 1056 1087 1129 1079 1094 1055 1096 1066 1086 1080 1099 1075 1076 1105 1064 1063 1113 1107 1090 1099 1068 1120 1146 1077 1107 1105 1068 1050 1021 1053 1082 1028 1107 1078 1098 1061 1071 1074 1030 1089 975 1046 1099 1060 1090 1108 1117 1048 1065 1095 1098 1129 1041 1155 1153 1151 1144 1136 1156 1120 1171 1179 1198 1138 1201 1183 1181 1216 1231 1164 1237 1195 1192 1136 1155 1160 1113 1223 1168 1167 1205 1101 1188 1136 1147 1114 1094 1137 1071 1132 1034 1069 1095 1130 1093 1073 1100 1108 1112 1034 1094 1083 1113 1069 1045 1082 1117 1048 1049 1021 989 1060 1008 1034 1124 1098 1059 1046 1113 1018 1036 1148 1005 1054 1029 1045 1024 1042 1050 1029 1089 1063 1074 1118 1027 1058 1067 1005 1028 1005 1106 1035 1080 1088 1037 1095 1024 976 1092 1073 1044 1079 1150 1050 1091 1073 1061 1117 1054 1100 1045 997 1068 1104 1057 1105 1062 1068 1106 1094 1101 1095 1131 1080 1052 1066 1057 1103 1094 1112 1080 1085 1126 1159 1067 1135 1119 1093 1193 1071 1213 1221 1209 1200 1261 1322 1391 1434 1465 1549 1690 1759 1989 1973 2092 2325 2172 2310 2190 2160 2044 2045 1940 1905 1882 1850 1768 1768 1759 1852 1847 1918 1862 1818 1850 1764 1740 1671 1626 1561 1487 1485 1458 1412 1429 1361 1346 1343 1312 1269 1288 1290 1274 1256 1240 1263 1239 1244 1222 1208 1326 1169 1186 1136 1197 1171 1167 1136 1164 1208 1141 1136 1080 1040 1109 1148 1088 1079 1125 1110 1089 1088 1024 1056 1058 1126 1126 1090 1148 1027 1063 1034 1077 1115 1040 1036 1007 1055 1039 1034 1013 1042 982 996 1055 1052 1063 1027 1029 1037 1011 1054 1028 1025 1028 1009 1100 1034 1008 1049 1034 998 1056 1020 1090 983 1060 1054 1096 1063 1055 998 1064 978 1073 1049 1031 1072 1096 1048 1114 1073 1048 1116 1074 1076 1065 1118 1125 1116 1086 1075 1084 1051 1066 1100 1080 1090 1124 1137 1113 1074 1071 1107 1029 1105 1084 1104 1076 995 977 1044 1068 1022 1025 1045 1118 1049 1030 1023 1041 1024 1031 1108 984 993 1078 1001 1043 985 1047 1046 1103 1088 1066 1028 1059 1154 1128 1141 1063 1162 1164 1195 1203 1291 1255 1271 1359 1340 1371 1334 1301 1311 1207 1220 1217 1152 1172 1253 1288 1238 1201 1276 1287 1242 1239 1200 1205 1193 1215 1206 1119 1194 1191 1201 1129 1109 1074 1166 1140 1095 1054 1086 1077 1083 1147 1079 1042 1127 1115 1080 1080 1108 1088 1070 1033 1083 1075 1053 1074 1071 1042 1024 1084 1067 1022 1039 1095 1046 1039 1068 1059 1086 1037 1066 1030 1023 936 997 1034 969 1068 995 1060 973 1032 993 1049 965 1027 1021 982 1051 1002 1018 1011 1064 1007 1025 1021 939 1021 1091 998 994 995 1003 1006 1088 1058 1003 1003 940 936 1013 1024 979 1071 1020 969 1004 1042 1014 983 993 1031 981 1008 1016 987 1021 986 1023 985 1028 990 1086 994 1001 1008 1066 1002 1024 1027 973 1024 1014 977 986 1083 991 1008 1032 1012 1075 1045 1014 966 936 1012 1034 1032 1029 1035 1023 1039 1010 976 997 1035 1003 1021 967 1027 1059 1031 1017 1058 1011 1026 1079 1014 1024 1017 1018 1072 992 1029 987 970 1064 992 992 1030 969 1031 1050 954 1016 1054 1036 1018 1048 1009 1022 1012 1047 1038 1054 984 1029 971 1007 970 1026 1015 1053 1076 1019 1002 1016 992 1004 1066 954 1013 984 976 1039 1039 1082 954 990 951 981 978 976 1024 1025 953 942 959 996 932 999 1048 1028 1000 1048 1010 1010 964 1043 986 987 999 1009 1022 948 951 989 1000 1001 969 977 974 1035 1014 934 1021 980 1009 1025 1063 1023 1011 1019 1021 1008 1001 991 954 930 961 1016 960 1007 1038 995 979 1009 935 999 993 1039 969 948 1025 992 1061 976 1001 942 1014 960 966 967 1002 1016 999 988 934 972 1007 933 982 970 968 989 1030 943 1043 996 1031 969 980 989 1044 957 1006 1028 983 993 1071 962 1006 980 1008 995 1023 1021 951 1030 980 979 982 1024 1011 1004 1000 955 1075 1058 1010 973 964 1002 962 936 979 1021 981 1001 956 1054 985 1021 1026 1030 915 1024 966 1056 968 985 909 984 956 999 1014 1021 1018 1005 1019 1013 976 965 1022 970 1008 1006 995 954 994 977 981 1025 975 1046 1017 958 1013 1011 1027 986 983 937 951 973 980 990 1033 947 975 932 985 969 1024 1057 1002 1072 1028 980 969 973 1012 1021 991 1037 1031 974 1017 979 1015 944 967 980 937 1009 984 1006 1049 961 980 1021 1048 1070 976 920 992 992 987 989 990 995 965 1014 916 995 991 985 1001 1050 987 967 999 952 949 976 976 958 966 1010 983 984 972 986 998 984 998 1018 1012 1005 988 985 1004 993 981 1049 1029 967 1021 1093 1023 1008 1072 1058 1028 1058 1095 1069 1083 1100 1131 1184 1161 1166 1186 1177 1182 1185 1073 1104 1090 1105 1047 1078 1075 1058 1061 1029 1097 1114 1147 1087 1049 1034 1097 1066 1110 1055 1048 1054 984 1019 988 989 1077 1017 1029 1048 1085 1035 990 963 1057 1025 1065 1019 1022 1026 1086 984 1007 997 965 1015 1022 1063 1000 1035 1025 926 950 964 981 975 998 1004 983 982 1006 992 926 1067 973 992 1017 958 930 963 974 989 1071 1004 960 988 1031 983 1005 999 990 972 1027 974 1038 1018 1043 982 959 1023 1041 1021 1047 1018 976 975 982 1008 996 1020 1003 993 1005 1013 932 1024 1062 981 904 1021 1014 998 1013 972 974 1012 1025 982 1001 917 982 1050 1045 1028 1003 1013 1007 1029 961 1042 951 985 977 993 1024 984 988 912 995 1005 1017 950 941 963 966 983 956 966 920 943 954 1007 980 1026 992 1024 928 987 1004 1001 926 1009 957 933 969 1050 965 988 1027 977 1028 963 992 944 1024 934 1003 992 987 1006 1023 996 981 962 981 1015 962 1027 973 1026 968 1015 1044 907 987 1026 963 970 951 1024 1024 986 982 960 990 967 997 940 980 958 979 996 1039 993 973 990 1022 975 972 1008 969 1009 1020 1017 975 1061 982 937 960 1003 951 984 988 978 990 947 982 958 991 998 1005 948 1005 1019 1026 1003 1035 998 997 973 1050 1014 955 1059 1026 975 1089 1051 1005 1006 1032 969 988 1028 1028 937 1021 1022 1077 988 1058 1047 1026 988 1004 1020 1037 1022 1075 1056 1009 1055 1068 1147 1094 1060 1135 1190 1113 1267 1264 1341 1332 1431 1458 1438 1565 1570 1552 1474 1503 1373 1342 1359 1287 1254 1275 1340 1277 1238 1232 1316 1308 1309 1337 1278 1369 1297 1276 1244 1174 1174 1233 1119 1140 1136 1134 1086 1078 1125 1088 1145 1144 1035 1065 1046 1053 995 1026 1035 1014 1109 1008 1072 1024 1038 1071 1017 1075 977 1002 974 996 1043 986 1029 1040 1024 1025 1006 982 939 966 1059 1023 968 999 1019 1056 1079 962 1010 942 978 1021 1017 1086 1037 1016 1007 1033 1046 1056 995 1050 1063 1072 1029 1009 1058 1039 1043 1043 1034 1006 1052 995 1046 1013 1032 1064 1021 941 1057 1038 1036 1045 988 1043 996 1041 972 1015 1030 1002 979 1050 1016 994 980 1020 1005 1053 972 1039 984 1008 1006 985 957 1011 990 1024 992 997 936 1002 1024 1023 1033 999 986 1052 1031 1034 1005 1077 955 990 1010 1021 1005 984 1020 1036 1021 1007 998 1021 971 973 982 1046 1004 1014 1031 1059 1080 983 996 1041 1011 1045 975 1017 1037 976 996 1015 1048 942 1025 963 988 1001 1006 978 991 991 919 957 960 976 924 1009 971 1013 967 973 984 952 946 955 939 1017 979 978 961 933 974 988 1044 938 973 986 956 983 981 930 926 1039 989 1039 947 945 942 986 949 973 1015 981 990 961 947 939 969 960 963 952 927 946 963 1015 933 982 942 982 988 1000 983 988 908 995 969 989 1020 945 985 944 994 922 948 985 978 960 968 977 944 978 1004 970 997 993 985 973 966 950 1042 936 1005 988 940 964 988 1000 935 963 926 963 938 977 950 895 995 990 954 1010 992 938 1032 952 934 977 986 954 958 982 1010 971 950 988 897 988 988 991 986 953 982 977 979 910 984 992 989 953 955 1024 922 927 1008 926 954 967 931 992 941 959 998 982 932 967 964 995 944 963 969 949 971 975 925 917 979 972 975 978 983 935 983 1023 948 967 1017 985 963 958 966 955 972 994 952 976 987 967 929 984 999 946 960 1024 992 921 1006 920 945 971 925 945 1003 1017 926 949 966 994 984 1004 955 931 967 931 994 1001 931 948 976 955 1013 1004 1005 952 972 958 984 970 908 968 976 940 937 980 885 933 976 890 1017 1012 1024 944 988 968 992 982 960 954 990 966 979 978 1016 956 984 952 1012 1031 941 972 982 1015 992 957 1011 947 1010 1007 889 945 1014 948 959 935 986 933 1029 980 933 929 984 945 962 952 980 1039 965 1027 1051 948 949 943 903 993 996 955 941 931 1043 974 1050 1038 957 929 990 988 921 939 972 968 981 1007 983 1013 934 1004 940 989 1002 968 972 972 994 1010 988 1035 957 961 1036 1000 992 976 1017 924 1021 955 957 998 945 969 934 887 1009 982 992 1001 1036 948 939 976 948 938 954 979 989 954 993 974 968 969 967 948 951 996 982 997 928 982 1011 994 1007 983 962 962 1023 1016 980 972 985 1019 967 906 1002 949 988 952 908 994 965 981 961 1028 985 941 1010 1021 966 1006 1032 969 1009 974 984 1062 1002 1019 998 960 947 1024 1060 956 1010 1004 981 943 966 991 964 989 982 1012 1039 1016 965 990 1030 961 1056 991 980 999 999 1027 1023 956 969 1004 998 1025 1003 981 1035 1080 1003 1034 1057 1030 995 1025 1056 1097 1073 1069 1183 1125 1104 1138 1137 1108 1141 1135 1091 1040 1077 1060 1118 1035 1077 1020 1042 1042 999 1104 1109 1077 1076 1099 1107 1041 1094 1118 1098 1053 1059 1098 1083 1064 1059 1050 1071 1011 1015 1007 1059 1023 1012 1024 999 1029 1052 1018 1021 1014 1018 1062 1101 1132 1079 1060 1108 1144 1083 1222 1202 1104 1208 1198 1194 1126 1098 1098 1064 1056 1083 1082 1066 1046 1047 1113 1057 1082 1073 1083 1074 1144 1106 1096 1161 1126 1067 1038 1072 1050 1106 1077 1088 1022 1049 1069 974 1094 990 1054 1053 996 1029 966 990 979 1003 992 1023 984 1057 988 986 1004 1019 1070 982 1014 1012 1010 951 1037 1005 997 1002 1003 1030 991 977 1018 1044 1016 956 972 966 1044 965 1008 1018 1007 1028 1013 1021 1000 970 960 967 992 972 967 982 937 1025 1002 972 1020 972 976 1003 1034 944 963 994 1056 996 972 1044 981 1039 1024 1007 1004 970 1008 1007 965 1060 995 973 1049 1027 929 1032 1009 986 997 994 996 994 975 970 987 996 996 998 1025 1053 1077 1009 1041 1023 982 1017 984 935 1000 996 1061 1042 1064 970 993 981 972 1027 1003 1031 1022 1019 955 1039 1058 1012 984 1041 1027 969 1008 1033 1042 1008 1006 1111 1044 999 1048 1018 1083 1013 1091 1069 1101 1096 1084 1076 1115 1089 1101 1104 1062 1094 1095 1060 1043 1044 1043 1060 1120 1100 1065 1154 1093 1096 1106 1115 1128 1101 1174 1114 1188 1154 1101 1165 1108 1112 1207 1150 1181 1227 1198 1217 1338 1403 1464 1478 1532 1651 1743 1889 1958 1946 1976 2085 2042 2078 1886 1863 1937 1716 1628 1735 1605 1554 1528 1513 1464 1480 1594 1650 1601 1622 1614 1716 1711 1674 1654 1709 1674 1601 1558 1589 1493 1513 1388 1384 1324 1312 1207 1290 1253 1245 1216 1121 1230 1207 1112 1166 1215 1140 1115 1163 1107 1100 1115 1099 1090 1065 1122 1108 1057 989 1087 1107 1014 1072 1056 1045 1072 1077 1014 1039 1005 1019 1026 1064 1031 970 1006 1043 1017 1039 1060 1011 980 979 956 986 1018 951 1012 991 977 963 977 1000 1020 979 1029 989 1014 982 1026 989 979 1005 1017 992 1022 1016 972 1054 1077 1047 998 1053 991 1028 996 985 989 976 991 1049 1061 963 996 1025 954 953 990 994 993 975 1014 1120 1036 1006 936 1026 950 965 1032 965 1047 986 1045 1030 1019 1038 987 997 1023 933 1020 1029 1025 1041 1093 1018 1057 1033 1057 1021 1052 1021 1041 1077 1020 1033 1031 1111 1089 1113 1118 1149 1112 1098 1120 1139 1121 1120 1130 1139 1053 1133 1130 1069 1094 1181 1095 1116 1144 1174 1157 1245 1154 1175 1181 1153 1129 1106 1199 1096 1095 1137 1080 1078 1166 1101 1076 1076 1027 1132 1124 1062 1072 1110 1157 1107 1048 1092 1068 1079 1052 1043 1055 1029 1030 1033 1038 985 1091 1069 1081 1016 960 1007 1062 1029 965 1020 995 983 974 1006 1063 1004 1029 1044 972 998 1022 1042 1014 994 935 1027 1030 1014 911 976 954 974 980 966 1005 945 949 1022 959 999 978 1013 1011 1013 1003 965 988 958 978 975 1005 965 1040 1031 941 978 958 1021 989 951 1019 997 935 997 959 973 967 955 979 1052 995 922 1015 958 948 1009 961 980 1010 940 993 950 1033 937 948 981 1021 960 969 1000 994 1059 970 951 957 975 962 989 974 957 1047 991 981 1027 974 944 992 974 982 934 978 975 1010 968 996 950 995 920 1006 966 937 992 1006 1005 955 977 953 971 992 943 1043 995 934 978 987 977 955 965 958 975 938 931 973 982 937 971 931 985 931 1000 988 911 915 900 988 920 919 1005 976 972 1004 988 969 968 952 1016 936 972 1011 976 975 936 964 947 967 972 982 1027 983 971 995 1016 992 986 973 1020 971 920 1022 1029 977 918 921 994 973 1038 922 990 976 960 978 1018 964 980 984 984 924 1014 955 975 958 949 941 944 977 975 999 966 931 931 950 983 970 942 1012 957 949 967 883 980 988 991 949 992 973 963 986 990 933 1038 954 996 929 1000 958 984 940 942 964 962 933 1008 1002 947 995 949 966 992 917 953 1016 951 904 980 931 937 1048 990 1009 963 931 994 936 1006 958 1032 994 972 965 1011 896 966 1044 928 956 977 951 940 963 944 974 984 910 932 914 993 946 960 964 1000 947 1049 919 1033 930 904 949 953 1090 982 982 991 990 957 990 929 940 995 916 992 974 965 949 919 907 959 943 1001 954 954 937 1034 976 951 984 946 959 977 963 999 1004 950 944 974 975 1010 979 971 966 916 979 984 937 984 998 949 982 1009 947 939 974 981 930 967 972 961 982 1048 976 982 953 924 930 1016 986 929 1001 976 1003 933 943 1029 999 1003 1014 1026 1017 1012 1005 1029 1020 1019 1038 1073 1044 1090 1033 1124 1076 1084 1070 1009 1042 1059 1075 1022 1012 1013 1053 962 1097 1006 1064 1058 979 952 982 1008 1074 993 983 1116 1084 1075 1017 1026 1080 985 998 1038 982 1001 1042 968 980 970 982 958 1041 989 1020 944 981 956 956 1009 1003 965 979 980 940 1038 1015 946 988 1042 919 913 955 956 973 960 955 1035 975 1012 1067 1032 937 979 900 979 947 937 926 948 989 963 982 1002 948 980 1003 937 1014 990 1047 1008 1022 1000 979 995 1038 975 1040 948 1017 997 995 996 942 945 949 1029 966 985 981 1042 942 913 949 967 977 994 948 960 969 950 982 969 1009 1005 990 975 916 988 958 965 975 966 972 1015 976 976 945 923 981 955 913 952 989 913 936 962 979 970 936 974 923 932 946 1035 988 985 1002 978 958 952 970 966 989 934 960 937 939 979 1002 954 968 1033 979 959 995 947 985 983 966 1005 974 910 986 941 970 974 905 1036 997 992 957 965 1008 929 1000 953 1011 968 995 959 957 954 996 985 942 955 970 1007 971 1000 1030 1055 1004 937 957 951 957 966 1009 963 948 1004 942 1032 991 1002 1010 996 977 1021 1023 1014 997 977 1027 1014 1039 965 1031 1057 1033 1008 972 965 1058 992 959 1011 1040 1041 1023 999 997 1044 1053 1032 1081 1044 1045 1009 1055 1040 1007 1000 1117 1090 1060 1092 1117 1192 1145 1220 1211 1164 1287 1267 1375 1386 1407 1564 1613 1675 1731 1685 1792 1731 1696 1685 1681 1600 1554 1465 1458 1372 1385 1331 1292 1272 1243 1291 1272 1274 1280 1376 1268 1303 1387 1371 1444 1357 1455 1431 1413 1422 1421 1367 1257 1263 1288 1238 1258 1238 1220 1183 1164 1127 1134 1129 1079 1105 1079 1060 1119 1048 1009 1056 1045 1033 1001 1057 981 1001 1030 1022 999 1017 967 973 1067 1010 1072 1014 1031 1020 1080 1072 1040 1010 989 1022 1033 1069 964 984 1013 1017 1040 1007 1040 1019 1036 1038 1055 1031 989 997 1022 1007 970 948 1028 973 1025 1010 994 1081 944 994 1010 968 1018 1009 1002 961 1007 974 951 991 1019 990 990 996 945 1039 1008 1046 969 1001 1035 986 1011 1010 1008 967 1027 982 1008 984 976 989 992 1015 976 983 954 917 994 975 1049 997 1069 923 999 938 951 1050 1030 1004 971 1030 997 1004 985 1009 969 994 1018 1012 992 1019 1016 1047 961 1052 1000 1040 1068 1014 1018 1003 1018 1044 1081 1059 1061 1031 1051 984 979 1017 980 1009 1024 1023 1081 1022 993 1038 974 1012 1031 1040 1019 983 1025 1030 1031 1065 1033 1037 1022 1012 971 992 1043 1036 929 1017 949 976 1060 956 1015 962 1028 967 1008 1039 1013 1050 1036 1059 955 1004 984 1003 1007 1053 1017 1038 1051 988 1031 977 994 1021 966 969 995 1005 1036 986 977 980 1018 967 944 1034 974 989 956 956 975 963 960 959 988 966 959 974 930 984 961 1002 994 1017 994 976 984 982 987 966 983 1057 995 966 962 946 1012 957 955 919 1018 1008 966 951 954 1024 953 947 972 986 993 954 1004 960 963 952 933 1011 940 991 1043 1005 991 992 973 1013 974 999 943 943 964 1059 987 999 997 982 982 940 924 967 959 1036 1032 950 1006 961 1031 970 969 930 987 981 955 986 960 939 950 988 930 938 976 990 990 982 1002 930 1015 920 983 949 995 896 957 883 944 967 916 999 932 978 950 949 991 1044 991 955 1046 958 965 967 1000 1042 1021 983 1003 946 997 896 1006 940 976 997 1010 969 960 981 942 917 950 977 959 990 961 1003 987 944 993 935 941 1010 999 976 977 967 939 937 910 1007 978 939 969 947 886 1020 929 976 982 992 980 1014 943 969 916 949 971 955 969 980 929 996 951 943 945 1017 966 934 943 946 1008 982 931 971 971 997 964 969 937 904 947 916 967 978 1051 973 983 1003 994 935 938 938 967 963 943 964 974 935 949 995 982 996 968 953 895 980 986 952 977 956 1031 991 1042 921 1037 1048 952 994 1001 953 943 954 942 1006 975 977 991 975 942 952 1010 975 995 953 1018 955 937 950 949 950 973 989 964 992 930 917 926 966 978 947 901 991 919 926 917 958 981 972 973 948 950 1022 992 914 924 899 963 883 968 957 880 973 947 919 987 973 948 942 925 987 920 954 939 974 950 967 1015 951 951 974 953 993 956 956 991 1020 940 975 988 1006 1028 948 976 949 950 985 1003 962 979 961 975 982 993 979 965 960 1027 994 960 1000 979 970 971 993 1031 945 961 1058 1014 975 974 955 979 1018 988 1014 988 997 1002 1008 1024 1062 1066 1041 1047 1052 1026 1060 1102 1076 1118 1057 1097 1108 1100 1046 1150 1123 1052 1089 1042 1135 1014 1055 1025 1062 1052 1025 1043 1015 1054 1009 1025 1046 989 1070 1037 1019 1058 1071 1111 1073 1031 1063 1041 1062 1075 1103 1042 1070 1007 966 1034 1026 1034 976 1074 1017 1022 994 1054 1071 1002 1079 1082 1066 1064 1138 1051 1099 1074 1061 1032 1050 1049 1120 1116 1064 1062 1050 1056 1029 993 1084 983 1022 1075 1006 1001 1044 993 1039 1036 1006 1041 1037 1069 1065 1050 1051 1083 1022 1051 1033 993 1057 1030 1016 1004 1004 990 1012 997 988 952 1009 1012 1006 992 1014 1042 974 953 915 1007 979 1013 974 983 999</counts>
			</dataPoints>
		</scan>
	</xrdMeasurement>
</xrdMeasurements>
