<?xml version="1.0"?>
<xrdMeasurements xmlns="http://www.xrdml.com/XRDMeasurement/2.3" xmlns:xsi="http://www.w3.org/2001/XMLSchema-instance" xsi:schemaLocation="http://www.xrdml.com/XRDMeasurement/2.3 http://www.xrdml.com/XRDMeasurement/2.3/XRDMeasurement.xsd" status="Completed" recordIdentifier="{EC651426-8199-4C29-B05B-8B5FE52161BF}">
	<comment>
		<entry/>
	</comment>
	<sample type="To be analyzed">
		<id>GPSS_Li1p8Mn0p2Fe0p6Mg0p1Zr0p1Cl4_122125_69474145f4d05ae3d697aeee</id>
		<name></name>
		<preparedBy></preparedBy>
	</sample>
	<xrdMeasurement measurementType="Scan" status="Completed" sampleMode="Reflection">
		<usedWavelength intended="K-Alpha 1">
			<kAlpha1 unit="Angstrom">1.5405980</kAlpha1>
			<kAlpha2 unit="Angstrom">1.5444260</kAlpha2>
			<kBeta unit="Angstrom">1.3922500</kBeta>
			<ratioKAlpha2KAlpha1>0.5000</ratioKAlpha2KAlpha1>
		</usedWavelength>
		<incidentBeamPath>
			<radius unit="mm">145.00</radius>
			<xRayTube id="1010048" name="Empyrean Cu LFF HR (9430 033 7310x)">
				<tension unit="kV">40.0</tension>
				<current unit="mA">15.0</current>
				<anodeMaterial>Cu</anodeMaterial>
				<focus type="Line">
					<length unit="mm">12.0</length>
					<width unit="mm">0.4</width>
					<takeOffAngle unit="deg">6.0</takeOffAngle>
				</focus>
			</xRayTube>
			<sollerSlit id="21010002" name="Soller slits 0.04 rad.">
				<opening unit="rad">0.0400</opening>
			</sollerSlit>
			<mask id="22031000" name="Fixed mask 13 mm">
				<width unit="mm">9.00</width>
			</mask>
			<divergenceSlit id="22120001" name="Divergence slit 1°" xsi:type="fixedDivergenceSlitType">
				<distanceToSample unit="mm">50.00</distanceToSample>
				<height unit="mm">1.52</height>
			</divergenceSlit>
		</incidentBeamPath>
		<sampleMovement xsi:type="spinningSampleMovementType">
			<spinnerRevolutionTime unit="seconds">1.0</spinnerRevolutionTime>
		</sampleMovement>
		<diffractedBeamPath>
			<radius unit="mm">145.00</radius>
			<antiScatterSlit id="22090040" name="AS slit 9 mm (PIXcel)" xsi:type="fixedAntiScatterSlitType">
				<height unit="mm">9.00</height>
			</antiScatterSlit>
			<sollerSlit id="21020003" name="Large Soller slits 0.04 rad.">
				<opening unit="rad">0.0400</opening>
			</sollerSlit>
			<filter id="20030001" name="Large beta-filter Nickel">
				<material>Ni</material>
				<thickness unit="mm">0.020</thickness>
			</filter>
			<detector id="7010019" name="PIXcel1D-Medipix3 detector" xsi:type="rtmsDetectorType">
				<phd unit="keV">
					<lowerLevel>4.02</lowerLevel>
					<upperLevel>11.27</upperLevel>
				</phd>
				<mode>Scanning</mode>
				<activeLength unit="deg">5.542</activeLength>
			</detector>
		</diffractedBeamPath>
		<scan appendNumber="0" mode="Continuous" scanAxis="Gonio" status="Completed">
			<header>
				<startTimeStamp>2025-12-22T15:51:27-08:00</startTimeStamp>
				<endTimeStamp>2025-12-22T15:59:34-08:00</endTimeStamp>
				<author>
					<name>AutomatedUser</name>
				</author>
				<source>
					<applicationSoftware version="1.7b (136)">PANalytical Aeris Instrument Suite</applicationSoftware>
					<instrumentControlSoftware version="3.2.00000000 20240306">AERIS</instrumentControlSoftware>
					<instrumentID>950485</instrumentID>
				</source>
			</header>
			<dataPoints>
				<positions axis="2Theta" unit="deg">
					<startPosition>10.00943322</startPosition>
					<endPosition>99.99442286</endPosition>
				</positions>
				<positions axis="Omega" unit="deg">
					<startPosition>5.00471661</startPosition>
					<endPosition>49.99721143</endPosition>
				</positions>
				<commonCountingTime unit="seconds">12.495</commonCountingTime>
				<counts unit="counts">3294 3207 3202 3223 3299 3241 3171 3265 3181 3247 3238 3133 3157 3207 3112 3293 3186 3138 3276 3254 3288 3188 3286 3262 3326 3262 3318 3282 3284 3187 3188 3289 3076 3321 3304 3246 3321 3389 3253 3355 3250 3328 3322 3316 3277 3446 3313 3208 3283 3370 3290 3251 3324 3317 3306 3413 3345 3361 3329 3369 3342 3337 3339 3342 3338 3339 3247 3377 3351 3404 3407 3304 3435 3493 3329 3331 3325 3387 3435 3405 3388 3491 3522 3335 3451 3488 3309 3398 3498 3503 3471 3429 3551 3495 3426 3474 3492 3387 3439 3450 3379 3445 3416 3376 3434 3314 3552 3369 3555 3445 3431 3452 3530 3417 3471 3429 3452 3469 3465 3399 3433 3507 3572 3432 3512 3510 3554 3568 3532 3550 3491 3420 3547 3544 3445 3533 3529 3491 3404 3452 3523 3513 3609 3517 3580 3539 3519 3544 3585 3699 3545 3667 3572 3460 3558 3541 3533 3494 3672 3472 3521 3457 3512 3478 3425 3570 3466 3548 3530 3490 3555 3621 3546 3537 3491 3562 3448 3326 3470 3473 3549 3521 3487 3544 3640 3534 3533 3474 3500 3547 3439 3561 3467 3568 3591 3566 3434 3474 3504 3457 3529 3482 3402 3428 3488 3403 3446 3559 3513 3504 3531 3413 3476 3404 3488 3592 3569 3464 3517 3573 3484 3494 3474 3473 3501 3532 3416 3441 3438 3363 3444 3456 3428 3389 3376 3509 3495 3452 3489 3481 3543 3397 3408 3452 3500 3434 3363 3331 3435 3371 3386 3353 3416 3338 3350 3409 3423 3379 3337 3431 3501 3381 3291 3556 3466 3453 3356 3446 3497 3427 3424 3254 3410 3415 3385 3398 3409 3397 3429 3466 3319 3411 3398 3497 3340 3475 3396 3369 3415 3434 3382 3397 3392 3392 3427 3408 3396 3372 3309 3440 3479 3397 3384 3493 3457 3342 3456 3416 3522 3445 3471 3367 3529 3482 3541 3317 3485 3456 3402 3474 3478 3448 3485 3382 3461 3586 3430 3484 3456 3426 3469 3577 3459 3391 3595 3494 3459 3550 3570 3531 3667 3733 3693 3577 3499 3631 3555 3563 3673 3504 3611 3578 3581 3479 3596 3699 3593 3648 3601 3683 3662 3637 3669 3659 3702 3600 3672 3673 3613 3616 3547 3615 3725 3801 3748 3698 3789 3604 3648 3698 3665 3781 3704 3705 3674 3659 3799 3716 3817 3742 3695 3764 3682 3813 3739 3782 3739 3779 3743 3789 3829 3858 4027 3865 3790 3842 3771 3735 3850 3898 3792 3836 3836 3891 3968 3986 3741 3880 3991 4081 4027 4003 4061 3955 3926 4166 4000 4180 4185 4160 4195 4284 4157 4220 4223 4279 4368 4394 4399 4450 4430 4601 4538 4604 4718 4834 4867 4866 4794 4831 4832 4880 4970 5055 5057 5092 5094 5225 4983 5050 5159 4926 5066 5023 5051 5011 4945 5087 4850 4711 4711 4569 4533 4407 4380 4225 4344 4295 4253 4118 4061 4184 4114 4161 4211 4035 4084 4223 4152 4062 4054 4250 4192 4258 4137 4043 4140 4005 4123 4116 4061 4126 4057 3989 3974 3851 3817 3805 3692 3806 3678 3650 3693 3859 3633 3728 3544 3563 3639 3540 3608 3611 3475 3575 3463 3522 3548 3576 3568 3431 3539 3450 3592 3553 3476 3486 3507 3375 3447 3473 3391 3479 3323 3430 3374 3503 3371 3496 3416 3332 3469 3507 3514 3464 3426 3339 3424 3389 3371 3387 3353 3419 3374 3419 3425 3328 3361 3326 3424 3383 3284 3519 3299 3385 3432 3347 3333 3312 3417 3360 3319 3374 3316 3377 3402 3367 3317 3319 3257 3302 3179 3300 3251 3196 3278 3355 3215 3276 3309 3253 3303 3231 3275 3292 3315 3222 3223 3221 3293 3234 3290 3314 3255 3202 3235 3241 3232 3230 3280 3218 3161 3206 3190 3326 3253 3137 3236 3204 3210 3139 3304 3177 3155 3248 3114 3182 3212 3281 3211 3352 3234 3209 3296 3251 3170 3286 3108 3232 3208 3284 3190 3138 3114 3235 3237 3235 3105 3162 3249 3128 3192 3234 3147 3260 3193 3117 3155 3150 3255 3188 3125 3239 3208 3156 3275 3160 3131 3279 3245 3220 3189 3238 3103 3217 3168 3156 3160 3221 3082 3210 3179 3116 3269 3070 3146 3139 3136 3052 3128 3151 3181 3133 3127 3123 3033 3155 3214 3134 3130 3086 3062 3173 3165 3211 3168 3077 3058 3069 3094 3059 3184 3104 3090 3149 3080 3116 3155 3060 3008 3154 3071 3058 3132 3021 3102 3093 3161 3029 3250 3156 3131 3087 3131 3187 3157 3020 3035 3054 3061 3177 3012 3142 3069 3109 3134 3058 3081 3032 3161 3140 3107 3062 3019 3070 2997 3041 3037 3117 3087 3091 3070 3059 3146 3080 3055 3126 3155 3108 3084 3102 3013 2968 3071 3096 3065 3013 3111 3060 2982 2988 3053 3098 2975 3156 3073 2953 3098 3056 3082 2863 3042 3006 3053 3051 2985 3086 2990 3076 2987 3078 3087 3005 2968 2938 3043 2983 3007 3052 2970 3038 3019 3056 2996 2976 2996 2946 3024 3044 3059 2980 2971 3080 3071 3006 3027 3014 2991 2951 2971 2882 2881 2996 3011 2968 2982 2954 3059 2946 3051 2994 2837 2991 2998 3007 2842 2932 3078 2877 3069 3074 3007 2990 2900 3008 2935 2956 2917 3014 2990 3035 2994 2912 2876 2937 2893 2965 3010 2955 2964 3000 2922 2885 2909 2860 2937 2967 2958 2884 2906 2934 2937 2941 2858 2894 2894 2968 2894 2867 2915 2954 2848 2924 3011 2972 2956 3079 2888 2974 2858 2811 2929 2985 2842 2805 2901 2921 2802 2929 2851 2816 2782 2919 2903 2890 2863 3006 2889 2820 2949 2929 2872 2822 2873 2884 2853 2910 2982 2856 2914 2837 2841 2764 2925 2835 2869 2788 2858 2777 2851 2833 2750 2815 2924 2832 2751 2924 2863 2843 2828 2944 2812 2801 2861 2777 2847 2820 2752 2740 2867 2872 2805 2937 2956 2887 2787 2816 2869 2788 2876 2807 2835 2911 2843 2736 2852 2857 2818 2790 2897 2809 2857 2870 2792 2813 2793 2812 2915 2904 2920 2801 2806 2776 2857 2890 2817 2821 2811 2737 2918 2839 2846 2829 2804 2771 2885 2879 2888 2861 2930 2789 2837 2789 2895 2830 2809 2770 2782 2851 2816 2800 2820 2798 2866 2853 2886 2826 2721 2842 2794 2809 2773 2848 2731 2905 2883 2885 2872 2805 2779 2826 2830 2749 2848 2816 2843 2901 2947 2805 2847 2830 2856 2855 2841 2827 2737 2781 2877 2797 2837 2880 2809 2895 2793 2821 2881 2803 2921 2871 2888 2766 2793 2791 2843 2858 2783 2888 2864 2878 2788 2826 2932 2830 2777 2842 2684 2812 2801 2861 2879 2842 2834 2847 2807 2816 2708 2825 2811 2757 2919 2851 2866 2788 2907 2842 2822 2841 2805 2782 2796 2842 2807 2859 2795 2805 2797 2822 2767 2824 2823 2834 2741 2777 2743 2854 2907 2766 2820 2776 2745 2770 2642 2751 2766 2728 2765 2794 2802 2756 2737 2771 2700 2729 2727 2887 2759 2729 2723 2708 2578 2684 2627 2718 2617 2808 2799 2775 2728 2901 2710 2697 2593 2659 2737 2690 2635 2562 2738 2673 2656 2704 2608 2637 2682 2601 2680 2659 2581 2523 2616 2616 2683 2507 2559 2573 2644 2577 2681 2628 2620 2695 2586 2513 2593 2571 2648 2552 2510 2488 2517 2542 2490 2481 2600 2489 2402 2518 2477 2524 2543 2459 2478 2555 2496 2452 2495 2531 2490 2462 2482 2425 2547 2347 2437 2363 2460 2383 2373 2406 2473 2326 2437 2418 2526 2433 2442 2416 2382 2461 2360 2375 2426 2410 2426 2472 2326 2429 2326 2390 2318 2386 2283 2331 2359 2346 2322 2377 2415 2293 2392 2445 2364 2336 2309 2343 2321 2347 2368 2315 2353 2352 2388 2239 2274 2249 2395 2334 2326 2241 2292 2308 2354 2299 2276 2327 2379 2280 2411 2339 2382 2292 2296 2339 2300 2268 2302 2286 2258 2309 2262 2295 2308 2324 2373 2298 2196 2254 2342 2243 2291 2245 2230 2280 2319 2226 2291 2360 2237 2296 2269 2267 2247 2200 2220 2279 2264 2202 2153 2212 2210 2277 2257 2204 2260 2359 2322 2263 2228 2352 2255 2230 2227 2288 2259 2261 2325 2254 2198 2282 2303 2282 2323 2168 2313 2155 2191 2186 2220 2228 2252 2210 2285 2167 2253 2301 2175 2174 2204 2172 2239 2259 2189 2235 2178 2205 2213 2160 2188 2216 2270 2275 2117 2298 2240 2191 2149 2193 2218 2126 2255 2174 2202 2167 2241 2238 2249 2287 2230 2156 2125 2231 2309 2230 2132 2205 2235 2273 2209 2219 2292 2152 2302 2251 2220 2226 2269 2265 2231 2177 2198 2202 2249 2280 2226 2329 2093 2234 2306 2196 2179 2238 2158 2134 2299 2281 2283 2269 2241 2278 2280 2150 2327 2206 2273 2192 2311 2243 2252 2251 2219 2338 2318 2248 2272 2297 2293 2280 2265 2245 2262 2198 2206 2262 2229 2310 2173 2230 2199 2290 2241 2281 2257 2203 2203 2244 2215 2209 2311 2267 2207 2243 2225 2210 2224 2175 2257 2227 2247 2262 2267 2263 2287 2232 2190 2310 2125 2215 2302 2219 2292 2270 2177 2226 2206 2126 2250 2251 2243 2261 2210 2301 2180 2225 2197 2203 2287 2232 2271 2206 2184 2121 2160 2159 2184 2208 2253 2226 2222 2163 2233 2207 2141 2227 2153 2269 2135 2143 2224 2065 2214 2153 2242 2154 2152 2153 2188 2096 2098 2092 2084 2166 2169 2145 2128 2069 2239 2129 2262 2073 2149 2142 2065 2157 2081 2097 2113 2026 1969 2115 2113 2051 2026 2050 2049 2017 2098 2122 2102 2199 2062 2000 2069 2049 2120 1922 2136 2079 1999 2167 2074 2013 2001 2042 1990 2071 2028 1963 2036 2057 2039 2028 1968 1941 1997 2002 2012 1981 2013 2049 2044 1962 2033 2000 2008 1959 1994 2072 2031 2049 2001 1894 1926 2024 2014 1911 2018 1983 1940 1975 1975 2026 2069 1909 1978 1975 1956 1974 1996 1983 1982 1969 1990 1982 1908 1989 1877 1943 1914 1999 1975 1947 1980 1964 1945 1958 1875 1888 1933 2041 1931 2007 1981 1907 1968 1953 1955 1934 2026 1880 1990 1944 2016 1954 1934 1990 1954 1997 1957 2034 2037 1985 2049 2064 2091 2073 2107 2114 2143 2161 2152 2245 2170 2255 2232 2276 2346 2277 2252 2288 2364 2406 2463 2433 2533 2506 2543 2505 2653 2531 2643 2503 2440 2553 2427 2519 2418 2487 2493 2364 2355 2313 2270 2351 2232 2183 2233 2088 2081 2041 2019 2080 1997 2016 1889 2008 1983 1980 2010 1927 1965 1960 1908 1919 1922 1875 1997 1898 1924 1921 1877 1992 1934 1905 2000 1966 1954 1890 1902 1959 1894 1882 1946 1890 1942 1908 1876 1909 1868 1913 1937 1813 1856 1884 1839 1878 1890 1866 1906 1874 1906 2006 1839 1932 1888 1908 1954 2025 2066 2035 1965 1981 2079 2130 2069 2073 2137 2085 2197 2134 2150 2183 2120 2223 2315 2422 2427 2379 2453 2583 2692 2651 2722 2841 2867 2864 2990 3095 3045 3119 3220 3308 3501 3528 3530 3598 3806 3703 3783 3833 3883 3871 3827 3778 3738 3734 3680 3661 3561 3455 3400 3265 3210 3158 3142 3024 2933 2808 2795 2657 2730 2549 2586 2586 2568 2529 2559 2561 2529 2586 2543 2599 2574 2476 2646 2611 2612 2437 2517 2495 2531 2445 2371 2315 2259 2213 2299 2140 2061 2076 2053 2056 2052 1961 2071 2036 1914 1943 1938 1887 1921 1933 1934 1935 1879 1926 1768 1951 1825 1939 1844 1759 1888 1826 1859 1843 1830 1864 1880 1841 1852 1745 1863 1835 1848 1775 1826 1760 1765 1745 1872 1828 1807 1772 1819 1765 1731 1744 1676 1765 1708 1694 1719 1658 1730 1730 1747 1737 1759 1660 1702 1739 1704 1702 1740 1729 1712 1709 1716 1699 1688 1668 1706 1700 1695 1660 1606 1699 1696 1679 1738 1739 1655 1708 1628 1694 1641 1739 1683 1677 1602 1681 1719 1626 1583 1660 1725 1635 1635 1661 1649 1628 1652 1653 1588 1615 1582 1646 1617 1679 1669 1628 1565 1634 1564 1638 1595 1531 1660 1647 1638 1667 1684 1583 1695 1519 1624 1603 1633 1646 1661 1651 1673 1560 1635 1576 1612 1560 1656 1546 1649 1551 1614 1566 1590 1646 1589 1571 1634 1553 1619 1661 1588 1690 1646 1649 1575 1622 1642 1644 1633 1611 1554 1613 1571 1582 1573 1540 1596 1524 1548 1533 1557 1640 1530 1606 1623 1614 1580 1532 1572 1549 1568 1548 1619 1551 1573 1607 1640 1569 1605 1596 1561 1600 1563 1580 1551 1671 1668 1679 1613 1575 1619 1667 1563 1547 1547 1517 1606 1553 1523 1644 1586 1616 1582 1604 1618 1530 1661 1582 1619 1587 1525 1529 1558 1587 1617 1634 1621 1532 1559 1588 1539 1609 1500 1493 1602 1534 1589 1576 1571 1630 1597 1565 1586 1621 1542 1619 1560 1623 1527 1571 1583 1567 1510 1563 1581 1575 1539 1619 1598 1613 1593 1589 1592 1641 1645 1516 1560 1534 1621 1630 1625 1574 1628 1605 1510 1599 1576 1582 1523 1609 1662 1624 1637 1587 1583 1569 1616 1516 1592 1626 1632 1597 1565 1552 1604 1611 1608 1551 1734 1610 1623 1599 1579 1598 1624 1657 1595 1583 1589 1603 1673 1619 1598 1644 1619 1590 1607 1700 1655 1646 1686 1672 1662 1647 1674 1627 1624 1665 1670 1683 1656 1703 1709 1735 1812 1829 1827 1892 1934 1911 1993 1988 2004 2053 2141 2159 2255 2220 2358 2477 2565 2435 2612 2703 2712 2961 2997 3058 3078 3164 3002 3388 3371 3598 3557 3594 3832 3998 3999 4168 4414 4550 4717 4820 5100 5217 5471 5410 5673 5816 5839 5841 6017 5946 6017 6118 6111 5964 5904 5874 5621 5640 5339 5145 4969 4796 4537 4462 4195 3862 3737 3590 3416 3374 3079 2953 2926 2914 2774 2665 2638 2590 2589 2634 2555 2572 2559 2506 2509 2566 2521 2515 2395 2468 2512 2519 2368 2441 2342 2330 2378 2251 2349 2235 2223 2114 2034 2090 2012 2084 1975 1944 1943 1932 1863 1937 1897 1946 1897 1936 1928 1882 1814 1732 1799 1850 1850 1787 1739 1843 1759 1751 1692 1762 1689 1795 1777 1694 1682 1715 1719 1720 1586 1664 1635 1616 1636 1596 1634 1602 1660 1649 1610 1598 1617 1628 1509 1607 1609 1555 1544 1572 1570 1616 1585 1619 1534 1660 1571 1608 1592 1494 1539 1540 1549 1563 1588 1595 1594 1540 1511 1587 1575 1539 1572 1533 1631 1459 1540 1573 1594 1444 1530 1554 1518 1527 1486 1490 1529 1559 1541 1544 1568 1511 1547 1512 1524 1579 1590 1543 1472 1497 1551 1498 1551 1498 1544 1488 1442 1524 1495 1567 1522 1568 1481 1421 1546 1488 1528 1492 1596 1559 1551 1576 1496 1479 1479 1532 1452 1537 1510 1469 1541 1543 1590 1470 1528 1495 1472 1560 1462 1537 1475 1553 1464 1516 1454 1559 1452 1496 1526 1501 1461 1488 1479 1505 1501 1531 1504 1528 1549 1486 1437 1489 1521 1519 1471 1567 1537 1477 1457 1482 1476 1492 1525 1480 1518 1493 1496 1454 1509 1466 1529 1514 1469 1430 1455 1429 1460 1490 1564 1483 1491 1554 1444 1530 1493 1550 1504 1546 1469 1489 1530 1472 1493 1428 1526 1532 1526 1597 1481 1496 1482 1524 1567 1523 1482 1481 1593 1474 1506 1452 1558 1494 1564 1573 1483 1536 1523 1531 1452 1575 1472 1513 1579 1632 1550 1531 1511 1469 1473 1522 1535 1537 1523 1574 1435 1504 1519 1550 1504 1533 1519 1447 1539 1546 1449 1531 1489 1477 1522 1491 1360 1526 1491 1480 1473 1464 1493 1413 1528 1447 1397 1485 1437 1511 1497 1468 1468 1452 1477 1449 1506 1422 1448 1372 1562 1494 1434 1432 1439 1534 1453 1460 1402 1458 1447 1411 1481 1452 1458 1486 1435 1433 1485 1521 1483 1440 1414 1538 1488 1471 1438 1412 1486 1441 1462 1494 1405 1493 1440 1468 1496 1450 1415 1478 1484 1412 1482 1443 1424 1507 1449 1454 1367 1463 1448 1449 1448 1476 1374 1467 1436 1473 1451 1406 1435 1405 1456 1510 1473 1483 1487 1354 1479 1448 1412 1486 1471 1402 1407 1433 1405 1481 1440 1382 1467 1405 1409 1466 1482 1458 1414 1506 1455 1431 1488 1422 1529 1474 1471 1442 1431 1382 1480 1460 1422 1420 1386 1434 1408 1426 1469 1445 1363 1420 1405 1437 1396 1459 1461 1367 1414 1450 1375 1442 1474 1427 1392 1442 1382 1397 1366 1438 1454 1436 1465 1485 1350 1399 1476 1456 1395 1427 1413 1481 1394 1388 1415 1441 1456 1398 1385 1429 1410 1369 1437 1428 1428 1472 1401 1393 1395 1413 1440 1419 1411 1374 1469 1410 1451 1376 1412 1348 1415 1449 1368 1358 1472 1389 1468 1422 1427 1400 1378 1354 1365 1389 1407 1440 1383 1413 1473 1432 1483 1429 1406 1344 1339 1404 1402 1451 1423 1387 1438 1415 1339 1369 1424 1363 1382 1502 1348 1386 1363 1386 1367 1471 1377 1443 1385 1425 1397 1358 1419 1429 1408 1494 1371 1356 1389 1395 1491 1424 1370 1343 1430 1418 1392 1381 1429 1363 1453 1407 1417 1423 1410 1432 1377 1355 1449 1343 1425 1392 1456 1453 1376 1448 1398 1381 1425 1377 1345 1433 1405 1456 1353 1424 1471 1435 1403 1445 1392 1434 1390 1444 1406 1368 1427 1427 1423 1442 1369 1459 1353 1426 1374 1460 1376 1404 1373 1407 1418 1383 1427 1374 1324 1390 1423 1324 1404 1308 1445 1348 1369 1413 1435 1400 1459 1419 1398 1392 1438 1417 1348 1383 1295 1316 1420 1408 1353 1404 1393 1396 1451 1382 1420 1457 1413 1400 1439 1428 1342 1407 1420 1411 1409 1410 1426 1433 1426 1386 1383 1437 1458 1399 1390 1355 1379 1446 1435 1383 1383 1322 1432 1469 1415 1418 1421 1353 1407 1363 1370 1424 1482 1400 1419 1397 1427 1398 1435 1305 1465 1377 1389 1399 1374 1456 1378 1397 1371 1428 1393 1360 1387 1330 1447 1451 1412 1379 1384 1374 1332 1361 1408 1416 1370 1323 1428 1330 1455 1460 1400 1419 1399 1393 1428 1405 1466 1429 1421 1412 1398 1365 1368 1381 1414 1420 1402 1424 1358 1375 1442 1371 1431 1456 1393 1413 1422 1449 1401 1392 1366 1418 1482 1393 1370 1403 1387 1445 1339 1397 1409 1429 1390 1386 1445 1486 1337 1470 1356 1438 1410 1435 1353 1425 1401 1379 1368 1425 1417 1427 1445 1353 1400 1406 1349 1441 1452 1348 1370 1452 1327 1390 1340 1378 1349 1385 1375 1415 1391 1353 1415 1411 1373 1364 1425 1402 1335 1397 1398 1341 1360 1399 1340 1422 1409 1422 1451 1406 1465 1453 1389 1374 1439 1400 1412 1389 1432 1398 1423 1363 1454 1472 1393 1362 1397 1359 1297 1355 1395 1399 1363 1390 1396 1343 1385 1391 1337 1419 1391 1414 1402 1416 1342 1395 1451 1413 1408 1420 1291 1405 1375 1421 1351 1414 1467 1446 1401 1400 1367 1385 1455 1349 1405 1406 1376 1402 1440 1394 1442 1366 1446 1346 1354 1360 1441 1380 1384 1436 1460 1393 1406 1325 1406 1392 1386 1363 1343 1423 1420 1430 1426 1369 1431 1449 1385 1361 1340 1452 1419 1454 1412 1367 1399 1415 1364 1355 1400 1466 1393 1410 1390 1409 1447 1378 1412 1406 1371 1385 1413 1427 1474 1466 1446 1479 1454 1473 1515 1489 1527 1468 1447 1538 1561 1539 1545 1490 1575 1575 1560 1621 1577 1600 1560 1617 1677 1726 1727 1705 1643 1780 1698 1742 1803 1730 1797 1806 1833 1777 1864 1856 1878 1817 1842 1906 1798 1832 1924 1808 1844 1847 1865 1783 1726 1833 1815 1762 1704 1749 1710 1680 1647 1665 1550 1528 1656 1591 1558 1563 1492 1515 1503 1431 1499 1468 1445 1422 1437 1459 1377 1457 1397 1481 1463 1353 1422 1341 1447 1437 1352 1372 1377 1440 1396 1359 1374 1365 1429 1487 1435 1441 1511 1448 1404 1397 1413 1365 1356 1437 1424 1386 1414 1404 1415 1386 1429 1363 1346 1379 1423 1406 1380 1361 1400 1329 1389 1425 1455 1430 1498 1401 1405 1344 1342 1445 1380 1402 1377 1418 1499 1387 1396 1430 1431 1479 1407 1403 1399 1454 1449 1367 1469 1431 1409 1417 1393 1379 1393 1417 1428 1377 1399 1424 1461 1409 1360 1436 1387 1409 1409 1378 1375 1354 1373 1386 1393 1334 1366 1342 1351 1314 1377 1377 1443 1440 1451 1369 1405 1342 1348 1353 1410 1384 1369 1314 1448 1344 1405 1409 1363 1430 1384 1420 1374 1375 1392 1426 1345 1405 1398 1388 1451 1433 1382 1304 1455 1444 1376 1395 1423 1372 1371 1386 1380 1387 1343 1365 1327 1357 1297 1418 1350 1333 1362 1389 1406 1386 1454 1343 1308 1422 1397 1362 1416 1405 1377 1420 1391 1405 1414 1390 1459 1417 1440 1309 1433 1344 1360 1400 1389 1346 1386 1399 1375 1398 1368 1395 1387 1423 1387 1366 1511 1367 1377 1453 1381 1430 1399 1396 1415 1460 1401 1439 1380 1357 1398 1364 1452 1403 1387 1408 1336 1360 1350 1403 1440 1333 1353 1379 1432 1428 1455 1391 1318 1340 1350 1315 1394 1384 1441 1417 1416 1367 1441 1426 1379 1406 1351 1411 1408 1354 1454 1409 1421 1414 1354 1324 1446 1399 1409 1390 1403 1400 1370 1407 1386 1401 1306 1413 1337 1379 1373 1390 1383 1405 1361 1427 1413 1371 1422 1472 1430 1365 1433 1411 1354 1379 1403 1429 1461 1355 1410 1413 1417 1398 1432 1413 1441 1438 1460 1392 1460 1444 1438 1436 1450 1474 1398 1411 1509 1482 1443 1478 1412 1449 1499 1457 1579 1515 1564 1509 1598 1565 1647 1608 1660 1623 1732 1729 1770 1871 1775 1821 1943 1882 1887 1987 2006 2086 2128 2114 2269 2118 2180 2273 2404 2446 2473 2537 2696 2684 2834 2868 3019 3133 3175 3383 3393 3424 3585 3632 3638 3702 3727 3907 3938 3888 3915 3812 3824 3868 3869 3816 3777 3653 3659 3479 3550 3376 3232 3171 3129 3006 2926 2884 2724 2575 2530 2495 2436 2307 2254 2180 2146 2067 2042 2017 1927 2101 1982 1985 1906 1963 1990 1949 1957 1973 1978 2085 1996 2062 2067 2001 2072 2120 2101 2043 2033 2026 2109 2053 2059 2032 2018 2070 2075 1990 1978 1988 1908 1980 1884 1935 1847 1939 1776 1817 1730 1771 1785 1722 1744 1702 1719 1645 1764 1716 1703 1703 1722 1677 1752 1650 1745 1703 1714 1660 1631 1671 1650 1611 1703 1714 1669 1707 1695 1639 1646 1634 1632 1660 1708 1654 1649 1575 1652 1707 1562 1640 1475 1561 1561 1529 1575 1617 1570 1523 1535 1544 1506 1510 1559 1411 1532 1501 1406 1464 1551 1539 1457 1486 1491 1505 1461 1424 1421 1382 1438 1371 1423 1369 1465 1390 1524 1471 1415 1473 1431 1418 1421 1382 1398 1395 1373 1401 1406 1421 1392 1391 1517 1387 1451 1410 1378 1453 1423 1406 1424 1396 1416 1371 1417 1410 1427 1407 1412 1462 1464 1382 1408 1450 1370 1447 1434 1370 1343 1446 1397 1436 1462 1408 1419 1377 1473 1373 1448 1504 1509 1482 1489 1434 1541 1524 1489 1465 1565 1499 1539 1582 1611 1534 1574 1534 1570 1645 1593 1636 1620 1541 1566 1543 1639 1595 1608 1556 1581 1714 1579 1637 1567 1587 1614 1625 1470 1503 1597 1547 1474 1527 1485 1518 1453 1467 1473 1437 1453 1373 1466 1406 1404 1349 1430 1400 1401 1412 1357 1395 1401 1376 1348 1395 1346 1448 1367 1456 1431 1370 1380 1388 1382 1412 1408 1357 1379 1369 1409 1423 1384 1380 1432 1343 1345 1436 1351 1460 1363 1317 1361 1337 1399 1449 1386 1378 1414 1376 1356 1391 1420 1396 1410 1383 1389 1335 1391 1426 1353 1376 1367 1305 1333 1355 1346 1345 1376 1355 1407 1369 1401 1437 1426 1427 1372 1404 1376 1392 1433 1441 1322 1341 1422 1371 1382 1386 1345 1389 1341 1378 1344 1368 1404 1388 1404 1401 1375 1356 1377 1368 1371 1331 1324 1344 1292 1354 1365 1324 1302 1326 1367 1356 1309 1366 1339 1363 1337 1356 1332 1354 1365 1306 1357 1367 1364 1311 1379 1369 1335 1395 1341 1342 1296 1330 1377 1365 1327 1324 1343 1300 1356 1359 1369 1396 1298 1355 1328 1304 1315 1299 1261 1322 1348 1320 1330 1335 1324 1334 1331 1328 1291 1378 1359 1364 1336 1333 1376 1303 1341 1302 1262 1389 1342 1331 1321 1338 1274 1369 1371 1295 1311 1361 1369 1305 1344 1309 1320 1327 1296 1291 1269 1335 1315 1284 1290 1291 1350 1332 1378 1335 1342 1296 1338 1328 1345 1330 1323 1310 1310 1352 1383 1332 1356 1289 1304 1331 1282 1274 1328 1332 1299 1346 1305 1352 1338 1326 1296 1341 1372 1382 1324 1324 1312 1309 1292 1297 1368 1315 1343 1307 1336 1336 1354 1283 1285 1265 1328 1310 1340 1369 1338 1317 1370 1285 1354 1371 1332 1331 1367 1366 1279 1310 1339 1277 1305 1230 1365 1378 1297 1311 1354 1357 1341 1348 1323 1351 1326 1228 1276 1316 1353 1327 1349 1369 1325 1321 1305 1321 1297 1281 1260 1324 1329 1269 1294 1323 1291 1338 1334 1358 1380 1306 1271 1272 1322 1324 1346 1246 1336 1229 1359 1384 1333 1307 1317 1335 1283 1342 1316 1320 1376 1361 1314 1313 1288 1305 1341 1382 1360 1289 1351 1238 1347 1279 1320 1347 1292 1326 1352 1290 1269 1307 1399 1294 1340 1331 1282 1337 1302 1252 1287 1336 1347 1288 1332 1348 1351 1287 1334 1332 1354 1269 1272 1290 1351 1281 1291 1352 1337 1273 1221 1379 1322 1316 1307 1355 1362 1328 1341 1330 1288 1298 1365 1332 1296 1291 1336 1320 1268 1306 1326 1253 1268 1323 1306 1280 1356 1304 1338 1288 1343 1312 1249 1340 1319 1397 1282 1297 1230 1295 1273 1332 1270 1343 1370 1365 1348 1353 1342 1375 1302 1316 1335 1382 1384 1344 1320 1343 1315 1300 1271 1300 1359 1289 1258 1301 1251 1370 1312 1331 1254 1336 1320 1369 1265 1346 1358 1304 1301 1263 1273 1307 1344 1257 1329 1361 1311 1251 1320 1304 1258 1326 1283 1367 1352 1337 1322 1290 1321 1283 1324 1351 1247 1310 1317 1233 1341 1308 1243 1275 1376 1289 1252 1264 1367 1293 1273 1332 1335 1354 1241 1313 1344 1375 1353 1315 1338 1283 1303 1326 1307 1329 1290 1341 1371 1318 1236 1343 1379 1363 1369 1338 1310 1397 1380 1376 1359 1343 1364 1309 1385 1338 1326 1313 1344 1359 1339 1381 1338 1379 1317 1346 1358 1347 1370 1392 1443 1377 1319 1358 1355 1348 1402 1457 1427 1373 1394 1373 1410 1408 1344 1338 1369 1409 1372 1310 1396 1329 1366 1433 1377 1409 1380 1391 1337 1414 1350 1426 1425 1365 1467 1341 1403 1415 1455 1349 1376 1365 1461 1442 1472 1462 1453 1433 1442 1453 1510 1542 1545 1482 1479 1593 1472 1573 1544 1617 1613 1589 1550 1584 1553 1643 1640 1561 1547 1748 1593 1588 1667 1607 1604 1608 1680 1632 1587 1605 1603 1651 1617 1636 1595 1579 1497 1554 1585 1501 1555 1546 1512 1508 1499 1487 1458 1502 1457 1477 1482 1476 1366 1394 1471 1516 1470 1437 1448 1510 1436 1471 1498 1461 1498 1493 1488 1524 1560 1505 1536 1477 1560 1529 1586 1493 1516 1513 1459 1592 1542 1552 1508 1581 1544 1566 1555 1618 1564 1538 1539 1489 1575 1515 1575 1541 1491 1530 1491 1566 1475 1449 1505 1538 1444 1473 1464 1410 1448 1474 1422 1392 1437 1321 1440 1370 1394 1380 1447 1338 1360 1402 1381 1349 1377 1435 1327 1382 1378 1424 1412 1337 1408 1367 1347 1398 1345 1332 1349 1340 1385 1397 1329 1393 1384 1337 1369 1362 1365 1359 1369 1350 1413 1425 1404 1325 1320 1400 1386 1394 1359 1345 1385 1263 1350 1361 1399 1323 1356 1327 1344 1370 1264 1364 1349 1409 1295 1376 1248 1394 1386 1408 1377 1315 1295 1323 1275 1408 1315 1373 1268 1333 1296 1296 1305 1345 1321 1313 1392 1332 1303 1346 1360 1319 1390 1281 1338 1370 1353 1309 1292 1334 1285 1295 1284 1312 1380 1292 1340 1291 1303 1382 1353 1300 1404 1360 1345 1337 1311 1354 1475 1324 1346 1332 1292 1423 1442 1381 1338 1313 1381 1400 1389 1389 1425 1376 1327 1363 1495 1451 1455 1561 1521 1467 1573 1539 1586 1521 1584 1541 1479 1527 1579 1585 1556 1540 1619 1622 1687 1583 1669 1647 1742 1708 1759 1843 1800 1763 1831 1834 1797 1900 1902 1876 1885 1886 1900 1810 1880 1720 1853 1831 1873 1815 1855 1771 1771 1812 1829 1803 1735 1799 1682 1677 1610 1640 1678 1632 1641 1596 1615 1565 1561 1526 1583 1513 1513 1399 1440 1438 1426 1451 1396 1446 1347 1407 1400 1409 1410 1397 1411 1367 1366 1417 1410 1409 1368 1449 1425 1404 1425 1326 1428 1356 1368 1451 1369 1396 1432 1422 1403 1390 1459 1402 1465 1470 1447 1403 1434 1400 1406 1449 1396 1357 1433 1396 1424 1421 1358 1330 1404 1423 1365 1423 1405 1394 1359 1344 1386 1450 1431 1383 1358 1348 1385 1358 1375 1328 1388 1431 1284 1348 1369 1391 1390 1318 1313 1345 1360 1318 1311 1318 1320 1301 1394 1370 1259 1413 1370 1307 1333 1306 1376 1315 1330 1314 1313 1372 1297 1298 1312 1297 1342 1367 1254 1253 1381 1321 1370 1399 1317 1295 1278 1274 1381 1390 1334 1293 1308 1359 1369 1318 1388 1353 1381 1386 1337 1323 1325 1412 1355 1360 1401 1421 1471 1371 1386 1396 1418 1460 1388 1371 1375 1394 1316 1396 1389 1423 1403 1331 1403 1396 1390 1445 1470 1434 1472 1445 1486 1483 1428 1443 1517 1441 1380 1396 1450 1406 1404 1463 1456 1434 1404 1435 1396 1418 1427 1399 1449 1398 1414 1366 1317 1369 1401 1344 1337 1394 1347 1367 1388 1354 1318 1254 1389 1280 1379 1218 1351 1279 1330 1354 1356 1288 1279 1262 1317 1336 1317 1357 1257 1312 1331 1326 1352 1402 1322 1285 1341 1315 1310 1250 1307 1347 1270 1319 1273 1326 1346 1315 1309 1258 1268 1304 1342 1298 1318 1228 1301 1350 1306 1315 1351 1289 1275 1335 1295 1291 1285 1279 1323 1329 1238 1277 1346 1323 1263 1252 1362 1245 1380 1291 1226 1290 1265 1257 1329 1333 1303 1314 1327 1295 1329 1293 1270 1324 1359 1250 1302 1326 1255 1283 1263 1299 1334 1324 1335 1280 1293 1355 1377 1262 1262 1213 1292 1281 1251 1354 1235 1328 1265 1285 1291 1220 1240 1287 1223 1337 1302 1338 1323 1226 1366 1264 1269 1339 1323 1286 1358 1349 1324 1283 1327 1296 1293 1264 1315 1264 1263 1318 1254 1379 1278 1261 1312 1272 1355 1326 1268 1253 1260 1240 1272 1325 1239 1361 1367 1329 1315 1269 1275 1327 1281 1259 1267 1253 1355 1276 1207 1190 1258 1330 1310 1256 1325 1273 1308 1280 1297 1238 1283 1231 1269 1260 1260 1214 1267 1259 1263 1318 1328 1222 1256 1334 1223 1337 1348 1230 1235 1319 1251 1314 1317 1328 1255 1298 1275 1283 1292 1251 1277 1248 1249 1245 1283 1303 1304 1286 1235 1261 1298 1302 1233 1257 1270 1242 1261 1354 1279 1276 1341 1322 1242 1276 1285 1271 1358 1278 1306 1311 1275 1289 1252 1302 1295 1280 1229 1301 1263 1353 1218 1243 1285 1283 1230 1246 1201 1278 1316 1317 1268 1253 1246 1250 1328 1250 1226 1318 1234 1246 1245 1232 1268 1224 1329 1264 1293 1289 1289 1305 1271 1313 1315 1261 1268 1295 1311 1322 1244 1242 1262 1278 1259 1201 1286 1293 1269 1309 1249 1324 1277 1295 1267 1316 1297 1270 1279 1255 1273 1234 1249 1338 1261 1279 1262 1286 1295 1314 1288 1287 1289 1262 1258 1272 1270 1273 1259 1267 1278 1285 1242 1325 1245 1285 1309 1255 1274 1326 1303 1288 1274 1276 1283 1257 1232 1320 1299 1280 1332 1286 1210 1250 1335 1279 1281 1266 1254 1306 1370 1318 1306 1306 1314 1247 1255 1289 1307 1301 1253 1271 1315 1239 1308 1269 1276 1283 1376 1240 1323 1320 1229 1213 1257 1286 1286 1259 1256 1326 1268 1319 1291 1257 1259 1267 1275 1244 1271 1192 1268 1245 1247 1312 1292 1361 1255 1299 1329 1297 1294 1305 1265 1296 1285 1291 1239 1260 1267 1256 1267 1326 1310 1282 1230 1266 1268 1291 1339 1326 1275 1297 1267 1248 1374 1268 1323 1195 1263 1338 1245 1301 1284 1275 1265 1322 1342 1323 1223 1258 1274 1266 1301 1225 1318 1245 1326 1334 1366 1350 1315 1333 1297 1371 1355 1346 1301 1411 1366 1390 1374 1335 1372 1341 1322 1389 1350 1404 1362 1337 1374 1341 1329 1303 1394 1413 1281 1340 1389 1347 1381 1342 1393 1268 1275 1361 1353 1299 1318 1311 1308 1237 1382 1392 1334 1315 1283 1314 1331 1312 1324 1264 1319 1268 1323 1332 1368 1269 1233 1264 1295 1293 1354 1262 1254 1269 1284 1291 1334 1305 1264 1283 1285 1262 1263 1239 1226 1292 1250 1286 1271 1279 1280 1259 1235 1304 1305 1270 1319 1291 1240 1245 1292 1330 1239 1262 1245 1340 1325 1259 1280 1245 1276 1225 1282 1225 1263 1274 1188 1266 1253 1269 1273 1268 1251 1286 1301 1222 1278 1244 1230 1259 1265 1330 1260 1294 1258 1285 1254 1280 1277 1233 1335 1310 1390 1304 1292 1281 1291 1282 1254 1292 1264 1330 1231 1283 1293 1341 1252 1251 1221 1274 1317 1348 1335 1253 1267 1312 1286 1274 1252 1320 1348 1287 1297 1247 1298 1254 1291 1260 1200 1204 1388 1272 1291 1234 1292 1225 1319 1276 1387 1383 1264 1294 1300 1317 1260 1356 1297 1251 1188 1268 1296 1254 1328 1271 1289 1267 1301 1245 1279 1261 1234 1295 1240 1334 1322 1355 1244 1308 1274 1344 1296 1290 1319 1205 1313 1265 1301 1335 1279 1255 1194 1273 1274 1276 1352 1289 1285 1276 1284 1266 1273 1311 1261 1289 1308 1317 1233 1251 1312 1268 1315 1240 1201 1297 1258 1305 1305 1295 1350 1281 1293 1342 1313 1261 1270 1382 1269 1306 1247 1317 1349 1304 1257 1270 1304 1278 1281 1307 1281 1318 1310 1300 1307 1241 1314 1326 1298 1318 1330 1365 1357 1382 1282 1430 1349 1394 1401 1294 1312 1313 1365 1377 1370 1367 1376 1319 1331 1411 1461 1390 1458 1416 1429 1402 1381 1461 1416 1426 1473 1433 1389 1499 1477 1469 1477 1449 1453 1463 1449 1486 1449 1465 1395 1449 1408 1500 1460 1456 1475 1424 1429 1386 1491 1452 1489 1520 1486 1381 1472 1422 1434 1428 1435 1347 1386 1349 1416 1408 1413 1391 1322 1329 1336 1330 1383 1325 1404 1431 1395 1368 1279 1384 1359 1264 1272 1292 1257 1245 1364 1240 1330 1222 1357 1332 1340 1309 1276 1278 1269 1280 1318 1379 1295 1284 1338 1299 1255 1290 1303 1281 1328 1320 1285 1333 1347 1335 1253 1374 1363 1378 1386 1325 1356 1336 1328 1364 1356 1320 1365 1319 1324 1306 1358 1346 1301 1350 1342 1387 1330 1308 1308 1326 1357 1344 1284 1369 1342 1371 1310 1258 1307 1296 1319 1316 1320 1268 1299 1348 1263 1277 1267 1277 1291 1359 1311 1289 1331 1330 1259 1353 1300 1320 1261 1279 1334 1329 1313 1260 1346 1375 1292 1320 1270 1345 1224 1304 1278 1324 1244 1297 1319 1302 1287 1357 1232 1257 1253 1234 1307 1363 1327 1261 1302 1356 1329 1295 1224 1268 1367 1307 1291 1284 1297 1297 1301 1336 1307 1331 1331 1286 1388 1313 1269 1313 1244 1326 1284 1294 1290 1246 1343 1297 1339 1271 1324 1267 1278 1275 1240 1316 1270 1303 1273 1298 1257 1337 1313 1251 1226 1250 1266 1236 1264 1224 1312 1273 1339 1282 1270 1289 1236 1273 1328 1309 1370 1271 1321 1302 1278 1298 1276 1317 1270 1277 1273 1253 1264 1312 1280 1289 1320 1332 1281 1322 1252 1252 1300 1286 1369 1327 1294 1294 1326 1275 1253 1299 1347 1330 1245 1263 1306 1283 1302 1266 1309 1250 1303 1292 1259 1335 1313 1304 1230 1306 1266 1191 1281 1243 1273 1321 1256 1301 1264 1275 1286 1302 1369 1288 1369 1340 1296 1216 1296 1301 1311 1237 1313 1309 1300 1275 1297 1216 1248 1286 1328 1248 1299 1314 1243 1200 1253 1263 1251 1234 1335 1283 1261 1216 1294 1262 1239 1232 1335 1202 1364 1276 1304 1293 1330 1249 1235 1228 1236 1293 1261 1322 1293 1261 1247 1302 1290 1271 1261 1185 1229 1213 1228 1291 1296 1284 1237 1258 1329 1287 1274 1287 1336 1269 1275 1232 1381 1278 1263 1222 1296 1273 1279 1252 1277 1290 1269 1253 1225 1251 1279 1367 1352 1346 1290 1301 1342 1300 1280 1303 1281 1274 1228 1253 1241 1262 1265 1295 1289 1331 1280 1273 1296 1262 1304 1291 1306 1253 1338 1316 1286 1301 1259 1271 1229 1319 1251 1332 1313 1188 1286 1276 1333 1297 1298 1295 1297 1274 1256 1245 1260 1280 1333 1238 1251 1279 1259 1295 1325 1242 1315 1259 1263 1265 1200 1329 1282 1274 1254 1318 1285 1278 1289 1257 1294 1294 1274 1230 1271 1303 1301 1304 1282 1285 1331 1292 1274 1263 1338 1274 1257 1239 1290 1260 1278 1339 1232 1296 1254 1220 1243 1306 1253 1340 1268 1288 1243 1226 1350 1318 1214 1233 1294 1321 1257 1323 1277 1351 1302 1250 1250 1222 1324 1216 1272 1290 1235 1274 1290 1258 1265 1292 1375 1334 1291 1222 1297 1279 1206 1282 1315 1295 1266 1263 1352 1263 1289 1208 1246 1325 1244 1286 1305 1284 1306 1272 1262 1279 1345 1225 1217 1223 1252 1310 1291 1269 1281 1250 1286 1270 1299 1332 1282 1304 1372 1283 1355 1298 1269 1284 1250 1341 1283 1341 1323 1310 1274 1285 1310 1234 1265 1320 1283 1307 1375 1256 1273 1307 1306 1300 1293 1287 1325 1267 1239 1289 1268 1265 1297 1281 1265 1346 1292 1286 1255 1297 1244 1269 1337 1259 1277 1278 1274 1236 1285 1328 1279 1339 1300 1271 1298 1234 1259 1329 1286 1297 1325 1306 1238 1269 1283 1303 1298 1314 1364 1244 1292 1293 1338 1258 1324 1323 1298 1310 1322 1306 1345 1322 1310 1345 1348 1294 1399 1327 1372 1360 1291 1348 1317 1333 1380 1341 1355 1352 1381 1352 1360 1354 1338 1439 1346 1365 1360 1384 1357 1353 1319 1394 1419 1393 1382 1379 1323 1364 1348 1372 1370 1364 1349 1437 1350 1294 1372 1295 1331 1364 1361 1313 1357 1372 1393 1334 1330 1368 1397 1354 1369 1378 1273 1374 1376 1330 1357 1352 1395 1398 1376 1440 1427 1442 1336 1357 1383 1381 1381 1384 1353 1353 1393 1353 1377 1416 1448 1392 1456 1462 1283 1358 1368 1341 1400 1306 1313 1343 1402 1326 1293 1368 1333 1339 1369 1268 1403 1315 1290 1323 1357 1277 1281 1304 1312 1321 1345 1413 1312 1367 1343 1331 1319 1341 1368 1288 1405 1294 1320 1346 1301 1356 1293 1338 1318 1329 1283 1293 1300 1315 1327 1273 1396 1342 1264 1360 1294 1313 1330 1297 1269 1272 1340 1341 1322 1318 1359 1367 1370 1346 1382 1334 1336 1319 1305 1368 1373 1412 1442 1331 1321 1351 1398 1418 1385 1392 1420 1438 1424 1428 1389 1416 1388 1464 1357 1432 1364 1384 1395 1391 1370 1370 1367 1310 1406 1398 1365 1324 1370 1310 1312 1330 1351 1344 1298 1335 1332 1370 1368 1378 1424 1337 1325 1264 1342 1359 1344 1311 1338 1323 1295 1332 1342 1366 1417 1314 1349 1371 1274 1319 1303 1362 1287 1385 1312 1351 1296 1392 1391 1400 1364 1306 1326 1328 1426 1310 1343 1408 1340 1410 1416 1337 1306 1423 1397 1356 1360 1392 1399 1379 1453 1330 1376 1383 1389 1393 1413 1418 1419 1476 1446 1428 1416 1454 1496 1465 1427 1415 1432 1482 1468 1534 1524 1493 1472 1511 1451 1543 1526 1538 1532 1610 1526 1606 1563 1546 1609 1593 1563 1623 1541 1633 1628 1641 1640 1682 1706 1700 1691 1664 1745 1712 1816 1797 1680 1698 1649 1748 1648 1727 1715 1774 1751 1669 1760 1704 1652 1658 1681 1646 1643 1659 1640 1595 1694 1631 1622 1539 1570 1635 1616 1590 1577 1487 1544 1549 1509 1518 1504 1450 1489 1525 1515 1443 1403 1462 1412 1408 1453 1501 1419 1401 1398 1378 1453 1410 1445 1357 1427 1381 1437 1393 1343 1380 1368 1419 1318 1340 1375 1364 1311 1352 1300 1451 1345 1376 1384 1345 1297 1374 1413 1409 1386 1431 1370 1384 1416 1441 1476 1416 1394 1397 1388 1381 1433 1442 1469 1467 1428 1511 1388 1406 1514 1426 1410 1504 1479 1444 1413 1450 1416 1487 1454 1403 1448 1373 1435 1421 1477 1501 1444 1481 1388 1457 1410 1409 1404 1420 1376 1369 1371 1416 1361 1439 1432 1422 1451 1402 1354 1336 1345 1376 1336 1409 1331 1340 1328 1406 1310 1389 1344 1405 1378 1383 1382 1351 1476 1365 1386 1337 1410 1451 1399 1380 1369 1385 1380 1327 1352 1406 1348 1382 1452 1396 1421 1347 1349 1372 1392 1353 1375 1387 1368 1408 1340 1341 1355 1329 1299 1368 1368 1385 1434 1372 1349 1357 1430 1381 1372 1448 1291 1355 1347 1339 1405 1405 1428 1335 1389 1397 1340 1344 1270 1367 1320 1434 1271 1328 1406 1311 1319 1306 1325 1408 1361 1402 1356 1348 1379 1399 1374 1271 1326 1278 1352 1335 1386 1347 1299 1395 1314 1341 1357 1316 1299 1305 1412 1333 1272 1298 1300 1338 1309 1297 1290 1287 1330 1342 1346 1378 1304 1304 1346 1290 1338 1379 1324 1314 1260 1307 1278 1275 1321 1272 1293 1340 1365 1254 1343 1308 1298 1327 1327 1311 1313 1312 1402 1338 1331 1357 1337 1332 1367 1333 1283 1269 1320 1241 1343 1331 1288 1237 1271 1319 1243 1293 1309 1349 1364 1264 1320 1262 1262 1336 1315 1367 1369 1275 1337 1299 1327 1315 1322 1283 1325 1306 1357 1290 1320 1300 1267 1273 1322 1258 1315 1293 1270 1280 1308 1324 1294 1347 1312 1331 1324 1325 1308 1313 1271 1314 1352 1273 1291 1255 1282 1262 1283 1369 1291 1246 1278 1298 1261 1306 1361 1291 1298 1216 1335 1255 1322 1317 1354 1375 1296 1269 1324 1290 1287 1332 1288 1351 1272 1331 1316 1298 1267 1292 1262 1283 1280 1299 1362 1365 1302 1340 1277 1367 1276 1296 1302 1323 1275 1266 1293 1219 1292 1267 1360 1305 1336 1276 1278 1286 1335 1298 1344 1325 1245 1270 1348 1367 1268 1301 1352 1355 1321 1352 1300 1314 1304 1272 1281 1337 1391 1265 1324 1260 1312 1268 1372 1242 1331 1307 1355 1352 1366 1247 1336 1308 1274 1261 1356 1279 1289 1296 1350 1272 1329 1276 1315 1232 1324 1306 1282 1273 1322 1353 1300 1296 1342 1236 1317 1295 1277 1318 1306 1301 1258 1296 1324 1328 1268 1305 1345 1363 1265 1292 1269 1329 1270 1278 1305 1328 1273 1284 1335 1272 1349 1328 1291 1292 1259 1311 1312 1302 1256 1415 1290 1288 1300 1327 1289 1280 1320 1360 1348 1357 1330 1257 1300 1331 1338 1286 1287 1346 1268 1344 1323 1249 1281 1287 1250 1304 1258 1334 1302 1318 1312 1311 1290 1320 1268 1264 1265 1324 1294 1349 1315 1255 1333 1290 1266 1277 1361 1396 1302 1276 1298 1301 1324 1272 1333 1323 1249 1243 1247 1307 1341 1288 1328 1310 1304 1307 1310 1309 1275 1318 1308 1380 1319 1345 1239 1267 1347 1350 1363 1305 1301 1352 1398 1325 1284 1318 1272 1323 1327 1377 1381 1279 1304 1310 1362 1381 1376 1339 1286 1264 1305 1321 1397 1262 1338 1373 1379 1352 1320 1267 1285 1308 1328 1342 1359 1381 1301 1305 1296 1351 1351 1355 1285 1317 1359 1399 1374 1390 1298 1363 1294 1320 1314 1344 1303 1382 1341 1338 1416 1289 1314 1356 1338 1348 1345 1401 1355 1335 1316 1348 1301 1403 1336 1356 1378 1378 1374 1346 1308 1391 1344 1354 1369 1390 1356 1315 1301 1312 1265 1315 1334 1368 1342 1315 1314 1390 1320 1343 1342 1302 1349 1273 1306 1289 1336 1322 1298 1341 1285 1261 1283 1286 1268 1286 1283 1345 1305 1311 1255 1343 1322 1271 1284 1363 1302 1296 1284 1379 1327 1273 1241 1321 1261 1351 1328 1331 1296 1280 1245 1367 1368 1264 1281 1314 1292 1285 1354 1369 1391 1362 1347 1304 1297 1294 1268 1374 1319 1330 1331 1364 1236 1315 1252 1293 1347 1281 1278 1315 1343 1268 1314 1346 1350 1321 1367 1318 1312 1382 1336 1335 1263 1340 1333 1289 1334 1272 1325 1334 1304 1297 1322 1316 1320 1284 1326 1358 1301 1324 1282 1343 1295 1327 1294 1286 1233 1309 1307 1261 1270 1335 1304 1280 1262 1285 1313 1261 1262 1361 1302 1261 1294 1291 1315 1256 1363 1292 1259 1321 1311 1316 1328 1275 1280 1273 1318 1354 1263 1317 1288 1362 1322 1303 1344 1334 1342 1287 1312 1377 1331 1296 1363 1288 1371 1343 1310 1311 1361 1318 1300 1314 1304 1346 1304 1355 1312 1342 1368 1375 1331 1369 1392 1346 1328 1326 1345 1411 1313 1422 1367 1389 1320 1359 1356 1410 1319 1387 1335 1389 1334 1393 1349 1366 1370 1360 1345 1398 1419 1420 1379 1423 1364 1439 1443 1466 1407 1447 1416 1479 1438 1412 1354 1428 1429 1413 1575 1424 1422 1529 1511 1549 1552 1517 1521 1496 1558 1561 1607 1541 1598 1633 1567 1582 1570 1654 1573 1584 1675 1670 1570 1695 1560 1635 1686 1598 1570 1632 1622 1667 1564 1568 1600 1682 1614 1595 1644 1594 1597 1612 1563 1582 1604 1619 1524 1569 1569 1484 1578 1576 1530 1491 1581 1471 1574 1588 1442 1451 1485 1487 1542 1422 1470 1495 1514 1383 1463 1400 1380 1461 1402 1433 1493 1396 1388 1435 1347 1366 1461 1385 1358 1395 1411 1434 1366 1384 1401 1363 1388 1335 1442 1344 1376 1370 1349 1333 1374 1399 1372 1388 1330 1280 1321 1432 1326 1343 1428 1374 1298 1272 1312 1393 1434 1390 1334 1379 1339 1450 1330 1319 1387 1415 1347 1372 1383 1357 1371 1354 1451 1298 1385 1435 1459 1403 1388 1432 1429 1492 1532 1495 1395 1426 1447 1468 1466 1423 1464 1464 1481 1476 1432 1417 1444 1467 1457 1474 1423 1435 1380 1496 1446 1398 1375 1422 1382 1420 1401 1485 1378 1399 1420 1476 1464 1411 1453 1372 1409 1381 1403 1430 1324 1332 1381 1327 1314 1449 1384 1411 1352 1367 1468 1369 1405 1375 1424 1410 1364 1362 1399 1341 1347 1440 1345 1323 1409 1376 1366 1387 1416 1386 1363 1359 1381 1368 1311 1310 1375 1310 1401 1325 1384 1433 1349 1416 1357 1315 1449 1355 1327 1391 1373 1344 1395 1349 1315 1337 1364 1379 1437 1358 1413 1395 1340 1333 1308 1409 1334 1325 1346 1323 1416 1422 1382 1356 1290 1366 1403 1309 1326 1405 1363 1329 1351 1364 1331 1428 1384 1326 1341 1370 1314 1366 1355 1287 1340 1273 1387 1371 1325 1343 1404 1376 1405 1343 1364 1283 1318 1325 1245 1358 1383 1248 1348 1293 1310 1310 1342 1349 1277 1331 1327 1377 1321 1272 1312 1352 1309 1315 1266 1307 1390 1289 1265 1283 1351 1380 1270 1327 1348 1242 1356 1299 1376 1347 1376 1300 1314 1379 1361 1294 1317 1299 1349 1336 1313 1342 1265 1275 1381 1242 1286 1260 1257 1367 1310 1241 1304 1316 1352 1279 1266 1369 1296 1308 1366 1306 1309 1304 1360 1249 1309 1350 1291 1331 1325 1288 1274 1312 1286 1313 1302 1399 1270 1320 1253 1348 1330 1365 1347 1300 1374 1288 1315 1283 1288 1347 1325 1331 1354 1366 1290 1321 1274 1323 1304 1344 1366 1347 1338 1330 1300 1334 1345 1393 1274 1329 1318 1280 1327 1281 1313 1323 1341 1426 1266 1322 1295 1286 1318 1290 1261 1310 1346 1296 1323 1322 1329 1324 1339 1332 1358 1319 1334 1324 1364 1348 1386 1343 1264 1338 1295 1374 1283 1273 1335 1326 1344 1319 1300 1338 1293 1350 1229 1246 1273 1296 1320 1319 1315 1276 1267 1266 1256 1290 1253 1279 1342 1282 1341 1300 1357 1279 1312 1290 1338 1336 1337 1297 1344 1291 1366 1342 1299 1331 1303 1306 1304 1361 1355 1329 1279 1328 1327 1379 1284 1323 1306 1400 1287 1292 1330 1310 1428 1295 1285 1351 1320 1296 1284 1321 1359 1316 1336 1324 1268 1283 1311 1311 1325 1325 1305 1279 1290 1277 1334 1311 1360 1369 1306 1310 1316 1328 1305 1370 1373 1312 1241 1290 1371 1385 1340 1314 1379 1356 1275 1323 1301 1338 1358 1290 1295 1291 1334 1276 1304 1280 1296 1347 1296 1383 1267 1330 1251 1331 1333 1294 1390 1363 1355 1295 1306 1303 1292 1291 1310 1300 1388 1308 1309 1219 1360 1296 1341 1335 1292 1350 1298 1291 1351 1342 1348 1343 1340 1378 1314 1345 1340 1355 1306 1338 1328 1280 1352 1296 1342 1331 1389 1312 1344 1290 1318 1399 1279 1356 1307 1396 1356 1373 1331 1329 1303 1319 1290 1319 1332 1359 1344 1327 1384 1382 1338 1343 1332 1271 1344 1291 1398 1351 1417 1333 1295 1378 1388 1371 1398 1404 1335 1375 1320 1409 1392 1375</counts>
			</dataPoints>
		</scan>
	</xrdMeasurement>
</xrdMeasurements>
