<?xml version="1.0"?>
<xrdMeasurements xmlns="http://www.xrdml.com/XRDMeasurement/2.3" xmlns:xsi="http://www.w3.org/2001/XMLSchema-instance" xsi:schemaLocation="http://www.xrdml.com/XRDMeasurement/2.3 http://www.xrdml.com/XRDMeasurement/2.3/XRDMeasurement.xsd" status="Completed" recordIdentifier="{11E58BC8-3231-4AC9-B18D-6B940BB4D5B0}">
	<comment>
		<entry/>
	</comment>
	<sample type="To be analyzed">
		<id>GPSS_Li1p5Co0p5Y0p5Cl4_101825_68f3cc5f028f64128e25b3b1</id>
		<name></name>
		<preparedBy></preparedBy>
	</sample>
	<xrdMeasurement measurementType="Scan" status="Completed" sampleMode="Reflection">
		<usedWavelength intended="K-Alpha 1">
			<kAlpha1 unit="Angstrom">1.5405980</kAlpha1>
			<kAlpha2 unit="Angstrom">1.5444260</kAlpha2>
			<kBeta unit="Angstrom">1.3922500</kBeta>
			<ratioKAlpha2KAlpha1>0.5000</ratioKAlpha2KAlpha1>
		</usedWavelength>
		<incidentBeamPath>
			<radius unit="mm">145.00</radius>
			<xRayTube id="1010048" name="Empyrean Cu LFF HR (9430 033 7310x)">
				<tension unit="kV">40.0</tension>
				<current unit="mA">15.0</current>
				<anodeMaterial>Cu</anodeMaterial>
				<focus type="Line">
					<length unit="mm">12.0</length>
					<width unit="mm">0.4</width>
					<takeOffAngle unit="deg">6.0</takeOffAngle>
				</focus>
			</xRayTube>
			<sollerSlit id="21010002" name="Soller slits 0.04 rad.">
				<opening unit="rad">0.0400</opening>
			</sollerSlit>
			<mask id="22031000" name="Fixed mask 13 mm">
				<width unit="mm">9.00</width>
			</mask>
			<divergenceSlit id="22120001" name="Divergence slit 1°" xsi:type="fixedDivergenceSlitType">
				<distanceToSample unit="mm">50.00</distanceToSample>
				<height unit="mm">1.52</height>
			</divergenceSlit>
		</incidentBeamPath>
		<sampleMovement xsi:type="spinningSampleMovementType">
			<spinnerRevolutionTime unit="seconds">1.0</spinnerRevolutionTime>
		</sampleMovement>
		<diffractedBeamPath>
			<radius unit="mm">145.00</radius>
			<antiScatterSlit id="22090040" name="AS slit 9 mm (PIXcel)" xsi:type="fixedAntiScatterSlitType">
				<height unit="mm">9.00</height>
			</antiScatterSlit>
			<sollerSlit id="21020003" name="Large Soller slits 0.04 rad.">
				<opening unit="rad">0.0400</opening>
			</sollerSlit>
			<filter id="20030001" name="Large beta-filter Nickel">
				<material>Ni</material>
				<thickness unit="mm">0.020</thickness>
			</filter>
			<detector id="7010019" name="PIXcel1D-Medipix3 detector" xsi:type="rtmsDetectorType">
				<phd unit="keV">
					<lowerLevel>4.02</lowerLevel>
					<upperLevel>11.27</upperLevel>
				</phd>
				<mode>Scanning</mode>
				<activeLength unit="deg">5.542</activeLength>
			</detector>
		</diffractedBeamPath>
		<scan appendNumber="0" mode="Continuous" scanAxis="Gonio" status="Completed">
			<header>
				<startTimeStamp>2025-10-21T10:06:35-07:00</startTimeStamp>
				<endTimeStamp>2025-10-21T10:14:42-07:00</endTimeStamp>
				<author>
					<name>AutomatedUser</name>
				</author>
				<source>
					<applicationSoftware version="1.7b (136)">PANalytical Aeris Instrument Suite</applicationSoftware>
					<instrumentControlSoftware version="3.2.00000000 20240306">AERIS</instrumentControlSoftware>
					<instrumentID>950485</instrumentID>
				</source>
			</header>
			<dataPoints>
				<positions axis="2Theta" unit="deg">
					<startPosition>10.00943322</startPosition>
					<endPosition>99.99442286</endPosition>
				</positions>
				<positions axis="Omega" unit="deg">
					<startPosition>5.00471661</startPosition>
					<endPosition>49.99721143</endPosition>
				</positions>
				<commonCountingTime unit="seconds">12.495</commonCountingTime>
				<counts unit="counts">3621 3457 3466 3506 3506 3541 3463 3386 3471 3432 3480 3580 3464 3491 3405 3532 3505 3421 3556 3460 3363 3404 3467 3398 3436 3427 3339 3392 3477 3417 3507 3462 3472 3342 3571 3512 3495 3479 3442 3434 3396 3435 3343 3621 3390 3532 3463 3422 3517 3520 3536 3513 3418 3303 3385 3542 3487 3406 3467 3484 3360 3502 3557 3448 3509 3431 3433 3526 3518 3433 3496 3509 3463 3489 3482 3437 3551 3371 3475 3439 3445 3470 3490 3422 3479 3517 3435 3438 3440 3516 3555 3437 3551 3427 3463 3418 3496 3424 3547 3421 3478 3400 3364 3495 3517 3484 3503 3517 3435 3458 3462 3504 3497 3426 3492 3455 3522 3408 3386 3438 3443 3455 3467 3481 3475 3505 3460 3561 3479 3529 3485 3423 3478 3387 3347 3497 3385 3468 3460 3451 3399 3321 3471 3488 3356 3439 3431 3529 3441 3488 3570 3505 3511 3551 3490 3491 3413 3396 3521 3414 3432 3406 3588 3436 3473 3468 3463 3528 3517 3439 3443 3510 3495 3445 3548 3431 3528 3473 3474 3406 3474 3484 3422 3573 3464 3578 3496 3514 3423 3516 3382 3422 3571 3445 3519 3449 3480 3388 3382 3467 3480 3435 3399 3395 3477 3415 3392 3421 3392 3406 3420 3508 3519 3466 3373 3558 3526 3375 3358 3455 3653 3456 3552 3492 3471 3429 3515 3458 3484 3398 3437 3483 3371 3452 3492 3341 3484 3506 3343 3441 3519 3557 3470 3441 3454 3508 3495 3501 3427 3365 3416 3474 3423 3402 3415 3560 3441 3476 3374 3494 3463 3487 3423 3574 3453 3417 3360 3420 3388 3497 3564 3446 3489 3444 3552 3543 3587 3555 3694 3557 3457 3561 3492 3566 3591 3578 3571 3476 3531 3595 3590 3574 3487 3694 3647 3607 3619 3539 3661 3529 3582 3563 3630 3717 3561 3648 3685 3640 3618 3643 3597 3609 3656 3727 3625 3606 3718 3673 3682 3813 3757 3749 3789 3744 3821 3736 3792 3821 3854 3831 3690 3712 3884 3846 3807 3798 3807 3778 3675 3878 3746 3924 3867 4042 3925 3815 3832 3910 3860 3953 3924 3874 4002 3877 3961 3979 3884 3942 3855 3952 3863 3944 3989 3855 3987 4038 4026 3959 4118 4078 4041 4097 4032 4029 3898 4029 4000 4034 4059 4072 4172 4101 4201 4061 4033 4162 4171 4112 4181 4183 4111 4178 4223 4234 4140 4216 4254 4203 4187 4170 4139 4172 4235 4196 4311 4047 4370 4213 4198 4295 4268 4272 4152 4158 4232 4180 4366 4390 4227 4416 4279 4339 4334 4307 4333 4411 4370 4301 4416 4391 4353 4317 4372 4485 4510 4444 4558 4424 4507 4495 4587 4614 4548 4374 4648 4573 4504 4670 4706 4597 4678 4604 4553 4677 4662 4752 4677 4632 4839 4595 4779 4825 4893 4883 5018 4908 5054 5000 5150 5132 5291 5249 5352 5503 5359 5591 5565 5641 5522 5556 5703 5735 5796 5798 5795 5681 5820 5788 5983 5929 5986 6062 6145 6452 6393 6624 6909 6962 7220 7502 7601 7715 8039 8027 8195 7947 7749 7481 7362 7031 6857 6739 6407 6220 6070 6113 5912 5809 5815 5496 5679 5542 5688 5515 5389 5547 5323 5448 5413 5365 5323 5354 5239 5173 5043 5267 5134 5106 5095 5077 5025 5013 5056 5068 5143 5230 5371 5318 5293 5512 5496 5457 5457 5513 5366 5420 5333 5066 5102 4955 4816 4875 4682 4701 4686 4591 4561 4492 4344 4436 4434 4423 4285 4222 4206 4309 4347 4191 4260 4194 4193 4293 4298 4349 4363 4334 4270 4138 4222 4146 4100 4205 4122 4220 4169 4186 4155 4001 4021 4248 4137 3979 4112 4103 4028 4092 4124 4158 4172 4107 4184 4162 4049 4111 4169 4103 4161 4054 4130 4012 4021 4052 4185 4155 4143 4117 4046 4103 4011 4152 4147 4180 4209 4026 4081 4237 4168 4184 4151 4066 4078 4089 4201 4064 4067 4016 4140 4067 4158 3992 4075 4114 4229 4051 4136 4169 4110 4195 4162 4274 4162 4262 4193 4183 4234 4230 4261 4246 4190 4295 4199 4177 4114 4143 4088 4099 4239 4220 4235 4334 4247 4137 4297 4345 4348 4326 4296 4330 4360 4283 4349 4442 4269 4268 4355 4338 4300 4251 4330 4313 4237 4263 4208 4189 4251 4246 4210 4255 4235 4260 4252 4303 4354 4244 4275 4202 4265 4261 4231 4321 4295 4221 4238 4309 4201 4243 4342 4300 4362 4487 4241 4288 4297 4291 4159 4275 4123 4201 4198 4304 4219 4136 4215 4166 4224 4239 4125 4087 4016 4052 4165 4204 4240 4001 4268 4088 4120 4092 4200 4106 4054 4015 4015 4029 3941 3925 3905 4039 3940 3904 3924 3952 3876 3968 3922 3757 3876 3700 3778 3847 3750 3865 3761 3766 3843 3828 3693 3706 3963 3872 3816 3745 3773 3746 3721 3880 3733 3643 3772 3727 3732 3837 3782 3651 3782 3825 3731 3791 3698 3754 3757 3707 3759 3755 3762 3735 3735 3780 3757 3783 3734 3676 3732 3717 3768 3773 3694 3788 3621 3793 3752 3653 3669 3734 3729 3830 3737 3757 3845 3714 3721 3758 3692 3827 3835 3769 3706 3664 3862 3715 3729 3729 3739 3680 3722 3680 3741 3738 3762 3629 3571 3634 3642 3691 3673 3681 3598 3640 3673 3629 3589 3671 3691 3681 3626 3589 3664 3663 3606 3608 3564 3565 3676 3621 3618 3542 3643 3633 3694 3643 3548 3621 3645 3605 3583 3647 3529 3716 3646 3502 3520 3704 3597 3617 3613 3457 3605 3641 3605 3438 3499 3492 3623 3566 3558 3496 3577 3592 3562 3601 3490 3591 3707 3520 3597 3584 3580 3626 3521 3651 3551 3619 3541 3585 3649 3551 3539 3612 3568 3561 3438 3593 3613 3466 3537 3557 3540 3562 3617 3564 3528 3510 3446 3446 3523 3596 3600 3538 3487 3467 3592 3541 3426 3575 3546 3518 3473 3538 3449 3594 3525 3600 3556 3465 3585 3506 3590 3488 3464 3466 3491 3616 3502 3472 3535 3467 3433 3542 3534 3599 3438 3525 3568 3535 3623 3562 3454 3499 3543 3604 3419 3573 3469 3547 3467 3645 3546 3670 3523 3616 3490 3546 3503 3577 3543 3483 3604 3467 3621 3632 3428 3510 3587 3553 3546 3656 3547 3597 3441 3701 3541 3608 3478 3584 3503 3587 3580 3640 3659 3524 3412 3543 3570 3613 3511 3551 3553 3485 3680 3567 3522 3579 3492 3588 3679 3577 3643 3654 3639 3710 3594 3619 3575 3623 3480 3691 3530 3688 3646 3485 3599 3719 3712 3602 3527 3562 3482 3611 3635 3724 3544 3675 3586 3724 3648 3594 3580 3562 3608 3595 3555 3539 3672 3629 3601 3590 3690 3573 3629 3625 3545 3531 3496 3629 3587 3606 3533 3563 3568 3538 3568 3469 3627 3552 3507 3561 3600 3668 3510 3577 3523 3484 3550 3694 3538 3537 3516 3451 3561 3609 3622 3528 3583 3626 3489 3619 3603 3640 3475 3628 3557 3505 3577 3404 3435 3481 3548 3535 3646 3713 3640 3525 3610 3700 3551 3670 3563 3658 3616 3604 3699 3756 3691 3600 3707 3634 3538 3598 3662 3645 3520 3617 3508 3679 3721 3702 3593 3649 3615 3701 3573 3688 3551 3760 3712 3623 3651 3553 3544 3647 3597 3634 3543 3532 3600 3488 3579 3575 3485 3540 3478 3413 3493 3478 3542 3320 3425 3429 3400 3425 3378 3473 3475 3524 3306 3534 3333 3324 3410 3473 3297 3274 3317 3362 3359 3331 3257 3407 3313 3380 3380 3375 3300 3315 3369 3355 3354 3350 3230 3385 3230 3257 3259 3231 3231 3357 3235 3269 3295 3213 3376 3353 3219 3399 3288 3315 3261 3337 3379 3206 3275 3234 3338 3174 3171 3183 3220 3235 3212 3233 3121 3217 3069 3134 3168 3144 3119 3197 3141 3239 3196 3049 3048 2999 3007 3103 2920 3168 3030 2898 3101 3060 3192 3095 2977 3077 3005 3083 2929 3093 3114 3056 3111 2920 3026 3040 3024 2992 3021 3089 2978 2965 3073 2957 2982 3036 3036 3095 3016 3016 3003 3026 3127 3170 3019 3146 2936 2929 2969 3091 2993 3036 3070 3061 2997 3045 3075 3226 2995 2987 3238 3081 3027 3028 3071 3108 2992 3124 2966 3084 3044 3036 3076 3027 3006 3009 3079 3042 3064 3087 3057 3050 3078 3108 3091 3037 3151 3018 3053 3128 2934 3024 3051 2963 2938 3030 2966 3069 2953 2993 2983 2946 2981 2926 2990 3000 3024 3002 2996 3058 2919 2973 3048 3073 2983 3093 3043 2949 3026 3052 2985 3051 2914 2995 2951 3117 3134 3082 3041 3169 2958 2990 2932 2993 3031 3083 3070 2950 3107 3026 3015 3022 2946 3076 3031 2981 3090 3026 2946 3129 3067 2965 3005 3064 3062 2970 2942 2934 3039 2971 2976 3004 2991 3022 3012 3035 2996 2991 2936 3019 2928 3012 2990 3032 3001 2965 2991 3049 2954 2896 3005 3012 2969 2926 2974 2897 2954 2934 3065 2973 3027 2930 3055 2936 3082 3100 2916 2932 3027 2936 2946 2945 2953 3028 2978 2898 3005 2950 2947 3022 3065 3056 2991 3022 2961 2961 3047 2923 3020 2957 2985 3023 2956 3182 3034 3017 3018 3021 3123 3047 3045 3027 3009 3034 3096 3196 3043 2977 3044 3001 3093 2986 3118 2997 3082 3032 3009 2965 2892 2963 3014 2947 2967 2954 2932 3030 2982 2951 2962 3046 3094 2938 2950 2924 2968 2968 2996 2942 3020 2998 3008 2911 2932 2999 2961 2846 2930 2842 2846 2921 2912 2944 2957 2895 2942 2946 2811 2866 2898 2944 2919 2836 2941 2857 2754 2947 2842 2838 2932 2878 2806 2847 2858 2911 2819 2893 2965 2806 2810 2780 2966 2881 2830 2834 2847 2876 2792 2769 2729 2843 2843 2724 2827 2826 2773 2850 2748 2819 2826 2747 2871 2743 2958 2867 2881 2853 2820 2841 2792 2807 2770 2814 2722 2719 2807 2952 2798 2760 2726 2789 2742 2769 2791 2859 2787 2792 2815 2785 2823 2769 2754 2759 2810 2706 2760 2857 2722 2797 2643 2797 2764 2782 2721 2756 2740 2772 2747 2838 2848 2873 2736 2789 2835 2811 2723 2665 2599 2760 2644 2703 2643 2697 2685 2764 2662 2738 2827 2697 2734 2774 2718 2710 2665 2773 2792 2678 2790 2670 2698 2803 2752 2792 2838 2758 2734 2780 2710 2798 2760 2803 2740 2749 2802 2768 2768 2763 2748 2831 2714 2717 2740 2725 2750 2723 2633 2779 2805 2746 2806 2764 2768 2786 2748 2737 2806 2764 2851 2740 2749 2810 2817 2732 2859 2764 2735 2792 2811 2774 2829 2791 2789 2791 2916 2690 2841 2818 2784 2732 2761 2728 2868 2880 2888 2840 2745 2766 2760 2777 2788 2753 2877 2820 2760 2797 2775 2783 2920 2739 2770 2821 2745 2814 2758 2886 2855 2863 2974 2979 2984 3113 3027 3063 3124 3082 3223 3235 3261 3149 3290 3285 3221 3303 3356 3244 3415 3309 3331 3437 3205 3235 3205 3297 3172 3258 3281 3313 3221 3236 3196 3185 3212 3048 3115 3158 3186 3171 3148 3190 3038 3051 2953 3076 3043 2879 2944 2934 2905 2837 2826 2818 2685 2791 2700 2673 2755 2680 2725 2715 2653 2710 2655 2853 2814 2770 2637 2663 2723 2672 2709 2663 2685 2644 2666 2613 2641 2746 2799 2668 2667 2712 2700 2683 2641 2655 2612 2609 2686 2670 2660 2690 2672 2656 2643 2550 2692 2627 2593 2546 2495 2630 2479 2522 2566 2542 2588 2544 2461 2434 2501 2544 2519 2468 2574 2479 2639 2564 2477 2486 2547 2534 2529 2657 2497 2523 2590 2416 2533 2493 2641 2623 2557 2575 2537 2533 2538 2519 2510 2589 2550 2667 2675 2685 2547 2545 2680 2509 2608 2685 2622 2572 2724 2624 2578 2702 2674 2645 2703 2769 2824 2945 2994 2930 3121 3260 3298 3502 3660 3805 4034 4217 4386 4756 5107 5411 5679 5872 6099 6289 6645 6439 6540 6724 6548 6731 6317 6125 6119 5855 5830 5650 5585 5505 5174 5103 5064 5147 5149 5300 5374 5428 5491 5228 5379 5110 5124 4764 4814 4632 4543 4295 4265 3909 3700 3591 3334 3240 2993 3043 2959 2899 2783 2663 2816 2790 2742 2864 2811 2813 2828 2783 2830 2913 2866 2857 2874 2940 2889 2856 2713 2801 2864 2770 2796 2699 2663 2666 2759 2709 2673 2739 2671 2724 2651 2654 2595 2735 2719 2578 2594 2684 2666 2566 2503 2538 2517 2512 2513 2379 2444 2364 2443 2468 2366 2355 2351 2381 2414 2390 2317 2380 2212 2430 2379 2352 2397 2360 2281 2335 2312 2332 2302 2382 2245 2245 2287 2354 2263 2341 2358 2361 2383 2375 2330 2297 2288 2321 2353 2376 2375 2275 2288 2253 2280 2322 2271 2217 2323 2302 2309 2250 2309 2309 2342 2253 2335 2401 2301 2256 2270 2325 2303 2391 2253 2309 2263 2264 2262 2270 2277 2310 2274 2351 2320 2359 2283 2395 2219 2334 2322 2263 2337 2324 2307 2267 2386 2228 2310 2451 2245 2326 2243 2415 2304 2238 2323 2393 2251 2329 2384 2400 2350 2312 2337 2280 2379 2280 2386 2291 2417 2462 2567 2414 2502 2504 2553 2718 2720 2833 2876 2938 3103 3034 3044 3186 3157 3261 3182 3347 3258 3231 3276 3263 3243 3251 3171 3034 3139 2999 3035 3047 2960 3011 3002 2968 2933 2965 2962 2897 2935 2804 2853 2844 2787 2696 2753 2643 2700 2620 2557 2460 2552 2462 2508 2396 2364 2411 2349 2327 2430 2311 2303 2402 2339 2349 2359 2271 2367 2235 2406 2439 2289 2362 2247 2397 2380 2434 2257 2343 2362 2344 2351 2378 2438 2335 2421 2366 2359 2424 2427 2446 2476 2493 2429 2422 2464 2448 2441 2572 2475 2447 2407 2470 2498 2523 2502 2513 2491 2452 2533 2572 2532 2530 2565 2666 2654 2673 2666 2566 2772 2731 2682 2743 2790 2793 2694 2701 2723 2780 2796 2735 2708 2634 2773 2653 2661 2758 2676 2649 2736 2717 2736 2939 2921 2961 2909 2711 3058 3018 3103 2898 3012 2872 2847 2817 2906 2925 2868 2832 2838 2770 2737 2732 2929 2747 2773 2677 2676 2734 2724 2623 2697 2749 2784 2769 2726 2766 2674 2702 2718 2766 2803 2887 2834 2863 2897 3001 2963 3032 3028 3110 3061 3165 3114 3265 3286 3471 3450 3496 3412 3297 3573 3438 3594 3481 3393 3510 3370 3376 3263 3374 3314 3214 3146 3241 3152 3127 3056 3113 3150 2939 2940 3027 2897 2907 2829 2856 2817 2813 2810 2747 2788 2766 2698 2729 2623 2617 2490 2593 2661 2577 2570 2521 2490 2575 2429 2466 2521 2448 2493 2480 2428 2481 2360 2367 2327 2377 2360 2399 2348 2365 2385 2427 2419 2411 2277 2417 2392 2294 2361 2322 2354 2414 2302 2387 2378 2368 2372 2334 2388 2398 2408 2434 2394 2390 2353 2350 2343 2301 2242 2297 2310 2285 2306 2397 2298 2318 2269 2305 2247 2428 2326 2289 2289 2240 2236 2305 2249 2270 2261 2308 2247 2274 2301 2234 2198 2209 2210 2254 2227 2280 2297 2236 2260 2232 2173 2280 2214 2126 2254 2173 2150 2151 2219 2289 2237 2218 2267 2115 2218 2170 2235 2150 2192 2165 2227 2171 2280 2146 2263 2197 2295 2280 2223 2240 2313 2246 2259 2135 2213 2250 2094 2328 2202 2198 2176 2173 2202 2261 2203 2200 2201 2191 2169 2147 2158 2300 2201 2281 2168 2192 2127 2239 2185 2184 2156 2315 2272 2240 2230 2249 2254 2201 2189 2200 2184 2123 2208 2150 2235 2227 2225 2087 2127 2237 2174 2221 2193 2225 2099 2161 2207 2154 2215 2184 2202 2163 2238 2192 2090 2188 2213 2262 2162 2179 2199 2132 2176 2149 2158 2153 2259 2139 2162 2244 2171 2252 2248 2168 2152 2240 2192 2223 2172 2132 2180 2074 2113 2149 2266 2159 2235 2297 2214 2203 2178 2163 2274 2123 2181 2095 2286 2178 2200 2276 2243 2189 2262 2244 2101 2326 2218 2144 2212 2175 2216 2155 2201 2190 2250 2299 2176 2154 2167 2213 2276 2148 2122 2272 2234 2138 2185 2171 2135 2140 2255 2276 2277 2279 2159 2170 2227 2187 2287 2228 2351 2223 2244 2342 2271 2294 2221 2262 2310 2216 2338 2182 2257 2240 2213 2262 2232 2284 2158 2274 2305 2304 2373 2182 2161 2161 2192 2278 2169 2280 2165 2178 2215 2147 2175 2220 2239 2220 2119 2118 2204 2162 2107 2130 2213 2123 2208 2126 2134 2147 2186 2253 2193 2181 2181 2151 2162 2139 2105 2087 2171 2149 2154 2147 2140 2192 2167 2149 2136 2171 2139 2120 2137 2070 2241 2112 2094 2169 2175 2139 2184 2192 2082 2144 2163 2111 2148 2163 2151 2105 2137 2146 2180 2185 2157 2143 2210 2105 2084 2140 2091 2232 2152 2180 2092 2149 2208 2178 2116 2177 2147 2125 2010 2207 2065 2161 2171 2101 2091 2135 2131 2178 2119 2167 2168 2138 2138 2170 2225 2134 2113 2163 2168 2157 2160 2165 2199 2188 2185 2246 2180 2161 2307 2281 2179 2194 2331 2209 2358 2420 2303 2355 2468 2541 2548 2611 2630 2770 2905 3029 3139 3429 3602 3818 3958 4158 4341 4463 4780 4629 4811 4865 4977 4805 4855 4703 4868 4702 4540 4478 4357 4314 4236 4147 4218 4016 4088 3929 4040 3838 3856 3824 3778 3705 3646 3636 3625 3425 3374 3216 3173 3042 2932 2921 2867 2807 2854 2637 2613 2511 2368 2425 2373 2370 2369 2322 2192 2235 2312 2189 2219 2135 2195 2126 2196 2213 2180 2108 2104 2169 2207 2144 2135 2074 2090 2174 2122 2193 2159 2120 2136 2081 2029 2081 2066 2089 2090 2203 2069 2158 2071 2110 2133 2181 2075 2071 2185 2054 2183 2147 2185 2131 2177 2199 2088 2155 2074 2157 2116 2069 2157 2156 1984 2137 2159 2167 2131 2057 2110 2124 2073 2102 2024 2133 2082 2095 2062 2126 2041 2119 2112 2157 2185 2090 2033 2091 2112 2027 2087 2102 2068 2109 2094 2105 2067 2101 2155 2083 2129 2199 2191 2139 2125 2123 2174 2189 2141 2120 2089 2119 2183 2162 2175 2214 2201 2243 2258 2290 2376 2237 2293 2397 2400 2496 2518 2544 2506 2535 2553 2462 2551 2476 2475 2438 2565 2398 2410 2435 2551 2269 2443 2308 2276 2379 2383 2384 2255 2485 2340 2368 2294 2267 2194 2280 2276 2296 2158 2200 2232 2164 2157 2212 2114 2121 2148 2140 2171 2147 2116 2122 2124 2093 2141 2080 2112 2147 2196 2118 2188 2144 2158 2150 2168 2141 2163 2186 2133 2206 2224 2169 2267 2177 2245 2186 2203 2108 2208 2109 2139 2179 2106 2066 2164 2127 2138 2118 2205 2208 2106 2072 2115 2098 2224 2031 2099 2141 2234 2230 2164 2183 2080 2138 2174 2199 2085 2209 2072 2083 2105 2181 2115 2175 2230 2191 2191 2067 2192 2124 2160 2075 2239 2068 2203 2180 2203 2297 2223 2250 2193 2251 2326 2350 2340 2213 2300 2369 2401 2391 2394 2426 2420 2321 2327 2416 2286 2387 2277 2280 2391 2424 2384 2248 2282 2210 2253 2314 2261 2241 2206 2236 2163 2209 2144 2232 2195 2212 2209 2210 2250 2199 2195 2128 2119 2076 2089 2010 2106 2022 2054 1999 2110 2121 2029 2054 2009 2132 2002 2092 2152 2080 2067 2135 2122 1994 2164 2072 2193 1992 2161 2068 2112 2033 2033 2048 2076 2096 2011 2092 2099 2026 1990 2084 2062 2084 2013 2136 2061 2043 2014 2081 2100 2130 2079 2082 2197 2041 2041 2063 2124 2123 2017 2056 2038 2083 2132 2034 1997 2087 2061 2038 2038 2041 2097 1968 2097 2066 2025 2064 2122 2083 2052 2143 2032 2067 2184 2006 2043 2127 2113 2091 2094 2097 2145 2098 2069 2009 2066 2080 2036 2118 2026 2080 2098 2090 2060 2122 2057 2075 2008 2036 2149 2071 2113 2077 2017 2031 2059 2069 2187 2031 2093 2138 2066 2007 2087 2090 1952 2153 1997 2070 2160 2142 2033 2116 2144 2151 2045 2121 2106 2091 2048 2087 2128 2142 2139 2174 2168 2145 2128 2124 2199 2179 2172 2066 2160 2078 2137 2103 2126 2132 2129 2049 2111 2120 2098 2153 2132 2073 2173 2146 2057 2072 2107 2188 2105 2125 2115 2081 2073 2084 2091 2061 2047 2220 2108 2158 2112 2066 2096 2007 2012 2025 2112 2089 1992 2091 2080 2121 2083 2069 2037 2008 2046 2058 2089 2043 2106 2059 2095 2024 2147 2071 2091 2127 2016 2122 2227 2170 2123 2135 2170 2201 2150 2181 2198 2145 2182 2217 2200 2222 2193 2213 2219 2268 2245 2256 2201 2182 2138 2219 2071 2211 2170 2195 2186 2112 2091 2112 2120 2086 2125 2187 2166 2107 2090 2068 2100 2071 2216 2086 2058 2128 2030 2098 2117 2008 2099 2118 2076 2002 2058 2023 2053 1996 2024 2056 1940 2038 2005 1980 2062 1967 1952 2002 2068 2079 1951 1976 1982 1966 2017 2043 2019 2036 2060 2031 1958 1965 1991 2076 2034 2037 1912 1990 2051 2008 1983 2082 1969 2087 2018 2030 1959 2044 2097 1999 2053 1969 2085 2035 2091 1947 2009 2025 2003 2111 2117 2105 2088 2078 2132 2102 2089 2044 2112 2111 2060 2029 2133 2107 2137 2118 2197 2171 2162 2255 2143 2094 2165 2158 2171 2072 2173 2225 2185 2195 2138 2157 2084 2166 2112 2113 2176 2154 2082 2255 2228 2134 2151 2163 2193 2102 2202 2107 2216 2231 2168 2281 2205 2304 2346 2413 2468 2451 2664 2691 2942 2989 2985 3253 3327 3331 3488 3408 3361 3501 3451 3379 3478 3551 3583 3481 3427 3382 3248 3325 3286 3230 3290 3193 3056 3053 3054 3074 3071 3008 3069 2902 2814 2766 2723 2662 2454 2485 2530 2417 2391 2509 2438 2379 2412 2327 2259 2246 2264 2185 2173 2063 2134 2117 2080 2020 2066 2106 2047 2077 2155 2096 2123 2071 2163 2064 2106 2091 2059 2050 2039 2106 2049 2094 2112 2089 2155 2012 2035 2018 2014 2021 2046 2055 2086 1967 2066 1991 1974 2032 2051 2066 2093 2033 2042 2057 1942 2024 2017 2086 2123 2077 2077 2114 2058 2037 2036 2036 1991 2108 1998 2168 2030 2035 2029 2077 1980 1993 1969 2069 1966 2043 2032 2055 1966 2065 2070 2123 2147 2091 2111 2058 2037 2115 2016 2015 2105 2053 2057 2080 2220 2114 2147 2189 2261 2196 2196 2196 2236 2228 2232 2300 2343 2272 2300 2340 2347 2359 2278 2247 2301 2261 2248 2186 2311 2262 2328 2257 2209 2195 2313 2175 2203 2201 2252 2219 2122 2135 2260 2187 2149 2099 2272 2149 2217 2119 2164 2086 2131 2213 2105 2156 2195 2186 2069 2179 2172 2161 2101 2154 2164 2154 2115 2083 2125 2148 2179 2152 2147 2112 2096 2052 2162 2142 2199 2144 2183 2162 2080 2136 2167 2112 2095 2195 2182 2064 2094 2147 2081 2139 2091 2198 2133 2147 2194 2257 2247 2210 2273 2330 2379 2301 2384 2387 2407 2422 2498 2510 2683 2681 2685 2787 2693 2817 2752 2706 2866 2809 2802 2753 2757 2754 2778 2755 2616 2795 2809 2774 2616 2670 2577 2578 2639 2574 2547 2546 2425 2413 2432 2459 2528 2341 2397 2359 2328 2410 2325 2400 2320 2296 2321 2264 2274 2286 2330 2196 2270 2305 2210 2220 2285 2154 2113 2182 2253 2232 2199 2158 2136 2158 2227 2165 2237 2244 2161 2112 2214 2156 2160 2215 2126 2165 2141 2212 2123 2115 2248 2173 2048 2084 2236 2120 2102 2089 2169 2198 2139 2142 2180 2130 2105 2157 2058 2180 2087 2024 2127 2084 2171 1995 2064 2120 2122 2118 2151 2072 2168 2148 2176 2071 2047 2081 2093 2081 2054 2044 2057 2074 2131 2250 2290 2173 2231 2261 2302 2254 2339 2317 2420 2373 2480 2384 2411 2457 2391 2473 2341 2353 2369 2319 2406 2249 2407 2319 2284 2430 2330 2267 2340 2301 2154 2209 2256 2257 2238 2146 2169 2141 2122 2168 2137 2156 2159 2127 2015 2086 2157 2095 2019 2038 1989 2010 1947 2089 2115 2104 2114 2042 2116 1925 2076 2096 2131 2020 2044 2079 2103 2100 2060 2082 2053 2134 2190 2150 2190 2224 2291 2341 2395 2433 2411 2364 2471 2528 2613 2623 2630 2554 2697 2673 2592 2691 2779 2623 2625 2684 2554 2600 2550 2567 2542 2516 2578 2604 2625 2512 2629 2531 2551 2494 2544 2430 2438 2457 2358 2383 2292 2335 2351 2355 2277 2324 2307 2248 2282 2288 2235 2201 2256 2163 2192 2175 2134 2101 2174 2056 2228 2059 2178 2028 2118 2068 2116 2103 1968 1928 1972 2020 2021 1866 2060 2017 2015 2013 2038 2021 1995 2084 2046 1962 1937 1952 1915 1999 1938 1999 1975 1902 1970 1957 1897 1916 1925 1941 1886 2096 1910 1895 1963 1980 1964 1921 2004 2015 1940 1940 1859 1934 1937 1940 1925 1956 1978 1916 1992 1957 1869 1988 1979 1982 1980 1979 1891 1884 1973 1969 1934 1929 1940 1924 1909 1974 1999 1925 1979 1915 1904 2000 2029 1926 1965 1955 1935 2047 1851 1972 1905 1952 1983 1941 2019 1887 1935 1881 1961 2049 2002 1982 1904 1929 1857 1938 1902 1923 1889 1892 1961 1884 1902 1940 1976 1904 1895 1924 1866 1969 1928 1972 2019 2024 1954 2047 1972 1958 1874 1976 1855 1890 1937 1879 1975 1950 1969 1867 2047 1971 1944 1887 1998 2048 1985 1999 1910 1928 1937 1999 1912 2005 2009 1909 1887 1978 1934 1958 1967 1964 1967 1989 1885 1993 1970 1855 2014 1977 1932 1944 1914 1906 1847 1930 1948 1927 1913 1912 1847 1876 1882 1899 1942 1919 1932 2001 1943 1969 1955 1926 1941 1909 2007 1951 2049 1958 1903 1862 1963 1885 1889 1940 1900 1919 1937 1962 1873 1992 1932 1878 1979 1870 1912 1907 1923 1948 1981 1938 1927 1984 1885 1964 1922 1984 1861 1968 2075 1948 1886 1906 1917 1998 1918 1983 1988 1987 1978 1971 1896 1928 1966 1898 1996 1986 1971 1967 2019 1959 1978 1919 2011 1993 1924 1966 1905 1946 1887 2001 1908 2013 1895 1923 1992 1972 1967 1863 1987 2005 1987 1947 1989 1965 2037 1914 1938 1982 1909 1874 1996 2019 1978 1856 1941 2062 1913 1977 1937 1954 1902 1877 1913 1901 1969 1930 1925 1920 1836 2060 1911 1987 1881 1970 1869 1961 1918 1993 1981 1937 1975 1921 1991 1869 1967 1952 1912 1882 1922 1927 1918 1892 1944 1954 1999 1970 1873 1941 1893 1915 1973 1945 1972 1865 1903 1919 1894 1922 1926 1907 1916 1947 1908 1951 2002 1932 1903 1871 1949 1944 2019 1998 1901 1968 2043 2081 2113 2130 2060 2057 2036 2044 2027 2020 2049 2073 2044 2096 1995 2020 2040 2098 2026 2067 2056 2079 1960 2085 1941 2100 1945 1973 2039 2110 2031 2055 1951 1870 2012 2033 1945 1952 1985 1881 1966 1973 1866 1918 1867 1967 1941 1951 1930 1905 1883 1945 2001 1926 1911 1909 1881 1939 1895 1985 1940 1942 1945 1938 1947 2028 1929 1955 1856 1909 1948 1878 1954 1991 1929 1907 1870 1920 1895 1976 1963 1954 2003 1988 2008 1976 2069 2023 1977 1953 2111 2036 2019 1986 2060 2121 2113 2214 2196 2331 2197 2256 2286 2314 2370 2330 2392 2344 2318 2286 2332 2332 2299 2277 2235 2219 2293 2263 2258 2277 2280 2194 2282 2246 2335 2261 2198 2181 2175 2195 2182 2116 2129 2158 2185 2106 2168 2219 2125 2226 2002 2030 2181 2054 2101 2002 1989 2090 2002 1951 2046 1966 2016 2090 2018 1976 1986 1993 1983 2000 2011 1965 2039 1924 1952 1973 1955 1968 2010 2050 1982 1864 1942 1951 1962 1942 2043 1965 1965 2008 1963 1957 1863 1998 2055 1960 1989 1953 1949 1991 1961 1941 1988 1862 1948 2022 1938 1964 1940 1920 1970 2016 2059 1982 1958 2037 2015 1933 1955 1979 1974 1944 2007 2063 2051 1979 2026 2076 2015 1985 1937 2066 1937 1966 1935 1977 1956 1979 2007 1923 2032 1950 1957 1974 1966 1937 1980 1965 2010 1948 2005 1909 1994 1991 2032 1906 1946 1939 1887 1980 1951 1931 1924 1877 2023 1991 1889 1950 1940 1936 1857 1890 1904 2003 1912 1988 1922 1950 1849 1967 1945 1902 1869 1856 1936 2009 2011 1917 1905 1891 1968 1913 1992 1863 2005 1926 1943 1839 1941 1929 1895 1921 1906 2032 1830 1941 1966 1856 1892 1953 1954 1896 1990 1982 2035 1942 1942 1963 2030 2012 2043 2169 2139 2121 2077 2094 2134 2190 2069 2197 2084 2192 2071 2177 2149 2128 2146 2117 2082 2082 2112 2101 2023 2123 2119 2029 2093 1958 2059 2044 1991 2048 1965 2030 1986 1969 2068 1954 1954 1923 2035 1961 1890 1922 1834 1948 1925 1878 1933 1860 1878 1847 1869 1910 1905 1887 1855 1853 1913 1946 1997 1863 1961 1838 1890 1949 1924 1890 1968 1854 1908 2016 1973 1961 1819 1933 1880 1914 1899 1999 1875 1923 1871 1942 1901 1923 1873 1895 1931 1950 1935 1859 1978 1945 1908 1917 1974 1975 1926 1899 1865 1852 1928 1936 1943 1955 1965 1921 1912 1920 1950 1893 1962 1985 1893 1911 1945 1877 1949 1892 1949 1908 1921 1930 1954 1997 2047 1948 1861 1902 1900 1899 1928 1906 1834 1858 1925 2037 1865 1892 1950 1901 1932 1919 2011 1852 1972 1908 1970 1925 1892 1976 1888 1891 1962 1932 1895 1896 1913 1787 1934 1929 2036 1999 1841 1948 1903 1912 1882 1958 1989 1908 1919 1984 1908 1975 1958 1898 1845 1961 1946 1963 1925 1930 1880 1954 1965 1930 1966 1877 1938 1915 1870 2001 1935 1956 1870 1932 1845 1958 2008 1968 1919 1936 2009 1880 1989 1913 2006 1899 1889 1931 1865 1858 1932 1960 1925 1930 2096 2004 1855 1996 1959 2043 1953 1993 2046 1974 2000 2027 1975 1990 2032 2022 2057 2025 1961 2045 1919 1968 2100 1957 2040 2036 2029 2054 2050 2105 2068 2031 2015 2109 2051 2075 2149 2225 2065 2173 2077 2051 2172 2104 2064 2079 2006 2105 2067 2060 2081 2162 2126 2134 2056 2103 2053 2065 2085 2075 2167 2106 2147 2092 2068 2023 2035 1985 2048 2056 2038 1986 2062 2006 1973 1900 1952 1938 1898 1990 1890 1971 1895 2021 1916 1917 1990 1914 1894 2026 1935 1911 1978 1884 1873 1868 1881 1981 1906 1827 1843 1891 1850 1855 1934 1954 1935 1908 1902 1904 1926 1917 1925 1928 1945 1871 1835 1805 1919 1970 1880 1889 1892 1881 1916 1881 1922 1884 1877 1933 1950 1901 1933 1884 1852 1941 1952 1888 1925 1926 1911 1978 2006 2019 2043 1896 1880 1910 1973 2033 2098 2065 2170 2058 2296 2193 2174 2294 2251 2337 2242 2276 2260 2263 2162 2256 2094 2135 2194 2209 2144 2190 2126 2212 2177 2294 2246 2191 2166 2252 2143 2136 2104 2074 2051 2030 1995 1934 2053 1935 1909 2116 2002 1986 1956 1949 1943 2046 1883 1960 1930 1827 1895 1820 1857 1993 1949 1942 1879 1911 1844 1984 1817 1916 1885 1880 1813 1842 1932 1867 1828 1881 1903 1919 1897 1855 1891 1873 1985 1880 1979 1927 1827 1890 1905 1851 1855 1879 1937 1880 1924 1894 1849 1999 1886 1912 1827 1908 1892 1969 1869 2001 1972 1900 1847 1949 1994 1930 1962 1958 1930 1938 1909 1880 1904 1909 1980 1894 1965 1926 1897 1924 1939 1992 1934 1912 1858 1924 1909 1949 1956 1866 1971 2004 1949 1911 1915 1966 1996 1842 1918 2008 1895 1904 1866 1970 1875 1786 1902 1894 1888 1824 1901 1892 1959 1823 1886 1836 1945 1870 1805 1935 1813 1916 1784 1947 1890 1899 1932 1892 1932 1929 1850 1923 1851 1858 1787 1857 1813 1903 1931 1924 1859 1851 1872 1881 1866 1839 1827 1862 1899 1899 1993 1933 1855 1840 1760 1842 1841 1884 1878 1887 1961 1822 1862 1931 1892 1841 1848 1822 1922 1947 1976 1886 1980 1927 1916 1960 1994 1955 1991 1994 2097 2012 2004 2037 2020 2008 2043 2049 2067 2042 2016 2131 2013 2034 1966 2036 1990 1977 1949 1938 2041 2007 1995 2041 1984 2051 2011 1942 2032 1955 1871 1878 1848 1947 1930 1862 1912 1838 1910 1972 1883 1990 1933 1884 1905 1905 1942 1860 1835 1806 1854 1879 1882 1876 1893 1825 1896 1910 1889 1919 1939 1897 1817 1798 1938 1789 1835 1866 1800 1799 1882 1939 1887 1916 1832 1822 1889 1880 1855 1821 1788 1868 1814 1834 1882 1830 1892 1867 1865 1867 1904 1797 1874 1834 1843 1941 1878 1872 1900 1807 1815 1854 1786 1929 1890 1854 1844 1790 1814 1786 1791 1787 1865 1822 1841 1829 1820 1864 1798 1871 1824 1876 1910 1874 1804 1874 1875 1901 1836 1871 1839 1911 1898 1895 1833 1851 1925 1970 1869 1889 1872 1803 1847 1787 1936 1961 1885 1898 1878 1965 1831 1803 1838 1844 1864 1841 1880 1835 1790 1849 1758 1786 1843 1864 1860 1849 1813 1926 1885 1908 1780 1820 1826 1815 1868 1864 1900 1843 1843 1933 1875 1899 1962 1873 1812 1878 1879 1819 1835 1907 1939 1783 1853 1855 1839 1820 1905 1813 1734 1904 1910 1846 1875 1802 1914 1842 1817 1797 1943 1830 1792 1894 1950 1826 1910 1788 1818 1849 1788 1855 1857 1898 1920 1842 1799 1818 1816 1799 1831 1833 1913 1838 1869 1856 1807 1892 1831 1888 1864 1880 1870 1807 1803 1788 1810 1856 1771 1900 1862 1757 1801 1848 1792 1795 1863 1875 1874 1845 1820 1887 1829 1804 1891 1847 1789 1852 1814 1838 1799 1865 1958 1855 1930 1890 1919 2022 1850 1953 1858 1921 1947 1851 1877 1872 1859 1929 1939 1945 2003 1881 2003 1943 1868 2017 1928 1929 1915 1982 1895 1933 1928 1967 1919 1916 1936 1906 1875 1881 1887 1926 1965 1948 1842 1827 1916 1876 1876 1926 1853 1908 1853 1836 1821 1907 1821 1878 1742 1781 1820 1830 1827 1741 1815 1821 1836 1777 1827 1900 1827 1821 1873 1753 1835 1813 1760 1834 1950 1778 1854 1871 1828 1753 1829 1877 1906 1818 1853 1876 1850 1787 1950 1769 1830 1835 1875 1866 1829 1811 1823 1781 1779 1924 1853 1876 1790 1848 1804 1887 1796 1923 1841 1880 1875 1833 1852 1769 1815 1894 1835 1775 1798 1875 1826 1903 1806 1868 1871 1804 1780 1873 1920 1911 1789 1898 1908 1905 1931 1871 1876 1822 1814 1957 1903 1945 1817 1862 1826 1833 1873 1809 1807 1876 1791 1902 1807 1865 1874 1926 1879 1840 1895 1933 1866 1837 1969 1757 1880 1816 1846 1833 1843 1903 1876 1776 1830 1811 1843 1898 1866 1792 1923 1787 1844 1806 1840 1801 1760 1845 1830 1810 1808 1809 1856 1817 1844 1842 1794 1828 1822 1875 1818 1754 1877 1905 1835 1776 1828 1843 1771 1801 1805 1822 1823 1791 1819 1844 1764 1870 1839 1865 1803 1923 1865 1856 1832 1891 1817 1699 1819 1821 1827 1854 1873 1777 1786 1866 1934 1836 1878 1750 1806 1855 1891 1794 1731 1900 1908 1875 1857 1896 1823 1838 1783 1824 1796 1912 1740 1864 1849 1818 1778 1852 1850 1812 1830 1875 1789 1886 1862 1860 1902 1876 1948 1889 1865 1927 1923 1922 1836 1905 1899 1931 1791 1916 1860 1913 1855 1833 1898 1803 1905 1915 1917 1849 1879 1875 1900 1939 1904 1874 1876 1778 1865 1892 1815 1922 1857 1889 1805 1815 1865 1826 1769 1862 1834 1772 1770 1784 1871 1804 1936 1834 1831 1852 1882 1840 1977 1862 1775 1774 1856 1844 1848 1886 1827 1888 1850 1838 1869 1854 1877 1891 1807 1849 1829 1867 1833 1837 1923 1846 1814 1932 1787 1783 1942 1794 1769 1895 1891 1860 1792 1941 1912 1919 1842 1881 1860 1918 1927 1864 1940 1880 1878 1810 1861 1753 1891 1858 1793 1863 1805 1854 1837 1852 1880 1999 1918 1850 1880 1947 1858 1862 1839 1861 1929 1852 1777 1843 1828 1846 1907 1896 1827 1843 1976 1820 1846 1868 1908 1821 1817 1883 1771 1803 1879 1955 1835 1863 1896 1822 1902 1867 1942 1957 2019 1968 2018 1962 1970 2035 1995 1940 2040 2082 1899 2008 2024 1959 2026 1956 1865 1926 1950 1913 2041 2013 1977 2022 1954 1947 1966 2014 1994 1898 2005 1927 2063 2005 1856 1992 1887 2000 1930 1863 1927 1973 1886 1893 1923 1950 1938 1898 1925 1936 2022 1993 1935 1918 1872 1900 1868 1987 1947 1940 1897 1931 1922 1951 1927 1866 1848 1809 1874 1842 1850 1885 1866 1908 1929 1888 1891 1844 1806 1918 1836 1807 1753 1766 1791 1794 1824 1809 1874 1877 1886 1857 1864 1803 1899 1812 1847 1869 1883 1798 1911 1873 1766 1895 1875 1818 1905 1823 1863 1849 1879 1851 1885 1778 1834 1844 1791 1834 1868 1825 1846 1837 1846 1711 1828 1785 1869 1917 1847 1903 1880 1865 1812 1813 1796 1835 1939 1873 1848 1839 1834 1803 1862 1833 1818 1804 1756 1806 1843 1772 1910 1825 1824 1849 1888 1816 1786 1856 1766 1824 1786 1807 1779 1829 1798 1877 1728 1792 1849 1773 1812 1833 1863 1823 1790 1943 1855 1818 1770 1791 1883 1844 1801 1839 1738 1818 1849 1822 1864 1841 1855 1772 1727 1785 1883 1849 1872 1853 1871 1817 1866 1815 1787 1846 1880 1903 1854 1886 1921 1963 1893 1831 1868 1855 1955 1904 1922 1971 1846 1980 1916 2005 1927 1924 1879 1871 1905 1890 1863 1886 1903 1931 1901 1823 1901 1883 1909 1927 1881 1868 1901 1919 1904 1914 1904 1985 1869 1857 1864 1798 1777 1853 1878 1821 1856 1900 1780 1848 1885 1770 1924 1845 1844 1776 1839 1846 1923 1875 1962 1804 1969 1773 1849 1943 1838 1882 1825 1760 1801 1793 1793 1830 1786 1838 1864 1843 1910 1812 1896 1799 1807 1778 1799 1850 1776 1841 1810 1775 1835 1821 1781 1793 1884 1822 1947 1796 1804 1887 1881 1834 1800 1845 1786 1777 1783 1853 1814 1807 1809 1762 1815 1831 1886 1863 1867 1882 1892 1810 1831 1900 1861 1856 1797 1759 1816 1825 1884 1860 1829 1782 1854 1953 1802 1859 1764 1888 1818 1805 1794 1851 1878 1862 1834 1981 1866 1883 1896 1866 1854 1814 1942 1873 1849 1837 1890 1880 1807 1775 1786 1791 1835 1940 1847 1823 1766 1875 1823 1865 1866 1812 1928 1872 1779 1879 1894 1820 1866 1925 1880 1859 1936 1813 1895 1814 1815 1846 1830 1942 1852 1977 1859 1840 1835 1977 1810 1921 1849 1901 1961 1911 1942 1971 1822 1891 1902 1982 1867 1931 1903 1894 1946 1946 1927 1890 1958 1998 1956 1963 2015 2036 2017 2124 2061 2050 2097 2095 2041 2046 2119 2177 2115 2111 2115 2075 2034 2031 2047 1935 2097 2092 2042 1980 2078 2102 2149 2006 2058 2105 2064 2067 2021 1989 1918 1995 1933 1901 2032 1925 1851 1882 1969 1890 1942 1919 1898 1905 1926 1866 1931 1886 1859 1968 1928 1948 1898 1850 1913 1812 1854 1874 1919 1793 1825 1893 1863 1806 1882 1773 1793 1792 1835 1846 1926 1833 1956 1897 1824 1778 1860 1791 1878 1941 1832 1884 1897 1834 1797 1780 1880 1845 1880 1911 1833 1837 1843 1922 1882 1941 1820 1842 1879 1872 1864 1811 1846 1688 1905 1883 1756 1829 1822 1853 1948 1856 1909 1890 1900 1823 1976 1815 1844 1935 1887 1904 1935 1874 1895 1937 1870 1908 1889 1820 1823 1922 1846 1873 1797 1835 1864 1869 1931 1864 1903 1863 1938 1893 1820 1984 1903 1921 1943 1880 1872 1905 1784 1835 1854 1872 1886 1817 1875 2002 1912 1833 1909 1911 1902 1872 1944 1815 1925 1962 1921 1949 1937 1889 1947 1968 1909 1992 2081 1970 2019 2043 2020 2064 2208 2069 2114 2103 2195 2137 2225 2142 2220 2383 2189 2155 2124 2196 2153 2064 2101 2144 2148 2082 2046 2116 2005 2073 2097 2094 2137 2128 2079 2139 1955 2144 2015 2080 2072 2007 1986 1976 2035 1958 1864 1943 1937 1926 1928 1877 1940 1895 2032 1934 1846 1882 1878 1834 1856 1849 1826 1842 1895 1830 1810 1929 1901 1924 1911 1828 1863 1825 1790 1765 1821 1859 1833 1886 1888 1917 1802 1960 1799 1972 1865 1913 1789 1885 1806 1852 1842 1830 1737 1971 1825 1881 1881 1837 1890 1809 1856 1834 1866 1857 1894 1868 1950 1956 1880 1943 1904 1912 1887 1906 1912 1872 1822 1900 1880 1857 1912 1935 1837 1862 1862 1919 1872 1872 1817 1826 1935 1878 1871 1875 1926 1900 1883 1940 1893 1793 1924 1948 1905 1862 1840 1909 1863 1842 1846 1865 1965 1858 1831 1832 1848 1896 1877 1880 1912 1831 1866 1787 1889 1886 1946 1896 1864 1869 1825 1887 1864 1761 1833 1819 1866 1874 1899 1898 1905 1835 1922 1833 1856 1878 1867 1897 1908 1877 1832 1873 1880 1851 1868 1845 1875 1814 1934 1864 1788 1820 1881 1842 1903 1926 1892 1787 1897 1931 1943 1907 1901 1790 1877 1922 1831 1856 1863 1807 1810 1883 1811 1922 1904 1847 1908 1911 1814 1827 1872 1945 1907 1944 1888 1839 1862 1933 1855 1872 1863 1850 1891 1902 1862 1780 1900 1855 1869 1799 1847 1977 1865 1908 1846 1812 1866 1883 1845 1856 1933 1969 1874 1927 1898 1860 1859 1856 1848 1871 1822 1886 1901 1888 1918 1933 1912 1853 1874 1895 1896 1877 1769 1831 1834 1895 1878 1918 1954 1879 1823 1847 1832 1873 1915 1937 1881 1906 1951 1992 1950 1829 1921 1912 1890 1872 1917 1882 1868 1851 1775 1908 1912 1913 1899 1853 1869 1867 1922 1870 1945 1942 1892 1936 1977 1905 1857 1964 1974 1960 1974 1940 1903 1939 1933 2017 1915 1976 2013 2071 2104 2039 2173 2089 2035 2134 2189 2218 2245 2205 2216 2207 2147 2137 2081 2088 2084 2134 2143 2195 2128 2078 2215 2179 2169 2111 2067 2160 2200 2120 2055 2164 2115 2183 2095 2108 2049 2120 1984 2003 2003 1970 1947 2035 1957 2041 1970 2121 2013 1962 1956 1998 1908 1889 2054 1932 2000 1887 1911 2059 1977 1975 1931 1967 1853 1917 1932 1917 1964 1970 1951 1950 1889 2023 1893 1955 2025 1940 2051 1915 2009 1940 1956 2003 1953 1976 2058 1995 2071 1961 1978 2014 2054 1957 2116 1916 1935 2028 1965 2035 2044 1984 1960 2014 2009 1934 2030 2053 2041 1915 1975 2100 1912 1969 1925 1953 1997 1962 1999 1946 2037 1964 1930 1936 1908 1934 1889 1877 1960 1889 1901 1890 1887 1863 1893 1770 1941 1848 1912 1897 1800 1887 1819 1863 1893 1854 1931 1841 1840 1823 1808 1862 1840 1863 1876 1854 1948 1870 1865 1839 1834 1867 1828 1836 1795 1870 1868 1881 1804 1917 1832 1793 1831 1858 1803 1821 1868 1804 1839 1784 1832 1794 1848 1828 1928 1865 1851 1827 1756 1724 1795 1780 1852 1856 1841 1803 1877 1858 1902 1846 1812 1877 1763 1750 1847 1851 1790 1785 1899 1770 1935 1796 1833 1887 1871 1840 1877 1883 1882 1836 1766 1928 1825 1879 1784 1873 1842 1893 1873 1880 1827 1891 1853 1858 1860 1928 1877 1821 1844 1866 1831 1802 1870 1915 1856 1841 1814 1780 1811 1831 1818 1796 1886 1827 1801 1876 1800 1871 1873 1792 1896 1821 1857 1811 1886 1790 1837 1827 1822 1860 1844 1868 1828 1876 1858 1896 1842 1869 1872 1839 1872 1839 1839 1817 1820 1920 1843 1919 1824 1879 1949 1848 1856 1898 1911 1833 1881 1882 1935 1831 1849 1889 1860 1840 1875 1818 1854 1892 1790 1883 1761 1830 1776 1842 1835 1850 1862 1875 1834 1894 1800 1826 1843 1899 1832 1812 1851 1844 1761 1886 1879 1780 1786 1901 1777 1869 1846 1820 1758 1825 1867 1833 1864 1888 1777 1833 1818 1874 1785 1837 1869 1887 1888 1827 1803 1808 1806 1830 1817 1840 1794 1803 1881 1783 1876 1919 1855 1811 1729 1831 1829 1852 1807 1866 1840 1828 1758 1878 1820 1865 1888 1880 1873 1868 1835 1807 1906 1876 1875 1884 1787 1832 1816 1818 1775 1824 1825 1836 1794 1887 1882 1772 1802 1838 1819 1810 1788 1798 1875 1741 1890 1717 1922 1801 1931 1834 1876 1767 1834 1783 1775 1889 1864 1843 1785 1777 1795 1773 1877 1774 1860 1888 1767 1789 1799 1760 1760 1810 1823 1863 1778 1821 1872 1804 1845 1844 1788 1822 1815 1893 1873 1893 1857 1934 1873 1743 1785 1861 1904 1881 1855 1895 1787 1913 1813 1877 1904 1897 1788 1841 1818 1953 1837 1889 1867 1865 1892 1900 1925 1866 1844 1896 1913 1969 1920 1740 1830 1874 1915 1776 1856 1934 1794 1888 1918 1871 1816 1831 1815 1919 1854 1852 1825 1824 1924 1799 1885 1839 1843 1904 1874 1959 1934 1912 1905 1927 1970 1978 1957 1969 2013 2048 1977 1972 1898 1911 1895 1893 1929 1991 1942 2014 1925 1920 1901 1855 1834 1941 2009 1915 1842 1907 1807 1915 1935 1880 1838 1960 1838 1869 1868 1833 1819 1868 1922 1819 1821 1817 1826 1769 1818 1875 1928 1887 1804 1850 1894 1878 1833 1798 1784 1875 1848 1795 1844 1902 1797 1828 1831 1764 1881 1877 1892 1886 1813 1898 1803 1822 1885 1807 1791 1831 1778 1756 1793 1779 1822 1783 1857 1803 1736 1836 1794 1828 1817 1866 1819 1839 1856 1807 1845 1872 1791 1781 1784 1838 1894 1805 1836 1797 1843 1794 1719 1781 1861 1816 1810 1718 1773 1804 1888 1784 1834 1839 1795 1882 1786 1808 1839 1815 1838 1813 1849 1801 1802 1875 1756 1758 1767 1821 1800 1881 1717 1873 1720 1886 1839 1801 1824 1834 1808 1786 1750 1811 1785 1766 1816 1775 1842 1866 1847 1767 1838 1868 1857 1869 1801 1832 1822 1843 1836 1824 1775 1798 1867 1794 1857 1771 1817 1867 1862 1770 1894 1817 1805 1816 1903 1878 1862 1877 1835 1838 1976 1810 1815 1868 1864 1859 1863 1897 1832 1825 1843 1849 1899 1761 1927 1891 1917 1804 1880 1855 1834 1860 1883 1873 1838 1866 1774 1854 1853 1851 1881 1861 1893 1909 1786 1891 1849 1875 1812 1880 1732 1909 1779 1924 1817 1836 1843 1874 1854 1878 1851 1898 1886 1957 1802 1880 1831 1857 1897 1882 1863 1890 1974 1919 1905 1842 1837 1847 1761 1891 1827 1838 1890 1821 1932 1884 1832 1871 1816 1858 1822 1886 1915 1848 1831 1823 1847 1793 1829 1754 1902 1832 1794 1946 1826 1827 1760 1895 1780 1860 1848 1828 1842 1908 1886 1870 1824 1873 1836 1828 1806 1911 1897 1799 1847 1846 1843 1798 1849 1825 1834 1936 1799 1840 1807 1844 1865 1956 1898 1875 1891 1842 1913 1915 1908 1864 1893 1808 1840 1870 1833 1853 1916 1911 1799 1836 1889 1921 1850 1849 1859 1922 1893 1872 1894 1858 1960 1860 1968 1879 1918 1921 1901 1988 1911 1982 1906 2066 1890 1922 1888 1877 1909 1941 1882 1853 1926 1999 1793 1930 1956 1850 1885 1919 1920 1846 1895 1861 1828 1825 1904 1878 1931 1880 1874 1926 1873 1835 1907 1914 1875 1940 1811 1925 1803 1815 1857 1839 1816 1863 1837 1816 1870 1778 1802 1803 1843 1897 1807 1831 1855 1786 1836 1781 1839 1862 1802 1919 1813 1880 1777 1857 1814 1817 1859 1788 1860 1797 1735 1772 1821 1898 1802 1717 1754 1783 1855 1772 1911 1877 1787 1771 1897 1747 1762 1722 1809 1908 1910 1811 1840 1768 1759 1763 1736 1823 1778 1798 1843 1832 1870 1835 1866 1815 1829 1842 1815 1824 1823 1833 1766 1719 1861 1846 1781 1796 1869 1866 1819 1815 1865 1796 1866 1845 1779 1822 1760 1784 1788 1923 1760 1789 1817 1739 1879 1843 1830 1752 1890 1824 1842 1791 1807 1854 1871 1880 1803 1790 1808 1769 1753 1849 1820 1844 1749 1859 1778 1785 1824 1869 1868 1836 1878 1885 1862 1895 1771 1810 1821 1877 1829 1843 1814 1789 1893 1846 1897 1808 1733 1877 1772 1826 1872 1805 1923 1855 1813 1811 1799 1814 1827 1899 1847 1915 1835 1808 1906 1876 1937 1965 1904 1864 1859 1859 1967 1940 1932 1861 1896 2045 1991 2005 1951 1887 1947 1964 1997 1889 1842 1921 1852 1956 1937 1993 1925 1871 1972 1900 1869 1927 1871 1878 1831 1974 1944 1947 1818 1905 1909 1817 1868 1971 1922 1894 1805 1912 1800 1955 1893 1782 1959 1903 1899 1861 1864 1850 1853 1943 1867 1841 1796 1900 1827 1873 1877 1829 1834 1887 1855 1836 1794 1855 1908 1783 1855 1889 1813 1814 1850 1869 1866 1843 1813 1834 1791 1820 1832 1826 1779 1754 1832 1879 1841 1822 1857 1774 1851 1862 1790 1763 1856 1789 1826 1834 1835 1844 1780 1837 1835 1829 1777 1846 1779 1870 1846 1826 1889 1813 1781 1834 1792 1859 1766 1732 1750 1796 1777 1849 1849 1766 1798 1781 1816 1824 1801 1856 1833 1844 1875 1786 1900 1870 1884 1798 1836 1824 1757 1830 1797 1821 1830 1798 1827 1919 1812 1767 1810 1828 1771 1775 1857 1808 1841 1858 1872 1740 1808 1823 1769 1836 1807 1935 1886 1795 1889 1798 1850 1780 1859 1932 1847 1886 1857 1823 1887 1803 1811 1811 1842 1798 1862 1768 1822 1806 1802 1773 1846 1747 1907 1804 1835 1863 1863 1819 1792 1868 1781 1889 1836 1827 1903 1790 1782 1813 1851 1789 1849 1793 1807 1859 1804 1796 1871 1828 1816 1912 1907 1849 1768 1841 1764 1821 1820 1810 1818 1772 1796 1919 1744 1800 1822 1827 1810 1826 1837 1827 1828 1859 1867 1718 1872 1755 1805 1851 1876 1879 1743 1806</counts>
			</dataPoints>
		</scan>
	</xrdMeasurement>
</xrdMeasurements>
