<?xml version="1.0"?>
<xrdMeasurements xmlns="http://www.xrdml.com/XRDMeasurement/2.3" xmlns:xsi="http://www.w3.org/2001/XMLSchema-instance" xsi:schemaLocation="http://www.xrdml.com/XRDMeasurement/2.3 http://www.xrdml.com/XRDMeasurement/2.3/XRDMeasurement.xsd" status="Completed" recordIdentifier="{0ACB1B09-DC42-4FE0-8D4F-9D1737CF7DE3}">
	<comment>
		<entry/>
	</comment>
	<sample type="To be analyzed">
		<id>GPSS_Li1p75Co0p375Fe0p375Sc0p25Cl4_122325_694ae824ae15af25ac372778</id>
		<name></name>
		<preparedBy></preparedBy>
	</sample>
	<xrdMeasurement measurementType="Scan" status="Completed" sampleMode="Reflection">
		<usedWavelength intended="K-Alpha 1">
			<kAlpha1 unit="Angstrom">1.5405980</kAlpha1>
			<kAlpha2 unit="Angstrom">1.5444260</kAlpha2>
			<kBeta unit="Angstrom">1.3922500</kBeta>
			<ratioKAlpha2KAlpha1>0.5000</ratioKAlpha2KAlpha1>
		</usedWavelength>
		<incidentBeamPath>
			<radius unit="mm">145.00</radius>
			<xRayTube id="1010048" name="Empyrean Cu LFF HR (9430 033 7310x)">
				<tension unit="kV">40.0</tension>
				<current unit="mA">15.0</current>
				<anodeMaterial>Cu</anodeMaterial>
				<focus type="Line">
					<length unit="mm">12.0</length>
					<width unit="mm">0.4</width>
					<takeOffAngle unit="deg">6.0</takeOffAngle>
				</focus>
			</xRayTube>
			<sollerSlit id="21010002" name="Soller slits 0.04 rad.">
				<opening unit="rad">0.0400</opening>
			</sollerSlit>
			<mask id="22031000" name="Fixed mask 13 mm">
				<width unit="mm">9.00</width>
			</mask>
			<divergenceSlit id="22120001" name="Divergence slit 1°" xsi:type="fixedDivergenceSlitType">
				<distanceToSample unit="mm">50.00</distanceToSample>
				<height unit="mm">1.52</height>
			</divergenceSlit>
		</incidentBeamPath>
		<sampleMovement xsi:type="spinningSampleMovementType">
			<spinnerRevolutionTime unit="seconds">1.0</spinnerRevolutionTime>
		</sampleMovement>
		<diffractedBeamPath>
			<radius unit="mm">145.00</radius>
			<antiScatterSlit id="22090040" name="AS slit 9 mm (PIXcel)" xsi:type="fixedAntiScatterSlitType">
				<height unit="mm">9.00</height>
			</antiScatterSlit>
			<sollerSlit id="21020003" name="Large Soller slits 0.04 rad.">
				<opening unit="rad">0.0400</opening>
			</sollerSlit>
			<filter id="20030001" name="Large beta-filter Nickel">
				<material>Ni</material>
				<thickness unit="mm">0.020</thickness>
			</filter>
			<detector id="7010019" name="PIXcel1D-Medipix3 detector" xsi:type="rtmsDetectorType">
				<phd unit="keV">
					<lowerLevel>4.02</lowerLevel>
					<upperLevel>11.27</upperLevel>
				</phd>
				<mode>Scanning</mode>
				<activeLength unit="deg">5.542</activeLength>
			</detector>
		</diffractedBeamPath>
		<scan appendNumber="0" mode="Continuous" scanAxis="Gonio" status="Completed">
			<header>
				<startTimeStamp>2025-12-25T18:38:06-08:00</startTimeStamp>
				<endTimeStamp>2025-12-25T18:46:13-08:00</endTimeStamp>
				<author>
					<name>AutomatedUser</name>
				</author>
				<source>
					<applicationSoftware version="1.7b (136)">PANalytical Aeris Instrument Suite</applicationSoftware>
					<instrumentControlSoftware version="3.2.00000000 20240306">AERIS</instrumentControlSoftware>
					<instrumentID>950485</instrumentID>
				</source>
			</header>
			<dataPoints>
				<positions axis="2Theta" unit="deg">
					<startPosition>10.00943322</startPosition>
					<endPosition>99.99442286</endPosition>
				</positions>
				<positions axis="Omega" unit="deg">
					<startPosition>5.00471661</startPosition>
					<endPosition>49.99721143</endPosition>
				</positions>
				<commonCountingTime unit="seconds">12.495</commonCountingTime>
				<counts unit="counts">3461 3304 3354 3405 3298 3473 3466 3403 3508 3250 3363 3473 3435 3340 3321 3453 3462 3443 3390 3535 3430 3423 3448 3451 3458 3501 3508 3474 3470 3519 3588 3521 3443 3460 3556 3563 3508 3488 3468 3511 3541 3548 3552 3526 3531 3538 3580 3659 3595 3470 3506 3550 3582 3630 3541 3624 3659 3605 3578 3667 3649 3739 3645 3620 3586 3713 3696 3658 3732 3703 3665 3744 3843 3765 3717 3738 3696 3731 3862 3859 3648 3850 3693 3799 3859 3859 3773 3819 3771 3940 3804 3826 3731 4055 3809 3858 3806 3787 3763 3791 3672 3834 3922 3914 3735 3821 3787 3803 3890 3901 3777 3904 3833 3793 3749 3863 3767 3830 3844 3914 3882 3786 3840 3824 3819 3882 3895 3814 3727 3977 3826 3918 3896 3943 3893 3924 3844 3919 3911 3891 3798 4051 3978 3843 3886 3893 3932 3863 3947 3823 3908 3912 3878 3960 4001 3993 3880 3829 3847 3912 3815 3931 3840 3905 3848 3872 3936 3882 3918 3856 3888 3968 4000 3934 3988 3853 4017 3927 3965 3899 3907 4013 3972 4007 3836 3954 3862 3906 3818 4019 3908 3973 3889 3911 3916 3757 3874 3872 3940 3874 3764 3813 3803 3870 3894 3877 3872 3827 3852 3885 3915 3845 3893 3867 3842 3941 3893 3820 3909 3868 3857 3968 3624 3873 3880 3842 3900 3828 3786 3782 3986 3757 3714 3853 3835 3863 3842 3852 3752 3826 3801 3818 3874 3799 3891 3718 3761 3723 3787 3698 3802 3738 3735 3713 3731 3698 3785 3624 3678 3716 3808 3738 3756 3717 3654 3745 3674 3701 3749 3727 3725 3711 3805 3730 3657 3798 3771 3675 3753 3780 3720 3658 3638 3717 3669 3715 3794 3722 3677 3666 3694 3658 3717 3730 3636 3768 3771 3677 3625 3746 3698 3738 3740 3661 3695 3740 3711 3816 3783 3811 3752 3784 3808 3829 3733 3727 3862 3781 3720 3663 3721 3765 3781 3844 3895 3773 3764 3817 3733 3893 3871 3810 3793 3767 3848 3758 3760 3641 3851 3797 3793 3828 3899 3771 3775 3815 3756 3833 3925 3955 3803 3950 3897 3836 3951 3928 3894 3911 3903 3972 3885 3860 3838 3872 3955 3922 3874 3851 3885 3990 3994 3953 3910 3993 3892 4011 3909 3854 3881 3889 4026 3943 4055 4086 3952 4059 3959 4041 4087 4047 4058 3954 3919 4008 4037 3953 4045 4087 4008 4070 4094 4025 4033 4076 4029 4070 4162 4064 4051 4138 4107 4118 4045 4117 4005 4056 4055 4099 4077 4103 4166 4143 4189 4150 4193 4062 4117 4210 4101 4193 4303 4311 4322 4134 4206 4257 4253 4270 4240 4483 4323 4357 4388 4307 4390 4415 4345 4291 4473 4348 4434 4387 4340 4466 4529 4603 4769 4596 4712 4765 4702 4669 4827 4996 4700 4919 4984 4972 5204 5169 5150 5206 5055 5201 5383 5345 5558 5489 5350 5355 5241 5129 4861 4743 4508 4345 4360 4224 4043 4105 3987 3944 3864 4055 3905 3796 3963 3912 3870 3803 3763 3786 3954 3854 3892 3942 3813 3896 3894 3838 3789 3700 3825 3863 3677 3751 3871 3828 3700 3844 3771 3668 3654 3789 3645 3693 3781 3637 3581 3784 3682 3741 3737 3647 3691 3705 3617 3623 3598 3618 3576 3615 3586 3606 3629 3702 3752 3638 3576 3757 3573 3517 3599 3512 3633 3594 3475 3524 3605 3569 3512 3510 3581 3471 3529 3540 3578 3496 3625 3495 3380 3582 3515 3356 3629 3530 3500 3498 3405 3487 3560 3446 3461 3498 3396 3593 3470 3421 3405 3439 3491 3413 3413 3298 3425 3441 3482 3442 3417 3457 3456 3340 3426 3398 3440 3438 3406 3466 3475 3343 3395 3276 3332 3325 3337 3426 3426 3381 3318 3464 3388 3334 3382 3299 3385 3447 3377 3344 3327 3439 3379 3377 3501 3423 3386 3434 3387 3408 3466 3364 3279 3424 3397 3233 3337 3351 3274 3462 3400 3374 3377 3326 3336 3415 3352 3438 3451 3416 3439 3236 3312 3387 3392 3419 3408 3511 3366 3468 3404 3498 3402 3379 3367 3382 3480 3610 3439 3519 3488 3491 3506 3448 3591 3428 3390 3297 3395 3306 3459 3348 3407 3230 3346 3340 3289 3274 3297 3256 3305 3364 3260 3316 3379 3358 3266 3273 3222 3342 3217 3208 3209 3223 3231 3316 3175 3218 3222 3132 3354 3345 3297 3161 3160 3197 3280 3161 3251 3158 3221 3161 3174 3120 3244 3116 3199 3179 3229 3103 3225 3294 3102 3310 3091 3198 3247 3205 3159 3210 3210 3238 3161 3252 3137 3170 3193 3196 3175 3214 3193 3221 3167 3306 3180 3069 3163 3102 3099 3117 3160 3178 3129 3063 3106 3088 3132 3303 3077 3209 3223 3219 3177 3107 3090 3228 3179 3137 3138 3231 3108 3106 3084 3111 3265 3215 3177 3195 3115 3175 3271 3079 3136 3101 3031 2999 3052 3121 3134 3165 3238 3148 3054 3101 3185 3230 3176 3051 3152 3090 3157 3052 3092 3040 3149 3106 3136 3130 2957 3087 3089 3087 2996 3138 3108 3114 3113 3034 3062 3016 3068 3042 3103 3074 3122 3068 3169 2959 3111 3059 3044 3035 3100 3103 3035 2985 3028 3056 3069 3074 3011 2991 2998 3012 3059 3006 3046 3078 3012 2998 3039 3092 2916 3077 3054 2995 3122 2952 3024 2934 3005 3006 2971 3008 2989 3143 3054 2994 3024 2958 3060 3023 3058 3002 2917 3061 2951 3041 2942 3068 3054 2949 3062 3018 2939 2895 3009 2925 2921 2933 2959 3006 2926 3018 3011 2992 2918 2928 2983 3097 3019 2974 2969 2990 2880 2870 2958 2937 2985 2867 2877 2974 2888 2974 2976 2913 2970 2922 2928 3032 2855 2845 3011 2888 2879 2978 2847 2944 2919 2942 2915 2868 2910 2979 2875 2808 2885 2904 2907 2820 2859 2917 2948 2946 2883 2963 2948 2952 2910 2956 2985 2887 2911 2796 2907 2947 2824 2890 2904 2900 2807 2824 2956 2818 2908 2906 2893 2883 2899 2942 2831 2914 2883 2789 2914 2884 2911 2762 2867 2922 2876 2970 2852 2854 2907 2847 2898 2879 2912 2767 2828 2817 2866 2893 2948 2878 2760 2802 2920 2962 2850 2817 2899 2847 2920 2782 2824 2889 2930 2851 2980 2884 2808 2957 2947 2972 2835 2866 2899 2857 2868 2895 2877 2845 2785 2879 2850 3009 2799 2830 2893 2806 2855 2862 2916 2875 2857 2896 2884 2940 2900 2957 2847 2944 2972 2968 2817 2881 2966 2918 2950 2824 2917 2866 2801 2884 2870 2861 2868 2898 2859 3021 3000 2922 2981 2932 2976 2863 2896 2978 2870 2821 2787 2933 2828 2921 2883 2818 2994 2801 2890 2777 2853 2832 2843 2826 2869 2878 2891 2902 2935 2822 2845 2867 2887 2885 2848 2833 2925 2888 2902 2883 2896 2843 2781 2867 2717 2836 2811 2831 2900 2856 2795 2847 2945 2838 2855 2916 2731 2840 2759 2723 2716 2723 2827 2840 2790 2767 2763 2798 2811 2820 2820 2711 2816 2668 2742 2754 2761 2764 2714 2735 2722 2777 2818 2781 2685 2801 2660 2627 2728 2661 2703 2684 2674 2691 2686 2643 2723 2695 2619 2659 2771 2640 2627 2683 2633 2676 2598 2690 2694 2617 2714 2593 2737 2642 2534 2563 2589 2634 2547 2602 2545 2671 2614 2588 2500 2623 2536 2562 2593 2539 2600 2545 2500 2523 2547 2565 2578 2628 2545 2545 2571 2592 2517 2480 2522 2607 2572 2377 2492 2372 2390 2467 2480 2482 2475 2463 2480 2347 2401 2479 2454 2420 2419 2494 2474 2373 2438 2477 2462 2515 2316 2395 2338 2354 2408 2435 2300 2357 2313 2371 2334 2397 2460 2408 2262 2365 2430 2382 2477 2431 2264 2372 2244 2345 2290 2272 2284 2321 2236 2384 2248 2326 2402 2357 2317 2224 2320 2370 2300 2388 2331 2301 2252 2259 2253 2264 2248 2282 2375 2309 2398 2265 2345 2302 2334 2238 2322 2312 2244 2376 2224 2319 2230 2269 2344 2277 2321 2245 2321 2258 2241 2332 2175 2315 2289 2298 2247 2262 2280 2344 2324 2356 2318 2281 2317 2328 2265 2310 2389 2308 2216 2360 2404 2352 2268 2323 2453 2384 2324 2345 2412 2355 2445 2312 2386 2504 2393 2380 2377 2470 2528 2496 2448 2546 2422 2412 2438 2403 2382 2325 2372 2264 2231 2307 2312 2245 2163 2270 2148 2177 2182 2221 2269 2264 2287 2199 2219 2275 2195 2212 2210 2201 2274 2331 2196 2287 2222 2206 2189 2231 2118 2313 2294 2293 2362 2218 2206 2229 2339 2204 2235 2294 2195 2279 2316 2265 2232 2216 2180 2196 2155 2205 2205 2177 2247 2114 2151 2213 2215 2200 2245 2213 2295 2200 2225 2114 2154 2243 2181 2294 2242 2257 2200 2165 2192 2261 2169 2293 2202 2283 2223 2199 2226 2293 2208 2159 2194 2208 2203 2152 2274 2146 2193 2205 2161 2191 2220 2250 2228 2154 2191 2263 2209 2227 2191 2246 2250 2173 2159 2207 2113 2171 2225 2215 2202 2235 2272 2268 2220 2281 2170 2226 2182 2250 2215 2162 2291 2160 2140 2099 2213 2127 2174 2226 2182 2215 2283 2159 2239 2236 2215 2211 2243 2196 2123 2240 2119 2212 2242 2239 2140 2229 2201 2185 2159 2164 2157 2261 2140 2113 2199 2187 2145 2169 2169 2165 2200 2119 2173 2129 2105 2138 2136 2199 2226 2117 2136 2148 2126 2101 2061 2068 2050 2140 2122 2182 2132 2158 2172 2093 2189 2141 2094 2158 2174 2023 2051 2087 2116 2084 2132 2027 2021 2106 2010 2066 2147 2052 2023 2043 2039 2186 2003 2060 2019 1978 2023 2028 2072 2049 2023 2039 2082 2013 2004 1978 1954 2001 2031 1995 1998 2027 1981 2035 2046 1907 2003 1944 1905 1958 1956 1899 2002 1943 1921 1920 1966 1869 1955 1910 1968 1921 2033 1929 1866 1878 1906 1934 1953 1895 1905 1969 1939 1921 1852 1977 1859 1975 1934 1940 1900 1977 1909 1886 1808 1963 1872 1806 1856 1840 1978 1944 1987 1968 1876 1858 1917 1914 1897 1921 1941 1932 1875 1854 1916 1863 1954 1911 1843 1872 1806 1854 1915 1831 1864 1918 1831 1895 1918 1775 1933 1916 1900 1876 1871 1922 1903 1916 1866 1853 1877 1869 1882 1786 1869 1859 1840 1826 1886 1920 1847 1877 1858 1956 1928 1901 1927 1926 1925 1942 1952 1983 1891 1949 2016 1965 1925 1949 1940 1940 2095 2108 1949 2072 2044 2037 2039 2083 2134 2080 2109 2150 2098 2130 2080 2125 2125 2179 2230 2199 2172 2186 2301 2271 2210 2363 2243 2279 2323 2193 2261 2220 2268 2211 2305 2382 2324 2303 2268 2361 2249 2247 2268 2129 2073 2055 2083 2021 1933 1857 1917 1824 1806 1827 1892 1807 1752 1828 1777 1806 1748 1827 1807 1795 1808 1775 1776 1727 1739 1752 1728 1761 1718 1768 1813 1748 1769 1684 1781 1728 1683 1785 1788 1763 1786 1830 1713 1711 1766 1807 1750 1809 1732 1763 1743 1726 1725 1780 1806 1758 1849 1798 1836 1846 1817 1910 1857 1942 1943 1987 2034 2013 1948 2028 1973 2030 2061 2052 2077 2079 2074 2099 2107 2155 2202 2096 2178 2236 2314 2280 2288 2243 2286 2365 2305 2525 2336 2548 2454 2670 2620 2631 2713 2842 2718 2948 2852 2954 3080 2992 3125 3036 2991 2877 2845 2731 2719 2470 2496 2356 2238 2164 2088 2016 1961 1871 1806 1860 1784 1725 1786 1815 1709 1762 1727 1766 1708 1703 1574 1714 1761 1674 1658 1681 1629 1676 1639 1631 1691 1600 1722 1634 1657 1667 1737 1632 1605 1603 1670 1636 1706 1649 1662 1674 1674 1637 1734 1639 1676 1636 1617 1650 1605 1692 1626 1607 1651 1632 1672 1655 1738 1696 1750 1664 1621 1671 1566 1672 1548 1634 1598 1565 1606 1619 1579 1558 1606 1636 1593 1618 1613 1620 1598 1644 1595 1628 1593 1608 1550 1595 1643 1558 1564 1555 1482 1627 1590 1611 1627 1598 1667 1535 1564 1592 1659 1552 1632 1592 1584 1644 1538 1624 1533 1527 1631 1663 1626 1621 1712 1576 1577 1633 1601 1607 1584 1673 1667 1558 1604 1530 1485 1604 1673 1697 1589 1624 1532 1568 1604 1619 1639 1478 1588 1605 1629 1650 1584 1625 1615 1558 1525 1588 1651 1541 1571 1494 1642 1549 1616 1619 1587 1564 1527 1621 1506 1586 1553 1584 1631 1588 1630 1536 1512 1569 1540 1527 1605 1580 1570 1534 1636 1556 1574 1548 1566 1601 1560 1531 1610 1556 1555 1495 1518 1528 1542 1652 1643 1589 1489 1640 1550 1550 1532 1580 1517 1574 1616 1575 1651 1623 1544 1608 1588 1509 1544 1581 1515 1523 1637 1638 1533 1577 1566 1576 1580 1547 1624 1551 1570 1588 1569 1488 1550 1662 1534 1552 1541 1535 1483 1600 1609 1554 1613 1546 1533 1559 1528 1637 1548 1492 1652 1620 1578 1601 1602 1541 1613 1600 1564 1590 1589 1541 1564 1560 1639 1552 1525 1552 1594 1616 1609 1655 1619 1550 1496 1569 1612 1516 1637 1561 1587 1503 1615 1566 1543 1509 1612 1567 1538 1603 1520 1553 1565 1542 1577 1578 1568 1650 1480 1559 1651 1562 1611 1626 1648 1608 1638 1539 1595 1621 1540 1639 1618 1617 1666 1613 1615 1620 1640 1664 1635 1605 1651 1646 1621 1624 1622 1659 1600 1676 1583 1678 1623 1690 1732 1700 1668 1643 1650 1659 1606 1689 1633 1620 1643 1667 1661 1661 1689 1659 1668 1759 1719 1790 1733 1693 1804 1700 1758 1832 1766 1792 1797 1828 1844 1793 1912 1931 1936 1905 1948 1928 1962 1991 1946 2092 2058 2056 2168 2076 2095 2019 2169 2164 2196 2230 2140 2323 2269 2448 2427 2565 2537 2592 2695 2746 2791 2981 2916 3039 3084 3229 3287 3268 3523 3504 3486 3594 3459 3546 3558 3605 3571 3519 3536 3568 3505 3471 3405 3467 3409 3529 3502 3649 3626 3592 3724 3748 3727 3748 4013 3935 4027 4111 4030 4120 4103 4134 4114 4268 4253 4087 4087 4000 3879 3734 3696 3400 3215 3046 2874 2776 2614 2441 2351 2217 2171 2001 1928 1845 1795 1848 1694 1818 1657 1704 1622 1602 1671 1655 1713 1722 1698 1672 1665 1628 1620 1649 1623 1541 1578 1579 1530 1628 1520 1655 1606 1582 1577 1572 1610 1622 1576 1547 1611 1559 1551 1555 1554 1541 1608 1578 1525 1545 1511 1507 1558 1528 1554 1555 1637 1575 1574 1551 1548 1589 1534 1553 1575 1544 1544 1653 1503 1487 1556 1532 1533 1556 1557 1519 1635 1582 1593 1555 1550 1527 1589 1565 1524 1552 1488 1600 1555 1568 1610 1531 1504 1552 1569 1602 1554 1560 1607 1580 1608 1561 1584 1581 1560 1525 1577 1631 1623 1547 1525 1600 1559 1511 1554 1545 1563 1626 1498 1593 1496 1587 1566 1576 1597 1536 1501 1530 1550 1522 1590 1525 1593 1558 1564 1578 1550 1561 1507 1543 1467 1532 1548 1503 1541 1551 1593 1532 1476 1531 1526 1537 1498 1503 1568 1547 1551 1501 1501 1514 1548 1601 1613 1512 1599 1493 1557 1506 1594 1505 1495 1570 1522 1506 1536 1544 1538 1577 1573 1527 1531 1507 1558 1502 1577 1490 1507 1575 1530 1580 1582 1500 1519 1522 1540 1503 1530 1524 1518 1551 1563 1520 1483 1553 1532 1499 1612 1520 1604 1556 1547 1470 1541 1531 1552 1549 1575 1526 1575 1535 1510 1479 1516 1540 1615 1543 1620 1522 1511 1551 1545 1480 1482 1508 1539 1550 1580 1569 1539 1566 1545 1582 1542 1625 1574 1573 1589 1580 1584 1553 1562 1645 1592 1581 1515 1559 1554 1626 1631 1595 1617 1617 1598 1691 1621 1654 1639 1626 1637 1679 1660 1627 1643 1676 1575 1661 1711 1662 1592 1661 1667 1654 1692 1599 1605 1645 1623 1633 1625 1642 1605 1570 1666 1590 1594 1615 1502 1545 1562 1475 1529 1565 1479 1572 1506 1510 1463 1505 1568 1540 1576 1574 1530 1484 1520 1515 1502 1473 1495 1529 1523 1435 1542 1548 1537 1534 1616 1567 1514 1563 1631 1515 1459 1562 1554 1527 1502 1549 1640 1537 1565 1596 1610 1479 1606 1503 1571 1519 1563 1568 1563 1591 1585 1553 1570 1545 1648 1620 1562 1586 1642 1591 1537 1634 1606 1577 1632 1644 1632 1639 1645 1758 1631 1639 1669 1592 1590 1629 1670 1601 1673 1665 1569 1574 1602 1559 1545 1594 1596 1598 1547 1455 1562 1542 1436 1538 1468 1526 1573 1482 1541 1511 1515 1490 1578 1488 1526 1481 1487 1469 1411 1532 1478 1519 1524 1520 1475 1512 1517 1566 1541 1498 1620 1545 1485 1469 1428 1507 1473 1594 1495 1504 1480 1567 1473 1470 1480 1511 1508 1513 1525 1545 1522 1524 1511 1525 1548 1562 1502 1504 1499 1560 1491 1507 1554 1464 1575 1545 1473 1495 1557 1454 1531 1504 1493 1459 1415 1526 1440 1515 1547 1489 1458 1552 1509 1501 1462 1533 1531 1546 1458 1526 1512 1562 1519 1516 1461 1418 1481 1448 1451 1470 1531 1401 1570 1530 1446 1531 1523 1522 1529 1596 1515 1554 1454 1553 1475 1510 1520 1568 1538 1551 1534 1530 1486 1477 1526 1490 1520 1474 1454 1524 1480 1503 1575 1508 1457 1462 1530 1536 1524 1434 1519 1499 1514 1473 1498 1566 1504 1521 1423 1496 1488 1521 1455 1582 1467 1564 1497 1491 1522 1468 1499 1454 1499 1532 1459 1493 1543 1507 1524 1474 1473 1538 1507 1516 1610 1525 1522 1540 1548 1504 1513 1454 1527 1536 1538 1497 1556 1551 1573 1583 1574 1509 1559 1476 1494 1534 1528 1485 1489 1523 1496 1442 1395 1544 1544 1505 1559 1524 1523 1490 1540 1543 1447 1575 1459 1464 1528 1463 1491 1536 1507 1528 1573 1549 1490 1518 1602 1527 1498 1511 1487 1561 1516 1527 1502 1498 1531 1490 1441 1528 1442 1543 1578 1613 1483 1558 1516 1526 1475 1477 1613 1465 1499 1595 1590 1523 1450 1452 1506 1523 1493 1531 1537 1551 1541 1468 1495 1525 1536 1501 1500 1588 1505 1582 1560 1523 1479 1436 1549 1515 1482 1516 1519 1518 1539 1488 1568 1520 1491 1627 1600 1501 1502 1469 1477 1518 1512 1552 1586 1616 1572 1578 1566 1575 1569 1568 1583 1572 1581 1601 1645 1551 1585 1544 1596 1564 1578 1607 1609 1666 1692 1556 1708 1611 1652 1703 1605 1606 1573 1597 1538 1510 1581 1542 1546 1531 1520 1535 1515 1525 1525 1569 1528 1511 1523 1590 1548 1549 1497 1526 1514 1531 1576 1496 1529 1506 1486 1457 1507 1542 1492 1458 1538 1484 1559 1556 1498 1494 1503 1534 1549 1504 1537 1543 1546 1502 1474 1509 1561 1513 1381 1510 1561 1509 1565 1482 1497 1485 1517 1540 1447 1501 1570 1544 1493 1537 1592 1472 1536 1468 1521 1456 1494 1513 1498 1560 1551 1557 1486 1507 1550 1496 1437 1512 1446 1478 1508 1509 1465 1523 1469 1507 1532 1497 1577 1444 1557 1532 1557 1525 1456 1467 1513 1539 1509 1494 1502 1482 1541 1487 1471 1479 1529 1485 1539 1528 1527 1496 1482 1574 1513 1562 1452 1531 1562 1485 1550 1544 1516 1481 1552 1497 1503 1552 1489 1444 1591 1528 1473 1540 1564 1555 1546 1500 1504 1530 1528 1548 1538 1541 1529 1500 1496 1447 1518 1514 1493 1537 1535 1454 1549 1462 1558 1542 1592 1542 1547 1527 1583 1499 1590 1524 1548 1596 1480 1520 1514 1499 1557 1553 1560 1531 1504 1576 1544 1538 1538 1504 1603 1609 1483 1547 1540 1534 1590 1582 1535 1617 1646 1536 1616 1610 1588 1606 1593 1575 1525 1625 1577 1595 1675 1482 1712 1579 1618 1731 1722 1680 1689 1663 1665 1760 1702 1738 1674 1734 1747 1801 1828 1712 1813 1865 1779 1773 1817 1820 1875 1836 1787 1780 1824 1759 1809 1785 1743 1790 1777 1795 1815 1791 1767 1761 1698 1773 1732 1763 1784 1813 1701 1813 1856 1880 1799 1808 1833 1903 1853 1949 1801 1908 1857 1882 1800 1806 1891 1746 1842 1829 1798 1744 1669 1749 1664 1657 1578 1691 1623 1678 1629 1605 1578 1586 1558 1565 1553 1597 1543 1559 1582 1620 1562 1516 1591 1564 1523 1553 1672 1501 1524 1560 1574 1541 1575 1529 1502 1574 1592 1604 1549 1540 1514 1454 1542 1560 1587 1542 1487 1478 1484 1529 1520 1503 1565 1529 1559 1546 1501 1580 1393 1557 1541 1593 1562 1521 1546 1513 1545 1456 1568 1549 1531 1498 1518 1581 1552 1522 1499 1527 1534 1490 1551 1502 1548 1588 1538 1530 1446 1539 1484 1530 1467 1567 1567 1513 1535 1529 1534 1542 1532 1516 1530 1605 1538 1487 1429 1533 1503 1523 1509 1596 1592 1488 1520 1475 1491 1508 1489 1503 1576 1562 1571 1463 1590 1522 1512 1531 1580 1570 1472 1552 1530 1539 1511 1573 1479 1511 1537 1550 1597 1518 1571 1484 1555 1497 1497 1494 1635 1543 1575 1558 1536 1532 1593 1488 1551 1569 1505 1586 1518 1606 1510 1616 1532 1518 1526 1592 1573 1566 1489 1634 1525 1504 1511 1536 1535 1516 1590 1569 1603 1545 1485 1633 1554 1571 1486 1547 1516 1570 1493 1530 1547 1536 1543 1556 1528 1595 1586 1615 1614 1573 1586 1604 1585 1554 1611 1615 1545 1663 1627 1603 1540 1522 1456 1549 1597 1559 1551 1497 1597 1537 1651 1491 1529 1532 1562 1561 1601 1520 1585 1636 1563 1611 1565 1588 1540 1552 1537 1512 1529 1589 1555 1554 1573 1511 1596 1587 1595 1484 1537 1615 1607 1538 1551 1606 1558 1550 1560 1516 1619 1490 1556 1484 1632 1597 1540 1625 1526 1523 1554 1628 1547 1631 1579 1590 1537 1541 1612 1559 1547 1609 1614 1618 1572 1579 1608 1546 1597 1582 1519 1549 1568 1589 1544 1540 1624 1606 1624 1613 1593 1627 1570 1559 1548 1556 1621 1591 1623 1643 1588 1625 1646 1648 1594 1623 1677 1623 1632 1622 1634 1726 1652 1633 1740 1749 1748 1828 1849 1914 1850 1961 1882 1859 1966 2024 2085 2117 2163 2151 2156 2181 2262 2293 2241 2260 2300 2380 2407 2476 2520 2580 2676 2558 2783 2709 2840 2900 2907 3002 2949 3180 3158 3216 3290 3385 3368 3458 3377 3421 3449 3401 3432 3406 3377 3377 3343 3312 3233 3138 3194 2991 3067 3078 3067 2893 2937 2856 2847 2692 2740 2747 2693 2553 2642 2525 2462 2517 2360 2320 2401 2268 2206 2187 2129 2042 2050 2062 1968 1990 1879 1786 1848 1776 1745 1785 1721 1710 1729 1672 1641 1645 1609 1691 1579 1563 1624 1537 1595 1509 1627 1551 1632 1634 1604 1545 1584 1531 1617 1596 1564 1579 1581 1578 1551 1645 1671 1620 1570 1606 1567 1578 1565 1531 1545 1587 1593 1557 1514 1648 1597 1632 1509 1510 1566 1525 1586 1606 1567 1499 1569 1515 1551 1468 1619 1520 1523 1554 1578 1527 1494 1508 1531 1492 1497 1573 1586 1608 1543 1526 1616 1568 1619 1575 1622 1503 1552 1522 1530 1505 1565 1539 1504 1530 1514 1541 1555 1537 1570 1549 1520 1495 1501 1544 1503 1530 1609 1535 1495 1577 1531 1573 1523 1588 1589 1506 1645 1580 1486 1593 1563 1538 1609 1559 1509 1690 1538 1517 1511 1632 1569 1591 1550 1584 1551 1609 1597 1609 1638 1551 1561 1562 1623 1581 1673 1762 1578 1610 1659 1579 1624 1610 1643 1615 1689 1584 1657 1717 1649 1640 1681 1723 1754 1723 1755 1693 1763 1765 1823 1743 1717 1782 1774 1724 1810 1801 1802 1790 1818 1833 1805 1836 1803 1786 1750 1753 1912 1847 1818 1786 1852 1837 1792 1838 1794 1763 1789 1908 1790 1787 1780 1734 1858 1792 1668 1745 1794 1787 1827 1790 1815 1801 1739 1762 1803 1741 1733 1705 1741 1745 1765 1659 1674 1701 1762 1614 1658 1723 1681 1626 1682 1671 1604 1636 1653 1559 1664 1578 1612 1583 1590 1565 1548 1598 1621 1570 1668 1611 1615 1594 1576 1608 1566 1645 1637 1572 1593 1554 1634 1653 1557 1537 1498 1588 1616 1531 1533 1537 1632 1624 1621 1509 1529 1595 1668 1592 1635 1549 1561 1608 1595 1545 1568 1641 1577 1597 1628 1593 1607 1522 1592 1584 1613 1585 1464 1507 1522 1579 1488 1502 1526 1518 1634 1601 1558 1592 1541 1591 1491 1582 1559 1661 1569 1547 1449 1504 1548 1615 1593 1516 1519 1513 1557 1525 1609 1581 1578 1539 1487 1506 1508 1537 1559 1493 1576 1625 1558 1627 1495 1595 1541 1574 1487 1574 1577 1597 1575 1539 1523 1498 1627 1607 1573 1497 1509 1572 1507 1607 1601 1543 1583 1510 1536 1541 1619 1537 1551 1599 1578 1529 1551 1520 1565 1586 1576 1613 1576 1580 1533 1533 1561 1567 1560 1547 1521 1592 1572 1546 1539 1534 1608 1583 1590 1523 1512 1464 1548 1562 1595 1540 1606 1655 1580 1492 1542 1590 1587 1577 1620 1554 1525 1578 1608 1552 1574 1481 1486 1541 1615 1573 1520 1504 1540 1578 1612 1605 1527 1611 1513 1581 1508 1416 1523 1574 1536 1501 1557 1566 1623 1544 1517 1496 1596 1559 1562 1516 1563 1567 1477 1584 1515 1522 1484 1541 1496 1461 1541 1517 1472 1474 1504 1598 1521 1512 1526 1636 1548 1544 1497 1521 1531 1564 1514 1527 1600 1579 1526 1534 1574 1617 1543 1562 1528 1523 1471 1562 1647 1481 1560 1541 1589 1547 1519 1530 1532 1527 1541 1546 1530 1522 1560 1531 1563 1495 1554 1521 1534 1557 1568 1474 1599 1492 1503 1521 1571 1491 1484 1529 1507 1597 1531 1551 1710 1563 1545 1519 1567 1539 1623 1512 1486 1543 1567 1516 1499 1547 1506 1514 1547 1521 1553 1599 1556 1525 1638 1491 1519 1612 1558 1490 1561 1587 1530 1555 1590 1522 1555 1589 1606 1552 1631 1548 1569 1659 1557 1586 1589 1591 1625 1665 1583 1547 1599 1587 1545 1746 1600 1553 1589 1605 1576 1610 1557 1614 1572 1566 1566 1577 1583 1530 1629 1626 1518 1578 1632 1613 1549 1546 1555 1533 1564 1560 1552 1582 1516 1534 1555 1532 1535 1554 1550 1552 1584 1512 1467 1554 1501 1673 1583 1600 1543 1576 1596 1582 1529 1528 1522 1516 1546 1613 1487 1549 1549 1562 1549 1599 1536 1584 1564 1636 1508 1547 1598 1589 1609 1566 1512 1520 1552 1595 1558 1554 1522 1569 1524 1623 1525 1547 1597 1500 1556 1557 1507 1434 1526 1559 1577 1536 1567 1594 1552 1542 1633 1541 1641 1577 1595 1562 1547 1588 1538 1554 1571 1574 1555 1521 1578 1544 1547 1556 1593 1528 1535 1645 1563 1619 1486 1550 1581 1635 1619 1525 1527 1560 1481 1566 1493 1529 1569 1549 1560 1611 1558 1563 1549 1647 1543 1579 1527 1575 1564 1635 1574 1576 1588 1551 1706 1598 1660 1585 1647 1588 1546 1637 1596 1666 1622 1610 1631 1608 1562 1560 1592 1707 1644 1665 1549 1668 1618 1618 1661 1637 1598 1540 1656 1589 1670 1642 1723 1679 1615 1616 1685 1637 1663 1662 1724 1587 1683 1630 1584 1621 1655 1657 1669 1730 1646 1618 1559 1624 1615 1604 1580 1640 1672 1695 1678 1573 1627 1661 1679 1695 1669 1651 1712 1675 1682 1634 1633 1671 1661 1759 1689 1675 1736 1670 1704 1744 1705 1681 1772 1642 1731 1686 1665 1742 1731 1757 1701 1784 1748 1696 1737 1749 1721 1674 1699 1691 1750 1741 1704 1740 1781 1731 1793 1757 1731 1729 1825 1787 1843 1780 1779 1806 1793 1757 1756 1774 1717 1814 1814 1768 1772 1769 1677 1690 1775 1746 1778 1684 1763 1698 1664 1672 1682 1665 1635 1654 1656 1601 1654 1633 1595 1558 1573 1568 1595 1610 1594 1559 1611 1619 1534 1603 1602 1566 1577 1598 1491 1593 1490 1518 1644 1519 1600 1576 1592 1552 1527 1576 1610 1535 1589 1617 1575 1574 1564 1619 1539 1584 1598 1639 1580 1608 1555 1582 1514 1597 1600 1646 1574 1592 1627 1576 1602 1593 1579 1454 1584 1537 1549 1571 1650 1584 1502 1547 1623 1584 1567 1552 1543 1544 1512 1525 1603 1623 1605 1525 1566 1549 1555 1599 1592 1596 1561 1558 1587 1529 1505 1568 1615 1614 1582 1620 1563 1623 1538 1533 1536 1557 1642 1594 1556 1536 1585 1600 1596 1555 1564 1529 1545 1573 1558 1593 1580 1610 1535 1536 1476 1509 1651 1582 1493 1568 1500 1526 1525 1569 1549 1603 1622 1617 1453 1491 1566 1523 1642 1642 1619 1537 1551 1563 1636 1519 1573 1574 1563 1636 1570 1597 1580 1598 1592 1610 1589 1582 1519 1565 1604 1577 1612 1611 1623 1571 1507 1608 1575 1588 1579 1606 1531 1587 1603 1572 1543 1605 1602 1610 1551 1540 1575 1570 1662 1710 1698 1659 1661 1562 1641 1650 1590 1659 1606 1730 1694 1737 1750 1597 1712 1756 1755 1769 1678 1828 1767 1773 1839 1804 1915 1916 1894 1891 1884 1940 1987 1953 1993 2036 2070 2098 2134 2024 2106 2103 2066 2139 2175 2174 2216 2148 2150 2159 2311 2156 2261 2190 2190 2221 2146 2037 2162 2022 2063 2072 1954 1988 2004 2019 1883 1926 1958 1948 1958 1899 1778 1808 1806 1746 1788 1789 1762 1709 1766 1761 1634 1625 1623 1783 1599 1643 1613 1559 1627 1633 1679 1624 1582 1588 1631 1582 1541 1670 1577 1592 1661 1591 1569 1685 1600 1591 1577 1579 1612 1569 1541 1549 1631 1629 1584 1629 1520 1583 1601 1626 1603 1595 1543 1624 1599 1544 1598 1578 1571 1627 1588 1566 1530 1589 1622 1562 1578 1543 1600 1567 1625 1611 1560 1618 1596 1578 1596 1662 1564 1530 1645 1529 1580 1569 1550 1582 1546 1608 1613 1582 1538 1609 1620 1565 1589 1562 1669 1599 1553 1628 1615 1578 1645 1616 1565 1498 1527 1543 1557 1618 1656 1573 1589 1628 1576 1574 1549 1572 1601 1626 1602 1491 1651 1579 1633 1645 1622 1606 1631 1584 1552 1605 1660 1641 1568 1637 1662 1627 1670 1723 1654 1598 1675 1629 1682 1641 1658 1707 1684 1673 1763 1676 1699 1693 1719 1677 1643 1709 1770 1713 1676 1659 1734 1778 1800 1735 1750 1791 1773 1726 1829 1786 1757 1803 1733 1686 1772 1774 1760 1690 1739 1716 1684 1681 1779 1675 1652 1751 1758 1736 1718 1707 1704 1713 1711 1672 1600 1713 1690 1729 1700 1685 1695 1725 1624 1650 1576 1650 1786 1648 1684 1674 1676 1697 1682 1680 1642 1656 1701 1659 1633 1611 1685 1607 1682 1700 1702 1606 1638 1594 1614 1601 1650 1628 1545 1588 1577 1612 1496 1605 1641 1548 1616 1604 1569 1551 1648 1585 1611 1644 1609 1621 1621 1564 1558 1452 1521 1529 1626 1561 1545 1571 1595 1571 1573 1512 1582 1619 1547 1593 1558 1614 1664 1531 1581 1584 1552 1639 1540 1613 1650 1568 1558 1592 1563 1554 1617 1628 1588 1552 1552 1607 1505 1543 1520 1544 1613 1581 1579 1580 1599 1629 1600 1558 1564 1623 1540 1616 1565 1503 1505 1607 1597 1578 1618 1565 1608 1546 1610 1618 1595 1544 1589 1612 1564 1617 1620 1545 1596 1613 1621 1632 1636 1520 1639 1586 1608 1539 1612 1580 1577 1562 1555 1562 1604 1580 1580 1524 1538 1551 1595 1544 1670 1651 1549 1500 1579 1561 1590 1550 1578 1580 1590 1605 1541 1635 1499 1591 1701 1623 1562 1616 1592 1582 1651 1611 1610 1568 1594 1497 1588 1576 1585 1552 1545 1595 1582 1560 1557 1635 1532 1555 1535 1552 1679 1536 1642 1601 1583 1616 1587 1576 1601 1606 1557 1568 1560 1560 1563 1555 1638 1543 1542 1627 1567 1588 1614 1479 1635 1594 1522 1569 1563 1604 1537 1586 1616 1618 1609 1627 1597 1587 1557 1634 1550 1592 1577 1503 1523 1538 1538 1587 1551 1582 1560 1561 1560 1589 1572 1581 1637 1604 1540 1569 1588 1559 1652 1614 1580 1559 1650 1574 1603 1621 1606 1597 1605 1593 1571 1576 1605 1592 1671 1538 1567 1648 1650 1647 1542 1650 1636 1583 1632 1599 1656 1642 1632 1595 1614 1667 1605 1583 1646 1553 1623 1636 1689 1500 1642 1625 1651 1608 1564 1602 1635 1624 1662 1644 1596 1648 1575 1657 1607 1652 1622 1663 1586 1675 1593 1599 1641 1601 1648 1580 1628 1622 1588 1673 1618 1597 1579 1574 1620 1623 1623 1514 1515 1540 1623 1611 1638 1601 1604 1561 1655 1627 1585 1654 1663 1571 1612 1695 1580 1525 1580 1563 1532 1594 1564 1607 1634 1638 1540 1601 1605 1582 1613 1544 1519 1620 1539 1590 1623 1616 1610 1573 1574 1597 1580 1631 1530 1580 1591 1601 1540 1521 1634 1559 1643 1622 1546 1522 1602 1604 1614 1640 1562 1621 1631 1591 1515 1613 1497 1576 1513 1641 1586 1613 1596 1513 1635 1688 1611 1572 1621 1616 1560 1620 1606 1645 1634 1602 1577 1648 1652 1635 1621 1613 1629 1591 1651 1657 1588 1583 1630 1649 1617 1569 1609 1548 1591 1584 1583 1648 1636 1628 1585 1685 1623 1680 1570 1594 1711 1631 1663 1638 1605 1645 1643 1659 1662 1676 1677 1687 1663 1716 1592 1627 1645 1684 1613 1776 1693 1661 1750 1680 1667 1752 1698 1623 1713 1677 1811 1686 1649 1756 1725 1680 1738 1611 1763 1676 1704 1615 1674 1679 1688 1787 1722 1705 1690 1737 1696 1711 1643 1694 1730 1674 1729 1636 1620 1695 1675 1662 1603 1667 1647 1656 1653 1604 1666 1646 1621 1687 1592 1586 1644 1643 1568 1586 1540 1563 1584 1586 1566 1629 1607 1534 1671 1638 1511 1592 1581 1559 1587 1590 1562 1550 1620 1574 1658 1621 1644 1588 1612 1686 1654 1656 1623 1606 1560 1600 1625 1553 1643 1588 1642 1563 1532 1565 1573 1538 1576 1648 1629 1679 1643 1629 1543 1506 1602 1637 1585 1617 1584 1602 1565 1585 1605 1635 1584 1612 1619 1627 1599 1617 1606 1584 1634 1606 1628 1598 1598 1604 1663 1622 1594 1584 1630 1603 1579 1675 1562 1499 1642 1567 1627 1549 1560 1565 1593 1599 1599 1584 1678 1581 1561 1607 1595 1571 1619 1570 1586 1599 1600 1586 1636 1600 1586 1525 1606 1519 1604 1625 1642 1633 1580 1618 1630 1568 1643 1648 1635 1578 1654 1651 1599 1589 1605 1581 1645 1640 1612 1646 1517 1648 1589 1577 1580 1598 1615 1592 1606 1671 1548 1659 1617 1559 1641 1577 1624 1534 1637 1575 1590 1620 1629 1599 1638 1648 1621 1599 1666 1572 1607 1686 1595 1615 1618 1631 1636 1624 1674 1659 1649 1633 1542 1753 1620 1666 1653 1706 1559 1652 1709 1661 1609 1630 1593 1603 1652 1602 1619 1680 1559 1618 1587 1731 1642 1669 1603 1609 1658 1648 1656 1645 1665 1682 1698 1650 1692 1704 1706 1626 1698 1731 1637 1690 1617 1692 1684 1700 1635 1675 1628 1658 1632 1633 1704 1653 1661 1717 1610 1691 1714 1664 1648 1640 1737 1701 1653 1589 1692 1645 1662 1688 1730 1665 1701 1677 1673 1737 1642 1689 1649 1654 1675 1721 1741 1643 1639 1741 1701 1698 1673 1706 1691 1756 1703 1709 1743 1663 1741 1631 1645 1711 1756 1724 1752 1853 1775 1733 1795 1877 1795 1810 1838 1780 1830 1727 1786 1765 1841 1768 1815 1791 1745 1812 1681 1741 1748 1693 1764 1708 1713 1640 1667 1711 1672 1744 1707 1736 1700 1751 1701 1755 1722 1608 1740 1691 1597 1735 1700 1662 1637 1599 1692 1600 1652 1663 1667 1593 1617 1635 1588 1634 1642 1546 1625 1567 1658 1586 1686 1697 1638 1700 1695 1547 1573 1660 1658 1671 1636 1631 1719 1640 1599 1579 1609 1645 1640 1587 1666 1578 1624 1614 1608 1561 1605 1583 1631 1630 1603 1567 1571 1575 1613 1643 1619 1521 1666 1615 1588 1682 1546 1632 1628 1661 1600 1600 1636 1614 1600 1536 1584 1672 1659 1656 1685 1599 1651 1642 1643 1595 1605 1636 1578 1561 1569 1644 1645 1685 1590 1652 1668 1627 1571 1600 1552 1610 1690 1585 1603 1650 1646 1590 1607 1650 1658 1579 1655 1657 1565 1653 1579 1659 1622 1679 1654 1695 1603 1591 1680 1650 1490 1577 1623 1600 1611 1649 1636 1603 1692 1562 1582 1606 1672 1643 1652 1739 1662 1614 1678 1576 1575 1644 1664 1585 1702 1674 1627 1631 1614 1652 1621 1697 1590 1602 1603 1661 1647 1630 1677 1587 1669 1627 1634 1653 1646 1732 1651 1558 1613 1714 1682 1596 1657 1621 1634 1640 1672 1609 1601 1610 1650 1625 1717 1587 1625 1600 1617 1656 1626 1542 1655 1588 1679 1693 1595 1567 1613 1702 1581 1692 1652 1672 1659 1714 1565 1678 1735 1668 1666 1641 1621 1669 1592 1576 1655 1646 1656 1610 1738 1597 1649 1621 1589 1632 1620 1660 1654 1586 1650 1656 1539 1595 1700 1657 1624 1635 1656 1574 1712 1653 1634 1627 1670 1519 1645 1684 1672 1639 1599 1666 1643 1629 1644 1666 1601 1626 1711 1630 1638 1719 1681 1654 1683 1601 1625 1592 1585 1621 1631 1612 1708 1562 1581 1624 1593 1620 1674 1691 1569 1558 1692 1652 1669 1617 1659 1627 1647 1596 1632 1602 1593 1644 1665 1667 1588 1699 1625 1595 1641 1616 1614 1587 1668 1613 1674 1660 1709 1697 1607 1709 1600 1645 1654 1623 1604 1648 1590 1583 1675 1651 1608 1646 1659 1652 1696 1600 1604 1680 1679 1645 1670 1708 1689 1634 1582 1625 1702 1657 1610 1616 1638 1651 1615 1653 1662 1621 1616 1626 1608 1610 1575 1654 1622 1703 1672 1652 1637 1636 1641 1610 1596 1638 1652 1645 1590 1631 1582 1712 1672 1639 1616 1593 1692 1649 1693 1647 1633 1620 1605 1593 1669 1583 1677 1583 1618 1702 1595 1670 1659 1710 1733 1689 1611 1594 1726 1632 1610 1589 1659 1634 1693 1644 1660 1621 1674 1649 1654 1695 1602 1659 1678 1582 1649 1638 1668 1622 1639 1644 1651 1604 1584 1674 1613 1686 1639 1668 1608 1648 1595 1653 1616 1607 1693 1675 1598 1573 1648 1587 1652 1686 1703 1642 1614 1664 1639 1692 1674 1565 1573 1641 1653 1629 1677 1581 1645 1677 1662 1641 1683 1686 1655 1594 1783 1655 1615 1520 1607 1610 1716 1624 1645 1644 1724 1684 1655 1682 1714 1708 1642 1599 1617 1644 1675 1612 1628 1754 1615 1684 1650 1612 1573 1637 1625 1606 1670 1605 1700 1525 1562 1700 1537 1660 1641 1718 1623 1661 1594 1647 1608 1634 1751 1678 1611 1636 1675 1695 1636 1602 1601 1627 1655 1669 1543 1591 1646 1680 1616 1636 1636 1645 1681 1638 1560 1641 1704 1629 1661 1655 1737 1701 1616 1646 1578 1603 1706 1618 1631 1627 1617 1620 1704 1678 1657 1692 1606 1657 1649 1622 1660 1681 1668 1719 1668 1644 1673 1614 1708 1664 1738 1656 1747 1671 1653 1656 1698 1694 1683 1668 1791 1727 1663 1716 1727 1668 1694 1757 1734 1781 1681 1684 1711 1671 1727 1661 1739 1693 1711 1647 1700 1727 1723 1802 1755 1663 1780 1682 1751 1761 1712 1747 1714 1824 1806 1771 1702 1683 1774 1712 1743 1683 1758 1680 1706 1701 1796 1762 1713 1732 1685 1697 1748 1750 1737 1734 1667 1734 1715 1878 1679 1709 1768 1797 1764 1713 1793 1734 1704 1768 1789 1771 1704 1672 1711 1716 1778 1742 1731 1734 1771 1744 1782 1765 1730 1716 1797 1755 1767 1674 1703 1653 1732 1647 1767 1791 1703 1795 1713 1706 1761 1752 1706 1725 1659 1665 1685 1772 1750 1724 1746 1785 1731 1758 1717 1669 1686 1733 1652 1713 1661 1655 1722 1735 1642 1695 1735 1598 1654 1666 1746 1717 1663 1689 1699 1629 1720 1685 1675 1723 1705 1660 1665 1675 1686 1625 1606 1701 1738 1651 1688 1601 1699 1682 1741 1654 1639 1658 1664 1655 1704 1644 1661 1633 1634 1689 1681 1741 1661 1676 1658 1638 1653 1784 1731 1721 1673 1688 1684 1778 1553 1689 1716 1653 1623 1739 1644 1632 1733 1694 1629 1657 1687 1652 1681 1654 1702 1660 1670 1655 1760 1682 1633 1664 1618 1688 1728 1735 1672 1674 1695 1666 1658 1714 1683 1691 1647 1661 1630 1643 1696 1728 1665 1746 1701 1684 1715 1762 1728 1644 1660 1722 1703 1716 1670 1706 1727 1734 1665 1657 1668 1731 1673 1776 1659 1749 1769 1706 1749 1664 1718 1716 1609 1645 1725 1728 1659 1771 1804 1712 1743 1721 1728 1703 1785 1781 1822 1785 1764 1731 1838 1795 1751 1821 1839 1799 1808 1894 1852 1812 1838 1827 1774 1808 1796 1857 1900 1844 1786 1789 1888 1864 1815 1918 1886 1806 1881 1813 1886 1873 1859 1908 1796 1902 1827 1832 1894 1818 1824 1805 1852 1940 1816 1847 1896 1872 1876 1840 1851 1864 1937 1861 1931 1891 1974 1913 1843 1962 1888 1972 1922 1890 2008 1907 2008 2011 2057 1982 1965 2033 2042 2046 2042 2034 2018 2100 2039 2094 2079 1959 1971 1928 2020 1964 2072 2005 2069 2016 1975 1921 1911 2007 1980 1983 1960 1998 1961 1902 1997 1931 1884 1877 1885 1971 1860 1859 1879 1807 1900 1850 1968 1896 1746 1794 1803 1863 1891 1815 1772 1747 1792 1764 1788 1806 1751 1816 1700 1814 1739 1802 1708 1723 1717 1767 1692 1819 1657 1653 1724 1694 1760 1722 1756 1646 1722 1710 1703 1663 1777 1748 1700 1729 1731 1702 1687 1669 1754 1739 1819 1645 1644 1735 1701 1720 1672 1739 1740 1654 1690 1652 1698 1727 1677 1729 1686 1779 1693 1649 1703 1707 1679 1691 1677 1744 1698 1713 1706 1690 1676 1750 1683 1690 1664 1687 1623 1654 1711 1740 1687 1744 1733 1751 1680 1645 1655 1660 1693 1655 1782 1694 1713 1679 1730 1688 1758 1769 1715 1642 1658 1711 1695 1708 1711 1699 1765 1658 1626 1685 1643 1708 1652 1665 1711 1693 1757 1678 1705 1704 1747 1720 1788 1742 1688 1690 1662 1690 1733 1641 1658 1743 1702 1704 1736 1689 1768 1698 1714 1693 1729 1672 1827 1720 1737 1690 1768 1756 1776 1702 1704 1735 1676 1756 1717 1718 1672 1595 1680 1689 1687 1679 1697 1694 1749 1701 1721 1695 1641 1680 1757 1665 1680 1706 1663 1696 1643 1713 1672 1702 1665 1747 1669 1752 1677 1712 1700 1774 1698 1724 1724 1667 1750 1740 1733 1701 1675 1646 1705 1691 1699 1695 1716 1704 1699 1707 1680 1706 1638 1686 1725 1619 1648 1696 1719 1703 1702 1640 1657 1748 1688 1709 1637 1671 1797 1713 1705 1602 1664 1662 1654 1678 1771 1643 1736 1687 1690 1705 1686 1618 1700 1669 1630 1649 1663 1717 1643 1653 1672 1682 1706 1772 1728 1715 1750 1662 1782 1672 1700 1735 1615 1641 1654 1660 1710 1682 1635 1662 1689 1725 1645 1752 1731 1713 1631 1695 1642 1691 1659 1683 1609 1706 1755 1557 1681 1619 1639 1651 1699 1627 1689 1681 1657 1655 1608 1614 1697 1647 1626 1639 1677 1653 1720 1682 1669 1686 1708 1613 1623 1641 1671 1648 1637 1722 1702 1728 1675 1639 1739 1649 1692 1626 1683 1672 1638 1676 1729 1660 1690 1609 1659 1694 1672 1654 1713 1681 1656 1715 1688 1676 1691 1675 1642 1661 1697 1626 1627 1672 1672 1654 1678 1652 1711 1651 1638 1672 1638 1701 1646 1613 1714 1644 1665 1684 1685 1658 1690 1667 1655 1728 1671 1606 1669 1633 1612 1639 1688 1627 1686 1605 1624 1647 1679 1676 1749 1701 1709 1681 1745 1653 1649 1579 1719 1667 1750 1670 1629 1683 1716 1722 1676 1653 1676 1715 1637 1699 1647 1613 1736 1665 1701 1742 1790 1691 1635 1724 1745 1668 1669 1684 1663 1690 1716 1665 1632 1685 1742 1750 1655 1665 1706 1681 1722 1658 1664 1748 1678 1751 1628 1679 1632 1658 1651 1644 1612 1721 1752 1711 1702 1716 1622 1706 1714 1639 1724 1699 1778 1734 1651 1688 1684 1689 1655 1676 1711 1688 1731 1734 1636 1706 1717 1743 1655 1692 1651 1721 1662 1694 1628 1671 1668 1710 1648 1771 1658 1624 1697 1682 1648 1720 1744 1704 1609 1742 1644 1725 1714 1762 1706 1694 1678 1783 1667 1665 1704 1715 1673 1670 1719 1715 1715 1669 1709 1714 1656 1732 1634 1678 1755 1680 1706 1730 1731 1693 1749 1744 1681 1722 1679 1717 1701 1737 1736 1713 1656 1687 1744 1766 1631 1694 1725 1680 1722 1753 1724 1550 1717 1693 1671 1712 1706 1703 1770 1669 1789 1701 1709 1702 1711 1715 1670 1727 1652 1707 1688 1710 1675 1704 1657 1658 1637 1623 1695 1692 1738 1668 1654 1711 1669 1651 1678 1703 1657 1666 1718 1630 1701 1746 1690 1665 1708 1706 1698 1754 1718 1664 1688 1709 1770 1779 1799 1759 1752 1798 1668 1787 1722 1719 1667 1748 1781 1750 1746 1631 1686 1720 1688 1765 1714 1736 1719 1701 1731 1711 1764 1758 1716 1773 1690 1741 1716 1739 1638 1719 1713 1682 1673 1749 1701 1767 1681 1675 1699 1668 1706 1691 1709 1743 1775 1718 1682 1677 1685 1739 1678 1675 1748 1657 1747 1686 1648 1713 1663 1641 1748 1681 1687 1745 1627 1731 1718 1685 1746 1715 1740 1722 1701 1674 1722 1748 1764 1712 1698 1595 1690 1698 1703 1787 1708 1623 1730 1649 1684 1689 1724 1731 1656 1650 1662 1700 1634 1649 1673 1694 1685 1639 1675 1769 1671 1661 1716 1660 1658 1696 1712 1753 1725 1767 1680 1658 1683 1684 1686 1685 1792 1634 1639 1858 1640 1710 1658 1751 1665 1618 1696 1696 1682 1748 1633 1693 1729 1712 1752 1666 1714 1617 1685 1759 1681 1684 1720 1705 1709 1706 1783 1654 1663 1692 1658 1684 1712 1740 1683 1696 1666 1721 1714 1686 1702 1755 1724 1771 1704 1753 1674 1674 1761 1693 1740 1730 1677 1729 1697 1583 1690 1765 1661 1705 1797 1726 1732 1681 1746 1703 1738 1755 1626 1736 1699 1702 1674 1714 1665 1804 1738 1757 1730 1711 1755 1650 1672 1666 1627 1765 1789 1767 1817 1809 1762 1713 1645 1764 1729 1712 1756 1761 1754 1826 1816 1812 1751 1740 1763 1828 1806 1827 1828 1802 1787 1796 1788 1868 1833 1816 1846 1789 1809 1796 1857 1857 1852 1896 1873 1819 1734 1843 1839 1855 1874 1906 1815 1804 1822 1868 1828 1838 1925 1932 1860 1820 1908 1825 1905 1864 1878 1867 1894 1951 1867 1806 1870 1915 1842 1917 1959 1929 1929 1850 2001 1954 1926 2009 1948 2024 1978 1929 2008 1940 2016 1967 2007 2016 2000 1989 1978 1912 1860 1947 1888 1959 1874 1975 1935 1908 1913 1875 1945 1966 1934 1805 1888 2006 1847 1883 1914 1875 1829 1883 1807 1833 1842 1846 1854 1849 1838 1828 1854 1772 1814 1808 1882 1839 1726 1824 1773 1747 1759 1658 1759 1745 1714 1737 1685 1781 1736 1710 1735 1709 1758 1747 1700 1731 1797 1669 1692 1735 1761 1759 1765 1694 1755 1710 1862 1687 1712 1714 1687 1752 1714 1639 1709 1726 1775 1691 1677 1671 1698 1749 1728 1752 1660 1728 1771 1682 1719 1763 1758 1702 1701 1707 1768 1693 1778 1690 1699 1736 1700 1710 1668 1668 1695 1760 1694 1706 1690 1722 1677 1727 1666 1680 1661 1747 1689 1709 1741 1696 1793 1764 1713 1698 1746 1687 1708 1727 1744 1680 1708 1762 1691 1717 1763 1697 1680 1716 1694 1718 1745 1704 1694 1734 1758 1699 1640 1688 1735 1727 1712 1781 1755 1663 1700 1662 1767 1746 1698 1761 1760 1710 1697 1743 1714 1654 1744 1698 1637 1743 1745 1697 1686 1732 1714 1631 1742 1687 1775 1695 1741 1683 1682 1701 1738 1660 1738 1705 1764 1717 1703 1681 1650 1691 1710 1648 1689 1693 1758 1734 1706 1762 1683 1643 1748 1689 1714 1639 1803 1789 1645 1727 1667 1743 1692 1706 1799 1755 1768 1739 1712 1648 1687 1710 1750 1722 1688 1737 1658 1721 1662 1667 1696 1627 1711 1749 1702 1747 1678 1657 1655 1728 1772 1718 1654 1786 1663 1704 1667 1740 1733 1709 1731 1753 1646 1691 1641 1761 1721 1695 1695 1688 1739 1758 1741 1707 1667 1678 1645 1644 1711 1769 1731 1648 1827 1747 1757 1669 1683 1737 1725 1663 1704 1700 1577 1699 1673 1663 1671 1697 1645 1638 1727 1713 1677 1687 1657 1666 1706 1764 1696 1717 1736 1829 1629 1725 1717 1708 1619 1730 1701 1727 1681 1689 1659 1677 1727 1679 1705 1661 1644 1635 1682 1678 1723 1782 1740 1784 1806 1641 1689 1771 1698 1660 1686 1715 1725 1704 1721 1703 1703 1827 1716 1704 1631 1699 1724 1722 1666 1590 1632 1753 1729 1662 1737 1768 1670 1705 1741 1687 1729 1776 1664 1673 1715 1710 1731 1705 1631 1710 1632 1734 1628 1764 1676 1683 1694 1752 1708 1736 1746 1659 1718 1639 1703 1672 1658 1725 1695 1709 1732 1715 1690 1684 1722 1719 1655 1774 1707 1773 1750 1695 1705 1707 1706 1792 1613 1689 1763 1667 1680 1694 1764 1670 1729 1702 1672 1686 1637 1760 1783 1704 1590 1723 1714 1703 1678 1703 1637 1772 1755 1630 1717 1638 1788 1697 1792 1742 1669 1698 1705 1656 1668 1753 1726 1691 1710 1707 1720 1636 1749 1743 1727 1703 1740 1691 1712 1688 1705 1751 1770 1772 1706 1695 1676 1736 1718 1754 1757 1641 1691 1671 1663 1669 1768 1788 1713 1728 1695 1702 1711 1639 1694 1701 1647 1722 1779 1685</counts>
			</dataPoints>
		</scan>
	</xrdMeasurement>
</xrdMeasurements>
