<?xml version="1.0"?>
<xrdMeasurements xmlns="http://www.xrdml.com/XRDMeasurement/2.3" xmlns:xsi="http://www.w3.org/2001/XMLSchema-instance" xsi:schemaLocation="http://www.xrdml.com/XRDMeasurement/2.3 http://www.xrdml.com/XRDMeasurement/2.3/XRDMeasurement.xsd" status="Completed" recordIdentifier="{312EEFF9-5987-4C2C-AB67-B4D0F0C7964C}">
	<comment>
		<entry/>
	</comment>
	<sample type="To be analyzed">
		<id>GPSS_Li1p65Mn0p85In0p05Ta0p10Cl4_111225_691549b847a6a0fd7c6580cb</id>
		<name></name>
		<preparedBy></preparedBy>
	</sample>
	<xrdMeasurement measurementType="Scan" status="Completed" sampleMode="Reflection">
		<usedWavelength intended="K-Alpha 1">
			<kAlpha1 unit="Angstrom">1.5405980</kAlpha1>
			<kAlpha2 unit="Angstrom">1.5444260</kAlpha2>
			<kBeta unit="Angstrom">1.3922500</kBeta>
			<ratioKAlpha2KAlpha1>0.5000</ratioKAlpha2KAlpha1>
		</usedWavelength>
		<incidentBeamPath>
			<radius unit="mm">145.00</radius>
			<xRayTube id="1010048" name="Empyrean Cu LFF HR (9430 033 7310x)">
				<tension unit="kV">40.0</tension>
				<current unit="mA">15.0</current>
				<anodeMaterial>Cu</anodeMaterial>
				<focus type="Line">
					<length unit="mm">12.0</length>
					<width unit="mm">0.4</width>
					<takeOffAngle unit="deg">6.0</takeOffAngle>
				</focus>
			</xRayTube>
			<sollerSlit id="21010002" name="Soller slits 0.04 rad.">
				<opening unit="rad">0.0400</opening>
			</sollerSlit>
			<mask id="22031000" name="Fixed mask 13 mm">
				<width unit="mm">9.00</width>
			</mask>
			<divergenceSlit id="22120001" name="Divergence slit 1°" xsi:type="fixedDivergenceSlitType">
				<distanceToSample unit="mm">50.00</distanceToSample>
				<height unit="mm">1.52</height>
			</divergenceSlit>
		</incidentBeamPath>
		<sampleMovement xsi:type="spinningSampleMovementType">
			<spinnerRevolutionTime unit="seconds">1.0</spinnerRevolutionTime>
		</sampleMovement>
		<diffractedBeamPath>
			<radius unit="mm">145.00</radius>
			<antiScatterSlit id="22090040" name="AS slit 9 mm (PIXcel)" xsi:type="fixedAntiScatterSlitType">
				<height unit="mm">9.00</height>
			</antiScatterSlit>
			<sollerSlit id="21020003" name="Large Soller slits 0.04 rad.">
				<opening unit="rad">0.0400</opening>
			</sollerSlit>
			<filter id="20030001" name="Large beta-filter Nickel">
				<material>Ni</material>
				<thickness unit="mm">0.020</thickness>
			</filter>
			<detector id="7010019" name="PIXcel1D-Medipix3 detector" xsi:type="rtmsDetectorType">
				<phd unit="keV">
					<lowerLevel>4.02</lowerLevel>
					<upperLevel>11.27</upperLevel>
				</phd>
				<mode>Scanning</mode>
				<activeLength unit="deg">5.542</activeLength>
			</detector>
		</diffractedBeamPath>
		<scan appendNumber="0" mode="Continuous" scanAxis="Gonio" status="Completed">
			<header>
				<startTimeStamp>2025-11-16T15:44:28-08:00</startTimeStamp>
				<endTimeStamp>2025-11-16T15:52:40-08:00</endTimeStamp>
				<author>
					<name>AutomatedUser</name>
				</author>
				<source>
					<applicationSoftware version="1.7b (136)">PANalytical Aeris Instrument Suite</applicationSoftware>
					<instrumentControlSoftware version="3.2.00000000 20240306">AERIS</instrumentControlSoftware>
					<instrumentID>950485</instrumentID>
				</source>
			</header>
			<dataPoints>
				<positions axis="2Theta" unit="deg">
					<startPosition>10.00943322</startPosition>
					<endPosition>99.99442286</endPosition>
				</positions>
				<positions axis="Omega" unit="deg">
					<startPosition>5.00471661</startPosition>
					<endPosition>49.99721143</endPosition>
				</positions>
				<commonCountingTime unit="seconds">12.495</commonCountingTime>
				<counts unit="counts">2707 2669 2596 2638 2720 2674 2776 2732 2642 2739 2714 2774 2750 2694 2785 2788 2722 2715 2709 2728 2764 2689 2597 2777 2740 2660 2727 2683 2654 2758 2715 2647 2677 2711 2774 2660 2711 2690 2727 2689 2812 2660 2709 2724 2845 2703 2788 2693 2698 2698 2745 2671 2787 2696 2753 2700 2659 2716 2824 2763 2722 2779 2700 2717 2725 2660 2708 2738 2668 2641 2728 2665 2641 2771 2827 2786 2716 2756 2781 2787 2743 2803 2747 2775 2648 2723 2853 2822 2694 2877 2738 2795 2772 2773 2771 2718 2773 2745 2856 2714 2682 2799 2747 2725 2807 2788 2816 2854 2715 2905 2753 2833 2788 2730 2815 2903 2826 2666 2788 2720 2844 2816 2747 2772 2859 2731 2788 2810 2838 2800 2801 2687 2756 2833 2836 2752 2696 2827 2866 2794 2778 2831 2839 2782 2750 2754 2779 2829 2757 2788 2673 2750 2779 2886 2793 2864 2844 2818 2775 2797 2820 2938 2872 2815 2734 2837 2806 2839 2782 2803 2834 2735 2791 2784 2855 2893 2801 2755 2817 2860 2823 2783 2727 2754 2779 2742 2767 2752 2776 2711 2801 2762 2838 2763 2859 2774 2782 2791 2846 2793 2877 2792 2789 2776 2695 2838 2816 2704 2791 2721 2734 2690 2807 2704 2727 2710 2761 2707 2679 2755 2773 2585 2771 2706 2642 2771 2626 2667 2802 2793 2688 2766 2819 2794 2669 2746 2697 2659 2772 2814 2711 2714 2725 2737 2684 2633 2720 2716 2580 2642 2687 2697 2752 2662 2585 2652 2662 2622 2626 2690 2684 2702 2663 2641 2745 2690 2720 2732 2665 2601 2610 2656 2687 2719 2663 2719 2665 2716 2720 2665 2668 2681 2624 2648 2635 2669 2561 2642 2741 2648 2676 2686 2663 2680 2676 2521 2672 2685 2558 2677 2605 2674 2611 2745 2562 2720 2688 2777 2732 2718 2675 2715 2669 2786 2672 2667 2740 2637 2763 2653 2670 2725 2675 2685 2634 2729 2642 2636 2592 2689 2728 2650 2726 2774 2682 2712 2669 2638 2733 2728 2749 2782 2701 2700 2768 2793 2717 2757 2807 2782 2785 2797 2631 2748 2663 2823 2810 2803 2663 2733 2782 2861 2857 2715 2787 2748 2811 2761 2856 2866 2790 2740 2768 2829 2892 2944 2933 2923 2705 2845 2866 2825 2898 2892 2832 2791 2817 2893 2894 2848 2923 2940 2857 2990 2949 2943 2993 2904 2957 2995 3109 3059 3009 3048 3139 3012 3124 3102 3061 3082 3140 3210 3155 3219 3178 3211 3275 3213 3266 3353 3193 3262 3245 3236 3289 3275 3402 3355 3459 3392 3328 3384 3464 3460 3510 3455 3434 3410 3478 3576 3495 3440 3444 3451 3470 3504 3289 3451 3314 3467 3387 3498 3462 3431 3429 3491 3459 3442 3433 3459 3494 3537 3524 3466 3457 3540 3527 3441 3485 3463 3463 3523 3469 3549 3470 3568 3376 3504 3523 3530 3438 3350 3462 3445 3376 3453 3396 3278 3449 3279 3258 3227 3184 3210 3185 3237 3282 3149 3113 3176 3203 3142 3185 3116 3056 3105 3160 3156 3107 3109 3130 3024 3113 3077 3046 3192 3084 2943 3020 3053 3159 3052 2977 2969 3060 3077 3064 2900 3090 2965 3088 2903 2839 2985 2870 2952 2910 2879 2936 2903 2956 2961 2946 2885 2989 2836 2863 2939 2826 2912 2892 2906 2871 2932 2809 2907 2817 2825 2819 2885 2693 2724 2785 2775 2742 2775 2850 2844 2777 2837 2902 2841 2771 2805 2756 2652 2839 2782 2692 2837 2626 2758 2723 2786 2687 2616 2761 2778 2770 2709 2666 2671 2655 2748 2748 2749 2799 2748 2764 2692 2682 2650 2696 2640 2662 2668 2726 2669 2560 2726 2729 2671 2653 2588 2622 2727 2685 2696 2716 2675 2555 2526 2718 2621 2638 2641 2647 2603 2565 2670 2625 2625 2584 2677 2640 2521 2624 2629 2667 2586 2502 2597 2621 2570 2487 2655 2589 2669 2544 2642 2519 2653 2545 2596 2666 2618 2581 2579 2488 2505 2529 2548 2575 2576 2500 2633 2543 2518 2578 2591 2600 2530 2569 2502 2491 2524 2519 2471 2513 2422 2597 2503 2665 2527 2618 2521 2580 2449 2548 2458 2436 2472 2459 2499 2504 2407 2558 2484 2452 2478 2450 2502 2448 2540 2471 2504 2543 2571 2587 2522 2435 2447 2509 2492 2564 2485 2526 2476 2561 2483 2470 2477 2408 2567 2557 2447 2455 2417 2479 2439 2454 2495 2554 2559 2566 2457 2466 2429 2538 2422 2486 2432 2513 2485 2463 2517 2524 2443 2437 2271 2407 2500 2529 2455 2495 2409 2488 2480 2452 2483 2383 2474 2410 2428 2393 2488 2453 2473 2465 2363 2480 2429 2454 2352 2440 2469 2528 2368 2467 2483 2365 2405 2398 2429 2338 2447 2434 2451 2420 2367 2472 2404 2439 2494 2452 2456 2367 2425 2451 2430 2429 2444 2422 2376 2427 2276 2337 2366 2399 2425 2387 2438 2436 2406 2428 2500 2467 2384 2368 2443 2373 2413 2399 2514 2426 2425 2367 2379 2438 2303 2368 2312 2364 2335 2387 2477 2360 2402 2398 2439 2322 2295 2377 2368 2406 2409 2348 2347 2380 2351 2373 2274 2395 2465 2386 2352 2414 2397 2328 2327 2289 2344 2360 2300 2383 2353 2284 2373 2286 2368 2343 2352 2300 2263 2260 2324 2288 2352 2341 2340 2306 2322 2333 2347 2349 2242 2378 2409 2361 2274 2299 2315 2395 2295 2333 2341 2316 2296 2262 2227 2280 2323 2277 2333 2265 2244 2264 2306 2264 2320 2260 2213 2251 2285 2311 2271 2205 2303 2253 2206 2304 2248 2259 2325 2238 2213 2305 2297 2239 2288 2249 2229 2227 2237 2219 2290 2250 2164 2282 2306 2199 2253 2217 2169 2296 2298 2233 2390 2276 2250 2227 2160 2230 2281 2196 2169 2177 2238 2348 2182 2166 2201 2235 2214 2220 2283 2297 2257 2241 2165 2261 2147 2214 2213 2182 2217 2310 2243 2222 2285 2197 2226 2173 2218 2196 2167 2119 2255 2258 2174 2148 2129 2233 2242 2177 2240 2209 2275 2165 2211 2199 2017 2248 2159 2143 2229 2233 2196 2184 2152 2253 2158 2173 2210 2169 2192 2202 2186 2230 2211 2155 2228 2069 2140 2160 2139 2173 2205 2215 2228 2229 2166 2209 2198 2153 2233 2215 2213 2290 2145 2225 2178 2207 2258 2223 2232 2276 2231 2238 2205 2137 2199 2181 2236 2208 2169 2197 2236 2126 2222 2221 2120 2265 2204 2252 2222 2250 2176 2233 2149 2192 2293 2227 2140 2188 2233 2201 2276 2206 2156 2117 2159 2149 2190 2253 2220 2302 2266 2162 2220 2159 2252 2224 2204 2260 2217 2199 2181 2246 2294 2245 2236 2151 2286 2233 2194 2237 2167 2194 2249 2165 2221 2202 2166 2186 2157 2188 2206 2125 2259 2229 2191 2201 2101 2194 2160 2187 2240 2222 2139 2198 2167 2158 2131 2125 2184 2149 2209 2219 2190 2153 2189 2185 2243 2127 2153 2181 2172 2241 2268 2161 2145 2164 2130 2113 2187 2116 2145 2214 2172 2106 2137 2002 2134 2133 2112 2116 2129 2221 2111 2159 2138 2134 2194 2149 2204 2135 2070 2108 2102 2221 2066 2157 2063 2045 2152 2100 2043 2034 2076 2032 2129 2016 2151 1966 2010 1981 2066 2022 2063 2053 2020 2101 2015 2087 1968 2011 1985 2010 2117 2044 2057 1997 2040 1932 1918 1916 2036 2042 2030 1925 1980 1954 1950 1919 1936 2022 2012 1853 1961 2011 1934 1904 2016 1946 1924 1980 1919 1878 1964 1869 1865 1911 1944 1927 1995 1921 1945 1908 1932 1943 1903 1818 1833 1883 1884 1920 1783 1901 1858 1934 1907 1824 1938 1919 1849 1909 1843 1945 1866 1812 1831 1865 1895 1825 1832 1806 1881 1831 1816 1789 1788 1847 1741 1853 1885 1845 1812 1824 1854 1802 1813 1731 1774 1780 1787 1820 1779 1855 1715 1766 1670 1752 1843 1869 1759 1832 1800 1712 1708 1804 1824 1715 1730 1743 1772 1739 1672 1750 1715 1771 1821 1759 1752 1753 1737 1772 1657 1703 1655 1619 1713 1795 1758 1684 1701 1709 1666 1683 1686 1697 1656 1758 1719 1730 1678 1639 1706 1698 1681 1677 1747 1654 1646 1703 1701 1725 1627 1681 1743 1683 1695 1690 1721 1601 1665 1677 1671 1628 1658 1636 1649 1697 1649 1684 1723 1717 1685 1732 1726 1669 1672 1682 1603 1651 1668 1646 1637 1642 1694 1654 1716 1651 1669 1731 1628 1636 1656 1688 1611 1653 1627 1714 1673 1671 1620 1754 1597 1703 1665 1647 1607 1681 1643 1702 1611 1714 1661 1736 1616 1694 1761 1672 1706 1630 1617 1680 1651 1677 1794 1726 1638 1639 1709 1767 1702 1716 1725 1687 1698 1675 1632 1658 1708 1745 1648 1717 1734 1723 1689 1669 1745 1679 1759 1722 1693 1683 1702 1653 1653 1682 1718 1641 1640 1688 1643 1681 1707 1686 1645 1626 1681 1700 1772 1665 1644 1639 1705 1665 1682 1659 1748 1662 1696 1704 1727 1636 1708 1685 1700 1619 1715 1858 1697 1692 1716 1731 1752 1773 1664 1731 1696 1691 1700 1754 1692 1713 1720 1698 1652 1719 1661 1636 1786 1736 1725 1699 1675 1748 1668 1671 1700 1700 1773 1719 1707 1687 1713 1703 1650 1679 1711 1728 1756 1703 1637 1601 1666 1632 1680 1742 1703 1753 1599 1592 1725 1674 1715 1654 1712 1669 1627 1729 1686 1554 1659 1721 1635 1648 1672 1734 1604 1718 1662 1716 1619 1555 1575 1580 1680 1667 1637 1636 1639 1626 1649 1670 1636 1555 1620 1687 1648 1606 1607 1598 1525 1609 1580 1642 1550 1588 1608 1613 1630 1635 1593 1623 1583 1591 1579 1605 1662 1616 1647 1535 1515 1642 1534 1493 1469 1581 1591 1564 1504 1624 1457 1587 1534 1551 1542 1511 1526 1564 1624 1518 1596 1517 1546 1517 1578 1548 1564 1520 1546 1536 1526 1499 1515 1516 1541 1509 1479 1561 1502 1526 1532 1554 1526 1513 1536 1598 1523 1570 1534 1582 1669 1699 1642 1582 1691 1719 1707 1690 1780 1740 1870 1847 1715 1844 1862 1861 1904 1871 1950 1953 1931 1917 1966 2012 2052 2100 2065 2017 2112 2069 1989 2026 1951 1973 1917 1893 1840 1776 1868 1766 1802 1704 1755 1744 1699 1691 1643 1654 1600 1706 1719 1557 1637 1585 1577 1622 1583 1670 1640 1626 1759 1636 1645 1670 1664 1623 1636 1607 1598 1681 1666 1629 1558 1583 1587 1547 1567 1580 1536 1555 1537 1515 1532 1424 1436 1425 1403 1488 1419 1427 1464 1383 1392 1420 1393 1322 1408 1354 1386 1362 1377 1387 1397 1358 1350 1357 1352 1350 1443 1384 1349 1419 1429 1421 1426 1413 1483 1509 1558 1544 1578 1590 1613 1704 1722 1779 1772 1839 1758 1911 1904 1940 2024 1996 2071 2062 2142 2173 2142 2081 2202 2251 2219 2351 2317 2320 2219 2214 2166 2224 2168 2147 2096 2023 2028 2001 1960 1931 1799 1780 1779 1707 1815 1698 1694 1664 1621 1712 1679 1642 1713 1597 1669 1700 1697 1691 1723 1779 1748 1785 1789 1796 1808 1817 1835 1879 1880 1976 1934 1996 1852 1946 1967 1876 1912 1865 1900 1863 1835 1814 1801 1673 1613 1688 1652 1476 1541 1487 1465 1493 1448 1323 1373 1403 1399 1353 1349 1317 1368 1351 1362 1321 1358 1317 1282 1314 1253 1278 1275 1313 1253 1319 1346 1246 1259 1274 1345 1201 1271 1346 1232 1288 1389 1310 1238 1290 1259 1265 1221 1268 1197 1202 1131 1232 1208 1277 1192 1264 1217 1197 1215 1247 1188 1264 1143 1206 1152 1150 1144 1233 1204 1175 1137 1156 1174 1154 1239 1233 1161 1162 1098 1179 1175 1171 1167 1177 1149 1148 1201 1148 1181 1205 1193 1160 1123 1160 1184 1208 1135 1154 1164 1200 1206 1138 1126 1187 1221 1133 1125 1161 1150 1175 1124 1109 1117 1106 1153 1151 1114 1164 1216 1082 1161 1129 1112 1132 1192 1148 1171 1142 1144 1107 1141 1105 1096 1147 1096 1103 1086 1097 1184 1104 1089 1107 1123 1129 1121 1084 1124 1118 1111 1188 1153 1118 1111 1179 1123 1131 1158 1117 1138 1110 1058 1128 1122 1132 1118 1132 1136 1150 1151 1072 1133 1123 1119 1119 1057 1121 1089 1126 1087 1084 1186 1075 1109 1065 1076 1100 1146 1093 1050 1085 1117 1120 1132 1111 1099 1152 1180 1100 1058 1118 1182 1131 1097 1114 1128 1114 1155 1108 1101 1075 1098 1126 1090 1146 1120 1104 1046 1162 1053 1125 1129 1088 1090 1066 1093 1067 1141 1145 1109 1104 1088 1092 1052 1086 1125 1105 1088 1092 1122 1105 1056 1123 1091 1064 1113 1112 1082 1103 1083 1052 1055 1138 1040 1070 1042 1100 1154 1068 1121 1163 1150 1147 1117 1192 1062 1102 1100 1122 1122 1153 1057 1127 1117 1142 1105 1132 1064 1147 1163 1141 1172 1068 1130 1132 1121 1163 1122 1060 1173 1156 1094 1118 1129 1063 1113 1122 1126 1120 1080 1160 1120 1175 1178 1143 1096 1117 1148 1140 1138 1183 1135 1164 1178 1140 1155 1131 1183 1138 1187 1124 1221 1230 1156 1223 1157 1235 1148 1179 1215 1242 1207 1265 1228 1260 1284 1247 1274 1313 1358 1405 1351 1434 1494 1555 1571 1629 1616 1736 1829 1925 2123 2272 2568 2499 2815 3020 3115 3207 3460 3433 3600 3786 3810 3932 3926 4188 4187 4317 4489 4468 4503 4542 4662 4622 4566 4474 4448 4365 4336 4139 4112 3830 3769 3626 3551 3370 3237 3150 2990 3001 3027 2786 2805 2741 2805 2660 2708 2806 2505 2723 2702 2737 2700 2775 2737 2672 2760 2640 2760 2752 2756 2784 2848 2695 2668 2570 2714 2608 2662 2558 2575 2415 2395 2388 2243 2197 2216 2242 2057 1931 1926 1941 1830 1776 1841 1664 1764 1682 1598 1621 1628 1585 1516 1470 1488 1527 1466 1597 1483 1396 1411 1374 1373 1388 1327 1369 1232 1403 1379 1356 1275 1300 1266 1273 1235 1234 1259 1245 1218 1264 1275 1245 1179 1179 1232 1225 1162 1175 1207 1167 1235 1176 1205 1257 1229 1133 1176 1190 1144 1181 1138 1107 1121 1099 1091 1151 1083 1091 1100 1100 1148 1067 1090 1108 1077 1078 1056 999 1067 1092 1044 1123 1090 1085 1118 1091 1112 1081 1087 1008 976 1082 1084 1045 1050 1003 1047 1050 1049 1049 1061 1052 1048 1044 1010 1061 1085 1109 1097 1054 1017 1070 990 1117 1052 1097 1100 1030 1067 1109 1048 1072 1044 1090 1022 1011 1040 956 1026 1095 979 1067 1075 1027 1024 1095 1025 1028 1073 1055 1054 1020 1066 1042 981 1037 965 1024 1004 1038 1068 987 1033 1014 1041 1089 1033 1020 1034 1088 1043 1046 1018 1000 1020 1031 1064 1014 1010 1038 990 977 1010 1112 1073 1054 1027 1021 1067 1030 1065 1045 1031 976 1011 1033 999 974 1035 939 1033 996 1036 1011 1009 1007 1038 1051 1014 1009 1046 1014 1047 1048 1014 1039 1043 1045 1029 1016 1059 980 987 1030 968 1049 1168 1085 1098 1083 1077 1083 1016 1041 1010 964 1044 1060 1093 1085 1057 1133 1061 1066 1098 1123 1145 1018 1059 1036 1081 1007 1081 1000 1020 1065 1042 1056 1049 1064 1063 1067 993 995 965 1035 1055 980 986 1017 994 1053 1058 1076 1029 1021 1056 1011 1014 1038 1067 1059 1058 1005 1019 1004 1019 1022 1053 1031 1071 986 1020 1060 1068 977 1040 1002 1053 1035 1043 1018 1051 973 981 1019 1040 1040 1007 1052 1040 1048 951 1005 969 971 1028 1006 1027 1001 1013 928 1017 1004 1004 959 1005 1022 999 1003 967 996 1006 964 987 1018 950 1058 974 957 1008 934 942 957 963 954 973 990 992 1003 955 941 1055 1001 933 950 925 946 927 953 988 1005 1011 957 992 930 953 926 983 954 939 1058 922 950 933 979 942 991 945 947 930 974 958 986 946 942 992 957 932 958 949 1018 974 957 921 976 955 939 985 888 897 947 1000 994 923 947 973 1015 946 874 961 1004 917 977 929 948 979 1018 921 959 932 969 933 931 990 966 986 929 948 925 960 937 898 950 976 919 941 962 939 972 905 925 932 945 931 1015 944 978 937 974 908 934 943 949 980 904 922 943 1007 926 1020 930 969 879 926 941 909 907 952 986 948 939 994 984 943 987 953 937 917 953 987 942 918 940 960 966 940 901 907 926 982 928 928 949 973 966 942 936 921 940 918 990 891 909 911 948 950 970 944 912 950 970 959 938 950 983 921 958 930 950 1012 948 945 901 944 954 942 913 915 950 895 985 879 965 931 914 910 990 937 971 965 1014 930 939 953 930 955 919 925 945 924 931 903 935 946 904 978 967 966 908 893 909 954 896 902 924 891 931 929 897 957 949 919 928 961 906 962 949 909 875 917 925 899 950 924 881 970 921 911 972 897 923 934 895 925 917 982 923 889 930 969 987 932 966 887 946 932 953 908 980 866 952 865 926 880 962 903 856 943 953 864 965 932 887 904 907 951 938 913 958 939 1002 946 968 908 972 963 902 938 973 958 953 894 933 906 883 961 911 959 947 940 914 888 894 904 935 887 981 961 898 879 857 900 952 902 940 922 916 949 951 882 960 926 885 880 932 893 921 959 925 976 923 941 951 937 966 892 868 950 868 962 896 952 929 949 918 897 937 895 960 925 996 922 961 933 967 941 948 921 964 917 946 923 899 922 916 934 907 919 906 922 976 948 895 932 915 875 916 837 916 869 956 935 904 897 939 916 912 960 908 912 922 963 907 950 931 964 909 925 905 957 925 925 957 922 897 930 875 959 913 928 862 915 925 936 914 915 949 907 956 910 950 950 891 916 901 868 913 911 925 934 886 874 936 959 911 917 880 913 896 903 911 934 897 911 935 967 887 804 912 915 913 948 994 908 937 971 902 935 990 892 891 920 932 878 961 922 921 974 908 905 943 855 934 920 944 942 928 955 903 959 942 908 906 885 917 982 930 950 931 903 962 938 926 983 893 946 936 942 1011 886 930 893 906 948 942 905 929 911 971 942 932 946 930 944 941 989 946 911 999 935 933 908 963 982 945 946 940 949 961 961 974 974 959 899 928 954 960 906 917 883 937 935 967 995 957 955 954 896 901 960 969 936 931 933 984 957 1030 980 1019 1006 997 1029 1042 990 967 1190 1111 1141 1152 1238 1166 1244 1266 1261 1301 1327 1338 1320 1349 1367 1421 1432 1363 1466 1377 1362 1405 1463 1390 1363 1402 1330 1394 1262 1338 1283 1264 1234 1199 1231 1164 1182 1185 1167 1068 1119 1080 1073 1117 1092 1064 1041 989 1047 961 1085 1026 998 1019 955 1090 1083 1016 1021 1066 981 1015 1021 1026 1010 997 1026 1000 1013 939 977 983 979 1005 957 1000 937 992 946 1027 924 959 1014 916 940 875 945 1002 936 1004 950 945 951 966 929 1011 950 986 994 928 954 941 976 966 1000 978 1000 962 995 969 931 892 948 932 984 1005 919 920 964 952 936 956 940 935 889 943 937 912 936 920 939 949 883 967 898 854 973 918 1006 900 906 936 936 897 907 946 942 940 923 936 956 954 970 968 941 970 901 909 941 977 981 941 887 948 950 946 891 940 912 896 918 905 941 841 898 931 904 916 896 948 884 889 945 903 932 920 878 834 872 878 884 912 906 913 964 870 932 913 839 891 937 889 961 938 859 923 856 900 848 921 967 899 910 864 951 865 918 914 880 848 939 917 915 883 950 900 961 968 888 867 996 875 923 877 918 890 946 935 950 956 951 916 947 940 945 939 924 897 939 919 872 871 900 940 966 977 924 932 883 945 892 996 871 925 1008 894 909 925 886 901 926 943 987 929 916 951 915 888 930 925 900 922 931 943 934 932 921 869 913 910 919 867 951 948 964 977 909 915 977 960 980 901 934 923 906 942 891 947 903 897 941 887 948 938 971 943 888 960 927 956 928 893 919 917 951 943 933 987 971 927 899 902 902 938 886 942 886 949 929 946 930 954 972 890 932 975 942 967 918 976 1009 991 890 999 938 1014 966 982 946 954 1000 1014 981 977 993 1026 1004 1014 1017 1016 1036 1081 1082 1078 1096 1074 1072 1121 1207 1183 1188 1263 1326 1426 1482 1448 1634 1772 1881 2014 2244 2359 2449 2592 2762 2924 3046 3179 3368 3517 3838 3873 3952 3968 4057 3883 4051 4078 4142 4121 4117 4120 4070 3872 3827 3711 3598 3290 3194 3044 2985 2822 2745 2577 2485 2387 2376 2276 2101 2023 1935 1852 1720 1794 1733 1587 1647 1595 1601 1492 1542 1565 1519 1511 1582 1429 1488 1538 1507 1442 1451 1433 1383 1403 1378 1325 1277 1296 1309 1239 1216 1234 1132 1197 1142 1149 1081 1098 1081 1074 1021 1106 1011 1078 977 1029 1050 1054 1008 1015 1089 1057 1033 1021 1052 1045 1071 1060 1116 1105 1124 1114 1084 1127 1180 1154 1176 1154 1209 1189 1189 1197 1199 1233 1233 1224 1208 1253 1265 1261 1226 1231 1233 1170 1228 1237 1201 1201 1148 1147 1218 1189 1141 1060 1179 1145 1076 1097 1038 1001 1043 1075 1040 1066 1051 1043 982 1009 1042 992 978 948 1000 935 975 923 968 935 961 944 978 980 971 962 965 932 937 988 1022 927 951 910 974 964 928 998 922 953 897 971 965 925 996 908 900 937 900 948 942 951 907 867 931 917 943 912 871 943 866 948 924 913 923 929 896 883 913 936 872 963 954 953 975 884 939 977 903 981 929 979 992 1010 1062 1075 1111 1124 1078 1140 1127 1209 1122 1152 1155 1232 1276 1186 1286 1290 1299 1261 1291 1262 1297 1206 1334 1226 1294 1215 1215 1208 1211 1205 1190 1223 1191 1162 1104 1106 1167 1121 1091 1088 1044 1059 1046 1025 981 973 1069 951 998 979 1009 1009 1044 988 926 988 957 934 936 956 973 928 947 904 936 936 943 906 994 945 903 966 888 973 892 936 886 950 886 921 870 926 850 864 881 870 868 860 849 905 864 840 895 944 835 848 836 873 862 871 866 863 866 869 848 857 822 821 853 833 863 871 814 910 874 861 846 899 812 920 844 880 821 885 864 908 871 817 839 872 872 868 852 920 841 838 865 845 840 845 847 824 890 803 896 829 876 863 903 898 866 823 825 843 844 866 829 882 819 812 784 896 872 897 883 872 863 842 876 850 871 873 863 908 867 870 888 903 855 901 875 898 790 925 840 846 863 879 886 869 848 845 905 843 826 825 886 829 881 855 859 859 818 880 939 826 840 853 866 856 860 822 849 819 845 897 785 861 827 816 847 885 884 919 806 870 873 844 836 785 858 816 858 809 841 874 865 846 837 854 839 846 845 820 903 839 856 882 852 821 838 877 870 860 834 828 862 870 858 846 854 843 813 854 846 876 829 873 891 828 804 847 821 847 823 785 861 820 865 829 817 829 840 807 821 839 826 895 873 814 898 864 869 881 870 835 805 847 864 869 819 900 899 861 836 828 874 830 863 837 856 877 831 834 876 868 855 815 832 858 875 847 851 845 787 868 824 837 833 869 858 886 851 836 835 815 902 819 792 871 840 851 819 858 861 885 826 786 820 864 836 848 798 847 876 805 869 810 818 786 797 832 853 857 811 845 804 878 830 881 843 815 856 853 805 807 855 817 833 828 793 912 857 874 814 817 849 829 835 872 796 817 833 888 801 826 812 842 866 825 782 794 805 828 835 789 837 848 785 835 819 823 814 862 853 833 853 818 852 856 844 806 852 829 854 881 805 833 852 915 781 821 795 798 809 870 797 838 817 884 819 843 793 866 786 861 809 810 795 815 798 811 881 861 779 843 866 828 867 858 851 828 849 831 820 821 868 849 849 864 867 867 807 826 912 867 848 830 846 814 828 826 861 818 805 842 821 835 840 797 820 869 803 841 822 818 808 831 849 843 790 814 809 816 792 853 820 795 828 804 827 870 851 811 780 858 829 876 865 794 791 789 810 821 813 852 832 813 791 774 810 836 848 874 830 802 803 830 901 842 822 815 778 831 863 790 780 806 826 840 876 825 878 853 874 876 850 853 897 886 888 875 891 891 844 852 903 927 905 884 889 1038 980 918 942 928 963 884 989 927 916 891 914 864 924 914 901 895 916 875 943 894 861 854 901 900 920 830 926 879 847 893 884 892 858 880 845 846 784 891 842 860 898 856 883 924 877 899 928 900 919 902 946 908 933 928 1009 1007 1062 1067 1065 1137 1113 1099 1112 1081 1123 1130 1132 1125 1198 1197 1159 1142 1217 1143 1223 1124 1171 1111 1068 1088 1124 1075 1058 1068 1043 1015 1039 977 1015 1034 953 975 900 971 935 920 870 922 899 907 870 862 871 875 950 966 882 928 898 900 845 861 882 835 866 846 867 835 767 860 878 862 876 833 920 823 912 879 841 843 845 830 803 815 859 875 819 826 843 812 833 853 834 840 802 880 802 796 800 881 848 825 905 781 895 830 888 828 829 860 856 877 832 900 874 854 891 889 830 913 920 906 881 875 906 944 932 899 896 981 935 982 939 1001 1009 979 950 982 993 990 943 908 945 960 942 935 897 960 939 898 937 959 881 937 919 955 889 826 916 878 903 913 905 821 874 792 881 858 865 840 784 852 844 851 806 886 887 834 848 807 918 847 898 835 837 837 818 803 786 872 864 843 833 783 783 832 845 844 878 838 838 786 856 825 808 761 833 813 905 849 824 864 807 846 836 785 855 875 865 834 856 767 867 827 817 835 824 799 832 854 835 837 833 843 799 837 801 838 803 831 841 788 856 789 838 860 869 848 814 885 933 866 840 860 869 928 967 879 943 946 927 918 993 1033 1053 1083 1108 1186 1215 1297 1322 1299 1377 1443 1397 1421 1458 1430 1526 1603 1495 1596 1589 1630 1647 1611 1646 1646 1629 1630 1574 1505 1467 1477 1383 1438 1343 1323 1333 1357 1335 1319 1268 1312 1234 1233 1178 1185 1165 1220 1077 1101 1031 1063 1035 1054 974 967 1041 1059 1063 989 1005 965 1017 950 963 974 960 934 934 863 946 889 905 943 916 893 826 855 895 879 853 929 814 854 886 832 809 860 876 863 866 844 878 881 881 811 820 837 854 775 859 881 806 831 834 849 830 809 825 828 871 835 808 824 824 829 849 811 802 824 798 835 784 804 887 854 839 850 839 853 858 806 933 863 843 877 837 887 883 922 919 863 873 902 873 874 893 863 893 872 881 922 891 974 919 856 902 894 801 883 821 876 845 837 855 887 885 881 787 784 857 866 823 797 866 850 812 814 857 858 861 847 838 811 813 841 888 792 864 822 820 863 841 876 885 845 896 912 963 910 953 922 927 854 953 952 981 978 996 980 1003 1020 1002 1020 1015 1038 1034 995 998 947 938 968 982 1018 948 997 960 942 979 988 901 958 909 963 876 864 929 927 939 914 927 915 819 844 876 851 854 884 858 801 822 874 893 874 816 890 807 815 833 803 853 843 841 819 820 833 782 812 852 819 864 889 836 782 806 819 793 786 834 782 809 796 827 770 826 791 820 796 851 796 784 818 826 813 835 803 797 794 811 735 806 798 845 780 789 795 841 812 780 793 749 834 832 837 792 791 803 780 801 800 789 791 818 792 811 803 782 768 839 728 779 836 768 823 752 730 800 764 781 785 783 843 782 795 828 822 881 796 789 799 778 759 767 829 811 814 775 849 822 799 761 772 828 744 826 812 788 831 798 791 779 851 869 790 786 743 797 807 796 878 793 832 839 851 825 812 781 795 810 800 826 809 806 844 827 777 795 795 807 787 767 797 792 811 735 777 802 825 771 856 782 786 836 793 851 840 863 777 822 810 801 827 795 811 825 793 846 807 813 782 771 807 763 787 768 793 794 781 801 802 816 758 791 760 793 751 797 795 811 740 786 760 748 800 793 781 772 745 806 826 815 811 770 841 810 828 807 796 794 799 809 850 793 777 790 801 805 820 821 804 796 784 762 784 731 771 745 822 771 798 822 824 803 793 804 804 765 806 813 847 757 828 718 747 802 780 727 773 781 804 772 794 808 747 782 758 781 832 765 830 793 736 771 802 767 798 828 807 763 805 799 781 766 781 786 770 810 801 795 810 832 810 839 812 775 767 779 832 808 764 771 778 788 766 772 782 826 745 792 806 842 858 813 791 816 781 764 747 776 733 801 756 784 756 775 759 777 770 810 792 792 745 796 755 784 793 747 743 802 808 861 749 748 755 759 735 783 810 781 796 761 763 805 761 784 787 832 773 783 802 828 823 783 807 770 742 814 832 746 771 761 775 820 763 716 784 781 768 803 757 788 764 758 758 742 792 739 723 746 775 774 782 766 763 816 770 749 796 813 844 773 759 784 787 767 769 788 735 783 741 779 748 823 775 809 824 793 788 748 846 766 795 770 779 802 798 739 809 802 802 804 746 823 776 825 776 789 791 768 764 817 806 836 854 825 832 830 801 901 876 870 861 880 875 865 900 843 882 917 869 919 900 875 876 890 900 857 890 848 901 900 858 901 928 893 871 841 875 890 834 900 851 870 813 790 839 854 826 818 821 819 837 849 821 801 813 798 840 842 815 833 839 795 824 824 822 783 754 821 786 862 836 778 780 790 777 802 790 839 804 797 787 818 783 772 827 750 765 792 769 753 822 797 794 792 781 791 762 777 761 778 798 846 757 759 794 814 812 763 775 782 828 827 850 826 782 809 773 832 748 839 844 809 753 765 793 787 771 777 791 815 807 749 764 795 772 778 814 803 787 776 856 794 791 749 759 740 770 748 785 760 795 753 756 808 758 808 804 795 811 802 764 762 754 785 757 789 792 806 812 773 751 724 803 789 748 806 762 776 750 751 771 775 735 773 744 785 788 774 774 791 777 789 734 756 797 775 793 765 695 812 754 775 797 737 786 757 738 823 743 777 797 732 666 818 785 820 762 745 742 800 747 749 749 788 787 821 812 776 772 831 710 773 762 809 789 750 774 760 803 800 799 741 750 799 810 760 763 750 795 756 746 742 820 774 795 756 771 795 784 771 767 790 795 710 801 729 670 751 817 738 779 854 806 799 778 778 773 783 831 787 733 801 794 819 812 798 787 767 841 790 836 840 844 784 846 837 853 846 862 824 803 829 808 850 927 891 937 1008 917 992 1053 1093 974 1078 1068 990 1041 1063 1069 1090 1067 1087 1077 1009 1034 1062 1059 1068 1096 1096 1017 971 1029 1072 1055 977 1016 975 1042 1015 923 972 958 931 939 951 864 914 942 880 865 843 912 908 848 885 879 799 862 870 817 835 865 810 791 803 824 860 819 819 831 813 791 804 777 830 784 831 760 803 803 784 777 767 816 806 807 814 822 749 845 758 827 796 859 830 851 835 833 886 750 776 820 849 801 827 829 845 836 784 805 855 797 859 775 834 798 826 805 805 809 876 840 808 855 824 856 752 864 807 805 792 793 779 807 811 792 796 863 788 787 772 805 785 739 810 780 822 793 758 763 767 738 811 776 792 766 798 784 806 834 836 755 839 864 738 754 806 798 802 822 768 803 729 775 823 803 825 798 798 860 749 750 757 779 772 828 782 770 817 815 769 820 751 825 815 746 798 840 805 787 775 769 758 763 792 786 768 829 766 741 720 780 752 792 764 813 767 764 767 803 808 819 781 739 806 810 786 825 743 752 761 811 755 854 756 744 734 820 818 754 789 811 798 765 741 792 855 802 751 832 781 809 781 789 750 766 794 730 757 807 789 780 776 731 742 779 749 788 795 772 752 799 817 739 724 765 748 798 736 776 776 795 799 789 758 746 787 810 751 707 760 770 790 794 771 767 774 799 741 773 776 785 767 798 757 788 793 807 734 769 746 770 774 795 752 765 801 788 799 725 731 797 776 801 808 822 803 787 781 738 841 798 735 852 800 720 755 785 731 790 805 727 802 769 796 775 758 769 795 817 777 809 857 723 848 786 764 774 776 725 752 723 728 763 770 806 744 776 800 723 800 782 762 764 801 722 767 799 771 787 791 800 778 792 819 758 745 793 769 763 772 803 770 754 800 806 809 746 801 797 756 770 754 782 780 775 772 761 788 816 751 760 791 811 803 805 767 777 760 794 782 791 761 829 761 741 811 745 724 788 781 742 788 741 766 779 775 721 792 758 727 782 713 798 757 807 736 769 768 735 785 782 788 764 762 820 757 796 812 756 801 817 763 777 772 759 767 767 791 782 756 766 782 772 796 738 770 706 783 771 750 741 765 762 763 830 804 796 760 769 725 783 804 794 842 796 747 719 773 770 778 727 775 788 732 758 697 737 750 773 782 768 765 765 829 734 775 713 799 757 799 751 763 803 777 735 841 744 750 752 787 780 747 793 754 772 764 773 774 802 780 769 804 771 771 762 727 754 730 759 764 823 770 752 747 815 781 730 773 828 798 734 733 753 768 761 724 772 801 752 765 752 830 762 771 776 789 742 782 733 775 742 837 780 820 769 785 778 761 790 774 760 770 815 789 781 785 745 820 732 748 794 799 789 769 791 784 803 780 800 808 803 804 831 755 795 739 761 759 767 784 775 789 796 789 786 770 814 798 766 792 799 767 779 771 797 752 774 789 810 800 776 807 800 720 759 843 789 833 785 846 848 838 883 804 850 921 884 849 887 861 838 899 873 901 880 905 907 871 887 921 850 858 893 868 864 867 849 852 840 866 783 871 899 813 868 881 844 841 813 781 844 869 814 796 828 883 783 841 787 779 815 833 842 818 852 839 865 841 864 891 904 895 899 901 853 876 942 837 941 950 872 893 865 878 928 862 957 918 859 891 866 828 881 834 883 946 890 878 860 882 868 854 876 855 827 839 842 880 824 837 864 840 798 773 817 795 857 804 778 856 837 753 818 807 864 807 841 772 800 802 785 773 816 821 758 762 802 814 813 773 833 777 803 832 784 829 787 792 792 815 751 740 794 802 870 783 739 773 846 775 783 835 803 797 793 828 786 798 792 826 826 819 826 780 755 783 771 848 801 769 809 808 849 813 768 796 833 806 787 772 850 825 771 837 785 779 845 836 823 797 775 817 799 779 804 781 786 753 793 786 754 776 761 781 767 777 818 769 832 782 797 798 800 830 803 830 723 843 817 790 790 794 878 801 820 777 849 821 849 778 804 760 816 834 834 841 831 833 809 830 833 880 782 841 827 861 819 835 864 868 837 874 893 823 907 865 881 906 822 822 915 850 881 878 859 903 856 860 809 849 839 855 891 918 931 885 902 912 920 885 863 956 961 983 960 1009 1040 1105 1112 1095 1184 1264 1236 1310 1415 1298 1470 1422 1417 1445 1534 1433 1484 1524 1513 1501 1483 1490 1467 1410 1448 1317 1332 1355 1387 1337 1290 1373 1312 1374 1272 1286 1255 1334 1323 1394 1294 1300 1242 1241 1256 1204 1219 1099 1116 1107 1086 1071 1052 1037 991 973 977 926 965 949 869 919 968 932 896 958 911 910 848 838 859 827 845 862 810 821 867 855 876 842 803 820 833 810 789 800 845 777 826 866 826 831 858 854 816 787 817 755 829 797 769 769 828 795 809 804 829 771 765 814 782 820 808 796 795 795 820 823 862 804 764 787 778 833 783 807 830 835 789 768 785 800 810 807 785 836 817 811 783 838 821 776 835 804 837 876 799 787 833 765 827 818 815 782 784 786 797 815 858 770 810 795 831 815 822 792 771 810 809 837 771 805 773 816 859 874 838 870 899 909 832 908 852 918 890 925 902 916 926 926 953 909 900 895 937 936 921 922 951 948 891 961 899 950 943 917 927 943 939 936 1012 957 938 953 929 926 900 887 941 903 928 918 906 895 900 918 938 900 892 903 898 867 906 872 817 890 844 835 829 840 894 792 864 857 777 882 783 806 803 830 841 822 828 785 774 788 837 823 800 775 836 757 783 799 839 783 832 793 726 791 810 809 731 811 796 796 769 765 777 784 776 800 819 833 838 822 770 790 826 837 778 795 754 767 791 789 778 807 771 790 801 759 819 756 818 766 793 807 790 823 812 758 774 734 826 799 785 776 771 787 799 754 736 813 799 804 788 814 759 808 790 794 810 784 837 799 795 818 813 859 827 783 770 815 781 810 829 765 776 802 789 760 837 786 764 816 848 768 768 823 748 794 733 823 792 803 775 804 768 763 782 819 829 778 813 816 771 772 827 809 822 731 764 788 789 808 781 791 744 787 810 768 838 799 806 797 833 815 814 801 773 798 773 759 758 762 816 737 803 786 755 807 802 805 800 771 772 830 791 800 762 830 782 802 778 758 835 775 805 733 778 734 814 794 756 779 772 741 756 767 754 815 705 819 762 819 810 795 762 750 765 769 730 786 815 795 813 779 798 731 784 786 794 762 779 765 752 773 756 732 780 746 783 742 713 763 748 766 797 788 829 782 819 814 791 769 732 799 791 741 773 804 786 815 800 812 810 793 803 768 803 756 767 781 766 786 789 706 752 795 792 755 807 751 805 771 802 844 747 774 812 815 815 808 752 771 706 756 711 788 745 796 789 782 808 796 786 753 745 810 764 794 758 765 799 833 767 797 807 799 816 777 812 799 769 750 754 796 831 810 805 785 801 829 784 750 790 748 734 785 792 755 800 795 832 764 780 791 754 774 801 787 789 754 790 772 759 789 774 810 787 801 749 795 777 735 815 771 779 787 774 789 779 780 786 754 778 765 780 802 794 821 748 769 787 811 782 809 771 767 758 799 828 797 818 817 829 798 813 814 782 881 764 832 839 914 816 848 806 883 858 886 852 851 832 876 839 830 809 876 875 829 840 796 856 849 822 826 808 818 795 840 831 868 826 859 806 857 867 878 826 854 829 825 782 801 857 798 777 809 777 772 849 802 762 749 831 817 771 796 860 821 771 791 748 820 745 863 754 791 833 843 747 860 824 761 725 824 749 775 785 820 786 804 775 791 745 792 776 817 780 818 767 801 785 825 826 787 794 808 843 794 818 793 791 771 776 818 843 811 847 780 773 743 806 747 770 811 805 778 779 757 818 795 774 750 801 783 820 795 780 773 814 787 780 785 830 805 802 803 784 775 798 757 751 826 816 773 807 786 763 788 802 833 744 780 762 810 788 764 815 745 799 777 754 795 814 805 807 764 766 785 764 821 791 796 801 794 770 762 803 768 784 766 770 811 745 754 783 751 759 789 736 803 751 789 820 800 779 824 833 842 729 755 775 781 796 869 793 744 788 804 771 821 764 757 802 790 770 815 809 759 770 763 762 818 839 848 821 824 859 805 758 808 737 818 777 785 805 775 776 777 783 763 818 791 848 773 825 772 821 802 814 829 827 890 826 826 860 757 784 862 823 869 794 814 876 903 833 841 878 824 847 848 863 870 866 881 913 920 933 935 1017 975 1039 1086 1164 1110 1205 1219 1332 1304 1287 1309 1295 1450 1350 1339 1399 1349 1297 1200 1249 1159 1208 1189 1157 1149 1076 1109 1160 1120 1087 1116 1089 1100 1092 1101 1144 1150 1184 1107 1172 1102 1163 1158 1049 1067 1088 1001 982 1038 939 1010 948 1014 956 899 894 917 866 871 866 856 895 870 894 846 846 818 874 853 842 877 825 814 836 837 872 824 843 830 865 841 820 838 794 840 799 789 836 844 787 814 825 856 783 845 829 858 796 791 834 809 852 765 838 850 805 812 856 817 823 833 802 808 814 849 796 848 803 785 810 809 821 849 823 852 871 753 764 812 826 870 807 830 838 822 893 792 751 785 796 783 779 776 803 779 842 759 805 778 771 809 802 793 828 786 741 824 784 821 798 801 797 777 809 849 797 752 778 803 833 816 869 829 793 868 817 807 851 770 885 823 852 829 867 799 812 840 851 785 798 790 825 827 846 808 850 806 825 816 806 834 793 800 841 799 819 849 800 808 866 882 867 870 817 836 788 861 814 815 828 797 812 846 835 798 831 795 773 854 839 833 812 831 836 823 822 833 759 800 794 872 818 758 806 823 820 785 834 852 827 767 848 784 814 817 814 785 803 813 810 808 823 831 870 831 798 790 773 770 803 771 761 775 789 779 727 778 759 789 790 853 779 760 788 791 799 791 808 717 769 793 771 802 803 767 791 758 798 779 742 750 776 773 753 807 796 721 819 747 798 807 800 827 823 754 757 811 752 758 769 781 838 755 815 760 790 768 824 779 802 814 770 833 804 809 752 743 800 745 778 797 809 804 805 789 811 783 751 773 807 747 789 778 814 738 768 771 758 757 774 810 850 777 781 835 810 749 832 770 790 816 786 745 762 784 749 760 795 777 808 815 739 778 748 791 776 810 747 786 775 789 760 730 742 779 699 750 763 833 808 769 763 781 764 818 855 732 782 766 765 797 824 799 799 774 782 769 776 838 804 772 743 773 755 768 773 725 785 778 859 746 752 784 784 779 735 796 778 802 816 784 814 761 808 695 769 813 769 771 774 766 731 740 784 758 801 765 831 766 783 797 748 766 796 861 810 770 742 759 726 823 835 816 784 812 752 782 768 820 793 776 698 798 739 765 765 792 780 770 769 786 765 777 774 773 753 767 756 718 752 777 747 737 763 768 752 696 786 721 763 698 775 780 727 807 795 805 797 816 763 754 795 786 785 757 746 773 785 755 790 734 772 762 776 790 764 794 779 742 786 760 844 746 782 777 735 798 797 773 700 782 760 773 741 794 780 751 788 807 797 744 795 756 741 760 807 797 830 785 777 782 780 772 790 740 759 820 795 768 798 760 834 768 787 792 811 803 775 790 795 771 753 754 811 764 725 811 793 788 867 726 768 748 788 727 774 770 801 765 810 783 751 764 779 769 791 807 843 774 789 805 793 785 818 815 819 814 765 865 820 807 900 867 878 895 932 870 901 862 889 919 870 921 912 858 899 929 843 883 842 831 875 886 882 781 829 880 788 852 796 867 859 873 866 858 888 891 825 868 883 861 893 908 857 877 856 871 823 857 872 834 802 832 856 820 908 860 804 867 843 924 845 844 831 893 947 861 815 830 918 907 836 855 822 854 806 856 792 767 835 796 835 791 842 753 851 780 832 786 877 831 881 824 821 820 804 802 805 850 856 849 855 838 826 826 862 822 795 844 791 804 825 759 782 801 832 800 784 801 782 814</counts>
			</dataPoints>
		</scan>
	</xrdMeasurement>
</xrdMeasurements>
