<?xml version="1.0"?>
<xrdMeasurements xmlns="http://www.xrdml.com/XRDMeasurement/2.3" xmlns:xsi="http://www.w3.org/2001/XMLSchema-instance" xsi:schemaLocation="http://www.xrdml.com/XRDMeasurement/2.3 http://www.xrdml.com/XRDMeasurement/2.3/XRDMeasurement.xsd" status="Completed" recordIdentifier="{C901249A-EBB0-4711-9065-B9AAFAEAEF77}">
	<comment>
		<entry/>
	</comment>
	<sample type="To be analyzed">
		<id>GPSS_Li2Co0p9Zn0p1Cl4_110325_69093a3ff040177efa2b52de</id>
		<name></name>
		<preparedBy></preparedBy>
	</sample>
	<xrdMeasurement measurementType="Scan" status="Completed" sampleMode="Reflection">
		<usedWavelength intended="K-Alpha 1">
			<kAlpha1 unit="Angstrom">1.5405980</kAlpha1>
			<kAlpha2 unit="Angstrom">1.5444260</kAlpha2>
			<kBeta unit="Angstrom">1.3922500</kBeta>
			<ratioKAlpha2KAlpha1>0.5000</ratioKAlpha2KAlpha1>
		</usedWavelength>
		<incidentBeamPath>
			<radius unit="mm">145.00</radius>
			<xRayTube id="1010048" name="Empyrean Cu LFF HR (9430 033 7310x)">
				<tension unit="kV">40.0</tension>
				<current unit="mA">15.0</current>
				<anodeMaterial>Cu</anodeMaterial>
				<focus type="Line">
					<length unit="mm">12.0</length>
					<width unit="mm">0.4</width>
					<takeOffAngle unit="deg">6.0</takeOffAngle>
				</focus>
			</xRayTube>
			<sollerSlit id="21010002" name="Soller slits 0.04 rad.">
				<opening unit="rad">0.0400</opening>
			</sollerSlit>
			<mask id="22031000" name="Fixed mask 13 mm">
				<width unit="mm">9.00</width>
			</mask>
			<divergenceSlit id="22120001" name="Divergence slit 1°" xsi:type="fixedDivergenceSlitType">
				<distanceToSample unit="mm">50.00</distanceToSample>
				<height unit="mm">1.52</height>
			</divergenceSlit>
		</incidentBeamPath>
		<sampleMovement xsi:type="spinningSampleMovementType">
			<spinnerRevolutionTime unit="seconds">1.0</spinnerRevolutionTime>
		</sampleMovement>
		<diffractedBeamPath>
			<radius unit="mm">145.00</radius>
			<antiScatterSlit id="22090040" name="AS slit 9 mm (PIXcel)" xsi:type="fixedAntiScatterSlitType">
				<height unit="mm">9.00</height>
			</antiScatterSlit>
			<sollerSlit id="21020003" name="Large Soller slits 0.04 rad.">
				<opening unit="rad">0.0400</opening>
			</sollerSlit>
			<filter id="20030001" name="Large beta-filter Nickel">
				<material>Ni</material>
				<thickness unit="mm">0.020</thickness>
			</filter>
			<detector id="7010019" name="PIXcel1D-Medipix3 detector" xsi:type="rtmsDetectorType">
				<phd unit="keV">
					<lowerLevel>4.02</lowerLevel>
					<upperLevel>11.27</upperLevel>
				</phd>
				<mode>Scanning</mode>
				<activeLength unit="deg">5.542</activeLength>
			</detector>
		</diffractedBeamPath>
		<scan appendNumber="0" mode="Continuous" scanAxis="Gonio" status="Completed">
			<header>
				<startTimeStamp>2025-11-05T12:53:17-08:00</startTimeStamp>
				<endTimeStamp>2025-11-05T13:01:24-08:00</endTimeStamp>
				<author>
					<name>AutomatedUser</name>
				</author>
				<source>
					<applicationSoftware version="1.7b (136)">PANalytical Aeris Instrument Suite</applicationSoftware>
					<instrumentControlSoftware version="3.2.00000000 20240306">AERIS</instrumentControlSoftware>
					<instrumentID>950485</instrumentID>
				</source>
			</header>
			<dataPoints>
				<positions axis="2Theta" unit="deg">
					<startPosition>10.00943322</startPosition>
					<endPosition>99.99442286</endPosition>
				</positions>
				<positions axis="Omega" unit="deg">
					<startPosition>5.00471661</startPosition>
					<endPosition>49.99721143</endPosition>
				</positions>
				<commonCountingTime unit="seconds">12.495</commonCountingTime>
				<counts unit="counts">2981 2972 3014 3071 3030 3023 2966 2987 2931 2977 2968 2949 2902 2896 2952 2932 2954 3016 2987 2935 2919 2940 2974 2901 2894 2975 3051 2925 2937 2982 3034 3007 3017 3055 2985 2941 3022 3030 3046 3077 2976 3003 3002 2891 2991 2870 2989 2915 2980 2988 3065 2973 2935 3046 3040 2917 2942 3014 3196 2979 3003 2945 3057 2947 2969 3033 2990 3001 3006 2996 3004 2997 2991 3010 3007 3037 3070 3065 3046 3071 3141 2964 2910 3045 3118 3109 3090 3044 3056 3007 3087 2944 3111 3110 3193 3213 2992 3075 3022 3113 3056 3043 3106 3175 3156 3070 3019 3106 3054 3090 3107 3071 3117 3169 3031 3030 3124 3058 2992 3087 3144 2982 3074 3045 3054 3152 3163 3095 3020 3045 3111 3085 3097 3050 3071 3014 3092 3120 3048 3065 3124 3111 3007 3004 3092 3128 3140 2945 3122 2986 3104 2970 3091 3091 3113 3104 3109 3047 3107 3068 2979 3141 3136 3162 3046 3006 3105 3050 3117 3053 3086 3056 3070 2976 2922 2948 2948 3066 3029 3093 3064 2983 2967 2996 3048 2986 3002 2893 2972 2996 3053 3032 2984 2947 2937 3006 3060 2969 2990 2997 2999 3034 3007 2962 3050 2934 3045 2953 3089 3011 2983 3120 3026 3028 2906 3090 2959 3023 2890 2935 3004 2991 2931 3046 3082 3003 3005 3011 3101 3014 2967 2889 3032 3014 3009 2841 2971 3059 2935 2929 2938 2869 2965 2959 2962 2919 2909 2868 3036 2962 2897 2920 2973 2982 3043 2969 3011 2968 2975 3002 2885 3040 3057 3035 3067 2901 2978 3059 2987 3009 3004 2972 3117 2932 2948 2998 3083 2975 2937 3025 2897 3018 2944 3008 2964 2914 3016 3002 3001 2931 2969 2947 3023 3007 3031 3009 3053 3124 3153 3068 2971 3171 3024 2978 3035 3106 3001 3167 3043 3008 3044 2925 3016 3081 2998 3062 3031 3029 3054 3054 3005 3002 3122 3121 3040 3069 3115 3158 3042 3141 3075 3190 3138 3240 3073 3140 3211 3195 3125 3114 3191 3072 3235 3152 3170 3201 3143 3293 3179 3189 3152 3327 3182 3265 3283 3238 3325 3309 3291 3281 3277 3162 3169 3212 3233 3339 3234 3333 3166 3331 3183 3329 3351 3386 3290 3449 3255 3376 3359 3309 3345 3269 3344 3461 3391 3356 3315 3319 3211 3391 3376 3431 3390 3327 3378 3366 3329 3391 3418 3472 3522 3411 3478 3429 3368 3383 3400 3401 3404 3446 3334 3413 3420 3380 3410 3404 3483 3461 3457 3543 3564 3435 3382 3475 3527 3550 3514 3520 3365 3524 3589 3463 3482 3454 3482 3563 3529 3572 3488 3462 3547 3574 3470 3619 3471 3503 3548 3572 3500 3615 3491 3524 3494 3574 3648 3647 3643 3578 3641 3703 3694 3575 3675 3631 3621 3586 3495 3731 3729 3719 3679 3709 3713 3762 3835 3801 3952 3825 3832 3812 3762 3776 3952 3970 3792 3870 3796 3841 3821 3817 3806 3819 3841 3847 3672 3813 3810 3809 3814 3747 3697 3705 3742 3650 3698 3627 3675 3660 3604 3526 3475 3594 3569 3545 3647 3530 3430 3519 3379 3450 3518 3407 3450 3439 3473 3383 3390 3499 3344 3464 3418 3390 3357 3403 3345 3453 3359 3313 3353 3338 3311 3299 3322 3358 3409 3346 3362 3301 3269 3298 3325 3303 3328 3209 3347 3364 3382 3267 3353 3257 3189 3267 3102 3251 3266 3289 3238 3233 3340 3241 3173 3186 3275 3341 3302 3263 3234 3220 3218 3406 3198 3241 3181 3209 3254 3225 3290 3226 3143 3250 3202 3233 3135 3110 3149 3291 3170 3249 3110 3240 3074 3163 3179 3131 3080 3138 3145 3125 3187 3190 3169 3150 3076 3064 3030 3283 3273 3160 3137 3192 3240 3222 3194 3042 3033 3085 3164 3187 3190 3171 3111 3045 3145 3074 3068 3160 3162 3127 3081 3151 3104 3195 2994 2995 3101 3065 3077 3220 3096 3178 3165 3079 3151 3177 3102 3171 3077 3068 3143 3133 3114 3101 3185 3130 3075 3132 3157 3171 3151 3182 3086 3142 3082 3174 3106 3083 3163 3205 3163 3189 3067 3172 3049 3200 3128 3111 3164 3152 3135 3158 3083 3183 3283 3010 3143 3183 3185 3086 3191 3108 3182 3101 3199 3130 3174 3245 3218 3147 3175 3148 3151 3157 3095 3191 3054 3153 3078 3203 3148 3209 2921 3095 3098 3069 3057 3033 3062 3140 3052 3109 3092 3018 3205 3032 3080 3154 3016 3115 3092 3150 3007 3092 3012 3076 3001 3071 2943 3069 3037 3117 3031 3153 3070 3097 3100 3100 3058 3184 3108 3124 3137 2933 3101 3094 3003 2967 3134 3056 3058 2996 3033 2991 2990 3101 3052 3103 3012 3090 2987 3176 2964 2999 3005 3043 3055 3036 3076 2988 3039 3083 3022 3024 3101 3089 3012 3009 3047 3083 3011 3147 3124 2945 3112 2990 2951 3074 3028 3086 3000 3006 3050 2968 3069 3005 3009 2960 3030 3068 3049 2953 3051 3094 2981 3012 2967 2964 3158 3120 3021 2968 3029 3022 3085 3020 2989 3020 2951 3027 3033 3021 3113 3049 2892 2947 2887 2978 3001 3047 3004 2977 2966 3080 2992 2939 2924 2933 2980 3011 3026 2971 2981 2978 3089 2871 3024 2965 3070 2907 2987 3148 3068 3066 3045 3021 2993 2902 2976 2971 2971 3010 2996 2964 2983 2910 2979 2912 2980 2898 2909 2950 2939 2953 2932 3004 2855 3034 2989 2949 2974 2937 2947 2948 2959 2914 3070 2877 2997 2919 3040 2977 2978 2943 2935 2983 2976 3044 3004 2931 2878 2867 2888 2961 2958 2910 2945 2889 2977 2994 2919 2928 2900 3028 2874 2922 2925 2899 2851 2897 2809 2883 2893 2945 2971 2954 2863 2922 2861 2940 2890 2935 2858 2899 2890 2985 2953 2884 2900 2950 2945 2900 2818 2892 2906 2887 2803 2885 3017 2949 2980 2843 2825 2922 2942 2939 2856 2962 2809 2966 2835 2967 2888 2922 2976 2991 2956 2970 2945 2951 2998 2960 2876 2872 2894 3022 2970 2857 2997 2948 2882 2864 2926 2927 2709 2869 2921 2890 2877 2892 2914 2892 2903 2821 2912 2898 2984 2903 2974 2978 2977 2975 2901 2986 2930 2957 2884 2924 2799 2989 2969 2888 3007 2962 2917 2960 3017 2904 2893 2894 2884 2946 2973 2969 2984 3052 2972 2904 3060 3023 2852 2897 2923 2918 2916 3020 2897 2816 2971 2972 2961 2863 3006 3020 2894 2946 3010 2911 2940 2916 2911 2903 2843 2959 3010 3089 3009 2970 3076 2963 2935 2955 2846 2838 2920 3062 3057 2896 2920 2951 3032 2997 3063 2939 2860 2914 2976 2968 2932 2986 2985 2774 2950 3008 2875 2978 3022 2991 3000 2895 2988 2954 2830 2872 2957 3028 2942 2855 2875 2895 2932 2932 2991 3027 2881 2943 2857 2882 2979 2958 2885 2874 2918 2876 2886 2883 2885 2917 2937 3055 2957 2926 2924 2876 2869 2877 2911 2909 2832 2952 2854 2886 2882 2819 2763 2845 2994 2827 2849 2774 2967 2850 2868 2821 2713 2860 2771 2774 2815 2834 2880 2836 2859 2728 2830 2790 2729 2732 2745 2824 2714 2773 2767 2808 2700 2827 2691 2789 2800 2798 2782 2845 2671 2737 2729 2798 2649 2779 2800 2819 2736 2703 2705 2701 2735 2655 2695 2728 2747 2637 2618 2648 2683 2621 2670 2719 2644 2629 2715 2684 2692 2596 2666 2618 2689 2719 2606 2657 2738 2639 2640 2707 2643 2597 2564 2673 2706 2485 2561 2679 2673 2606 2645 2596 2568 2613 2588 2594 2546 2527 2584 2540 2606 2569 2580 2540 2536 2548 2467 2528 2590 2560 2530 2561 2477 2577 2531 2559 2440 2553 2456 2531 2428 2542 2426 2567 2533 2512 2552 2487 2430 2442 2476 2437 2340 2477 2534 2480 2441 2459 2408 2445 2480 2535 2466 2503 2485 2431 2457 2390 2451 2405 2383 2400 2478 2413 2422 2479 2443 2479 2461 2442 2389 2446 2339 2362 2502 2356 2339 2368 2550 2447 2434 2459 2315 2458 2407 2376 2412 2330 2472 2354 2473 2371 2430 2282 2392 2335 2316 2496 2405 2491 2383 2420 2352 2430 2408 2348 2380 2508 2403 2450 2400 2425 2405 2440 2347 2361 2475 2529 2361 2467 2525 2466 2482 2471 2405 2399 2527 2455 2403 2381 2518 2435 2413 2467 2400 2347 2443 2360 2485 2349 2384 2365 2455 2495 2413 2429 2462 2364 2382 2364 2563 2536 2345 2456 2326 2308 2432 2422 2368 2474 2397 2424 2286 2417 2401 2323 2407 2386 2409 2293 2315 2338 2373 2467 2497 2369 2416 2398 2339 2382 2484 2339 2410 2362 2363 2374 2316 2301 2300 2383 2399 2381 2357 2308 2344 2340 2339 2411 2464 2372 2391 2449 2384 2424 2345 2311 2316 2448 2376 2523 2440 2365 2448 2496 2377 2413 2407 2412 2384 2384 2347 2374 2373 2302 2437 2357 2440 2421 2417 2365 2396 2429 2437 2390 2482 2414 2362 2388 2303 2398 2479 2393 2403 2431 2377 2397 2315 2365 2376 2435 2459 2362 2378 2404 2398 2338 2345 2374 2341 2333 2461 2386 2400 2432 2421 2445 2473 2318 2312 2332 2323 2408 2467 2407 2365 2269 2343 2438 2363 2370 2425 2361 2492 2502 2407 2305 2342 2383 2336 2338 2335 2388 2322 2294 2350 2237 2390 2366 2371 2387 2363 2372 2299 2278 2387 2396 2343 2426 2360 2253 2247 2282 2285 2286 2292 2231 2374 2347 2259 2276 2274 2375 2237 2299 2231 2282 2276 2313 2311 2199 2217 2183 2315 2230 2258 2248 2230 2157 2203 2328 2183 2189 2206 2174 2215 2268 2210 2185 2246 2247 2243 2189 2208 2248 2218 2228 2241 2193 2267 2215 2215 2108 2224 2217 2197 2163 2193 2142 2146 2125 2226 2131 2215 2160 2254 2150 2210 2136 2263 2109 2168 2161 2198 2080 2177 2142 2156 2201 2219 2125 2134 2157 2105 2130 2173 2121 2167 2149 2081 2152 2183 2117 2115 2203 2080 2087 2097 2074 2139 2049 2149 2100 2156 2142 2060 2115 2020 2049 2052 2066 2081 2155 2025 2134 2102 2065 2019 2076 2140 2005 2005 2058 2047 2022 2065 2043 2070 2025 2043 2084 2028 2082 1993 2078 2039 2005 1978 2089 2032 1953 1960 2151 2068 1941 2040 2018 1964 1918 1991 1930 1918 2077 2026 2005 2065 2036 1983 2024 2042 2016 1923 1879 2004 2000 1913 2058 2023 1934 2053 1994 1921 1902 2041 1946 2004 1996 1974 1992 2021 1986 1959 2057 2000 1998 2063 1987 1939 2041 2065 1982 2010 2031 2019 1999 2051 1995 2014 2013 2069 2045 2035 2077 1985 1973 2007 2180 2130 2110 2109 2049 2092 2114 2063 2104 2033 2066 2074 2069 2039 2130 2075 2102 2085 2091 2091 2173 2106 2095 2122 2117 2082 2042 2124 2082 2110 2016 2144 2030 2150 2019 2068 1999 2055 2071 2004 2037 2082 2109 2031 2070 1989 1889 2041 1919 1952 1999 1936 1976 1958 1935 1907 1936 1972 1915 1975 1881 1926 1952 1938 1900 1894 1891 1820 1895 1857 1939 1860 1863 1893 1878 1846 1850 1849 1869 1861 1910 1936 2005 1841 1890 1941 1898 1982 1866 1878 1903 1797 1925 1936 1972 1990 1855 1980 1933 1938 1958 1941 1904 2056 1928 2067 2001 2082 2016 2018 2070 2084 2070 2086 2197 2088 2160 2117 2118 2173 2148 2221 2160 2247 2269 2202 2321 2234 2166 2186 2141 2215 2222 2249 2145 2229 2186 2217 2197 2168 2087 2140 2079 2172 2109 2083 2134 2107 2066 2018 2010 2031 1985 1909 2023 1937 2019 1943 1994 1861 1915 1967 1940 1934 1909 1856 1914 1868 1915 1872 1772 1855 1849 1850 1806 1758 1835 1874 1794 1827 1732 1790 1755 1800 1729 1830 1768 1810 1691 1797 1819 1754 1797 1705 1742 1733 1782 1764 1748 1766 1823 1730 1776 1818 1750 1774 1736 1660 1748 1706 1750 1788 1746 1720 1788 1778 1823 1731 1734 1757 1720 1735 1681 1747 1696 1660 1737 1712 1696 1824 1652 1714 1740 1739 1710 1718 1653 1709 1685 1669 1713 1695 1736 1748 1644 1678 1749 1731 1739 1690 1666 1727 1664 1685 1656 1733 1778 1688 1684 1800 1738 1682 1733 1689 1803 1688 1614 1683 1683 1671 1682 1739 1716 1724 1709 1743 1704 1741 1661 1672 1704 1674 1792 1685 1718 1723 1678 1729 1738 1737 1672 1652 1646 1713 1693 1708 1644 1671 1735 1600 1678 1739 1690 1761 1671 1693 1715 1630 1829 1661 1741 1749 1715 1720 1689 1593 1697 1776 1656 1657 1694 1642 1702 1727 1799 1686 1721 1681 1723 1745 1718 1731 1703 1670 1725 1737 1747 1705 1737 1726 1806 1766 1751 1680 1754 1785 1761 1794 1687 1663 1741 1705 1747 1786 1787 1675 1772 1797 1796 1774 1792 1803 1745 1781 1797 1704 1704 1663 1831 1754 1721 1728 1723 1770 1678 1756 1770 1745 1664 1717 1783 1701 1744 1737 1713 1736 1735 1765 1701 1644 1698 1673 1737 1714 1733 1719 1664 1821 1766 1736 1716 1722 1736 1670 1696 1732 1721 1742 1709 1736 1744 1727 1711 1771 1655 1682 1774 1746 1697 1738 1637 1575 1652 1710 1637 1689 1707 1704 1712 1731 1714 1653 1669 1805 1810 1708 1669 1670 1687 1706 1634 1680 1692 1699 1752 1624 1638 1756 1650 1665 1658 1693 1648 1625 1698 1627 1651 1677 1677 1645 1682 1693 1669 1653 1679 1619 1624 1704 1707 1711 1621 1750 1653 1702 1643 1666 1702 1620 1672 1739 1616 1642 1654 1621 1712 1663 1592 1699 1685 1670 1609 1666 1636 1732 1725 1671 1698 1678 1660 1617 1579 1655 1616 1632 1676 1660 1677 1689 1673 1662 1670 1692 1715 1708 1747 1720 1666 1696 1723 1758 1726 1739 1920 1721 1826 1771 1824 1885 1847 1832 1744 1888 1818 1822 1858 1883 1871 1895 1930 1903 1872 1922 1976 2010 2096 2042 2042 2061 2117 2167 2298 2218 2260 2293 2301 2198 2358 2385 2388 2336 2381 2517 2412 2434 2513 2461 2451 2433 2554 2588 2607 2496 2577 2531 2586 2664 2702 2695 2752 2767 2640 2634 2617 2596 2534 2657 2551 2649 2543 2699 2606 2558 2550 2513 2489 2409 2459 2359 2344 2337 2277 2217 2217 2186 2234 2045 2007 2115 2073 2055 1936 1977 1907 1884 1902 1903 1896 1967 1794 1865 1735 1820 1808 1781 1699 1795 1638 1768 1804 1842 1749 1790 1715 1668 1652 1699 1723 1756 1697 1644 1710 1667 1618 1698 1659 1672 1674 1686 1673 1625 1640 1603 1606 1615 1664 1635 1616 1604 1568 1595 1643 1616 1583 1602 1644 1582 1648 1679 1510 1564 1631 1596 1571 1626 1479 1557 1591 1578 1556 1594 1590 1665 1582 1620 1638 1601 1649 1553 1635 1547 1609 1548 1582 1591 1555 1595 1459 1627 1630 1563 1585 1578 1569 1524 1637 1533 1601 1605 1650 1586 1568 1587 1588 1588 1636 1682 1574 1604 1569 1574 1547 1635 1573 1643 1509 1588 1598 1602 1577 1571 1596 1540 1591 1608 1505 1541 1543 1511 1595 1598 1558 1589 1521 1570 1565 1554 1606 1623 1502 1567 1531 1594 1560 1571 1548 1521 1616 1487 1513 1490 1524 1504 1549 1615 1551 1587 1533 1507 1578 1513 1524 1506 1573 1564 1482 1517 1493 1510 1506 1562 1535 1541 1546 1532 1506 1530 1537 1562 1470 1593 1530 1546 1597 1554 1535 1535 1568 1527 1515 1575 1528 1474 1504 1510 1584 1423 1562 1490 1509 1509 1548 1556 1522 1555 1562 1552 1529 1568 1543 1574 1486 1557 1589 1528 1573 1518 1557 1518 1531 1616 1510 1565 1546 1557 1491 1588 1551 1531 1550 1522 1536 1594 1640 1523 1502 1573 1565 1530 1561 1607 1650 1555 1585 1589 1593 1597 1571 1589 1598 1576 1542 1508 1643 1545 1605 1616 1561 1534 1611 1595 1581 1613 1612 1577 1640 1595 1557 1610 1541 1588 1512 1597 1521 1638 1622 1611 1513 1599 1527 1549 1526 1513 1571 1522 1515 1525 1514 1473 1571 1552 1516 1524 1565 1488 1539 1522 1532 1572 1518 1586 1530 1467 1548 1485 1474 1513 1570 1550 1584 1494 1524 1562 1552 1523 1497 1540 1496 1534 1495 1572 1482 1469 1584 1493 1518 1465 1510 1517 1486 1541 1525 1503 1593 1523 1503 1533 1559 1531 1545 1545 1436 1563 1531 1515 1562 1613 1568 1631 1509 1492 1546 1539 1558 1565 1595 1516 1637 1566 1561 1552 1523 1582 1537 1552 1603 1525 1563 1491 1528 1582 1529 1527 1559 1516 1538 1509 1556 1540 1556 1508 1572 1506 1534 1538 1510 1505 1486 1606 1539 1580 1456 1477 1559 1544 1516 1586 1540 1507 1532 1457 1495 1520 1607 1557 1515 1514 1530 1493 1527 1518 1572 1512 1500 1534 1537 1522 1512 1479 1398 1501 1537 1464 1460 1600 1484 1558 1498 1538 1452 1473 1433 1481 1431 1517 1475 1553 1475 1487 1505 1502 1525 1480 1532 1469 1394 1422 1517 1476 1442 1529 1431 1425 1453 1512 1505 1472 1420 1455 1496 1508 1556 1513 1516 1444 1436 1359 1491 1465 1476 1497 1505 1396 1462 1475 1453 1432 1500 1433 1555 1453 1442 1501 1554 1430 1488 1462 1429 1444 1505 1553 1520 1476 1441 1465 1503 1423 1449 1464 1506 1476 1466 1468 1420 1497 1477 1487 1444 1500 1511 1461 1441 1551 1502 1435 1464 1548 1502 1571 1476 1435 1484 1443 1498 1501 1452 1463 1396 1439 1472 1498 1464 1525 1530 1480 1447 1446 1497 1400 1423 1466 1439 1515 1450 1482 1523 1500 1504 1460 1524 1404 1481 1451 1446 1488 1488 1460 1490 1478 1469 1481 1491 1480 1411 1462 1535 1485 1519 1464 1539 1470 1460 1449 1496 1471 1453 1386 1456 1456 1501 1520 1492 1471 1449 1461 1500 1517 1527 1423 1465 1384 1504 1465 1463 1481 1408 1508 1513 1443 1492 1433 1394 1455 1500 1454 1446 1459 1426 1460 1498 1408 1470 1483 1453 1526 1456 1501 1448 1422 1442 1473 1474 1494 1480 1434 1483 1448 1507 1434 1487 1440 1420 1434 1561 1455 1471 1459 1517 1512 1491 1515 1471 1408 1477 1492 1441 1488 1444 1489 1482 1446 1431 1441 1526 1406 1469 1479 1452 1517 1497 1529 1452 1462 1453 1486 1458 1489 1466 1428 1482 1457 1507 1425 1407 1436 1447 1528 1496 1442 1481 1505 1520 1512 1426 1553 1512 1496 1463 1483 1485 1468 1470 1460 1450 1474 1520 1471 1431 1501 1468 1493 1490 1491 1527 1521 1455 1546 1513 1521 1524 1556 1540 1524 1533 1484 1479 1498 1519 1451 1510 1476 1469 1430 1448 1556 1510 1505 1443 1451 1469 1509 1383 1478 1535 1458 1437 1424 1460 1448 1461 1448 1440 1434 1501 1431 1461 1391 1465 1459 1447 1520 1484 1407 1457 1478 1456 1470 1417 1435 1423 1451 1378 1494 1461 1401 1408 1407 1496 1520 1414 1381 1450 1425 1458 1371 1479 1446 1402 1420 1412 1395 1409 1430 1473 1463 1451 1502 1456 1413 1559 1462 1428 1462 1423 1445 1493 1450 1458 1392 1484 1492 1357 1474 1423 1403 1432 1415 1379 1459 1437 1477 1470 1523 1480 1362 1511 1419 1427 1417 1478 1438 1453 1493 1436 1478 1433 1477 1388 1434 1421 1357 1444 1423 1404 1391 1341 1411 1403 1502 1420 1490 1477 1452 1498 1411 1434 1442 1457 1408 1405 1419 1437 1402 1417 1388 1462 1451 1471 1486 1447 1452 1390 1475 1475 1467 1485 1460 1480 1439 1447 1402 1422 1459 1411 1517 1435 1404 1482 1429 1469 1458 1378 1442 1399 1404 1380 1400 1473 1444 1462 1430 1466 1463 1450 1487 1425 1478 1384 1406 1475 1497 1434 1458 1452 1453 1382 1404 1449 1399 1410 1473 1425 1442 1427 1421 1439 1533 1466 1472 1475 1453 1434 1448 1434 1478 1501 1435 1400 1483 1460 1416 1467 1495 1520 1483 1375 1496 1509 1477 1552 1455 1476 1525 1619 1468 1528 1456 1483 1596 1560 1479 1502 1507 1555 1550 1589 1573 1495 1608 1591 1544 1579 1595 1590 1549 1620 1638 1538 1551 1581 1589 1519 1628 1536 1594 1498 1583 1571 1603 1564 1626 1586 1549 1615 1572 1502 1552 1513 1488 1505 1515 1508 1586 1480 1476 1472 1543 1471 1517 1535 1542 1510 1571 1480 1481 1485 1456 1473 1405 1426 1420 1423 1461 1352 1485 1495 1416 1452 1431 1438 1483 1438 1472 1437 1473 1508 1481 1479 1387 1354 1465 1437 1420 1468 1356 1450 1432 1462 1421 1460 1426 1414 1484 1469 1347 1538 1423 1423 1464 1511 1458 1411 1486 1422 1487 1367 1460 1487 1455 1401 1430 1447 1485 1410 1472 1459 1477 1441 1444 1477 1459 1484 1395 1423 1456 1473 1447 1473 1457 1427 1433 1448 1463 1408 1352 1472 1335 1475 1389 1413 1415 1447 1456 1459 1425 1405 1426 1372 1393 1431 1370 1394 1338 1432 1383 1517 1428 1436 1407 1436 1445 1369 1378 1431 1383 1388 1392 1365 1454 1465 1418 1386 1423 1385 1465 1478 1434 1449 1412 1461 1447 1403 1453 1462 1323 1455 1453 1464 1443 1454 1402 1405 1379 1390 1414 1421 1368 1444 1422 1429 1490 1410 1423 1421 1331 1517 1461 1425 1492 1381 1453 1470 1448 1449 1389 1392 1418 1374 1441 1409 1426 1387 1397 1396 1468 1377 1461 1394 1400 1402 1433 1401 1444 1487 1375 1403 1449 1380 1387 1392 1470 1424 1435 1508 1456 1420 1390 1399 1420 1484 1467 1481 1412 1403 1438 1377 1485 1460 1410 1383 1431 1468 1428 1458 1409 1392 1409 1434 1453 1423 1398 1374 1431 1435 1441 1429 1405 1393 1524 1434 1387 1370 1416 1439 1463 1449 1421 1399 1442 1394 1400 1369 1328 1420 1378 1364 1346 1481 1463 1329 1469 1339 1411 1333 1385 1422 1437 1502 1435 1388 1382 1409 1409 1465 1373 1454 1427 1462 1374 1449 1384 1405 1422 1421 1443 1408 1392 1449 1463 1455 1301 1401 1360 1390 1442 1398 1451 1421 1407 1442 1487 1419 1448 1436 1398 1474 1369 1430 1415 1411 1413 1508 1490 1459 1434 1471 1428 1438 1387 1446 1444 1441 1473 1436 1414 1451 1456 1402 1446 1438 1456 1428 1495 1448 1454 1494 1522 1521 1526 1561 1563 1513 1548 1514 1603 1551 1525 1477 1676 1616 1699 1665 1620 1649 1765 1777 1785 1708 1772 1749 1738 1804 1748 1864 1866 1787 1864 1791 1883 1879 1856 1924 1921 1903 1902 1911 2032 1873 2004 1894 2062 2051 2054 1990 2014 2045 1997 1921 1982 1944 1874 1903 1880 1935 1826 1945 1747 1780 1849 1823 1759 1753 1774 1616 1772 1671 1708 1623 1713 1658 1714 1695 1628 1637 1661 1672 1597 1534 1591 1522 1582 1503 1544 1582 1516 1612 1536 1573 1599 1539 1579 1496 1555 1511 1612 1440 1560 1588 1514 1502 1511 1470 1495 1471 1458 1495 1439 1489 1472 1441 1464 1433 1501 1431 1453 1484 1448 1383 1458 1511 1475 1454 1476 1416 1506 1486 1429 1476 1469 1390 1464 1466 1441 1435 1505 1433 1423 1407 1423 1520 1498 1469 1394 1465 1436 1445 1528 1488 1550 1472 1452 1458 1454 1444 1492 1446 1390 1422 1491 1520 1376 1490 1480 1479 1423 1360 1422 1382 1360 1479 1432 1374 1402 1416 1465 1415 1415 1456 1399 1461 1369 1450 1443 1439 1367 1459 1423 1353 1493 1430 1421 1460 1397 1440 1435 1453 1466 1457 1438 1455 1435 1398 1390 1348 1437 1409 1384 1404 1323 1460 1455 1386 1388 1421 1419 1371 1424 1428 1332 1387 1465 1396 1364 1421 1418 1407 1420 1433 1480 1421 1449 1343 1358 1383 1402 1465 1433 1500 1383 1424 1441 1388 1453 1425 1419 1446 1502 1419 1390 1390 1433 1419 1428 1471 1459 1426 1462 1480 1482 1466 1398 1497 1432 1472 1507 1489 1521 1422 1533 1492 1492 1456 1449 1447 1522 1454 1426 1403 1545 1459 1521 1471 1452 1471 1426 1437 1477 1499 1473 1515 1464 1479 1443 1505 1429 1497 1443 1463 1512 1386 1483 1427 1484 1478 1376 1387 1403 1427 1448 1478 1453 1458 1400 1501 1361 1528 1398 1426 1397 1443 1481 1518 1456 1456 1405 1416 1413 1399 1469 1444 1458 1425 1411 1340 1399 1429 1443 1459 1415 1493 1519 1360 1399 1445 1453 1437 1430 1437 1459 1424 1393 1454 1384 1410 1416 1369 1423 1441 1433 1444 1399 1445 1432 1452 1396 1438 1437 1400 1361 1366 1374 1424 1436 1387 1361 1373 1328 1352 1433 1433 1416 1386 1411 1454 1417 1417 1392 1427 1392 1414 1388 1440 1443 1351 1390 1297 1397 1374 1395 1458 1365 1400 1441 1427 1382 1446 1433 1371 1448 1395 1325 1372 1363 1387 1389 1360 1352 1414 1336 1356 1394 1442 1365 1302 1440 1453 1381 1410 1382 1413 1399 1374 1388 1360 1344 1394 1412 1434 1417 1400 1348 1399 1318 1375 1381 1433 1384 1423 1412 1426 1408 1360 1399 1365 1394 1326 1438 1343 1401 1327 1355 1310 1379 1349 1405 1404 1379 1405 1343 1413 1363 1333 1376 1338 1348 1414 1433 1394 1388 1383 1364 1388 1324 1365 1373 1410 1354 1387 1338 1319 1321 1303 1361 1388 1389 1332 1412 1349 1336 1467 1389 1406 1437 1467 1354 1374 1433 1380 1405 1410 1456 1385 1363 1352 1378 1384 1431 1351 1377 1347 1322 1363 1346 1396 1404 1437 1328 1431 1393 1365 1367 1386 1347 1403 1438 1350 1415 1399 1404 1346 1377 1373 1392 1437 1354 1357 1348 1395 1380 1403 1441 1312 1324 1383 1391 1301 1330 1361 1386 1305 1368 1448 1319 1338 1352 1319 1414 1349 1399 1355 1374 1322 1330 1430 1354 1385 1318 1379 1330 1410 1355 1383 1388 1339 1381 1354 1308 1390 1382 1345 1370 1354 1376 1332 1359 1434 1377 1337 1364 1350 1398 1420 1330 1389 1381 1383 1346 1365 1319 1342 1403 1341 1360 1390 1424 1372 1424 1336 1377 1338 1364 1401 1358 1309 1418 1377 1341 1390 1369 1391 1324 1356 1410 1406 1413 1318 1427 1326 1459 1375 1422 1358 1430 1354 1398 1382 1380 1398 1379 1417 1441 1338 1412 1376 1397 1317 1355 1309 1318 1346 1348 1377 1357 1330 1386 1386 1395 1414 1396 1345 1369 1372 1373 1351 1389 1341 1333 1328 1415 1371 1400 1458 1349 1395 1354 1409 1375 1291 1282 1354 1357 1353 1385 1333 1380 1364 1330 1428 1397 1312 1378 1336 1324 1364 1349 1357 1377 1366 1389 1303 1394 1327 1354 1394 1379 1369 1351 1386 1347 1360 1341 1398 1363 1364 1317 1397 1383 1374 1335 1319 1320 1339 1352 1365 1361 1374 1375 1396 1365 1344 1348 1407 1349 1393 1315 1426 1374 1384 1352 1328 1361 1316 1325 1414 1291 1407 1381 1402 1314 1368 1334 1353 1357 1333 1365 1326 1349 1378 1391 1449 1337 1330 1342 1349 1416 1329 1383 1334 1376 1446 1306 1340 1380 1386 1383 1364 1376 1370 1318 1346 1422 1298 1432 1321 1308 1319 1351 1405 1409 1393 1406 1396 1369 1381 1355 1443 1341 1415 1314 1466 1393 1351 1384 1478 1423 1296 1402 1331 1422 1298 1368 1394 1377 1377 1303 1366 1394 1417 1405 1354 1369 1397 1406 1437 1420 1406 1410 1408 1380 1331 1351 1413 1378 1338 1415 1353 1339 1401 1423 1404 1433 1322 1380 1338 1437 1331 1377 1345 1394 1355 1425 1410 1427 1405 1356 1417 1341 1367 1380 1402 1402 1426 1392 1342 1394 1396 1366 1433 1394 1397 1455 1344 1474 1442 1469 1493 1398 1450 1354 1458 1417 1469 1444 1431 1437 1474 1411 1443 1479 1446 1458 1383 1407 1408 1409 1425 1447 1451 1438 1408 1396 1452 1448 1441 1367 1403 1393 1444 1426 1463 1478 1399 1403 1390 1401 1360 1450 1390 1365 1464 1360 1480 1446 1347 1387 1444 1402 1356 1437 1447 1315 1372 1424 1391 1372 1400 1444 1359 1353 1365 1478 1418 1393 1317 1400 1406 1372 1382 1328 1383 1318 1316 1321 1334 1372 1391 1372 1345 1442 1425 1434 1366 1358 1296 1391 1358 1270 1389 1367 1413 1376 1350 1353 1381 1327 1414 1360 1369 1329 1394 1286 1404 1378 1397 1358 1343 1397 1306 1353 1316 1382 1383 1324 1361 1344 1338 1359 1340 1414 1456 1335 1369 1329 1425 1325 1367 1312 1388 1434 1302 1395 1408 1330 1343 1312 1396 1307 1307 1361 1390 1478 1294 1348 1340 1433 1420 1410 1315 1423 1378 1387 1309 1370 1407 1403 1387 1385 1344 1306 1389 1327 1373 1378 1411 1343 1328 1390 1362 1346 1331 1249 1353 1355 1398 1370 1404 1404 1357 1332 1337 1344 1368 1341 1352 1405 1340 1359 1319 1389 1339 1376 1321 1278 1369 1335 1378 1324 1378 1331 1301 1315 1383 1383 1300 1376 1357 1316 1415 1350 1389 1331 1369 1316 1353 1346 1348 1398 1284 1363 1380 1396 1377 1322 1375 1356 1372 1357 1330 1382 1322 1365 1382 1350 1320 1348 1338 1387 1325 1391 1375 1346 1325 1352 1402 1378 1398 1433 1365 1442 1393 1388 1436 1424 1404 1348 1375 1396 1387 1381 1440 1438 1450 1320 1501 1422 1460 1385 1432 1475 1476 1401 1428 1483 1422 1396 1418 1463 1422 1493 1471 1406 1435 1467 1460 1454 1505 1434 1461 1433 1502 1412 1386 1481 1466 1460 1469 1448 1484 1444 1461 1426 1439 1475 1486 1424 1437 1400 1445 1400 1440 1431 1442 1432 1439 1487 1378 1405 1417 1410 1453 1448 1453 1438 1412 1444 1352 1383 1456 1430 1490 1447 1404 1410 1384 1404 1404 1393 1427 1399 1460 1402 1407 1398 1381 1403 1366 1353 1403 1389 1368 1358 1430 1375 1397 1336 1338 1378 1470 1467 1394 1325 1334 1379 1327 1319 1416 1322 1343 1339 1369 1385 1333 1291 1324 1384 1322 1348 1421 1343 1389 1390 1344 1316 1314 1422 1394 1356 1327 1386 1368 1369 1391 1317 1367 1340 1319 1401 1340 1412 1335 1367 1354 1325 1397 1382 1371 1420 1364 1398 1372 1368 1381 1365 1400 1391 1413 1322 1324 1345 1289 1414 1345 1392 1360 1356 1330 1398 1413 1298 1337 1439 1412 1328 1371 1419 1389 1320 1351 1293 1357 1387 1288 1337 1324 1325 1336 1351 1349 1391 1405 1339 1393 1299 1407 1361 1344 1368 1329 1451 1385 1420 1362 1388 1449 1354 1385 1410 1372 1407 1319 1357 1383 1421 1339 1448 1381 1396 1439 1373 1404 1428 1437 1421 1364 1475 1425 1389 1439 1412 1388 1391 1378 1406 1442 1442 1419 1402 1357 1445 1458 1327 1440 1378 1433 1411 1293 1343 1416 1350 1368 1470 1426 1348 1417 1363 1392 1390 1368 1395 1349 1340 1313 1347 1322 1385 1375 1429 1443 1443 1392 1347 1384 1366 1285 1410 1383 1338 1333 1379 1424 1362 1374 1348 1350 1321 1321 1315 1311 1353 1332 1380 1365 1334 1387 1335 1325 1345 1335 1411 1373 1331 1388 1253 1399 1292 1353 1379 1349 1364 1336 1396 1379 1378 1367 1328 1358 1364 1393 1364 1324 1371 1317 1389 1289 1384 1325 1392 1396 1337 1394 1326 1319 1306 1349 1278 1329 1368 1294 1287 1374 1308 1360 1345 1360 1402 1367 1418 1285 1295 1362 1399 1384 1342 1384 1331 1298 1312 1375 1367 1352 1354 1338 1360 1296 1311 1374 1361 1334 1342 1342 1364 1335 1286 1338 1383 1349 1355 1333 1357 1360 1328 1358 1335 1389 1363 1354 1393 1323 1319 1393 1343 1407 1361 1302 1317 1338 1378 1320 1351 1349 1390 1300 1290 1304 1395 1319 1400 1365 1318 1349 1343 1323 1366 1272 1400 1368 1381 1389 1341 1372 1327 1374 1296 1297 1313 1271 1332 1341 1365 1414 1335 1364 1335 1290 1347 1335 1344 1332 1361 1345 1344 1310 1383 1378 1306 1394 1369 1297 1240 1373 1336 1341 1317 1383 1418 1276 1365 1329 1253 1387 1358 1351 1342 1293 1327 1311 1346 1331 1344 1434 1357 1390 1308 1310 1296 1357 1315 1304 1342 1357 1285 1332 1381 1343 1465 1279 1378 1369 1311 1358 1285 1349 1284 1393 1371 1455 1310 1340 1318 1376 1330 1370 1355 1345 1393 1354 1335 1360 1340 1379 1385 1404 1392 1358 1350 1345 1351 1335 1352 1333 1362 1339 1377 1369 1399 1393 1267 1372 1344 1315 1282 1428 1404 1305 1350 1400 1360 1335 1350 1384 1306 1388 1342 1361 1392 1394 1390 1403 1356 1331 1392 1360 1421 1293 1401 1347 1351 1392 1285 1319 1319 1364 1344 1366 1343 1359 1357 1395 1331 1379 1271 1342 1334 1346 1353 1352 1404 1380 1272 1344 1381 1341 1341 1424 1305 1306 1349 1301 1359 1303 1347 1389 1338 1348 1319 1350 1315 1358 1358 1435 1417 1385 1348 1339 1321 1394 1359 1323 1286 1377 1341 1388 1391 1291 1363 1364 1379 1319 1365 1374 1318 1349 1339 1363 1370 1393 1353 1342 1339 1368 1389 1310 1380 1372 1353 1403 1412 1337 1349 1408 1357 1359 1248 1363 1313 1384 1352 1348 1344 1395 1322 1407 1390 1328 1368 1366 1397 1329 1312 1352 1342 1325 1325 1377 1299 1370 1355 1304 1335 1411 1380 1279 1446 1340 1341 1390 1284 1332 1365 1337 1349 1405 1366 1303 1337 1375 1413 1339 1379 1394 1399 1314 1362 1320 1393 1388 1395 1375 1353 1387 1379 1312 1374 1296 1364 1371 1324 1346 1337 1359 1353 1335 1315 1377 1372 1388 1376 1329 1389 1371 1313 1371 1406 1390 1381 1403 1417 1407 1350 1393 1352 1403 1433 1410 1358 1285 1407 1414 1355 1335 1355 1354 1349 1431 1376 1415 1393 1385 1328 1377 1406 1313 1311 1394 1395 1431 1305 1389 1423 1378 1357 1404 1373 1386 1397 1372 1367 1401 1339 1397 1366 1418 1383 1356 1417 1415 1380 1336 1420 1314 1390 1387 1318 1311 1410 1360 1318 1335 1344 1356 1349 1380 1390 1345 1357 1342 1358 1326 1368 1304 1397 1325 1295 1387 1388 1367 1278 1361 1336 1375 1471 1392 1354 1298 1334 1344 1270 1373 1358 1371 1378 1318 1281 1363 1420 1366 1382 1293 1393 1296 1375 1289 1330 1363 1291 1428 1283 1376 1284 1330 1396 1328 1343 1384 1290 1353 1388 1435 1390 1372 1312 1375 1312 1275 1362 1341 1360 1357 1404 1330 1338 1314 1430 1332 1379 1351 1393 1384 1409 1398 1357 1362 1424 1350 1353 1390 1399 1343 1335 1283 1343 1341 1407 1322 1369 1364 1329 1306 1353 1383 1402 1337 1438 1354 1396 1353 1335 1347 1327 1382 1314 1350 1298 1292 1308 1341 1395 1274 1275 1339 1360 1345 1349 1307 1304 1371 1400 1374 1378 1317 1336 1283 1311 1398 1348 1356 1367 1302 1397 1316 1447 1350 1333 1348 1358 1327 1335 1420 1289 1322 1349 1331 1341 1430 1330 1385 1308 1353 1306 1336 1384 1440 1381 1256 1332 1373 1402 1354 1325 1353 1371 1371 1329 1393 1314 1384 1386 1344 1313 1364 1320 1346 1345 1338 1374 1370 1332 1351 1312 1379 1384 1295 1418 1413 1351 1421 1312 1323 1280 1346 1401 1406 1365 1343 1437 1309 1376 1389 1388 1326 1330 1288 1396 1365 1373 1402 1366 1381 1320 1361 1326 1401 1353 1455 1359 1444 1341 1415 1386 1342 1360 1368 1390 1375 1377 1411 1469 1388 1403 1353 1403 1309 1404 1330 1354 1344 1468 1462 1371 1397 1446 1394 1380 1428 1377 1388 1396 1345 1436 1371 1379 1381 1361 1373 1319 1415 1348 1344 1377 1356 1311 1385 1432 1376 1400 1321 1327 1382 1398 1341 1324 1333 1387 1361 1390 1390 1384 1395 1390 1335 1418 1353 1360 1401 1348 1397 1376 1414 1396 1432 1401 1460 1383 1449 1392 1376 1307 1330 1428 1427 1385 1365 1368 1400 1350 1412 1355 1417 1398 1360 1317 1426 1421 1448 1413 1421 1388 1385 1403 1458 1373 1398 1445 1390 1379 1394 1384 1427 1369 1342 1439 1330 1346 1317 1367 1391 1394 1315 1290 1347 1408 1364 1353 1371 1366 1331 1337 1324 1335 1373 1337 1367 1317 1397 1418 1388 1362 1382 1394 1381 1386 1392 1310 1389 1361 1307 1344 1414 1364 1353 1384 1334 1340 1397 1388 1353 1408 1339 1428 1346 1340 1400 1319 1357 1387 1304 1396 1378 1353 1397 1335 1307 1373 1319 1349 1366 1403 1331 1355 1354 1379 1449 1356 1418 1335 1347 1381 1337 1356 1386 1384 1313 1344 1271 1373 1364 1350 1316 1352 1322 1345 1346 1325 1356 1387 1351 1381 1441 1366 1361 1376 1379 1391 1408 1379 1346 1385 1304 1293 1401 1360 1332 1355 1289 1315 1332 1284 1340 1371 1421 1345 1389 1367 1322 1346 1392 1359 1347 1296 1370 1379 1355 1368 1394 1400 1271 1361 1407 1322 1368 1396 1350 1315 1407 1327 1381 1313 1320 1377 1329 1404 1350 1396 1270 1344 1342 1389 1380 1400 1390 1369 1370 1337 1376 1322 1290 1414 1259 1396 1366 1363 1350 1405 1379 1408 1388 1329 1434 1339 1398 1303 1349 1380 1389 1382 1413 1370 1367 1388 1348 1354 1292 1338 1360 1311 1331 1380 1372 1399 1459 1314 1397 1388 1426 1328 1334 1409 1310 1361 1397 1370 1406 1365 1325 1329 1451 1363 1382 1374 1360 1309 1384 1331 1334 1341 1394 1378 1358 1303 1353 1364 1392 1340 1387 1383 1350 1407 1325 1387 1401 1352 1362 1370 1372 1418 1381 1346 1384 1429 1361 1396 1405 1387 1362 1385 1366 1334 1332 1319 1414 1373 1338 1379 1405 1273 1410 1417 1387 1332 1332 1410 1364 1441 1333 1318 1378 1378 1365 1383 1356 1355 1399 1309 1365 1400 1311 1449 1402 1375 1330 1383 1337 1323 1340 1336 1421 1403 1389 1323 1413 1416 1403 1355 1336 1367 1364 1441 1407 1359 1328 1382 1357 1319 1305 1402 1373 1334 1373 1392 1360 1283 1349 1342 1418 1332 1385 1314 1370 1416 1330 1353 1338 1405 1315 1346 1354 1347 1324 1367 1382 1408 1383 1347 1439 1439 1376 1412 1318 1370 1411 1396 1378 1440 1344 1289 1369 1351 1453 1355 1333 1375 1373 1357 1300 1387 1445 1377 1404 1310 1415 1353 1380 1360 1424 1371 1358 1370 1365 1412 1307 1375 1352 1380 1434 1429 1450 1305 1332 1405 1402 1345 1344 1396 1395 1368 1374 1394 1352 1360 1408 1365 1403 1329 1324 1337 1339 1382 1391 1356 1339 1416 1435 1334 1376 1468 1317 1408 1428 1413 1351 1334 1389 1318 1359 1416 1425 1341 1406 1428 1320 1381 1404 1311 1451 1335 1414 1391 1413 1376 1352 1361 1406 1363 1377 1332 1430 1379 1365 1422 1409 1396 1374 1400 1356 1404 1432 1398 1402 1368 1332 1330 1447 1359 1318 1436 1396 1376 1363 1374 1389 1371 1433 1376 1402 1338 1418 1375 1363 1385 1361 1378 1413 1387 1395 1414 1385 1316 1361 1330 1322 1407 1340 1411 1380 1342 1351 1310 1374 1376 1464 1359 1385 1370 1416 1391 1348 1415 1386 1451 1384 1417 1365 1354 1307 1359 1382 1394 1366 1357 1412 1393 1389 1337 1419 1372 1403 1361 1347 1385 1391 1406 1373 1363 1326 1388 1374 1354 1336 1362 1360 1392 1372 1390 1340 1465 1399 1392 1448 1358 1360 1358 1329 1407 1329 1404 1376 1378 1373 1363 1419 1371 1357 1354 1385 1338 1402 1414 1386 1357 1420 1408 1349 1423 1431 1475 1403 1408 1433 1406 1389 1427 1361 1388 1386 1407 1395 1411 1478 1413 1405 1383 1398 1451 1464 1427 1400 1376 1417 1379 1452 1485 1369 1427 1473 1373 1468 1426 1382 1372 1386 1343 1422 1415 1425 1465 1390 1485 1436 1463 1417 1465 1389 1455 1459 1441 1371 1500 1455 1439 1404 1523 1497 1492 1502 1479 1407 1407 1404 1375 1391 1457 1392 1436 1457 1405 1446 1453 1461 1382 1453 1473 1435 1441 1459 1489 1446 1451 1415 1421 1485 1441 1409 1431 1368 1360 1422 1393 1462 1428 1368 1425 1440 1406 1442 1394 1379 1399 1444 1402 1351 1292 1459 1501 1335 1437 1436 1314 1439 1426 1465 1353 1423 1388 1416 1413 1406 1369 1400 1467 1304 1409 1434 1527 1429 1412 1426 1402 1448 1408 1389 1382 1397 1403 1386 1424 1429 1427 1362 1405 1410 1360 1352 1397 1430 1441 1439 1319 1377 1390 1442 1425 1351 1365 1392 1388 1395 1386 1356 1368 1482 1450 1454 1444 1332 1413 1389 1394 1401 1402 1392 1453 1360 1384 1418 1377 1425 1445 1342 1393 1384 1388 1320 1392 1432 1337 1397 1402 1402 1340 1350 1330 1414 1406 1485 1443 1408 1377 1387 1384 1448 1453 1356 1388 1396 1353 1409 1345 1399 1476 1378 1430 1390 1426 1397 1422 1333 1439 1410 1373 1407 1443 1344 1459 1396 1434 1440 1432 1410 1407 1415 1433 1376 1360 1380 1421 1468 1340 1380 1429 1419 1406 1451 1381 1407 1398 1430 1433 1382 1461 1434 1483 1373 1336 1352 1393 1408 1400 1455 1431 1443 1418 1427 1444 1444 1378 1358 1420 1403 1408 1398 1467 1460 1519 1461 1442 1408 1472 1483 1449 1447 1533 1483 1543 1533 1442 1525 1447 1374 1526 1453 1490 1501 1569 1526 1492 1499 1562 1586 1445 1538 1501 1399 1537 1460 1476 1541 1445 1415 1538 1509 1550 1553 1525 1532 1458 1563 1479 1589 1556 1499 1469 1518 1440 1517 1484 1543 1515 1486 1458 1610 1487 1528 1496 1522 1442 1491 1493 1495 1492 1551 1491 1492 1506 1516 1433 1469 1473 1447 1468 1417 1519 1561 1542 1415 1449 1489 1438 1410 1471 1438 1460 1434 1511 1470 1453 1347 1455 1492 1425 1435 1468 1433 1420 1463 1394 1448 1401 1391 1464 1412 1453 1446 1338 1440 1453 1424 1426 1472 1385 1429 1392 1419 1413 1408 1449 1455 1362 1426 1461 1517 1436 1403 1414 1463 1422 1494 1467 1498 1388 1461 1397 1439 1383 1464 1473 1413 1416 1421 1382 1348 1461 1374 1421 1396 1405 1390 1432 1430 1416 1376 1357 1349 1412 1451 1419 1357 1424 1438 1406 1389 1370 1391 1474 1359 1384 1373 1475 1395 1486 1338 1480 1389 1445 1416 1457 1390 1463 1341 1402 1443 1386 1355 1409 1411 1416 1368 1424 1358 1449 1451 1396 1373 1409 1374 1466 1373 1456 1351 1430 1447 1414 1378 1443 1416 1427 1489 1435 1408 1379 1415 1427 1484 1395 1359 1355 1435 1463 1455 1423 1386 1393 1461 1501 1406 1516 1444 1362 1400 1343 1484 1392 1371 1446 1398 1381 1354 1382 1442 1411 1373 1440 1452 1461 1385 1443 1398 1374 1353 1414 1430 1392 1394 1385 1468 1417 1385 1391 1457 1370 1333 1374 1387 1485 1394 1412 1409 1436 1385 1486 1421 1398 1378 1419 1416 1410 1391 1356 1391 1419 1426 1451 1419 1435 1415 1413 1387 1459 1382 1403 1466 1316 1340 1334 1432 1418 1440 1335 1368 1358 1378 1416 1409 1411 1450 1396 1395 1423 1328 1349 1404 1393 1277 1415 1372 1424 1436 1412 1419 1403 1351 1384 1344 1391 1361 1363 1327 1334 1379 1336 1368 1365 1424 1326 1360 1428 1367 1350 1358 1365 1446 1357 1351 1454 1419 1430 1388 1396 1401 1392 1445 1415 1410 1428 1409 1318 1335 1346 1411 1395 1437 1339 1408 1361 1424 1377 1326 1428 1391 1393 1412 1301 1381 1439 1415 1374 1367 1383 1349 1408 1385 1384 1401 1423 1439 1401 1385 1398 1365 1425 1401 1411 1394 1441 1402 1424 1369 1438 1442 1368 1355 1405 1363 1398 1412 1415 1374 1385 1371 1436 1378 1335 1371 1345 1357 1345 1364 1419 1353 1432 1450 1420 1430 1398 1380 1367 1432 1383 1393 1348 1438 1435 1420 1431 1386 1349 1421 1324 1362 1379 1466 1417 1387 1358 1345 1376 1396 1360 1329 1424 1458 1391 1413 1363 1432 1371 1412 1338 1462 1426 1312 1371 1352 1383 1323 1376 1387 1365 1408 1457 1360 1406 1376 1360 1428 1430 1429 1316 1350 1400 1422 1366 1408 1398 1405 1386 1386 1373 1366 1346 1458 1394 1477 1442 1452 1355 1389 1308 1409 1425 1411 1431 1456 1338 1409 1363 1349 1408 1358 1460 1360 1358 1449 1389 1411 1386 1415 1444 1404 1397 1379 1392 1436 1420 1425 1409 1408 1445 1384 1430 1415 1373 1430 1384 1369 1444 1431 1361 1298 1425 1475 1394 1423 1427 1445 1390 1400 1416 1377 1354 1380 1371 1386 1386 1351 1405 1363 1401 1416 1359 1383 1472 1351 1471 1413 1431 1412 1362 1401 1372 1418 1327 1400 1406 1366 1422 1408 1383 1362 1394 1416 1390 1435 1374 1374 1387 1378 1377 1438 1343 1495 1360 1394 1442 1382 1470 1377 1416 1433 1366 1424 1416 1437 1396 1397 1405 1457 1456 1413 1424 1428 1427 1400 1385 1429 1347 1417 1354 1345 1410 1407 1408 1361 1379 1424 1416 1418 1385 1381 1364 1463 1352 1426 1410 1386 1449 1432 1461 1406 1378 1408 1434 1443 1527 1344 1368 1402 1465 1300 1418 1403 1404 1456 1423 1376 1515 1445 1400 1391 1412 1469 1417 1442 1457 1392 1427 1437 1397 1469 1413 1409 1446 1418 1421 1407 1381 1412 1400 1447 1409 1410 1362 1539 1373 1404 1399 1346 1374 1388 1467 1393 1432 1417 1454 1365 1331 1424 1308 1457 1440 1377 1334 1425 1444 1405 1329 1370 1496 1487 1407 1395 1410 1365 1332 1380 1420 1354 1440 1374 1366 1448 1395 1487 1467 1425 1370 1419 1464 1364 1439 1447 1318 1411 1439 1450 1431 1414 1374 1382 1416 1388 1394 1403 1437 1417 1402 1442 1379 1345 1375 1427 1432 1442 1477 1400 1460 1385 1317 1412 1417 1327 1423 1427 1422 1463 1420 1408 1429 1447 1364 1436 1443 1398 1447 1385 1408 1431 1403 1453 1407 1454 1443 1380 1390 1388 1371 1394 1440 1455 1443 1336 1410 1390 1373 1367 1416 1380 1395 1403 1455 1441 1416 1402 1486 1470 1375 1408 1441 1392 1404 1419 1401 1432 1418 1407 1504 1493 1405 1444 1402 1383 1420 1373 1382 1396 1419 1391 1421 1442 1312 1415 1418 1348 1444 1407 1382 1421 1420 1374 1359 1369 1413 1312 1418 1368 1378 1410 1407 1365 1388 1378 1453 1473 1434 1395 1409 1410 1403 1418 1465 1441 1452 1476 1432 1359 1287 1394 1426 1430 1327 1394 1454 1413 1463 1453 1442 1380 1396 1405 1395 1358 1406 1480 1387 1417 1390 1466 1449 1442 1352 1408 1451 1388 1414 1364 1443 1455 1362 1445 1378 1436 1436 1352 1454 1380 1468 1443 1371 1438 1427 1439 1326 1427 1376 1404 1414 1431 1423 1443 1492 1435 1472 1348 1428 1424 1410 1417 1433 1415 1416 1485 1414 1459 1437 1457 1403 1434 1405 1471 1494 1414 1448 1413 1395 1422 1431 1446 1417 1388 1582 1380 1451 1448 1389 1489 1389 1425 1436 1505 1373 1487 1462 1400 1407 1449 1489 1465 1437 1487 1399 1498 1461 1418 1477 1441 1467 1405 1461 1489 1412 1464 1462 1477 1388 1525 1507 1477 1449 1508 1515 1406 1425 1439 1469 1448 1426 1438 1442 1473 1492 1443 1454 1482 1501 1526 1447 1439 1492 1456 1453 1451 1457 1522 1448 1517 1463 1399 1394 1400 1386 1409 1425 1402 1529 1455 1459 1387 1435 1469 1474 1449 1484 1383 1479 1431 1532 1470 1423 1493 1393 1480 1464 1471 1398 1395 1441 1524 1397 1471 1472 1410 1425 1444 1496 1452 1445 1366 1438 1464 1496 1442 1484 1456 1512 1421 1441 1526 1492 1408 1407 1503 1404 1516 1465 1438 1395 1382 1508 1409 1498 1488 1419 1371 1413 1452 1437 1503 1440 1432 1401 1466 1392 1450 1428 1395 1457 1410 1449 1535 1378 1503 1418 1412 1419 1418 1504 1421 1438 1436 1457 1443 1478 1428 1473 1438 1406 1513 1415 1459 1432 1403 1336 1458 1437 1462 1444 1453 1406 1436 1362 1453 1414 1411 1442 1398 1477 1381 1445 1415 1477 1428 1412 1403 1419 1408 1397 1384 1412 1467 1351 1427 1443 1491 1390 1425 1489 1415 1450 1474 1419 1364 1385 1404 1451 1414 1461 1436 1457 1490 1489 1373 1455 1409 1358 1434 1435 1465 1400 1389 1410 1507 1371 1442 1480 1431 1352 1369 1420 1467 1460 1487 1376 1413 1465 1370 1431 1473 1387 1421 1402 1371 1431 1351 1413 1418 1459 1456 1464 1366 1490 1462 1434 1370 1437 1435 1527 1480 1390 1500 1463 1418 1433 1444 1415 1429 1369 1393 1440 1459 1406 1426 1426 1416 1471 1513 1474 1451 1412 1458 1352 1398 1422 1456 1433 1367 1394 1497 1426 1432 1449 1389 1468 1389 1421 1464 1434 1384 1510 1445 1408 1439 1372 1458 1389 1425 1474 1420 1422 1436 1464 1391 1533 1451 1454 1491 1474 1452 1473 1469 1474 1528 1478 1427 1416 1437 1383 1370 1436 1460 1437 1361 1487 1413 1458 1479 1368 1405 1380 1452 1485 1372 1409 1404 1430 1411 1420 1462 1399 1447 1468 1390 1435 1432 1414 1401 1325 1377 1465 1462 1434 1452 1406 1459 1489 1427 1420 1465 1380 1445 1463 1360 1470 1430 1367 1442 1479 1381 1429 1471 1393 1420 1432 1441 1470 1450 1321 1428 1449 1468 1423 1421 1429 1371 1420 1394 1455 1462 1402 1452 1457 1333 1413 1399 1364 1457 1433 1362 1441 1426 1396 1424 1426 1376 1414 1475 1411 1325 1380 1392 1461 1430 1424 1450 1426 1421 1396 1451 1409 1381 1440 1372 1446 1379 1490 1411 1440 1441 1399 1501 1377 1441 1423 1414 1388 1398 1442 1365 1449 1392 1377 1439 1451 1440 1429 1423 1418 1481 1424 1481 1355 1477 1411 1344 1488 1394 1438 1433 1445 1395 1413 1431 1395 1484 1403 1472 1447 1436 1340 1403 1376 1489 1471 1381 1397 1451 1421 1431 1496 1448</counts>
			</dataPoints>
		</scan>
	</xrdMeasurement>
</xrdMeasurements>
