<?xml version="1.0"?>
<xrdMeasurements xmlns="http://www.xrdml.com/XRDMeasurement/2.3" xmlns:xsi="http://www.w3.org/2001/XMLSchema-instance" xsi:schemaLocation="http://www.xrdml.com/XRDMeasurement/2.3 http://www.xrdml.com/XRDMeasurement/2.3/XRDMeasurement.xsd" status="Completed" recordIdentifier="{8D730C45-ED86-4A6C-B13B-05B845086329}">
	<comment>
		<entry/>
	</comment>
	<sample type="To be analyzed">
		<id>GPSS_Li1p4Ca0p6Co0p2Ta0p2Cl4_102025_68f72594028f64128e25d0ce</id>
		<name></name>
		<preparedBy></preparedBy>
	</sample>
	<xrdMeasurement measurementType="Scan" status="Completed" sampleMode="Reflection">
		<usedWavelength intended="K-Alpha 1">
			<kAlpha1 unit="Angstrom">1.5405980</kAlpha1>
			<kAlpha2 unit="Angstrom">1.5444260</kAlpha2>
			<kBeta unit="Angstrom">1.3922500</kBeta>
			<ratioKAlpha2KAlpha1>0.5000</ratioKAlpha2KAlpha1>
		</usedWavelength>
		<incidentBeamPath>
			<radius unit="mm">145.00</radius>
			<xRayTube id="1010048" name="Empyrean Cu LFF HR (9430 033 7310x)">
				<tension unit="kV">40.0</tension>
				<current unit="mA">15.0</current>
				<anodeMaterial>Cu</anodeMaterial>
				<focus type="Line">
					<length unit="mm">12.0</length>
					<width unit="mm">0.4</width>
					<takeOffAngle unit="deg">6.0</takeOffAngle>
				</focus>
			</xRayTube>
			<sollerSlit id="21010002" name="Soller slits 0.04 rad.">
				<opening unit="rad">0.0400</opening>
			</sollerSlit>
			<mask id="22031000" name="Fixed mask 13 mm">
				<width unit="mm">9.00</width>
			</mask>
			<divergenceSlit id="22120001" name="Divergence slit 1°" xsi:type="fixedDivergenceSlitType">
				<distanceToSample unit="mm">50.00</distanceToSample>
				<height unit="mm">1.52</height>
			</divergenceSlit>
		</incidentBeamPath>
		<sampleMovement xsi:type="spinningSampleMovementType">
			<spinnerRevolutionTime unit="seconds">1.0</spinnerRevolutionTime>
		</sampleMovement>
		<diffractedBeamPath>
			<radius unit="mm">145.00</radius>
			<antiScatterSlit id="22090040" name="AS slit 9 mm (PIXcel)" xsi:type="fixedAntiScatterSlitType">
				<height unit="mm">9.00</height>
			</antiScatterSlit>
			<sollerSlit id="21020003" name="Large Soller slits 0.04 rad.">
				<opening unit="rad">0.0400</opening>
			</sollerSlit>
			<filter id="20030001" name="Large beta-filter Nickel">
				<material>Ni</material>
				<thickness unit="mm">0.020</thickness>
			</filter>
			<detector id="7010019" name="PIXcel1D-Medipix3 detector" xsi:type="rtmsDetectorType">
				<phd unit="keV">
					<lowerLevel>4.02</lowerLevel>
					<upperLevel>11.27</upperLevel>
				</phd>
				<mode>Scanning</mode>
				<activeLength unit="deg">5.542</activeLength>
			</detector>
		</diffractedBeamPath>
		<scan appendNumber="0" mode="Continuous" scanAxis="Gonio" status="Completed">
			<header>
				<startTimeStamp>2025-10-26T15:53:43-07:00</startTimeStamp>
				<endTimeStamp>2025-10-26T16:01:51-07:00</endTimeStamp>
				<author>
					<name>AutomatedUser</name>
				</author>
				<source>
					<applicationSoftware version="1.7b (136)">PANalytical Aeris Instrument Suite</applicationSoftware>
					<instrumentControlSoftware version="3.2.00000000 20240306">AERIS</instrumentControlSoftware>
					<instrumentID>950485</instrumentID>
				</source>
			</header>
			<dataPoints>
				<positions axis="2Theta" unit="deg">
					<startPosition>10.00943322</startPosition>
					<endPosition>99.99442286</endPosition>
				</positions>
				<positions axis="Omega" unit="deg">
					<startPosition>5.00471661</startPosition>
					<endPosition>49.99721143</endPosition>
				</positions>
				<commonCountingTime unit="seconds">12.495</commonCountingTime>
				<counts unit="counts">3075 3060 3067 3085 3051 3092 2973 3041 3048 3052 3069 2973 2991 2972 3017 3033 3028 3063 3044 3090 3069 3118 2986 3029 3090 3006 2955 3062 3043 2965 3073 3034 3025 3075 2926 3092 3061 2981 3123 3124 3073 3048 3054 3049 3014 3060 3113 3124 3063 2969 3124 3025 3014 3049 3051 3026 2976 3050 3100 3020 3015 3016 3043 2945 3055 3092 2977 2926 3109 2960 3049 3061 3024 3043 3061 2940 2926 3114 3056 3035 3018 3021 3096 3038 3052 3095 3026 3147 3090 3042 3038 3019 3020 3090 3048 3182 3027 3010 3030 3012 3117 3131 3129 3071 3150 3068 3051 3145 3072 3090 3086 3095 3077 3053 2984 3029 2932 3086 3063 3088 3124 3051 3154 3171 3109 3079 3070 3125 3112 3112 3192 3086 3037 3054 3039 3035 3079 3033 3112 3172 3098 3070 3152 3060 3214 3076 3095 3038 3049 3159 3140 2987 3107 3030 3124 3047 3117 3035 3097 3075 3042 2973 3034 3149 3022 3035 3127 3058 3033 3015 3071 3093 3106 3060 3094 3003 3089 3161 2986 3040 3016 3099 3099 3126 3151 3138 3035 3021 3064 3018 3018 3052 3017 3113 3069 2988 3036 3035 3099 2981 2995 3075 2943 3056 3007 3076 3083 2905 3088 3073 3025 2921 3035 2988 3028 2942 2888 3023 2999 2966 3047 2998 3057 3027 2978 3072 2950 3071 3028 3032 3042 2957 3038 2913 2934 2909 2946 3003 3024 2982 3011 3068 2894 2901 2981 2886 3041 2889 2900 2844 2893 2905 2906 2911 2910 2989 2945 2979 2972 2982 2966 3015 3020 2865 2985 2948 2908 2913 2918 2893 2896 3024 2979 2906 2938 2890 3013 2887 2940 2965 2981 2949 2959 2915 2901 3024 2982 2924 3014 3066 3012 2961 2985 3012 3071 2978 3087 2955 3001 2933 2916 2932 2964 3045 3034 2987 2985 2999 3055 3106 3006 3077 2991 2991 2969 3018 2988 3032 3002 3002 2952 3090 3138 3079 3184 3078 3132 2977 3081 3070 3170 3077 3096 2978 3066 3147 3167 3080 3157 3076 3143 3099 3144 3117 3105 3098 3157 3179 3191 3209 3174 3174 3212 3192 3267 3168 3211 3309 3203 3258 3270 3216 3202 3299 3254 3243 3262 3372 3426 3313 3309 3336 3391 3314 3395 3414 3234 3433 3235 3332 3340 3290 3288 3247 3421 3394 3435 3372 3339 3427 3430 3401 3428 3438 3487 3455 3460 3505 3372 3466 3326 3485 3506 3462 3453 3499 3570 3479 3536 3505 3499 3481 3476 3533 3490 3531 3591 3405 3457 3528 3451 3501 3503 3424 3538 3591 3517 3551 3463 3528 3604 3552 3621 3568 3507 3520 3646 3680 3532 3618 3777 3746 3756 3869 3745 3917 3726 3854 3894 3732 3827 3901 3781 3763 3918 3858 3822 3875 3931 3884 3867 3822 3772 3809 3861 3763 3749 3741 3641 3714 3760 3708 3712 3619 3785 3736 3664 3657 3639 3554 3641 3690 3819 3597 3512 3546 3708 3553 3629 3661 3691 3728 3716 3518 3486 3412 3505 3429 3396 3337 3376 3383 3304 3361 3412 3418 3377 3353 3351 3263 3385 3403 3334 3310 3387 3227 3309 3384 3308 3159 3319 3145 3217 3188 3215 3357 3290 3284 3278 3179 3198 3169 3145 3228 3277 3241 3282 3130 3232 3198 3189 3259 3167 3241 3129 3204 3196 3175 3150 3222 3198 3181 3019 3140 3171 3252 3098 3125 3142 2983 3091 3164 3104 3030 3035 3032 3084 3127 3152 2987 3035 3113 3066 3000 3075 3020 3043 3076 3021 3049 3016 2954 3044 3065 2951 3041 2995 3063 2941 3030 2999 3067 2983 2998 3060 2994 3058 2977 2979 3052 2987 2953 2986 2929 2968 2953 2961 2858 3020 2924 2973 2958 3052 3001 2931 2878 2931 2974 3015 2898 3019 2985 3009 2909 3096 2829 2964 2983 2997 2987 2990 2886 2893 2886 2890 2922 2962 2903 2943 2932 2928 2879 2969 2837 2912 2921 3018 2936 2893 3028 2994 2966 2886 3010 2927 2972 2899 2979 2970 2971 3044 2945 2953 3024 3142 3103 2977 2943 2920 3064 2982 2981 2963 2947 3002 2981 2889 2961 3007 2878 2992 3003 2951 2943 2925 2921 2850 2994 2971 2917 2942 2974 2980 2959 2872 3021 2935 2966 2952 2940 2955 2935 2941 2911 2981 2979 2870 2875 2948 2907 2939 2836 2855 2918 2902 2891 2821 2778 2853 2831 2740 2842 2744 2799 2794 2916 2852 2824 2841 2723 2874 2842 2835 2932 2854 2812 2808 2871 2822 2753 2911 2885 2841 2786 2675 2828 2728 2785 2761 2829 2722 2826 2877 2782 2903 2857 2871 2793 2832 2763 2748 2846 2775 2794 2860 2860 2752 2921 2720 2799 2733 2698 2810 2877 2960 2844 2846 2759 2742 2772 2804 2761 2806 2806 2716 2933 2788 2799 2725 2780 2734 2845 2830 2810 2900 2768 2673 2904 2867 2820 2703 2838 2821 2771 2766 2773 2842 2759 2784 2802 2779 2715 2809 2805 2674 2752 2686 2823 2899 2699 2675 2846 2846 2709 2728 2694 2692 2743 2927 2765 2753 2785 2688 2734 2833 2769 2819 2767 2773 2681 2661 2741 2723 2804 2705 2646 2801 2687 2619 2856 2775 2706 2673 2739 2844 2843 2776 2707 2847 2806 2787 2722 2755 2727 2771 2778 2753 2770 2778 2734 2735 2755 2737 2749 2809 2912 2833 2821 2899 2877 2963 2877 3091 2939 2933 3045 3038 3159 3138 3124 3295 3131 3167 3239 3341 3256 3260 3248 3222 3158 3356 3341 3213 3414 3335 3297 3230 3245 3297 3327 3197 3095 3009 3083 3117 3103 3058 3012 2978 3005 2898 2936 2969 2837 2942 3007 2991 2979 2978 2959 3035 3061 3119 3014 2989 3034 2878 2948 2796 2791 2786 2633 2720 2740 2651 2681 2648 2734 2715 2678 2747 2643 2609 2655 2569 2636 2706 2771 2694 2727 2640 2652 2582 2615 2662 2663 2649 2621 2636 2689 2623 2642 2598 2508 2700 2645 2570 2687 2544 2647 2591 2614 2605 2620 2627 2577 2651 2539 2616 2519 2654 2626 2686 2647 2759 2704 2652 2591 2668 2691 2576 2683 2631 2622 2623 2657 2694 2623 2721 2588 2646 2566 2564 2666 2605 2618 2609 2616 2660 2630 2675 2647 2656 2622 2578 2695 2645 2571 2604 2709 2652 2642 2619 2545 2659 2688 2622 2713 2620 2712 2690 2664 2614 2614 2684 2656 2718 2687 2695 2681 2660 2713 2668 2721 2602 2584 2654 2695 2713 2753 2728 2675 2697 2715 2600 2708 2692 2646 2689 2685 2710 2642 2709 2665 2674 2764 2730 2708 2668 2604 2717 2659 2666 2757 2701 2680 2675 2587 2768 2634 2691 2742 2627 2732 2767 2717 2656 2599 2753 2692 2685 2750 2773 2678 2679 2721 2710 2692 2736 2753 2695 2640 2670 2645 2701 2617 2701 2733 2614 2643 2732 2773 2777 2676 2717 2692 2653 2758 2670 2634 2617 2667 2804 2743 2675 2619 2723 2715 2649 2715 2653 2763 2681 2686 2650 2692 2634 2675 2691 2690 2667 2668 2643 2599 2584 2648 2653 2690 2686 2645 2662 2683 2535 2634 2546 2656 2727 2628 2574 2605 2676 2642 2695 2578 2632 2650 2644 2722 2648 2591 2585 2660 2571 2617 2612 2639 2614 2582 2591 2552 2640 2557 2630 2587 2664 2698 2537 2695 2584 2564 2574 2571 2671 2584 2537 2542 2648 2640 2566 2564 2571 2548 2595 2542 2542 2486 2467 2549 2523 2454 2524 2543 2517 2500 2471 2471 2501 2559 2358 2403 2435 2438 2478 2472 2523 2489 2420 2459 2478 2387 2404 2407 2405 2418 2407 2485 2436 2430 2355 2337 2340 2357 2388 2323 2395 2352 2360 2382 2363 2408 2305 2301 2328 2433 2390 2361 2368 2328 2282 2220 2348 2380 2295 2382 2315 2329 2306 2293 2310 2305 2331 2189 2326 2229 2301 2248 2266 2264 2353 2337 2309 2265 2223 2335 2313 2262 2347 2211 2248 2217 2219 2272 2249 2198 2284 2253 2296 2302 2257 2276 2257 2250 2263 2206 2180 2243 2269 2293 2201 2338 2229 2296 2316 2258 2165 2239 2289 2280 2327 2296 2306 2303 2330 2235 2290 2329 2290 2340 2323 2227 2337 2238 2244 2316 2298 2317 2305 2195 2269 2323 2239 2233 2192 2274 2122 2152 2137 2097 2282 2151 2179 2237 2121 2132 2226 2241 2205 2156 2190 2137 2231 2115 2221 2166 2160 2195 2196 2242 2158 2122 2116 2192 2089 2150 2146 2207 2151 2130 2182 2175 2163 2150 2141 2284 2123 2200 2175 2167 2121 2217 2181 2161 2195 2215 2168 2090 2156 2165 2191 2206 2206 2176 2266 2170 2158 2180 2098 2213 2209 2224 2281 2203 2244 2202 2272 2264 2285 2167 2286 2350 2326 2228 2344 2302 2310 2384 2350 2343 2257 2312 2263 2352 2323 2368 2328 2253 2312 2407 2362 2334 2308 2301 2325 2281 2307 2202 2209 2271 2279 2244 2306 2224 2124 2339 2277 2237 2344 2328 2259 2330 2276 2298 2187 2303 2270 2235 2263 2330 2290 2250 2229 2200 2357 2110 2334 2192 2231 2264 2121 2256 2187 2204 2136 2159 2234 2145 2235 2099 2190 2205 2193 2184 2195 2118 2242 2156 2119 2182 2237 2175 2219 2301 2191 2194 2178 2115 2203 2261 2207 2222 2225 2154 2085 2093 2211 2126 2197 2194 2237 2211 2124 2158 2071 2194 2153 2113 2220 2171 2177 2107 2162 2141 2126 2132 2200 2164 2167 2130 2186 2119 2035 2077 2082 2088 2072 2079 2081 2154 2071 2127 2200 2110 2163 2148 2141 2138 2094 2078 2076 2072 2072 2007 2028 2128 2117 2025 2105 2015 2072 2067 2056 2084 2055 2073 2146 2167 2073 2055 2058 2065 2060 2036 2070 2016 1930 2006 1978 2014 1989 2041 2014 2072 1970 2028 2057 1976 2096 2002 2033 1935 2022 1934 1955 1940 1943 1904 2073 1991 1990 1945 1906 1940 1937 1935 2039 1901 1935 1941 1983 1961 1949 2006 1968 1942 2012 1952 2009 1914 1965 1814 1955 1974 1880 1891 1954 1890 1909 2002 1942 1956 1949 1871 1948 1901 1925 1965 1899 1954 1869 1852 1911 1902 1926 1905 1852 1867 1884 1920 1886 1967 1948 1861 1890 1833 1877 1917 1942 1883 1882 1857 1860 1893 1903 1936 1947 1930 1911 1863 1957 1947 1941 1930 1967 1959 1953 1967 1976 1958 2019 1933 2051 2038 2062 2025 2085 2052 2135 2062 2046 2115 1982 2012 2015 2032 2127 2147 2047 2173 2117 2055 2104 2191 2203 2095 2091 2187 2165 2147 2184 2195 2201 2286 2276 2151 2183 2172 2181 2207 2145 2216 2115 2080 2155 2197 2160 2069 2232 2102 2214 2101 2243 2199 2234 2281 2318 2441 2617 2501 2532 2651 2732 2712 2922 2801 2855 2806 2938 3032 3064 3068 3060 3035 3003 2989 2987 2987 2850 2868 2846 2818 2671 2724 2568 2435 2340 2400 2375 2279 2209 2143 2234 2135 2116 2067 2086 2098 2144 2260 2148 2188 2172 2174 2138 2185 2040 2087 2072 1988 2043 1972 1918 1852 1963 1913 1776 1852 1828 1807 1778 1755 1783 1821 1792 1826 1762 1840 1854 1784 1929 1847 1894 2004 2059 2061 2124 2188 2126 2290 2325 2293 2474 2516 2519 2659 2661 2888 2804 2759 2937 2864 2827 2936 2883 2977 2974 2805 2861 2839 2864 2754 2718 2753 2609 2515 2500 2451 2416 2330 2303 2240 2171 2183 2065 2032 2007 2037 1990 1948 2008 1980 2038 2082 2004 1973 2003 1946 2062 2044 1917 1986 1918 1839 1915 1838 1865 1768 1799 1719 1636 1658 1571 1621 1607 1693 1635 1631 1664 1622 1587 1574 1546 1645 1530 1627 1543 1671 1614 1596 1609 1605 1593 1527 1693 1546 1597 1635 1556 1679 1656 1598 1603 1621 1594 1640 1677 1627 1656 1700 1694 1718 1736 1804 1795 1803 1884 1833 1765 1910 1858 1965 1887 1894 1960 1906 2027 1942 1884 1920 1986 1896 1898 1945 1821 1925 1881 1817 1835 1799 1811 1875 1948 1840 1689 1740 1684 1793 1715 1610 1692 1601 1675 1706 1682 1657 1685 1648 1717 1670 1593 1640 1619 1663 1723 1629 1647 1676 1550 1609 1618 1557 1617 1584 1614 1548 1606 1608 1582 1610 1482 1606 1574 1529 1549 1571 1493 1445 1469 1512 1564 1476 1503 1516 1511 1477 1569 1487 1419 1545 1611 1533 1479 1438 1515 1490 1503 1466 1398 1448 1492 1454 1559 1487 1529 1541 1431 1464 1398 1478 1487 1512 1482 1450 1414 1496 1450 1495 1522 1384 1548 1423 1476 1508 1464 1481 1419 1443 1463 1488 1426 1459 1460 1457 1484 1448 1440 1423 1471 1483 1403 1448 1463 1420 1452 1419 1405 1485 1420 1381 1444 1383 1403 1427 1393 1456 1463 1457 1423 1411 1444 1394 1457 1413 1422 1441 1415 1421 1426 1418 1453 1468 1472 1505 1471 1421 1415 1429 1493 1439 1419 1400 1385 1427 1408 1359 1371 1456 1396 1446 1418 1381 1369 1414 1432 1400 1352 1432 1421 1335 1396 1420 1422 1423 1441 1427 1461 1419 1406 1372 1453 1382 1478 1391 1378 1364 1383 1453 1419 1372 1384 1408 1364 1408 1357 1439 1389 1366 1440 1378 1375 1344 1408 1412 1326 1413 1418 1351 1435 1382 1451 1466 1403 1497 1462 1511 1396 1396 1438 1401 1419 1450 1337 1431 1411 1411 1321 1458 1377 1354 1450 1397 1380 1378 1443 1420 1429 1411 1466 1435 1474 1430 1456 1424 1381 1449 1416 1468 1410 1339 1500 1434 1387 1435 1445 1420 1425 1370 1475 1343 1461 1383 1390 1419 1397 1429 1457 1398 1398 1419 1456 1477 1479 1422 1435 1433 1463 1453 1395 1483 1391 1492 1435 1479 1449 1461 1467 1431 1437 1504 1488 1480 1505 1561 1518 1455 1561 1617 1570 1655 1602 1658 1733 1744 1731 1873 1831 1906 1990 2015 2166 2288 2314 2460 2573 2849 2915 3029 3222 3294 3379 3518 3589 3781 3867 3937 3971 4117 4168 4195 4191 4215 4241 4272 4224 4184 4049 3792 3676 3589 3464 3326 3073 2953 2918 2616 2614 2503 2360 2326 2238 2162 2163 2251 2158 2149 2132 2194 2196 2110 2169 2089 2043 2008 1988 1920 1793 1882 1761 1833 1637 1675 1687 1586 1574 1585 1556 1594 1498 1530 1469 1423 1446 1486 1403 1501 1421 1370 1422 1392 1415 1451 1370 1434 1394 1404 1383 1354 1403 1386 1345 1449 1402 1433 1413 1408 1429 1397 1402 1444 1413 1459 1434 1375 1337 1413 1384 1391 1319 1441 1369 1427 1379 1361 1406 1431 1464 1383 1428 1443 1416 1390 1405 1360 1405 1323 1421 1392 1391 1380 1403 1395 1413 1381 1351 1465 1421 1360 1418 1353 1357 1427 1448 1395 1349 1424 1465 1360 1416 1401 1389 1418 1349 1397 1364 1395 1374 1382 1392 1450 1371 1339 1398 1426 1415 1392 1477 1425 1426 1308 1431 1371 1374 1344 1538 1376 1384 1426 1452 1397 1398 1415 1366 1407 1410 1410 1480 1381 1398 1366 1450 1426 1413 1395 1385 1388 1468 1442 1485 1402 1497 1480 1443 1414 1398 1406 1401 1462 1452 1404 1400 1444 1396 1473 1353 1404 1378 1373 1387 1421 1478 1398 1412 1394 1451 1369 1436 1418 1365 1377 1342 1384 1391 1396 1403 1387 1353 1350 1457 1410 1331 1337 1420 1366 1404 1359 1382 1368 1405 1322 1423 1365 1343 1395 1416 1403 1348 1374 1397 1391 1344 1416 1386 1406 1393 1395 1416 1407 1362 1341 1331 1341 1415 1398 1470 1424 1424 1324 1383 1411 1416 1410 1358 1422 1427 1392 1450 1429 1473 1422 1367 1440 1503 1470 1489 1557 1568 1533 1587 1580 1701 1614 1690 1615 1734 1714 1771 1766 1703 1799 1812 1813 1769 1879 1838 1838 1736 1801 1923 1842 1812 1835 1737 1771 1728 1745 1812 1830 1682 1703 1779 1716 1778 1672 1744 1795 1791 1827 1854 1866 1970 1938 1924 2011 2047 2181 2119 2092 2151 2132 2209 2265 2209 2142 2167 2235 2150 2127 2128 2180 2145 2044 2045 1965 1920 1831 1768 1870 1742 1821 1781 1679 1624 1637 1681 1594 1519 1643 1563 1551 1554 1594 1513 1588 1532 1503 1497 1424 1438 1518 1350 1490 1438 1446 1412 1423 1391 1437 1416 1307 1393 1425 1406 1416 1360 1413 1393 1380 1422 1383 1423 1415 1379 1406 1374 1397 1449 1423 1440 1366 1408 1351 1373 1367 1313 1342 1349 1307 1272 1309 1292 1309 1359 1288 1404 1299 1258 1414 1328 1250 1304 1338 1309 1376 1310 1278 1304 1259 1281 1283 1310 1320 1275 1324 1299 1279 1314 1284 1237 1261 1275 1342 1294 1267 1218 1284 1257 1321 1275 1305 1269 1288 1295 1327 1291 1322 1311 1428 1354 1393 1371 1383 1348 1453 1363 1454 1435 1486 1543 1517 1522 1573 1560 1623 1627 1632 1665 1679 1701 1733 1690 1687 1754 1608 1753 1697 1635 1683 1658 1572 1503 1535 1570 1575 1511 1492 1478 1416 1433 1433 1394 1381 1319 1388 1366 1438 1349 1360 1383 1346 1328 1369 1316 1369 1370 1318 1364 1264 1357 1239 1319 1307 1373 1279 1324 1224 1292 1266 1301 1252 1302 1293 1259 1257 1221 1262 1291 1249 1257 1244 1237 1215 1169 1262 1165 1291 1256 1195 1235 1257 1198 1202 1237 1244 1233 1211 1228 1223 1261 1201 1241 1222 1220 1264 1242 1221 1273 1293 1210 1261 1227 1276 1228 1182 1263 1233 1251 1235 1234 1286 1214 1276 1221 1221 1300 1173 1224 1277 1208 1235 1230 1275 1188 1226 1303 1223 1206 1222 1263 1270 1141 1273 1276 1277 1280 1229 1219 1209 1200 1311 1205 1299 1222 1309 1242 1281 1336 1237 1256 1230 1261 1212 1299 1199 1214 1196 1252 1183 1249 1270 1174 1268 1205 1306 1237 1201 1188 1193 1253 1197 1216 1240 1256 1218 1260 1219 1170 1217 1211 1238 1223 1265 1195 1250 1286 1193 1244 1255 1245 1230 1179 1284 1227 1253 1205 1195 1201 1272 1163 1195 1241 1153 1246 1218 1216 1248 1245 1257 1206 1242 1204 1198 1239 1259 1231 1181 1181 1221 1179 1254 1226 1245 1192 1252 1235 1194 1192 1212 1179 1222 1188 1226 1246 1209 1207 1170 1170 1189 1223 1168 1220 1292 1215 1223 1237 1262 1179 1246 1166 1233 1251 1211 1231 1251 1260 1206 1198 1223 1248 1256 1232 1175 1265 1248 1220 1268 1203 1211 1286 1280 1231 1240 1314 1290 1275 1325 1333 1268 1270 1293 1262 1308 1247 1327 1336 1314 1317 1397 1347 1376 1357 1433 1461 1412 1434 1479 1496 1506 1424 1491 1488 1498 1442 1496 1569 1543 1571 1616 1606 1560 1637 1633 1596 1565 1557 1568 1512 1551 1533 1524 1410 1433 1384 1383 1393 1371 1376 1412 1328 1269 1321 1371 1321 1324 1340 1357 1355 1302 1339 1272 1374 1235 1275 1218 1288 1169 1247 1225 1230 1235 1222 1151 1258 1190 1288 1246 1265 1193 1223 1243 1184 1186 1155 1223 1228 1180 1278 1176 1157 1214 1158 1222 1246 1193 1221 1188 1187 1246 1245 1183 1242 1187 1139 1143 1143 1183 1190 1283 1257 1217 1189 1200 1276 1170 1246 1156 1227 1180 1233 1204 1241 1233 1202 1168 1225 1204 1238 1209 1228 1144 1205 1159 1213 1253 1245 1223 1256 1295 1183 1246 1238 1274 1177 1210 1284 1279 1259 1261 1225 1187 1241 1252 1252 1261 1235 1220 1252 1256 1226 1217 1189 1208 1155 1237 1244 1269 1262 1205 1317 1188 1268 1181 1268 1168 1245 1226 1270 1197 1286 1223 1195 1221 1228 1261 1263 1245 1232 1228 1262 1284 1200 1247 1221 1222 1282 1202 1240 1233 1174 1144 1195 1234 1261 1252 1194 1232 1198 1213 1247 1225 1256 1272 1211 1266 1281 1213 1223 1212 1238 1228 1216 1224 1212 1283 1162 1220 1239 1252 1233 1190 1233 1171 1310 1350 1302 1318 1253 1318 1323 1310 1263 1346 1414 1383 1370 1339 1363 1360 1379 1417 1456 1424 1461 1485 1537 1531 1491 1610 1523 1615 1533 1504 1538 1574 1494 1524 1439 1397 1506 1472 1480 1438 1424 1392 1338 1414 1381 1332 1333 1331 1296 1348 1310 1368 1339 1320 1368 1253 1254 1254 1214 1260 1280 1258 1290 1295 1305 1257 1225 1288 1252 1159 1290 1210 1268 1270 1212 1224 1197 1263 1259 1250 1238 1192 1217 1262 1233 1208 1254 1258 1240 1243 1242 1220 1221 1256 1212 1240 1180 1267 1223 1219 1230 1240 1254 1188 1236 1270 1273 1239 1294 1228 1197 1243 1267 1272 1286 1178 1255 1243 1259 1193 1261 1251 1262 1188 1173 1263 1245 1230 1260 1237 1188 1266 1232 1232 1297 1254 1230 1276 1287 1229 1288 1199 1277 1297 1257 1267 1234 1205 1191 1209 1226 1277 1232 1237 1206 1285 1207 1205 1308 1275 1240 1334 1291 1322 1337 1297 1294 1350 1425 1416 1378 1404 1392 1523 1414 1552 1506 1562 1591 1607 1477 1614 1571 1678 1669 1663 1629 1689 1676 1626 1754 1617 1638 1650 1620 1607 1669 1585 1609 1566 1568 1578 1496 1487 1443 1476 1398 1548 1561 1512 1497 1481 1456 1458 1535 1405 1463 1455 1434 1471 1492 1465 1500 1470 1444 1487 1494 1434 1489 1431 1506 1474 1408 1512 1484 1459 1531 1436 1465 1395 1466 1418 1402 1393 1364 1401 1353 1350 1362 1405 1394 1342 1349 1337 1322 1299 1314 1296 1340 1306 1298 1296 1261 1319 1345 1255 1352 1281 1271 1286 1244 1348 1347 1377 1328 1315 1358 1386 1431 1340 1441 1363 1402 1475 1430 1374 1399 1438 1420 1430 1444 1457 1409 1432 1408 1425 1426 1431 1384 1389 1426 1378 1359 1379 1394 1402 1307 1253 1356 1325 1325 1409 1241 1375 1264 1392 1297 1370 1357 1253 1341 1251 1356 1221 1332 1261 1302 1196 1318 1268 1209 1314 1294 1254 1202 1288 1237 1273 1203 1208 1254 1274 1239 1352 1273 1226 1197 1279 1254 1242 1229 1232 1234 1274 1258 1205 1270 1286 1258 1213 1240 1215 1208 1272 1249 1330 1213 1244 1167 1224 1255 1217 1262 1308 1269 1273 1273 1306 1278 1221 1325 1293 1322 1270 1351 1266 1300 1264 1372 1317 1348 1273 1338 1333 1392 1370 1433 1372 1380 1381 1429 1442 1404 1521 1512 1529 1569 1667 1759 1805 1802 1941 1982 2051 2235 2209 2256 2451 2516 2511 2545 2590 2629 2643 2697 2801 2740 2743 2722 2714 2737 2615 2592 2570 2452 2359 2377 2278 2208 2238 2112 2032 1894 1971 1858 1838 1848 1815 1820 1721 1744 1779 1712 1650 1687 1588 1603 1554 1494 1510 1520 1483 1453 1547 1512 1455 1450 1471 1409 1409 1417 1350 1439 1424 1337 1404 1362 1387 1376 1443 1473 1394 1431 1424 1395 1451 1461 1390 1375 1414 1438 1359 1401 1382 1433 1433 1392 1406 1353 1365 1438 1304 1371 1349 1402 1325 1392 1430 1333 1306 1300 1243 1259 1288 1284 1314 1318 1242 1222 1255 1305 1245 1248 1279 1256 1292 1238 1214 1233 1286 1231 1285 1284 1207 1272 1260 1245 1251 1265 1244 1250 1226 1241 1187 1274 1282 1205 1222 1302 1239 1237 1283 1251 1254 1200 1231 1233 1254 1252 1298 1214 1278 1264 1228 1194 1256 1228 1148 1323 1236 1224 1170 1246 1241 1265 1165 1211 1226 1195 1212 1247 1297 1225 1292 1183 1289 1269 1234 1258 1227 1215 1236 1253 1280 1258 1362 1296 1285 1339 1266 1256 1273 1346 1280 1357 1253 1273 1286 1226 1265 1273 1282 1280 1288 1264 1230 1330 1303 1270 1258 1242 1244 1229 1260 1260 1166 1296 1316 1278 1275 1247 1307 1316 1332 1355 1295 1312 1351 1292 1394 1303 1382 1322 1322 1420 1325 1433 1375 1369 1467 1420 1415 1452 1412 1448 1434 1410 1447 1437 1364 1477 1469 1439 1317 1395 1395 1358 1393 1359 1310 1305 1405 1343 1288 1295 1284 1319 1333 1298 1306 1328 1273 1246 1328 1220 1278 1293 1238 1223 1252 1291 1248 1233 1233 1235 1190 1262 1275 1269 1212 1270 1214 1260 1245 1229 1248 1234 1316 1329 1279 1239 1248 1200 1217 1281 1297 1307 1243 1273 1249 1255 1220 1293 1275 1300 1195 1218 1250 1250 1273 1286 1218 1265 1330 1296 1290 1321 1253 1277 1276 1225 1238 1275 1261 1227 1203 1237 1225 1242 1240 1252 1325 1267 1332 1237 1275 1213 1257 1270 1177 1199 1216 1312 1284 1174 1223 1259 1236 1218 1210 1236 1207 1215 1295 1203 1223 1189 1271 1257 1185 1163 1263 1268 1254 1298 1231 1247 1269 1209 1258 1230 1160 1246 1285 1208 1292 1252 1317 1368 1280 1354 1329 1314 1349 1372 1350 1323 1360 1314 1443 1389 1375 1348 1368 1360 1395 1398 1366 1362 1343 1348 1375 1290 1359 1333 1366 1295 1350 1341 1266 1334 1325 1272 1326 1251 1309 1340 1330 1332 1336 1321 1359 1328 1285 1283 1273 1268 1325 1274 1359 1395 1259 1249 1265 1287 1214 1223 1238 1232 1227 1249 1204 1205 1234 1322 1271 1278 1230 1251 1303 1215 1238 1234 1300 1306 1315 1200 1265 1241 1152 1247 1183 1241 1263 1232 1217 1283 1281 1233 1240 1203 1195 1241 1316 1240 1221 1286 1222 1244 1254 1230 1255 1228 1272 1209 1256 1250 1224 1254 1238 1167 1233 1296 1236 1231 1206 1242 1206 1255 1215 1222 1266 1253 1273 1265 1244 1209 1181 1286 1215 1171 1271 1255 1217 1161 1213 1192 1260 1235 1213 1257 1317 1319 1256 1288 1225 1257 1162 1291 1254 1278 1225 1256 1271 1285 1230 1230 1254 1264 1262 1218 1311 1294 1300 1240 1259 1260 1235 1239 1250 1261 1293 1293 1313 1242 1338 1253 1226 1288 1250 1253 1276 1227 1284 1202 1177 1307 1255 1267 1257 1236 1204 1284 1252 1245 1261 1263 1221 1185 1189 1255 1261 1182 1234 1205 1221 1265 1228 1299 1314 1336 1313 1298 1259 1239 1281 1315 1225 1324 1279 1343 1249 1294 1219 1240 1247 1298 1232 1263 1250 1278 1207 1242 1224 1256 1262 1258 1247 1295 1202 1274 1238 1246 1259 1233 1222 1225 1224 1273 1271 1250 1244 1236 1246 1207 1218 1210 1174 1224 1245 1199 1173 1281 1192 1258 1265 1279 1191 1271 1173 1262 1270 1265 1192 1211 1263 1202 1196 1191 1244 1228 1194 1225 1209 1246 1182 1277 1162 1194 1154 1219 1198 1219 1191 1223 1168 1203 1213 1181 1254 1206 1244 1175 1215 1257 1223 1211 1169 1197 1207 1168 1182 1222 1169 1188 1125 1244 1194 1206 1216 1153 1228 1204 1185 1217 1230 1271 1162 1234 1219 1154 1163 1171 1220 1227 1170 1094 1206 1191 1166 1244 1155 1156 1195 1185 1213 1204 1154 1211 1162 1247 1193 1181 1155 1122 1179 1136 1269 1136 1164 1187 1207 1230 1202 1245 1178 1224 1200 1218 1216 1213 1162 1207 1201 1201 1186 1222 1246 1145 1072 1193 1168 1158 1168 1173 1169 1195 1205 1167 1180 1209 1173 1184 1201 1201 1187 1215 1228 1198 1252 1187 1218 1223 1225 1268 1222 1214 1294 1191 1188 1185 1250 1249 1208 1222 1255 1269 1278 1287 1279 1244 1221 1306 1287 1232 1232 1287 1243 1320 1252 1295 1297 1317 1347 1285 1304 1261 1289 1213 1261 1293 1335 1385 1313 1303 1328 1390 1270 1317 1272 1342 1325 1350 1334 1260 1325 1354 1330 1235 1282 1279 1296 1232 1301 1296 1288 1323 1291 1281 1250 1274 1295 1324 1352 1336 1345 1411 1285 1409 1412 1433 1511 1509 1481 1472 1484 1650 1591 1712 1584 1657 1651 1629 1622 1686 1655 1697 1604 1683 1762 1635 1609 1667 1575 1593 1547 1585 1515 1535 1541 1404 1575 1369 1494 1450 1415 1486 1393 1436 1420 1280 1395 1297 1338 1273 1331 1298 1238 1213 1238 1281 1202 1266 1236 1205 1166 1224 1170 1187 1237 1191 1188 1251 1213 1164 1162 1206 1135 1192 1185 1188 1159 1147 1150 1196 1216 1113 1168 1097 1204 1171 1199 1201 1164 1180 1212 1243 1305 1253 1322 1301 1300 1342 1366 1374 1335 1344 1381 1359 1305 1381 1363 1358 1401 1358 1395 1359 1349 1372 1372 1281 1291 1325 1329 1214 1323 1296 1296 1288 1273 1213 1254 1254 1178 1266 1193 1179 1223 1227 1221 1251 1213 1124 1227 1173 1139 1266 1148 1207 1154 1226 1222 1182 1176 1185 1164 1076 1139 1139 1135 1125 1156 1094 1070 1122 1165 1191 1157 1095 1090 1157 1129 1156 1123 1131 1133 1110 1153 1116 1101 1123 1110 1140 1193 1226 1143 1147 1167 1108 1148 1143 1111 1141 1188 1114 1197 1093 1123 1067 1203 1134 1153 1125 1063 1162 1089 1150 1085 1144 1128 1161 1145 1033 1160 1144 1168 1197 1150 1146 1165 1192 1202 1189 1252 1193 1139 1252 1216 1280 1183 1195 1203 1165 1174 1230 1212 1263 1252 1226 1208 1202 1243 1297 1157 1206 1198 1193 1176 1227 1188 1170 1219 1195 1168 1237 1173 1173 1131 1183 1202 1204 1202 1207 1185 1240 1162 1163 1155 1220 1190 1248 1195 1144 1189 1205 1218 1244 1235 1244 1255 1343 1342 1284 1438 1513 1466 1411 1440 1501 1494 1476 1583 1489 1531 1562 1607 1608 1563 1541 1559 1529 1553 1528 1530 1449 1560 1486 1490 1458 1401 1414 1418 1476 1399 1363 1360 1272 1311 1380 1256 1288 1270 1293 1238 1246 1230 1220 1226 1199 1212 1180 1198 1148 1144 1150 1183 1220 1178 1219 1169 1164 1131 1187 1150 1193 1089 1184 1212 1132 1162 1122 1152 1142 1213 1134 1126 1100 1147 1087 1176 1166 1116 1154 1114 1062 1143 1121 1105 1181 1115 1132 1140 1128 1147 1129 1173 1106 1169 1136 1124 1101 1194 1192 1129 1080 1162 1203 1092 1146 1173 1149 1158 1133 1179 1112 1185 1160 1170 1182 1195 1215 1192 1128 1156 1167 1151 1190 1162 1153 1143 1123 1189 1137 1108 1203 1166 1153 1176 1138 1185 1256 1180 1142 1177 1177 1216 1204 1149 1227 1150 1145 1174 1180 1157 1126 1133 1170 1186 1159 1133 1169 1182 1169 1188 1176 1130 1152 1179 1166 1108 1097 1132 1115 1159 1180 1190 1211 1156 1100 1140 1157 1101 1112 1076 1136 1119 1139 1152 1162 1123 1152 1154 1123 1168 1159 1165 1133 1122 1152 1165 1187 1219 1164 1118 1186 1170 1220 1224 1206 1204 1264 1229 1254 1176 1220 1196 1300 1271 1282 1241 1217 1216 1226 1253 1262 1204 1250 1297 1219 1217 1243 1262 1230 1222 1204 1183 1164 1122 1242 1185 1196 1243 1192 1223 1222 1188 1224 1140 1248 1198 1192 1134 1234 1117 1166 1176 1179 1181 1211 1138 1220 1136 1156 1192 1166 1114 1206 1175 1252 1192 1138 1130 1226 1134 1177 1194 1087 1142 1164 1156 1183 1177 1156 1137 1129 1165 1181 1097 1218 1111 1137 1172 1145 1183 1213 1109 1215 1068 1085 1121 1111 1104 1101 1196 1175 1160 1060 1075 1178 1153 1157 1108 1079 1072 1099 1102 1156 1061 1073 1060 1138 1151 1126 1094 1136 1095 1071 1148 1125 1084 1096 1070 1082 1111 1110 1067 1131 1121 1057 1126 1133 1129 1098 1148 1103 1162 1116 1083 1089 1095 1109 1086 1138 1135 1156 1058 1095 1084 1074 1082 1097 1074 1066 1111 1075 1087 1094 1141 1078 1043 1090 1118 1114 1050 1040 1056 1160 1108 1154 1145 1183 1110 1138 1115 1106 1104 1116 1103 1115 1154 1047 1100 1097 1100 1102 1110 1114 1071 1139 1179 1157 1131 1075 1119 1077 1092 1072 1096 1208 1049 1156 1140 1075 1145 1106 1110 1096 1109 1072 1135 1064 1129 1021 1056 1048 1136 1149 1067 1111 1133 1091 1112 1104 1140 1089 1112 1108 1072 1066 1082 1118 1071 1101 1083 1098 1126 1073 1057 1108 1106 1048 1112 1078 1126 1086 1091 1083 1100 1109 1125 1123 1095 1090 1139 1122 1153 1151 1040 1132 1087 1139 1112 1102 1074 1093 1085 1126 1016 1067 1109 1132 1070 1096 1066 1109 1127 1067 1177 1100 1107 1116 1075 1063 1061 1119 1113 1096 1125 1069 1108 1074 1093 1057 1092 1155 1092 1175 1113 1142 1070 1141 1079 1060 1053 1043 1079 1092 1091 1133 1117 1078 1129 1153 1149 1149 1085 1094 1099 1074 1072 1139 1088 1119 1082 1136 1116 1116 1148 1116 1157 1108 1129 1187 1140 1085 1145 1130 1111 1116 1122 1123 1093 1081 1119 1159 1140 1079 1118 1114 1143 1033 1108 1138 1153 1164 1092 1074 1053 1076 1138 1091 1016 1089 1098 1101 1027 1079 1069 1071 1134 1131 1108 1140 1129 1159 1108 1068 1087 1076 1071 1048 1120 1121 1092 1096 1087 1107 1110 1116 1054 1080 1134 1072 1157 1121 1090 1108 1101 1092 1077 1099 1049 1134 1139 1132 1066 1100 1111 1108 1027 1117 1141 1094 1131 1083 1116 1132 1097 1117 1099 1129 1078 1156 1128 1064 1152 1041 1125 1135 1137 1194 1134 1170 1106 1089 1056 1067 1091 1094 1082 1098 1135 1050 1084 1060 1129 1128 1116 1131 1063 1155 1102 1107 1134 1083 1067 1174 1111 1157 1070 1085 1078 1099 1085 1150 1049 1077 1110 1080 1098 1106 1072 1143 1077 1098 1110 1118 1129 1085 1130 1073 1111 1134 1118 1092 1106 1146 1104 1173 1177 1141 1139 1177 1093 1171 1113 1135 1163 1149 1133 1120 1197 1154 1195 1208 1167 1176 1097 1133 1177 1190 1146 1207 1247 1177 1160 1096 1218 1197 1190 1224 1178 1177 1174 1131 1108 1168 1127 1200 1189 1134 1106 1131 1175 1194 1183 1174 1160 1120 1238 1197 1181 1152 1167 1140 1160 1203 1087 1131 1195 1150 1194 1130 1116 1145 1131 1135 1093 1182 1131 1112 1169 1158 1156 1171 1160 1155 1127 1174 1146 1188 1115 1185 1176 1220 1193 1033 1197 1212 1180 1220 1187 1131 1103 1120 1135 1162 1125 1129 1166 1136 1220 1200 1158 1194 1168 1108 1126 1114 1164 1156 1138 1156 1141 1111 1159 1121 1188 1098 1119 1090 1171 1116 1079 1090 1172 1167 1128 1133 1098 1102 1095 1108 1126 1117 1123 1095 1120 1177 1083 1098 1080 1099 1086 1128 1056 1088 1115 1084 1088 1016 1088 1143 1055 1065 1099 1068 1113 1149 1063 1067 1110 1100 1142 1152 1125 1112 1046 1117 1136 1100 1072 1073 1047 1168 1034 1046 1089 1052 1152 1105 1075 1122 1074 1117 1150 1074 1125 1125 1056 1089 1106 1111 1098 1110 1140 1052 1115 1125 1082 1123 1061 1074 1037 1089 1057 1058 1061 1115 1088 1071 1056 1070 1063 1105 1031 1076 1102 1082 1117 1052 1057 1098 1138 1031 1114 1114 1106 1042 1074 1102 1053 1050 1131 1099 1081 1158 1143 1123 1139 1087 1133 1055 1125 1156 1070 1075 1087 1093 1044 1105 1074 1114 1099 1097 1181 1098 1044 1131 1160 1059 1104 1129 1129 1127 1127 1109 1052 1084 1076 1068 1129 1071 1057 1040 1097 1038 1106 1147 1078 1062 1088 1108 1113 1062 1062 1141 1116 1129 1108 1097 1092 1118 1086 1091 1122 1075 1126 1081 1154 1086 1099 1081 1091 1115 1076 1095 1071 1103 1084 1172 1066 1159 1126 1081 1118 1046 1067 1119 1141 1147 1076 1133 1190 1160 1260 1174 1189 1221 1173 1172 1208 1255 1280 1222 1287 1179 1273 1423 1250 1258 1270 1327 1256 1278 1280 1271 1221 1302 1313 1243 1198 1344 1246 1284 1168 1187 1249 1194 1262 1265 1206 1176 1177 1222 1215 1202 1227 1151 1149 1126 1144 1146 1128 1153 1127 1159 1131 1126 1131 1118 1160 1125 1072 1088 1154 1137 1130 1135 1103 1084 1100 1085 1115 1089 1146 1122 1035 1170 1182 1093 1105 1159 1126 1122 1155 1114 1068 1081 1125 1114 1126 1093 1150 1137 1077 1099 1126 1107 1131 1111 1076 1057 1073 1115 1089 1150 1117 1051 1126 1091 1136 1112 1139 1086 1107 1099 1143 1131 1124 1106 1089 1132 1043 1044 1118 1138 1050 1077 1090 1095 1143 1084 1044 1110 1106 1089 1062 1089 1100 1134 1041 1055 1087 1117 1102 1138 1090 1104 1113 1163 1082 1084 1092 1105 1126 1106 1110 1066 1167 1154 1081 1136 1117 1120 1068 1119 1134 1118 1095 1186 1102 1153 1108 1056 1105 1087 1131 1104 1048 1083 1062 1026 1071 1172 1169 1154 1107 1119 1128 1129 1190 1115 1110 1064 1159 1100 1095 1146 1085 1122 1104 1098 1084 1116 1083 1145 1133 1124 1113 1125 1099 1211 1150 1116 1171 1139 1147 1156 1121 1191 1180 1166 1157 1190 1193 1211 1208 1181 1202 1159 1192 1219 1276 1222 1225 1197 1185 1163 1238 1212 1219 1250 1234 1200 1332 1275 1240 1301 1245 1285 1213 1294 1226 1231 1215 1260 1252 1280 1256 1288 1300 1216 1271 1251 1208 1174 1276 1240 1250 1163 1199 1205 1178 1233 1161 1219 1090 1232 1200 1214 1222 1218 1163 1200 1237 1142 1121 1176 1195 1197 1141 1120 1158 1153 1115 1144 1077 1148 1122 1080 1105 1119 1139 1061 1197 1116 1150 1140 1095 1056 1154 1039 1105 1057 1085 1108 1148 1098 1093 1129 1109 1079 1123 1072 1094 1100 1122 1077 1125 1061 1174 1099 1140 1063 1107 1085 1078 1091 1053 1145 1097 1139 1167 1090 1119 1065 1119 1103 1155 1110 1078 1128 1144 1108 1120 1102 1101 1125 1154 1104 1085 1110 1131 1186 1093 1092 1127 1126 1186 1084 1119 1094 1162 1069 1147 1129 1103 1126 1199 1185 1096 1139 1150 1138 1115 1154 1156 1162 1097 1121 1145 1132 1112 1174 1130 1109 1183 1096 1137 1135 1183 1149 1072 1136 1164 1135 1112 1117 1079 1069 1063 1120 1044 1112 1089 1113 1102 1114 1139 1121 1112 1178 1106 1142 1110 1080 1106 1126 1154 1089 1167 1172 1134 1124 1077 1146 1161 1132 1160 1133 1150 1103 1139 1152 1124 1113 1116 1158 1170 1125 1203 1076 1091 1090 1142 1164 1179 1129 1115 1182 1174 1118 1113 1215 1183 1218 1128 1138 1187 1216 1207 1198 1225 1212 1153 1155 1203 1184 1145 1107 1180 1152 1230 1125 1220 1142 1190 1164 1147 1178 1277 1257 1161 1178 1198 1214 1207 1151 1172 1226 1238 1225 1196 1249 1226 1229 1296 1309 1223 1214 1210 1280 1164 1202 1260 1183 1217 1205 1281 1150 1232 1272 1206 1187 1193 1227 1114 1138 1209 1210 1189 1233 1228 1194 1173 1193 1196 1176 1243 1172 1180 1213 1172 1163 1158 1096 1134 1232 1166 1117 1146 1141 1120 1092 1194 1149 1158 1172 1158 1104 1136 1067 1120 1116 1029 1102 1134 1091 1064 1077 1146 1145 1091 1127 1077 1105 1160 1131 1075 1073 1111 1174 1109 1082 1097 1121 1149 1128 1107 1119 1140 1136 1115 1142 1172 1143 1137 1108 1090 1077 1082 1063 1134 1080 1114 1062 1122 1092 1172 1109 1147 1109 1101 1176 1097 1045 1128 1080 1176 1079 1176 1144 1131 1102 1087 1111 1067 1151 1119 1068 1070 1145 1120 1105 1100 1089 1160 1117 1112 1138 1121 1111 1085 1078 1079 1078 1078 1136 1103 1191 1083 1074 1117 1101 1133 1135 1107 1133 1056 1085 1071 1146 1124 1075 1152 1075 1173 1155 1091 1153 1105 1124 1137 1110 1111 1150 1116 1167 1191 1135 1163 1099 1125 1209 1158 1146 1163 1177 1154 1198 1112 1153 1187 1113 1207 1179 1204 1154 1136 1189 1174 1142 1126 1198 1166 1174 1142 1128 1140 1190 1188 1221 1175 1216 1145 1178 1169 1188 1201 1177 1179 1153 1175 1140 1209 1229 1194 1218 1211 1249 1229 1266 1272 1294 1301 1269 1295 1208 1294 1217 1298 1268 1292 1379 1328 1413 1323 1280 1361 1317 1354 1311 1309 1285 1321 1331 1279 1308 1312 1258 1308 1307 1202 1265 1269 1286 1219 1295 1273 1266 1202 1190 1271 1260 1183 1181 1216 1217 1252 1156 1252 1120 1143 1159 1175 1168 1087 1103 1176 1179 1145 1144 1161 1184 1146 1145 1148 1132 1134 1131 1159 1167 1156 1111 1143 1047 1132 1096 1079 1156 1150 1174 1132 1167 1125 1091 1101 1108 1141 1114 1216 1213 1120 1152 1136 1083 1174 1142 1142 1188 1155 1125 1199 1150 1126 1123 1163 1160 1178 1169 1174 1250 1226 1222 1188 1106 1156 1229 1138 1110 1144 1136 1185 1183 1195 1165 1102 1139 1146 1135 1135 1141 1168 1163 1171 1182 1180 1172 1164 1127 1161 1021 1085 1149 1106 1144 1092 1116 1141 1141 1132 1140 1154 1155 1082 1080 1102 1132 1148 1129 1182 1137 1068 1164 1117 1089 1125 1062 1056 1167 1056 1130 1103 1165 1192 1180 1098 1087 1128 1154 1119 1074 1148 1117 1167 1154 1160 1147 1115 1157 1188 1114 1147 1177 1114 1129 1118 1172 1151 1124 1090 1197 1116 1144 1114 1110 1157 1146 1160 1120 1162 1150 1118 1153 1186 1092 1188 1138 1142 1247 1147 1146 1142 1131 1229 1233 1191 1164 1156 1131 1199 1165 1184 1148 1222 1249 1233 1198 1194 1214 1248 1313 1268 1267 1270 1338 1349 1347 1346 1395 1404 1387 1464 1461 1485 1527 1610 1431 1579 1524 1539 1538 1432 1484 1378 1516 1416 1434 1471 1432 1455 1431 1366 1436 1348 1438 1420 1387 1425 1379 1386 1422 1484 1337 1349 1353 1425 1361 1390 1286 1330 1250 1306 1255 1271 1182 1217 1202 1210 1177 1187 1190 1150 1190 1122 1132 1215 1173 1193 1167 1193 1083 1146 1118 1154 1178 1178 1145 1168 1163 1151 1099 1096 1140 1112 1142 1121 1200 1157 1137 1143 1126 1140 1106 1128 1105 1156 1101 1073 1106 1144 1093 1114 1131 1090 1164 1168 1167 1070 1163 1075 1174 1160 1160 1119 1168 1118 1116 1104 1112 1081 1158 1183 1199 1029 1088 1118 1060 1084 1121 1153 1100 1158 1134 1117 1135 1138 1042 1174 1031 1101 1042 1146 1094 1091 1049 1127 1125 1109 1086 1101 1081 1099 1132 1092 1111 1084 1006 1143 1112 1159 1141 1146 1088 1077 1144 1092 1041 1070 1143 1117 1108 1093 1125 1106 1057 1164 1097 1112 1180 1084 1104 1123 1134 1117 1136 1200 1085 1149 1173 1128 1145 1093 1079 1150 1178 1125 1181 1105 1194 1119 1153 1192 1091 1201 1113 1111 1148 1172 1197 1182 1143 1138 1136 1165 1174 1205 1193 1133 1143 1103 1121 1151 1165 1108 1116 1138 1178 1170 1064 1099 1132 1075 1145 1119 1041 1168 1137 1085 1117 1158 1141 1134 1109 1075 1128 1122 1111 1126 1121 1124 1140 1127 1128 1105 1118 1151 1124 1126 1093 1218 1105 1151 1104 1063 1099 1122 1102 1079 1133 1077 1165 1113 1131 1110 1143 1130 1119 1101 1150 1121 1092 1149 1098 1055 1068 1123 1119 1066 1097 1059 1101 1104 1167 1092 1097 1073 1097 1041 1093 1117 1146 1105 1111 1097 1063 1106 1094 1067 1046 1080 1120 1036 1144 1060 1092 1134 1130 1038 1201 1104 1074 1152 1102 1085 1125 1090 1077 1110 1088 1037 1038 1083 1130 1094 1053 1117 1066 1138 1083 1089 1054 1120 1112 1063 1103 1082 1099 1121 1085 1175 1079 1095 1137 1131 1070 1090 1090 1059 1072 1095 1084 1090 1082 1051 1070 1043 1108 1039 1082 1111 1118 1072 1101 1071 1122 1118 1094 1091 1081 1108 1070 1007 1097 1106 1111 1096 1105 1128 1112 1084 1143 1096 1059 1104 1085 1086 1065 1110 1104 1059 1113 1120 1071 1067 1094 1044 1047 1065 1074 1078 1087 1094 1094 1066 1064 1095 1067 1115 1089 1090 1083 1078 1041 1046 1087 1096 1140 1112 1102 1091 1126 1051 1128 1092 1013 1095 1092 1024 1093 1108 1096 1080 1106 1075 1069 1084 1125 1030 1091 1011 1145 1139 1101 1175 1102 1109 1144 1091 1074 1066 1113 1086 1123 1090 1105 1136 1084 1114 1087 1091 1110 1086 1064 1075 1062 1146 1091 1069 1078 1024 1083 1102 1096 1124 1076 1053 1067 1110 1097 1089 1057 1054 1102 1096 1147 1133 1062 1108 1033 1074 1081 1088 1099 1058 1066 1080 1119 1072 1085 1100 1071 1090 1057 1189 1130 1076 1082 1085 1090 1025 1079 1049 1132 1088 1099 1142 1165 1130 1068 1106 1074 1063 1159 1071 1058 1070 1146 1078 1138 1106 1069 1136 1133 1154 1048 1129 1137 1049 1142 1028 1078 1106 1079 1046 1100 1142 1099 1088 1147 1106 1087 1126 1144 1123 1087 1127 1079 1093 1099 1153 1135 1125 1135 1094 1123 1055 1113 1097 1161 1062 1169 1078 1144 1052 1021 1131 1158 1145 1019 1113 1113 1169 1141 1180 1158 1135 1099 1052 1085 1108 1118 1114 1145 1102 1109 1111 1145 1128 1078 1122 1090 1099 1091 1069 1110 1138 1049 1119 1107 1092 1126 1106 1111 1056 1142 1113 1086 1137 1138 1149 1108 1084 1042 1122 1131 1023 1085 1123 1078 1161 1138 1141 1120 1126 1190 1101 1083 1165 1103 1112 1180 1153 1100 1202 1102 1122 1068 1112 1121 1113 1132 1167 1192 1092 1205 1124 1098 1114 1118 1127 1146 1102 1184 1137 1174 1156 1138 1181 1141 1090 1076 1128 1155 1137 1168 1179 1146 1145 1101 1130 1087 1133 1132 1088 1144 1143 1120 1150 1114 1127 1114 1099 1181 1150 1155 1159 1186 1080 1176 1099 1092 1073 1148 1070 1111 1155 1103 1119 1097 1117 1158 1104 1166 1083 1110 1097 1143 1065 1030 1076 1091 1119 1042 1057 1104 1152 1101 1119 1128 1072 1094 1110 1083 1056 1081 1073 1106 1048 1098 1152 1119 1091 1116 1147 1112 1112 1090 1132 1115 1085 1116 1043 1043 1112 1120 1062 1126 1106 1107 1112 1162 1083 1109 1054 1017 1083 1110 998 1142 1099 1091 1067 1103 1154 1128 1115 1119 1111 1052 1141 1121 1047 1032 1122 1065 1136 1064 1087 1081 1098 1098 1129 1133 1110 1089 1091 1150 1115 1078 1103 1118 1113 1115 1128 1098 1118 1110 1147 1053 1119 1075 1135 1148 1168 1127 1136 1134 1103 1126 1050 1116 1109 1131 1126 1098 1069 1072 1165 1109 1152 1153 1140 1135 1121 1118 1094 1141 1084 1128 1175 1195 1148 1104 1131 1128 1145 1104 1116 1088 1126 1124 1158 1134 1103 1095 1144 1127 1166 1111 1148 1077 1114 1148 1107 1155 1121 1093 1111 1109 1032 1121 1105 1117 1111 1203 1118 1120 1153 1138 1088 1142 1087 1111 1125 1163 1157 1078 1130 1089 1047 1159 1176 1123 1175 1153 1157 1129 1111 1065 1092 1148 1103 1156 1099 1136 1169 1059 1104 1112 1146 1153 1153 1130 1155 1105 1157 1165 1153 1098 1135 1095 1172 1126 1109 1208 1179 1213 1178 1118 1138 1069 1192 1187 1182 1216 1249 1245 1224 1183 1255 1169 1190 1255 1281 1275 1253 1223 1340 1329 1268 1329 1377 1329 1341 1422 1352 1459 1464 1452 1485 1402 1399 1483 1330 1375 1398 1433 1392 1366 1371 1365 1345 1345 1301 1311 1229 1309 1284 1302 1260 1349 1250 1243 1290 1297 1252 1303 1247 1291 1317 1253 1316 1267 1235 1219 1220 1185 1258 1231 1249 1117 1156 1195 1264 1181 1170 1178 1171 1160 1233 1155 1157 1163 1185 1096 1107 1107 1186 1084 1260 1169 1187 1141 1164 1154 1212 1168 1170 1162 1161 1102 1160 1128 1173 1088 1093 1140 1113 1090 1124 1141 1115 1121 1097 1117 1149 1087 1096 1172 1102 1087 1116 1074 1078 1130 1123 1161 1093 1190 1095 1078 1121 1084 1140 1077 1129 1130 1112 1113 1063 1180 1123 1116 1172 1165 1118 1178 1122 1145 1064 1071 1051 1133 1091 1117 1098 1130 1030 1090 1096 1151 1068 1081 1073 1148 1131 1166 1167 1078 1071 1045 1141 1103 1072 1128 1080 1141 1052 1031 1104 1199 1132 1119 1004 1158 1092 1122 1120 1091 1085 1128 1137 1111 1120 1141 1101 1136 1136 1135 1061 1112 1178 1129 1116 1067 1124 1162 1177 1044 1170 1140 1158 1110 1169 1123 1163 1131 1113 1172 1065 1155 1153 1177 1170 1118 1091 1179 1135 1079 1135 1146 1128 1150 1147 1142 1161 1059 1148 1062 1131 1064 1146 1136 1141 1094 1015 1107 1069 1114 1132 1100 1099 1061 1154 1064 1133 1051 1085 1118 1168 1120 1062 1203 1060 1107 1126 1113 1069 1178 1174 1132 1116 1063 1084 1069 1102 1182 1057 1103 1132 1164 1115 1158 1157 1073 1066 1099 1129 1112 1117 1137 1071 1071 1082 1060 1084 1109 1087 1094 1150 1063 1109 1196 1141 1143 1116 1181 1105 1080 1170 1143 1042 1090 1048 1114 1100 1084 1070 1132 1134 1085 1110 1153 1137 1120 1111 1043 1093 1071 1095 1161 1052 1091 1081 1131 1085 1141 1131 1094 1114 1118 1129 1123 1138 1159 1109 1059 1133 1112 1140 1068 1084 1064 1029 1112 1076 1025 1085 1114 1105 1101 1124 1103 1150 1119 1126 1090 1040 1101 1100 1076 1117 1071 1063 1069 1099 1131 1156 1166 1138 1075 1095 1148 1065 1145 1095 1112 1083 1153 1072 1116 1118 1043 1128 1054 1118 1102 1068 1166 1112 1076 1076 1139 1086 1111 1075 1116 1168 1141 1142 1083 1102 1094 1115 1134 1094 1086 1089 1107 1077 1176 1119 1061 1128 1094 1139 1148 1108 1101 1078 1104 1179 1147 1111 1109 1085 1091 1076 1093 1118 1147 1118 1106 1077 1105 1099 1074 1040 1121 1096 1133 1121 1036 1036 1111 1115 1084 1106 1175 1115 1110 1093 1083 1107 1140 1093 1090 1156 1075 1080 1133 1123 1036 1049 1183 1138 1133 1123 1130 1163 1096 1098 1143 1084 1110 1103 1105 1122 1143 1100 1094 1088 1047 1085 1080 1120 1066 1132 1063 1126 1118 1122 1148 1075 1096 1139 1170 1101 1151 1113 1078 1117 1117 1172 1064 1104 1092 1130 1170 1106</counts>
			</dataPoints>
		</scan>
	</xrdMeasurement>
</xrdMeasurements>
