<?xml version="1.0"?>
<xrdMeasurements xmlns="http://www.xrdml.com/XRDMeasurement/2.3" xmlns:xsi="http://www.w3.org/2001/XMLSchema-instance" xsi:schemaLocation="http://www.xrdml.com/XRDMeasurement/2.3 http://www.xrdml.com/XRDMeasurement/2.3/XRDMeasurement.xsd" status="Completed" recordIdentifier="{8A3AC0EF-A90A-4476-8407-7C0752AF833B}">
	<comment>
		<entry/>
	</comment>
	<sample type="To be analyzed">
		<id>GPSS_Li1p9Fe0p9Bi0p1Cl4_121825_6943d914f4d05ae3d69790c1</id>
		<name></name>
		<preparedBy></preparedBy>
	</sample>
	<xrdMeasurement measurementType="Scan" status="Completed" sampleMode="Reflection">
		<usedWavelength intended="K-Alpha 1">
			<kAlpha1 unit="Angstrom">1.5405980</kAlpha1>
			<kAlpha2 unit="Angstrom">1.5444260</kAlpha2>
			<kBeta unit="Angstrom">1.3922500</kBeta>
			<ratioKAlpha2KAlpha1>0.5000</ratioKAlpha2KAlpha1>
		</usedWavelength>
		<incidentBeamPath>
			<radius unit="mm">145.00</radius>
			<xRayTube id="1010048" name="Empyrean Cu LFF HR (9430 033 7310x)">
				<tension unit="kV">40.0</tension>
				<current unit="mA">15.0</current>
				<anodeMaterial>Cu</anodeMaterial>
				<focus type="Line">
					<length unit="mm">12.0</length>
					<width unit="mm">0.4</width>
					<takeOffAngle unit="deg">6.0</takeOffAngle>
				</focus>
			</xRayTube>
			<sollerSlit id="21010002" name="Soller slits 0.04 rad.">
				<opening unit="rad">0.0400</opening>
			</sollerSlit>
			<mask id="22031000" name="Fixed mask 13 mm">
				<width unit="mm">9.00</width>
			</mask>
			<divergenceSlit id="22120001" name="Divergence slit 1°" xsi:type="fixedDivergenceSlitType">
				<distanceToSample unit="mm">50.00</distanceToSample>
				<height unit="mm">1.52</height>
			</divergenceSlit>
		</incidentBeamPath>
		<sampleMovement xsi:type="spinningSampleMovementType">
			<spinnerRevolutionTime unit="seconds">1.0</spinnerRevolutionTime>
		</sampleMovement>
		<diffractedBeamPath>
			<radius unit="mm">145.00</radius>
			<antiScatterSlit id="22090040" name="AS slit 9 mm (PIXcel)" xsi:type="fixedAntiScatterSlitType">
				<height unit="mm">9.00</height>
			</antiScatterSlit>
			<sollerSlit id="21020003" name="Large Soller slits 0.04 rad.">
				<opening unit="rad">0.0400</opening>
			</sollerSlit>
			<filter id="20030001" name="Large beta-filter Nickel">
				<material>Ni</material>
				<thickness unit="mm">0.020</thickness>
			</filter>
			<detector id="7010019" name="PIXcel1D-Medipix3 detector" xsi:type="rtmsDetectorType">
				<phd unit="keV">
					<lowerLevel>4.02</lowerLevel>
					<upperLevel>11.27</upperLevel>
				</phd>
				<mode>Scanning</mode>
				<activeLength unit="deg">5.542</activeLength>
			</detector>
		</diffractedBeamPath>
		<scan appendNumber="0" mode="Continuous" scanAxis="Gonio" status="Completed">
			<header>
				<startTimeStamp>2025-12-22T12:45:58-08:00</startTimeStamp>
				<endTimeStamp>2025-12-22T12:54:06-08:00</endTimeStamp>
				<author>
					<name>AutomatedUser</name>
				</author>
				<source>
					<applicationSoftware version="1.7b (136)">PANalytical Aeris Instrument Suite</applicationSoftware>
					<instrumentControlSoftware version="3.2.00000000 20240306">AERIS</instrumentControlSoftware>
					<instrumentID>950485</instrumentID>
				</source>
			</header>
			<dataPoints>
				<positions axis="2Theta" unit="deg">
					<startPosition>10.00943322</startPosition>
					<endPosition>99.99442286</endPosition>
				</positions>
				<positions axis="Omega" unit="deg">
					<startPosition>5.00471661</startPosition>
					<endPosition>49.99721143</endPosition>
				</positions>
				<commonCountingTime unit="seconds">12.495</commonCountingTime>
				<counts unit="counts">2998 2913 3098 2900 3031 2957 3001 2985 3051 2894 2998 2882 2982 2959 3010 2979 3007 2927 2926 2962 2982 2939 2896 2988 2936 2927 2879 3070 3018 3007 2881 3020 2943 3082 3026 2972 2846 2966 2944 3046 2927 2990 3023 3052 2894 2975 2883 2932 3000 3024 2974 2948 2927 2904 3069 2884 3083 3088 3021 2979 3012 3096 3044 3016 3071 3051 3041 2999 3086 3005 3010 2943 3153 3175 3091 3083 3007 2943 3093 3106 3045 3007 3022 3075 2942 3047 2975 2998 2992 2957 3035 3123 2880 2989 3080 2859 3031 2931 2963 3016 3047 3060 3022 3088 3024 3025 2992 3074 3144 2887 2957 2934 2932 2974 3053 3038 3005 2940 3019 3061 2857 2954 3043 2951 3022 3033 2922 2946 2963 2959 2957 2989 2964 3020 2949 2972 3109 2990 3009 2975 2927 2955 2998 3072 2930 2998 2943 2990 2975 2984 2917 2957 2970 2964 2979 2950 2962 2981 2910 2970 2957 2985 2977 2920 2997 2973 2967 2998 3088 3017 3006 2959 2910 3009 2966 2923 2996 2913 2964 2946 2963 2911 2942 2932 2889 2951 2864 2908 2921 2988 2983 2971 2935 2919 2925 2858 2903 2935 2879 2810 2943 2930 2844 2969 2972 2886 2984 2978 2980 2766 2888 2935 2863 2825 2834 2810 2859 2918 2907 2986 2807 2914 2996 2841 2876 2912 2892 2903 2817 2820 2859 2847 2855 2800 2932 2936 2915 2860 2850 2857 2862 2822 2870 2800 2906 2809 2935 2804 2850 2821 2870 2781 2734 2773 2903 2763 2811 2781 2844 2864 2743 2868 2736 2672 2857 2847 2821 2794 2742 2827 2804 2735 2824 2777 2755 2892 2855 2819 2812 2784 2865 2809 2802 2803 2882 2768 2892 2772 2755 2787 2797 2730 2716 2785 2834 2746 2740 2801 2826 2840 2775 2798 2823 2738 2710 2762 2710 2753 2740 2761 2727 2799 2841 2843 2819 2818 2843 2839 2805 2791 2756 2797 2751 2759 2781 2846 2800 2815 2853 2804 2865 2850 2851 2883 2862 2906 2772 2920 2898 2791 2866 2862 2790 2781 2867 2904 2880 2968 2776 2815 2867 2783 2828 2821 2922 2878 2830 2819 2875 2907 2933 2924 2985 2822 2939 2908 2877 2900 2827 2914 2946 2980 2849 2978 2859 2865 2851 2940 2910 2998 2998 2948 2936 3015 3075 2981 2926 2975 2993 2973 3063 3021 2878 3021 2970 2993 3050 3016 2992 3111 3092 3036 3071 3007 3076 3070 3183 3206 3233 3161 3155 3122 3204 3286 3217 3283 3293 3396 3383 3476 3546 3698 3710 3851 3951 4046 3976 4120 4193 4217 4277 4169 4120 4056 4035 3965 3926 3855 3766 3631 3777 3859 3491 3670 3625 3555 3484 3492 3509 3446 3390 3481 3429 3479 3370 3518 3491 3465 3569 3592 3598 3695 3624 3585 3501 3566 3421 3492 3464 3406 3447 3319 3378 3369 3342 3268 3236 3349 3316 3332 3360 3221 3172 3170 3279 3275 3280 3177 3207 3102 3127 3119 3085 3156 3057 3070 3036 3179 3121 3128 3072 3149 3082 3060 3155 3172 3110 3081 3100 3032 3024 2998 3039 3058 3043 3007 2994 3099 3019 2971 3026 3020 3021 2931 2983 3000 3062 3000 2993 2961 2956 2970 2951 2968 2851 2962 3037 2972 3028 3006 2965 2891 2856 2979 2978 2849 3000 2921 2897 2924 3007 2880 2954 2972 2870 3005 2865 2818 2923 2893 3011 2873 2842 2985 2850 2829 2904 2886 2903 2852 2913 2865 2906 2851 2838 2881 2815 2885 2896 2972 2841 2825 2898 2884 2874 2856 2843 2912 2904 2831 2842 2910 2820 2797 2805 2834 2788 2857 2823 2728 2750 2841 2809 2694 2745 2853 2782 2788 2843 2851 2782 2876 2814 2879 2819 2804 2777 2692 2778 2790 2779 2900 2794 2752 2844 2713 2792 2714 2795 2745 2763 2670 2808 2705 2803 2786 2825 2687 2604 2760 2787 2765 2760 2829 2687 2840 2789 2746 2773 2738 2850 2932 2807 2833 2780 2839 2819 2786 2743 2738 2755 2793 2686 2827 2683 2696 2771 2788 2728 2645 2736 2714 2768 2799 2687 2700 2643 2699 2698 2627 2706 2687 2689 2723 2812 2724 2722 2695 2695 2758 2643 2780 2658 2711 2652 2780 2679 2770 2629 2620 2566 2705 2708 2704 2591 2701 2625 2652 2632 2746 2597 2617 2694 2659 2662 2636 2658 2710 2619 2688 2647 2623 2615 2616 2624 2560 2648 2641 2669 2642 2689 2642 2723 2591 2532 2686 2649 2642 2595 2620 2706 2662 2598 2624 2605 2624 2681 2611 2748 2624 2761 2607 2691 2579 2660 2589 2593 2691 2586 2600 2548 2452 2557 2591 2526 2592 2579 2538 2583 2648 2601 2599 2592 2554 2553 2589 2539 2586 2554 2605 2552 2658 2486 2587 2608 2624 2569 2642 2684 2526 2555 2541 2616 2604 2519 2583 2575 2600 2607 2532 2583 2672 2549 2569 2585 2565 2547 2583 2543 2587 2486 2605 2620 2633 2550 2501 2627 2644 2496 2583 2579 2610 2588 2483 2578 2526 2561 2494 2613 2563 2648 2534 2484 2561 2571 2426 2578 2564 2601 2584 2521 2541 2507 2534 2549 2591 2514 2437 2454 2546 2574 2534 2586 2422 2587 2457 2477 2624 2533 2455 2528 2551 2394 2470 2516 2562 2567 2550 2470 2483 2578 2498 2433 2442 2542 2466 2528 2357 2599 2536 2485 2481 2475 2516 2481 2459 2505 2342 2466 2527 2494 2545 2588 2497 2462 2498 2503 2546 2525 2476 2467 2509 2526 2477 2485 2518 2422 2479 2508 2528 2524 2430 2444 2410 2483 2493 2523 2539 2456 2432 2457 2433 2459 2476 2458 2485 2406 2478 2463 2436 2498 2375 2479 2395 2423 2534 2422 2392 2473 2487 2487 2405 2464 2389 2532 2464 2398 2411 2448 2424 2431 2400 2385 2437 2335 2482 2456 2532 2414 2368 2398 2395 2357 2392 2408 2391 2450 2378 2401 2414 2372 2429 2391 2406 2411 2440 2410 2444 2407 2379 2402 2483 2458 2405 2408 2359 2355 2410 2459 2463 2365 2505 2412 2406 2358 2358 2414 2398 2415 2446 2424 2363 2322 2422 2395 2445 2422 2347 2403 2449 2421 2409 2437 2457 2320 2375 2457 2405 2335 2426 2407 2424 2321 2424 2368 2345 2393 2328 2399 2374 2426 2394 2276 2331 2301 2342 2323 2358 2340 2343 2275 2335 2344 2342 2394 2364 2424 2372 2330 2334 2433 2365 2365 2451 2440 2381 2360 2371 2388 2387 2359 2375 2346 2418 2363 2358 2355 2445 2360 2416 2357 2455 2330 2472 2438 2391 2411 2435 2386 2338 2496 2443 2305 2385 2400 2339 2394 2248 2378 2338 2355 2293 2327 2301 2391 2348 2262 2337 2402 2393 2295 2314 2409 2446 2334 2311 2333 2377 2369 2260 2281 2367 2340 2251 2323 2364 2391 2344 2268 2337 2353 2338 2372 2311 2245 2379 2377 2377 2389 2312 2378 2321 2359 2259 2280 2414 2286 2294 2344 2245 2416 2340 2314 2312 2332 2293 2421 2270 2273 2317 2210 2341 2365 2250 2280 2238 2308 2304 2215 2267 2348 2248 2357 2301 2323 2202 2326 2180 2285 2252 2237 2244 2291 2213 2232 2221 2190 2138 2232 2236 2290 2238 2167 2389 2271 2238 2256 2179 2247 2216 2218 2203 2195 2237 2213 2165 2173 2148 2179 2171 2209 2201 2256 2254 2184 2174 2227 2317 2171 2137 2165 2236 2159 2039 2109 2184 2199 2098 2202 2241 2239 2166 2066 2131 2212 2146 2180 2165 2113 2219 2099 2125 2137 2128 2183 2115 2197 2179 2220 2132 2140 2037 2110 2159 2192 2041 2148 2104 2307 2185 2148 2136 2154 2080 2109 2095 2117 2144 2069 2158 2075 2149 2170 2142 2019 1991 2120 2074 2033 2113 2054 2100 2100 2096 2044 2086 2113 2109 2144 2094 2016 2076 2070 2117 2059 2019 2114 2019 2138 2125 2056 2133 2088 2097 2056 2065 2086 2081 2114 2019 2113 2089 2026 2045 2010 2059 2226 2113 2069 2100 2062 2169 2092 2120 2058 2116 2081 2218 2106 2145 2078 2133 2005 2019 2141 2063 2061 2104 2020 2080 2047 2003 1984 2101 2059 2061 1997 2021 2074 2026 2050 1958 2043 2019 2007 2046 1995 2007 2003 2100 2004 1985 2029 1997 2004 2007 2013 1939 2044 1963 1963 1979 1998 2054 1980 2006 1991 1991 2004 2034 1996 1995 2024 1933 1976 2012 1876 2027 1964 2047 1969 1990 2039 1998 2104 2031 2039 2018 1906 1971 1981 2029 1962 2006 2053 2022 1920 2010 2058 2068 1989 1999 1902 1991 1978 2077 1968 1978 2030 2034 1967 1937 1995 1896 1997 2007 1934 1927 2083 1934 1980 1986 2062 1923 1938 2025 2038 2034 1990 2094 1948 2080 1951 2092 2021 2061 1963 1965 2025 1995 1994 2069 1984 2016 2075 2070 2010 2001 2043 2018 2000 2065 2023 2055 1970 2036 1986 2081 2028 2030 2018 2027 1978 2010 2028 1941 2096 2013 1913 2059 1932 2042 1947 1965 1916 2071 1984 1970 1947 2023 1979 2009 1947 1981 2027 2045 1982 1971 1980 1922 1977 1932 1970 1998 1987 2014 2015 1940 1971 1945 1938 1974 1970 1970 2044 1963 1920 2034 1965 1960 2019 1971 2016 1980 1957 1942 2067 1894 1956 1966 1994 2053 1978 1933 2035 2009 1968 1977 1920 1956 1985 1962 1962 1978 2018 1883 2005 2014 1999 1975 1972 1988 1918 2020 1916 1950 2000 2023 1992 1953 1961 2047 1922 2029 1957 1991 1959 2004 2027 1984 2023 2016 1976 2060 2057 2112 2095 2021 2100 1963 2062 2024 2020 2057 2001 2019 2111 2015 1999 2011 1910 2007 1988 1993 1942 2007 1872 1906 1904 1865 1925 1871 1927 1969 1881 1891 1941 1955 1895 1962 1972 1947 1948 1919 1861 1895 1863 1803 1881 1934 1876 1857 1866 1901 1840 1928 1925 1897 1910 1851 1932 1865 1827 1894 1873 1823 1841 1880 1924 1847 1819 1820 1840 1875 1910 1779 1839 1753 1840 1832 1954 1837 1911 1801 1801 1860 1789 1813 1876 1837 1924 1829 1870 1838 1925 1906 1877 1841 1826 1811 1821 1757 1777 1790 1856 1883 1839 1891 1811 1818 1952 1840 1891 1802 1891 1840 1944 1961 1934 1869 1922 1979 1983 2000 2014 2094 2103 2118 2142 2253 2248 2363 2355 2407 2357 2332 2433 2255 2400 2333 2309 2370 2209 2115 2189 2177 2157 2185 2100 2061 1994 2135 2024 2042 1988 2043 2053 1948 2048 1989 2022 1968 1947 1938 2016 1837 1985 1885 1845 1916 1763 1855 1864 1818 1898 1828 1843 1773 1824 1817 1808 1782 1840 1849 1805 1846 1913 1812 1913 1796 1827 1773 1838 1761 1837 1784 1795 1809 1849 1695 1769 1770 1733 1887 1731 1698 1750 1691 1754 1716 1852 1753 1762 1732 1750 1772 1733 1730 1785 1742 1864 1786 1783 1790 1870 1822 1792 1818 1746 1718 1873 1864 1832 1806 1828 1924 1908 1809 1910 2024 1982 2003 2103 2076 2156 2204 2372 2358 2497 2495 2688 2564 2709 2632 2834 2807 2805 2614 2682 2576 2635 2536 2552 2611 2557 2439 2528 2545 2523 2597 2764 2766 2799 2890 2923 2997 3089 2964 3045 3034 2919 2893 2881 2838 2923 2729 2566 2564 2345 2306 2283 2085 2076 2007 1986 1955 1845 1791 1796 1779 1791 1746 1772 1632 1718 1789 1786 1694 1762 1773 1728 1764 1716 1661 1704 1722 1670 1638 1683 1674 1643 1683 1656 1637 1657 1698 1667 1678 1671 1640 1643 1579 1596 1648 1628 1713 1667 1580 1635 1662 1625 1721 1583 1644 1643 1586 1640 1715 1649 1696 1600 1631 1639 1610 1610 1599 1620 1630 1660 1674 1671 1609 1642 1659 1692 1635 1647 1671 1621 1586 1574 1648 1637 1624 1642 1633 1659 1624 1703 1569 1639 1646 1556 1621 1639 1556 1599 1669 1556 1592 1575 1578 1561 1637 1619 1658 1577 1581 1639 1558 1620 1539 1590 1433 1600 1621 1588 1567 1581 1613 1600 1518 1552 1582 1566 1550 1648 1536 1588 1547 1567 1608 1541 1533 1625 1545 1577 1503 1658 1528 1570 1499 1477 1637 1493 1541 1532 1548 1537 1594 1534 1658 1615 1587 1542 1577 1572 1550 1567 1571 1582 1680 1564 1618 1590 1642 1588 1617 1590 1584 1539 1521 1567 1586 1548 1565 1549 1594 1580 1537 1617 1489 1606 1541 1581 1556 1596 1587 1497 1599 1593 1557 1629 1593 1525 1564 1588 1493 1516 1544 1514 1555 1535 1634 1648 1583 1618 1635 1629 1621 1608 1527 1577 1557 1609 1579 1562 1597 1697 1667 1653 1687 1701 1704 1635 1624 1661 1739 1758 1682 1694 1741 1705 1768 1694 1798 1679 1764 1743 1716 1702 1710 1705 1758 1736 1782 1626 1710 1677 1683 1605 1653 1693 1623 1640 1671 1627 1637 1694 1609 1629 1703 1648 1583 1601 1630 1645 1627 1639 1616 1566 1712 1493 1616 1517 1580 1565 1582 1512 1609 1584 1516 1504 1602 1485 1578 1547 1622 1546 1563 1595 1581 1553 1433 1565 1590 1514 1523 1615 1623 1647 1507 1662 1593 1527 1597 1603 1608 1549 1597 1597 1555 1559 1591 1551 1532 1638 1544 1546 1522 1513 1527 1517 1542 1578 1541 1479 1524 1519 1542 1552 1499 1564 1527 1524 1521 1484 1461 1479 1506 1536 1560 1482 1501 1503 1556 1588 1581 1580 1612 1625 1533 1560 1541 1655 1554 1641 1542 1559 1585 1541 1575 1552 1520 1594 1583 1532 1615 1669 1591 1590 1590 1585 1555 1643 1667 1602 1665 1660 1643 1719 1852 1783 1826 1887 1982 2002 2199 2300 2418 2529 2775 2875 3126 3301 3592 3759 3851 4106 4024 4331 4325 4313 4308 4353 4192 4015 3886 3826 3682 3717 3501 3242 3321 3043 3021 3160 3113 3076 3050 2900 3158 3049 3122 3042 3180 3139 3245 3131 3094 2966 3016 2798 2834 2710 2733 2618 2515 2430 2282 2237 2076 2024 1992 1910 1880 1875 1758 1756 1744 1681 1681 1729 1689 1551 1610 1662 1665 1643 1701 1686 1697 1596 1688 1687 1614 1724 1546 1607 1662 1674 1582 1640 1528 1639 1620 1504 1569 1544 1521 1579 1536 1533 1482 1623 1609 1517 1536 1574 1580 1544 1555 1641 1568 1583 1567 1506 1560 1582 1551 1533 1574 1501 1586 1641 1539 1513 1498 1562 1492 1502 1518 1550 1478 1566 1461 1494 1527 1422 1489 1513 1497 1505 1462 1475 1455 1435 1480 1491 1543 1506 1484 1455 1442 1476 1529 1547 1559 1487 1501 1462 1479 1504 1460 1447 1466 1483 1427 1497 1494 1519 1522 1489 1489 1464 1493 1428 1403 1478 1485 1434 1437 1533 1506 1506 1478 1502 1394 1481 1495 1464 1407 1425 1437 1406 1398 1474 1411 1399 1456 1370 1439 1470 1465 1421 1469 1413 1399 1391 1342 1368 1390 1452 1416 1381 1354 1463 1349 1381 1420 1340 1459 1417 1386 1451 1399 1397 1413 1420 1412 1352 1391 1353 1340 1375 1399 1399 1362 1355 1323 1359 1371 1330 1393 1314 1418 1331 1370 1349 1412 1458 1367 1437 1383 1462 1371 1389 1344 1293 1407 1342 1367 1382 1417 1430 1387 1383 1367 1338 1337 1376 1413 1402 1395 1370 1444 1357 1297 1444 1331 1376 1339 1403 1307 1370 1357 1453 1347 1359 1372 1345 1402 1368 1333 1373 1418 1356 1395 1314 1384 1365 1371 1341 1430 1452 1378 1360 1389 1344 1300 1361 1335 1515 1400 1314 1417 1408 1447 1422 1417 1355 1454 1414 1416 1290 1461 1376 1399 1427 1331 1401 1440 1384 1415 1391 1400 1474 1406 1451 1440 1445 1447 1449 1354 1322 1414 1388 1331 1294 1391 1354 1367 1373 1399 1326 1430 1375 1381 1388 1371 1353 1403 1345 1379 1351 1300 1371 1367 1362 1280 1353 1330 1288 1391 1317 1374 1286 1337 1332 1359 1345 1382 1330 1315 1346 1299 1294 1382 1335 1357 1327 1300 1386 1325 1380 1417 1301 1383 1333 1386 1326 1283 1353 1326 1341 1319 1305 1441 1364 1362 1322 1330 1322 1355 1254 1325 1323 1332 1382 1340 1333 1279 1361 1240 1377 1340 1325 1343 1290 1347 1353 1351 1348 1363 1344 1297 1376 1369 1439 1313 1382 1358 1354 1309 1310 1355 1317 1279 1253 1310 1306 1303 1295 1286 1308 1297 1359 1294 1318 1281 1353 1283 1258 1249 1322 1320 1319 1340 1239 1333 1357 1291 1230 1356 1273 1298 1337 1321 1321 1347 1339 1276 1280 1365 1400 1376 1389 1332 1351 1339 1344 1354 1346 1364 1395 1327 1336 1376 1291 1339 1318 1296 1314 1324 1327 1296 1338 1343 1305 1237 1335 1311 1314 1346 1280 1277 1264 1304 1276 1239 1322 1280 1295 1300 1308 1327 1338 1313 1274 1283 1328 1284 1302 1287 1346 1247 1347 1295 1269 1285 1314 1323 1302 1292 1278 1295 1193 1307 1308 1249 1290 1238 1303 1291 1272 1267 1287 1286 1273 1235 1234 1294 1332 1317 1238 1264 1273 1271 1269 1254 1243 1286 1286 1279 1296 1228 1246 1229 1268 1288 1263 1277 1321 1324 1287 1282 1360 1283 1296 1227 1278 1296 1312 1286 1284 1251 1307 1260 1288 1236 1268 1268 1260 1279 1262 1281 1232 1284 1231 1299 1316 1242 1304 1330 1236 1235 1253 1214 1248 1346 1269 1217 1274 1171 1256 1250 1255 1226 1232 1272 1243 1243 1179 1299 1326 1314 1224 1227 1315 1203 1264 1256 1313 1265 1267 1183 1276 1253 1209 1259 1330 1224 1300 1259 1198 1184 1222 1250 1221 1195 1257 1181 1287 1281 1264 1293 1306 1278 1240 1295 1248 1300 1243 1265 1214 1262 1220 1215 1279 1227 1277 1196 1251 1214 1263 1248 1243 1287 1245 1243 1241 1263 1246 1247 1187 1244 1287 1227 1261 1251 1224 1282 1202 1144 1244 1272 1236 1198 1212 1243 1238 1225 1224 1295 1229 1133 1289 1287 1234 1216 1185 1259 1248 1259 1241 1232 1302 1194 1220 1250 1190 1294 1265 1181 1292 1251 1152 1187 1193 1256 1277 1233 1277 1272 1216 1222 1211 1316 1236 1218 1229 1210 1220 1262 1250 1243 1188 1182 1247 1299 1221 1217 1207 1176 1246 1277 1215 1216 1280 1230 1280 1228 1297 1320 1222 1229 1219 1288 1201 1311 1235 1216 1170 1252 1233 1270 1218 1215 1224 1191 1219 1248 1184 1218 1275 1233 1254 1264 1253 1269 1280 1264 1306 1235 1247 1267 1233 1217 1299 1290 1197 1258 1259 1205 1209 1268 1161 1172 1225 1272 1208 1262 1288 1193 1220 1234 1205 1246 1210 1220 1194 1264 1224 1296 1274 1275 1260 1229 1219 1274 1263 1278 1272 1288 1278 1203 1272 1255 1214 1224 1234 1219 1227 1266 1202 1209 1295 1228 1254 1245 1241 1235 1214 1274 1196 1257 1192 1246 1265 1236 1185 1228 1238 1318 1261 1247 1238 1210 1230 1260 1291 1157 1276 1212 1236 1214 1283 1268 1304 1263 1249 1240 1244 1307 1267 1201 1236 1245 1222 1254 1254 1249 1295 1263 1324 1282 1264 1267 1306 1271 1231 1243 1261 1322 1287 1240 1265 1355 1280 1257 1348 1286 1351 1221 1256 1297 1262 1243 1203 1289 1251 1218 1220 1174 1152 1290 1291 1240 1291 1215 1208 1227 1234 1246 1277 1246 1243 1231 1232 1217 1243 1204 1258 1175 1317 1275 1197 1234 1213 1261 1233 1232 1218 1188 1267 1264 1227 1189 1216 1191 1225 1257 1173 1153 1250 1218 1232 1251 1273 1230 1222 1223 1225 1270 1195 1226 1236 1229 1227 1261 1172 1290 1196 1192 1301 1193 1262 1246 1247 1221 1253 1232 1307 1266 1215 1335 1285 1320 1349 1322 1388 1386 1398 1433 1510 1489 1511 1497 1492 1490 1555 1504 1487 1455 1450 1583 1448 1429 1428 1415 1355 1427 1342 1288 1342 1336 1315 1287 1312 1281 1255 1229 1251 1219 1286 1266 1345 1298 1275 1265 1286 1272 1225 1323 1250 1292 1242 1243 1247 1257 1261 1234 1248 1327 1218 1276 1212 1257 1307 1224 1261 1267 1235 1253 1251 1163 1225 1163 1171 1254 1205 1163 1171 1243 1174 1189 1254 1279 1184 1271 1157 1192 1250 1214 1206 1209 1196 1198 1155 1136 1219 1168 1180 1161 1197 1180 1235 1194 1196 1191 1194 1250 1224 1168 1236 1147 1228 1192 1193 1178 1175 1217 1227 1201 1190 1231 1205 1208 1245 1306 1173 1269 1186 1171 1229 1194 1304 1161 1116 1168 1204 1244 1156 1196 1171 1265 1183 1133 1144 1219 1233 1215 1175 1228 1238 1115 1229 1238 1189 1196 1230 1172 1237 1138 1175 1170 1208 1144 1148 1226 1139 1141 1168 1200 1150 1228 1196 1205 1149 1194 1168 1193 1164 1176 1150 1205 1254 1153 1210 1181 1137 1192 1159 1158 1246 1189 1194 1180 1163 1134 1147 1091 1177 1154 1197 1179 1178 1180 1162 1162 1137 1196 1192 1205 1132 1184 1179 1241 1214 1171 1217 1152 1185 1164 1158 1202 1170 1193 1214 1130 1161 1202 1179 1131 1206 1221 1150 1198 1184 1176 1179 1165 1199 1184 1234 1113 1129 1081 1128 1212 1106 1217 1218 1196 1176 1178 1123 1190 1144 1160 1150 1121 1167 1216 1220 1200 1182 1118 1179 1237 1150 1204 1193 1215 1130 1152 1277 1197 1204 1207 1196 1186 1178 1177 1240 1191 1200 1180 1239 1159 1196 1186 1170 1203 1259 1184 1200 1179 1164 1219 1190 1182 1181 1172 1158 1252 1197 1164 1168 1183 1200 1162 1200 1180 1202 1199 1177 1104 1196 1223 1159 1187 1178 1199 1193 1129 1191 1240 1167 1194 1156 1212 1282 1194 1215 1206 1213 1160 1300 1198 1154 1169 1158 1246 1134 1153 1202 1162 1135 1193 1149 1162 1185 1208 1262 1207 1217 1202 1219 1144 1186 1193 1220 1161 1196 1187 1194 1130 1171 1185 1235 1179 1174 1156 1232 1156 1223 1231 1200 1213 1210 1211 1165 1254 1226 1240 1305 1296 1201 1274 1224 1296 1273 1288 1292 1305 1372 1409 1482 1460 1527 1606 1714 1756 1873 1962 1996 2190 2231 2423 2338 2309 2542 2434 2549 2435 2438 2426 2382 2399 2344 2320 2292 2315 2250 2131 2092 1996 2016 1909 1948 1847 1829 1783 1659 1738 1653 1685 1631 1600 1611 1560 1690 1654 1702 1801 1827 1732 1811 1801 1897 1854 1942 1948 1961 1970 2079 2074 2066 2043 2050 1928 1879 1807 1825 1687 1634 1631 1599 1619 1555 1551 1506 1419 1473 1440 1373 1321 1312 1341 1252 1324 1298 1285 1255 1316 1340 1351 1282 1354 1270 1295 1350 1302 1390 1306 1368 1476 1348 1357 1371 1342 1376 1358 1349 1369 1325 1317 1300 1281 1293 1320 1315 1285 1284 1230 1301 1210 1205 1261 1256 1226 1229 1231 1265 1202 1264 1221 1188 1223 1210 1237 1208 1124 1235 1205 1192 1164 1232 1227 1226 1191 1226 1239 1175 1241 1177 1220 1177 1198 1208 1153 1193 1217 1149 1188 1193 1201 1171 1168 1127 1206 1197 1232 1232 1224 1162 1198 1197 1173 1163 1216 1148 1208 1156 1218 1157 1128 1158 1118 1139 1130 1077 1153 1140 1112 1159 1130 1151 1090 1173 1026 1128 1091 1146 1138 1070 1170 1158 1105 1127 1159 1128 1099 1161 1146 1129 1192 1127 1127 1143 1132 1154 1163 1167 1129 1133 1123 1151 1116 1142 1099 1144 1131 1108 1184 1284 1164 1201 1220 1232 1204 1184 1303 1184 1275 1218 1204 1292 1185 1239 1255 1312 1212 1241 1215 1228 1209 1303 1242 1248 1181 1264 1180 1199 1198 1227 1162 1190 1191 1201 1190 1135 1105 1169 1162 1186 1094 1150 1202 1127 1169 1201 1147 1180 1220 1135 1176 1114 1175 1164 1169 1180 1117 1204 1140 1219 1163 1207 1150 1176 1168 1230 1240 1210 1218 1125 1123 1148 1108 1162 1119 1129 1141 1151 1063 1166 1140 1117 1150 1121 1074 1177 1139 1089 1152 1097 1147 1133 1124 1120 1139 1205 1178 1187 1148 1149 1212 1138 1188 1221 1212 1190 1176 1232 1196 1163 1228 1133 1195 1181 1181 1195 1150 1161 1213 1128 1158 1128 1112 1185 1121 1161 1089 1102 1089 1131 1143 1135 1114 1135 1099 1051 1132 1109 1129 1127 1140 1145 1101 1096 1065 1079 1057 1082 1155 1067 1053 1131 1116 1078 1081 1111 1097 1103 1051 1091 1108 1098 1071 1073 1122 1080 1087 1116 1067 1119 1139 1035 1050 1109 1061 1092 1028 1042 1162 1098 1107 1098 1156 1131 1137 1120 1106 1081 1090 1163 1068 1115 1118 1124 1165 1153 1035 1109 1091 1112 1159 1173 1067 1058 1066 1111 1145 1073 1123 1113 1098 1096 1081 1057 1106 1056 1073 1118 1102 1170 1096 1073 1084 1141 1023 1115 1073 1082 1053 1090 1092 1141 1089 1104 1057 1042 1120 1063 1125 1051 1063 1070 1021 1038 1120 1131 1088 1027 1135 1040 1122 1089 1091 1131 1058 1125 1094 1128 1133 1101 1083 1042 1089 1086 1093 1057 1049 1075 1058 1104 1132 1121 1101 1107 1062 1119 1083 1078 1152 1058 1103 1131 1093 1043 1118 1106 1145 1110 1080 1086 1075 1048 1096 1043 1134 1029 1135 1130 1099 1056 1100 1109 1118 1059 1055 1100 1096 1122 1113 1079 1084 1179 1092 1098 1130 1165 1124 1076 1066 1060 1111 1090 1101 1054 1085 1077 1061 1053 1066 1051 1033 1094 1059 1048 1039 1051 1034 1123 1042 1050 1054 1071 1034 1120 1120 1048 1114 1080 1041 1023 1013 1058 1057 1109 1095 1054 1055 1043 1070 1080 1017 1085 1064 1006 1045 1035 1068 1116 1125 1066 1147 1078 1070 1052 1061 1000 1040 1054 1111 1097 1057 1080 1104 1127 1086 1064 1111 1072 1109 1015 1088 1074 1085 1099 1013 1058 1056 1095 1027 1054 990 1011 1101 1087 1092 1113 1046 1023 1048 1085 1031 1116 1007 1057 1087 1108 1121 1055 1097 1038 1079 1043 1085 1113 1046 1033 1033 1047 1092 1047 1037 1085 1070 1033 1011 1056 1075 1073 1085 1032 994 1068 1076 1051 1045 1046 1105 1078 1098 1090 1141 1130 1077 1067 1087 1055 1093 1016 1081 1140 1062 1068 1066 1083 1019 1064 1071 1114 1075 1059 1083 1098 1095 1033 1090 1057 1094 1035 1038 1069 1070 1081 1083 1075 1047 1055 1027 1002 1072 1062 1052 1124 964 1105 1135 1111 1081 1119 1039 1088 1054 1076 1048 1075 1061 1106 1063 1055 1041 1027 1068 1077 1064 1055 1062 1108 1101 1066 1054 1030 1038 1085 1041 1022 1056 1068 1094 1048 1030 1090 1072 1049 1034 1081 1050 1072 1074 1059 1013 1028 1047 1016 1081 1023 1112 1056 1022 1064 1028 1053 1039 1024 992 991 1070 1031 1063 1069 1053 1012 1053 1033 1021 1069 1059 999 1035 1014 1028 1087 1106 1120 1079 1095 1069 1065 1045 1029 1064 1044 1110 1073 1061 1082 1116 1034 1044 1116 1062 1100 1060 1086 1054 1075 1098 1050 1001 1093 1100 1139 1063 1106 1081 1020 1115 1064 1026 996 1117 1046 1142 1064 1100 1073 1115 1057 1109 1080 1112 1090 1140 1068 1082 1097 1032 1063 1092 1089 1087 1058 1063 1064 1175 1123 1133 1160 1049 1186 1177 1115 1133 1191 1172 1235 1204 1171 1149 1175 1176 1172 1132 1161 1229 1185 1154 1130 1144 1174 1127 1087 1112 1146 1140 1107 1131 1104 1077 1136 1079 1148 1104 1081 1116 1141 1030 1090 1128 1113 1044 1094 1142 1122 1117 1189 1139 1176 1204 1257 1233 1273 1297 1449 1466 1519 1557 1571 1546 1624 1570 1503 1470 1415 1378 1358 1264 1292 1352 1382 1369 1412 1340 1296 1358 1320 1257 1288 1228 1184 1146 1125 1181 1089 1127 1090 1105 1046 1087 1094 1073 1127 996 1120 1006 1067 1031 1027 1047 1113 1104 1009 1061 1005 1043 1069 995 1012 1011 1050 991 1039 1002 1035 1053 1043 1052 1057 1021 1032 1016 1026 994 1025 1030 1061 987 1037 1025 1065 974 1062 1013 1006 1007 1010 1021 1092 1010 1060 1091 1021 1055 1031 984 1073 972 1029 1064 1122 1006 1028 1028 1071 963 1101 977 1048 1075 1076 1016 1123 1024 1080 1021 1067 999 1041 1065 1074 1055 1063 1072 1016 1063 1053 1084 1053 1101 1048 1096 1080 1070 1052 1050 1023 1048 1015 1078 1036 1075 1139 1011 1044 973 1055 1041 1072 1070 966 1071 1042 1045 1079 1076 1062 1062 1061 1080 1062 1038 1075 1053 1027 1020 1023 1036 1024 1081 1056 1080 1049 1032 991 1030 1042 1061 1026 1048 1025 1036 1052 1029 999 1034 1017 1054 1068 1080 1045 1065 1008 1005 1079 1008 1027 1003 1028 1062 1018 1078 1120 1067 1030 1088 1037 1064 1094 1035 1118 1057 1107 1052 1112 1088 1213 1171 1166 1235 1270 1289 1253 1258 1233 1273 1262 1253 1224 1282 1229 1238 1286 1255 1252 1263 1197 1280 1279 1188 1254 1188 1148 1230 1206 1193 1147 1173 1152 1138 1152 1084 1140 1101 1084 1080 1102 1151 1050 1070 1110 1073 1120 1034 1073 1087 1111 1131 1113 1110 1152 1145 1152 1198 1218 1273 1259 1295 1296 1298 1251 1292 1206 1249 1117 1220 1116 1139 1212 1182 1128 1119 1126 1139 1194 1134 1149 1107 1155 1140 1104 1063 1057 1038 1084 1029 1040 992 1089 1021 1056 1056 1036 1014 1011 1039 988 1046 1033 1020 994 1069 1086 1003 1051 1027 975 1038 1024 968 1051 1046 1096 982 1011 1063 992 1041 1052 1048 1067 1046 1054 1014 1012 1051 1007 925 1050 1019 1005 991 1041 1033 993 1049 972 939 1039 995 1034 974 1015 979 987 1020 977 1023 1014 1052 1024 1017 1014 960 1025 990 1031 1077 1028 972 988 1006 1018 1018 1032 1055 1020 1011 1037 1007 965 1019 1036 1028 1048 1056 992 978 1032 1014 1052 1027 1100 1056 1035 1062 1055 1076 1021 1054 1129 1070 1052 1047 1081 1084 1104 1097 1097 1070 1087 1068 1099 1116 1044 1111 1066 1071 1081 1073 1068 1041 1070 1046 1061 1112 1067 1088 1077 1072 1048 998 1026 1090 1017 1059 1051 1053 1038 1107 983 1066 1014 1026 1014 989 978 1021 994 1035 1042 1034 1001 1064 1021 1009 1046 1035 1058 1045 1034 999 1049 1051 1078 1048 1003 1036 986 1031 1006 1022 1005 1070 1066 1027 958 1045 1045 979 986 970 1018 995 1058 1014 977 1005 1012 983 961 1007 1040 975 980 1022 1035 1031 993 977 980 958 929 948 954 995 1085 1009 1028 1009 941 968 1032 1036 983 986 1021 1019 1022 977 1039 1000 1036 961 1014 973 952 1020 967 1001 963 992 976 929 945 1046 996 997 1026 1033 963 949 949 1027 987 933 965 919 972 982 1025 1012 1009 1009 983 972 937 992 965 982 929 965 1020 961 942 987 1025 1020 998 980 1015 990 933 962 946 983 985 972 986 954 975 979 1000 995 1054 980 939 988 987 1006 1045 957 932 1045 927 937 991 1039 979 1027 1006 955 928 995 974 915 1023 945 974 999 1007 960 959 1016 977 980 920 952 916 954 929 1062 925 1001 954 1008 981 996 999 994 997 1013 991 987 952 949 1011 936 980 981 964 998 934 981 959 992 962 952 926 1020 995 962 964 1020 1047 983 949 996 940 975 988 974 949 945 973 971 958 954 958 927 990 919 988 965 975 989 928 983 1039 1008 937 989 984 949 929 1016 924 952 984 951 958 988 916 968 1014 1014 961 965 1006 978 1006 1041 975 972 963 936 953 999 972 992 1007 998 913 982 1005 950 1008 992 933 953 905 1030 971 973 943 970 1001 945 996 961 1012 1016 982 937 944 981 945 1025 985 964 949 995 980 910 968 968 922 989 980 962 985 961 927 980 935 946 935 926 947 997 944 921 936 978 949 1049 943 1039 939 956 936 960 953 992 955 999 985 953 985 975 1011 983 953 977 992 906 970 955 1022 929 972 975 962 928 983 973 948 959 1009 926 940 951 949 948 981 972 974 957 1000 957 976 983 920 963 977 961 1010 983 987 969 1004 984 952 950 1008 1022 941 981 983 982 924 924 994 974 986 986 923 975 959 970 978 971 908 949 989 945 979 956 988 991 968 1017 929 1028 925 924 961 987 998 995 890 915 936 941 997 999 969 943 1000 928 970 995 936 998 1012 936 932 1003 906 996 990 925 1004 928 972 991 963 940 950 931 1006 980 987 918 937 925 921 958 947 961 986 957 946 936 968 956 946 972 956 1003 1020 993 1007 1000 996 1045 987 999 960 961 1005 964 961 987 1003 1000 978 988 997 970 1026 944 938 971 961 955 990 943 975 1016 987 967 970 901 1000 970 1008 969 966 993 952 1000 969 979 932 1007 969 1017 942 953 933 1011 939 967 1020 973 941 974 995 950 989 1000 993 944 999 923 921 989 930 911 903 931 979 1026 1001 962 927 959 998 946 956 957 916 960 973 950 875 969 897 952 941 942 970 982 1028 925 1000 1000 888 968 999 937 997 976 886 930 907 942 952 938 918 903 1005 932 935 966 946 973 915 918 958 937 996 987 978 1021 958 952 967 949 975 915 935 982 950 902 993 967 929 981 980 976 1005 949 956 964 943 928 949 924 999 929 893 956 926 964 940 971 922 994 902 1036 969 888 919 936 961 989 947 946 965 977 940 976 949 945 955 910 966 867 1002 964 960 946 953 987 950 978 928 944 957 933 997 931 959 932 976 975 961 941 994 948 942 939 943 936 947 886 954 957 895 957 913 922 966 929 960 978 933 926 957 944 998 910 937 1003 955 966 968 969 898 901 921 890 934 961 934 977 950 902 977 956 970 993 907 963 997 989 943 916 947 878 970 960 955 942 911 928 942 949 977 895 920 936 900 939 891 905 1015 983 946 947 960 970 972 898 895 960 966 924 982 939 939 908 995 925 989 902 945 965 986 917 977 973 1007 915 957 975 944 950 981 926 986 951 974 952 979 959 1004 1004 971 995 969 983 1039 1023 990 1017 1050 1027 980 993 1047 1002 973 1000 955 1099 1002 1012 1026 1000 1021 1015 1011 971 1019 951 987 1065 956 971 955 1009 997 1014 999 899 1001 956 997 985 923 948 962 918 957 946 943 982 910 929 985 996 1003 1014 977 988 940 976 996 942 949 975 987 1015 973 957 964 1039 1016 1004 965 980 971 950 949 1035 940 1035 924 969 967 953 900 962 1007 986 995 900 1018 979 965 976 925 1008 954 922 947 973 875 944 1003 995 964 972 935 951 922 955 963 922 914 927 947 958 969 968 939 914 891 937 894 986 932 932 932 935 987 966 955 956 940 955 943 881 985 984 986 942 906 949 952 913 971 936 957 873 944 973 967 929 958 941 944 919 975 941 876 972 967 905 991 950 974 905 937 895 949 893 957 953 935 953 953 975 958 964 934 931 886 919 997 907 936 952 919 929 960 942 1010 977 934 982 925 946 969 936 973 895 879 920 885 900 895 886 976 898 967 900 931 926 953 906 964 997 931 962 936 981 909 973 888 959 971 957 946 944 951 908 944 955 955 973 933 953 907 916 930 991 948 909 948 935 970 949 924 961 920 920 954 984 992 908 944 936 926 985 937 924 949 910 906 883 939 934 931 913 917 896 971 960 947 916 929 926 926 964 898 955 998 987 957 927 940 949 963 909 884 951 963 897 886 903 937 871 917 946 877 969 902 912 913 845 896 946 986 954 933 939 964 886 931 946 945 940 930 886 964 889 919 947 915 950 924 911 912 978 959 951 899 955 1001 953 933 955 937 941 984 853 927 926 889 983 910 906 907 926 901 931 898 898 895 945 930 862 894 942 913 970 973 919 920 901 951 970 899 933 977 925 909 872 990 933 962 905 906 927 874 871 955 952 954 916 974 885 935 938 847 944 955 971 935 935 881 956 925 935 934 964 966 917 948 987 862 992 927 932 913 944 951 968 997 944 929 1006 922 908 984 923 955 930 926 943 920 881 935 897 890 915 941 897 929 936 907 967 897 962 933 904 926 889 916 948 902 943 915 962 917 941 899 936 958 935 921 972 876 893 919 938 922 925 926 877 892 966 915 987 974 951 862 934 898 901 931 918 904 928 936 909 919 934 933 919 920 936 921 942 930 959 881 924 969 931 891 876 916 930 965 883 980 928 918 967 913 943 913 946 989 886 972 946 941 963 888 914 884 938 960 886 959 929 934 1013 933 931 981 898 1018 943 926 931 978 944 934 957 914 938 1002 932 932 909 950 916 904 972 898 953 975 974 985 909 900 914 952 956 932 870 968 918 891 948 926 916 949 954 908 951 971 944 952 904 934 899 922 926 914 940 881 940 928 875 920 924 921 924 946 979 905 926 917 949 910 979 938 959 916 1001 923 934 893 965 955 939 936 948 887 944 899 908 960 899 915 969 967 932 870 976 991 880 973 945 921 901 967 944 950 953 928 965 930 1020 934 869 911 966 954 985 968 979 880 952 958 944 918 932 922 1006 996 927 964 960 948 907 956 933 929 947 944 953 945 943 943 940 935 956 963 926 898 945 967 955 998 977 931 956 926 942 923 939 902 953 965 935 971 971 913 891 959 991 951 971 943 946 919 920 998 982 898 926 931 944 908 942 997 964 977 939 932 937 1014 986 940 950 971 1029 964 980 978 887 946 941 1006 1012 952 981 976 956 982 950 997 1018 1033 996 1028 1022 996 923 963 932 897 922 963 975 930 920 916 860 958 967 987 989 989 944 956 956 978 977 935 983 947 927 949 929 934 938 922 978 957 965 961 910 957 960 950 903 945 963 930 1012 908 929 947 907 949 925 1050 1006 923 983 979 1027 942 991 985 1003 948 1067 981 967 1010 1004 990 1015 998 1001 990 1021 1059 1011 1007 973 937 964 965 977 940 966 993 935 931 977 969 966 993 966 965 974 934 926 983 961 970 959 931 969 900 956 902 941 967 942 949 935 875 954 937 989 957 1009 895 977 953 944 934 890 887 977 961 903 957 959 915 921 900 943 934 961 918 924 914 975 913 902 947 917 920 971 957 952 986 919 855 929 926 930 972 943 977 953 970 970 924 979 978 896 977 899 923 958 946 967 936 964 939 939 972 984 999 973 939 956 932 934 933 908 942 950 916 1014 936 984 910 1007 908 973 952 912 945 943 975 973 973 983 1021 931 946 937 953 1018 973 978 1014 943 995 1003 1015 981 966 1005 1015 1048 1014 1060 1039 1060 1033 1065 1074 1058 1002 1020 1016 1048 1043 1093 1019 1104 1076 1086 1045 1070 1043 1010 1035 1004 1075 1073 1030 1052 999 1019 1025 1039 998 1070 1032 1041 1111 1015 1039 1030 1032 980 1036 1009 913 1006 945 1008 1005 935 958 951 938 1012 974 992 967 993 984 1004 984 970 953 983 966 993 935 943 979 983 980 982 970 988 1005 991 1020 995 957 958 1015 996 1020 1071 1004 1093 1092 1035 1072 1027 1057 1046 1043 1071 1003 1072 1025 971 1006 1049 1005 977 1013 960 1041 973 978 991 986 990 993 1052 970 957 999 954 1043 1003 968 953 963 963 1016 988 942 924 998 885 927 964 946 936 961 928 917 939 962 919 952 945 956 974 962 887 915 927 933 931 910 941 895 957 999 928 934 916 977 917 905 940 912 904 935 958 974 917 975 965 931 911 969 981 891 966 902 952 905 919 947 955 973 917 941 961 961 975 937 939 944 920 935 962 914 949 982 1020 940 916 1002 909 997 955 987 921 951 977 965 902 1010 908 910 965 980 945 946 949 995 927 942 937 905 952 953 974 929 961 883 959 943 935 901 925 958 963 937 869 946 977 852 960 946 933 946 884 841 1001 921 890 892 924 897 885 956 954 926 907 910 911 961 931 911 924 926 900 923 908 900 928 917 933 918 929 885 954 884 871 954 900 916 924 887 910 927 962 933 889 940 919 904 913 902 893 894 886 919 886 908 913 917 938 910 860 954 898 876 904 877 959 941 865 908 928 895 897 938 876 879 928 895 960 945 885 874 920 934 952 932 891 842 879 861 952 902 945 923 864 942 920 886 911 870 896 949 886 916 912 890 895 848 959 918 908 863 916 930 870 896 908 893 892 825 926 872 849 907 939 880 913 893 906 948 908 898 895 893 915 954 937 872 1015 937 902 830 913 923 908 914 941 914 909 958 890 899 857 914 910 949 933 939 936 898 916 918 881 916 918 937 939 911 931 930 898 876 893 884 897 894 943 889 853 860 852 900 885 872 915 840 902 917 877 920 911 879 959 841 908 882 862 933 886 879 919 890 935 886 904 898 875 899 917 911 902 917 937 926 829 906 883 929 910 917 881 888 964 867 921 860 916 873 854 900 928 927 926 956 917 875 876 897 970 871 931 871 880 832 861 863 943 862 872 948 842 857 906 852 881 874 907 876 913 887 874 877 898 930 891 910 905 895 882 830 891 897 856 887 918 859 889 896 860 893 958 847 905 847 910 911 900 884 920 893 889 957 898 921 868 934 848 868 909 916 897 907 882 850 923 922 881 886 903 939 852 962 913 956 920 905 907 840 947 915 934 861 902 900 922 924 877 816 892 832 908 904 879 924 922 889 880 932 904 896 939 890 851 885 896 881 943 891 848 879 962 932 889 910 862 956 885 912 954 893 885 957 887 967 882 903 938 943 892 888 856 914 907 925 902 927 936 923 922 914 905 927 930 910 901 900 895 932 977 968 926 928 926 945 869 961 876 914 938 923 923 893 930 885 916 901 933 923 975 950 932 942 895 944 925 913 945 938 893 898 962 883 943 957 892 927 946 902 931 898 888 920 931 899 882 940 846 920 911 868 900 947 912 902 939 880 896 867 915 934 908 872 855 860 941 932 864 908 893 946 855 858 914 880 933 875 936 846 880 910 883 881 901 975 935 904 881 914 922 920 885 898 899 952 932 911 919 868 888 890 891 863 894 880 943 934 901 940 861 899 873 882 935 935 920 898 938 904 947 925 909 924 893 875 911 923 922 953 924 862 915 896 872 910 863 895 912 917 929 929 957 905 931 878 915 878 915 856 911 924 891 874 874 918 847 901 890 907 908 876 931 820 895 895 919 910 860 902 880 879 864 909 874 840 874 905 893 919 888 906 918 883 882 892 869 885 922 894 913 809 931 906 900 934 964 923 858 880 890 885 884 856 879 843 846 900 873 902 861 894 920 909 905 958 850 870 843 898 874 864 869 890 914 916 868 900 903 819 866 844 887 906 888 914 931 887 885 914 950 889 880 877 868 858 887 889 905 940 899 896 931 916 926 872 921 863 915 892 901 856 877 906 903 907 897 910 855 889 881 903 925 898 927 911 906 929 912 886 938 909 931 922 887 896 927 894 863 904 910 881 885 929 951 925 901 972 957 932 934 962 1040 946 938 1015 925 924 943 942 965 931 973 910 1005 941 969 929 1034 968 986 983 923 948 1003 938 948 941 882 918 972 953 909 922 931 939 932 965 921 955 942 986 955 980 1004 954 919 907 921 919 961 866 937 912 936 855 936 947 919 928 957 879 902 1012 906 906 875 902 935 957 954 881 968 899 944 905 924 891 881 887 904 917 911 851 900 918 913 890 913 942 926 895 938 999 958 930 942 941 933 952 904 1046 920 906 946 990 983 948 982 931 957 975 1016 910 1003 987 923 895 930 972 908 924 965 959 906 1011 910 918 943 948 936 936 917 913 923 923 937 960 891 860 906 920 962 955 912 866 938 917 916 871 904 924 913 880 880 866 893 887 967 944 892 880 879 877 900 849 929 923 884 867 913 878 859 918 828 866 885 878 906 881 829 959 936 890 891 890 903 903 940 944 845 839 920 919 929 888 931 807 947 905 870 887 921 938 914 857 950 871 876 913 977 878 828 945 895 827 871 870 927 904 954 913 936 882 900 905 884 846 900 899 881 843 897 919 869 873 919 881 880 852 878 884 921 877 918 871 869 903 874 878 904 886 835 915 925 918 874 864 826 853 909 936 891 917 884 906 869 868 841 942 894 896 842 878 932 868 934 843 909 915 890 839 917 863 885 910 923 893 845 860 902 908 877 897 926 870 891 897 898 942 910 942 854 861 884 915 871 868 896 878 859 937 835 873 855 909 884 907 843 893 830 884 842 889 904 900 871 858 879 850 834 847 894 841 904 909 895 874 896 844 889 829 860 847 886 854 884 896 856 934 875 850 933 927 826 866 869 891 893 842 861 822 874 872 829 876 855 857 925 897 896 844 872 823 876 865 869 835 848 843 859 894 868 863 866 861 863 879 875 865 845 843 801 855 822 887 813 872 891 880 910 866 889 838 935 883 828 830 839 862 905 896 886 896 842 951 875 871 842 831 865 890 906 939 913 890 851 869 901 892 868 904 864 881 862 893 878 835 866 870 870 898 906 874 902 853 846 876 819 938 913 845 861 918 858 863 911 852 910 908 916 897 871 878 896 857 876 893 849 867 891 887 903 840 845 876 897 860 837 881 859 858 909 867 910 908 855 814 912 863 897 871 855 847 860 875 873 924 819 889 863 857 900 865 855 887 846 863 867 873 843 918 859 838 838 905 844 855 863 929 862 900 926 886 857 844 869 899 898 912 854 912 853 903 829 907 881 850 905 879 883 825 925 904 855 873 861 855 817 830 853 897 869 844 846 835 908 846 886 834 945 896 906 867 935 850 869 865 910 861 884 848 848 846 873 856 836 837 912 840 900 921 889 901 886 902 862 860 846 923 903 864 876 877 869 830 900 826 823 872 878 892 902 866 825 910 868 879 890 895 904 924 886 906 873 854 896 918 893 824 867 916 870 887 854 841 837</counts>
			</dataPoints>
		</scan>
	</xrdMeasurement>
</xrdMeasurements>
