<?xml version="1.0"?>
<xrdMeasurements xmlns="http://www.xrdml.com/XRDMeasurement/2.3" xmlns:xsi="http://www.w3.org/2001/XMLSchema-instance" xsi:schemaLocation="http://www.xrdml.com/XRDMeasurement/2.3 http://www.xrdml.com/XRDMeasurement/2.3/XRDMeasurement.xsd" status="Completed" recordIdentifier="{171E7A13-6A87-451D-9FA4-4FC479169632}">
	<comment>
		<entry/>
	</comment>
	<sample type="To be analyzed">
		<id>GPSS_Li1p5Cr0p5Mg0p5Cl4_110625_690d9f07f040177efa2b78e7</id>
		<name></name>
		<preparedBy></preparedBy>
	</sample>
	<xrdMeasurement measurementType="Scan" status="Completed" sampleMode="Reflection">
		<usedWavelength intended="K-Alpha 1">
			<kAlpha1 unit="Angstrom">1.5405980</kAlpha1>
			<kAlpha2 unit="Angstrom">1.5444260</kAlpha2>
			<kBeta unit="Angstrom">1.3922500</kBeta>
			<ratioKAlpha2KAlpha1>0.5000</ratioKAlpha2KAlpha1>
		</usedWavelength>
		<incidentBeamPath>
			<radius unit="mm">145.00</radius>
			<xRayTube id="1010048" name="Empyrean Cu LFF HR (9430 033 7310x)">
				<tension unit="kV">40.0</tension>
				<current unit="mA">15.0</current>
				<anodeMaterial>Cu</anodeMaterial>
				<focus type="Line">
					<length unit="mm">12.0</length>
					<width unit="mm">0.4</width>
					<takeOffAngle unit="deg">6.0</takeOffAngle>
				</focus>
			</xRayTube>
			<sollerSlit id="21010002" name="Soller slits 0.04 rad.">
				<opening unit="rad">0.0400</opening>
			</sollerSlit>
			<mask id="22031000" name="Fixed mask 13 mm">
				<width unit="mm">9.00</width>
			</mask>
			<divergenceSlit id="22120001" name="Divergence slit 1°" xsi:type="fixedDivergenceSlitType">
				<distanceToSample unit="mm">50.00</distanceToSample>
				<height unit="mm">1.52</height>
			</divergenceSlit>
		</incidentBeamPath>
		<sampleMovement xsi:type="spinningSampleMovementType">
			<spinnerRevolutionTime unit="seconds">1.0</spinnerRevolutionTime>
		</sampleMovement>
		<diffractedBeamPath>
			<radius unit="mm">145.00</radius>
			<antiScatterSlit id="22090040" name="AS slit 9 mm (PIXcel)" xsi:type="fixedAntiScatterSlitType">
				<height unit="mm">9.00</height>
			</antiScatterSlit>
			<sollerSlit id="21020003" name="Large Soller slits 0.04 rad.">
				<opening unit="rad">0.0400</opening>
			</sollerSlit>
			<filter id="20030001" name="Large beta-filter Nickel">
				<material>Ni</material>
				<thickness unit="mm">0.020</thickness>
			</filter>
			<detector id="7010019" name="PIXcel1D-Medipix3 detector" xsi:type="rtmsDetectorType">
				<phd unit="keV">
					<lowerLevel>4.02</lowerLevel>
					<upperLevel>11.27</upperLevel>
				</phd>
				<mode>Scanning</mode>
				<activeLength unit="deg">5.542</activeLength>
			</detector>
		</diffractedBeamPath>
		<scan appendNumber="0" mode="Continuous" scanAxis="Gonio" status="Completed">
			<header>
				<startTimeStamp>2025-11-08T16:26:30-08:00</startTimeStamp>
				<endTimeStamp>2025-11-08T16:34:37-08:00</endTimeStamp>
				<author>
					<name>AutomatedUser</name>
				</author>
				<source>
					<applicationSoftware version="1.7b (136)">PANalytical Aeris Instrument Suite</applicationSoftware>
					<instrumentControlSoftware version="3.2.00000000 20240306">AERIS</instrumentControlSoftware>
					<instrumentID>950485</instrumentID>
				</source>
			</header>
			<dataPoints>
				<positions axis="2Theta" unit="deg">
					<startPosition>10.00943322</startPosition>
					<endPosition>99.99442286</endPosition>
				</positions>
				<positions axis="Omega" unit="deg">
					<startPosition>5.00471661</startPosition>
					<endPosition>49.99721143</endPosition>
				</positions>
				<commonCountingTime unit="seconds">12.495</commonCountingTime>
				<counts unit="counts">2807 2709 2782 2894 2764 2787 2698 2769 2796 2838 2821 2700 2672 2804 2810 2737 2761 2778 2728 2786 2766 2755 2784 2785 2813 2802 2738 2872 2798 2769 2801 2733 2813 2793 2720 2776 2765 2742 2668 2674 2760 2809 2777 2862 2754 2776 2804 2728 2775 2684 2787 2827 2782 2824 2734 2799 2830 2691 2761 2749 2839 2781 2725 2804 2861 2874 2773 2756 2766 2722 2797 2726 2796 2822 2759 2780 2842 2820 2788 2686 2864 2772 2765 2778 2794 2864 2840 2766 2741 2815 2841 2718 2797 2766 2763 2869 2860 2858 2845 2876 2796 2750 2813 2796 2731 2775 2843 2864 2848 2788 2758 2808 2736 2731 2759 2786 2778 2757 2772 2770 2836 2804 2805 2709 2792 2803 2818 2736 2770 2732 2800 2814 2809 2884 2819 2804 2715 2816 2868 2871 2770 2775 2725 2704 2714 2836 2764 2803 2865 2819 2785 2757 2757 2758 2746 2904 2804 2826 2789 2786 2799 2773 2771 2842 2713 2767 2811 2752 2719 2860 2770 2856 2778 2756 2707 2723 2781 2773 2853 2751 2745 2715 2830 2653 2770 2689 2729 2854 2788 2701 2782 2766 2681 2763 2737 2816 2834 2740 2750 2692 2800 2779 2699 2916 2683 2886 2720 2775 2735 2690 2799 2718 2744 2651 2662 2711 2742 2805 2734 2618 2735 2544 2724 2689 2805 2760 2750 2698 2699 2649 2734 2758 2685 2700 2679 2602 2675 2685 2688 2696 2724 2680 2709 2723 2706 2767 2653 2778 2645 2673 2740 2674 2651 2657 2770 2623 2721 2622 2647 2675 2663 2745 2665 2706 2689 2752 2676 2642 2682 2576 2639 2645 2732 2668 2752 2716 2661 2684 2654 2632 2676 2623 2658 2642 2720 2699 2818 2644 2755 2688 2744 2756 2726 2736 2670 2729 2662 2820 2662 2794 2700 2756 2659 2847 2789 2770 2764 2792 2638 2813 2818 2672 2767 2754 2682 2782 2852 2813 2748 2842 3026 2801 2856 2797 2850 2703 2868 2744 2851 2829 2707 2871 2790 2901 2860 2943 2834 2884 2918 2886 2790 2817 2897 2979 2927 2965 2923 2981 2897 2933 2874 2957 2983 3041 3087 2927 2939 2983 3012 2948 2915 3044 2998 2993 3008 2974 3001 3021 3090 3080 2995 3044 3029 3083 3209 3084 3153 3112 3074 3038 3082 2996 3132 3204 3153 3105 3062 3113 3097 3185 2975 3101 3035 3197 3110 3075 3107 3116 3065 3129 3131 3284 3105 3115 3303 3164 3246 3267 3229 3222 3232 3227 3345 3395 3332 3328 3418 3300 3379 3422 3527 3486 3354 3525 3434 3465 3472 3658 3608 3547 3600 3552 3574 3648 3644 3745 3685 3748 3817 3939 3826 3904 4053 3953 4021 4066 4144 4105 4111 4031 4269 4318 4207 4446 4395 4470 4480 4577 4556 4535 4578 4411 4554 4601 4576 4716 4598 4648 4719 4604 4759 4877 4913 4853 4831 4778 4885 4799 4879 4798 4717 4806 4723 4763 4721 4854 4735 4946 5015 4950 4989 4912 5092 5164 5214 5301 5189 5474 5448 5520 5803 5864 5800 5977 6087 5987 5819 5619 5603 5491 4995 4912 4700 4358 4184 3979 3904 3855 3670 3691 3518 3271 3295 3194 3168 3162 3052 3152 3070 3006 3003 3069 2994 2998 3064 2999 2989 2973 2969 2916 2922 2880 2917 2979 2864 2910 2894 2931 2920 2956 2864 2883 2767 2778 2746 2859 2757 2882 2904 2767 2890 2873 2927 2843 2855 2832 2869 2762 2807 2692 2736 2887 2794 2791 2790 2664 2825 2890 2865 2728 2781 2757 2761 2725 2709 2777 2780 2810 2729 2708 2812 2774 2738 2669 2687 2648 2675 2695 2786 2749 2699 2658 2763 2673 2614 2684 2770 2660 2809 2663 2664 2703 2648 2668 2809 2604 2748 2630 2582 2677 2781 2653 2706 2761 2558 2738 2747 2635 2631 2698 2714 2603 2672 2624 2673 2603 2691 2566 2624 2650 2643 2627 2700 2654 2676 2739 2711 2654 2549 2642 2679 2684 2782 2579 2765 2741 2678 2746 2752 2707 2722 2718 2838 2817 2668 2687 2665 2666 2659 2710 2674 2756 2630 2639 2713 2626 2592 2630 2622 2618 2743 2614 2729 2751 2651 2632 2662 2666 2749 2672 2758 2647 2631 2643 2669 2578 2588 2570 2616 2470 2580 2591 2652 2639 2609 2651 2628 2615 2598 2489 2619 2629 2617 2592 2636 2606 2566 2606 2636 2573 2530 2549 2531 2592 2606 2685 2588 2553 2527 2578 2518 2462 2602 2474 2581 2572 2611 2642 2552 2509 2529 2536 2495 2573 2493 2495 2617 2510 2439 2518 2523 2458 2476 2486 2500 2544 2559 2572 2642 2454 2556 2498 2441 2526 2509 2504 2521 2533 2523 2519 2396 2464 2458 2557 2454 2460 2512 2535 2555 2485 2451 2535 2438 2516 2513 2474 2484 2469 2428 2521 2463 2558 2461 2531 2453 2471 2477 2535 2467 2539 2558 2411 2407 2503 2443 2406 2409 2563 2453 2477 2533 2428 2421 2494 2370 2429 2493 2460 2381 2357 2454 2449 2550 2407 2460 2465 2430 2422 2416 2352 2480 2519 2420 2457 2488 2431 2374 2461 2420 2417 2371 2470 2480 2345 2385 2432 2451 2416 2424 2387 2372 2318 2375 2392 2404 2457 2513 2341 2383 2374 2381 2337 2300 2410 2383 2452 2412 2330 2311 2418 2469 2342 2308 2313 2389 2441 2417 2352 2403 2373 2278 2448 2290 2392 2304 2372 2327 2388 2316 2463 2459 2326 2383 2362 2365 2349 2278 2371 2243 2398 2402 2408 2311 2239 2383 2198 2292 2324 2305 2384 2304 2267 2345 2374 2426 2412 2338 2338 2327 2341 2242 2342 2289 2216 2284 2276 2254 2293 2239 2274 2275 2220 2361 2263 2322 2359 2267 2327 2278 2278 2189 2340 2350 2353 2312 2304 2212 2278 2209 2342 2205 2275 2279 2225 2240 2278 2221 2166 2266 2224 2215 2307 2237 2270 2109 2188 2210 2165 2233 2181 2255 2216 2255 2221 2253 2264 2292 2166 2206 2265 2119 2169 2211 2223 2215 2331 2222 2289 2205 2275 2169 2266 2214 2201 2183 2241 2267 2183 2140 2159 2308 2211 2112 2227 2235 2230 2296 2160 2149 2197 2221 2197 2179 2086 2214 2266 2216 2297 2196 2208 2193 2177 2142 2111 2172 2277 2156 2131 2253 2263 2177 2168 2289 2233 2230 2142 2187 2196 2171 2311 2225 2252 2195 2233 2245 2178 2251 2203 2240 2185 2263 2179 2183 2192 2153 2254 2151 2224 2253 2225 2232 2203 2372 2192 2169 2239 2293 2189 2144 2200 2212 2192 2215 2204 2131 2256 2308 2185 2236 2273 2281 2215 2146 2148 2159 2230 2179 2113 2228 2279 2238 2222 2244 2108 2218 2157 2233 2173 2184 2122 2200 2136 2226 2191 2160 2202 2258 2198 2190 2156 2168 2210 2241 2142 2119 2184 2168 2201 2080 2152 2170 2207 2160 2190 2173 2075 2176 2255 2175 2125 2133 2064 2193 2113 2198 2065 2166 2104 2124 2129 2094 2166 2138 2198 2152 2136 2132 2043 2116 2183 2058 1990 2030 2071 2047 2096 2060 2026 2087 2114 2153 2128 2105 2030 2050 1995 2038 2139 2124 2038 2038 2041 1949 2044 1995 1977 2050 2067 1990 1952 1954 1991 2065 1948 2025 2036 2038 2023 1974 1973 1869 1980 1958 2024 1965 1908 1965 1909 1924 1888 1966 1887 1890 1893 1911 1929 1888 1923 1870 1883 1856 1897 1914 1979 1879 1856 1865 1948 1855 1796 1786 1843 1773 1914 1826 1837 1778 1891 1799 1796 1739 1815 1793 1806 1817 1795 1742 1803 1770 1800 1713 1833 1779 1759 1816 1778 1802 1680 1739 1741 1651 1736 1706 1760 1777 1685 1772 1624 1738 1740 1655 1698 1645 1711 1687 1746 1680 1675 1716 1719 1799 1762 1639 1625 1623 1726 1645 1610 1683 1724 1672 1644 1638 1632 1657 1518 1594 1608 1637 1643 1655 1664 1590 1588 1652 1581 1584 1593 1560 1694 1566 1697 1661 1695 1565 1562 1588 1613 1616 1599 1569 1590 1492 1648 1542 1684 1653 1650 1578 1494 1539 1623 1552 1591 1601 1658 1499 1598 1535 1628 1519 1606 1565 1634 1521 1563 1610 1577 1593 1580 1553 1587 1452 1586 1591 1672 1512 1640 1514 1577 1620 1575 1589 1556 1602 1561 1520 1523 1572 1514 1508 1509 1534 1585 1529 1595 1515 1567 1581 1464 1575 1543 1488 1492 1625 1530 1541 1605 1565 1499 1483 1571 1482 1554 1496 1425 1519 1450 1477 1577 1534 1491 1512 1471 1540 1517 1479 1535 1489 1533 1503 1493 1569 1471 1466 1470 1542 1479 1495 1485 1535 1549 1495 1503 1536 1549 1505 1603 1512 1545 1457 1480 1527 1560 1484 1530 1513 1544 1577 1562 1513 1527 1481 1551 1569 1486 1541 1523 1479 1586 1595 1550 1542 1497 1515 1441 1531 1583 1551 1522 1491 1520 1507 1552 1544 1523 1542 1558 1519 1506 1582 1500 1506 1499 1580 1609 1438 1534 1487 1558 1576 1467 1488 1460 1521 1478 1517 1488 1497 1572 1497 1546 1471 1449 1585 1542 1538 1471 1594 1565 1531 1541 1506 1475 1527 1586 1530 1435 1513 1514 1548 1426 1531 1518 1510 1501 1552 1509 1507 1525 1523 1559 1498 1530 1489 1457 1508 1602 1469 1428 1497 1372 1435 1422 1488 1479 1453 1422 1511 1500 1482 1473 1426 1529 1489 1486 1499 1360 1456 1416 1387 1447 1435 1462 1404 1523 1430 1463 1518 1479 1499 1497 1467 1501 1422 1490 1489 1370 1388 1438 1413 1425 1455 1489 1496 1414 1314 1422 1419 1408 1375 1360 1303 1424 1326 1400 1342 1333 1349 1396 1415 1372 1401 1301 1381 1375 1401 1346 1360 1297 1306 1389 1388 1321 1283 1324 1303 1337 1287 1298 1301 1281 1257 1277 1305 1274 1239 1306 1386 1257 1350 1318 1252 1256 1272 1296 1285 1251 1278 1262 1249 1288 1241 1204 1273 1319 1241 1163 1234 1237 1211 1229 1235 1237 1218 1291 1240 1254 1240 1241 1199 1156 1207 1215 1205 1159 1213 1170 1208 1167 1221 1221 1173 1218 1255 1243 1239 1164 1128 1236 1202 1176 1181 1169 1229 1161 1188 1242 1219 1191 1213 1180 1186 1165 1195 1204 1220 1237 1214 1216 1233 1170 1208 1181 1140 1152 1255 1291 1260 1207 1321 1189 1229 1271 1246 1252 1287 1197 1261 1248 1273 1388 1299 1302 1338 1414 1343 1288 1376 1349 1411 1423 1322 1379 1382 1468 1322 1415 1337 1372 1389 1287 1331 1320 1324 1285 1276 1284 1292 1271 1255 1204 1219 1248 1191 1196 1203 1235 1190 1177 1166 1161 1204 1137 1146 1121 1099 1218 1186 1195 1128 1081 1077 1174 1167 1136 1152 1146 1092 1092 1184 1130 1217 1129 1091 1132 1092 1155 1195 1096 1139 1066 1109 1139 1093 1172 1165 1111 1143 1143 1176 1184 1205 1188 1211 1200 1282 1235 1297 1304 1365 1392 1393 1513 1497 1598 1567 1735 1825 1852 1941 2020 2124 2246 2302 2436 2459 2447 2605 2658 2800 2778 2865 3018 3142 3272 3431 3617 3672 3823 4015 4208 4256 4639 4817 5081 5311 5465 5917 6004 6192 6206 6335 6374 6472 6568 6412 6363 6045 6020 5848 5680 5462 5297 4996 4761 4788 4497 4277 4035 3920 3768 3737 3632 3409 3357 3377 3267 3307 3198 3136 3125 3076 3054 2963 2905 2827 2868 2763 2565 2525 2482 2265 2302 2220 2116 1949 1955 1838 1759 1774 1643 1545 1508 1523 1449 1398 1329 1287 1298 1223 1312 1322 1161 1233 1237 1266 1228 1267 1267 1231 1298 1241 1249 1291 1254 1294 1327 1191 1275 1287 1225 1286 1288 1325 1270 1318 1322 1333 1339 1401 1351 1495 1507 1557 1542 1624 1644 1699 1768 1673 1791 1717 1661 1749 1748 1744 1596 1580 1503 1476 1453 1297 1367 1245 1180 1207 1099 1093 1076 1091 933 967 1056 1007 969 955 909 933 901 939 944 946 943 940 965 947 947 921 926 905 879 926 890 903 882 889 911 891 929 872 925 910 902 848 877 890 882 900 874 894 884 911 846 957 839 889 860 941 915 903 909 875 917 890 874 899 839 930 891 869 900 921 942 940 901 897 934 914 906 858 911 861 877 843 855 868 867 917 868 873 819 903 881 884 819 905 857 893 891 879 909 868 892 889 811 853 850 888 923 867 895 880 843 895 820 886 866 859 852 853 897 854 830 787 900 847 826 841 835 876 861 869 832 835 860 860 885 815 808 816 786 911 849 813 829 869 825 825 790 846 838 862 827 742 840 806 780 818 822 863 824 814 836 819 827 783 801 761 836 760 827 793 823 758 834 812 800 813 771 803 824 814 746 814 786 832 796 803 826 785 773 734 789 768 753 773 731 765 754 775 765 796 750 794 785 787 804 796 801 770 795 723 828 834 828 810 793 806 864 836 796 774 878 881 821 814 827 789 832 828 815 805 838 783 828 809 813 845 868 838 878 854 826 853 835 822 826 900 815 862 841 827 914 874 899 839 784 802 858 852 854 925 857 900 924 932 846 957 920 941 963 1013 981 1031 998 1026 984 1032 1114 1137 1131 1175 1188 1208 1214 1390 1350 1405 1505 1520 1536 1668 1730 1834 1906 1958 2094 2255 2334 2311 2658 2574 2768 2836 2900 2922 3153 3218 3329 3466 3597 3769 3766 3979 4222 4405 4428 4691 4834 5020 5114 5425 5562 5719 5824 6005 6131 6301 6323 6334 6183 6245 6220 5978 5896 5828 5745 5529 5287 5149 4942 4738 4465 4174 4140 4129 3839 3668 3612 3565 3374 3279 3381 3312 3351 3378 3222 3162 3146 3135 3096 3144 3006 2966 2956 2830 2716 2768 2610 2513 2540 2358 2265 2132 2028 1880 1836 1728 1751 1605 1557 1505 1458 1379 1341 1304 1231 1208 1163 1143 1111 1111 1115 1057 1035 1065 964 967 940 903 981 916 1001 945 914 946 940 921 858 892 864 908 900 899 886 867 895 887 866 965 857 897 837 868 874 851 847 829 851 904 838 932 930 905 853 810 851 837 835 864 855 872 825 912 854 859 863 823 868 925 902 871 880 871 889 890 918 905 869 880 867 899 899 901 884 841 906 906 888 938 869 842 989 902 971 900 869 961 960 967 952 961 973 956 990 931 978 995 993 958 970 974 1006 987 1003 1015 995 910 1029 991 1008 1064 992 1001 1033 1007 1016 963 1025 982 1035 1014 972 1013 971 967 956 962 974 923 946 898 919 918 858 875 908 859 808 879 843 864 778 765 754 793 806 822 756 821 781 791 799 731 778 724 736 755 807 719 734 749 759 770 709 743 771 697 739 683 743 711 730 651 760 713 696 724 689 681 659 702 717 674 728 669 737 722 719 674 743 653 660 677 699 677 662 696 657 640 710 669 653 669 652 642 683 679 674 633 691 724 653 681 594 616 659 647 684 657 612 651 662 668 646 671 656 602 657 655 697 654 678 676 587 683 631 629 640 663 666 645 651 595 648 646 620 648 707 635 649 645 623 622 620 599 608 625 634 590 664 642 617 638 609 620 650 596 649 589 557 560 631 610 615 615 636 578 649 598 608 583 621 578 607 615 610 578 602 612 611 597 573 560 586 563 564 614 592 592 604 584 579 605 643 587 639 593 604 610 609 549 573 648 614 643 622 567 627 648 585 615 614 562 607 581 597 622 589 574 562 639 556 550 580 595 603 553 600 564 588 563 535 563 662 592 547 569 573 640 586 586 584 550 540 547 589 599 607 590 573 549 582 633 575 616 565 608 556 631 581 605 589 510 589 579 585 561 607 587 582 562 545 563 548 550 603 624 565 537 565 618 565 555 584 566 567 545 620 563 548 571 622 526 563 560 545 581 551 589 633 546 588 580 579 520 563 578 579 560 542 602 562 587 583 557 577 628 593 538 578 583 569 621 583 598 578 566 558 612 557 551 564 551 573 559 583 594 558 578 550 570 552 603 562 589 595 579 569 561 558 593 557 582 575 548 592 548 576 590 554 563 539 528 550 554 562 614 582 572 595 588 598 591 598 553 591 535 564 527 546 553 555 546 574 600 580 532 600 583 567 555 576 564 576 541 556 585 583 528 575 572 584 598 603 541 542 576 571 582 610 527 580 598 574 580 589 603 577 536 573 563 573 552 555 546 550 540 538 557 554 578 559 594 534 518 541 547 528 577 538 557 524 531 567 553 599 539 534 567 540 539 556 510 550 565 521 559 533 493 582 551 541 524 529 534 561 521 542 579 532 566 535 542 565 511 558 508 570 523 552 591 539 523 530 534 511 524 537 507 524 550 563 528 544 533 497 498 553 553 514 551 504 518 553 534 514 543 540 496 528 528 569 508 506 525 557 529 512 529 547 534 498 488 510 512 561 551 527 559 529 515 508 543 515 540 541 541 514 601 547 515 536 513 509 523 502 512 551 498 529 523 523 557 512 531 519 555 576 503 531 519 499 503 520 519 538 517 533 587 498 545 549 528 541 513 550 530 551 556 571 571 555 541 536 494 546 530 550 510 503 499 514 553 531 515 528 551 544 534 516 473 501 507 504 525 521 498 535 496 525 480 526 497 519 537 554 564 547 521 516 552 517 553 491 483 544 513 494 516 491 514 513 533 486 492 517 526 524 526 494 481 485 527 547 474 508 511 507 491 508 498 495 535 488 491 552 473 521 515 523 535 512 492 534 496 475 505 548 522 494 440 498 510 491 518 496 496 526 488 509 530 499 494 501 506 492 507 512 504 494 486 506 501 533 475 544 495 466 529 500 478 496 476 492 540 500 527 529 481 496 533 518 544 537 503 497 487 527 527 518 483 527 503 489 498 475 503 505 523 508 483 513 510 513 503 498 474 496 498 510 495 500 502 524 517 498 550 505 556 519 520 507 481 508 487 508 490 534 501 468 504 505 494 517 530 517 525 511 520 532 496 522 529 546 547 532 503 575 569 544 587 570 571 570 556 561 552 618 539 586 610 567 612 640 615 701 664 645 652 711 695 713 713 702 744 777 707 737 721 786 806 837 852 828 832 839 908 855 890 869 884 892 867 894 807 908 804 782 824 752 783 790 733 712 762 723 716 677 673 689 626 669 592 643 609 619 574 641 570 518 574 598 590 561 589 571 571 610 571 596 581 608 544 535 599 514 551 603 571 592 557 530 565 589 534 591 540 540 537 514 557 537 528 536 526 520 522 519 529 536 508 538 503 480 529 520 503 565 464 573 507 508 490 531 532 494 524 540 497 504 471 485 483 492 469 505 488 503 475 497 517 494 443 500 519 545 486 495 496 557 464 509 502 516 479 527 516 551 498 483 490 515 481 490 510 454 543 472 495 481 530 508 571 518 507 534 546 551 489 540 554 527 526 497 482 537 500 567 512 514 498 546 477 524 523 567 554 496 537 522 546 496 470 532 535 515 510 535 511 581 497 494 583 543 494 522 526 534 521 534 549 541 550 489 564 533 516 535 536 576 537 475 511 500 537 567 540 544 485 551 511 537 495 526 543 551 562 549 576 514 565 574 575 510 581 489 511 532 568 523 490 475 499 559 535 522 533 481 547 519 558 533 522 615 513 495 554 500 525 531 519 520 518 487 496 511 486 554 531 485 522 526 501 491 514 460 500 495 527 507 521 493 483 491 492 493 527 445 473 536 469 500 458 478 505 528 462 509 475 493 451 510 515 500 483 488 546 483 508 473 504 507 484 480 475 548 477 545 503 478 487 504 548 500 491 506 513 505 517 484 495 490 545 521 557 483 487 529 507 509 534 518 531 487 530 501 509 491 543 536 530 508 542 490 500 548 554 530 572 586 621 578 622 588 613 615 634 626 706 661 707 675 677 745 829 933 846 900 930 974 1073 1122 1117 1192 1222 1279 1374 1349 1420 1524 1506 1641 1735 1746 1927 1905 1877 2056 2182 2251 2352 2381 2421 2475 2591 2672 2701 2683 2702 2825 2752 2737 2837 2820 2746 2770 2757 2701 2655 2431 2433 2204 2181 2128 2087 2067 1969 1859 1808 1702 1629 1530 1548 1508 1421 1321 1345 1243 1360 1260 1335 1279 1246 1270 1218 1259 1213 1215 1208 1318 1168 1252 1273 1255 1259 1246 1288 1322 1242 1307 1293 1294 1233 1226 1194 1211 1191 1191 1114 1085 1124 1105 1048 1072 969 978 972 950 951 872 868 873 801 792 793 783 747 734 698 737 630 697 619 648 646 616 604 606 596 658 572 588 552 560 547 580 566 555 529 567 512 544 544 493 562 520 560 484 544 525 521 461 524 543 469 522 481 484 483 521 475 519 484 467 507 487 500 511 482 469 528 514 511 470 507 462 491 476 469 477 484 467 479 486 465 497 471 449 496 516 489 456 491 497 472 501 458 520 466 460 497 464 456 494 473 490 479 485 521 503 539 515 525 499 461 507 515 497 486 485 512 512 494 508 479 478 525 491 523 516 528 487 502 509 537 539 541 525 574 585 593 599 616 619 620 663 609 615 638 612 672 630 652 638 664 688 682 718 697 709 773 747 782 736 795 805 821 752 827 788 797 778 815 761 825 761 754 763 714 811 751 734 675 756 695 713 703 656 622 606 620 621 642 620 629 641 594 538 622 567 569 566 563 564 530 527 542 548 559 574 581 545 566 557 541 555 520 590 549 532 549 559 566 551 559 538 565 558 551 515 557 536 536 534 504 519 533 539 555 495 519 517 535 505 531 511 519 518 540 535 522 563 563 583 558 583 591 577 590 574 629 579 624 645 597 675 625 707 642 649 707 668 650 653 651 707 728 679 688 708 705 641 649 646 655 623 651 637 621 623 623 595 574 613 607 583 624 565 553 575 505 522 528 491 510 497 463 478 487 433 468 475 468 425 453 476 445 460 472 450 450 466 446 422 433 452 431 415 449 439 425 406 436 410 403 459 450 455 443 472 509 453 442 452 396 452 446 413 428 431 450 441 439 405 445 435 408 479 399 378 450 409 385 435 402 428 397 434 373 435 393 408 416 437 383 449 419 415 400 410 439 428 406 399 417 444 376 426 434 390 377 441 386 402 385 401 419 407 406 424 409 475 405 448 409 408 377 417 389 423 359 411 363 399 432 381 411 408 471 418 446 383 396 410 452 432 393 407 372 392 407 422 415 384 410 411 418 409 438 415 422 419 383 445 397 416 409 439 404 371 424 400 419 440 422 407 417 386 416 404 382 431 439 408 392 385 380 422 445 413 406 401 427 387 424 418 407 488 368 414 416 412 396 411 404 445 458 453 433 459 452 440 463 451 470 463 436 471 442 462 481 434 461 486 478 490 455 450 413 437 454 450 429 459 422 499 427 430 473 457 432 411 443 371 429 419 410 414 428 420 447 431 392 399 428 426 409 382 412 409 431 420 372 417 375 389 407 413 371 366 428 367 373 405 357 364 382 386 405 406 356 411 399 390 428 356 375 401 399 425 401 345 428 385 388 374 367 407 364 411 375 378 367 385 383 373 378 402 368 413 405 362 408 381 373 400 378 380 382 362 370 395 363 369 407 385 393 379 388 407 371 406 391 390 391 399 394 382 380 360 373 391 391 369 380 374 389 400 395 356 391 379 381 380 376 355 371 383 382 360 345 372 392 349 372 382 397 412 381 389 349 397 376 366 386 361 383 417 362 421 364 370 407 367 368 385 392 377 411 371 392 349 346 402 384 397 355 387 385 368 362 399 381 396 386 424 384 391 377 393 397 384 368 386 384 360 364 405 366 385 400 361 390 379 398 366 370 359 383 381 390 425 434 400 382 389 366 389 378 407 437 407 382 442 428 424 414 448 393 409 368 413 426 405 402 440 401 406 436 416 409 452 426 432 404 445 437 443 437 420 425 461 450 441 444 447 446 450 477 502 521 550 530 535 580 533 586 621 617 582 651 611 682 689 729 722 744 772 781 808 798 835 855 825 913 955 959 914 1037 1059 946 1040 1101 1034 1044 1061 1060 1096 1093 1099 1081 1130 1038 1070 1027 934 1027 985 935 934 926 876 842 864 817 814 802 809 723 749 698 714 690 676 622 609 629 657 646 652 604 616 580 622 639 625 618 631 627 716 689 651 712 689 742 706 716 730 710 760 765 721 699 706 701 771 697 714 739 665 729 699 688 697 703 692 701 683 656 689 658 657 634 648 614 619 625 621 589 563 552 546 513 524 487 502 461 457 462 449 440 447 433 442 444 428 438 400 406 408 403 445 397 403 417 458 390 385 410 411 392 383 361 434 410 436 373 373 379 371 374 381 364 398 384 392 401 376 443 436 355 407 373 447 367 421 420 402 393 361 373 381 381 357 361 421 406 410 383 389 405 372 391 379 340 380 342 369 369 367 390 357 365 360 364 380 380 352 405 352 368 404 360 369 371 376 401 388 378 381 382 373 377 385 367 381 433 364 391 344 390 353 398 391 387 398 364 400 402 367 422 364 402 388 396 364 386 400 391 407 398 406 435 385 416 370 374 390 427 445 428 414 436 471 442 476 510 463 502 501 479 520 505 546 557 539 536 538 588 640 619 633 660 699 691 699 756 771 804 783 835 899 800 875 905 912 1002 995 1032 1015 1024 1050 1069 1085 1046 1035 1090 1079 1072 1004 1040 985 953 948 907 893 852 827 943 796 796 796 754 743 768 685 729 664 681 647 597 579 561 584 555 525 561 560 527 503 560 511 469 500 533 547 535 534 568 584 542 548 596 597 562 595 517 576 581 583 572 652 653 601 609 630 582 591 601 623 610 579 592 580 545 618 606 603 584 540 571 508 530 503 559 526 518 492 494 533 513 533 478 498 454 451 467 468 461 473 434 425 492 466 427 445 439 442 410 438 377 398 410 356 404 423 406 407 376 405 395 419 378 365 401 421 381 386 397 388 402 386 386 423 385 401 410 369 390 391 358 395 342 376 390 375 384 389 364 377 378 366 420 407 387 451 392 364 375 379 379 418 352 395 384 377 382 382 379 404 376 400 427 410 407 447 397 449 428 451 464 435 463 415 481 528 479 471 512 494 509 522 525 542 528 542 541 504 578 533 556 595 610 642 641 652 647 644 666 640 639 587 619 611 660 661 733 727 805 869 885 807 937 941 969 972 1010 995 1026 954 924 897 880 874 780 832 792 739 713 751 711 720 747 697 701 632 702 567 663 595 582 528 510 481 489 498 467 464 439 421 406 431 422 467 386 389 364 390 385 377 406 393 423 395 436 412 379 352 418 358 422 381 364 388 356 416 390 338 375 363 393 350 385 376 371 349 336 362 384 391 352 389 378 384 342 388 370 340 362 351 352 400 367 400 352 380 354 343 376 367 381 392 334 372 372 408 369 380 361 374 369 342 350 359 417 352 363 354 395 380 354 367 380 335 346 384 335 359 390 361 340 352 371 361 335 345 392 355 400 360 365 346 337 362 343 352 381 374 301 354 362 385 384 337 346 341 345 379 362 355 388 391 354 373 374 363 369 332 398 371 343 366 371 363 336 370 356 378 379 355 374 359 376 354 353 381 408 354 406 407 403 397 377 391 358 387 327 399 377 377 342 383 343 385 347 371 369 336 429 349 369 402 371 391 367 350 344 395 364 360 381 391 371 384 361 363 327 383 348 354 331 396 378 345 350 382 380 351 381 390 362 385 385 418 357 391 372 392 377 364 399 388 433 380 396 421 424 414 422 470 476 449 518 487 485 465 443 429 416 393 419 393 394 415 387 461 421 403 422 422 430 421 451 418 392 422 401 397 361 346 370 370 362 343 339 332 328 365 359 354 378 384 317 354 355 366 381 352 355 362 350 314 304 338 366 326 327 335 327 343 338 359 343 370 348 332 355 319 332 354 343 335 309 331 304 332 353 333 354 328 321 332 334 370 324 351 347 325 333 317 327 346 341 339 339 310 336 331 308 335 292 325 320 324 326 333 286 362 328 352 292 330 296 309 305 308 314 342 336 349 315 327 321 327 297 292 308 312 324 308 368 340 289 304 330 313 342 265 332 340 326 357 336 356 310 335 319 340 332 277 281 308 311 300 296 336 309 341 315 328 293 319 325 351 315 327 310 326 344 329 321 347 295 329 334 355 332 336 316 326 299 347 324 330 332 322 309 321 312 329 316 321 335 371 316 347 353 347 332 345 343 342 353 345 352 343 353 332 376 391 382 395 384 385 393 406 371 408 376 375 363 393 376 352 406 386 379 392 367 378 359 372 401 395 382 364 378 365 383 353 325 364 337 360 339 320 328 331 303 311 319 288 341 294 339 302 348 306 333 346 310 323 340 329 323 300 299 314 315 312 326 344 303 297 317 325 320 345 319 286 300 308 319 301 320 380 293 321 318 292 320 304 287 270 363 281 317 312 321 312 313 301 343 321 312 321 316 301 342 292 333 316 322 302 304 334 313 285 316 321 310 319 297 320 309 288 313 293 306 295 309 297 296 278 295 351 286 287 304 302 330 314 284 312 311 334 321 297 306 300 266 316 274 262 270 322 316 296 265 292 260 297 325 308 316 271 312 283 281 307 293 319 299 288 315 308 268 282 293 293 332 325 307 302 308 302 299 315 296 283 315 315 316 315 303 288 307 323 307 324 319 271 318 342 295 300 305 295 285 272 322 282 290 287 283 308 298 299 308 313 295 292 278 295 274 312 279 264 322 321 320 306 296 289 316 292 277 306 282 291 305 284 321 283 305 306 316 323 336 295 286 293 289 324 296 292 307 306 302 302 275 309 299 321 298 301 284 319 302 329 344 331 309 343 338 340 328 311 343 301 343 333 348 314 332 360 325 345 323 356 339 339 317 375 375 354 364 333 395 320 416 378 408 419 390 423 409 449 365 453 419 438 451 427 468 491 474 499 451 503 505 499 468 530 471 556 503 511 501 502 509 541 500 491 532 441 469 496 503 492 526 458 449 455 471 435 467 425 465 456 394 410 419 428 399 429 358 391 376 389 385 370 404 391 368 384 389 383 372 369 384 395 346 369 363 355 345 387 401 386 351 358 365 376 382 356 376 379 370 402 422 360 404 403 394 384 370 354 391 372 407 410 399 408 404 391 368 411 410 381 397 381 352 372 353 407 385 347 390 385 374 356 367 305 352 342 334 349 341 361 356 346 374 322 330 330 312 338 335 349 342 336 360 360 322 378 340 338 338 326 341 302 348 296 345 314 314 351 285 346 337 338 317 327 309 324 302 289 321 319 301 311 321 299 302 290 295 309 297 295 335 342 307 316 297 358 290 300 286 312 299 279 283 314 336 281 297 285 317 323 305 301 314 326 325 307 293 326 296 342 306 286 327 314 287 319 310 317 311 309 305 320 340 327 274 338 316 299 311 317 326 310 318 306 320 318 319 316 287 293 290 291 291 308 312 275 318 336 341 299 284 291 294 266 279 317 283 300 311 294 297 283 285 312 291 324 292 278 285 314 285 292 305 280 262 283 286 315 257 283 278 314 291 314 304 272 319 311 291 292 279 302 311 308 302 291 262 320 319 298 302 266 295 314 295 272 290 314 275 284 315 289 295 277 272 318 321 279 276 291 293 270 298 288 290 288 276 273 288 279 298 281 265 276 299 287 293 286 274 309 284 335 287 318 289 265 290 288 279 294 292 296 289 288 290 324 315 312 293 282 282 320 313 288 302 275 317 269 304 301 285 312 277 282 278 293 294 256 310 245 301 298 271 309 282 312 302 283 313 276 264 276 285 282 306 284 313 263 285 295 277 302 293 278 286 299 310 298 279 307 289 295 326 291 316 292 325 286 283 248 306 309 279 306 265 319 326 293 314 285 279 280 307 300 314 320 303 321 291 279 298 292 289 295 293 292 300 259 314 286 314 297 311 292 271 283 281 269 297 299 262 340 306 309 308 329 317 293 309 307 307 295 265 323 323 303 311 288 318 315 298 287 308 332 280 357 322 332 313 299 341 322 317 290 299 292 259 302 315 330 315 283 313 321 324 305 298 304 327 340 289 305 317 275 325 315 280 319 319 276 321 302 305 332 313 312 290 281 289 258 289 280 327 300 278 327 309 287 300 299 316 288 331 316 293 279 301 343 301 302 307 323 305 307 329 270 326 328 306 278 320 294 308 272 281 270 259 332 308 315 321 286 311 267 314 290 291 310 286 313 285 309 286 305 298 299 304 314 310 289 287 297 306 317 300 289 302 286 260 281 326 263 304 314 307 331 297 298 294 285 336 299 318 268 295 286 284 268 258 295 278 287 307 313 315 314 294 310 291 294 293 301 280 325 287 295 295 349 320 323 296 310 274 268 304 276 324 327 281 296 309 315 271 292 321 308 337 343 330 334 340 300 314 282 363 333 343 338 332 359 321 316 333 319 359 361 356 339 324 363 343 376 330 316 335 372 364 354 366 376 347 335 364 363 331 376 373 355 338 357 336 365 334 336 363 375 367 375 375 367 383 405 383 385 408 396 386 402 404 416 422 401 455 436 429 455 445 462 458 419 505 489 479 511 489 495 487 481 474 472 466 465 532 470 448 515 501 499 483 510 471 472 518 470 456 419 443 446 425 454 437 435 422 386 444 402 384 375 409 355 400 416 384 406 354 349 353 356 362 364 351 322 334 360 323 364 324 352 371 345 315 325 348 330 332 352 329 349 341 362 347 357 328 364 364 354 320 354 366 359 355 358 366 379 390 386 400 399 400 350 408 424 382 421 377 429 406 373 400 412 359 371 403 401 400 401 447 409 413 419 420 381 392 380 409 394 390 379 360 392 372 398 390 352 368 363 372 355 362 363 333 366 390 350 361 376 365 367 339 341 357 348 337 360 345 365 333 345 331 337 347 345 308 325 336 317 366 319 335 326 330 313 362 317 362 318 315 327 314 304 329 349 341 356 339 328 328 330 334 344 309 344 322 309 325 333 339 356 294 345 334 345 383 372 386 410 369 354 340 358 354 381 378 380 411 377 399 378 433 414 386 379 431 415 471 460 470 464 484 489 495 512 527 541 552 582 571 599 614 582 601 621 630 647 655 731 650 710 678 737 721 697 726 755 733 725 776 742 710 756 806 706 751 723 762 772 707 686 708 706 726 720 742 721 764 742 690 677 703 709 656 654 630 586 587 611 580 576 561 528 506 472 502 490 497 485 467 507 465 492 498 479 474 467 478 452 449 420 423 455 397 398 433 369 402 434 379 422 401 417 423 416 404 391 400 416 447 443 440 459 451 458 491 464 469 418 506 484 463 422 462 459 464 481 483 486 516 472 489 485 482 467 524 493 501 493 497 486 491 477 472 460 461 435 467 458 487 478 439 444 476 423 428 436 458 457 447 419 440 401 397 399 396 395 427 374 430 380 376 368 373 379 408 361 388 349 364 392 367 395 339 401 340 392 380 350 368 348 367 349 377 321 371 354 375 362 343 358 359 361 372 357 366 333 348 358 362 370 341 366 377 348 332 348 317 344 365 351 359 323 313 318 371 372 316 367 337 359 322 299 340 327 343 305 319 345 332 332 340 352 309 344 318 319 304 295 304 360 318 320 291 307 313 306 300 327 318 296 324 290 321 305 310 303 350 314 296 308 261 292 314 307 317 338 296 280 288 301 300 336 306 315 315 281 298 305 292 300 299 311 318 315 299 344 326 347 314 307 347 297 303 303 298 344 306 298 311 328 328 268 321 280 319 271 309 286 357 303 299 292 297 316 313 323 287 317 307 292 300 305 317 327 276 293 301 343 312 307 295 302 314 300 305 293 309 308 319 324 336 305 307 322 316 292 339 277 328 302 265 300 296 333 295 328 317 338 322 299 291 330 311 306 285 331 309 318 309 297 259 310 241 351 273 298 336 298 309 307 298 274 279 293 312 301 290 314 320 280 296 276 280 306 277 299 283 312 274 290 284 306 326 318 299 331 288 303 309 339 303 270 318 285 317 331 283 317 298 347 315 296 300 269 281 316 336 330 274 287 323 316 309 316 319 349 360 308 319 298 295 312 311 274 300 346 324 329 318 307 353 341 312 355 318 316 311 326 352 354 335 362 342 339 348 311 367 325 313 345 348 325 369 339 351 369 371 337 348 353 354 359 356 396 352 405 389 380 403 407 398 366 404 371 429 401 381 359 377 380 360 405 375 364 397 382 393 400 372 366 378 327 346 370 327 374 320 366 356 385 357 344 356 377 342 343 314 314 358 350 315 347 345 327 324 350 348 326 322 308 328 318 347 326 334 336 302 323 310 316 325 320 317 278 322 309 304 318 327 286 333 298 300 286 335 323 298 302 291 264 310 292 319 310 308 289 287 345 330 304 327 334 310 305 319 309 289 313 315 299 292 308 294 332 290 303 326 326 291 317 304 318 331 297 283 284 309 322 315 278 308 316 298 309 322 273 326 298 339 307 306 322 293 333 261 310 312 346 302 312 313 315 302 307 312 359 339 361 320 327 329 349 340 369 319 320 320 320 335 337 337 322 337 384 361 350 360 331 351 360 335 383 398 357 340 374 380 309 344 365 389 340 350 366 353 353 324 355 378 369 355 343 360 294 321 322 341 346 333 316 324 325 335 362 342 312 336 344 309 362 272 340 347 324 309 282 327 312 321 298 322 332 332 313 306 327 311 305 334 344 324 339 305 326 313 303 288 313 349 319 313 332 305 302 321 277 339 325 312 312 303 332 303 308 322 301 333 315 335 324 291 321 289 296 312 291 294 341 315 305 318 334 284 321 295 296 352 314 290 314 307 281 307 340 303 325 316 295 291 296 311 317 295 308 314 332 315 310 306 284 288 315 311 282 278 273 313 281 306 322 294 281 320 302 283 301 288 311 290 328 292 289 302 292 311 294 330 300 299 294 312 319 298 301 301 320 293 305 283 279 290 285 287 284 284 302 280 300 301 309 283 326 278 301 316 279 293 287 279 323 284 322 292 307 301 323 291 311 284 306 316 327 308 316 286 283 260 310 317 281 351 304 308 326 293 345 316 306 341 310 313 349 302 308 328 320 290 336 327 326 313 297 306 321 327 339 310 319 384 358 345 320 357 352 359 374 334 359 345 395 351 352 361 404 357 392 398 388 373 408 405 457 412 440 446 420 425 433 429 443 490 462 479 499 514 514 495 514 546 507 552 535 583 579 603 570 577 586 581 561 594 634 573 587 585 602 553 596 575 594 565 545 596 536 537 561 509 511 541 540 531 534 515 516 534 492 518 497 460 455 407 492 494 440 427 430 447 414 430 405 384 426 374 419 361 382 392 384 357 337 359 368 365 353 326 385 380 344 371 346 325 389 335 343 347 369 318 347 370 344 337 354 309 345 334 348 322 381 344 374 360 360 352 363 374 331 371 346 387 386 374 405 369 375 379 361 380 359 388 387 376 412 400 369 377 366 421 363 405 403 393 448 411 386 392 382 404 399 414 437 417 402 385 432 371 434 398 443 386 440 403 412 373 416 369 376 354 387 362 378 407 394 375 410 368 381 375 401 406 347 389 372 393 349 404 354 397 351 358 335 335 373 375 371 359 358 360 353 352 310 329 344 352 307 368 326 316 353 339 306 298 311 324 343 351 343 329 317 339 337 324 339 361 319 293 334 294 320 329 330 340 331 328 293 328 274 298 311 300 289 260 331 299 287 322 304 304 337 305 297 270 341 301 304 293 325 291 320 303 343 326 310 323 334 304 281 274 250 278 298 320 302 315 288 312 340 306 314 333 284 347 319 320 325 307 315 302 327 320 288 289 330 290 294 301 340 296 302 307 318 297 295 306 326 271 319 300 308 307 305 322 308 277 309 308 337 303 299 308 316 316 337 293 335 314 313 292 306 318 305 332 309 315 309 308 297 325 346 328 298 316 305 334 322 308 295 304 305 335 305 310 298 333 296 322 287 312 316 309 325 259 310 317 291 309 312 317 299 313 284 297 316 290 284 317 331 335 300 320 296 307 304 286 304 327 326 328 324 305 304 344 325 328 337 323 313 325 321 323 310 296 291 301 284 313 300 305 320 321 318 342 302 306 332 291 320 333 354 337 315 306 334 324 357 306 324 308 323 313 292 322 303 316 297 307 339 334 323 309 355 286 351 307 321 315 307 355 321 342 357 342 351 319 361 299 379 321 389 310 319 381 374 348 318 329 370 348 349 317 367 297 340 320 346 327 334 370 361 321 327 339 318 315 322 325 350 332 350 353 328 335 305 366 357 342 338 328 336 321 379 347 332 324 315 336 332 378 341 327 302 315 374 354 308 297 312 326 327 308 329 333 342 335 325 304 321 303 355 319 313 312 317 289 322 283 323 345 296 298 323 323 312 261 313 281 309 285 276 283 315 298 287 273 317 299 295 286 296 310 301 296 331 295 286 305 301 312 340 298 303 312 324 301 317 297 305 306 304 318 304 312 318 319 318 304 334 295 312 317 316 314 309 309 310 299 278 281 317 300 326 319 320 319 322 315 272 291 334 290 314 313 299 309 333 308 332 311 312 308 329 296 313 335 327 340 317 310 311 312 314 316 322 319 325 340 321 340 341 325 341 354 335 328 323 352 365 358 332 352 342 349 389 369 358 337 361 352 378 349 361 374 354</counts>
			</dataPoints>
		</scan>
	</xrdMeasurement>
</xrdMeasurements>
