<?xml version="1.0"?>
<xrdMeasurements xmlns="http://www.xrdml.com/XRDMeasurement/2.3" xmlns:xsi="http://www.w3.org/2001/XMLSchema-instance" xsi:schemaLocation="http://www.xrdml.com/XRDMeasurement/2.3 http://www.xrdml.com/XRDMeasurement/2.3/XRDMeasurement.xsd" status="Completed" recordIdentifier="{4EC7F2F4-7F23-4860-85E3-440012A128CB}">
	<comment>
		<entry/>
	</comment>
	<sample type="To be analyzed">
		<id>GPSS_Li1p4Cr0p6Fe0p2Ta0p2Cl4_102025_68f7253b028f64128e25d08d</id>
		<name></name>
		<preparedBy></preparedBy>
	</sample>
	<xrdMeasurement measurementType="Scan" status="Completed" sampleMode="Reflection">
		<usedWavelength intended="K-Alpha 1">
			<kAlpha1 unit="Angstrom">1.5405980</kAlpha1>
			<kAlpha2 unit="Angstrom">1.5444260</kAlpha2>
			<kBeta unit="Angstrom">1.3922500</kBeta>
			<ratioKAlpha2KAlpha1>0.5000</ratioKAlpha2KAlpha1>
		</usedWavelength>
		<incidentBeamPath>
			<radius unit="mm">145.00</radius>
			<xRayTube id="1010048" name="Empyrean Cu LFF HR (9430 033 7310x)">
				<tension unit="kV">40.0</tension>
				<current unit="mA">15.0</current>
				<anodeMaterial>Cu</anodeMaterial>
				<focus type="Line">
					<length unit="mm">12.0</length>
					<width unit="mm">0.4</width>
					<takeOffAngle unit="deg">6.0</takeOffAngle>
				</focus>
			</xRayTube>
			<sollerSlit id="21010002" name="Soller slits 0.04 rad.">
				<opening unit="rad">0.0400</opening>
			</sollerSlit>
			<mask id="22031000" name="Fixed mask 13 mm">
				<width unit="mm">9.00</width>
			</mask>
			<divergenceSlit id="22120001" name="Divergence slit 1°" xsi:type="fixedDivergenceSlitType">
				<distanceToSample unit="mm">50.00</distanceToSample>
				<height unit="mm">1.52</height>
			</divergenceSlit>
		</incidentBeamPath>
		<sampleMovement xsi:type="spinningSampleMovementType">
			<spinnerRevolutionTime unit="seconds">1.0</spinnerRevolutionTime>
		</sampleMovement>
		<diffractedBeamPath>
			<radius unit="mm">145.00</radius>
			<antiScatterSlit id="22090040" name="AS slit 9 mm (PIXcel)" xsi:type="fixedAntiScatterSlitType">
				<height unit="mm">9.00</height>
			</antiScatterSlit>
			<sollerSlit id="21020003" name="Large Soller slits 0.04 rad.">
				<opening unit="rad">0.0400</opening>
			</sollerSlit>
			<filter id="20030001" name="Large beta-filter Nickel">
				<material>Ni</material>
				<thickness unit="mm">0.020</thickness>
			</filter>
			<detector id="7010019" name="PIXcel1D-Medipix3 detector" xsi:type="rtmsDetectorType">
				<phd unit="keV">
					<lowerLevel>4.02</lowerLevel>
					<upperLevel>11.27</upperLevel>
				</phd>
				<mode>Scanning</mode>
				<activeLength unit="deg">5.542</activeLength>
			</detector>
		</diffractedBeamPath>
		<scan appendNumber="0" mode="Continuous" scanAxis="Gonio" status="Completed">
			<header>
				<startTimeStamp>2025-10-26T17:03:28-07:00</startTimeStamp>
				<endTimeStamp>2025-10-26T17:11:36-07:00</endTimeStamp>
				<author>
					<name>AutomatedUser</name>
				</author>
				<source>
					<applicationSoftware version="1.7b (136)">PANalytical Aeris Instrument Suite</applicationSoftware>
					<instrumentControlSoftware version="3.2.00000000 20240306">AERIS</instrumentControlSoftware>
					<instrumentID>950485</instrumentID>
				</source>
			</header>
			<dataPoints>
				<positions axis="2Theta" unit="deg">
					<startPosition>10.00943322</startPosition>
					<endPosition>99.99442286</endPosition>
				</positions>
				<positions axis="Omega" unit="deg">
					<startPosition>5.00471661</startPosition>
					<endPosition>49.99721143</endPosition>
				</positions>
				<commonCountingTime unit="seconds">12.495</commonCountingTime>
				<counts unit="counts">2731 2719 2798 2803 2911 2776 2807 2850 2763 2786 2858 2825 2746 2783 2755 2818 2764 2843 2837 2865 2852 2733 2838 2763 2787 2836 2820 2907 2812 2754 2759 2760 2888 2732 2747 2910 2719 2720 2796 2730 2819 2871 2919 2789 2822 2848 2731 2760 2838 2903 2781 2766 2720 2827 2699 2813 2969 2790 2779 2828 2811 2820 2763 2813 2864 2798 2729 2871 2827 2885 2826 2819 2871 2779 2824 2785 2728 2823 2851 2806 2892 2748 2714 2856 2756 2821 2838 2705 2735 2825 2843 2864 2752 2853 2796 2768 2702 2783 2838 2917 2864 2765 2764 2767 2774 2972 2885 2818 2780 2752 2787 2740 2850 2800 2840 2832 2807 2830 2857 2819 2855 2711 2864 2793 2811 2848 2871 2848 2876 2876 2895 2807 2829 2897 2779 2823 2787 2842 2828 2886 2830 2771 2852 2740 2865 2761 2769 2782 2852 2816 2780 2805 2876 2892 2739 2837 2843 2888 2782 2868 2676 2775 2835 2863 2810 2877 2837 2740 2902 2771 2816 2905 2783 2776 2790 2819 2783 2815 2879 2832 2852 2793 2811 2787 2722 2864 2842 2745 2856 2836 2752 2754 2873 2851 2741 2781 2785 2833 2921 2750 2752 2770 2767 2795 2783 2834 2854 2767 2860 2813 2785 2848 2776 2788 2807 2732 2790 2830 2802 2793 2773 2729 2790 2754 2774 2793 2686 2811 2753 2743 2766 2665 2730 2701 2749 2839 2768 2769 2780 2719 2831 2790 2708 2719 2676 2807 2755 2901 2771 2666 2829 2796 2840 2747 2695 2730 2738 2670 2782 2704 2740 2725 2836 2714 2818 2753 2712 2726 2825 2754 2670 2781 2742 2705 2709 2739 2764 2735 2760 2707 2719 2913 2783 2763 2780 2768 2681 2738 2699 2789 2660 2744 2869 2860 2758 2775 2698 2714 2777 2838 2902 2769 2811 2805 2691 2837 2788 2883 2820 2734 2793 2803 2833 2886 2775 2883 2859 2842 2787 2815 2982 2939 2813 2920 2924 2902 2927 2890 2844 3009 2866 3021 2874 2871 2953 2827 2904 2897 3026 2944 2794 2944 2944 3011 2994 2905 2878 3023 3021 2953 2991 2939 3058 2976 3002 2977 3018 3090 3011 2983 3025 2891 3064 3024 3103 2960 3142 3060 3060 3058 3026 3147 3224 3120 3011 3139 3046 3131 3090 3140 3069 3167 3184 3280 3152 3189 3308 3094 3217 3286 3237 3256 3208 3205 3152 3213 3339 3262 3233 3429 3390 3319 3393 3435 3377 3440 3470 3489 3611 3525 3549 3514 3633 3588 3602 3703 3651 3705 3696 3953 3795 3888 3972 4004 4163 4093 4285 4430 4436 4541 4703 4686 4887 5166 4973 5157 5451 5542 5702 5860 5990 6134 6298 6484 6518 6722 6904 6778 6492 6673 6380 6436 6195 5880 5618 5495 5211 5012 5085 4793 4816 4529 4433 4333 4176 4230 4059 3923 4068 4030 3835 3870 3937 3810 3754 3796 3713 3794 3749 3761 3853 3698 3839 3705 3753 3734 3791 3605 3745 3651 3579 3628 3647 3529 3515 3557 3518 3560 3383 3376 3449 3280 3438 3344 3379 3231 3312 3343 3276 3329 3324 3317 3194 3283 3234 3281 3255 3180 3293 3233 3299 3151 3200 3337 3277 3243 3173 3162 3255 3240 3167 3206 3169 3185 3188 3217 3189 3130 3222 3311 3234 3250 3226 3113 3198 3191 3298 3163 3272 3147 3036 3193 3126 3181 3188 3146 3075 3108 3117 3104 3107 3074 3135 3137 3132 3081 2973 3020 3034 3135 3168 3123 3136 3135 3069 3098 3083 3065 3082 3091 3081 2977 3073 3010 3057 3083 3013 3088 3140 2973 3077 3053 3110 2929 2985 3090 3085 3061 2964 2985 3033 3085 3024 3005 2989 3024 3025 3104 2986 3026 3064 3000 3194 3000 3065 2986 2954 3025 2955 2998 3071 2957 2913 2955 2921 3016 3088 2997 3049 2975 2970 2977 3017 3067 3056 2954 2995 2987 3063 2973 2965 2981 2908 3100 3057 2960 2925 3019 2970 3024 2956 2973 3106 3090 2996 3086 2996 3049 3053 3097 3100 3192 3111 3168 3056 3225 3280 3224 3270 3303 3286 3359 3327 3351 3337 3270 3405 3534 3426 3587 3454 3541 3704 3583 3589 3557 3461 3399 3501 3462 3527 3359 3493 3271 3208 3215 3313 3283 3246 3076 3009 3133 3051 3085 3090 2987 3076 2994 3011 2949 3018 2918 2958 2911 2863 2926 2897 2914 2984 2968 2894 2958 2928 2897 3051 2836 2873 3029 2971 2919 2885 2971 2929 2811 2807 2857 2862 2833 2899 2852 2867 2834 2892 2935 2830 2806 2792 2731 2852 2854 3011 2927 2852 2872 2677 2839 2855 2813 2891 2806 2790 2834 2796 2847 2816 2932 2867 2799 2744 2820 2818 2870 2713 2784 2721 2897 2871 2833 2741 2855 2870 2860 2853 2872 2884 2756 2841 2739 2900 2735 2886 2762 2875 2740 2912 2861 2867 2756 2809 2867 2740 2849 2702 2810 2762 2810 2825 2894 2823 2787 2734 2780 2765 2797 2799 2740 2771 2660 2787 2735 2785 2752 2695 2724 2779 2742 2827 2798 2754 2817 2811 2717 2665 2729 2683 2752 2648 2748 2636 2719 2796 2764 2714 2702 2782 2805 2816 2714 2789 2747 2799 2788 2750 2672 2701 2807 2711 2603 2690 2731 2799 2725 2737 2771 2674 2683 2616 2736 2604 2775 2695 2668 2660 2744 2730 2814 2727 2723 2721 2818 2718 2738 2665 2730 2784 2730 2680 2537 2666 2674 2698 2699 2715 2653 2731 2684 2698 2754 2650 2670 2678 2732 2855 2793 2684 2735 2702 2680 2794 2711 2705 2699 2848 2743 2748 2792 2737 2855 2731 2786 2814 2838 2843 2916 2842 2817 2845 2943 2810 2881 2791 2872 2890 2726 2775 2811 2772 2707 2710 2662 2668 2695 2626 2750 2694 2684 2654 2702 2679 2655 2679 2701 2627 2610 2591 2661 2610 2632 2683 2610 2586 2553 2696 2677 2679 2574 2587 2604 2642 2716 2653 2628 2668 2561 2498 2565 2527 2488 2552 2673 2607 2552 2683 2588 2608 2561 2588 2588 2524 2563 2569 2647 2560 2538 2584 2625 2567 2646 2542 2607 2614 2613 2544 2604 2595 2610 2545 2573 2586 2641 2616 2639 2585 2549 2646 2644 2609 2482 2481 2472 2635 2585 2523 2598 2527 2494 2576 2619 2537 2552 2498 2600 2661 2536 2623 2657 2593 2641 2610 2620 2607 2588 2519 2448 2573 2557 2586 2584 2532 2506 2588 2593 2532 2470 2588 2564 2632 2518 2569 2610 2609 2575 2533 2654 2577 2578 2553 2607 2620 2501 2589 2597 2582 2605 2596 2624 2596 2554 2619 2575 2599 2589 2562 2599 2504 2650 2517 2606 2524 2473 2545 2571 2668 2614 2580 2533 2566 2629 2616 2527 2606 2560 2584 2536 2541 2620 2606 2678 2573 2598 2599 2523 2644 2580 2556 2556 2430 2484 2583 2510 2557 2495 2570 2537 2579 2543 2571 2540 2638 2629 2656 2529 2520 2539 2638 2514 2632 2553 2626 2498 2449 2654 2655 2578 2570 2542 2510 2586 2581 2545 2556 2537 2668 2580 2522 2601 2538 2516 2631 2535 2560 2651 2621 2591 2571 2625 2655 2691 2626 2567 2595 2667 2657 2735 2652 2710 2690 2667 2752 2786 2749 2782 2747 2793 2888 2882 2752 2835 2874 2883 2852 2853 2779 2757 2812 2729 2861 2768 2838 2840 2724 2770 2742 2807 2760 2797 2728 2779 2811 2663 2663 2663 2720 2640 2659 2565 2587 2583 2686 2487 2629 2432 2573 2476 2496 2564 2535 2450 2461 2433 2439 2502 2378 2434 2503 2445 2476 2398 2398 2362 2369 2423 2411 2379 2412 2401 2392 2383 2494 2374 2289 2438 2425 2309 2416 2418 2442 2407 2360 2444 2471 2533 2470 2490 2439 2439 2430 2433 2472 2493 2438 2502 2407 2410 2456 2426 2464 2423 2386 2397 2437 2361 2357 2390 2396 2422 2476 2441 2409 2410 2481 2452 2445 2490 2492 2566 2516 2546 2552 2511 2532 2607 2519 2546 2568 2448 2539 2478 2416 2364 2380 2299 2354 2208 2290 2243 2209 2229 2295 2179 2295 2229 2240 2077 2270 2161 2193 2107 2198 2121 2115 2152 2163 2092 2189 2207 2153 2237 2189 2149 2115 2134 2186 2109 2110 2046 1992 2190 2174 2061 2130 2093 2051 2064 2069 2129 2062 1990 2076 2012 2025 2014 2079 2029 1985 1994 2039 1989 1931 1989 2030 1988 2005 1967 1994 1995 1985 2067 2044 2027 1996 1993 2030 2035 1995 2043 2033 1964 1899 2013 2018 2026 2026 2006 2065 2004 2000 1991 1901 1984 1957 1922 2004 1997 2025 1955 1979 1968 2041 2015 1975 1991 2061 2008 2062 2067 1945 1887 1982 1932 1949 2030 1986 2034 1972 2010 1957 1925 2030 2024 2041 1997 1894 1946 1899 2027 1957 2023 1951 1954 1939 1984 1949 1948 1958 1988 1956 1980 1906 1949 2035 2007 1968 1970 1933 2021 1933 2015 1941 1969 2024 1962 1982 1947 2047 1962 2009 2039 2005 2024 2018 2054 2075 2018 2061 2022 1960 1961 2050 2041 2004 2065 1981 2036 2023 1988 1984 1987 2002 2011 1985 1937 2000 1993 1939 1958 1970 1958 2028 1998 1929 2039 2002 2049 1995 1987 1967 1966 2012 1960 1994 1897 2001 1930 2044 2087 2044 2009 1950 1971 2008 1952 1951 2055 2030 2035 2007 1991 1954 2041 1924 1952 2003 2056 2054 1963 1989 1929 1974 1981 2022 2058 1934 2091 2023 1972 1982 2014 2036 1870 1964 2014 2046 2053 1960 1995 1983 1921 2076 1955 2029 1990 2064 2101 1995 1991 2057 2081 2048 2012 2089 2041 2038 2118 2028 2025 2047 2096 2148 2080 2118 2153 2170 2152 2261 2095 2251 2351 2324 2275 2424 2404 2496 2446 2511 2484 2452 2488 2512 2476 2457 2383 2422 2457 2494 2277 2448 2376 2395 2373 2293 2247 2256 2265 2209 2241 2158 2102 2180 2171 2117 2063 2110 2172 2159 1967 1973 2047 1902 2071 2131 2029 2033 2036 1975 1962 1984 2002 1927 1993 1913 1924 1896 1927 1830 1984 1923 1909 1958 1963 1866 1879 1829 1866 1834 1880 1907 1956 1929 1876 1937 1955 1961 1979 1876 1901 1863 1926 1868 1888 1926 1881 1883 1933 1897 1998 1949 2004 1919 1992 2024 1977 2064 2172 2231 2164 2311 2264 2380 2411 2423 2564 2568 2575 2610 2706 2792 2684 2732 2774 2781 2843 2783 2883 2700 2758 2815 2643 2674 2643 2597 2587 2600 2597 2523 2564 2501 2482 2517 2532 2581 2560 2498 2490 2580 2661 2634 2662 2537 2779 2765 2704 2800 2698 2780 2754 2813 2838 2856 2749 2802 2713 2771 2608 2649 2636 2537 2519 2440 2336 2445 2290 2195 2276 2195 2123 2088 1979 1965 2004 1967 1945 1911 1830 1853 1872 1849 1793 1804 1851 1820 1749 1784 1850 1844 1767 1820 1837 1823 1855 1958 1872 1803 1911 1905 2005 1948 2000 2091 2023 2130 2184 2329 2288 2450 2458 2413 2544 2547 2677 2870 2840 2886 2863 3060 2956 3088 2896 3074 3006 3041 3173 3056 3021 3102 3158 3211 3276 3132 3265 3323 3347 3388 3392 3478 3588 3624 3726 3839 3665 3811 3685 3613 3525 3538 3411 3250 3256 3164 3047 2919 2700 2677 2583 2502 2418 2404 2311 2193 2175 2096 2195 2143 2103 2063 2041 2003 1978 1953 1988 1956 1942 1874 1878 1831 1812 1669 1759 1733 1702 1693 1713 1564 1654 1670 1650 1606 1576 1561 1620 1547 1558 1521 1564 1463 1474 1558 1553 1537 1510 1588 1487 1519 1484 1486 1480 1453 1486 1511 1411 1516 1411 1496 1477 1482 1473 1434 1451 1471 1467 1425 1539 1479 1514 1528 1515 1537 1504 1521 1538 1568 1548 1545 1593 1558 1492 1590 1475 1540 1489 1503 1471 1505 1403 1554 1523 1505 1452 1505 1398 1461 1453 1368 1359 1392 1438 1370 1354 1383 1441 1391 1419 1355 1453 1419 1415 1358 1391 1358 1424 1404 1410 1369 1354 1305 1374 1328 1432 1443 1463 1374 1354 1372 1379 1370 1339 1308 1427 1362 1368 1357 1424 1424 1344 1448 1321 1365 1466 1411 1365 1369 1387 1382 1323 1343 1420 1335 1405 1324 1322 1421 1357 1389 1335 1279 1371 1345 1372 1357 1390 1375 1356 1283 1311 1343 1305 1373 1328 1384 1319 1359 1324 1327 1327 1344 1412 1373 1376 1378 1369 1308 1310 1363 1349 1377 1440 1386 1420 1386 1383 1341 1450 1440 1423 1333 1381 1360 1413 1427 1390 1452 1469 1427 1375 1454 1378 1424 1466 1530 1522 1443 1575 1598 1566 1602 1555 1653 1566 1689 1669 1707 1736 1730 1833 1783 1874 1877 1839 1946 1986 2076 2119 2184 2194 2246 2325 2318 2302 2482 2486 2512 2623 2675 2694 2733 2734 2813 2877 2726 2817 2745 2766 2755 2766 2702 2781 2761 2653 2697 2768 2751 2639 2566 2611 2482 2501 2478 2519 2317 2368 2262 2272 2295 2212 2203 2239 2127 2153 2143 2022 2040 2033 1970 1936 1901 1865 1975 1864 1804 1840 1822 1834 1759 1764 1838 1806 1714 1781 1716 1687 1740 1741 1678 1715 1724 1688 1768 1702 1776 1673 1624 1678 1643 1617 1683 1699 1631 1757 1642 1668 1718 1670 1623 1687 1713 1749 1802 1786 1781 1755 1741 1749 1732 1697 1770 1673 1664 1734 1671 1723 1640 1622 1653 1544 1657 1662 1628 1629 1689 1657 1581 1646 1613 1551 1640 1598 1616 1583 1594 1630 1585 1654 1573 1566 1627 1661 1594 1631 1617 1573 1592 1615 1625 1509 1572 1622 1619 1669 1589 1630 1649 1604 1626 1620 1633 1676 1618 1666 1584 1610 1692 1648 1709 1626 1610 1716 1594 1730 1638 1656 1753 1642 1757 1742 1695 1799 1810 1702 1731 1777 1811 1785 1801 1882 1819 1903 1850 1818 1836 1861 1913 1868 2044 2010 2012 2063 2084 2110 2143 2140 2276 2277 2341 2416 2397 2535 2568 2716 2686 2754 2805 2869 2875 3006 3059 3040 3182 3144 3197 3301 3329 3361 3405 3605 3588 3639 3657 3866 3841 3965 4104 4229 4247 4416 4556 4651 4866 4868 4997 5093 5119 5263 5385 5183 5274 5118 5216 5110 4921 4932 4623 4653 4325 4218 4024 3789 3620 3500 3356 3293 3096 2947 2909 2570 2514 2487 2434 2302 2286 2162 2129 2007 1943 1895 1822 1930 1859 1810 1760 1739 1701 1713 1771 1717 1663 1634 1643 1617 1615 1594 1518 1552 1512 1531 1440 1430 1469 1392 1421 1386 1380 1346 1352 1422 1308 1350 1317 1361 1312 1306 1311 1329 1318 1347 1296 1299 1282 1272 1304 1319 1283 1234 1320 1340 1248 1365 1303 1303 1357 1382 1364 1385 1405 1387 1425 1490 1473 1395 1506 1423 1376 1421 1455 1411 1414 1356 1426 1349 1289 1378 1335 1309 1388 1315 1343 1265 1317 1345 1310 1301 1347 1356 1429 1360 1372 1336 1327 1447 1419 1313 1529 1451 1540 1443 1466 1445 1575 1480 1576 1560 1538 1582 1610 1592 1582 1551 1597 1608 1613 1630 1586 1596 1611 1623 1587 1646 1595 1601 1583 1646 1684 1607 1629 1572 1564 1622 1666 1580 1604 1591 1636 1617 1654 1636 1603 1639 1546 1648 1616 1598 1610 1627 1696 1566 1618 1628 1595 1607 1584 1586 1609 1603 1568 1571 1552 1501 1548 1573 1549 1536 1473 1484 1506 1518 1593 1539 1431 1507 1491 1562 1528 1583 1561 1552 1526 1623 1567 1508 1534 1478 1445 1510 1502 1457 1414 1434 1370 1393 1469 1445 1438 1375 1352 1372 1321 1340 1273 1220 1290 1371 1293 1309 1228 1285 1246 1263 1269 1234 1313 1262 1261 1267 1212 1259 1249 1256 1241 1290 1250 1236 1264 1199 1229 1185 1206 1168 1200 1234 1248 1265 1257 1226 1244 1212 1178 1210 1159 1165 1230 1224 1174 1189 1185 1205 1182 1206 1260 1189 1193 1179 1210 1175 1185 1165 1194 1168 1223 1233 1219 1184 1160 1132 1217 1156 1197 1195 1165 1159 1176 1182 1220 1211 1103 1131 1228 1167 1134 1182 1150 1136 1151 1109 1157 1208 1119 1149 1158 1085 1193 1160 1108 1160 1150 1124 1158 1158 1118 1200 1126 1176 1119 1163 1141 1177 1129 1141 1139 1171 1173 1144 1140 1167 1134 1130 1154 1107 1218 1135 1063 1158 1108 1070 1123 1209 1132 1234 1192 1113 1129 1160 1151 1157 1099 1168 1115 1177 1121 1116 1173 1167 1184 1153 1157 1213 1196 1254 1205 1244 1184 1166 1169 1173 1124 1171 1157 1216 1224 1210 1207 1235 1177 1165 1223 1204 1207 1223 1245 1221 1180 1202 1151 1156 1225 1142 1153 1149 1186 1240 1148 1172 1184 1174 1141 1149 1180 1080 1115 1178 1160 1172 1114 1076 1086 1112 1109 1159 1136 1141 1033 1093 1115 1025 1105 1128 1125 1165 1104 1099 1103 1165 1148 1097 1104 1055 1092 1153 1097 1105 1138 1117 1149 1073 1095 1112 1129 1170 1040 1005 1032 1064 1125 1110 1151 1104 1093 1085 1041 1105 1087 1207 1148 1191 1157 1114 1167 1140 1193 1117 1133 1106 1111 1182 1160 1132 1164 1079 1069 1194 1170 1177 1153 1170 1116 1161 1182 1179 1130 1150 1080 1091 1172 1087 1128 1166 1069 1107 1111 1068 1086 1116 1069 1156 1117 1046 1126 1066 1092 1065 1124 1078 1136 1074 1079 1090 1067 1144 1079 1035 1091 1088 1131 1082 1093 1067 1036 1109 995 1125 1048 1070 1045 1118 1008 1038 1058 1086 1047 1103 1095 1029 1012 1072 1010 1057 1085 1039 1089 1002 1093 1106 990 1113 1050 1104 1052 1159 1115 1146 1034 1074 1076 1119 1156 1136 1150 1058 1205 1134 1136 1127 1086 1132 1037 1113 1138 1091 1066 1043 1083 1086 1033 1040 1063 1078 1051 1088 1058 1128 1035 1105 1063 1095 1033 1097 1105 1068 1091 1094 1120 1089 1086 1133 1138 1092 1078 1113 1172 1107 1131 1188 1172 1183 1191 1165 1177 1156 1193 1173 1184 1221 1172 1146 1213 1192 1131 1252 1108 1113 1159 1195 1106 1042 1154 1104 1147 1071 1103 1086 1052 1077 1122 1072 1044 1099 1073 1041 1038 1108 1098 1068 1028 1136 1030 1013 1129 1111 1110 1042 1073 1037 1051 1046 1060 1067 1037 1053 1156 1103 1097 1095 1073 1084 1170 1113 1148 1133 1099 1104 1181 1188 1185 1199 1115 1182 1144 1181 1235 1205 1178 1158 1225 1214 1225 1211 1240 1216 1215 1244 1185 1253 1233 1284 1176 1261 1257 1278 1248 1220 1214 1321 1215 1283 1217 1203 1235 1170 1185 1168 1165 1177 1124 1206 1156 1174 1176 1150 1094 1128 1159 1129 1192 1158 1095 1123 1207 1161 1130 1131 1103 1143 1091 1136 1081 1161 1147 1115 1124 1075 1132 1113 1118 1146 1170 1129 1167 1080 1116 1103 1099 1164 1038 1135 1072 1115 1120 1093 1113 1054 1086 1066 1083 1036 1088 1064 1174 1075 1101 1093 1045 1096 1058 1076 1104 1069 1139 1061 1059 1038 1022 1034 1105 1039 1069 1060 1032 1064 1030 1038 1057 992 1115 1032 1109 1052 1053 1042 1050 1100 1088 1094 1040 1043 1060 1054 1044 1098 1061 1030 1098 1047 1100 1048 1029 1048 1044 1097 1060 1133 1063 1045 1020 1018 1011 1056 1025 1040 1023 1061 1132 1032 1037 1043 1046 1030 1016 1096 1039 1045 1037 1026 1067 1047 1147 1115 1095 1062 1090 1099 1072 1083 1029 1046 1031 1011 1096 1083 1092 1064 1079 1031 1100 1055 1059 1091 1132 1070 1065 1079 1048 1052 1113 1062 1086 1067 1147 1053 1128 1090 1096 1112 1106 1058 1134 1121 1046 1052 1016 1084 1104 1048 1065 1032 1035 1068 1096 1008 1101 1021 1062 1046 1120 1075 1141 1059 1122 1058 1099 1149 1069 1106 1015 1078 1043 1093 1091 1103 1113 1094 1148 1156 1064 1115 1118 1127 1128 1130 1136 1078 1152 1092 1129 1115 1088 1154 1130 1130 1128 1105 1111 1222 1104 1168 1222 1152 1205 1154 1214 1210 1246 1212 1149 1177 1276 1168 1209 1219 1250 1293 1262 1206 1291 1295 1289 1239 1290 1255 1322 1324 1327 1413 1363 1457 1407 1410 1486 1545 1440 1455 1565 1530 1451 1507 1504 1546 1544 1545 1445 1484 1549 1470 1467 1443 1370 1460 1360 1467 1390 1325 1385 1300 1316 1378 1425 1311 1311 1286 1243 1243 1222 1254 1257 1208 1206 1208 1196 1238 1235 1145 1124 1237 1209 1276 1181 1219 1173 1183 1172 1145 1161 1178 1136 1152 1127 1128 1109 1153 1200 1133 1165 1170 1130 1190 1091 1124 1120 1144 1183 1097 1065 1109 1079 1101 1089 1185 1067 1043 1139 1087 1019 1058 1086 1111 1143 1100 1122 1054 1138 1055 1094 1058 1053 1069 1032 1066 1069 1073 1060 1039 1067 1089 1027 1051 1007 1036 1030 1044 996 995 1035 1043 978 1039 1064 1062 1040 1049 1007 1033 1039 1005 1044 1037 1006 999 1089 1084 1049 1043 1061 977 1055 1085 1056 1054 1060 995 1070 1044 1074 1067 1071 1073 1000 1030 1020 1099 1033 1027 1072 1005 1057 1022 1068 1077 1060 1008 1065 1052 1063 1029 1043 1033 1018 1028 1073 1082 1104 1095 1062 1007 1068 1099 1091 1035 1085 1087 1116 1037 1068 1052 1088 1055 1137 1047 1065 1114 1139 1029 1110 1103 1080 1173 1108 1096 1134 1155 1170 1156 1173 1197 1224 1223 1240 1254 1255 1328 1426 1366 1414 1477 1493 1520 1549 1579 1639 1612 1616 1660 1683 1647 1679 1679 1669 1745 1767 1823 1786 1892 1862 1776 1891 1885 1845 1826 1836 1992 2003 1951 1926 1929 2000 2011 2091 2011 2011 2121 2067 2070 2084 2032 2124 2025 2093 2056 2042 2081 2074 2011 2023 2023 2029 1946 1960 1997 1954 1885 1977 1939 1943 1909 1954 1971 1976 1997 2064 2126 2096 2046 2081 2076 2212 2097 2104 2167 2135 2176 2136 2165 2142 2099 2148 2044 2183 2081 2000 1990 2053 1952 1905 1815 1848 1802 1890 1795 1716 1799 1694 1724 1669 1678 1650 1554 1600 1648 1600 1582 1553 1536 1475 1498 1497 1504 1486 1519 1514 1530 1438 1469 1449 1445 1360 1438 1466 1423 1433 1416 1459 1454 1489 1413 1336 1460 1489 1416 1393 1469 1414 1392 1441 1505 1490 1454 1496 1488 1483 1455 1525 1567 1558 1511 1612 1533 1564 1562 1593 1657 1567 1747 1591 1656 1634 1632 1653 1691 1649 1689 1723 1688 1640 1688 1684 1670 1640 1653 1658 1692 1628 1649 1600 1513 1704 1660 1599 1709 1693 1645 1750 1722 1824 1769 1740 1781 1806 1776 1827 1812 1886 1831 1930 1936 1871 1807 1985 1920 1974 2003 1912 1912 1869 1858 1974 1978 1861 1892 1887 1894 1764 1832 1736 1693 1678 1661 1733 1679 1582 1521 1524 1505 1470 1446 1438 1391 1457 1335 1325 1284 1345 1313 1326 1251 1254 1271 1238 1155 1219 1223 1219 1207 1224 1175 1199 1192 1149 1153 1115 1122 1156 1101 1099 1064 1106 1125 1067 1058 1156 1110 1118 1018 1082 1111 1098 1074 1091 1030 1033 1068 1043 1090 1062 1069 1047 1043 1043 1077 1078 1083 1113 1133 1057 1113 1075 1076 1119 1076 1075 1036 1112 1089 1192 1084 1120 1151 1122 1130 1162 1127 1164 1194 1192 1182 1157 1225 1222 1269 1286 1305 1328 1278 1286 1278 1282 1297 1243 1295 1381 1327 1332 1283 1273 1330 1373 1320 1313 1274 1275 1338 1318 1282 1348 1253 1278 1283 1316 1269 1275 1192 1206 1271 1276 1215 1200 1211 1223 1145 1175 1181 1190 1196 1226 1183 1195 1161 1203 1145 1127 1086 1146 1206 1103 1198 1109 1091 1147 1147 1159 1160 1168 1106 1139 1167 1225 1161 1117 1160 1183 1166 1221 1223 1110 1138 1230 1134 1179 1209 1151 1091 1187 1136 1167 1133 1215 1155 1123 1138 1123 1097 1121 1134 1110 1087 1076 1129 1097 1192 1188 1248 1121 1100 1108 1112 1087 1127 1179 1060 1071 1094 1093 1110 1117 1148 1122 1084 1121 1109 1086 1042 1097 1096 1083 1099 1078 1166 1107 1096 1074 1131 1105 1044 1073 1090 1088 1085 1084 1043 1056 1007 973 1043 976 1016 1019 1071 1004 987 983 971 1077 1027 966 968 1035 964 1022 999 1037 1030 973 980 1005 971 978 1029 1020 1037 999 1013 1064 1048 1069 1004 1063 1026 987 995 1030 1026 998 969 1052 1024 1050 1009 954 967 988 994 1005 1021 1023 996 1052 1005 945 997 965 1005 1000 1041 990 957 967 943 973 995 947 1001 1024 922 998 946 955 937 1010 924 952 949 954 957 964 1030 990 927 927 977 955 948 920 974 960 962 980 893 911 968 946 1005 962 911 981 932 978 974 928 982 967 1003 1050 1006 952 970 966 1009 1009 985 1018 948 977 984 988 1001 999 1027 1013 1011 1084 1104 1115 1111 1121 1118 1109 1082 1106 1124 1142 1091 1112 991 1076 1132 1102 1068 1155 1060 1092 1063 1021 1070 1010 1103 1067 1034 1020 980 1032 1034 930 999 997 966 989 1007 1017 1006 1034 1014 1060 1019 1019 1007 996 1003 991 1051 1049 998 1000 1015 1066 1018 1084 963 1062 1074 1093 1023 1083 1018 1046 1062 1039 1131 1143 1103 1160 1150 1169 1100 1150 1156 1166 1153 1100 1093 1149 1156 1156 1144 1176 1159 1144 1118 1189 1216 1076 1172 1166 1118 1121 1150 1132 1093 1153 1137 1130 1153 1114 1077 1156 1153 1114 1148 1067 1101 1106 1025 1139 1076 1120 1110 1131 1033 1102 1120 1071 1134 1054 1106 1110 1072 1125 1104 1138 1127 1063 984 1048 1049 1121 1108 1169 1102 1173 1160 1094 1092 1135 1160 1077 1118 1173 1128 1144 1102 1178 1157 1122 1173 1112 1125 1079 1148 1103 1117 1122 1097 1115 1119 1178 1093 1082 1092 1091 1152 1052 1169 1072 1087 1110 1088 1170 1035 1136 1088 1086 1090 1054 1051 1052 1094 1012 1073 1006 1026 1042 1054 1027 1106 1084 1008 1063 1049 1016 1056 983 1007 1028 982 1024 994 1036 967 985 980 1024 997 997 1012 1012 1042 999 958 1011 989 989 923 998 939 1048 944 925 958 953 980 969 1016 1026 1047 1006 960 945 994 959 960 1002 976 946 967 980 936 998 1021 969 1035 896 913 972 1006 945 979 920 954 974 951 956 1003 973 939 908 980 966 934 996 1046 983 872 968 957 936 941 913 961 988 898 993 939 929 994 934 920 975 968 999 930 923 1006 959 946 955 973 966 1002 960 986 920 973 930 1022 983 1005 995 1004 979 996 947 1053 1058 998 1014 1022 1091 1034 1000 962 1012 1054 1024 1066 1035 1011 997 947 989 999 1052 1043 1055 1006 985 1077 985 974 1085 1014 1039 1001 972 1050 1039 1099 1049 1065 1040 1091 1074 1015 1076 1054 1075 1058 1072 1056 1066 1115 1112 1071 1132 1093 1073 1103 1135 1091 1103 1094 1047 1060 1032 1034 1103 1027 1034 1077 1087 1071 1027 1007 1025 1042 1022 1060 1022 979 975 1029 1042 1022 1021 946 1038 970 1005 991 959 967 981 929 1007 1043 963 975 1020 962 948 1010 971 1003 999 999 991 1033 963 946 984 995 976 1093 986 1005 1000 1013 994 1066 1095 1050 1000 1070 1053 1030 1129 1077 1130 1104 1129 1084 1134 1104 1146 1088 1164 1101 1072 1207 1169 1196 1189 1148 1185 1116 1084 1125 1134 1175 1123 1111 1211 1108 1131 1106 1123 1141 1149 1085 1059 1091 1071 1125 1147 1056 1058 1122 1083 1056 1031 1059 1090 1045 1049 1070 999 1036 1032 1014 960 1046 992 953 958 1020 1013 1003 950 957 912 955 950 994 970 930 931 942 1038 978 987 969 995 928 946 1018 1003 953 946 923 922 983 970 969 890 955 949 1027 974 964 982 900 982 946 937 946 958 971 952 887 933 903 923 1012 909 913 971 977 972 1022 956 956 948 922 897 992 952 969 954 948 990 977 929 970 946 950 962 931 983 935 958 993 1037 1022 961 977 1060 986 985 1008 1115 1067 1088 1095 1070 1091 1088 1104 1122 1169 1121 1156 1176 1154 1163 1193 1169 1175 1216 1151 1209 1175 1249 1260 1129 1259 1153 1177 1198 1237 1238 1205 1164 1237 1216 1223 1212 1298 1242 1269 1191 1166 1177 1241 1183 1211 1145 1190 1160 1092 1223 1218 1196 1161 1212 1163 1194 1149 1150 1143 1137 1170 1155 1175 1201 1276 1250 1212 1209 1330 1284 1360 1277 1396 1382 1399 1469 1379 1478 1431 1541 1509 1550 1489 1419 1452 1513 1469 1441 1452 1470 1454 1353 1386 1456 1338 1373 1357 1296 1368 1304 1309 1277 1211 1211 1216 1171 1161 1064 1124 1131 1137 1115 1081 1038 1098 1069 1054 1048 1010 1048 1030 967 1028 1024 1024 973 1009 1061 995 958 955 971 969 1026 1019 1012 1028 972 995 992 987 925 929 935 982 996 939 949 1011 928 1042 962 904 935 983 1028 981 1005 967 908 966 1043 926 924 1001 954 999 1020 954 1004 938 975 943 975 977 936 965 942 964 921 1019 1001 976 1020 984 932 947 933 953 950 996 957 1015 933 1012 1026 970 953 1020 965 960 1014 984 945 965 951 1008 972 1020 945 1000 998 1047 1063 1066 1024 982 1028 1052 1085 1040 1015 999 1029 1115 1057 1023 1126 1015 1012 1021 1051 990 1022 992 1043 1020 1019 1016 1003 979 980 1037 1027 1041 959 1000 996 1015 1058 981 988 1022 1013 1041 1027 994 979 1040 982 1054 1019 1030 930 1003 972 1081 1013 948 1057 968 961 954 991 1012 979 984 1001 947 1040 982 937 966 961 1013 1012 976 956 976 993 931 968 975 996 1021 999 969 1033 964 958 1011 947 1006 971 957 988 992 1008 951 956 947 933 934 935 941 927 963 938 939 931 892 930 920 982 966 992 909 995 972 930 998 970 934 961 965 943 960 949 955 924 970 889 947 958 928 924 938 942 1001 940 963 932 1003 1000 956 969 980 981 1016 945 897 981 960 949 981 1066 952 932 1063 1017 1022 1006 1038 1020 1068 994 1013 1038 958 987 1029 949 985 986 942 1022 975 982 1017 1029 1020 1002 1057 980 1013 969 1004 1007 1003 956 946 1017 957 877 976 972 972 949 937 967 1001 968 947 964 934 901 913 953 912 1003 1022 877 905 902 973 928 987 888 922 939 933 848 957 889 915 888 908 944 900 932 903 903 913 847 911 950 898 908 900 914 897 925 940 966 867 925 907 936 949 920 943 929 964 949 885 918 906 915 953 974 887 919 919 834 914 887 874 949 912 910 874 914 905 924 931 855 906 895 857 932 883 945 939 886 860 874 871 873 903 921 863 853 823 901 914 868 957 827 928 883 905 815 903 908 884 867 865 925 980 873 906 903 840 893 919 903 855 919 914 882 923 948 929 854 904 948 909 937 877 914 883 906 875 904 840 906 929 885 899 873 959 941 903 869 850 930 881 936 940 873 913 858 876 895 884 903 894 835 885 885 884 884 867 890 899 912 898 857 868 852 884 902 864 884 828 883 840 901 820 871 939 884 919 837 923 882 918 857 877 879 858 898 847 905 861 891 867 949 861 812 899 855 904 900 860 910 883 885 912 887 891 881 865 900 896 894 858 881 858 938 839 883 913 943 868 834 907 857 907 869 912 906 919 893 864 886 879 909 924 869 939 903 822 913 888 902 885 923 895 882 863 903 891 932 949 905 926 901 900 918 969 921 957 926 952 913 890 854 993 875 945 960 1010 974 993 950 948 967 946 945 918 924 1001 995 940 940 890 971 979 910 965 942 954 976 966 944 946 994 897 958 963 955 973 927 951 967 909 976 929 973 924 934 996 937 887 850 910 967 909 945 905 885 904 1004 961 956 942 937 862 940 887 979 885 945 967 933 963 911 928 923 947 1026 913 885 840 910 910 896 917 887 938 899 900 960 915 899 917 968 974 866 937 907 907 907 927 848 908 877 851 904 970 904 935 901 929 929 908 858 924 977 884 933 922 873 923 954 924 919 950 916 924 929 921 947 922 914 944 1006 953 919 933 924 968 891 933 909 916 907 909 929 943 926 947 956 868 856 928 884 932 926 891 927 882 912 892 905 917 932 904 907 891 911 915 919 883 856 899 891 859 952 916 928 885 819 902 876 917 921 871 867 919 850 882 893 844 912 875 823 872 899 914 891 929 917 868 878 882 893 874 841 900 954 841 898 887 896 902 941 886 910 908 881 873 865 850 876 919 889 927 941 912 855 855 919 871 897 930 894 921 862 913 880 885 914 832 875 970 912 934 883 911 840 865 899 858 843 917 891 921 894 892 890 928 889 844 872 872 854 978 910 882 901 868 896 866 921 909 878 915 888 965 935 925 937 890 939 900 941 917 900 909 888 929 932 912 871 965 869 863 902 894 921 893 921 906 885 914 946 877 868 916 866 894 906 910 854 910 844 844 864 941 932 910 902 868 841 968 885 820 831 841 876 850 880 780 816 889 802 879 822 863 829 861 910 895 882 886 879 898 857 882 868 859 852 887 862 893 836 841 868 820 865 831 839 900 855 788 883 862 856 915 849 854 795 848 844 796 837 849 872 820 849 789 848 894 865 867 879 870 830 886 855 920 791 858 859 885 908 842 905 899 837 937 826 877 858 827 853 847 847 895 853 891 836 834 915 919 930 867 902 934 868 892 897 941 884 928 847 868 888 838 890 851 831 867 875 830 865 919 851 907 902 861 911 966 943 820 866 909 856 878 901 852 842 884 903 883 869 873 922 899 886 867 856 934 850 920 836 859 883 862 936 912 939 871 932 857 900 946 897 888 891 907 911 898 900 877 905 913 874 894 891 971 895 919 890 889 900 818 896 914 935 935 913 886 902 901 898 920 875 903 872 857 886 821 891 902 918 946 954 912 916 893 895 914 951 903 928 904 942 924 944 940 953 973 928 867 1051 921 948 952 1013 906 996 962 986 956 1035 999 962 970 956 1042 995 980 1016 948 1025 1013 967 1018 983 970 956 915 981 953 991 966 1009 935 947 939 964 944 948 1011 923 948 930 951 918 949 925 922 941 938 900 876 884 889 960 957 858 885 848 840 902 896 888 832 877 909 843 854 836 847 860 879 834 822 877 840 849 851 854 890 868 867 869 906 877 861 854 888 841 887 815 797 859 851 801 847 876 906 813 831 896 908 902 847 818 839 852 862 832 927 856 883 869 840 859 849 907 865 890 878 901 859 854 899 840 889 819 918 877 820 850 850 891 867 857 866 858 901 893 848 831 870 904 844 867 867 833 865 881 922 841 832 838 826 891 839 884 826 869 886 834 850 896 838 873 912 850 867 818 836 881 852 849 879 855 840 836 799 854 918 882 869 825 851 824 806 860 845 816 843 850 891 825 840 844 851 861 878 865 821 859 873 833 908 850 874 855 863 845 826 814 881 839 852 821 884 825 850 853 854 820 843 864 826 904 834 830 811 903 873 816 811 895 883 861 873 845 907 834 879 879 873 887 919 862 903 873 898 892 878 930 871 847 897 881 873 912 910 956 841 878 870 878 837 881 860 852 850 900 836 927 882 860 869 884 862 846 883 875 834 863 942 831 878 879 890 910 869 893 869 875 950 941 834 871 834 845 880 873 877 906 893 945 852 913 930 964 914 870 922 878 876 807 854 851 820 849 881 876 846 863 847 888 856 871 840 855 835 868 815 865 849 839 888 842 848 911 868 902 912 963 899 856 879 876 910 852 828 835 834 892 810 893 840 870 903 837 854 852 865 869 919 879 871 839 889 880 880 883 915 894 874 906 905 837 853 890 918 892 906 907 918 933 896 925 853 884 931 874 970 872 817 869 914 902 941 838 894 826 875 849 871 927 923 867 876 897 866 856 888 894 871 872 898 913 861 885 939 878 903 912 887 907 921 930 936 899 949 883 885 940 894 963 919 936 919 901 953 912 944 888 882 888 960 975 981 935 880 1000 930 918 934 956 932 953 1002 971 890 964 999 949 951 1002 960 954 980 975 952 938 987 954 947 964 1005 985 933 937 956 942 908 975 992 965 954 930 983 972 1025 1012 1000 965 930 979 965 967 939 964 936 952 982 929 909 951 971 989 966 931 977 964 950 878 978 927 967 975 967 952 930 963 1014 1021 931 990 986 981 996 1026 1024 1039 929 966 998 1012 989 994 1045 1022 1021 977 1055 1052 978 994 1040 1054 1005 1079 1032 972 1012 1007 1016 1026 1025 1002 992 1030 1025 1019 985 1016 989 1053 959 1035 1008 1042 982 991 1003 998 985 988 995 925 976 950 927 936 960 1018 959 1001 991 963 874 955 898 934 919 872 978 972 970 977 951 911 952 940 951 914 941 897 911 953 912 944 924 936 891 928 925 891 946 981 887 946 916 888 874 860 907 931 845 888 933 928 929 906 936 904 912 898 945 842 961 885 882 895 932 883 861 918 891 942 905 895 935 943 930 873 938 902 924 843 965 922 927 897 916 925 894 933 879 939 883 910 936 966 941 970 912 942 914 944 884 898 954 986 925 928 957 854 907 913 939 939 906 915 947 892 948 929 964 917 904 952 946 906 892 973 942 889 963 936 932 972 912 922 931 917 898 971 940 897 877 908 908 985 903 931 916 928 899 924 879 932 921 845 926 861 931 950 874 941 913 921 849 920 926 940 895 966 902 876 935 916 909 951 941 868 905 883 902 902 890 895 946 897 848 905 899 888 845 954 967 892 897 955 921 891 917 853 880 909 897 925 932 841 880 943 884 930 899 891 911 867 936 919 937 848 884 854 903 910 985 904 955 890 908 870 949 937 898 860 936 920 897 922 943 893 917 892 878 955 904 956 919 985 921 953 946 926 941 947 921 1001 911 950 953 937 908 993 913 936 956 941 1019 942 951 950 880 956 982 885 925 988 976 1026 973 982 945 1005 1027 953 992 1002 962 1004 1013 977 1009 1005 969 973 988 980 988 1030 988 1023 1042 1043 990 987 988 979 984 1034 965 1072 979 975 1002 923 993 1028 983 1000 1023 1035 996 979 1051 997 1062 1040 1000 996 956 981 1034 975 991 1031 1016 1014 995 953 999 969 1040 971 972 987 957 990 998 1003 1002 988 962 1004 1031 1016 974 1007 994 1033 1061 1056 993 971 1031 963 1017 978 978 970 1031 954 994 997 991 940 919 1047 1006 976 958 933 925 944 959 982 966 968 1006 1019 954 959 966 949 978 982 922 901 969 966 957 1007 999 951 962 948 1010 974 971 994 989 981 967 965 988 999 911 1035 1006 1007 1041 1011 995 1023 972 989 975 994 1084 960 1020 964 1013 995 973 970 1048 1070 979 961 1068 1000 1047 1024 1014 973 999 948 1008 978 1028 979 1004 981 997 964 961 1014 964 947 943 968 967 982 990 952 944 956 964 892 983 960 936 939 953 944 902 884 946 888 937 893 891 912 865 930 968 954 968 846 900 935 894 906 918 916 855 882 887 878 884 902 896 875 933 854 847 884 888 924 818 871 904 870 865 879 883 886 947 868 890 870 857 884 870 896 918 885 919 856 936 913 880 896 874 864 875 904 829 834 902 878 895 880 844 834 880 957 884 921 868 891 861 892 852 918 912 901 882 885 922 848 928 879 877 919 921 874 895 887 889 920 912 905 884 848 867 874 925 831 921 857 911 893 863 938 896 899 863 868 876 935 958 914 833 864 916 855 852 922 923 829 880 881 869 909 915 872 895 893 954 921 945 893 926 836 912 889 949 879 910 892 884 834 858 906 879 918 875 872 922 934 918 844 917 874 931 859 876 898 939 902 898 897 883 876 884 873 852 874 880 933 839 870 870 908 838 923 894 866 833 899 835 836 904 898 837 835 868 878 870 856 811 915 831 824 907 857 886 869 852 855 823 822 850 887 855 869 859 804 848 823 864 846 831 850 852 849 823 899 878 827 816 861 909 869 859 875 842 837 872 845 880 882 885 856 830 858 899 850 838 826 825 826 836 876 829 841 848 909 877 876 865 890 929 887 850 822 842 836 891 814 880 829 847 803 876 898 836 864 872 846 843 874 842 876 865 813 842 854 839 878 817 889 820 837 870 807 857 888 850 805 857 864 830 892 849 907 856 858 829 849 795 811 862 925 825 867 838 874 854 866 840 848 861 840 880 893 873 873 857 818 803 892 885 850 843 837 855 868 859 896 785 871 803 858 814 880 937 904 865 866 868 884 858 856 850 861 883 890 892 874 868 845 915 880 910 836 909 861 858 897 910 812 939 847 898 916 891 885 837 887 910 897 854 887 869 863 825 886 911 875 887 838 864 891 906 874 897 929 928 922 927 878 824 839 879 923 869 949 874 924 885 840 827 899 877 883 848 926 887 856 920 853 935 910 878 979 891 882 952 880 872 896 917 908 912 931 886 878 854 889 895 880 912 898 877 875 908 860 904 917 881 878 908 902 893 888 891 923 963 927 886 889 854 902 896 900 860 915 895 957 921 903 872 872 989 922 958 942 911 921 898 864 929 894 875 937 930 878 922 914 877 905 914 914 908 952 934 916 935 891 880 978 910 924 910 916 855 977 933 933 927 911 965 898 942 924 953 940 896 887 883 901 944 924 904 909 899 912 903 958 872 954 931 946 891 852 898 895 885 934 903 942 879 891 918 951 943 944 937 863 946 883 900 909 925 932 928 902 895 854 928 896 852 881 919 929 885 850 883 874 895 931 925 904 878 914 932 948 940 863 923 894 926 884 896 901 858 896 848 892 833 873 918 886 868 890 917 894 905 888 876 912 845 872 902 904 899 915 899 898 896 902 890 902 872 887 879 889 812 882 922 844 914 891 924 894 850 862 886 893 909 962 898 872 891 913 878 894 921 874 900 875 881 903 869 880 949 925 854 866 937 819 907 854 872 833 880 842 887 848 911 870 873 857 890 843 925 908 882 872 940 870 928 909 919 875 889 907 885 899 858 879 867 880 918 910 948 908 923 861 901 909 905 926 850 901 871 856 919 887 888 915 857 866 893 846 861 861 910 929 924 880 850 881 908 913 960 915 958 924 880 942 922 921 935 916 969 905 935 902 969 933 922 953 948 911 929 909 948 908 936 961 947 957 981 966 917 981 925 1005 947 1059 939 976 978 1030 967 951 1027 980 970 970 1017 969 982 1080 1001 1016 1010 982 942 1010 982 945 964 970 1008 1039 1044 949 943 982 989 956 950 1012 981 961 952 1023 920 981 990 958 962 981 974 1017 1031 962 1003 984 1005 987 1062 1003 985 1019 1011 1009 1037 1029 948 1002 1024 1035 1035 986 949 1048 1050 1047 1070 987 1012 1013 965 1065 1017 1021 1012 1077 999 994 992 989 1002 955 994 1044 988 994 1037 1002 969 985 1023 978 1042 942 984 972 1024 1055 971 978 958 944 1003 1009 995 924 951 949 972 942 953 962 981 911 921 986 885 952 892 895 919 906 947 969 956 892 942 879 962 906 873 884 924 892 882 889 988 912 855 915 884 935 911 941 925 920 917 910 848 932 905 926 903 864 907 880 872 871 933 887 904 877 959 869 800 857 868 902 865 917 865 959 888 853 886 907 879 881 876 890 904 833 867 827 968 832 887 900 871 834 857 848 880 910 901 890 867 921 882 841 850 917 883 857 895 859 883 816 840 879 840 866 890 868 874 872 858 811 887 856 881 847 835 936 868 893 866 868 870 828 856 887 882 894 868 926 838 875 882 911 827 931 889 918 907 924 885 851 882 833 807 834 853 862 841 862 882 904 838 835 852 877 813 861 851 873 859 962 938 869 888 906 894 833 910 905 833 884 886 904 898 868 883 778 858 843 875 872 880 886 880 893 888 870 909 853 857 856 879 888 884 843 901 839 871 898 823 798 875 872 833 866 889 816 894 846 837 839 857 894 885 866 816 893 905 860 902 881 884 834 868 881 867 872 865 851 824 839 889 868 864 812 908 798 887 863 858 851 907 823 824 853 851 944 874 899 914 842 845 892 866 871 835 859 851 809 873 785 839 838 908 913 809 804 805 861 818 847 861 811 814 862 846 864 872 840 847 817 822 830 830 888 823 926 851 843 877 852 893 868 851 844 833 855 839 861 853 861 882 837 911 880 855 838 830 850 843 834 840 835 842 819 813 801 873 836 924 873 905 852 897 881 815 856 869 851 827 791 857 839 850 850 854 823 893 855 857 858 809 882 893 809 876 850 821 888 859 850 824 853 832 807 852 812 838 862 818 851 887 913 852 875 835 833 877 845 869 896 852 838 851 816 905 843 853 849 838 828 814 871 862 867 829 872 820 810 835 846 929 858 855 860 848 852 865 866 863 820 926 912 827 824 867 849 897 848 821 870 846 909 874 834 874 847 864 840 867 847 854 800 863 899 873 866 866 882 938 900 886 819 824 854 881 817 851 896 845 825 815 894 861 822 824 863 837 855 861 804 919 829 822 835 882 893 882 876 858 828 836 839 905 846 851 858 862</counts>
			</dataPoints>
		</scan>
	</xrdMeasurement>
</xrdMeasurements>
