<?xml version="1.0"?>
<xrdMeasurements xmlns="http://www.xrdml.com/XRDMeasurement/2.3" xmlns:xsi="http://www.w3.org/2001/XMLSchema-instance" xsi:schemaLocation="http://www.xrdml.com/XRDMeasurement/2.3 http://www.xrdml.com/XRDMeasurement/2.3/XRDMeasurement.xsd" status="Completed" recordIdentifier="{4129426C-C982-4E44-AF7C-E6A3FFE52D08}">
	<comment>
		<entry/>
	</comment>
	<sample type="To be analyzed">
		<id>GPSS_Li1p5Fe0p5Y0p5Cl4_101825_68f3cc5f028f64128e25b3af</id>
		<name></name>
		<preparedBy></preparedBy>
	</sample>
	<xrdMeasurement measurementType="Scan" status="Completed" sampleMode="Reflection">
		<usedWavelength intended="K-Alpha 1">
			<kAlpha1 unit="Angstrom">1.5405980</kAlpha1>
			<kAlpha2 unit="Angstrom">1.5444260</kAlpha2>
			<kBeta unit="Angstrom">1.3922500</kBeta>
			<ratioKAlpha2KAlpha1>0.5000</ratioKAlpha2KAlpha1>
		</usedWavelength>
		<incidentBeamPath>
			<radius unit="mm">145.00</radius>
			<xRayTube id="1010048" name="Empyrean Cu LFF HR (9430 033 7310x)">
				<tension unit="kV">40.0</tension>
				<current unit="mA">15.0</current>
				<anodeMaterial>Cu</anodeMaterial>
				<focus type="Line">
					<length unit="mm">12.0</length>
					<width unit="mm">0.4</width>
					<takeOffAngle unit="deg">6.0</takeOffAngle>
				</focus>
			</xRayTube>
			<sollerSlit id="21010002" name="Soller slits 0.04 rad.">
				<opening unit="rad">0.0400</opening>
			</sollerSlit>
			<mask id="22031000" name="Fixed mask 13 mm">
				<width unit="mm">9.00</width>
			</mask>
			<divergenceSlit id="22120001" name="Divergence slit 1°" xsi:type="fixedDivergenceSlitType">
				<distanceToSample unit="mm">50.00</distanceToSample>
				<height unit="mm">1.52</height>
			</divergenceSlit>
		</incidentBeamPath>
		<sampleMovement xsi:type="spinningSampleMovementType">
			<spinnerRevolutionTime unit="seconds">1.0</spinnerRevolutionTime>
		</sampleMovement>
		<diffractedBeamPath>
			<radius unit="mm">145.00</radius>
			<antiScatterSlit id="22090040" name="AS slit 9 mm (PIXcel)" xsi:type="fixedAntiScatterSlitType">
				<height unit="mm">9.00</height>
			</antiScatterSlit>
			<sollerSlit id="21020003" name="Large Soller slits 0.04 rad.">
				<opening unit="rad">0.0400</opening>
			</sollerSlit>
			<filter id="20030001" name="Large beta-filter Nickel">
				<material>Ni</material>
				<thickness unit="mm">0.020</thickness>
			</filter>
			<detector id="7010019" name="PIXcel1D-Medipix3 detector" xsi:type="rtmsDetectorType">
				<phd unit="keV">
					<lowerLevel>4.02</lowerLevel>
					<upperLevel>11.27</upperLevel>
				</phd>
				<mode>Scanning</mode>
				<activeLength unit="deg">5.542</activeLength>
			</detector>
		</diffractedBeamPath>
		<scan appendNumber="0" mode="Continuous" scanAxis="Gonio" status="Completed">
			<header>
				<startTimeStamp>2025-10-21T11:00:54-07:00</startTimeStamp>
				<endTimeStamp>2025-10-21T11:09:01-07:00</endTimeStamp>
				<author>
					<name>AutomatedUser</name>
				</author>
				<source>
					<applicationSoftware version="1.7b (136)">PANalytical Aeris Instrument Suite</applicationSoftware>
					<instrumentControlSoftware version="3.2.00000000 20240306">AERIS</instrumentControlSoftware>
					<instrumentID>950485</instrumentID>
				</source>
			</header>
			<dataPoints>
				<positions axis="2Theta" unit="deg">
					<startPosition>10.00943322</startPosition>
					<endPosition>99.99442286</endPosition>
				</positions>
				<positions axis="Omega" unit="deg">
					<startPosition>5.00471661</startPosition>
					<endPosition>49.99721143</endPosition>
				</positions>
				<commonCountingTime unit="seconds">12.495</commonCountingTime>
				<counts unit="counts">3036 3051 3034 3002 3066 3082 2983 3022 2979 2976 3033 3100 2930 2946 2899 2977 2943 3032 2928 2995 2979 2944 3048 2942 3059 3062 3045 2947 2916 2784 2993 2967 2877 3032 2941 2908 2943 3018 3042 2970 2925 3032 3010 3003 3075 2926 3078 3067 3001 3060 3045 2955 2983 2910 2992 3011 3048 3068 2956 3067 2901 2882 2985 2974 3032 2948 3047 2965 2913 3020 2948 2959 2961 2939 3033 3039 2984 2991 2927 2922 2972 3022 3027 2984 2956 3144 2953 3001 2931 3046 3003 3033 2841 2968 2971 2854 3016 2922 2994 2865 3068 3062 3013 3018 2938 2972 2988 3009 2909 3049 2917 2943 3080 2886 2989 2923 2936 2978 2912 2939 3045 3045 2849 2978 2888 3005 2968 2979 2975 2967 3042 3009 3052 2987 2969 3035 2960 2945 2898 2996 2970 2964 2943 2944 2891 3002 2969 2994 3023 3013 3036 3042 3067 3093 3017 2912 2990 3079 3036 3073 2968 3014 2990 3081 3029 3084 3071 2865 3102 2960 2946 3052 2975 2927 2907 2974 2928 3101 3001 3005 2981 3011 2984 2907 2963 2846 2950 2981 3023 3014 2953 2990 2921 3011 3112 3065 2954 3001 2866 2933 3010 2968 2943 2830 2970 3055 3013 2996 2919 2952 3051 2945 3080 3030 3008 2956 3031 2911 3004 3010 2893 2994 2969 2997 3002 3015 2946 3084 2949 3038 2956 3062 3024 3003 3041 3024 3015 2979 2962 3012 2895 3021 3036 2948 3029 3033 3060 2945 3104 3008 3138 3048 3076 3076 3030 3081 3068 3024 2944 2987 3041 2988 3010 2996 2985 2873 2994 2853 3047 3041 3014 2937 3087 3024 2947 3019 2999 3074 3051 2971 3111 2846 3015 3046 3087 3045 3035 2977 2992 3042 3017 3132 3082 3003 3137 3097 3000 3058 3095 2945 3046 3060 3198 3062 3121 2979 3022 3147 3036 3161 3115 3109 3064 3105 3218 3232 3021 3136 3177 3112 3165 3255 3204 3193 3122 3213 3186 3223 3180 3172 3284 3309 3218 3338 3317 3321 3419 3273 3336 3399 3384 3336 3359 3311 3260 3264 3276 3385 3414 3386 3346 3423 3361 3376 3396 3354 3399 3473 3413 3543 3505 3400 3487 3401 3579 3439 3402 3510 3498 3364 3444 3572 3590 3563 3684 3520 3602 3479 3747 3522 3521 3510 3646 3570 3653 3567 3578 3577 3635 3586 3741 3677 3593 3572 3708 3581 3626 3690 3731 3705 3676 3775 3831 3733 3750 3709 3693 3800 3639 3688 3834 3822 3885 3827 3817 3822 3825 3757 3709 3842 3893 3888 3866 3945 3959 3951 4011 4057 3989 4027 4195 4103 4027 4169 4201 4191 4171 4349 4328 4414 4382 4351 4441 4374 4546 4515 4474 4570 4604 4638 4769 4785 4761 5020 4963 4932 4984 5095 5180 5025 5061 5159 5092 5095 4979 5199 5072 5105 4952 4929 4955 4887 4952 4965 4811 4867 4992 4893 4804 4879 4851 4969 4981 4894 4930 4951 4844 4864 4785 4919 4932 4808 4956 4701 4858 4682 4773 4764 4620 4709 4604 4463 4547 4442 4426 4314 4367 4302 4163 4302 4199 4181 4234 4078 4214 4176 4172 4159 4105 4056 4168 4063 4055 4071 4130 4118 4082 4243 4205 4124 4170 4032 4206 4123 4229 4321 4300 4198 4423 4369 4498 4481 4603 4609 4741 4772 4892 4795 5033 4907 5092 5109 5170 5355 5279 5371 5201 5233 5042 5049 4970 4932 4809 4641 4645 4503 4317 4420 4300 4235 4195 4132 4025 4112 4095 4071 3891 4047 3937 4180 3940 3921 4026 3837 3695 3888 3680 3690 3635 3561 3543 3457 3398 3381 3492 3506 3444 3615 3495 3496 3567 3466 3491 3494 3457 3384 3465 3461 3394 3516 3528 3443 3602 3501 3330 3463 3383 3507 3456 3535 3434 3467 3407 3383 3496 3436 3369 3286 3409 3380 3437 3434 3471 3463 3325 3344 3533 3464 3372 3317 3477 3423 3544 3465 3390 3548 3531 3499 3553 3443 3479 3491 3458 3584 3579 3583 3495 3543 3654 3619 3759 3520 3676 3705 3760 3797 3923 3811 3958 4073 4086 4121 4179 4126 4140 4394 4477 4541 4552 4734 4835 4995 5120 5124 5434 5544 5502 5581 5704 5754 5733 5752 5785 5809 5688 5592 5525 5431 5313 5042 4905 4905 4714 4559 4586 4372 4314 4260 4262 4149 4226 4068 4059 4166 3935 4028 4106 3985 3941 3965 3793 3749 3728 3513 3530 3477 3521 3473 3402 3295 3367 3417 3383 3377 3265 3373 3453 3388 3259 3313 3249 3233 3265 3307 3331 3408 3274 3336 3352 3285 3305 3271 3201 3252 3326 3368 3340 3298 3274 3262 3298 3220 3332 3286 3329 3270 3345 3241 3221 3301 3290 3299 3240 3227 3281 3244 3301 3217 3304 3342 3251 3358 3246 3203 3251 3258 3188 3153 3295 3415 3186 3280 3274 3176 3145 3294 3210 3191 3278 3299 3183 3286 3236 3312 3244 3206 3277 3286 3192 3202 3264 3283 3272 3150 3186 3246 3216 3326 3240 3239 3292 3173 3248 3190 3092 3261 3153 3369 3200 3242 3203 3235 3157 3187 3331 3194 3247 3175 3161 3208 3112 3190 3141 3190 3291 3315 3149 3234 3172 3196 3204 3187 3137 3136 3266 3171 3255 3142 3168 3205 3227 3209 3196 3173 3170 3180 3063 3178 3213 3188 3136 3160 3159 3241 3181 3116 3111 3159 3115 3293 3086 3140 3124 3037 3162 3141 3130 3058 3013 3104 3119 3125 3168 3101 3191 3121 3178 3051 3083 3011 3196 3158 3111 3104 3139 3140 3153 2989 3137 3124 3071 3106 3032 3119 3107 3140 3155 3011 3153 3083 3151 3054 3087 3065 3115 3024 3110 2962 3064 3117 3045 2993 3117 3137 3085 3004 3065 3089 2997 3061 2983 3108 3094 2999 3040 2977 3002 3054 3037 2999 3049 3017 3045 3065 2979 3044 3000 3054 2897 3063 2974 2985 3052 3071 3055 3129 2891 3082 3102 3061 3045 2944 2986 3003 3023 2931 3015 3005 3115 3126 2991 3070 3110 3046 3056 3060 3058 2954 2972 3025 2980 3062 2997 3079 3018 2871 3155 2981 3001 3016 3019 3006 3030 3032 2924 2989 3025 2925 3031 2990 3048 2879 3042 2897 2962 2929 3091 2975 2953 2971 3070 2994 2978 3194 2954 3059 3017 3001 2976 3009 3087 3028 3004 3124 3087 3063 3004 3016 2992 3005 3061 2985 2983 2996 3024 3009 3037 3023 3160 2978 3080 3077 3049 3018 3080 2983 3091 3091 3030 3004 3044 3064 3124 3048 3159 3066 3090 3154 3133 3313 3122 3075 3091 3274 3093 3139 3198 3261 3283 3157 3348 3209 3315 3222 3377 3284 3315 3470 3387 3355 3358 3461 3310 3334 3337 3313 3396 3311 3260 3280 3259 3117 3263 3208 3136 3149 3052 3238 3139 3157 3028 3168 3161 3091 3133 3110 3027 3093 3150 3068 3058 2976 3033 3030 3120 3100 2969 3075 2939 2933 2985 3022 3098 2983 3048 2977 3006 2976 2933 2965 3017 3007 3016 2988 2975 2918 2971 3069 2999 2908 2970 2928 3013 2896 2914 3021 2901 2979 2979 2960 2854 2946 2862 2963 2854 3012 2964 2993 2930 2914 2828 2957 2959 2967 2962 2901 2952 2863 2951 2941 2815 2907 2813 2911 2817 2758 2823 2795 2843 2825 2894 2847 2805 2844 2822 2791 2771 2801 2839 2897 2738 2876 2779 2899 2736 2763 2822 2803 2818 2751 2836 2804 2847 2728 2821 2766 2759 2789 2818 2780 2796 2797 2752 2780 2732 2776 2812 2736 2796 2829 2777 2853 2822 2808 2745 2810 2829 2782 2889 2842 2836 2752 2820 2840 3061 3054 2962 2942 3045 3187 3172 3302 3528 3502 3664 3557 3749 3702 3875 3880 3918 3943 3958 4085 3971 4031 3834 3936 3829 3771 3589 3542 3375 3453 3321 3223 3197 3054 3029 2899 3056 2951 2886 2917 2940 2955 2794 2884 2883 2786 2850 2780 2787 2815 2777 2743 2645 2580 2505 2578 2476 2560 2584 2546 2546 2473 2536 2457 2499 2550 2526 2580 2555 2484 2449 2527 2523 2597 2477 2501 2560 2556 2479 2468 2510 2526 2470 2524 2501 2518 2465 2469 2442 2519 2577 2474 2504 2464 2428 2374 2455 2400 2481 2510 2450 2411 2492 2488 2548 2520 2570 2429 2509 2464 2453 2408 2471 2435 2539 2503 2469 2433 2444 2498 2519 2467 2444 2458 2564 2387 2483 2509 2391 2365 2480 2429 2559 2409 2488 2545 2477 2490 2444 2494 2515 2493 2418 2497 2467 2386 2486 2402 2431 2473 2430 2488 2508 2431 2421 2516 2401 2572 2499 2540 2450 2330 2521 2428 2542 2455 2459 2458 2581 2426 2425 2560 2413 2501 2387 2433 2432 2429 2435 2394 2442 2400 2493 2469 2481 2373 2427 2450 2408 2442 2548 2427 2495 2451 2476 2378 2520 2462 2501 2529 2382 2473 2414 2539 2512 2464 2476 2455 2463 2488 2372 2511 2514 2461 2361 2472 2528 2488 2450 2471 2429 2487 2471 2486 2479 2592 2432 2506 2427 2531 2409 2494 2373 2590 2515 2397 2486 2475 2527 2517 2499 2486 2368 2406 2441 2459 2440 2442 2435 2519 2437 2525 2417 2487 2469 2482 2496 2483 2432 2487 2582 2401 2466 2347 2463 2514 2462 2438 2478 2400 2478 2422 2542 2571 2609 2582 2497 2509 2374 2472 2456 2504 2426 2450 2433 2473 2519 2517 2517 2516 2427 2521 2446 2383 2563 2440 2475 2453 2441 2430 2362 2427 2402 2479 2475 2394 2412 2405 2330 2408 2355 2431 2403 2378 2332 2372 2388 2442 2500 2395 2338 2482 2408 2481 2368 2321 2392 2480 2349 2230 2329 2376 2368 2348 2336 2353 2460 2361 2447 2362 2353 2404 2363 2374 2263 2328 2379 2252 2297 2362 2346 2306 2190 2265 2276 2311 2377 2257 2297 2301 2245 2292 2233 2303 2253 2302 2332 2311 2271 2299 2292 2263 2319 2161 2333 2251 2303 2364 2307 2250 2216 2288 2202 2251 2245 2294 2169 2217 2307 2240 2223 2268 2297 2200 2281 2309 2249 2305 2239 2171 2304 2183 2271 2119 2271 2273 2234 2142 2399 2280 2194 2277 2201 2353 2234 2247 2246 2289 2282 2197 2241 2184 2206 2185 2286 2251 2216 2137 2138 2237 2103 2218 2186 2242 2158 2223 2145 2231 2241 2163 2317 2213 2268 2385 2184 2202 2152 2151 2161 2348 2272 2283 2299 2292 2382 2324 2409 2406 2531 2516 2503 2843 2690 2827 2882 2934 2922 3061 3278 3344 3470 3539 3626 3771 3729 3730 3754 3695 3764 3741 3655 3456 3387 3310 3116 3165 3134 2975 2866 2874 2780 2678 2770 2653 2664 2662 2559 2685 2515 2526 2577 2662 2537 2577 2500 2492 2498 2435 2491 2412 2409 2375 2390 2417 2380 2430 2320 2428 2431 2379 2437 2418 2504 2377 2536 2570 2445 2512 2388 2451 2311 2358 2382 2374 2362 2354 2245 2273 2204 2351 2288 2256 2245 2164 2202 2179 2153 2182 2095 2051 2157 2151 2097 2120 2138 2195 2211 2073 2200 2080 2189 2251 2258 2209 2291 2169 2344 2364 2381 2398 2460 2381 2517 2540 2640 2620 2691 2673 2683 2734 2657 2655 2766 2726 2735 2668 2703 2649 2672 2640 2645 2437 2579 2722 2596 2695 2719 2703 2585 2599 2632 2741 2629 2684 2626 2663 2613 2664 2523 2473 2429 2378 2330 2387 2218 2243 2225 2299 2188 2298 2255 2211 2222 2194 2203 2222 2325 2148 2231 2067 2114 2102 2005 2067 2016 1965 2066 2085 2066 2097 2050 2058 2044 2069 2080 2194 2001 2127 2161 2024 1984 2083 2087 2138 2139 2043 1982 2064 2129 1979 2110 1998 2108 2018 1990 2055 2063 2059 2004 2067 2027 2088 2049 2042 2103 2008 2033 2097 1999 1970 2026 1966 2052 1975 1958 1960 2001 1969 2094 2057 1951 2034 2047 1971 2074 2067 2040 2041 2130 2200 2060 2124 2105 2129 2161 2132 2125 2237 2205 2227 2234 2250 2204 2300 2329 2425 2429 2474 2494 2615 2729 2754 2964 3031 3267 3453 3790 3952 4252 4597 5084 5339 5847 6314 6891 7262 7802 8172 8364 8803 9109 9273 9412 9338 9207 8882 8511 8007 7787 7300 6647 6310 5782 5433 5014 4858 4472 4014 3801 3814 3628 3709 3513 3391 3165 3290 3216 3119 3072 3037 2838 2824 2795 2746 2573 2525 2526 2410 2323 2281 2332 2400 2287 2316 2345 2325 2446 2430 2518 2637 2570 2661 2645 2645 2600 2641 2566 2652 2580 2667 2529 2569 2377 2390 2383 2263 2201 2237 2172 2134 2033 2102 2152 2024 2051 1956 2004 2083 1991 2037 1968 2053 2046 1989 2013 1907 1934 1897 1907 1843 1915 1984 1889 1863 1928 1888 1867 1896 1894 1838 1987 1899 1896 1900 1871 1860 1900 1947 1890 2027 1875 1840 1906 1895 1865 2015 1951 1928 2020 1993 2062 2015 1991 2017 2032 2042 1985 1936 2086 2013 2114 2035 2100 2089 2055 2059 2000 1988 1983 1928 1923 1965 1957 1926 1935 1972 1887 1925 1966 1866 1918 1925 1975 1903 1944 1945 1871 1822 1954 1820 1961 1862 1836 1848 2010 1981 1975 1908 1927 1812 1864 1808 1872 1935 1895 1956 1817 1841 1973 1898 1922 1897 1837 1948 1826 1805 1859 1894 1997 1908 1940 1940 1969 1918 2016 1962 2060 2064 2013 1934 2080 2133 2079 2131 2180 2229 2404 2401 2452 2548 2602 2756 2733 2838 2941 3040 2871 3067 3160 3059 2987 3082 3083 2916 2846 2799 2762 2677 2665 2531 2353 2399 2348 2246 2328 2245 2184 2097 2108 2219 2089 2068 2133 2213 2154 2161 2055 2127 1996 2110 1984 2084 1996 2025 1988 2065 2125 2033 2026 2101 2000 2015 2101 2004 2121 2039 2137 2191 2114 2117 2136 2161 2237 2116 2225 2276 2323 2495 2353 2470 2531 2627 2768 2824 2925 3058 3118 3238 3313 3397 3409 3482 3486 3638 3662 3725 3749 3790 3719 3753 3664 3764 3619 3591 3558 3448 3258 3362 3161 3179 3090 3178 3034 2942 2910 2883 2960 2847 2813 2847 2793 2802 2798 2739 2611 2680 2580 2668 2617 2524 2636 2527 2582 2532 2442 2521 2474 2473 2491 2500 2526 2511 2462 2626 2598 2553 2459 2667 2730 2640 2659 2761 2816 2840 2850 2844 2916 3008 2959 2941 2954 2913 2930 2905 2811 2823 2868 2739 2764 2677 2746 2636 2560 2563 2525 2421 2317 2410 2263 2230 2286 2113 2248 2212 2207 2074 2124 2090 2184 2061 2110 2016 1960 1978 1982 1945 2039 1892 1969 1872 1835 2000 1923 1885 1883 1977 1962 2032 1868 1863 1879 1848 1864 1879 1901 1937 1873 1848 1879 1833 1797 1813 1785 1916 1773 1835 1804 1810 1827 1988 1906 1893 1877 1772 1856 1886 1912 1885 1877 1903 1835 1869 1864 1858 1845 1752 1862 1802 1840 1861 1855 1885 1874 1850 1879 1898 1861 1912 1868 2030 1936 2019 1994 2011 2086 2204 2220 2295 2323 2403 2368 2401 2599 2614 2636 2673 2746 2742 2773 2758 2784 2749 2742 2638 2563 2541 2542 2381 2388 2324 2330 2294 2139 2070 2043 1979 2032 1947 2009 1886 1998 1992 1988 1964 1904 1904 1917 2047 1827 1777 1912 1793 1758 1843 1745 1747 1866 1802 1739 1783 1814 1801 1783 1701 1777 1840 1879 1686 1725 1732 1835 1770 1720 1805 1754 1841 1738 1800 1753 1770 1803 1805 1869 1773 1856 1801 1868 1829 1765 1718 1800 1743 1715 1771 1693 1740 1753 1770 1769 1738 1747 1680 1710 1678 1736 1691 1736 1724 1710 1732 1709 1760 1687 1743 1748 1650 1754 1782 1782 1842 1749 1773 1759 1723 1797 1726 1708 1789 1762 1775 1822 1808 1743 1811 1764 1770 1768 1732 1814 1790 1709 1779 1765 1750 1816 1669 1773 1819 1755 1814 1696 1797 1680 1814 1733 1746 1719 1720 1751 1768 1687 1825 1752 1776 1722 1727 1724 1668 1734 1696 1796 1771 1766 1663 1749 1730 1653 1770 1755 1746 1725 1733 1746 1832 1744 1742 1777 1724 1797 1836 1815 1816 1781 1791 1757 1772 1734 1795 1771 1766 1834 1844 1749 1811 1748 1800 1799 1769 1774 1773 1885 1826 1894 1871 1733 1802 1732 1716 1733 1834 1789 1842 1710 1830 1777 1824 1738 1735 1724 1692 1677 1782 1660 1804 1785 1761 1756 1831 1741 1707 1716 1735 1688 1706 1723 1685 1746 1709 1627 1726 1643 1748 1754 1789 1746 1746 1795 1743 1788 1816 1817 1817 1778 1797 1658 1825 1708 1800 1683 1704 1712 1647 1738 1753 1700 1754 1791 1703 1713 1783 1707 1741 1570 1787 1715 1726 1773 1654 1773 1656 1753 1692 1685 1674 1731 1740 1781 1737 1632 1677 1719 1701 1680 1739 1800 1726 1776 1744 1743 1734 1670 1747 1729 1784 1716 1709 1717 1802 1755 1675 1735 1819 1778 1848 1734 1829 1777 1739 1771 1748 1791 1778 1830 1842 1950 1918 1949 1881 1928 1927 1890 1930 1953 1957 1888 1996 1892 1871 1817 1881 1933 1944 1844 1801 1769 1751 1817 1718 1756 1697 1706 1801 1797 1858 1801 1800 1724 1865 1749 1762 1768 1774 1746 1768 1753 1840 1843 1712 1755 1824 1786 1824 1763 1808 1784 1853 1904 1799 1854 1855 1907 1947 1907 1954 2016 2002 2202 2159 2258 2351 2451 2546 2733 2765 3087 3154 3399 3823 3945 4295 4572 4692 5000 5367 5414 5605 5766 5570 5825 5656 5563 5379 5248 4977 4826 4612 4531 4209 3996 3822 3611 3405 3229 3111 2998 2921 2839 2682 2560 2477 2445 2401 2412 2362 2264 2183 2174 2102 1992 2034 1978 1967 1988 1977 1914 1869 1889 1862 1789 1814 1819 1803 1685 1648 1678 1752 1688 1696 1650 1719 1810 1711 1738 1705 1718 1747 1734 1717 1798 1742 1722 1646 1731 1662 1654 1696 1764 1673 1715 1801 1695 1725 1692 1702 1756 1584 1703 1668 1705 1703 1723 1626 1739 1654 1723 1634 1625 1760 1728 1688 1677 1738 1614 1671 1745 1702 1632 1672 1609 1659 1680 1652 1653 1723 1650 1699 1683 1704 1687 1692 1694 1750 1693 1679 1668 1658 1751 1704 1680 1710 1635 1696 1728 1727 1686 1649 1683 1632 1680 1684 1657 1732 1750 1655 1658 1734 1727 1672 1728 1662 1720 1653 1711 1785 1731 1780 1807 1834 1768 1794 1868 1806 2054 1970 2014 2002 2120 2056 2030 2191 2155 2251 2255 2262 2259 2240 2201 2173 2153 2229 2187 2134 2182 2053 2077 1906 2044 1950 1928 1930 1943 1880 1839 1865 1840 1909 1876 1723 1784 1622 1730 1783 1778 1789 1807 1811 1742 1687 1799 1854 1781 1884 1738 1848 1852 1843 1928 1931 1973 1928 2105 2027 2147 2179 2207 2317 2250 2350 2405 2424 2428 2338 2333 2381 2456 2284 2309 2273 2263 2261 2165 2058 2149 2068 2075 2033 1923 1988 1939 1844 1868 1873 1838 1868 1801 1702 1768 1734 1695 1735 1740 1682 1750 1720 1677 1742 1691 1709 1733 1732 1679 1705 1711 1707 1732 1698 1677 1696 1718 1768 1708 1740 1782 1682 1749 1730 1683 1753 1827 1773 1837 1919 1842 1815 1889 1896 1958 1966 2036 1996 2039 2026 2079 2084 2091 2065 2032 2019 1964 2029 1963 1925 1923 1874 1902 1839 1942 1803 1782 1846 1700 1809 1686 1823 1706 1639 1728 1726 1714 1747 1663 1753 1706 1689 1688 1712 1598 1677 1700 1689 1680 1721 1737 1675 1654 1722 1709 1681 1716 1648 1640 1654 1630 1613 1711 1607 1659 1740 1633 1681 1599 1700 1600 1662 1646 1703 1680 1548 1673 1612 1667 1621 1698 1692 1706 1662 1664 1670 1677 1632 1681 1659 1662 1732 1804 1770 1754 1672 1718 1772 1729 1792 1668 1758 1729 1739 1771 1750 1670 1790 1838 1727 1810 1717 1828 1787 1837 1844 1904 1909 1941 1869 1800 1967 1970 1949 1985 1966 1891 1999 1997 2043 2016 2045 2037 1991 2003 2040 1969 1965 2016 1974 1920 1889 1938 1921 1901 1777 1873 1850 1822 1789 1792 1879 1856 1789 1882 1737 1820 1763 1762 1745 1753 1814 1759 1817 1805 1815 1788 1796 1822 1775 1689 1739 1756 1677 1790 1676 1802 1759 1735 1815 1785 1808 1791 1827 1795 1788 1777 1779 1823 1793 1857 1830 1806 1883 1812 1805 1837 1868 1797 1793 1763 1737 1693 1785 1796 1810 1724 1787 1743 1727 1674 1739 1711 1789 1771 1806 1726 1708 1743 1817 1693 1688 1721 1729 1724 1766 1785 1755 1792 1701 1779 1704 1730 1627 1708 1651 1713 1728 1626 1727 1664 1611 1664 1753 1653 1671 1551 1640 1764 1695 1638 1630 1661 1596 1604 1628 1602 1663 1689 1624 1724 1673 1601 1701 1576 1647 1576 1685 1556 1635 1660 1608 1631 1642 1552 1600 1705 1586 1629 1527 1653 1709 1601 1604 1662 1630 1631 1664 1604 1540 1551 1648 1595 1662 1585 1639 1653 1612 1616 1701 1657 1685 1650 1577 1611 1655 1577 1664 1549 1631 1655 1548 1599 1675 1617 1545 1651 1619 1692 1499 1645 1594 1607 1639 1618 1573 1569 1634 1593 1680 1626 1663 1659 1603 1631 1706 1604 1723 1617 1572 1572 1671 1635 1635 1656 1742 1580 1650 1583 1654 1636 1653 1618 1667 1630 1727 1577 1647 1581 1747 1646 1693 1609 1712 1696 1780 1725 1700 1688 1722 1740 1783 1720 1730 1839 1711 1693 1749 1786 1722 1799 1845 1724 1836 1725 1751 1750 1731 1804 1754 1794 1827 1839 1793 1801 1778 1767 1797 1749 1757 1789 1827 1801 1799 1841 1796 1774 1761 1779 1888 1834 1878 1860 1839 1875 1872 1879 1884 2021 1940 2025 2025 2128 2195 2304 2330 2542 2583 2670 2803 3017 3094 3341 3454 3545 3747 3723 3830 3896 3941 3945 3773 3733 3792 3561 3510 3348 3372 3292 3085 3079 3010 2998 2827 2805 2818 2691 2733 2495 2491 2403 2307 2265 2234 2156 2130 2180 2049 2019 2046 1983 2006 1937 2004 1832 1898 1855 1926 1878 1939 1931 1849 1789 1928 1824 1959 1780 1859 1946 1857 1836 1797 1886 1797 1903 1926 1814 1869 1887 1825 1878 1826 1878 1894 1928 1919 1912 2077 2004 2122 2054 2160 2277 2244 2322 2312 2399 2423 2438 2501 2561 2661 2637 2676 2732 2749 2709 2719 2630 2647 2584 2643 2520 2491 2557 2541 2505 2423 2419 2461 2346 2308 2238 2162 2183 2113 2265 2062 1993 2066 1962 1967 1950 2015 1932 1963 2023 1963 1940 1874 1907 1932 1871 1976 1871 1903 1899 1875 1835 1799 1870 1908 1792 1837 1849 1825 1833 1747 1844 1831 1875 1855 1738 1856 1846 1808 1823 1854 1745 1863 1792 1781 1858 1858 1859 1873 1866 2020 1954 1968 1935 1896 1960 2063 2030 2015 2056 1942 2109 2014 2106 2057 1980 2033 1983 2142 2027 2062 1984 2043 1953 2072 1999 2010 1980 1975 1911 1989 2037 2017 2045 1955 1887 1975 1993 1860 1921 1836 1879 1944 1882 1823 1894 1822 1721 1758 1817 1783 1745 1817 1772 1745 1772 1780 1722 1708 1749 1649 1671 1664 1694 1715 1755 1770 1700 1724 1705 1734 1642 1756 1661 1698 1685 1685 1647 1665 1720 1589 1669 1644 1624 1682 1663 1652 1673 1640 1644 1652 1673 1707 1619 1736 1622 1608 1649 1663 1708 1650 1654 1708 1639 1711 1662 1736 1785 1783 1808 1906 1864 1875 1888 1914 1959 1972 2053 2050 2192 2098 2109 2105 2137 2156 2140 2182 2136 2086 2171 2086 2046 2102 2055 2054 2040 2004 2069 2051 2067 2047 2065 2134 2057 2006 2046 2070 2205 2131 2149 2086 2143 1998 2142 2002 2093 2128 2020 2032 2009 2035 1974 1931 1985 1940 1937 1853 1825 1795 1838 1789 1823 1782 1758 1720 1759 1786 1750 1730 1731 1705 1733 1740 1659 1644 1678 1658 1702 1630 1709 1684 1629 1705 1726 1598 1781 1756 1757 1797 1807 1774 1788 1845 1804 1927 1871 1967 1988 2038 1931 2071 2062 2103 2135 2105 2060 2063 2006 2049 1977 2073 1935 1985 1947 1922 1966 1954 1963 1946 1872 1939 1953 1876 1931 1845 1777 1828 1817 1729 1810 1820 1725 1821 1773 1797 1832 1762 1828 1750 1816 1746 1719 1776 1753 1776 1701 1706 1666 1739 1764 1696 1694 1744 1749 1673 1720 1723 1694 1704 1752 1847 1863 1807 1765 1832 1767 1899 1860 2007 2085 2147 2179 2234 2262 2304 2365 2410 2554 2549 2484 2521 2553 2453 2385 2478 2385 2333 2312 2234 2277 2177 2327 2146 2188 2098 2097 2082 1950 2037 1957 1910 1870 1846 1839 1824 1839 1720 1736 1766 1745 1619 1632 1664 1712 1677 1665 1667 1669 1613 1559 1619 1598 1606 1584 1693 1500 1594 1639 1538 1604 1565 1607 1596 1598 1585 1584 1539 1480 1574 1572 1663 1488 1555 1529 1589 1618 1602 1530 1577 1613 1567 1587 1627 1519 1588 1565 1560 1647 1613 1469 1563 1628 1585 1469 1550 1580 1623 1532 1633 1568 1620 1545 1626 1648 1599 1620 1597 1574 1593 1716 1692 1708 1602 1806 1730 1797 1815 1850 1865 1842 1829 1807 1928 1787 1750 1717 1717 1809 1815 1675 1743 1659 1705 1660 1623 1677 1685 1652 1674 1641 1609 1640 1643 1589 1614 1453 1498 1542 1497 1547 1557 1632 1500 1608 1596 1574 1557 1555 1581 1536 1496 1517 1573 1513 1494 1575 1534 1529 1461 1471 1538 1513 1517 1491 1585 1535 1527 1544 1562 1544 1582 1480 1580 1564 1544 1560 1601 1493 1539 1565 1506 1506 1624 1498 1620 1538 1495 1654 1616 1548 1540 1568 1579 1626 1542 1511 1580 1511 1529 1557 1567 1538 1524 1518 1518 1577 1592 1580 1477 1543 1529 1518 1532 1523 1473 1522 1523 1546 1553 1528 1525 1560 1507 1551 1565 1551 1486 1520 1575 1615 1516 1501 1497 1510 1524 1503 1495 1478 1522 1579 1514 1542 1556 1526 1547 1492 1591 1533 1548 1559 1452 1475 1568 1525 1525 1530 1504 1603 1555 1598 1525 1518 1561 1557 1563 1490 1625 1544 1567 1525 1541 1527 1587 1531 1542 1487 1574 1582 1604 1541 1501 1522 1567 1529 1585 1563 1563 1461 1456 1586 1579 1576 1581 1473 1504 1548 1524 1583 1571 1556 1574 1578 1653 1558 1599 1655 1555 1593 1658 1536 1581 1612 1583 1611 1616 1586 1641 1571 1671 1660 1666 1679 1742 1702 1747 1640 1606 1619 1727 1663 1623 1523 1620 1617 1640 1724 1543 1599 1655 1578 1604 1579 1640 1595 1644 1522 1563 1592 1557 1600 1552 1569 1505 1600 1583 1542 1511 1530 1501 1552 1552 1516 1551 1543 1577 1544 1460 1545 1498 1558 1595 1577 1566 1533 1584 1530 1503 1548 1550 1562 1656 1605 1558 1490 1516 1482 1560 1528 1511 1488 1585 1590 1568 1600 1602 1597 1562 1702 1619 1694 1622 1677 1687 1651 1758 1690 1701 1779 1764 1740 1681 1721 1615 1635 1679 1616 1698 1625 1662 1648 1606 1650 1664 1650 1715 1586 1574 1653 1620 1613 1578 1655 1659 1612 1565 1604 1609 1567 1535 1599 1561 1559 1592 1500 1552 1551 1559 1541 1545 1606 1562 1570 1613 1525 1503 1538 1572 1582 1540 1500 1530 1603 1606 1533 1536 1545 1577 1577 1544 1527 1551 1477 1562 1586 1668 1601 1598 1589 1539 1654 1623 1612 1670 1643 1662 1620 1680 1738 1691 1709 1749 1810 1805 1816 1896 1916 1919 1940 2135 2146 2271 2211 2200 2288 2272 2205 2231 2181 2276 2167 2165 2193 2094 2067 2123 2022 2048 2028 2041 2051 1975 2019 2004 1985 1926 1836 1809 1858 1915 1807 1816 1846 1936 1856 1778 1891 1811 1745 1778 1764 1787 1797 1834 1728 1729 1846 1726 1726 1793 1719 1763 1775 1781 1768 1774 1731 1728 1811 1863 1658 1849 1765 1725 1741 1655 1729 1629 1724 1763 1793 1688 1733 1747 1687 1796 1787 1687 1730 1776 1763 1772 1792 1708 1733 1728 1700 1709 1723 1724 1726 1728 1682 1685 1599 1674 1660 1692 1686 1663 1634 1610 1640 1645 1578 1632 1679 1503 1629 1624 1649 1607 1541 1600 1535 1561 1537 1488 1533 1648 1489 1520 1510 1493 1574 1566 1501 1469 1552 1498 1487 1555 1445 1486 1493 1496 1541 1542 1556 1549 1494 1519 1561 1524 1483 1465 1467 1516 1494 1593 1517 1528 1518 1579 1486 1523 1527 1535 1542 1513 1520 1474 1437 1576 1533 1510 1468 1550 1554 1552 1531 1507 1490 1582 1571 1562 1608 1503 1563 1585 1468 1490 1542 1534 1531 1570 1468 1542 1595 1563 1585 1538 1542 1524 1594 1516 1492 1598 1590 1636 1539 1575 1609 1595 1665 1675 1664 1675 1615 1722 1700 1773 1720 1784 1798 1806 1846 1762 1791 1809 1799 1791 1719 1836 1784 1802 1747 1732 1764 1730 1726 1776 1718 1774 1691 1715 1818 1701 1816 1787 1639 1645 1747 1690 1739 1696 1633 1739 1682 1730 1680 1673 1683 1745 1745 1758 1771 1809 1797 1733 1885 1756 1904 1833 1791 1827 1788 1802 1801 1827 1725 1797 1865 1693 1776 1856 1719 1733 1762 1754 1811 1818 1778 1804 1818 1750 1788 1747 1713 1734 1702 1660 1767 1686 1569 1660 1674 1648 1727 1577 1633 1640 1665 1545 1663 1623 1585 1534 1596 1663 1616 1711 1593 1679 1567 1523 1542 1579 1669 1577 1554 1540 1550 1519 1595 1575 1582 1529 1561 1537 1544 1500 1579 1511 1600 1570 1601 1516 1546 1562 1571 1520 1502 1636 1612 1600 1570 1624 1504 1574 1503 1496 1544 1495 1552 1510 1606 1491 1568 1535 1573 1593 1577 1589 1594 1544 1620 1585 1573 1608 1560 1593 1591 1605 1685 1642 1598 1681 1635 1646 1636 1588 1727 1603 1755 1694 1635 1681 1682 1585 1633 1625 1620 1570 1632 1643 1558 1580 1575 1529 1568 1606 1580 1569 1627 1600 1561 1550 1594 1565 1593 1564 1614 1596 1625 1586 1570 1500 1590 1499 1508 1542 1544 1593 1582 1634 1648 1524 1610 1580 1583 1658 1595 1714 1713 1620 1545 1667 1717 1545 1650 1757 1647 1674 1710 1761 1657 1638 1655 1685 1715 1689 1713 1715 1610 1661 1676 1722 1693 1682 1642 1677 1682 1622 1627 1613 1583 1621 1565 1528 1517 1507 1520 1531 1559 1573 1571 1539 1538 1604 1557 1484 1559 1517 1490 1509 1539 1517 1615 1504 1458 1525 1538 1561 1595 1593 1527 1459 1490 1533 1506 1483 1519 1442 1537 1427 1585 1511 1542 1418 1541 1456 1505 1549 1560 1497 1595 1475 1490 1560 1574 1421 1602 1459 1594 1651 1613 1647 1578 1538 1580 1568 1660 1592 1580 1582 1605 1579 1572 1471 1546 1596 1595 1587 1555 1629 1529 1640 1593 1513 1593 1582 1584 1544 1616 1559 1561 1586 1542 1628 1579 1572 1549 1591 1577 1578 1582 1589 1551 1598 1608 1564 1632 1658 1711 1654 1673 1810 1762 1847 1946 1902 2035 1983 2067 1973 2162 2062 2125 2136 2059 2006 2042 2017 2019 1955 1907 1990 1919 1883 1882 1873 1855 1973 1893 1874 1911 1847 1934 1763 1843 1829 1783 1794 1686 1678 1588 1632 1583 1568 1589 1597 1656 1579 1632 1542 1554 1544 1560 1518 1615 1556 1494 1484 1532 1424 1536 1518 1432 1611 1517 1533 1527 1528 1504 1434 1514 1507 1432 1457 1483 1495 1537 1402 1502 1508 1467 1449 1564 1492 1528 1480 1463 1506 1481 1408 1477 1538 1479 1508 1547 1488 1534 1477 1502 1483 1550 1459 1525 1488 1513 1470 1476 1503 1569 1506 1560 1406 1513 1526 1508 1455 1561 1473 1473 1489 1486 1483 1541 1519 1421 1548 1457 1466 1499 1491 1509 1527 1526 1476 1610 1554 1526 1565 1496 1504 1513 1577 1614 1520 1536 1516 1519 1617 1637 1641 1619 1530 1658 1630 1586 1644 1540 1585 1499 1531 1600 1495 1577 1567 1506 1592 1551 1540 1538 1577 1556 1524 1645 1562 1550 1573 1485 1544 1448 1471 1482 1565 1548 1539 1520 1460 1440 1517 1453 1478 1513 1501 1565 1486 1554 1537 1543 1481 1438 1446 1516 1489 1474 1582 1528 1500 1512 1555 1533 1513 1603 1511 1553 1520 1543 1608 1608 1599 1608 1604 1595 1631 1584 1619 1700 1671 1689 1736 1748 1703 1714 1677 1677 1718 1656 1707 1674 1690 1625 1629 1562 1559 1602 1595 1600 1579 1580 1561 1570 1627 1641 1566 1601 1605 1516 1504 1572 1517 1584 1497 1474 1548 1462 1475 1489 1460 1459 1560 1563 1465 1485 1395 1492 1464 1515 1536 1547 1502 1467 1490 1437 1532 1475 1554 1521 1526 1508 1469 1460 1486 1412 1439 1451 1504 1504 1503 1547 1525 1470 1481 1495 1474 1546 1532 1484 1545 1502 1525 1537 1507 1440 1461 1533 1462 1505 1541 1474 1444 1548 1516 1518 1581 1488 1471 1495 1517 1468 1498 1473 1525 1494 1434 1481 1429 1461 1505 1606 1537 1465 1465 1490 1459 1477 1537 1475 1507 1477 1433 1473 1480 1470 1443 1468 1403 1508 1513 1507 1499 1465 1498 1490 1510 1466 1502 1605 1495 1590 1572 1536 1527 1525 1502 1489 1584 1574 1600 1596 1513 1639 1501 1641 1668 1618 1705 1688 1689 1659 1687 1743 1730 1684 1614 1692 1629 1659 1630 1529 1623 1560 1594 1593 1690 1571 1520 1625 1557 1588 1607 1639 1568 1551 1516 1596 1540 1516 1550 1498 1477 1533 1523 1581 1455 1501 1523 1497 1493 1483 1460 1525 1538 1519 1494 1508 1433 1462 1519 1537 1465 1524 1522 1506 1416 1499 1493 1459 1523 1517 1540 1467 1434 1421 1484 1471 1436 1450 1489 1446 1394 1500 1431 1531 1423 1521 1539 1537 1456 1480 1462 1497 1530 1481 1489 1457 1485 1479 1499 1490 1458 1475 1550 1505 1493 1478 1492 1492 1436 1465 1501 1538 1488 1470 1468 1489 1508 1484 1486 1466 1487 1502 1459 1514 1508 1418 1515 1584 1594 1510 1529 1530 1529 1615 1552 1536 1583 1601 1538 1540 1601 1529 1527 1587 1601 1525 1623 1588 1475 1638 1543 1528 1596 1548 1595 1505 1538 1618 1509 1534 1516 1564 1532 1540 1562 1537 1473 1490 1433 1458 1465 1610 1488 1489 1486 1553 1504 1533 1514 1527 1493 1426 1499 1410 1503 1581 1468 1524 1603 1549 1488 1601 1498 1588 1539 1644 1534 1574 1564 1548 1656 1587 1540 1575 1562 1572 1589 1502 1485 1526 1574 1610 1517 1486 1535 1577 1546 1667 1566 1559 1579 1590 1576 1641 1550 1526 1557 1458 1542 1570 1601 1468 1514 1588 1516 1555 1582 1480 1528 1584 1493 1501 1520 1526 1461 1596 1524 1550 1555 1442 1485 1557 1459 1466 1446 1539 1485 1562 1435 1460 1419 1488 1459 1466 1465 1445 1559 1462 1511 1429 1452 1493 1444 1447 1451 1512 1548 1460 1567 1524 1459 1451 1449 1500 1454 1479 1511 1559 1513 1505 1451 1473 1456 1457 1470 1509 1436 1470 1496 1481 1577 1481 1522 1434 1538 1488 1492 1553 1440 1507 1536 1505 1434 1505 1538 1550 1490 1544 1499 1444 1524 1521 1594 1553 1556 1484 1566 1532 1410 1511 1560 1430 1484 1575 1460 1506 1566 1549 1544 1615 1479 1511 1475 1488 1460 1514 1509 1442 1499 1482 1508 1433 1542 1448 1419 1497 1523 1481 1575 1470 1557 1458 1433 1518 1476 1545 1542 1503 1474 1497 1510 1532 1507 1487 1481 1470 1468 1448 1490 1531 1559 1565 1568 1601 1538 1520 1554 1504 1544 1615 1568 1610 1574 1552 1599 1534 1603 1545 1494 1559 1461 1538 1511 1593 1482 1555 1499 1525 1548 1531 1540 1501 1553 1471 1540 1504 1518 1547 1457 1585 1530 1553 1430 1492 1474 1492 1493 1498 1509 1454 1482 1532 1568 1467 1514 1461 1452 1473 1416 1485 1455 1514 1461 1522 1498 1498 1463 1557 1568 1532 1513 1489 1472 1461 1487 1543 1419 1563 1534 1506 1557 1458 1516 1563 1468 1549 1497 1500 1600 1555 1494 1520 1536 1585 1493 1513 1507 1596 1585 1555 1555 1568 1561 1579 1605 1585 1627 1574 1584 1569 1542 1499 1555 1560 1533 1565 1624 1607 1508 1572 1599 1525 1547 1566 1518 1516 1601 1486 1540 1528 1480 1498 1513 1603 1455 1566 1506 1515 1455 1568 1595 1532 1488 1537 1475 1527 1516 1493 1554 1502 1544 1528 1521 1522 1623 1525 1592 1625 1634 1572 1572 1583 1652 1679 1682 1706 1695 1681 1723 1627 1638 1687 1666 1591 1688 1706 1680 1640 1591 1573 1610 1567 1555 1639 1646 1714 1602 1691 1667 1547 1569 1620 1531 1638 1546 1629 1585 1574 1494 1587 1464 1476 1508 1471 1586 1456 1541 1550 1556 1492 1381 1527 1426 1409 1503 1501 1522 1511 1531 1508 1438 1451 1513 1475 1488 1514 1525 1474 1469 1458 1535 1543 1502 1533 1541 1548 1466 1485 1444 1528 1555 1520 1489 1551 1570 1434 1549 1488 1487 1523 1488 1591 1507 1533 1522 1556 1541 1521 1490 1462 1485 1499 1422 1550 1474 1562 1454 1499 1494 1499 1559 1472 1475 1541 1513 1471 1474 1487 1475 1557 1458 1482 1409 1436 1500 1507 1488 1450 1346 1497 1422 1499 1473 1545 1512 1513 1519 1391 1430 1414 1378 1491 1468 1459 1503 1502 1548 1472 1399 1457 1502 1434 1433 1523 1464 1496 1406 1435 1524 1497 1414 1427 1453 1498 1490 1540 1532 1515 1499 1484 1430 1462 1510 1504 1414 1522 1483 1517 1475 1495 1495 1458 1421 1490 1517 1512 1492 1530 1482 1543 1568 1473 1539 1474 1529 1502 1494 1555 1484 1532 1474 1493 1455 1467 1513 1557 1491 1513 1558 1494 1621 1536 1683 1487 1650 1551 1556 1553 1619 1594 1575 1604 1672 1536 1547 1581 1542 1557 1475 1537 1596 1550 1497 1585 1548 1539 1516 1634 1560 1564 1589 1463 1546 1479 1512 1555 1470 1520 1528 1491 1450 1589 1492 1555 1524 1536 1490 1499 1509 1434 1565 1577 1540 1394 1450 1478 1471 1398 1496 1445 1536 1464 1562 1420 1470 1505 1473 1513 1495 1457 1487 1591 1416 1518 1530 1545 1489 1563 1469 1448 1501 1474 1544 1494 1495 1540 1555 1495 1541 1521 1470 1525 1500 1520 1527 1491 1579 1486 1498 1519 1509 1525 1393 1507 1493 1530 1477 1583 1548 1555 1560 1524 1483 1522 1501 1459 1581 1546 1482 1447 1571 1453 1502 1600 1433 1448 1478 1439 1460 1498 1411 1474 1475 1520 1491 1426 1456 1477 1493 1395 1594 1504 1441 1451 1393 1474 1554 1388 1506 1536 1508 1471 1458 1478 1456 1443 1489 1384 1418 1468 1380 1421 1448 1500 1488 1481 1428 1469 1446 1555 1449 1464 1496 1507 1434 1475 1500 1527 1482 1476 1501 1528 1482 1535 1498 1537 1417 1486 1435 1538 1473 1472 1523 1522 1552 1517 1520 1473 1491 1487 1512 1484 1650 1494 1573 1560 1579 1581 1553 1587 1554 1625 1583 1592 1615 1669 1612 1757 1704 1763 1722 1757 1831 1764 1822 1837 1866 1865 1826 1865 1830 1833 1822 1824 1771 1831 1781 1787 1765 1763 1735 1720 1698 1816 1749 1782 1734 1760 1788 1709 1756 1678 1677 1620 1679 1726 1586 1695 1653 1679 1721 1658 1682 1607 1684 1703 1668 1532 1596 1525 1609 1597 1583 1606 1609 1602 1612 1602 1565 1697 1609 1578 1615 1626 1634 1609 1612 1640 1537 1585 1643 1544 1593 1578 1622 1639 1686 1607 1560 1584 1634 1577 1541 1578 1506 1536 1534 1516 1574 1564 1612 1507 1607 1508 1459 1553 1539 1569 1508 1534 1543 1572 1552 1492 1463 1564 1588 1508 1548 1512 1482 1566 1546 1588 1484 1549 1556 1482 1544 1490 1539 1572 1554 1536 1551 1500 1530 1506 1562 1544 1606 1533 1558 1596 1494 1552 1513 1591 1503 1560 1569 1530 1574 1628 1572 1646 1578 1555 1573 1629 1507 1542 1550 1625 1541 1580 1546 1577 1520 1567 1580 1592 1500 1602 1596 1572 1598 1569 1663 1604 1606 1562 1590 1654 1635 1566 1700 1666 1650 1638 1640 1676 1713 1718 1763 1720 1809 1798 1836 1865 1874 1795 1909 1869 1954 1870 1818 1972 1887 1938 1886 1952 1771 1768 1791 1816 1745 1746 1756 1840 1733 1819 1775 1835 1737 1831 1807 1767 1801 1734 1708 1742 1756 1682 1713 1705 1622 1594 1679 1611 1664 1532 1565 1548 1503 1616 1502 1531 1532 1608 1567 1567 1505 1525 1541 1517 1560 1522 1466 1555 1539 1425 1479 1490 1524 1480 1594 1482 1515 1583 1586 1537 1533 1598 1538 1446 1544 1459 1469 1503 1430 1618 1602 1495 1591 1627 1683 1633 1613 1623 1601 1650 1600 1596 1670 1634 1629 1635 1695 1645 1626 1614 1678 1668 1740 1698 1667 1699 1689 1623 1671 1656 1694 1634 1723 1698 1645 1654 1596 1587 1634 1598 1639 1539 1571 1673 1608 1597 1603 1691 1692 1580 1559 1548 1639 1681 1561 1602 1646 1582 1550 1549 1538 1671 1613 1643 1576 1602 1567 1615 1558 1448 1510 1532 1516 1577 1565 1545 1508 1492 1525 1619 1575 1630 1506 1553 1512 1525 1563 1523 1531 1555 1531 1534 1486 1518 1514 1602 1527 1414 1564 1543 1509 1571 1501 1594 1587 1568 1560 1540 1538 1561 1560 1553 1544 1512 1580 1547 1454 1478 1539 1529 1550 1479 1492 1437 1488 1516 1477 1511 1472 1551 1466 1545 1552 1554 1488 1517 1554 1503 1532 1453 1589 1603 1511 1558 1457 1583 1499 1488 1528 1497 1577 1546 1587 1546 1521 1555 1610 1446 1522 1514 1508 1519 1544 1483 1549 1529 1463 1566 1541 1558 1498 1538 1565 1507 1583 1563 1545 1573 1574 1649 1600 1616 1631 1624 1549 1593 1544 1680 1606 1637 1610 1633 1645 1568 1641 1606 1600 1529 1620 1562 1711 1626 1590 1611 1539 1551 1617 1589 1697 1652 1541 1626 1540 1629 1540 1583 1611 1586 1531 1611 1537 1563 1587 1579 1554 1660 1623 1613 1646 1668 1675 1618 1661 1603 1566 1675 1662 1680 1651 1651 1741 1630 1705 1700 1777 1817 1827 1869 1895 1934 1859 1918 1923 1877 1926 1910 1978 1923 1856 1923 1984 1799 1820 1870 1841 1799 1851 1799 1854 1845 1819 1800 1838 1771 1840 1864 1888 1831 1908 1892 1817 1854 1777 1760 1731 1803 1722 1704 1704 1618 1626 1580 1630 1672 1579 1624 1608 1604 1518 1622 1607 1626 1578 1603 1469 1540 1543 1590 1560 1508 1597 1479 1523 1566 1496 1512 1515 1534 1531 1443 1501 1491 1515 1461 1527 1491 1487 1538 1540 1457 1449 1522 1525 1527 1441 1552 1428 1463 1462 1483 1489 1460 1505 1556 1520 1503 1470 1440 1489 1442 1539 1564 1483 1444 1515 1524 1507 1557 1541 1562 1528 1562 1546 1494 1520 1539 1553 1531 1428 1563 1511 1559 1514 1539 1569 1571 1612 1556 1578 1539 1630 1550 1543 1575 1542 1561 1601 1554 1544 1544 1585 1533 1518 1576 1534 1547 1527 1536 1532 1549 1611 1539 1564 1520 1525 1566 1472 1607 1587 1617 1507 1478 1623 1587 1553 1475 1538 1571 1474 1567 1540 1544 1520 1462 1544 1534 1486 1565 1524 1549 1495 1461 1519 1536 1508 1456 1479 1476 1514 1458 1461 1504 1380 1438 1466 1460 1494 1524 1571 1451 1497 1420 1460 1530 1446 1469 1422 1459 1388 1433 1487 1537 1462 1411 1503 1478 1531 1495 1467 1422 1459 1422 1410 1535 1481 1470 1460 1478 1434 1471 1468 1508 1425 1430 1487 1483 1533 1503 1462 1469 1441 1468 1488 1447 1399 1420 1412 1460 1413 1517 1466 1505 1444 1505 1469 1518 1428 1439 1431 1431 1403 1511 1499 1528 1423 1506 1464 1475 1471 1459 1496 1529 1490 1515 1522 1507 1495 1544 1454 1534 1473 1532 1545 1588 1609 1555 1443 1549 1511 1491 1459 1522 1482 1549 1517 1541 1518 1533 1532 1491 1499 1443 1498 1489 1494 1445 1480 1455 1427 1477 1398 1467 1485 1435 1556 1482 1501 1523 1468 1524 1442 1511 1562 1482 1412 1483 1521 1493 1498 1498 1479 1453 1466 1431 1418 1526 1400 1479 1517 1506 1510 1456 1538 1535 1467 1477 1513 1544 1441 1531 1558 1451 1517 1439 1488 1572 1494 1479 1486 1438 1470 1498 1437 1485 1523 1474 1487 1540 1499 1552 1431 1512 1552 1434 1452 1439 1467 1467 1524 1468 1569 1472 1530 1561 1516 1438 1443 1494 1473 1516 1545 1394 1539 1429 1420 1424 1465 1430 1536 1560 1471 1482 1507 1473 1575 1519 1494 1478 1427 1395 1460 1441 1490 1445 1536 1480 1570 1545 1423 1551 1494 1502 1534 1530 1520 1515 1416 1508 1457 1472 1511 1433 1534 1449 1520 1497 1483 1485 1455 1462 1468 1452 1516 1441 1495 1535 1511 1531 1523 1538 1484 1496 1487 1526 1608 1512 1506 1488 1472 1571 1506 1488 1505 1518 1511 1531 1537 1553 1559 1516 1540 1546 1473 1501 1518 1540 1559 1498 1538 1554 1455 1504 1567 1543 1546 1472 1479 1556 1520 1571 1567 1491 1552 1547 1463 1563 1576 1531 1519 1631 1563 1530 1535 1592 1642 1565 1603 1573 1650 1594 1641 1597 1610 1662 1617 1622 1654 1691 1584 1628 1623 1609 1551 1544 1546 1528 1539 1559 1513 1606 1548 1570 1594 1614 1629 1568 1585 1574 1572 1602 1659 1514 1560 1551 1581 1556 1643 1529 1533 1551 1654 1505 1565 1561 1546 1520 1587 1580 1495 1468 1494 1555 1359 1528 1457 1501 1430 1502 1524 1469 1479 1458 1464 1479 1518 1481 1403 1548 1447 1491 1441 1418 1523 1521 1450 1441 1570 1434 1423 1416 1506 1483 1424 1515 1485 1428 1461 1457 1515 1472 1480 1473 1429 1479 1563 1510 1553 1441 1482 1449 1467 1456 1568 1465 1466 1479 1510 1439 1522 1476 1466 1423 1507 1438 1469 1495 1485 1537 1456 1483 1466 1418 1471 1469 1509 1549 1489 1509 1439 1440 1439 1468 1530 1442 1472 1459 1443 1432 1517 1484 1450 1409 1483 1479 1548 1539 1627 1529 1440 1510 1533 1574 1558 1518 1468 1552 1508 1580 1490 1545 1549 1456 1542 1531 1574 1520 1557 1462 1510 1494 1532 1487 1588 1585 1581 1598 1539 1650 1614 1582 1650 1594 1640 1494 1604 1531 1564 1637 1676 1553 1585 1617 1495 1609 1603 1601 1643 1654 1658 1591 1654 1606 1686 1680 1724 1560 1602 1599 1666 1682 1628 1642 1607 1608 1668 1649 1641 1576 1605 1637 1573 1572 1559 1644 1613 1542 1637 1535 1608 1701 1507 1663 1571 1545 1552 1633 1587 1609 1574 1506 1564 1553 1527 1560 1485 1579 1550 1551 1618 1465 1518 1482 1505 1525 1470 1515 1487 1534 1475 1543 1496 1437 1496 1529 1527 1534 1475 1469 1520 1526 1539 1494 1463 1482 1494 1411 1482 1455 1497 1442 1540 1479 1442 1523 1444 1512 1513 1530 1604 1540 1503 1498 1581 1581 1470 1466 1623 1491 1546 1459 1521 1451 1511 1533 1455 1515 1509 1492 1425 1519 1495 1523 1481 1502 1497 1532 1539 1563 1506 1427 1575 1517 1458 1499 1426 1516 1500 1504 1452 1478 1479 1554 1486 1541 1529 1501 1528 1567 1532 1535 1522 1554 1506 1580 1583 1583 1606 1589 1683 1524 1712 1586 1632 1630 1629 1612 1608 1648 1640 1587 1581 1585 1660 1673 1600 1578 1559 1663 1580 1588 1625 1487 1593 1574 1534 1538 1622 1505 1583 1573 1618 1610 1563 1611 1669 1540 1554 1543 1494 1547 1622 1573 1553 1576 1524 1478 1511 1572 1553 1584 1564 1483 1482 1626 1515 1578 1464 1533 1525 1572 1591 1508 1554 1580 1536 1485 1533 1529 1484 1509 1418 1534 1535 1618 1456 1553 1563 1565 1470 1532 1509 1444 1521 1522 1505 1543 1436 1479 1427 1491 1416 1490 1439 1449 1571 1522 1462 1389 1460 1436 1546 1466 1411 1518 1501 1513 1457 1512 1434 1457 1545 1392 1474 1470 1498 1497 1418 1485 1456 1522 1484 1456 1422 1476 1534 1433 1477 1463 1386 1538 1386 1459 1508 1465 1488 1468 1497 1521 1529 1411 1413 1428 1406 1467 1445 1431 1438 1413 1456 1443 1363 1502 1456 1501 1453 1422 1495 1451 1445 1479 1428 1497 1493 1463 1431 1499 1587 1529 1487 1464 1395 1490 1422 1456 1449 1531 1477 1398 1483 1420 1484 1396 1424 1445 1466 1412 1495 1496 1486 1476 1440 1460 1465 1465 1489 1499 1449 1519 1491 1425 1452 1513 1478 1486 1515 1431 1493 1467 1487 1520 1517 1501 1452 1500 1498 1491 1458 1504 1535 1476 1522 1527 1490 1450 1496 1481 1488 1545 1470 1478 1511 1444 1516 1437 1562 1505 1480 1393 1420 1477 1479 1474 1543 1438 1454 1494 1484 1513 1426 1448 1490 1380 1418 1437 1514 1494 1534 1421 1461 1506 1466 1458 1425 1483 1469 1406 1454 1463 1524 1518 1521 1455 1429 1424 1483 1509 1525 1482 1444 1463 1489 1487 1502 1569 1466 1413 1421 1452 1395 1515 1506 1493 1518 1494 1408 1462 1534 1407 1437 1455 1452 1427 1451 1495 1531 1432 1404 1456 1471 1470 1421 1528 1394 1484 1440 1438 1512 1451 1474 1399 1484 1429 1479 1433 1447 1425 1453 1506 1459 1409 1502 1497 1528 1429 1431 1483 1378 1472 1431 1504 1485 1523 1424 1465 1413 1476 1437 1459 1435 1401 1506 1476 1436 1519 1420 1421 1527 1520 1484 1473 1446 1471 1495 1436 1435 1466 1487 1440 1453 1508 1413 1406 1450 1464 1517 1482 1437 1451 1517 1452 1451 1466 1445 1389 1500 1419 1451 1424 1469 1490 1526 1470 1417 1460 1500 1488 1480 1535 1451 1437 1427 1526 1465 1523 1390 1491 1454 1532 1372 1456 1416 1481 1557 1449 1443 1492 1384 1484 1446 1415 1411 1436 1374 1506 1481 1410 1490 1449 1472 1527 1406 1461 1480 1448 1416 1493 1471 1562 1459 1577 1455 1520 1514 1521 1519</counts>
			</dataPoints>
		</scan>
	</xrdMeasurement>
</xrdMeasurements>
