<?xml version="1.0"?>
<xrdMeasurements xmlns="http://www.xrdml.com/XRDMeasurement/2.3" xmlns:xsi="http://www.w3.org/2001/XMLSchema-instance" xsi:schemaLocation="http://www.xrdml.com/XRDMeasurement/2.3 http://www.xrdml.com/XRDMeasurement/2.3/XRDMeasurement.xsd" status="Completed" recordIdentifier="{D1A0307E-6EC8-448A-BB9B-BB939298BB40}">
	<comment>
		<entry/>
	</comment>
	<sample type="To be analyzed">
		<id>GPSS_Li1p3Mn0p2Fe0p3Zr0p2Ta0p1Co0p2Cl4_122625_694e531dae15af25ac37461d</id>
		<name></name>
		<preparedBy></preparedBy>
	</sample>
	<xrdMeasurement measurementType="Scan" status="Completed" sampleMode="Reflection">
		<usedWavelength intended="K-Alpha 1">
			<kAlpha1 unit="Angstrom">1.5405980</kAlpha1>
			<kAlpha2 unit="Angstrom">1.5444260</kAlpha2>
			<kBeta unit="Angstrom">1.3922500</kBeta>
			<ratioKAlpha2KAlpha1>0.5000</ratioKAlpha2KAlpha1>
		</usedWavelength>
		<incidentBeamPath>
			<radius unit="mm">145.00</radius>
			<xRayTube id="1010048" name="Empyrean Cu LFF HR (9430 033 7310x)">
				<tension unit="kV">40.0</tension>
				<current unit="mA">15.0</current>
				<anodeMaterial>Cu</anodeMaterial>
				<focus type="Line">
					<length unit="mm">12.0</length>
					<width unit="mm">0.4</width>
					<takeOffAngle unit="deg">6.0</takeOffAngle>
				</focus>
			</xRayTube>
			<sollerSlit id="21010002" name="Soller slits 0.04 rad.">
				<opening unit="rad">0.0400</opening>
			</sollerSlit>
			<mask id="22031000" name="Fixed mask 13 mm">
				<width unit="mm">9.00</width>
			</mask>
			<divergenceSlit id="22120001" name="Divergence slit 1°" xsi:type="fixedDivergenceSlitType">
				<distanceToSample unit="mm">50.00</distanceToSample>
				<height unit="mm">1.52</height>
			</divergenceSlit>
		</incidentBeamPath>
		<sampleMovement xsi:type="spinningSampleMovementType">
			<spinnerRevolutionTime unit="seconds">1.0</spinnerRevolutionTime>
		</sampleMovement>
		<diffractedBeamPath>
			<radius unit="mm">145.00</radius>
			<antiScatterSlit id="22090040" name="AS slit 9 mm (PIXcel)" xsi:type="fixedAntiScatterSlitType">
				<height unit="mm">9.00</height>
			</antiScatterSlit>
			<sollerSlit id="21020003" name="Large Soller slits 0.04 rad.">
				<opening unit="rad">0.0400</opening>
			</sollerSlit>
			<filter id="20030001" name="Large beta-filter Nickel">
				<material>Ni</material>
				<thickness unit="mm">0.020</thickness>
			</filter>
			<detector id="7010019" name="PIXcel1D-Medipix3 detector" xsi:type="rtmsDetectorType">
				<phd unit="keV">
					<lowerLevel>4.02</lowerLevel>
					<upperLevel>11.27</upperLevel>
				</phd>
				<mode>Scanning</mode>
				<activeLength unit="deg">5.542</activeLength>
			</detector>
		</diffractedBeamPath>
		<scan appendNumber="0" mode="Continuous" scanAxis="Gonio" status="Completed">
			<header>
				<startTimeStamp>2025-12-27T13:57:04-08:00</startTimeStamp>
				<endTimeStamp>2025-12-27T14:05:11-08:00</endTimeStamp>
				<author>
					<name>AutomatedUser</name>
				</author>
				<source>
					<applicationSoftware version="1.7b (136)">PANalytical Aeris Instrument Suite</applicationSoftware>
					<instrumentControlSoftware version="3.2.00000000 20240306">AERIS</instrumentControlSoftware>
					<instrumentID>950485</instrumentID>
				</source>
			</header>
			<dataPoints>
				<positions axis="2Theta" unit="deg">
					<startPosition>10.00943322</startPosition>
					<endPosition>99.99442286</endPosition>
				</positions>
				<positions axis="Omega" unit="deg">
					<startPosition>5.00471661</startPosition>
					<endPosition>49.99721143</endPosition>
				</positions>
				<commonCountingTime unit="seconds">12.495</commonCountingTime>
				<counts unit="counts">3347 3292 3221 3276 3231 3286 3292 3309 3221 3365 3320 3355 3410 3295 3394 3316 3367 3339 3340 3294 3360 3291 3375 3413 3459 3362 3342 3354 3447 3398 3374 3361 3453 3393 3361 3312 3365 3398 3494 3383 3344 3417 3507 3328 3353 3444 3505 3348 3444 3485 3491 3462 3463 3481 3458 3524 3514 3466 3677 3477 3548 3376 3576 3553 3595 3537 3540 3611 3659 3405 3614 3611 3561 3556 3549 3649 3514 3610 3580 3652 3609 3650 3674 3619 3632 3706 3599 3681 3704 3629 3668 3707 3727 3559 3643 3743 3822 3828 3579 3779 3748 3695 3869 3686 3702 3792 3769 3654 3784 3730 3784 3812 3706 3716 3781 3514 3689 3625 3597 3655 3685 3710 3818 3603 3700 3796 3667 3523 3709 3644 3618 3706 3657 3810 3649 3687 3623 3671 3755 3597 3646 3632 3721 3795 3588 3692 3694 3759 3705 3598 3800 3725 3654 3837 3712 3751 3632 3721 3648 3667 3741 3704 3634 3777 3640 3673 3835 3789 3752 3887 3799 3667 3673 3717 3673 3706 3785 3768 3712 3717 3824 3682 3726 3630 3699 3653 3605 3666 3645 3683 3648 3706 3611 3654 3572 3637 3705 3569 3539 3601 3740 3649 3613 3750 3538 3612 3769 3621 3688 3578 3594 3734 3559 3598 3583 3674 3592 3531 3614 3656 3582 3648 3504 3619 3658 3690 3710 3608 3643 3484 3626 3660 3550 3630 3560 3580 3430 3573 3597 3553 3442 3659 3602 3551 3575 3531 3557 3539 3486 3516 3584 3542 3477 3473 3595 3625 3601 3498 3519 3483 3506 3685 3543 3565 3508 3574 3509 3529 3596 3535 3563 3559 3517 3595 3371 3598 3484 3485 3528 3509 3483 3483 3500 3466 3449 3438 3568 3486 3469 3488 3477 3407 3535 3449 3567 3510 3680 3525 3642 3436 3500 3404 3506 3449 3599 3539 3589 3471 3655 3579 3520 3521 3405 3567 3551 3470 3529 3514 3544 3474 3501 3465 3520 3655 3611 3487 3650 3529 3525 3716 3608 3562 3540 3759 3587 3678 3782 3739 3650 3702 3505 3537 3584 3730 3719 3735 3698 3756 3768 3748 3808 3768 3667 3718 3692 3678 3753 3647 3694 3780 3813 3700 3668 3763 3722 3639 3755 3787 3744 3756 3796 3867 3663 3833 3821 3838 3878 3959 3750 3930 3778 3823 3667 3925 3861 3883 3911 3774 3926 3966 3967 3888 3929 3870 3789 3947 3891 3813 3934 3935 3850 3933 3918 4092 3895 3948 3943 4020 3948 4003 3992 3805 3949 3974 4047 3852 4008 3904 4023 4026 3965 3845 3968 3975 3984 4128 4099 4011 4023 4003 4134 4107 3947 3934 3987 4065 4098 4105 4067 4129 4110 4180 4097 4110 4228 4074 4164 4328 4168 4326 4267 4317 4453 4476 4398 4506 4450 4477 4612 4667 4657 4671 4747 4811 4890 4701 4672 4775 4790 4705 4503 4524 4566 4432 4567 4397 4441 4402 4330 4320 4334 4209 4293 4211 4058 4128 4045 3997 4208 4155 3964 4172 4104 4207 4231 4128 4066 4137 4099 4144 4202 4217 4245 4153 4236 4099 4228 4269 4164 4000 4025 4036 3896 3941 3876 3855 3781 3743 3633 3713 3679 3721 3816 3625 3667 3673 3705 3591 3698 3669 3636 3580 3634 3604 3482 3558 3701 3535 3621 3546 3578 3573 3530 3599 3684 3563 3661 3462 3597 3434 3625 3558 3661 3475 3547 3627 3545 3478 3574 3532 3517 3550 3446 3531 3388 3402 3473 3400 3507 3403 3569 3489 3434 3508 3560 3413 3443 3404 3478 3308 3325 3287 3326 3498 3428 3266 3342 3339 3474 3245 3434 3389 3358 3493 3388 3369 3358 3395 3498 3342 3351 3326 3364 3227 3334 3336 3325 3434 3299 3452 3429 3472 3346 3457 3294 3369 3422 3404 3287 3309 3216 3387 3306 3268 3246 3351 3277 3269 3250 3361 3245 3174 3294 3238 3281 3216 3333 3244 3177 3292 3320 3246 3310 3235 3250 3263 3204 3297 3158 3210 3274 3232 3235 3309 3172 3134 3247 3280 3274 3197 3300 3252 3213 3265 3334 3270 3231 3431 3177 3200 3232 3365 3187 3291 3385 3244 3293 3186 3266 3283 3255 3265 3239 3368 3265 3312 3303 3148 3272 3207 3186 3211 3346 3278 3296 3203 3142 3235 3196 3208 3229 3284 3237 3252 3194 3080 3203 3256 3212 3167 3091 3298 3261 3176 3200 3256 3216 3150 3158 3105 3198 3193 3148 3109 3081 3229 3188 3140 3100 3175 3169 3221 3086 3168 3223 3133 3140 3069 3149 3186 3220 3111 3197 3186 3100 3139 3155 3182 3143 3182 3197 3178 3078 3212 3047 3151 3052 3124 3134 3169 3194 3074 3169 3161 3143 3133 3105 3142 3017 3119 3070 3116 3019 3172 3132 3106 3194 3090 3118 3086 3101 3194 3194 3100 3123 3146 3097 3144 3137 3163 3135 3119 3113 3173 3182 3198 3120 3125 3133 3102 3138 3181 3235 3089 3193 3222 3119 3037 3083 3094 3146 3136 3135 3014 3153 3156 3114 3148 3130 3139 3016 3163 3109 2946 3202 3118 3035 3037 3124 3112 3132 3061 3154 3072 3136 3084 3145 3177 3124 3196 3069 3043 3221 3068 3091 3051 3054 3120 3044 3178 3001 3117 3142 3019 3085 3143 3106 2969 3124 3027 2970 3203 3101 3037 3070 2987 3080 3029 3075 3052 3169 3049 3002 2988 3077 3156 3075 2992 3079 2997 3025 3071 2997 3138 3082 3063 3029 3135 3055 3032 3063 3067 2977 3045 3037 3047 3045 2978 2951 3054 2929 3039 2981 3057 3056 3071 3020 3027 3076 3056 3056 2985 2995 2994 3071 3024 3055 2943 2958 2915 3045 2977 2975 2994 3101 3031 2986 2980 2969 2937 2956 3057 2854 2976 2943 2865 2973 2942 2932 3029 2992 3082 3041 3028 2907 2978 2995 2988 2987 2881 2966 3044 2937 3053 2982 2936 2854 3032 2908 2966 3015 2891 3031 3072 2969 2997 2999 2947 3054 2911 2973 2908 2913 2966 2991 2953 2865 2934 2940 2947 2917 2921 2981 2934 2982 2971 2878 3073 3031 2874 2850 2947 2926 2881 2883 2892 2954 3068 3058 3028 2991 2826 2898 2980 2967 2852 2866 2936 2958 2988 2938 2920 2978 2895 2963 3024 2965 3047 2959 2971 2895 2946 3002 2919 2929 2962 2943 2996 3031 2986 3071 3051 2945 3047 3003 2948 2947 2992 2957 2916 2954 2966 2907 2949 3079 3007 3027 3054 3041 2924 2917 2936 2999 3023 2993 3028 2933 3084 2893 3188 2975 3072 2975 2927 2983 3022 3012 2993 2882 2963 3154 3024 2960 3033 3054 3027 3071 2996 2981 3021 3096 3053 2959 2998 3012 3032 3000 3022 2972 3092 3057 2970 3054 2907 3035 3094 3032 2923 3042 3137 2972 2977 2986 2987 3018 2999 2938 3003 2986 2997 2982 3101 3083 3048 3026 2977 3085 2958 3037 2912 3060 2961 3069 2989 2874 2985 2919 2990 2955 2924 3000 3002 2888 2876 2960 2914 2979 2936 2944 2997 2921 2984 3040 3059 2963 2947 3003 2995 2955 3047 3036 3015 2934 2873 2922 2964 2971 2947 2913 2958 2940 2860 2963 2926 2916 2959 2824 2881 2878 2848 2829 2888 2860 2860 2882 2850 2837 2862 2808 2925 2855 2928 2837 2887 2864 2775 2936 2869 2922 2802 2839 2738 2836 2888 2802 2748 2928 2924 2750 2778 2818 2825 2783 2730 2824 2751 2817 2718 2810 2834 2737 2748 2847 2713 2720 2778 2778 2727 2732 2643 2663 2711 2815 2688 2739 2750 2703 2716 2644 2710 2609 2751 2670 2640 2692 2741 2722 2765 2582 2697 2566 2741 2703 2678 2674 2639 2583 2629 2656 2563 2582 2711 2592 2605 2637 2592 2610 2605 2595 2652 2589 2613 2638 2652 2585 2660 2588 2606 2594 2595 2620 2593 2554 2570 2583 2553 2511 2568 2562 2546 2545 2633 2507 2510 2601 2556 2540 2635 2509 2604 2514 2566 2448 2469 2532 2584 2496 2491 2512 2542 2479 2507 2551 2532 2494 2503 2528 2471 2471 2536 2532 2517 2600 2508 2556 2575 2443 2584 2428 2544 2546 2498 2540 2548 2529 2487 2526 2410 2377 2515 2529 2495 2469 2523 2470 2383 2486 2490 2531 2416 2504 2482 2471 2549 2529 2503 2428 2483 2519 2522 2557 2453 2480 2399 2524 2551 2447 2506 2549 2479 2451 2493 2431 2502 2489 2465 2467 2456 2482 2426 2386 2432 2420 2527 2492 2545 2472 2526 2436 2571 2369 2546 2501 2461 2469 2472 2406 2585 2458 2460 2429 2411 2449 2389 2465 2448 2449 2424 2453 2444 2425 2358 2500 2322 2404 2533 2436 2419 2430 2501 2457 2506 2511 2511 2524 2447 2464 2477 2388 2431 2404 2530 2561 2556 2467 2528 2465 2520 2514 2478 2466 2396 2451 2465 2454 2473 2511 2499 2492 2558 2542 2543 2459 2430 2519 2561 2566 2513 2459 2475 2544 2370 2506 2552 2505 2490 2516 2506 2529 2559 2520 2580 2557 2521 2602 2481 2520 2548 2537 2502 2556 2560 2499 2552 2525 2584 2479 2510 2555 2619 2509 2557 2416 2558 2541 2528 2496 2514 2430 2585 2571 2516 2511 2434 2429 2455 2574 2507 2525 2575 2493 2515 2522 2611 2408 2505 2552 2540 2485 2522 2604 2450 2497 2491 2431 2447 2493 2468 2584 2515 2484 2529 2508 2526 2483 2528 2485 2503 2411 2517 2508 2565 2511 2511 2563 2454 2414 2540 2412 2515 2541 2432 2451 2453 2438 2472 2372 2427 2395 2486 2488 2608 2356 2431 2451 2374 2458 2509 2497 2540 2412 2347 2434 2407 2493 2445 2528 2422 2456 2360 2414 2429 2457 2446 2429 2461 2457 2457 2381 2427 2391 2366 2343 2430 2396 2353 2359 2359 2404 2397 2362 2378 2356 2392 2376 2305 2320 2358 2373 2411 2379 2370 2284 2248 2283 2336 2302 2303 2359 2342 2408 2285 2352 2368 2322 2318 2284 2449 2382 2322 2218 2319 2302 2313 2285 2282 2321 2338 2288 2320 2330 2354 2318 2328 2241 2299 2382 2276 2378 2257 2270 2199 2147 2346 2290 2295 2275 2174 2190 2347 2244 2285 2225 2259 2283 2310 2231 2315 2208 2208 2303 2154 2296 2213 2306 2214 2269 2240 2286 2300 2177 2230 2245 2294 2234 2305 2177 2265 2246 2173 2266 2235 2286 2260 2233 2279 2317 2262 2298 2218 2306 2335 2388 2320 2326 2344 2346 2383 2361 2231 2424 2379 2417 2392 2361 2458 2408 2455 2515 2536 2509 2450 2544 2543 2543 2539 2564 2627 2675 2692 2654 2681 2651 2612 2667 2697 2786 2778 2692 2757 2729 2565 2611 2548 2733 2636 2576 2515 2593 2465 2497 2523 2498 2485 2488 2403 2321 2324 2466 2325 2349 2398 2413 2412 2422 2321 2373 2362 2367 2362 2285 2336 2222 2350 2329 2320 2338 2258 2330 2309 2395 2305 2304 2265 2256 2320 2292 2205 2207 2226 2309 2316 2273 2190 2298 2249 2227 2275 2210 2302 2213 2251 2203 2275 2277 2225 2258 2215 2199 2281 2288 2282 2170 2270 2147 2124 2226 2229 2267 2214 2233 2371 2289 2306 2316 2262 2297 2318 2385 2371 2280 2280 2357 2462 2413 2472 2408 2532 2436 2559 2582 2685 2585 2605 2636 2718 2866 2821 2795 2804 2853 2867 2876 2912 2952 2910 2858 2928 2919 2884 2909 2771 2911 2880 2807 2736 2627 2672 2734 2739 2699 2630 2639 2600 2617 2606 2601 2651 2603 2629 2628 2638 2686 2641 2613 2557 2599 2485 2426 2332 2375 2251 2288 2307 2254 2253 2242 2145 2184 2190 2081 2109 2143 2074 2070 2129 2160 2071 2140 2125 2122 2125 2167 2029 2033 2064 2094 2112 2170 2045 2082 2031 2097 2157 2034 2005 2061 2002 2028 2064 2059 2072 2081 2034 2038 2072 2039 2120 2033 1952 1973 2008 2081 2057 1978 2086 2092 2011 1986 2118 2063 1948 2085 2074 2022 2061 2179 2002 2063 2013 1987 1941 2005 1955 2058 1969 1975 2064 1971 2012 2054 1994 1935 2005 1997 1940 2077 2098 2029 1974 2008 2039 2050 2060 2037 1987 1982 2002 2015 2062 2084 1969 1996 1936 1976 1973 1970 2038 2012 2027 1956 1975 1963 2021 1967 1986 2067 1999 2021 1985 1988 2010 2054 1969 1935 1963 2044 1939 1990 1965 1996 1925 1954 2023 2000 2033 2010 2011 2046 2015 1973 1979 1918 1964 2009 1947 1965 1932 1992 1984 1941 1976 2043 1952 2010 1875 1993 1995 1985 1971 1960 1938 1982 1948 2010 2121 2014 1939 2001 1991 1984 2083 2002 1987 1958 1992 2029 1984 2043 2013 1992 2041 2041 1938 1976 1952 2037 2111 2000 2044 2013 2040 2045 2088 2076 1942 2065 2097 2024 2083 2041 2189 2169 2040 1997 1999 2068 2010 2063 2065 2133 2079 2050 2079 2067 2019 2095 1992 2123 2052 1996 2059 2072 2047 2090 2118 2151 2085 2076 1954 2099 2053 2077 2114 1954 2068 2050 2089 2013 2018 1992 1997 2014 2073 2156 2063 2063 2079 2037 1991 2099 2030 2078 1956 2033 2040 1988 1973 2001 1994 1992 1898 1986 2014 1935 1981 2026 1982 2053 1970 1918 2019 1960 1949 1972 1978 2016 1913 2009 1997 1928 2001 2006 2007 1981 2078 2043 1969 2011 2059 2028 2001 1981 2021 1981 2018 1981 1988 2020 2045 2024 2013 1988 2017 1984 1985 1931 2091 2042 1985 1958 2056 1889 2018 2076 1999 2001 1921 2016 1930 2034 1966 2045 1959 2011 1973 2039 2000 1964 2008 1977 1999 2001 2040 2034 2076 2023 2079 2075 2068 1968 1997 2021 2077 2002 2022 2041 2082 2081 2086 2064 2078 2137 2181 2143 2164 2193 2170 2234 2236 2296 2359 2315 2369 2409 2401 2418 2495 2498 2554 2497 2545 2609 2694 2762 2794 2875 2764 3073 2965 3116 3173 3331 3367 3355 3492 3378 3580 3784 3832 3927 3825 4068 4208 4283 4236 4325 4273 4341 4527 4409 4462 4445 4545 4531 4387 4485 4400 4344 4218 4260 4133 3916 3786 3755 3684 3511 3572 3581 3447 3264 3239 3417 3270 3199 3371 3321 3301 3268 3260 3363 3124 3121 3201 3150 3024 3058 3095 3013 2965 2905 2940 2767 2779 2632 2677 2574 2522 2694 2600 2493 2431 2525 2488 2465 2354 2547 2450 2385 2407 2380 2400 2344 2297 2365 2373 2285 2346 2447 2231 2334 2231 2317 2305 2280 2417 2304 2305 2252 2320 2259 2203 2259 2165 2276 2137 2282 2223 2237 2247 2307 2185 2111 2155 2151 2138 2177 2110 2154 2075 2037 2075 2124 2083 2074 2106 2132 1980 2041 2136 2027 2073 2109 2103 2030 2031 2026 2064 2051 1987 2014 1972 2060 1909 1943 2038 2078 2032 2017 2092 1948 2044 1971 1993 2021 1980 2030 1962 2049 2049 2002 1971 2058 2016 2053 1959 2017 2009 1992 2040 1987 1966 1966 1980 1970 2012 1981 1975 1943 1932 2066 1972 1941 1962 2053 1952 1937 1941 1973 1934 1925 1982 2007 1890 1978 2024 1976 2003 1994 2033 1974 2024 1998 2053 1937 1973 1913 2021 1904 1973 1941 1986 1977 2070 1953 2017 1975 1917 1984 1954 1967 1982 1913 1901 1916 1963 1943 1925 1900 1902 1998 1988 1963 1998 1978 1966 1999 1994 1987 1966 1911 1977 1954 1954 1955 2003 1934 1998 1947 1855 1962 2027 1951 1942 2006 1957 1947 1987 1951 1933 1960 1925 2004 1986 2016 1950 2009 1985 1907 1855 1939 1865 1865 1984 1887 1953 1924 2006 1941 1937 1991 1968 1951 1945 1927 1992 1972 1996 1854 1918 1924 1966 1989 1944 1985 1928 2034 2006 1961 1952 1890 2092 1933 1957 1981 2017 2066 1991 2006 1955 1982 1943 1926 2014 2023 1951 2031 1996 2016 2035 2061 2004 2039 1941 2009 1964 1988 1962 1922 1988 2051 2004 2010 1957 1991 2057 2081 1894 1989 1904 2026 1985 1931 2030 1927 2030 1925 1919 1987 1994 2017 1929 1996 2018 2005 1933 1945 2027 1993 1962 2008 1966 1992 1875 1920 1935 1922 1996 1979 1927 2003 2019 1926 1956 2031 1907 1981 1921 2028 2012 1942 1983 1921 2022 1955 1886 1887 1913 1972 1925 1936 1992 1964 1884 1966 1894 2000 1993 1896 1964 1965 1977 1944 1950 1898 1909 1994 1879 1857 1906 1911 2000 1962 1917 1950 1897 1862 1998 1901 1939 1996 1951 1945 1946 2020 1947 1947 1948 1996 1915 1963 1936 1982 1935 1920 1896 2055 2029 1988 2005 1935 1922 1990 1994 1902 1926 1942 2014 2014 1924 1969 1938 1853 1933 1999 1889 1939 1908 1902 1931 1866 2017 1931 1912 1959 1879 1930 1902 1916 1935 1850 1930 1892 1953 1872 1952 1946 1913 1862 1937 1876 1848 1920 1919 1946 1875 1950 1854 1856 1796 1884 1893 1912 1888 1920 1893 1912 1908 1897 1997 1919 1913 1841 1897 1956 1991 1883 1887 1872 1824 1859 1908 1908 1828 1903 1916 1890 1907 1924 1930 1905 1871 1913 1920 1830 1867 1896 1840 1806 1871 1863 1921 1816 1922 1878 1883 1919 1919 1879 1880 1878 1903 1911 1959 1915 1852 1885 1852 1934 1932 1852 1922 1852 1926 1838 1932 1960 1918 1880 1872 1916 1921 1905 1951 1985 1906 1822 1964 1850 1895 1859 1927 1813 1934 1862 1801 1827 1896 1902 1884 1970 1890 1968 1874 1899 1841 1883 1917 1885 1879 1894 1851 1945 1909 1898 1922 1891 1860 1884 1951 1839 1933 1913 1870 1995 1894 1935 1874 1833 1967 1920 1882 1870 1903 1911 1841 1886 1956 1882 1919 1846 1892 1868 1883 1921 1951 1852 1815 1929 1948 1957 1968 1891 1881 1870 1916 1822 1927 1881 1864 1931 1968 1904 1908 1858 1973 1855 1827 1824 1847 1817 1937 1868 1917 1835 1895 1930 1975 1861 1813 1831 1852 1849 1880 1863 1920 1879 1906 1853 1820 1866 1894 1859 1947 1921 1875 1883 1904 1935 1828 1905 1971 1923 1877 1873 1915 1802 1815 1861 1938 1906 1916 1987 1825 1837 1964 1865 1944 1903 1889 1885 1888 1920 1889 1901 2013 1962 1948 1953 1874 1902 2027 1883 1882 1883 1910 1849 1906 1969 1884 1919 1902 1870 1885 1885 1871 1832 1812 1850 1854 1870 1855 1912 1923 1958 1825 1997 1922 1916 1990 1911 1918 1872 1866 1912 1856 1806 1889 1838 1880 1935 1898 1945 1963 1929 1946 1889 1946 1875 1897 1872 1882 1943 1918 1940 1856 1905 1869 1879 1972 1868 1914 1977 1957 1871 1898 1944 1935 1821 1983 1895 1914 1983 1924 1888 1980 1929 2017 1818 1895 1953 1895 1877 1908 1941 1981 1912 1981 1907 1985 1973 1947 1954 1819 1910 1987 1929 1943 1950 1957 1961 1902 1997 1942 1928 1915 1948 1849 1841 1829 1848 1932 1932 1957 1914 1894 1908 1871 1883 2027 1966 1899 1876 1860 2031 1978 1849 1892 1926 1909 1891 1915 1907 1930 1894 1927 1860 1833 1918 1885 1950 1899 1894 1863 1920 1912 1906 1960 1824 1963 1937 1958 1849 1902 1959 1872 1955 1893 1905 1867 1939 1920 1899 2018 1940 1869 1922 1868 1851 1873 1929 1927 1937 1908 1959 1917 1945 1924 1891 1900 1940 1948 1893 1943 1908 1936 1903 1861 1874 1983 1998 1881 1979 1939 1901 1876 1893 1940 1889 1994 1881 1886 1885 1968 1943 1945 1926 1860 1962 1942 1940 1920 1895 2001 1881 1900 1886 1903 1933 1939 1984 2014 1910 1908 1894 1909 1967 1897 1908 1886 1918 1870 1933 1934 1945 1949 1872 1911 1966 1834 1868 1932 1987 1897 1922 1963 1929 2018 1909 1912 1840 1951 2011 1947 1991 1888 1962 1920 1947 1939 2000 1898 1923 2002 1963 2004 1955 1968 1912 1945 1932 1932 1947 1912 1955 2034 1967 1965 1975 2013 1978 2057 1994 2115 2030 2105 2002 2133 2092 2076 2021 2136 2057 2090 2151 2133 2154 2148 2159 2133 2167 2129 2191 2215 2273 2270 2237 2221 2203 2272 2274 2251 2194 2257 2256 2290 2157 2170 2132 2180 2174 2091 2144 2106 2134 2024 2123 1997 2051 2181 2016 2041 2009 2061 2036 2043 1987 2049 1929 2002 2068 2051 1992 2000 2071 2074 1958 2031 2032 1993 2085 2020 2030 2000 2037 2018 2004 1977 1965 2012 2075 1898 1956 2028 1957 2066 2001 1966 1979 2008 2062 1903 1937 1975 1876 1979 1930 1979 1945 1958 1947 2007 1943 2037 1992 1955 1953 1922 1962 2005 1911 1933 2014 1928 1923 1988 1901 2045 1991 1985 1994 2020 2029 1961 1963 1946 2083 1905 1995 1952 2008 2017 1991 1913 1896 1923 2014 1970 1997 1869 1923 1965 1867 1953 2021 1933 1950 2014 1908 1987 1910 1958 2024 1949 1999 1932 1920 1916 1898 1956 1942 1924 1995 1961 2008 1880 1967 1906 1847 1919 1921 1902 1845 1898 1964 1922 1881 1911 1862 1830 1871 1914 2010 1878 1974 1927 1962 1838 1894 1936 1968 1888 1934 1979 1999 1905 1862 1935 1905 1933 1909 1930 1826 1966 1925 1877 1956 1923 1843 1955 1967 2004 1858 1934 1887 1998 1874 1905 1926 2073 1924 1836 2012 1913 1986 1864 1892 1920 1948 1942 1863 1854 1953 1960 1934 1950 1875 1954 1901 1957 1865 1895 1914 1922 1897 1947 1886 1972 1888 1925 1984 1971 1946 1889 1976 1968 1990 1923 1953 1982 1949 2015 1916 1880 1964 1922 1904 1884 1989 1956 1946 2000 1946 1952 1943 1924 1985 1968 1914 2017 1944 1856 1967 1918 1997 1939 1930 1946 1953 1992 2040 1989 1993 1856 1963 2031 1960 1949 1900 1907 1942 2013 1860 1918 1944 1943 1831 2021 1912 1937 1903 1962 1865 1975 1874 1945 1917 1926 1965 1952 1973 1904 1924 1988 2006 1981 1894 1910 2040 1936 1999 1905 1952 1935 1987 2017 2009 1965 1930 1919 1882 1974 1970 1998 1963 1901 1974 1955 1939 1959 2028 2050 2046 2027 1988 1937 2015 1979 1947 1974 1998 2022 1971 1987 2025 2053 2035 1990 2028 2027 2082 1948 2108 2166 2112 2099 2121 2129 2180 2249 2188 2243 2323 2317 2261 2294 2442 2343 2308 2486 2498 2392 2464 2574 2582 2520 2592 2576 2720 2749 2705 2794 2886 2866 2965 2906 2963 3140 3070 3220 3351 3257 3270 3335 3311 3290 3319 3377 3395 3409 3364 3459 3427 3431 3525 3406 3415 3301 3328 3216 3186 3152 3182 2907 3026 2979 2985 2920 2794 2748 2755 2789 2646 2574 2603 2501 2552 2550 2476 2502 2578 2470 2581 2526 2543 2524 2496 2569 2632 2701 2584 2573 2713 2675 2588 2629 2605 2547 2598 2428 2532 2457 2529 2536 2456 2386 2458 2442 2404 2386 2300 2358 2294 2314 2252 2196 2229 2168 2141 2256 2235 2137 2213 2214 2194 2151 2209 2134 2230 2223 2203 2169 2175 2129 2233 2143 2167 2201 2180 2220 2245 2219 2204 2147 2279 2216 2286 2163 2214 2179 2182 2150 2162 2191 2188 2242 2232 2188 2108 2253 2201 2184 2223 2228 2254 2290 2156 2088 2121 2229 2123 2225 2228 2162 2107 2194 2179 2219 2122 2178 2162 2119 2059 2044 2082 2139 2013 2069 2025 2183 2021 2075 2044 1976 2077 2068 1987 2036 2098 1995 2050 1975 2013 2049 2072 1990 1964 2109 1952 2010 2015 1978 2054 2017 1939 1919 2002 1967 1977 2045 1958 2016 2023 2034 2041 1990 2007 1973 1973 2073 1962 1986 1913 2012 1985 1970 1984 1945 1932 2000 1978 1961 2034 2020 1998 1962 2063 2065 2042 2102 2045 2084 2014 2117 2083 2068 2025 2035 1987 1994 2129 2046 2066 2187 2070 2127 2044 2201 2056 2094 2124 2037 2200 2101 2117 2135 2075 2134 2169 2077 2162 2048 2109 2163 2087 2142 2110 2109 2099 2078 2049 2121 2027 2037 2104 2042 1999 2020 2068 1989 2039 1966 2056 1998 2005 2020 2033 1973 2004 2115 2033 2054 1999 2113 1988 2006 2028 2055 1998 2054 2035 1998 2122 2131 2052 2069 2018 1937 2028 1994 2024 2041 2059 2033 2067 1994 1967 2046 1992 2047 1998 2079 1962 2003 2033 1992 2026 1940 1939 2011 2029 2057 2038 2086 2053 1962 1958 1944 1929 1920 1974 1985 2049 2046 1922 2017 1960 2074 2003 2119 1975 2013 2004 2046 2074 2006 1987 2078 1959 2022 1864 2018 2100 2004 2066 1978 2015 2016 2034 2006 2041 2041 2021 2067 2065 2011 2054 1994 1988 2035 2042 2117 1942 2056 1933 1980 1930 1950 1935 2132 2012 2007 1977 1988 2085 2023 1956 2018 2020 1983 1921 1941 1953 1971 1951 1945 2070 1986 1868 1996 1969 1955 1916 1930 1992 1953 1927 1985 2011 1954 1901 2024 1933 1954 1992 1924 1983 1960 1892 1984 1904 1886 1883 1915 1901 1948 1979 1851 1968 1986 1914 1933 1926 1983 1954 1983 1942 1873 1940 1880 1885 1898 1980 1902 1935 1919 1972 1929 1922 1952 1955 1903 1876 1970 1875 1966 1944 1848 1943 1898 1960 1886 1959 1939 1895 1840 1858 1965 1878 1942 1908 1923 1919 1877 1921 1945 1808 1924 1890 1943 1891 1960 1995 1886 1980 1999 1891 1916 1886 1976 1926 1913 1892 1986 1989 1855 1957 1917 1894 1900 1871 1937 1874 1911 1939 1957 1977 1948 1974 1932 1890 1927 1889 1876 1863 1910 1945 1930 2026 1958 1981 1910 2002 1887 1916 1928 1968 1968 1881 1884 1909 1965 1919 1912 1871 1875 1917 1885 1908 1893 1875 2011 2007 1934 1954 1960 1931 1876 1873 1955 1920 1987 1909 1984 1917 1912 1927 1894 2000 1975 1942 1940 1975 2086 1971 1973 1922 1878 1977 1942 2014 1884 1975 1857 1976 1970 1920 2000 1967 1888 1990 1961 2008 1889 1916 2004 1970 2004 1972 1901 1873 1998 1939 1982 1935 1960 1902 1987 1941 1944 1917 1936 1942 1953 1881 2067 1974 1950 2000 1880 1942 1939 1909 1990 1995 1971 1945 1845 1967 1949 1986 1916 2022 1866 1956 1861 1953 2022 1902 1919 1927 1989 1988 1979 1898 1978 1950 1990 1874 1912 1955 2027 1929 1943 1903 1905 1899 1965 1929 1922 1882 1967 1980 1889 1970 1938 1951 1938 1931 1921 1903 1930 1953 1862 1960 1914 1963 1949 1957 1925 1931 1906 1926 1855 1966 1960 1923 1930 2016 2035 1924 1873 1899 1983 1864 2048 1934 1940 1954 1927 1904 2030 1965 2017 1941 1949 1997 1916 2014 1903 1936 1909 1935 1975 1916 1985 1972 1880 1965 1941 1880 1933 1975 1931 2011 1947 1854 1905 1914 1935 1893 1913 1988 1922 1958 1866 1894 1931 1984 1915 1965 2022 1982 1918 1960 1960 1897 1945 1991 1934 1890 2020 1973 1926 1926 1988 1914 1941 1955 1867 1964 1916 1942 1901 1985 1842 2000 1936 1954 2011 1924 1940 1931 1925 1975 1937 1941 1942 1939 1935 1873 1991 1963 1914 1892 1907 1940 2009 1989 1914 1875 1982 1960 1954 2010 1961 2006 1861 1945 1991 1935 1933 1929 1884 1993 2017 2021 2036 2012 2012 1951 1990 1928 1987 1845 1972 1979 2018 1961 2007 1906 1981 2056 1995 1965 1935 1904 1980 1998 2091 2021 2004 1990 1938 2017 2073 1958 1988 2024 1995 1926 2003 1936 1958 2010 1941 2006 1924 1916 2038 1842 2003 2014 1942 1970 1942 2012 2083 2079 2008 1975 1989 1997 2121 2048 1934 1964 2035 2084 2118 2056 2023 2062 2077 2048 2050 2176 1994 2101 2064 2139 2113 2123 2135 2072 2084 2126 2146 2090 2012 2060 2084 2052 2043 2070 2077 2087 2055 2054 2030 2027 2031 2067 2042 2020 1961 2068 2075 2009 1924 1958 1980 1987 2003 2011 2017 2087 2030 1985 1978 2062 1947 2078 2071 2128 1982 2058 2050 2117 2059 2126 2111 2061 2076 2090 2130 2089 2031 2234 2104 2106 2091 2072 2092 2101 2186 2151 2167 2097 2149 2069 2114 2114 2133 2053 2001 2007 2100 1993 1980 2016 2093 1956 2039 1995 1924 1941 1932 2052 1889 1961 1958 2012 1892 1918 1923 1945 1997 1953 2004 1900 1936 1939 1951 1909 1947 1906 1948 1896 1946 1884 1852 1968 1957 1921 1987 1912 1925 1930 1924 1936 1960 1915 1878 1916 1978 1931 1929 1909 1981 1979 1932 1859 1971 1978 1972 1865 1935 1871 1944 1916 1934 1975 1864 1913 1901 1927 1908 1929 1952 1953 1981 1933 1969 1955 1999 1928 1943 1902 1894 1894 1903 1937 1896 1869 1966 1979 1956 1987 1891 1944 1966 1937 1906 1939 1907 1784 1963 2017 1933 1941 1910 1939 1839 1978 1958 1940 1879 1983 1982 1993 1911 1928 1975 1892 1915 1970 1977 1985 1964 1883 1992 1990 1886 1925 1972 1988 1964 1950 1948 1965 1919 1909 1896 1943 1981 2040 1942 1956 1920 1928 1936 2075 1957 2016 1948 2003 1976 1979 1937 1952 2023 1984 1912 2025 2015 2025 1981 1970 2031 2009 2058 2094 2022 2062 2184 2177 2117 2017 2098 2043 2117 2115 2117 2132 2065 2167 2170 2197 2104 2120 2194 2145 2180 2218 2265 2204 2257 2293 2263 2236 2224 2319 2173 2240 2237 2186 2281 2130 2297 2197 2208 2229 2228 2240 2229 2245 2115 2219 2155 2140 2120 2213 2112 2107 2028 2111 2056 2125 2098 2008 2081 2061 2052 2095 1971 2023 2089 2040 1995 1999 1992 2040 2064 2047 2041 2031 2131 2059 2050 2055 2000 2090 2010 2094 2186 2107 2104 2059 2096 2214 2066 2046 2137 2161 2153 2054 2027 2068 2061 2049 2033 2088 2122 2056 2009 2033 2014 2055 2068 2114 1989 1981 2007 1949 2122 2081 2039 1965 2005 2025 1986 1982 1968 1989 1941 1984 1866 1992 1982 1984 1931 1897 2022 1973 1976 2082 1989 1998 1860 2099 1979 1917 1919 2014 1942 1966 1971 1961 1991 2010 1902 2060 1931 1918 1892 2004 2043 1927 1981 1993 1911 1989 1878 2019 1924 1945 2022 2011 2051 2075 1970 2040 2020 1930 2031 1996 1890 1997 2006 1988 1916 1929 2031 1993 1902 2021 1928 1975 1988 1988 2016 2063 1991 1950 2017 1953 2058 2043 2009 2040 1999 1949 1953 2021 1984 1945 2088 2060 2062 2058 2003 1981 2012 2049 1944 2012 2012 1987 2120 2068 2055 1980 2032 2006 2012 1994 2049 2062 2090 2008 2016 1976 1983 2038 2080 2019 2020 1985 1995 1958 2082 2047 2009 2079 1956 1982 1967 2020 2009 2081 1924 1933 1965 1988 2025 1976 2017 2015 1890 2026 2040 2040 1850 1947 2026 2002 2009 1936 1979 1940 1983 1891 1883 1902 2033 1995 2049 1996 1938 1933 1962 2032 1968 1970 1884 1976 1956 2014 1979 1941 1955 1992 1976 1951 1990 2004 1935 1996 2060 1904 2025 1907 1969 1919 2007 1940 2021 1924 1893 1907 1960 1968 1953 1974 2000 1967 1923 1948 1934 1957 1894 1966 2001 1892 1883 1905 1944 1922 1948 1978 1918 1938 1956 1896 1896 1936 1980 1950 1933 1889 1923 1971 2007 1948 1841 1983 1902 1907 1910 2082 1961 2001 1997 1914 1949 1872 1918 1878 1948 1907 1942 1901 1911 1947 1859 1982 1952 2003 1947 1896 1933 1871 2040 1891 1888 1963 1968 1904 1980 1980 1950 1914 1999 1935 1960 1918 1834 1862 1898 1875 1871 1981 1924 1946 1965 1969 1918 2053 1975 1917 1930 1921 1984 1894 1916 1928 1978 1912 1961 1885 1871 1938 1894 1987 1944 1963 1917 1886 1902 1923 1872 1936 1951 1950 2008 1968 1886 1912 1928 1990 2033 1966 2009 1921 1904 1949 1934 1946 1931 1971 2028 1976 1928 1936 1960 1987 1895 1908 1950 1972 1919 1954 1881 1916 1926 1887 1869 1881 1843 1874 1914 1908 1901 1904 1890 1895 1940 1937 1894 1910 1991 1890 1896 1968 1902 1929 1893 1893 1914 1863 1838 1862 1955 1890 1895 1903 1938 1975 1906 1932 1833 1925 1899 1905 1891 1889 1871 1906 1907 1842 1879 1977 1867 1895 1948 1888 1939 1876 1926 1941 1892 1924 1939 1910 1836 1883 1986 1827 1845 1823 1948 1905 1877 1909 1963 1915 1847 1852 1937 1869 1869 1880 1959 1998 1895 1899 1897 1915 1929 1913 1951 1969 1947 2004 1886 1897 1867 1909 1908 1976 1882 1868 1985 1902 1866 1935 1908 1865 1854 1899 1894 1912 1982 1773 1922 1929 1916 1921 1890 1896 2005 1839 1918 2005 1834 1907 1876 1913 1928 1968 1886 1966 2002 1859 1932 1898 1847 1814 1978 1923 1926 1847 1887 1892 1870 1909 1952 1925 1994 2009 1844 1932 1856 1930 1968 1950 1888 1934 1978 1886 2003 1961 1917 1871 1905 1898 1922 1965 1889 1938 1950 1852 1916 1889 1934 1925 1908 1955 1893 1914 1852 1876 1865 1870 1894 1903 1889 1974 1895 1928 1947 1874 1899 1865 1929 1868 1928 1820 1830 1823 1932 1907 1939 1891 1968 1941 1896 1916 1870 1878 1863 1881 1880 1939 2013 1936 1877 1912 1908 1927 1907 1845 1900 1948 1899 1931 1857 1906 1908 1840 1874 1836 2000 1880 1906 1889 1965 1916 1931 1916 1899 1918 2004 1958 2005 1880 1955 1938 1946 1923 1822 1804 1971 1960 1960 2012 1927 1909 2047 1873 2001 1896 1875 1997 2025 1907 1953 1939 1928 1948 1871 1986 2022 2006 1938 1904 1968 1940 1876 1994 1947 1952 2011 1925 1940 1881 1993 2004 2029 1936 1914 1967 1886 1927 1991 2060 2004 1874 2009 1865 1938 2013 1960 1943 1981 1960 1995 1988 1902 1926 1917 1956 1945 1987 1921 1852 1942 1872 1938 1921 1947 1955 1880 1942 1992 1838 1998 1952 1993 1804 1949 1943 1930 1933 1917 1983 1877 1942 1984 2022 1872 1950 1887 1908 1941 1895 1929 1942 1992 1892 1909 1986 1968 1954 1928 1883 1995 1895 1902 1993 1931 2035 1900 1917 1935 1901 1977 1922 1907 2061 1980 1878 1862 1941 1957 1942 1841 1933 1892 1881 1874 1925 1932 1919 1973 1958 1926 1869 1856 1995 1887 1955 1910 1930 1912 1918 1864 1955 1944 1862 1924 1924 1875 1971 1847 1910 1952 1909 1974 2020 1892 1963 1996 1953 1972 1996 1936 1878 1892 1925 1899 1948 1850 1870 1876 1910 1885 1970 1911 1895 1958 1897 1950 1926 1931 1909 1928 1971 2000 1932 1931 1902 1947 1842 1930 1967 1930 1897 1886 1964 1864 1918 1937 1890 1920 1887 1926 1923 1948 1930 1949 1893 1944 1933 1992 1996 1890 1858 1954 1926 1930 1911 2015 1892 1879 1870 1872 1926 1903 1901 1892 2013 1953 1904 1883 1906 1988 1925 1890 1922 1931 1949 1902 1896 1951 1913 1830 1914 1955 1920 1946 1922 1914 1917 2012 1938 1881 1928 1906 1991 1871 1880 1906 2011 1935 1932 1851 1912 1896 1901 1940 1972 1939 1915 1992 1949 1939 1945 1894 1814 1977 1967 1987 1929 1852 1983 1849 1933 1945 1886 1899 1930 1952 1962 1979 1974 1974 1979 1927 1979 1932 1913 2009 1945 1988 2040 2002 2027 1958 2027 1919 2013 1991 1955 2004 2023 1974 2001 2012 2058 2039 2076 2067 1924 2069 1967 2000 1945 2058 1993 1913 2046 2039 1974 2019 1923 2073 1978 2001 2109 2016 2059 2013 2037 2022 2028 2038 2014 2000 2028 2044 1973 1978 1963 2009 2009 1961 1969 1960 2032 1960 2027 2084 1976 2010 1995 1947 2065 2048 2032 2002 1940 1990 1961 1997 2089 1924 1954 2000 1992 1981 1985 1894 1914 1967 1929 1972 1923 1923 1995 1985 1951 1942 1958 1993 1954 1918 1977 1937 1894 1906 1948 1998 1992 1983 1987 2015 1961 1993 1858 1876 1981 1967 2016 1883 2053 2062 2011 1988 1932 1959 1847 1949 1920 1930 2043 2040 1962 1914 1933 1965 1903 2008 1915 1904 1966 1909 1966 1977 1957 1929 1984 1921 1979 1916 1931 1976 1964 1965 1910 1975 1897 1932 2028 1982 1927 1908 2000 2007 1945 1929 1998 1890 1953 1957 1930 1883 1939 1974 1892 1953 1936 1926 1953 1996 1962 2011 1901 1974 1906 1914 2023 1916 1887 1937 1963 1956 1923 1971 1994 1988 1931 1984 1978 1991 1955 1937 1900 1903 1914 1931 1890 1952 1880 1890 1977 1950 1931 2018 1977 1882 1954 1836 1962 1933 1900 1959 1917 1943 1860 2026 2046 1984 1979 2032 1946 1841 1971 1981 1970 1899 1913 1934 2069 1931 1838 1889 1887 1812 1942 1972 1985 1953 1895 1965 1989 1925 1939 1949 2061 1915 1903 1849 1913 1947 1926 1933 1940 2029 1959 1973 1933 1948 1873 1919 1892 1963 1897 1984 1903 1885 1942 1880 1863 1885 1933 1943 1904 1911 1928 1946 1955 1852 1897 1898 1885 1916 1871 1997 1965 1966 1942 1861 1946 1900 1899 1926 1956 1948 1880 1902 1972 1924 1920 1897 1932 1936 1953 2040 1868 1986 1852 1910 1884 1981 1859 1926 1830 1896 1955 2006 2028 1856 1873 1901 1925 1909 1906 1925 1871 1927 1963 1930 1935 1949 1938 1999 1911 1966 1983 2000 1991 1914 1848 1936 1901 1967 2036 1867 1957 1936 1917 1965 1928 1916 1919 2033 1950 1958 1909 1986 1930 1939 2009 1902 1918 1889 1859 1880 2006 2014 1905 1881 1954 1973 1968 1932 2012 1913 1854 1983 1941 1968 1930 1991 1955 2003 2001 1957 1941 1958 2000 1892 1894 1987 1949 1848 1961 1977 1944 1918 1916 1910 1892 1975 1923 1896 1940 1885 1977 1934 1904 1959 1888 1970 1920 1930 1973 1936 1987 1955 1925 1850 1855 1963 1950 2070 1946 1964 1999 2009 1924 1886 1910 1996 1842 1937 1923 1948 1922 1836 1966 2008 1882 1962 1843 1900 1961 1939 2062 1960 1973 1953 1977 1969 1966 1936 1943 1897 1998 1971 2005 1888 1836 1920 1919 1992 1898 1881 1940 1952 1920 1949 1962 1906 1923 1900 1856 1917 1844 1987 1968 1907 1938 1897 1924 1849 1984 1972 1969 1897 1892 1966 1998 1946 1924 1904 2025 1977 2005 1948 1967 1943 1909 1955 1890 1919 1970 1933 2008 2020 2023 1907 1916 1913 1939 2034 1903 1885 1989 1962 1916 1915 1952 2000 1880 1986 1950 1944 1873 1945 1859 1954 1952 1984 1868 1964 1956 1940 1914 1952 1978 1887 1947 2051 1844 2043 1938 1996 1908 1903 1929 1960 1933 1948 2016 1895 1933 1948 1972 1977 1951 2007 1923 1950 1932 1980 2015 1858 1953 1916 1901 1995 1909 1921 1929 2002 1947 1949 1943 1927 1919 1958 1963 1958 1923 1951 1904 1911 1954 1991 1979 1915 1939 2031 1909 1965 1912 1899 1909 1972 1890 2009 1911 1883 1881 1949 1981 1961 1926 1969 2007 2000 1976 1936 1874 1895 2024 2021 1936 1911 1917 1982 2000 2000 1946 1965 1920 1993 2013 1974 1928 1983 1969 1972 1964 1980 1898 1930 1893 1986 1903 1913 1909 1902 1903 2007 1913 1932 1905 2033 1944 1932 2027 1955 2086 2031 1989 1953 1957 1969 1931 1963 2019 1961 2011 1967 1967 2011 1973 2088 1947 2010 1939 1952 1942 1957 1971 1986 1955 1872 2025 1979 1948 1986 1928 1940 1990 1986 2058 1990 1982 1942 2006 1900 1947 1943 2000 1988 2087 1945 2014 1990 1932 1933 1997 2015 2018 1961 2063 1952 2024 2007 2016 1963 2037 2002 2054 2041 2009 2007 2064 1957 1961 1995 1999 1960 2003 1974 2023 2036 1943 2015 2006 1997 1992 1938 2001 2023 2057 2014 2001 2007 1975 1923 1952 1997 2033 1985 2038 2015 1985 2018 2015 2065 1904 2030 2036 1972 1958 1914 1953 1993 1904 1937 1994 1999 2034 2020 1960 2003 2064 1994 1970 1996 2011 1987 2006 2001 1999 2019 2044 1956 1930 2136 1909 1974 2042 2056 1868 1974 1964 1956 1963 2014 1960 1951 1883 2032 1980 1968 2036 1997 1983 1952 2009 2067 2033 1878 2034 1961 2003 2021 1969 1933 1959 2006 2069 2030 2080 2035 2007 1950 1973 1945 2086 1993 1965 1964 2045 2092 2049 2015 2026 2005 2010 2049 2015 1994 2054 2026 2115 1982 1989 2025 1949 2068 2044 2060 1941 2044 1995 2009 2014 1985 1899 1944 1994 2035 1994 1992 2022 2039 2035 2009 1957 1939 1979 2026 1946 1977 1919 2001 2022 2114 1957 2025 2032 1926 1989 1985 1901 1979 1976 1979 2015 1994 1954 2020 1966 1980 2041 1951 1965 1967 1968 1878 2018 1920 2032 1946 2148 2013 1900 1999 1968 1947 1969 1963 2001 1957 2015 1993 2052 2040 2014 2111 1986 2033 2015 2026 2002 1973 2077 2051 2059 1969 2029 2011 2040 2037 2083 1982 2035 2025 2038 2060 2015 2028 2092 2046 2005 2050 2132 2043 2092 2102 2114 2044 2047 2079 2037 2119 2037 2020 2137 2082 2122 2056 2137 2088 2170 2158 2055 2215 2085 2141 2026 2155 2132 2083 2094 2117 2068 2139 2084 2111 2158 2121 2200 2263 2161 2158 2219 2194 2264 2132 2230 2179 2186 2178 2265 2232 2180 2367 2238 2161 2148 2164 2232 2238 2187 2112 2167 2166 2139 2179 2117 2198 2175 2092 2106 2127 2198 2156 2147 2077 2073 2114 2042 2115 2066 2090 2192 2054 2046 2113 2088 2145 2007 2095 2000 1973 2036 2109 2012 2048 2003 2044 2026 2057 2078 2119 2019 2041 2003 2014 2016 2153 2052 2056 2094 2150 2053 2043 2089 2071 2113 2080 2180 2030 2075 2126 2097 2093 2162 2194 2061 2080 2153 2018 2212 2227 2064 2067 2161 2118 2237 2132 2081 2111 2090 2090 2079 2151 2210 2060 2075 2138 2112 2111 2039 2134 2098 2112 2104 2030 2098 2075 2115 2128 2040 2040 2043 2034 2048 1985 2093 2089 1996 2033 2024 2025 2050 2069 1963 2040 1906 2022 2082 1998 1999 1920 2047 1997 2009 1946 2007 1995 2008 2029 1983 2018 1934 2023 1964 2030 1987 2017 2020 1941 2018 2033 1993 2113 2026 2018 2022 2036 2090 2060 2149 2011 2000 2062 2068 1953 2021 2018 2036 2027 2028 2021 1992 1991 2089 1951 2027 2132 2077 1985 2025 2012 2058 2083 1988 2105 2008 1910 2061 1965 2021 2037 2093 2056 2053 2018 1992 2000 2031 2048 2022 1989 2046 2060 1963 2067 2039 2061 1994 1962 2046 1998 2036 2051 1969 2047 2041 2022 1993 2007 2065 2024 2069 1955 1992 2086 1967 1976 1964 1969 1964 2026 1920 2039 2092 1991 2037 2047 2099 2048 2027 2018 1951 2044 2058 1972 1997 2027 2104 1982 1993 1963 2075 2061 1989 1971 1995 2032 2078 2000 2106 2034 1946 1954 2010 1999 1994 1977 2001 2018 2049 1991 2036 1992 1896 1981 1970 1906 2062 2074 1940 1905 1905 1975 1965 1965 1988 1992 1971 1964 1970 1928 1966 1974 1873 2013 1976 1950 2029 1945 1981 2021 1941 1982 2026 1986 1938 1988 2036 1949 2076 2012 1929 2017 1996 1897 2054 1969 2022 1961 1918 2059 1967 2052 1958 1981 1893 2032 1927 1932 1973 1969 1907 2023 1987 1906 1980 1937 1979 1910 2015 1925 1946 1899 1958 1888 1969 1960 1989 1910 1978 1969 1979 2040 1976 2048 1992 1987 1954 1822 1881 1949 1979 1997 1936 1961 1926 1926 1896 2072 1949 2003 1957 1956 1980 2037 1999 1946 1938 1906 1989 1951 1987 2048 1999 1972 1940 1989 1928 1900 1919 2047 1931 2040 1950 1994 1984 1988 1991 1957 1962 2002 1930 1994 1945 1945 1878 1979 1940 1976 1973 1988 1997 1998 1915 2002 1936 1943 1948 1949 1923 1924 1983 1971 2013 1963 2041 1963 1980 1972 1977 1941 1911 2014 1938 2029 1859 1992 1987 1966 1981 1992 1959 2053 1930 1973 2037 1955 1968 1991 2005 1941 1956 1977 1991 1977 1888 1947 2009 1941 1892 2003 2015 1978 1909 1926 1982 1974 1942 1984 2064 1954 1916 1915 1988 1994 1951 2054 1938 1977 1961 1910 1994 1994 2008 2019 1945 1951 2031 1981 1978 2036 2032 1958 1967 1962 1974 1900 1910 2001 1948 1944 1910 1973 1969 2022 1924 1931 2016 1945 1946 2039 1919 1944 1958 1917 1966 2045 1929 1996 1918 1960 1946 2006 2043 1997 1930 1942 1950 2015 1931 2085 1981 1957 1902 2025 2074 2012 1944 1957 1943 1890 1917 1952 1958 1938 1996 1945 2009 1991 1981 1991 1926 1984 1956 1984 1998 1915 1896 2010 1935 1971 1888 1963 1970 1967 2000 1928 1960 1974 1890 1990 1982 1976 1987 1912 1971 1937 1948 1988 1957 1958 1959 1950 1954 1961 1921 2030 1934 1982 1929 1946 1954 2011 1985 1925 2034 1953 1999 2018 1972 1922 2034 1936 1921 2032 1904 1974 1967 2015 1957 1957 1976 2060 2025 2041 1936 1971 2006 2042 1924 1981 1974 1978 1949 1966 1986 2028 2033 2039 2039 1923 1951 2031 2016 1982 1950 1907 1953 2050 2004 2110 2029 2081 2021 1942 1920 1971 2067 2007 1921 1929 1982 2028 1956 1917 2020 2005 2120 2027 2038 1906 2082 1969 1953 1985 2025 1874 1886 1973 1983 2040 1947 2028 1923 1945 1940 2044 2006 2022 1963 1976 2023 2052 1916 1986 1966 1993 1943 1991 1951 2024 1946 1949 2037 1987 1980 1969 1974 1919 2050 1960 1941 1929 1979 1986 2047 1947 1931 1947 1971 2008 2003 2002 2110 1956 1956 1950 1958 1993 2005 1988 1933 2041 1978 1997 2040 2001 1992 2018 1954 1974 1959 2025 2013 2004 1953 2009 1938 1999 1982 2005 2029 1924 2056 1970 1985 1921 1936 1964 1963 2027 1963 1963 1936 1960 1949 1963 1986 1976 1954 2018 1959 1984 1978 1977 1920 1946 1944 2010 2047 2039 1892 1901 1998 1982 1981 2011 1968 1958 1887 1922 1999 1988 1979 2012 1979 1999 1958 2005 2010 1932 1937 1941 1955 1996 1975 1984 1996 2005 2021 2014 1977 1933 1999 2019 1954 2019 1934 1982 1988 2053 1903 2009 1947 1958 1853 1941 2001 2010 1918 1988 1949 1937 1971 1894 2057 1957 2010 1950 2007 1921 1997 1940 2076 1965 1969 1987 1978 2022 2035 2020 1993 1980 1999 1974 2000 1970 1969 1981 1962 1930 1964 2077 1980 2015 2022 2018 1943 2010 2006 2032 2091 2046 2013 2032 2069 2070 2068 2064 2033 2123 2003 2028 2034 1993 2064 2011 2064 2053 1965 1976 2044 2106 2018 2018 2110 2036 2034 2079 2027 2093 1992 2039 2000 2171 2132 2095 2026 2034 2072 2132 2149 2132 1997 2140 2000 2087 2083 2165 2097 2158 2100 2106 2127 2012 2139 2085 2092 2089 2075 2134 2094 2146 2147 2141 2163 2073 2110 2163 2048 2140 2058 2071 2190 2156 2041 2074 2114 2211 2099 2106 2212 2141 2111 2121 2207 2122 2080 2083 2073 2146 2121 2096 2098 2132 2153 2106 2088 2116 2095 2022 2089 2047 2083 2042 2084 2077 2061 2024 1992 2124 2005 2056 2091 1978 2067 2034 2066 2014 2062 1995 1998 2069 2068 1999 2002 2011 2071 2050 2046 2030 2015 2049 2071 2010 2069 2088 2016 2078 2018 1990 2049 2084 2089 1987 2054 2052 2041 2050 2120 2014 2038 2009 2095 2178 2030 2066 2043 2055 2198 2085 2073 2113 2064 2061 2045 2012 2106 2073 2045 2094 2044 2058 2079 1984 2053 2113 2102 2086 2053 2079 2101 2039 2084 2065 2117 2035 2089 2104 2097 2090 2023 2033 2100 2024 1996 2025 2055 2072 2038 2063 2031 2115 2098 1962 1953 1973 2025 2077 1949 1999 2055 1934 1981 1923 1936 1965 2018 2103 2044 1986 2038 1983 1980 1928 1971 1957 2070 2027 1980 1954 1983 2068 2018 1998 2051 1954 2030 2015 2011 2042 2024 2027 2019 1998 1997 2015 1967 2021 2062 2010 1917 2021 1965 1992 1990 2018 1957 2030 1985 2067 2009 2058 2051 2045 2089 2174 2027 2074 2084 1929 2042 1993 1931 2004 2055 1954 1980 2042 1948 2027 2085 2089 1998 2004 1987 1998 2048 1999 2001 1961 1974 1981 2040 1963 1982 1995 2015 2006 2088 1952 1992 2004 1955 2047 1986 1993 1976 1920 2106 1989 2044 2091 2087 2064 1950 2012 2024 1990 2030 2025 2017 1956 1975 1950 1997 1946 2021 1954 2011 2065 2021 2031 2056 1961 2028 2004 2070 2050 2042 1978 1977 2024 2082 1974 1975 2024 1956 2046 1979 2108 1969 1990 2016 2075 1964 1992 2030 1948 2021 1937 2039 1918 2023 2008 1998 2059 1955 2044 1958 2108 2052 2038 2058 1962 2001 1939 2041 1967 1979 1929 2019 1981 1951 2000 2030 2015 1960 1969 1990 2021 2013 1993 2023 1922 1957 2012 2041 1899 1888 2057 1976 1997 2000 2042 2011 2025 1985 1954 2010 1939 2019 1938 1955 1987 1995 1920 1975 2021 1999 2004 1943 1996 2009 1980 1970 1988 2047 1995 2055 2008 1990 1969 1968 2052 1908 2133 1975 2090 1990 2052 2048 1941 2046 2004 1977 1854 1959 1954 1924 2034 1952 2013 2053 1964 1965 2044 2021 1899 1946 1972 1991 2080 2012 1914 1942 2004 1993 1922 1955 2042 1943 1952 1989 2003 2000 2063 2010 1913 1993 1887 2017 1987 1992 1959 1973 1985 1982 2032 2052 2060 2022 2003 2028 2076 1999 2020 1965 1950 2003 1936 1961 1959 1993 2004 1995 1959 1978 2003 1842 2008 1991 2012 2032 2081 2016 2004 2054 2050 1903 2043 1921 1955 1959 1927 2023 1986 1870 1907 1942 1964 1957 1883 2001 2050 1939 1941 1991 1936 2035 1979 2038 2024 1961 2024 2041 1941 2089 1986 1925 2004 2003 2016 2037 1971 2012 1974 1944 2067 2034 2006 1986 1987 1931 2048 1951 2006 2093 1952 1963 1880 2018 1952 1970 1986 2013 2008 1923 1942 2039 1942 2035 2005 1876 1983 1968 2021 2052 1935 1973 1908 1974 2025 1984 2027 1871 2061 1949 2021 2001 1965 1989 2011 2003 2021 2080 1900 1996 1993 2064 2038 1957 2016 1989 2058 1949 2007 1918 2022 2005 1915 2056 1975 1990 1940 1939 1989 2008 2023 1998 1999 1894 1939 2038 1933 2012 2022 1971 2060 2002 1951 2056 2008 2011 1992 2016 1935 2096 1988 1970 1960 2016 1995 1973 2023 2008 1899 2080 1977 2023 1977 2067 2054 1989 2048 2025 2000 1996 2026</counts>
			</dataPoints>
		</scan>
	</xrdMeasurement>
</xrdMeasurements>
