<?xml version="1.0"?>
<xrdMeasurements xmlns="http://www.xrdml.com/XRDMeasurement/2.3" xmlns:xsi="http://www.w3.org/2001/XMLSchema-instance" xsi:schemaLocation="http://www.xrdml.com/XRDMeasurement/2.3 http://www.xrdml.com/XRDMeasurement/2.3/XRDMeasurement.xsd" status="Completed" recordIdentifier="{23FCE6A7-7F6E-4C14-93F0-343FAB7928AC}">
	<comment>
		<entry/>
	</comment>
	<sample type="To be analyzed">
		<id>GPSS_Li1p5Mn0p5Y0p5Cl4_101825_68f3cc5f028f64128e25b3b0</id>
		<name></name>
		<preparedBy></preparedBy>
	</sample>
	<xrdMeasurement measurementType="Scan" status="Completed" sampleMode="Reflection">
		<usedWavelength intended="K-Alpha 1">
			<kAlpha1 unit="Angstrom">1.5405980</kAlpha1>
			<kAlpha2 unit="Angstrom">1.5444260</kAlpha2>
			<kBeta unit="Angstrom">1.3922500</kBeta>
			<ratioKAlpha2KAlpha1>0.5000</ratioKAlpha2KAlpha1>
		</usedWavelength>
		<incidentBeamPath>
			<radius unit="mm">145.00</radius>
			<xRayTube id="1010048" name="Empyrean Cu LFF HR (9430 033 7310x)">
				<tension unit="kV">40.0</tension>
				<current unit="mA">15.0</current>
				<anodeMaterial>Cu</anodeMaterial>
				<focus type="Line">
					<length unit="mm">12.0</length>
					<width unit="mm">0.4</width>
					<takeOffAngle unit="deg">6.0</takeOffAngle>
				</focus>
			</xRayTube>
			<sollerSlit id="21010002" name="Soller slits 0.04 rad.">
				<opening unit="rad">0.0400</opening>
			</sollerSlit>
			<mask id="22031000" name="Fixed mask 13 mm">
				<width unit="mm">9.00</width>
			</mask>
			<divergenceSlit id="22120001" name="Divergence slit 1°" xsi:type="fixedDivergenceSlitType">
				<distanceToSample unit="mm">50.00</distanceToSample>
				<height unit="mm">1.52</height>
			</divergenceSlit>
		</incidentBeamPath>
		<sampleMovement xsi:type="spinningSampleMovementType">
			<spinnerRevolutionTime unit="seconds">1.0</spinnerRevolutionTime>
		</sampleMovement>
		<diffractedBeamPath>
			<radius unit="mm">145.00</radius>
			<antiScatterSlit id="22090040" name="AS slit 9 mm (PIXcel)" xsi:type="fixedAntiScatterSlitType">
				<height unit="mm">9.00</height>
			</antiScatterSlit>
			<sollerSlit id="21020003" name="Large Soller slits 0.04 rad.">
				<opening unit="rad">0.0400</opening>
			</sollerSlit>
			<filter id="20030001" name="Large beta-filter Nickel">
				<material>Ni</material>
				<thickness unit="mm">0.020</thickness>
			</filter>
			<detector id="7010019" name="PIXcel1D-Medipix3 detector" xsi:type="rtmsDetectorType">
				<phd unit="keV">
					<lowerLevel>4.02</lowerLevel>
					<upperLevel>11.27</upperLevel>
				</phd>
				<mode>Scanning</mode>
				<activeLength unit="deg">5.542</activeLength>
			</detector>
		</diffractedBeamPath>
		<scan appendNumber="0" mode="Continuous" scanAxis="Gonio" status="Completed">
			<header>
				<startTimeStamp>2025-10-21T09:58:04-07:00</startTimeStamp>
				<endTimeStamp>2025-10-21T10:06:11-07:00</endTimeStamp>
				<author>
					<name>AutomatedUser</name>
				</author>
				<source>
					<applicationSoftware version="1.7b (136)">PANalytical Aeris Instrument Suite</applicationSoftware>
					<instrumentControlSoftware version="3.2.00000000 20240306">AERIS</instrumentControlSoftware>
					<instrumentID>950485</instrumentID>
				</source>
			</header>
			<dataPoints>
				<positions axis="2Theta" unit="deg">
					<startPosition>10.00943322</startPosition>
					<endPosition>99.99442286</endPosition>
				</positions>
				<positions axis="Omega" unit="deg">
					<startPosition>5.00471661</startPosition>
					<endPosition>49.99721143</endPosition>
				</positions>
				<commonCountingTime unit="seconds">12.495</commonCountingTime>
				<counts unit="counts">2633 2770 2613 2663 2706 2686 2597 2713 2595 2659 2659 2591 2651 2619 2654 2721 2693 2575 2696 2545 2682 2651 2587 2660 2623 2629 2610 2700 2627 2634 2690 2603 2561 2650 2561 2632 2710 2572 2583 2511 2630 2600 2629 2632 2573 2570 2585 2552 2591 2607 2640 2618 2660 2614 2625 2571 2597 2520 2581 2595 2620 2578 2627 2509 2565 2597 2641 2647 2609 2614 2656 2585 2505 2553 2579 2617 2543 2629 2430 2637 2576 2507 2448 2504 2541 2490 2585 2542 2487 2554 2476 2510 2548 2551 2595 2486 2629 2528 2429 2442 2463 2547 2619 2535 2535 2431 2566 2498 2532 2533 2572 2512 2576 2459 2483 2565 2512 2535 2488 2603 2449 2566 2486 2599 2500 2559 2396 2504 2503 2538 2541 2500 2610 2476 2550 2514 2514 2568 2496 2493 2527 2515 2468 2487 2510 2504 2439 2446 2467 2474 2446 2450 2414 2538 2465 2540 2460 2507 2450 2468 2546 2456 2396 2521 2410 2452 2387 2439 2523 2493 2535 2439 2463 2479 2444 2396 2459 2383 2433 2334 2397 2409 2496 2448 2481 2476 2431 2421 2377 2357 2362 2428 2414 2412 2475 2445 2461 2510 2393 2381 2445 2467 2373 2355 2322 2420 2412 2454 2344 2427 2491 2413 2385 2508 2436 2400 2403 2349 2413 2389 2302 2353 2392 2432 2359 2368 2379 2391 2388 2292 2411 2425 2343 2301 2301 2490 2318 2398 2393 2358 2444 2298 2402 2317 2352 2379 2328 2383 2391 2456 2343 2377 2404 2396 2439 2317 2482 2366 2455 2478 2397 2429 2385 2379 2354 2507 2389 2372 2423 2355 2410 2472 2461 2383 2442 2455 2474 2353 2412 2459 2429 2449 2341 2404 2406 2425 2388 2297 2398 2496 2437 2377 2409 2432 2337 2299 2298 2449 2439 2586 2461 2459 2470 2465 2469 2432 2393 2471 2542 2505 2481 2552 2564 2496 2479 2439 2469 2548 2542 2519 2468 2549 2490 2530 2591 2491 2550 2569 2516 2469 2486 2559 2599 2593 2565 2573 2550 2652 2504 2650 2624 2617 2582 2690 2609 2677 2681 2539 2589 2648 2616 2669 2645 2656 2726 2764 2625 2747 2683 2663 2763 2712 2798 2769 2709 2683 2710 2720 2770 2722 2725 2837 2799 2850 2772 2791 2943 2780 2807 2886 2851 2866 2850 2807 2780 2882 2791 2898 2877 2904 2906 2921 2939 3028 2923 3027 2941 2924 3025 3053 3118 3156 3108 3067 3203 3172 3289 3188 3142 3179 3223 3305 3291 3221 3201 3192 3109 3278 3100 3215 3252 3203 3182 3276 3242 3299 3305 3303 3304 3267 3250 3154 3388 3299 3231 3193 3248 3230 3414 3224 3346 3199 3259 3177 3360 3220 3269 3265 3231 3237 3242 3310 3271 3266 3319 3252 3312 3175 3314 3238 3279 3238 3160 3215 3197 3291 3164 3235 3062 3191 3222 3249 3042 3131 3239 3149 3169 3175 3173 3198 3106 3163 3138 3041 3166 3075 3180 3240 3153 3093 3184 3096 3085 3061 3018 2967 3143 3139 3029 3092 3103 3040 3141 3143 3059 3174 3096 3149 3182 3249 3189 3080 3186 3188 3219 3229 3251 3387 3302 3418 3353 3390 3555 3406 3330 3453 3355 3278 3321 3446 3352 3287 3234 3321 3353 3242 3179 3156 3151 3187 3144 3190 3180 3262 3128 3140 3137 3087 3258 3149 3106 3102 3190 3045 3086 3098 3052 3081 2979 2956 3017 3011 2916 3036 3023 2996 3009 3078 3069 3067 3015 3034 2964 3003 2996 2943 2957 2865 3001 2823 2937 2872 3001 2972 2902 2846 2746 2872 2912 2922 2946 2924 2929 2852 2817 2792 2876 2702 2789 2786 2918 2769 2824 2787 2685 2785 2665 2640 2847 2662 2714 2773 2809 2686 2685 2755 2799 2767 2735 2646 2748 2643 2797 2657 2730 2661 2748 2699 2786 2581 2777 2661 2706 2691 2627 2800 2597 2639 2678 2583 2700 2634 2751 2655 2829 2688 2725 2635 2658 2688 2695 2718 2740 2627 2739 2803 2622 2712 2777 2748 2788 2841 2741 2641 2692 2773 2719 2681 2787 2834 2739 2672 2757 2742 2639 2716 2786 2694 2683 2584 2618 2635 2658 2682 2718 2767 2690 2810 2689 2713 2647 2642 2702 2671 2696 2648 2723 2751 2645 2775 2659 2680 2660 2665 2617 2629 2734 2753 2617 2758 2730 2718 2678 2697 2737 2731 2760 2584 2743 2610 2690 2680 2616 2563 2655 2643 2726 2680 2711 2668 2635 2638 2705 2570 2677 2597 2692 2643 2753 2655 2684 2608 2568 2608 2630 2531 2544 2527 2576 2652 2573 2656 2574 2562 2575 2511 2616 2517 2607 2632 2604 2520 2582 2541 2573 2557 2602 2668 2532 2659 2508 2631 2576 2595 2527 2584 2506 2539 2505 2680 2492 2502 2498 2524 2483 2362 2465 2550 2430 2526 2453 2484 2456 2528 2387 2420 2502 2510 2464 2479 2427 2476 2403 2422 2484 2415 2507 2385 2500 2453 2480 2492 2400 2397 2424 2474 2433 2465 2423 2413 2396 2493 2473 2318 2406 2451 2487 2510 2439 2410 2426 2380 2383 2415 2343 2466 2294 2408 2419 2411 2398 2521 2482 2416 2459 2315 2345 2356 2348 2323 2385 2326 2412 2390 2276 2368 2379 2376 2377 2383 2377 2337 2393 2310 2436 2346 2467 2439 2364 2310 2375 2375 2288 2441 2401 2375 2358 2449 2357 2393 2401 2356 2404 2381 2424 2307 2278 2392 2341 2348 2373 2260 2381 2314 2275 2268 2381 2412 2299 2369 2332 2275 2303 2285 2348 2261 2301 2319 2360 2318 2299 2316 2215 2269 2303 2357 2235 2294 2350 2246 2267 2296 2330 2279 2283 2190 2250 2272 2329 2207 2342 2329 2277 2248 2304 2310 2270 2311 2243 2247 2279 2306 2217 2233 2272 2214 2201 2185 2365 2227 2388 2214 2225 2191 2307 2215 2341 2304 2307 2262 2249 2285 2252 2232 2295 2215 2268 2258 2183 2241 2235 2255 2149 2208 2278 2190 2182 2225 2179 2173 2118 2144 2199 2198 2246 2300 2201 2222 2332 2196 2210 2200 2269 2151 2288 2140 2235 2210 2171 2229 2150 2243 2167 2175 2208 2175 2173 2158 2276 2282 2151 2190 2167 2217 2279 2138 2196 2247 2126 2158 2242 2181 2249 2224 2234 2222 2185 2301 2130 2209 2196 2208 2216 2289 2202 2204 2249 2222 2168 2209 2184 2217 2220 2080 2194 2255 2153 2174 2177 2200 2144 2181 2177 2260 2227 2226 2174 2231 2298 2224 2227 2231 2216 2272 2181 2189 2195 2281 2261 2205 2237 2222 2230 2236 2162 2241 2266 2254 2178 2253 2157 2258 2217 2182 2203 2219 2277 2231 2284 2235 2278 2179 2204 2302 2307 2248 2206 2121 2241 2318 2203 2239 2172 2213 2214 2218 2231 2187 2203 2169 2272 2199 2229 2247 2249 2158 2283 2227 2214 2238 2114 2272 2205 2215 2186 2297 2149 2228 2268 2224 2242 2273 2246 2285 2185 2283 2158 2267 2271 2306 2303 2172 2243 2214 2219 2296 2218 2274 2127 2191 2247 2256 2262 2329 2237 2187 2293 2217 2122 2249 2306 2221 2130 2185 2200 2328 2212 2261 2135 2297 2259 2233 2289 2327 2163 2307 2241 2198 2220 2248 2259 2339 2346 2197 2278 2195 2144 2261 2248 2182 2133 2238 2147 2199 2258 2149 2124 2204 2211 2185 2088 2057 2113 2108 2149 2136 2068 2155 2067 2113 2060 2233 2064 2110 2053 2033 2137 2116 2158 2145 2049 2115 2151 2089 2063 2101 2106 2092 2048 2092 2119 2110 2150 2120 2050 1997 2103 2018 1971 2049 2069 2047 2060 1959 2016 2029 1963 1983 1945 1980 2041 1989 1986 1985 1843 1983 1949 2061 1978 1963 2024 1918 1971 1932 1939 1916 1872 1912 1959 1833 1895 1936 1887 1960 1955 1890 1973 1849 1938 1887 1940 1887 1851 1748 1894 1786 1874 1734 1823 1823 1871 1761 1817 1756 1890 1767 1808 1832 1735 1851 1873 1801 1780 1851 1724 1850 1700 1741 1714 1678 1782 1760 1683 1742 1796 1759 1758 1747 1714 1720 1722 1736 1774 1746 1722 1693 1618 1719 1781 1632 1633 1749 1673 1683 1755 1697 1679 1686 1679 1702 1645 1705 1738 1676 1722 1651 1654 1735 1660 1630 1583 1627 1682 1641 1665 1611 1658 1608 1634 1674 1669 1659 1690 1599 1573 1750 1664 1624 1679 1560 1568 1631 1663 1633 1612 1608 1587 1637 1669 1650 1634 1658 1694 1580 1587 1657 1643 1616 1591 1643 1581 1616 1619 1700 1580 1629 1653 1686 1632 1620 1615 1622 1653 1578 1635 1606 1687 1625 1611 1565 1658 1668 1679 1611 1651 1657 1643 1651 1635 1571 1579 1606 1657 1650 1644 1581 1640 1647 1617 1580 1652 1649 1619 1574 1607 1563 1635 1647 1664 1625 1649 1633 1664 1598 1535 1593 1654 1629 1598 1712 1656 1632 1564 1590 1671 1622 1634 1599 1646 1655 1690 1663 1669 1614 1674 1664 1606 1643 1661 1593 1642 1683 1679 1690 1680 1714 1692 1611 1637 1620 1663 1754 1646 1618 1631 1630 1628 1675 1672 1675 1704 1712 1647 1775 1720 1709 1717 1723 1700 1616 1668 1709 1681 1652 1639 1708 1696 1653 1799 1628 1748 1642 1664 1711 1675 1679 1764 1654 1688 1682 1631 1642 1746 1682 1683 1723 1649 1702 1658 1704 1720 1622 1672 1691 1614 1707 1639 1624 1677 1559 1653 1649 1599 1634 1630 1694 1687 1686 1636 1631 1628 1577 1654 1606 1658 1584 1553 1571 1569 1617 1536 1524 1570 1577 1676 1584 1650 1565 1575 1499 1673 1702 1609 1527 1554 1536 1682 1592 1588 1587 1550 1557 1603 1606 1606 1599 1561 1602 1550 1544 1572 1543 1536 1470 1431 1491 1502 1551 1534 1575 1548 1487 1454 1481 1475 1430 1517 1542 1481 1523 1444 1569 1543 1467 1473 1495 1485 1471 1435 1442 1435 1456 1539 1496 1470 1485 1524 1469 1484 1465 1511 1453 1452 1497 1455 1488 1448 1444 1425 1455 1440 1420 1400 1487 1489 1464 1525 1414 1409 1437 1481 1530 1574 1515 1501 1534 1543 1544 1618 1551 1549 1502 1479 1575 1459 1514 1481 1536 1460 1494 1454 1472 1420 1507 1482 1487 1480 1428 1434 1435 1406 1414 1460 1419 1529 1510 1432 1485 1441 1389 1509 1464 1404 1412 1474 1480 1371 1391 1354 1334 1373 1386 1387 1384 1374 1385 1343 1368 1311 1369 1348 1298 1387 1389 1345 1408 1345 1282 1291 1356 1315 1363 1382 1346 1352 1336 1339 1307 1353 1295 1322 1194 1296 1244 1217 1259 1221 1277 1267 1296 1273 1372 1279 1188 1282 1243 1212 1315 1239 1325 1278 1323 1303 1232 1305 1268 1262 1298 1245 1293 1223 1357 1296 1294 1327 1332 1304 1355 1357 1406 1457 1468 1482 1557 1494 1586 1491 1444 1492 1457 1503 1494 1377 1456 1421 1417 1380 1467 1437 1345 1312 1404 1398 1410 1315 1344 1409 1371 1348 1330 1345 1399 1403 1350 1341 1311 1270 1332 1334 1286 1278 1270 1257 1299 1285 1265 1253 1347 1284 1219 1252 1208 1286 1252 1253 1266 1274 1298 1256 1202 1203 1256 1233 1179 1223 1270 1232 1189 1178 1204 1254 1157 1189 1193 1180 1165 1130 1241 1195 1076 1238 1122 1172 1158 1164 1188 1159 1143 1169 1210 1155 1151 1139 1122 1129 1126 1156 1102 1157 1100 1163 1152 1057 1130 1131 1066 1117 1098 1102 1138 1064 1014 1115 1083 1108 1082 1111 1106 1073 1054 1104 1060 1085 1037 1094 1095 1111 1092 1106 1070 1110 1003 1122 1033 1071 1053 1097 1045 1103 1064 1064 1052 1054 1074 1100 1046 1005 1120 1122 1099 1023 1073 1076 1097 1056 1032 1083 1048 1111 1031 1079 1069 1100 1039 1109 1149 1110 1107 1155 1179 1166 1194 1236 1291 1306 1335 1377 1438 1525 1656 1667 1872 1959 1957 2167 2212 2178 2208 2173 2271 2289 2155 2223 2227 2110 2112 2166 2029 1964 1922 1966 1895 1900 1916 1866 1871 1741 1795 1800 1759 1719 1792 1816 1685 1694 1701 1652 1628 1694 1622 1588 1529 1624 1617 1509 1478 1479 1407 1503 1494 1466 1401 1393 1420 1381 1359 1441 1388 1456 1354 1319 1331 1329 1331 1370 1334 1373 1368 1362 1334 1348 1377 1337 1328 1242 1334 1290 1280 1313 1258 1258 1210 1300 1247 1204 1182 1208 1168 1237 1220 1177 1154 1118 1099 1150 1120 1000 1159 1047 1073 992 1075 1058 1072 1022 1037 1044 991 1044 1046 1041 1001 1032 1015 1009 988 1033 941 1020 977 1005 976 973 940 1020 978 1008 997 1060 1068 1027 1054 1025 1052 993 1034 980 1100 990 1034 1050 1021 971 1045 962 980 982 922 977 958 980 979 966 1011 960 911 948 937 1030 993 992 951 994 947 968 947 973 915 1059 908 907 885 897 890 871 923 949 917 941 956 905 926 939 926 906 930 971 909 936 939 927 878 911 870 938 890 894 946 941 933 911 876 890 843 914 918 888 890 932 952 923 940 984 899 944 955 929 1016 981 963 949 1026 1032 1016 1000 1074 1070 1023 1003 1088 1112 1025 1051 1066 1061 1079 1020 1099 1140 1157 1127 1144 1265 1209 1263 1277 1367 1411 1403 1454 1505 1583 1647 1636 1768 1761 1763 1764 1756 1744 1651 1690 1697 1688 1599 1636 1655 1527 1579 1582 1524 1571 1474 1474 1472 1441 1353 1467 1362 1446 1336 1335 1282 1373 1384 1342 1232 1259 1240 1289 1122 1219 1212 1288 1232 1205 1207 1189 1182 1125 1232 1160 1209 1113 1109 1161 1102 1113 1114 1075 992 1133 1163 1113 1137 1069 1064 1052 1020 1107 1024 1057 1117 1049 1006 1090 1026 1033 1004 1022 1049 997 1016 1052 1034 1007 1023 953 987 988 979 1013 971 943 973 985 884 938 863 951 881 910 912 926 897 971 898 939 932 949 923 903 934 887 947 833 865 907 891 960 887 898 932 894 904 938 894 895 895 868 914 864 885 818 893 846 905 858 850 802 836 850 850 873 866 861 889 847 887 858 821 863 844 853 851 869 846 866 796 875 855 877 844 880 857 893 798 819 859 830 870 888 873 767 878 838 843 873 844 851 789 861 842 847 838 949 840 823 824 802 827 821 844 842 873 823 863 872 856 823 841 789 864 824 888 866 847 826 837 831 788 838 806 862 869 852 884 773 799 780 852 889 848 862 879 836 832 848 856 891 885 839 885 853 825 772 877 883 810 896 829 857 845 837 788 902 832 868 855 880 869 811 871 770 803 801 822 853 814 785 798 796 846 778 765 861 783 771 799 784 863 733 806 814 796 755 812 750 808 791 808 775 788 757 781 784 745 816 794 792 819 783 816 801 768 782 773 766 752 788 744 769 783 777 779 794 803 794 758 777 809 779 771 772 776 798 802 769 694 737 761 797 875 734 795 746 764 739 753 772 787 783 691 757 800 748 752 734 726 791 770 715 757 764 760 721 786 730 777 743 752 692 739 734 700 703 755 735 710 705 696 731 691 711 734 714 759 731 771 735 731 720 730 737 755 772 699 782 684 704 669 735 684 728 691 731 737 670 720 683 719 724 703 722 727 732 762 711 691 777 733 734 721 677 706 685 703 700 759 713 678 715 740 737 779 740 766 746 690 704 698 714 705 747 719 697 698 723 709 758 676 752 693 713 688 709 713 717 725 698 776 699 683 689 667 735 717 676 719 716 747 704 672 713 674 712 707 718 709 700 718 700 684 695 701 718 717 671 709 692 710 682 674 724 708 724 648 709 729 667 660 711 703 692 696 649 732 685 699 674 711 719 694 708 696 697 717 738 643 730 751 663 734 692 691 699 715 692 667 724 758 695 710 682 650 730 736 695 650 730 711 708 716 666 673 654 727 676 658 675 692 667 705 683 683 706 687 680 679 617 637 699 689 675 706 728 667 702 646 702 666 672 645 680 665 722 670 686 675 678 657 708 715 677 667 710 731 681 702 662 659 699 636 682 680 685 656 672 733 672 667 676 661 645 671 708 699 697 706 695 681 687 716 676 684 676 622 720 671 632 727 704 690 694 719 650 695 659 748 667 677 674 706 698 684 744 735 723 751 764 722 855 770 798 848 910 891 923 951 1033 1002 1072 1103 1145 1135 1167 1203 1194 1251 1187 1328 1284 1223 1258 1246 1225 1222 1173 1295 1337 1264 1213 1208 1212 1263 1192 1251 1104 1095 1177 1121 1197 1082 1118 1113 1030 1071 1067 1067 1019 993 955 969 972 906 934 932 886 906 854 885 860 912 831 788 827 803 856 798 829 800 905 807 824 845 834 833 771 820 788 816 794 779 821 812 780 786 812 725 776 799 717 764 753 728 733 720 779 692 730 730 688 742 708 690 714 692 677 702 693 683 706 637 707 640 639 644 640 671 671 677 690 635 666 609 691 658 640 642 656 666 638 608 610 646 619 648 663 640 682 623 646 692 663 649 641 634 651 664 658 642 642 643 620 635 622 620 675 662 667 689 624 698 680 685 700 673 706 648 700 678 719 691 712 655 727 695 645 676 704 701 713 720 708 676 700 738 667 708 693 643 674 683 636 767 702 741 686 683 733 701 711 682 659 650 652 658 677 666 641 702 639 644 653 683 673 653 681 652 643 698 650 668 605 641 654 649 683 677 680 691 613 684 688 643 696 662 668 658 626 648 616 656 682 681 702 662 636 666 625 627 623 639 665 644 660 699 613 611 664 637 643 591 654 667 680 581 653 625 635 604 646 592 617 610 618 627 665 595 648 636 596 632 603 696 644 668 591 644 652 659 594 625 615 623 655 638 628 588 623 608 616 632 660 641 627 653 665 653 606 670 680 697 681 660 726 712 725 710 687 677 709 686 669 646 675 650 692 674 643 635 663 696 656 636 676 679 659 630 626 672 708 631 614 611 646 641 641 608 627 633 689 597 627 678 667 656 632 657 643 658 651 694 658 664 720 660 697 629 717 695 723 673 678 647 701 690 730 605 684 672 658 658 689 674 689 644 673 650 757 674 667 656 688 686 625 623 628 640 664 656 630 661 649 637 651 672 594 651 623 620 659 653 573 674 594 617 568 603 652 575 608 620 636 592 643 616 616 665 593 628 608 620 623 586 676 565 654 611 632 606 658 613 652 631 594 640 653 662 642 601 625 597 637 592 554 639 587 636 583 635 618 628 595 612 641 618 594 609 610 630 618 600 673 653 595 611 580 642 615 589 572 573 598 640 627 592 602 595 592 572 601 594 643 596 580 605 570 569 617 579 563 581 619 607 596 575 587 630 600 606 605 642 588 612 580 579 603 588 583 536 576 605 589 551 608 594 614 557 604 593 568 570 568 533 586 564 582 577 565 569 536 514 542 572 566 553 559 583 564 609 595 614 575 549 556 592 579 550 568 580 554 637 491 564 553 552 513 565 599 561 550 544 514 553 534 597 580 556 598 569 519 517 559 566 567 593 570 633 558 557 559 527 561 641 557 596 569 565 578 569 550 543 562 513 563 559 581 542 566 560 520 550 541 545 568 592 539 550 563 539 558 541 553 584 572 600 525 558 572 564 555 571 608 554 554 582 560 568 562 584 499 581 540 545 564 580 544 587 573 552 569 547 569 571 574 616 553 555 561 585 588 584 578 606 540 551 644 571 594 576 576 591 597 622 593 619 574 620 578 561 599 595 648 617 589 587 638 592 599 602 600 582 613 574 647 620 561 624 621 673 667 634 640 652 626 609 679 616 613 627 621 627 624 635 621 618 646 669 634 733 667 665 669 699 681 696 708 730 791 834 829 817 834 885 901 893 883 893 932 911 917 962 969 988 1024 971 1027 1078 1020 1093 1163 1248 1221 1181 1241 1303 1309 1229 1277 1213 1299 1183 1209 1244 1241 1309 1314 1372 1293 1248 1280 1251 1199 1148 1118 1056 1025 976 982 1009 1032 1066 941 943 877 960 897 841 872 804 808 830 801 759 764 722 763 791 705 723 722 690 728 669 721 721 712 651 674 669 730 774 686 658 646 705 662 649 661 695 653 646 644 618 637 663 664 638 590 654 598 623 598 627 637 595 613 590 625 617 586 628 560 532 618 589 594 583 548 562 595 566 524 593 546 559 562 559 589 612 535 604 542 618 632 576 629 576 556 609 550 568 562 581 557 532 618 591 579 555 495 587 542 598 571 578 616 567 587 573 548 574 578 527 569 528 580 552 553 571 538 553 550 560 545 547 546 527 560 538 539 588 567 499 515 583 489 589 531 535 553 522 557 539 531 550 523 558 540 516 507 522 520 535 569 519 586 562 559 547 585 494 558 547 527 523 514 563 533 556 483 539 563 496 540 519 511 556 521 535 545 564 536 574 538 523 541 597 549 576 511 535 547 620 553 545 585 605 570 595 581 546 554 582 599 546 555 539 596 561 571 510 549 573 597 550 573 522 560 540 571 583 550 591 544 560 532 577 534 533 520 496 541 515 504 519 551 546 520 547 568 539 552 541 531 532 508 548 519 546 503 534 606 554 530 569 559 513 496 561 534 528 534 534 496 549 512 531 563 544 582 484 561 547 528 524 544 535 528 535 569 491 551 492 512 542 579 513 523 549 480 512 499 524 544 522 551 484 502 494 519 501 573 494 534 542 533 483 514 522 467 511 484 517 571 499 530 483 539 510 505 567 534 572 568 531 537 574 549 508 542 562 520 581 550 561 564 551 571 501 500 485 567 557 509 519 526 539 542 539 481 533 541 541 559 518 537 547 532 534 531 509 551 553 479 557 541 488 509 453 486 520 518 483 494 531 509 538 520 508 470 523 532 501 487 529 512 505 478 502 495 491 561 512 521 498 492 544 567 507 560 556 492 593 602 544 602 572 570 573 543 566 575 534 556 549 578 539 587 611 607 609 616 545 562 626 592 619 612 564 568 570 596 577 561 555 547 562 574 562 545 551 544 504 564 538 550 529 527 566 497 485 481 528 526 545 505 470 515 489 513 461 522 510 549 498 505 469 511 518 484 508 541 506 465 451 462 498 523 468 512 455 468 475 474 505 486 494 500 436 473 463 470 478 486 449 467 499 460 488 462 478 450 469 434 466 466 473 481 409 477 453 487 478 468 472 446 496 500 466 490 494 464 436 510 466 448 479 463 483 441 419 469 502 468 499 497 473 463 463 432 444 462 462 451 464 468 459 488 473 450 453 477 476 495 477 443 424 436 474 467 453 450 429 410 464 440 471 437 439 448 438 422 432 484 480 475 464 485 474 444 469 449 452 421 464 459 473 485 471 421 496 456 449 465 451 408 442 426 461 457 412 472 438 445 438 470 463 475 452 450 503 469 461 426 428 464 422 434 464 457 488 452 426 461 432 506 436 436 504 446 491 451 458 448 438 467 417 405 448 442 427 438 415 459 415 475 476 468 458 476 439 455 437 445 428 441 442 441 440 470 435 445 405 449 445 536 405 474 453 461 464 446 482 385 453 441 441 432 435 453 447 475 474 448 427 430 455 436 469 445 398 483 402 479 434 437 436 437 430 455 428 435 408 469 441 411 454 469 464 453 459 431 448 452 453 416 474 434 409 459 458 484 456 428 439 483 444 479 459 441 426 492 464 437 432 430 475 432 443 467 453 491 405 483 436 470 451 479 477 469 459 440 463 456 466 467 443 437 514 441 492 477 423 425 478 460 476 476 482 444 478 483 419 459 431 450 426 458 464 452 438 437 443 486 414 434 421 481 477 492 446 469 451 420 417 451 446 448 464 450 463 480 442 519 490 456 425 490 479 473 479 464 488 468 472 462 472 495 512 543 482 495 484 505 506 532 509 475 522 508 516 524 474 497 493 474 485 472 500 464 510 465 466 527 436 512 473 522 467 468 459 455 482 418 458 430 476 446 485 419 461 436 420 416 447 418 415 446 434 468 454 466 454 468 446 414 457 410 445 397 469 464 440 453 414 446 452 422 430 442 436 457 456 429 456 427 480 474 419 471 435 484 454 508 443 505 462 487 477 462 479 489 501 476 473 473 524 468 505 514 494 462 496 496 528 506 538 509 540 487 493 498 504 467 517 491 533 465 502 473 457 506 494 489 480 502 473 464 463 514 474 512 493 491 468 439 414 482 448 472 414 500 474 459 457 465 452 504 439 504 473 489 476 444 458 441 447 482 446 443 472 460 394 467 415 456 444 464 442 471 428 419 391 444 457 401 427 471 405 435 458 437 439 422 421 418 435 429 427 448 434 424 420 418 445 481 407 430 435 392 451 420 451 498 396 426 405 440 395 419 388 426 419 408 432 419 463 433 426 418 404 440 395 442 395 458 427 433 407 401 436 475 421 408 459 423 400 401 400 409 441 401 469 404 452 428 470 461 454 456 475 462 452 462 444 420 483 493 507 454 519 527 534 501 543 514 502 458 480 468 503 484 496 543 467 553 509 501 513 498 520 522 528 463 530 453 503 478 470 500 424 491 483 479 490 493 472 461 460 492 469 482 477 448 465 436 434 453 441 489 454 426 455 482 470 430 441 458 474 440 460 430 441 460 465 437 480 485 436 513 457 464 406 466 465 429 462 395 457 448 431 461 399 405 430 451 415 448 412 441 464 402 414 417 420 407 428 443 409 434 427 449 437 423 454 408 457 431 383 419 371 415 423 432 410 450 397 423 457 424 436 408 418 406 464 409 432 406 428 433 390 412 436 391 413 401 422 433 447 423 414 381 447 394 453 406 446 411 435 412 384 412 386 377 440 424 423 412 384 396 386 420 395 393 443 409 410 413 401 421 439 425 418 414 425 378 412 344 376 372 401 435 446 409 438 402 418 439 421 429 438 418 412 450 363 421 439 423 449 422 408 410 415 433 412 465 410 430 390 425 391 420 482 394 389 403 430 406 435 392 424 375 394 400 420 403 439 380 366 408 422 365 386 436 401 452 390 414 387 403 373 394 418 389 415 386 423 389 406 421 430 397 406 411 403 422 390 409 386 402 383 375 445 424 409 435 391 388 404 404 383 379 412 413 426 400 410 401 405 385 419 453 420 390 403 392 403 389 370 396 384 383 441 374 413 394 413 399 378 435 407 384 428 370 360 394 421 426 388 392 374 380 373 377 428 393 393 387 390 404 369 395 366 387 390 421 390 397 400 382 348 394 366 399 377 365 371 360 401 365 350 409 354 396 407 401 390 414 358 348 364 391 373 396 358 379 424 406 391 387 419 348 408 374 392 448 390 438 391 401 393 395 377 421 380 424 392 370 367 419 359 356 395 376 390 404 347 357 389 370 372 415 417 400 399 416 427 380 396 407 396 415 411 440 465 448 445 423 366 406 447 410 441 411 403 448 417 426 411 425 415 430 441 430 408 462 464 409 459 389 443 428 374 459 458 407 444 453 406 446 468 458 449 442 449 442 439 439 436 460 446 431 429 478 438 407 411 368 374 405 427 377 401 393 356 373 387 357 393 377 384 394 405 389 408 419 452 374 402 378 411 398 373 364 396 389 384 404 376 368 413 406 420 336 386 364 400 409 421 383 385 369 400 399 411 402 418 409 424 365 375 373 376 391 373 379 409 344 376 415 418 380 366 380 365 425 404 379 402 373 360 371 379 406 371 366 389 342 387 438 367 363 404 370 398 388 388 355 378 347 429 374 367 414 419 387 398 355 393 403 370 379 356 378 407 328 379 393 381 357 395 350 427 386 364 418 343 375 418 378 369 371 387 374 405 385 385 386 362 364 391 374 405 361 363 360 383 411 343 423 356 391 372 404 373 398 374 394 395 377 381 410 364 363 373 390 373 398 365 395 375 374 342 400 347 381 359 390 376 360 401 358 408 381 443 418 390 378 399 413 410 427 364 425 387 392 417 356 402 403 379 387 383 413 381 403 384 391 364 371 369 386 352 387 459 388 410 427 367 379 366 397 356 376 407 378 379 406 373 420 364 405 406 408 380 424 384 404 377 417 362 366 399 376 414 393 360 383 398 392 384 404 405 414 400 372 359 359 443 385 414 378 387 396 385 418 375 372 375 364 386 374 359 371 394 359 329 407 350 369 352 354 359 372 386 372 372 370 383 357 388 414 415 437 353 392 394 366 390 371 403 425 377 380 362 338 428 383 387 388 366 379 374 383 366 373 373 397 402 377 352 386 383 392 397 374 393 371 367 356 367 381 369 384 371 395 361 358 385 396 355 382 335 365 338 399 360 352 367 349 367 345 371 373 396 405 358 371 369 342 391 359 357 376 372 349 365 337 355 382 385 393 359 392 367 357 374 356 378 364 371 353 366 348 351 342 369 360 324 307 347 335 355 378 348 377 344 362 374 347 364 329 354 366 382 362 342 316 352 333 361 346 348 350 324 338 362 359 382 352 366 388 363 300 352 385 376 341 350 376 379 323 382 380 358 364 361 404 334 379 342 352 393 354 374 337 349 351 330 378 360 357 360 352 373 372 338 338 301 373 370 351 350 360 379 364 359 370 355 359 397 312 339 349 388 352 381 337 398 371 376 359 369 377 349 366 358 369 366 369 394 372 382 380 360 364 332 347 386 361 418 353 328 357 379 363 365 353 377 328 388 378 401 342 341 376 372 402 376 371 348 338 376 349 341 359 365 380 356 367 382 362 361 357 381 348 393 361 413 345 415 388 408 392 412 372 351 423 389 398 390 417 413 420 446 405 403 404 394 388 402 350 390 363 361 359 399 357 376 388 391 347 356 379 376 399 405 335 416 360 386 397 328 372 389 327 377 380 362 407 363 376 400 374 374 394 374 316 384 324 354 347 353 361 355 371 372 375 372 378 370 373 361 333 353 319 373 373 402 395 394 351 402 384 427 390 371 368 378 346 402 334 354 363 366 339 329 357 359 347 349 359 356 385 369 370 361 333 369 360 350 363 354 368 368 373 370 338 332 365 359 377 352 364 351 350 347 370 370 336 392 341 365 367 361 357 378 326 359 349 355 386 326 369 345 361 357 364 320 382 353 364 373 335 406 350 357 369 386 370 362 395 369 330 364 332 370 328 343 345 313 355 384 338 351 356 350 370 364 358 378 368 377 375 366 374 338 389 375 367 371 392 307 374 370 385 345 347 395 353 363 359 359 376 363 337 351 412 352 339 371 367 318 399 358 366 394 336 348 383 369 329 338 381 363 332 373 357 361 341 369 383 363 374 356 401 386 369 345 350 358 369 387 389 386 350 397 336 357 352 365 351 353 361 376 373 368 386 348 372 354 321 349 348 371 371 338 375 372 355 366 349 387 385 384 375 373 373 337 375 364 365 362 367 374 379 341 375 400 343 345 367 375 386 359 390 401 329 341 372 342 381 358 343 350 360 349 422 349 360 368 372 376 367 324 374 353 369 368 362 384 354 362 311 332 353 377 383 350 351 366 376 339 331 372 373 369 356 403 378 370 358 349 363 371 363 368 339 404 349 347 398 358 341 354 369 400 405 413 383 423 389 344 372 398 368 409 387 366 375 369 388 396 357 362 346 402 377 420 404 368 352 369 346 398 379 366 365 372 374 356 375 361 387 380 395 352 404 377 391 354 384 392 381 346 394 383 361 405 358 365 373 339 367 366 383 405 349 342 376 364 377 362 382 367 345 370 393 365 362 399 351 360 364 315 350 339 391 372 390 325 363 376 357 390 357 365 355 360 346 373 357 407 345 369 356 357 391 350 348 354 353 353 375 352 342 385 372 343 382 414 336 360 346 360 368 402 337 362 355 342 392 354 410 376 398 371 382 374 311 343 366 378 317 399 354 356 357 374 381 376 396 355 373 366 345 362 348 355 374 354 384 371 356 367 348 387 371 384 404 335 378 330 373 379 357 359 363 351 330 330 338 368 354 336 390 333 403 392 350 399 377 334 334 360 375 368 332 388 355 362 360 340 385 387 348 333 351 359 387 322 351 370 357 396 365 390 396 363 387 407 402 392 343 381 396 366 374 380 353 348 403 349 378 378 372 372 378 382 381 381 400 412 367 418 358 388 388 356 389 363 367 361 369 343 366 399 351 345 348 389 369 376 338 387 355 415 371 361 362 379 346 351 357 365 376 366 366 373 352 391 341 383 353 369 439 386 384 365 379 357 349 365 323 402 358 355 414 392 366 389 381 361 388 346 426 386 399 347 363 392 369 399 353 377 375 370 369 378 373 374 383 364 390 352 402 382 378 404 391 404 361 387 364 384 368 372 387 334 358 361 365 336 342 345 391 400 385 358 370 393 398 376 391 352 387 383 403 342 378 376 341 372 423 384 409 370 376 411 398 431 374 414 377 404 405 370 399 393 383 370 399 335 370 374 367 405 355 401 356 386 365 385 387 386 376 387 360 372 398 357 392 373 372 389 389 367 368 416 385 388 395 404 370 376 389 410 414 428 416 417 423 378 389 379 457 382 426 388 382 436 427 425 412 395 384 422 430 411 406 411 404 404 441 380 410 413 367 415 403 436 379 433 405 404 394 408 411 404 393 402 398 389 402 346 373 410 381 358 354 385 419 409 397 335 372 363 383 374 392 403 377 390 336 379 375 367 368 365 414 351 360 381 366 371 401 399 364 354 364 391 365 376 388 410 385 380 392 377 379 373 382 350 404 398 420 413 424 378 386 338 366 388 418 372 392 406 398 384 369 303 370 368 367 407 403 398 373 381 375 395 408 393 359 366 394 398 429 363 359 382 418 372 415 376 383 392 363 347 400 405 421 384 421 413 415 417 428 460 425 414 448 409 438 427 451 435 455 501 442 452 473 442 480 462 479 458 526 496 470 511 500 493 474 494 498 485 453 488 477 475 490 475 471 464 474 449 469 486 502 456 432 460 486 460 470 503 509 448 461 456 452 435 465 455 480 458 463 443 459 404 477 422 416 416 458 411 426 392 443 465 444 445 399 434 449 408 425 413 407 422 432 402 422 410 407 429 369 377 407 401 399 364 387 418 396 391 400 383 427 399 397 410 432 388 426 424 366 393 412 418 396 365 381 392 419 364 349 372 428 375 383 386 381 369 364 395 386 398 386 369 351 365 396 364 374 380 378 390 343 389 395 365 407 353 360 369 401 392 412 360 407 378 383 394 376 375 362 352 348 367 371 339 369 353 379 373 337 427 345 383 361 364 403 362 425 369 385 405 378 348 373 376 358 347 395 369 392 339 361 375 410 389 436 408 378 414 399 400 363 407 411 356 391 371 398 399 368 411 376 418 363 360 397 354 401 426 366 380 398 389 413 381 392 418 420 392 358 381 367 378 357 369 393 360 361 379 428 408 355 350 376 371 395 376 349 404 362 436 382 367 354 370 372 377 380 360 365 389 366 356 387 341 350 365 374 363 345 355 370 361 380 358 360 353 367 356 363 357 365 348 351 362 334 385 327 340 366 342 385 373 372 381 366 390 356 361 356 351 325 340 350 339 352 365 367 379 361 389 369 372 390 405 405 369 374 364 383 377 378 379 344 354 355 346 370 361 401 346 345 373 403 342 356 396 349 368 347 364 375 359 379 365 375 386 349 384 360 386 349 360 388 331 355 347 372 342 355 383 372 390 348 396 382 352 400 371 405 391 371 365 377 403 388 361 359 382 413 379 390 408 425 418 405 369 440 424 392 416 399 397 398 396 388 410 411 377 393 428 403 370 392 410 385 391 401 401 396 439 350 437 415 343 385 355 364 413 390 390 358 367 374 346 355 377 362 383 377 355 388 354 394 412 429 370 360 373 392 303 357 391 394 362 368 378 405 375 371 344 324 318 341 382 345 364 364 340 368 365 366 341 380 378 378 370 336 316 338 325 373 359 355 349 353 355 364 370 350 395 350 340 391 355 382 338 348 362 373 357 379 372 341 356 341 340 360 372 356 331 370 361 363 363 375 351 354 332 342 350 339 341 325 356 396 342 328 368 344 328 344 360 319 364 365 329 337 362 360 375 338 353 375 372 315 341 346 368 337 360 346 340 363 337 362 353 350 355 369 332 313 357 324 356 371 338 346 337 327 370 366 325 325 346 331 331 324 345 352 352 314 369 321 356 377 350 368 359 326 345 320 382 314 358 363 355 341 311 348 316 345 299 348 345 331 365 362 374 332 360 373 365 344 350 371 373 341 352 319 314 362 352 339 340 358 344 345 350 356 333 359 342 350 347 338 399 344 340 324 333 356 327 317 353 376 353 332 333 364 373 394 375 372 371 334 341 324 343 347 338 363 334 358 349 337 346 358 345 340 355 346 359 317 369 340 310 318 350 341 338 324 318 344 375 334 346 332 366 304 318 340 355 371 342 345 313 343 347 344 351 346 367 334 340 357 322 338 336 350 355 344 383 373 344 336 329 350 333 350 333 387 353 355 354 331 350 362 346 320 349 336 311 348 350 318 333 339 326 357 349 341 347 348 353 313 324 338 333 373 336 342 344 379 338 349 335 337 333 339 360 330 338 328 299 377 341 346 373 335 342 325 317 311 370 365 351 343 354 339 381 314 336 347 386 318 334 322 348 353 342 345 314 369 356 327 355 300 372 342 335 337 366 328 393 303 323 335 348 356 367 354 323 385 356 349 351 303 330 361 345 352 326 330 339 363 331 331 327 338 322 308 356 346 318 356 326 346 321 325 305 341 328 336 332 358 303 353 335 343 331 346 335 337 344 334 345 362 334 342 355 328 341 352 367 306 343 330 391 345 322 365 324 323 332 333 336 357 320 305 326 363 322 323 361 383 314 365 363 378 397 362 346 321 320 378 352 329 347 359 340 373 329 359 347 395 330 326 351 337 357 371 361 379 379 350 385 344 346 360 346 377 361 377 372 348 379 335 369 377 386 360 360 390 359 409 360 383 374 414 363 396 401 402 395 405 413 405 425 410 413 456 416 356 384 400 373 418 369 424 371 397 375 371 364 411 365 404 381 370 368 379 354 360 334 337 369 369 379 350 357 385 368 387 382 351 350 376 409 354 368 337 322 345 333 360 342 343 347 354 361 347 370 322 357 371 311 327 331 363 358 342 335 325 334 332 313 340 329 345 324 306 300 349 325 337 310 325 295 295 350 326 340 335 354 354 294 342 308 326 319 318 342 311 359 338 355 311 332 356 349 357 332 370 316 357 343 334 328 332 333 324 294 328 349 340 313 320 340 362 316 346 348 292 296 289 315 314 317 345 347 332 330 334 340 345 341 348 302 335 328 353 381 324 313 366 342 335 327 387 336 352 346 340 315 323 330 362 347 329 357 330 359 363 337 356 312 333 369 336 347 336 341 363 339 327 324 357 305 346 348 358 328 350 342 330 369 333 347 326 364 344 335 338 305 315 331 317 290 341 303 323 352 336 342 310 371 316 336 318 363 269 366 333 361 305 323 304 332 303 311 325 396 338 328 315 331 349 326 367 345 346 346 335 299 377 315 300 322 356 338 354 325 330 346 298 317 353 341 326 374 321 359 383 335 329 331 342 324 325 311 301 342 343 370 317 342 311 309 326 322 323 327 292 340 338 345 337 329 369 283 321 346 320 327 351 309 308 316 314 359 317 321 351 334 326 332 354 365 366 366 352 326 319 339 342 329 368 343 372 373 329 324 320 376 323 371 308 313 307 345 297 364 369 342 326 320 365 306 324 330 334 338 331 339 340 337 357 325 329 308 292 327 322 365 304 302 336 330 339 320 342 323 317 318 352 301 362 320 360 322 316 344 315 333 303 336 333 339 321 338 311 332 324 332 315 360 306 335 330 312 299 385 337 332 337 311 334 327 368 322 341 358 332 308 346 295 333 336 328 323 354 299 346 318 372 297 359 346 327 318 309 302 328 323 309 296 314 327 337 313 309 343 289 366 306 325 324 328 346 275 322 339 332 317 329 330 312 368 301 345 358 369 318 318 291 362 314 340 314 333 288 336 292 297 312 284 326 321 334 299 336 332 335 317 311 325 312 299 334 309 315 326 313 314 339 298 313 306 297 300 357 334 342 340 283 333 317 353 319 318 353 337 340 340 315 311 324 317 326 329 300 322 353 308 302 326 334 311 337 324 299 315 304 336 353 310 340 321 316 324 326 313 309 341 306 349 327 315 336 335 326 319 323 312 367 373 299 328 363 310 290 307 330 315 355 320 347 351 342 288 318 318 334 286 299 330 351 324 320 308 326 335 328 306 308 358 316 351 295 324 294 318 326 347 330 308 307 346 348 294 335 316 284 367 314 334 288 335 312 346 309 348 295 298 336 314 313 332 341 348 331 337 352 338 315 361 341 311 343 296 332 320 317 329 349 324 314 320 309 331 352 277 322 329 310 351 338 374 346 338 318 344 342 332 320 330 328 307 315 304 358 321 313 358 320 299 286 321 377 359 358 308 362 331 331 335 319 310 326 342 368 334 333 309 338 340 314 341 327 318 332 323 347 313 306 335 353 329 338 358 344 319 348 333 305 364 310 348 321 339 330 379 344 300 315 288 316 304 350 345 341 350 318 303 350 314 331 283 307 282 336 319 302 335 299 348 295 314 316 333 289 298 319 356 293 294 284 294 324 331 312 356 307 339 306 313 314 356 357 300 342 349 327 312 347 302 297 314 322 327 344</counts>
			</dataPoints>
		</scan>
	</xrdMeasurement>
</xrdMeasurements>
