<?xml version="1.0"?>
<xrdMeasurements xmlns="http://www.xrdml.com/XRDMeasurement/2.3" xmlns:xsi="http://www.w3.org/2001/XMLSchema-instance" xsi:schemaLocation="http://www.xrdml.com/XRDMeasurement/2.3 http://www.xrdml.com/XRDMeasurement/2.3/XRDMeasurement.xsd" status="Completed" recordIdentifier="{560359ED-9652-40EB-A608-196DDCEF1894}">
	<comment>
		<entry/>
	</comment>
	<sample type="To be analyzed">
		<id>GPSS_Li2Mn0p5Fe0p5Cl4_100725_68e5a8e007cf888582f935c9</id>
		<name></name>
		<preparedBy></preparedBy>
	</sample>
	<xrdMeasurement measurementType="Scan" status="Completed" sampleMode="Reflection">
		<usedWavelength intended="K-Alpha 1">
			<kAlpha1 unit="Angstrom">1.5405980</kAlpha1>
			<kAlpha2 unit="Angstrom">1.5444260</kAlpha2>
			<kBeta unit="Angstrom">1.3922500</kBeta>
			<ratioKAlpha2KAlpha1>0.5000</ratioKAlpha2KAlpha1>
		</usedWavelength>
		<incidentBeamPath>
			<radius unit="mm">145.00</radius>
			<xRayTube id="1010048" name="Empyrean Cu LFF HR (9430 033 7310x)">
				<tension unit="kV">40.0</tension>
				<current unit="mA">15.0</current>
				<anodeMaterial>Cu</anodeMaterial>
				<focus type="Line">
					<length unit="mm">12.0</length>
					<width unit="mm">0.4</width>
					<takeOffAngle unit="deg">6.0</takeOffAngle>
				</focus>
			</xRayTube>
			<sollerSlit id="21010002" name="Soller slits 0.04 rad.">
				<opening unit="rad">0.0400</opening>
			</sollerSlit>
			<mask id="22031000" name="Fixed mask 13 mm">
				<width unit="mm">9.00</width>
			</mask>
			<divergenceSlit id="22120001" name="Divergence slit 1°" xsi:type="fixedDivergenceSlitType">
				<distanceToSample unit="mm">50.00</distanceToSample>
				<height unit="mm">1.52</height>
			</divergenceSlit>
		</incidentBeamPath>
		<sampleMovement xsi:type="spinningSampleMovementType">
			<spinnerRevolutionTime unit="seconds">1.0</spinnerRevolutionTime>
		</sampleMovement>
		<diffractedBeamPath>
			<radius unit="mm">145.00</radius>
			<antiScatterSlit id="22090040" name="AS slit 9 mm (PIXcel)" xsi:type="fixedAntiScatterSlitType">
				<height unit="mm">9.00</height>
			</antiScatterSlit>
			<sollerSlit id="21020003" name="Large Soller slits 0.04 rad.">
				<opening unit="rad">0.0400</opening>
			</sollerSlit>
			<filter id="20030001" name="Large beta-filter Nickel">
				<material>Ni</material>
				<thickness unit="mm">0.020</thickness>
			</filter>
			<detector id="7010019" name="PIXcel1D-Medipix3 detector" xsi:type="rtmsDetectorType">
				<phd unit="keV">
					<lowerLevel>4.02</lowerLevel>
					<upperLevel>11.27</upperLevel>
				</phd>
				<mode>Scanning</mode>
				<activeLength unit="deg">5.542</activeLength>
			</detector>
		</diffractedBeamPath>
		<scan appendNumber="0" mode="Continuous" scanAxis="Gonio" status="Completed">
			<header>
				<startTimeStamp>2025-10-09T13:54:10-07:00</startTimeStamp>
				<endTimeStamp>2025-10-09T14:02:17-07:00</endTimeStamp>
				<author>
					<name>AutomatedUser</name>
				</author>
				<source>
					<applicationSoftware version="1.7b (136)">PANalytical Aeris Instrument Suite</applicationSoftware>
					<instrumentControlSoftware version="3.2.00000000 20240306">AERIS</instrumentControlSoftware>
					<instrumentID>950485</instrumentID>
				</source>
			</header>
			<dataPoints>
				<positions axis="2Theta" unit="deg">
					<startPosition>10.00943322</startPosition>
					<endPosition>99.99442286</endPosition>
				</positions>
				<positions axis="Omega" unit="deg">
					<startPosition>5.00471661</startPosition>
					<endPosition>49.99721143</endPosition>
				</positions>
				<commonCountingTime unit="seconds">12.495</commonCountingTime>
				<counts unit="counts">2803 2921 2910 2831 2837 2888 2817 2868 2854 2981 2794 2856 2911 2866 2773 2811 2897 2873 2890 2805 2896 2973 2784 2864 2915 2865 2805 2899 2884 2902 2929 2881 2798 2931 2908 2873 2786 2823 2949 2858 2869 2982 2852 2973 2838 2902 2840 2831 2869 2909 2958 2858 2958 2928 2911 2878 2802 2915 2888 2837 2993 2893 3019 2900 2800 2873 2988 2921 2982 2912 2920 2844 2967 2938 2987 2854 2989 2898 2970 2940 2968 2916 2984 2981 3027 3008 3071 3026 2995 2929 3139 3092 3042 3131 3054 2978 3046 3014 2945 3017 3003 3081 2920 3062 2952 3004 2994 3017 2939 2991 2948 3014 2978 2907 3004 2920 2904 2909 2995 2936 2919 2979 2973 2988 2954 2861 2830 2836 2815 2998 2857 2898 2792 2855 2904 2830 2882 2940 2953 2968 2888 2862 2937 2870 2821 2885 2858 2818 2768 2882 2922 2937 2913 2893 2869 2882 2860 2881 2935 2796 2848 2844 2903 2823 2883 2878 2820 2859 2947 2835 2866 2786 2910 2966 2926 2864 2843 2910 2819 2820 2829 2801 2807 2891 2785 2793 2879 2936 2880 2795 2917 2814 2958 2849 2860 2869 2829 2815 2810 2908 2831 2897 2945 2903 2853 2857 2771 2876 2882 2785 2850 3021 2902 2833 2869 2965 2896 2874 2855 2904 2852 2891 2876 2897 2900 2883 2814 2856 2834 2957 2882 2899 2835 2907 2938 2810 2820 2870 2886 2919 2992 2967 2846 2962 2870 2891 2880 2840 2905 2959 2894 2908 2848 2889 2908 2872 2886 2854 2833 2914 2800 3001 2957 2909 2930 2912 2979 2854 2934 2867 2940 2916 2760 2997 2961 2947 2859 2891 2990 2902 3030 2920 2962 2969 2814 2832 2838 2923 2927 2975 2982 2896 2936 2928 2905 2947 3065 2983 2961 3014 3038 2986 3007 2963 2964 2971 3051 2915 3018 2991 2989 3082 3022 3029 3069 3015 3131 3033 3010 3111 3087 3025 3079 3107 3072 3103 3071 3039 3135 3074 3123 3082 3133 3059 3174 3110 3188 3134 3223 3195 3215 3212 3163 3234 3192 3161 3243 3167 3181 3313 3218 3204 3149 3164 3340 3280 3263 3180 3282 3255 3251 3241 3327 3171 3257 3399 3290 3221 3307 3365 3312 3329 3372 3220 3424 3302 3375 3433 3426 3353 3295 3473 3469 3465 3422 3403 3488 3452 3571 3397 3419 3422 3550 3457 3483 3424 3469 3465 3468 3454 3525 3500 3585 3543 3599 3548 3622 3410 3618 3606 3518 3672 3659 3510 3632 3564 3752 3665 3765 3779 3636 3780 3839 3907 3823 3785 3883 3921 3901 3907 4018 4015 4007 4159 4056 4187 4189 4079 4320 4389 4305 4375 4380 4271 4451 4463 4465 4535 4592 4641 4746 4805 4743 4966 5037 5064 5176 5183 5297 5380 5637 5706 5596 5593 5684 5657 5619 5700 5462 5461 5363 5279 5165 5079 4978 4913 4903 4911 4684 4691 4696 4491 4403 4402 4347 4220 4280 4127 4160 4133 4004 4084 3973 4125 4058 4035 3930 3963 3987 3968 3957 4014 4084 4107 3885 3874 3795 3880 3824 3901 3760 3855 3739 3931 3825 3805 3685 3796 3760 3677 3698 3680 3680 3656 3627 3701 3567 3543 3466 3584 3612 3543 3533 3534 3454 3505 3444 3490 3494 3489 3500 3398 3421 3452 3511 3486 3492 3342 3474 3509 3379 3369 3409 3429 3313 3495 3261 3392 3411 3411 3338 3295 3393 3233 3557 3413 3361 3375 3301 3312 3395 3457 3390 3308 3329 3340 3384 3295 3360 3341 3322 3339 3350 3338 3261 3252 3352 3265 3450 3426 3233 3363 3270 3372 3262 3207 3290 3312 3242 3301 3236 3193 3280 3304 3287 3256 3212 3264 3272 3277 3298 3217 3350 3255 3264 3256 3233 3139 3261 3238 3209 3282 3200 3211 3101 3369 3086 3269 3166 3299 3259 3313 3293 3253 3254 3175 3107 3232 3142 3277 3164 3291 3170 3212 3104 3237 3168 3146 3247 3119 3107 3154 3265 3113 3192 3167 3240 3261 3206 3224 3226 3317 3182 3201 3136 3260 3220 3225 3120 3283 3220 3249 3129 3241 3142 3275 3309 3202 3163 3230 3274 3186 3195 3069 3281 3175 3128 3176 3150 3193 3121 3043 3043 3203 3195 3152 3114 3163 3156 3024 3171 3079 3218 3176 3110 3099 3061 3081 3050 3127 3068 3215 3160 3134 3120 3173 3171 3217 3194 3142 3101 3147 3116 3222 3115 3148 3104 3153 3119 3054 3070 3123 3056 3095 3146 3098 3039 3203 3076 3139 3045 3099 3073 3113 3064 3164 3111 3053 3115 3174 3140 3127 3054 3184 3063 3152 3154 3058 3142 3062 3092 3118 3113 2941 3048 3084 3040 3122 2990 3125 3069 3041 3104 3064 3101 3219 3138 3032 3180 3104 3131 3076 3096 3116 3028 3088 3105 3114 3070 3118 3078 3077 3171 3093 3103 3208 3134 3133 3029 3058 2961 3128 3175 3055 3145 3023 3138 3068 3041 3155 3025 3201 3130 3016 3011 3197 2985 3060 2973 3019 3039 2980 3047 3078 3022 3019 3130 3084 3076 3103 3064 3051 3030 3051 3067 3076 3110 3053 3019 3135 3056 3027 3108 3098 3079 3045 3038 2966 3108 3013 3027 2980 3137 2946 3001 3055 3093 3034 3109 2995 3008 2937 3176 3016 3133 3040 3019 2975 2990 3169 2953 2936 3014 2918 3027 2986 3037 3010 3050 2969 2996 3015 3046 2923 2977 2940 2999 2957 3026 2926 2956 2980 3126 2939 3082 2898 2908 3121 3027 2991 3102 3034 3021 2946 2954 2899 2952 2941 2956 3040 2928 2911 2969 2993 2986 2959 2876 2991 3022 2972 2890 2997 2948 2952 2968 2968 3058 2980 2969 2961 2920 2995 2957 2876 2924 2961 2970 2956 3017 2870 2878 2931 2958 2955 2917 2972 2925 2971 2896 2942 2995 2959 2916 2945 2909 2830 2959 2865 2953 2896 2905 2961 2900 3012 2928 2939 2867 2885 2885 2935 2905 2836 2884 2964 2925 2807 2917 2913 2889 2949 2858 2866 2993 2982 2991 2885 2888 2914 3022 2849 2851 2929 3011 2832 2842 2895 2877 2814 2916 2825 2853 2938 2875 2850 2956 2878 2885 2860 2966 2943 2899 2928 2940 2806 2799 2814 2781 2988 2809 2885 2838 2960 2913 2874 2896 2908 2820 2831 2882 2860 2917 2773 2936 2860 2789 2947 2813 3060 2936 2924 2931 2935 2953 2923 2862 3042 2878 2873 2855 2861 2864 2880 2902 3005 2873 2997 2934 2922 3005 2909 2788 2937 2898 2932 2913 2885 2842 2957 2937 2971 2822 2955 2906 2919 2917 2987 2914 2917 2966 2968 2956 2888 2896 2940 2922 2875 2874 2930 2915 2941 2967 2908 2877 2950 2901 2948 2953 2889 2963 2884 2931 2835 2865 2766 2805 2885 3002 2858 2970 2893 2915 2902 2941 2965 3035 2874 2926 2849 2896 2949 2876 2945 2896 2933 2785 2768 2772 2837 2945 2901 2932 2787 2914 2839 2799 2736 2864 2840 2853 2895 2821 2896 2842 2979 2945 2776 2833 2892 2743 2828 2801 2834 2890 2928 2726 2879 2798 2914 2807 2850 2890 2765 2875 2790 2744 2870 2726 2868 2754 2801 2731 2793 2746 2812 2809 2723 2769 2793 2803 2721 2743 2736 2705 2695 2781 2780 2700 2739 2752 2804 2670 2695 2677 2720 2773 2723 2666 2680 2708 2753 2678 2608 2647 2721 2635 2652 2693 2780 2690 2668 2664 2676 2642 2639 2716 2636 2707 2703 2711 2702 2688 2659 2668 2620 2550 2646 2596 2663 2636 2581 2583 2592 2601 2505 2621 2634 2587 2638 2596 2557 2599 2588 2566 2600 2525 2484 2662 2542 2501 2502 2535 2508 2478 2588 2594 2434 2535 2402 2483 2516 2574 2507 2455 2432 2457 2466 2542 2437 2513 2545 2482 2479 2386 2352 2452 2485 2505 2443 2362 2446 2480 2480 2385 2409 2428 2392 2478 2425 2489 2431 2410 2487 2368 2420 2439 2529 2393 2535 2475 2363 2398 2381 2484 2454 2484 2376 2466 2294 2382 2339 2387 2349 2344 2440 2391 2395 2412 2395 2437 2408 2409 2382 2418 2396 2424 2397 2401 2469 2328 2391 2349 2353 2327 2324 2324 2274 2365 2291 2372 2361 2380 2367 2369 2328 2336 2343 2369 2365 2293 2326 2377 2358 2364 2245 2379 2299 2346 2266 2291 2308 2350 2251 2376 2315 2404 2225 2302 2271 2411 2306 2277 2284 2323 2228 2338 2296 2292 2260 2266 2316 2293 2336 2276 2291 2297 2340 2311 2224 2314 2320 2300 2349 2287 2334 2307 2345 2295 2331 2317 2246 2317 2402 2232 2303 2424 2267 2293 2359 2288 2362 2268 2295 2280 2297 2278 2328 2311 2344 2364 2322 2258 2287 2283 2372 2272 2333 2357 2303 2305 2429 2337 2338 2288 2335 2356 2277 2361 2308 2241 2271 2326 2267 2318 2306 2306 2315 2373 2423 2319 2332 2291 2341 2347 2339 2359 2372 2313 2367 2269 2399 2314 2327 2342 2253 2361 2312 2353 2272 2274 2298 2399 2325 2322 2328 2328 2248 2187 2315 2334 2370 2275 2351 2389 2310 2294 2260 2281 2304 2367 2275 2334 2330 2352 2315 2289 2264 2296 2295 2373 2268 2322 2292 2307 2344 2323 2393 2361 2258 2276 2380 2281 2317 2293 2385 2343 2267 2306 2203 2299 2372 2278 2412 2270 2279 2350 2236 2365 2288 2267 2269 2280 2383 2294 2262 2322 2258 2217 2359 2336 2291 2280 2328 2364 2267 2216 2341 2299 2325 2226 2298 2225 2348 2425 2281 2207 2342 2207 2202 2307 2265 2220 2181 2259 2260 2251 2245 2270 2224 2234 2232 2206 2177 2232 2287 2249 2225 2237 2191 2345 2199 2300 2303 2260 2273 2191 2221 2288 2187 2175 2137 2251 2173 2201 2236 2252 2193 2219 2202 2209 2155 2180 2112 2177 2135 2192 2132 2185 2112 2128 2123 2152 2191 2154 2229 2125 2135 2181 2103 2076 2046 2160 2147 2150 2124 2120 2187 2060 2047 2156 2107 2152 2074 2153 2067 2221 2115 2120 2163 2112 1989 2148 2128 2037 2066 2109 2024 2120 2105 2000 2077 2054 2151 2089 2074 2048 2097 2050 2029 2117 2131 2006 2050 1991 2054 1970 2055 2051 2013 2102 2105 1989 2140 2070 2072 2090 2081 2105 2140 2139 2027 2167 2096 2109 2225 2117 2136 2167 2086 2145 2226 2154 2212 2128 2229 2231 2224 2284 2317 2363 2442 2400 2369 2508 2496 2588 2618 2687 2796 2747 2925 2923 3017 3160 3118 3111 3166 3406 3265 3189 3270 3193 3238 3094 3052 3141 2911 2896 2785 2786 2743 2652 2570 2524 2448 2381 2409 2287 2221 2258 2247 2265 2200 2315 2178 2137 2108 2119 2108 2044 1996 2013 1994 1896 2037 2037 1973 1974 1997 1954 1933 2010 2045 1936 1913 1968 1993 1962 1902 2014 1966 1977 2012 2011 1940 1977 1971 1934 1974 1976 1974 1950 1962 1954 1887 2026 1917 1973 2021 1953 2017 1898 2103 1964 1948 2034 1974 1978 2000 1996 2071 2000 1991 2091 2103 2229 2193 2213 2150 2283 2341 2249 2341 2479 2419 2420 2585 2534 2619 2717 2775 2956 2970 3013 3174 3249 3493 3569 3666 3950 3818 4230 4346 4418 4530 4614 4694 4667 4825 4739 4683 4641 4672 4433 4333 4168 4028 3952 3739 3624 3481 3285 3136 2995 3007 2934 2846 2786 2687 2748 2621 2545 2440 2466 2432 2468 2464 2339 2369 2385 2381 2443 2407 2556 2520 2559 2588 2553 2638 2558 2624 2528 2538 2529 2468 2460 2352 2341 2302 2302 2221 2213 2009 2079 2039 2044 1934 1981 1911 1967 2049 1958 1921 1885 1894 1829 1872 1865 1823 1860 1810 1742 1764 1861 1840 1792 1781 1847 1745 1722 1810 1800 1793 1833 1783 1867 1796 1843 1743 1834 1784 1870 1786 1771 1709 1775 1814 1773 1850 1856 1772 1783 1766 1790 1677 1792 1740 1780 1803 1775 1862 1747 1759 1745 1840 1784 1712 1686 1732 1761 1782 1796 1800 1813 1706 1743 1824 1873 1722 1742 1714 1788 1772 1709 1716 1814 1790 1690 1752 1695 1683 1817 1782 1833 1719 1767 1734 1731 1744 1787 1696 1677 1686 1819 1791 1731 1705 1688 1651 1747 1731 1707 1710 1767 1669 1692 1673 1745 1704 1735 1724 1711 1662 1702 1775 1744 1743 1699 1722 1718 1776 1685 1695 1735 1683 1723 1606 1687 1697 1786 1684 1765 1722 1747 1710 1701 1758 1733 1753 1755 1712 1689 1710 1844 1714 1732 1711 1731 1696 1690 1733 1725 1704 1701 1752 1686 1706 1755 1745 1822 1638 1707 1720 1776 1789 1752 1731 1677 1735 1732 1658 1700 1725 1695 1695 1746 1668 1678 1691 1736 1714 1656 1727 1763 1810 1648 1653 1642 1740 1720 1661 1731 1765 1682 1706 1660 1629 1678 1677 1617 1709 1674 1752 1700 1662 1767 1672 1736 1655 1713 1696 1662 1705 1688 1725 1757 1604 1734 1692 1706 1736 1688 1696 1714 1676 1706 1742 1755 1742 1728 1647 1662 1707 1717 1678 1678 1673 1715 1631 1701 1770 1644 1766 1707 1694 1675 1699 1735 1715 1699 1740 1621 1674 1778 1702 1596 1807 1720 1741 1727 1755 1659 1701 1767 1736 1795 1753 1769 1695 1714 1658 1718 1762 1730 1793 1776 1681 1690 1772 1708 1733 1758 1837 1692 1708 1739 1721 1782 1672 1690 1755 1708 1727 1721 1776 1746 1705 1689 1809 1792 1818 1814 1780 1779 1696 1774 1774 1789 1718 1760 1783 1780 1788 1788 1848 1781 1839 1835 1878 1793 1867 1911 1918 1920 1967 2008 1967 1954 1982 2047 1958 2134 2064 2083 2109 2217 2198 2134 2248 2357 2491 2454 2516 2659 2625 2805 2996 3196 3257 3341 3686 3875 4023 4295 4546 4698 5249 5486 5842 6266 6495 7069 7238 7565 8016 8436 8543 8677 8969 9040 9573 9459 9571 9422 9217 8880 8754 8559 8061 7911 7611 7145 6897 6300 6111 5690 5212 4849 4771 4535 4230 4115 3847 3542 3570 3370 3166 3174 3112 2837 2858 2808 2745 2683 2622 2590 2609 2637 2537 2531 2670 2527 2533 2542 2650 2546 2612 2610 2531 2565 2557 2507 2440 2332 2368 2406 2356 2263 2284 2271 2154 2170 2137 2055 2073 2021 1926 1945 1928 1952 1954 1831 1896 1821 1772 1794 1831 1832 1816 1801 1737 1748 1721 1739 1719 1710 1699 1669 1742 1734 1805 1816 1707 1717 1668 1766 1645 1705 1662 1651 1675 1620 1724 1763 1616 1732 1662 1706 1695 1774 1688 1742 1657 1687 1636 1658 1703 1650 1681 1619 1691 1687 1657 1640 1640 1692 1658 1742 1683 1630 1672 1752 1623 1689 1681 1647 1687 1590 1701 1682 1702 1628 1720 1703 1633 1689 1721 1696 1593 1590 1676 1664 1696 1645 1619 1662 1625 1648 1599 1688 1626 1681 1670 1712 1660 1648 1692 1562 1602 1669 1636 1505 1611 1571 1605 1709 1592 1700 1688 1681 1610 1616 1636 1633 1661 1589 1625 1640 1602 1624 1650 1668 1622 1633 1594 1712 1563 1625 1634 1632 1683 1641 1623 1710 1569 1676 1550 1677 1653 1643 1575 1615 1652 1614 1585 1600 1686 1667 1532 1641 1665 1588 1638 1648 1574 1548 1632 1581 1581 1628 1605 1616 1634 1632 1626 1618 1666 1597 1616 1560 1579 1616 1626 1578 1527 1638 1704 1582 1544 1622 1633 1615 1614 1614 1660 1613 1545 1665 1652 1633 1536 1608 1618 1599 1662 1627 1663 1584 1587 1626 1595 1572 1630 1590 1637 1651 1591 1549 1671 1725 1699 1608 1689 1747 1737 1666 1642 1591 1715 1721 1764 1606 1679 1712 1698 1679 1685 1661 1737 1601 1644 1743 1758 1700 1666 1676 1643 1654 1621 1614 1605 1616 1667 1675 1590 1656 1637 1589 1624 1600 1580 1618 1632 1688 1595 1691 1658 1734 1606 1524 1549 1580 1568 1606 1637 1617 1609 1672 1569 1578 1584 1649 1602 1565 1599 1529 1592 1613 1602 1641 1591 1572 1563 1596 1574 1711 1564 1592 1518 1595 1626 1623 1490 1551 1551 1609 1633 1589 1612 1553 1618 1645 1662 1527 1558 1457 1541 1615 1520 1548 1551 1548 1515 1606 1598 1645 1602 1605 1550 1564 1610 1555 1603 1560 1487 1519 1560 1536 1603 1599 1629 1575 1549 1505 1526 1540 1569 1598 1509 1469 1583 1570 1572 1571 1556 1535 1565 1573 1592 1609 1536 1623 1532 1550 1596 1542 1640 1511 1555 1615 1591 1603 1546 1609 1549 1580 1595 1672 1564 1572 1560 1524 1573 1544 1588 1627 1545 1550 1546 1619 1637 1568 1576 1543 1581 1608 1530 1517 1555 1567 1615 1580 1526 1562 1569 1637 1524 1520 1478 1514 1595 1593 1565 1527 1573 1540 1482 1619 1493 1554 1538 1554 1567 1563 1566 1603 1486 1521 1630 1502 1624 1618 1508 1564 1517 1521 1555 1543 1589 1607 1507 1617 1587 1605 1491 1490 1494 1586 1573 1485 1559 1529 1550 1585 1587 1612 1466 1539 1626 1519 1530 1522 1538 1512 1610 1601 1524 1542 1554 1527 1573 1588 1585 1537 1573 1531 1534 1527 1580 1537 1447 1587 1565 1613 1460 1521 1537 1497 1511 1545 1561 1562 1487 1526 1575 1517 1552 1583 1585 1580 1603 1584 1574 1563 1600 1628 1564 1564 1556 1571 1599 1559 1610 1509 1626 1570 1517 1577 1518 1542 1593 1534 1536 1503 1518 1569 1554 1518 1530 1570 1585 1560 1529 1517 1593 1515 1522 1525 1572 1534 1539 1543 1487 1612 1541 1614 1615 1517 1570 1528 1573 1561 1560 1567 1532 1530 1641 1551 1554 1538 1507 1584 1503 1566 1562 1580 1540 1453 1482 1589 1556 1532 1523 1585 1510 1493 1524 1593 1578 1553 1567 1538 1586 1571 1564 1560 1594 1559 1506 1513 1614 1588 1583 1508 1482 1504 1567 1498 1613 1529 1509 1527 1587 1569 1565 1584 1558 1650 1571 1551 1568 1562 1508 1605 1562 1542 1453 1608 1501 1666 1523 1580 1515 1613 1536 1541 1558 1550 1480 1559 1543 1489 1500 1544 1533 1448 1516 1559 1492 1554 1506 1513 1609 1522 1553 1539 1555 1568 1531 1567 1525 1570 1604 1579 1570 1527 1556 1516 1474 1503 1531 1444 1596 1567 1598 1500 1573 1535 1532 1518 1552 1567 1509 1481 1520 1507 1567 1575 1556 1551 1608 1543 1524 1463 1588 1539 1514 1533 1541 1549 1554 1594 1530 1559 1519 1467 1453 1534 1552 1598 1546 1625 1512 1619 1513 1602 1524 1549 1554 1576 1523 1500 1546 1576 1487 1545 1532 1568 1537 1546 1600 1507 1475 1483 1495 1570 1541 1594 1537 1533 1572 1564 1550 1556 1642 1496 1547 1547 1507 1610 1561 1565 1521 1496 1476 1629 1518 1616 1580 1499 1580 1548 1495 1558 1512 1489 1530 1590 1584 1495 1605 1623 1457 1551 1525 1561 1545 1527 1607 1615 1544 1453 1565 1573 1620 1580 1575 1533 1555 1562 1519 1506 1583 1630 1581 1532 1525 1506 1546 1517 1536 1555 1526 1533 1542 1478 1520 1549 1524 1547 1565 1575 1557 1512 1569 1536 1530 1552 1508 1492 1625 1491 1557 1490 1517 1492 1576 1561 1565 1562 1543 1543 1583 1503 1549 1545 1643 1514 1573 1512 1485 1535 1595 1566 1570 1548 1536 1524 1573 1561 1585 1527 1488 1527 1555 1553 1522 1503 1601 1605 1499 1592 1555 1506 1498 1616 1551 1615 1566 1620 1576 1558 1514 1587 1529 1572 1516 1502 1510 1568 1571 1554 1520 1515 1501 1609 1509 1559 1555 1538 1604 1544 1515 1582 1590 1535 1617 1568 1618 1573 1610 1585 1591 1581 1648 1508 1610 1545 1621 1672 1583 1698 1720 1618 1706 1708 1675 1674 1781 1706 1751 1862 1834 1940 1843 1932 1874 2028 2079 2100 2123 2126 2152 2212 2268 2324 2327 2369 2387 2321 2422 2377 2380 2354 2402 2278 2400 2261 2164 2256 2137 2171 2149 2080 2032 2017 2004 1934 1944 1910 1792 1912 1814 1804 1748 1716 1708 1653 1685 1665 1631 1657 1634 1629 1631 1638 1573 1538 1535 1623 1532 1607 1629 1570 1554 1558 1589 1598 1551 1534 1487 1609 1585 1544 1513 1557 1604 1622 1504 1545 1529 1605 1563 1513 1534 1474 1495 1577 1530 1519 1517 1562 1565 1534 1595 1633 1587 1510 1577 1471 1550 1571 1460 1553 1522 1544 1649 1531 1599 1507 1595 1533 1561 1561 1511 1573 1536 1516 1571 1587 1581 1506 1501 1472 1507 1523 1539 1622 1532 1524 1566 1544 1575 1541 1608 1562 1507 1553 1540 1573 1518 1569 1605 1574 1528 1565 1537 1607 1560 1537 1520 1568 1524 1533 1535 1525 1463 1508 1484 1522 1587 1603 1547 1566 1507 1549 1521 1519 1548 1534 1550 1509 1528 1516 1484 1551 1538 1507 1549 1500 1554 1525 1584 1584 1568 1585 1554 1547 1502 1554 1470 1535 1519 1582 1547 1495 1573 1507 1507 1557 1524 1539 1480 1516 1476 1599 1488 1501 1505 1515 1557 1530 1511 1522 1535 1514 1532 1503 1536 1584 1541 1542 1526 1434 1509 1588 1478 1636 1577 1548 1546 1508 1473 1517 1459 1541 1543 1561 1570 1577 1478 1573 1594 1637 1483 1490 1540 1557 1492 1541 1573 1588 1595 1529 1533 1634 1594 1542 1618 1491 1555 1614 1532 1533 1490 1466 1562 1537 1502 1505 1552 1557 1526 1570 1615 1493 1554 1478 1460 1547 1545 1549 1590 1517 1529 1560 1591 1482 1531 1529 1589 1606 1567 1514 1505 1583 1541 1550 1475 1508 1588 1495 1570 1617 1517 1585 1570 1577 1506 1515 1566 1557 1511 1571 1551 1573 1642 1526 1406 1568 1553 1559 1507 1552 1527 1555 1548 1540 1579 1561 1503 1528 1557 1592 1508 1560 1595 1570 1594 1586 1539 1553 1520 1529 1575 1598 1621 1487 1667 1544 1562 1574 1623 1613 1595 1619 1642 1525 1568 1605 1582 1606 1665 1653 1645 1651 1698 1713 1711 1788 1675 1769 1806 1703 1898 1833 1855 1914 1864 1964 2050 2062 2157 2160 2260 2292 2432 2435 2534 2614 2704 2891 2919 3222 3300 3417 3636 3693 3766 3950 4214 4389 4542 4773 4772 5215 5169 5310 5416 5450 5329 5453 5451 5470 5345 5229 5212 4968 4881 4802 4649 4406 4314 4216 3967 3845 3780 3606 3400 3212 3182 3128 2970 2846 2687 2678 2389 2462 2375 2293 2327 2208 2163 2154 2076 2007 1978 1963 1894 1818 1825 1833 1837 1816 1790 1809 1757 1767 1789 1735 1712 1689 1671 1741 1764 1747 1698 1718 1790 1778 1807 1746 1758 1822 1859 1790 1832 1942 1909 1857 1833 1817 1810 1832 1854 1821 1847 1806 1857 1867 1781 1825 1760 1791 1820 1738 1747 1757 1771 1821 1606 1756 1686 1667 1696 1646 1669 1643 1626 1708 1615 1661 1611 1605 1635 1587 1652 1669 1662 1589 1643 1515 1647 1601 1556 1545 1593 1560 1564 1660 1568 1633 1568 1598 1574 1626 1581 1677 1615 1550 1633 1581 1583 1604 1610 1583 1598 1528 1486 1509 1560 1563 1579 1618 1509 1591 1523 1617 1530 1516 1625 1493 1509 1568 1574 1497 1472 1518 1505 1573 1509 1539 1492 1524 1501 1634 1538 1544 1427 1552 1540 1519 1538 1496 1519 1539 1514 1587 1521 1478 1509 1581 1576 1604 1522 1574 1537 1604 1548 1508 1618 1588 1555 1568 1521 1613 1580 1536 1609 1626 1593 1700 1641 1616 1611 1669 1746 1676 1764 1776 1821 1778 1892 1864 1831 1894 1927 1939 1959 1901 1933 1962 2004 2024 1860 2020 1936 1962 1955 2001 1955 1910 1863 1871 1825 1864 1864 1829 1859 1862 1828 1692 1711 1719 1726 1690 1767 1685 1629 1583 1584 1575 1547 1523 1532 1602 1573 1574 1578 1603 1555 1491 1565 1572 1537 1519 1532 1493 1560 1508 1534 1612 1595 1469 1491 1535 1481 1466 1527 1519 1554 1497 1459 1489 1521 1512 1551 1558 1502 1560 1509 1509 1480 1538 1499 1454 1470 1564 1543 1457 1466 1501 1522 1507 1554 1588 1444 1536 1448 1519 1498 1501 1410 1491 1551 1523 1531 1488 1519 1385 1473 1501 1544 1537 1504 1452 1449 1452 1456 1540 1498 1489 1451 1389 1523 1486 1460 1465 1531 1466 1480 1485 1538 1508 1399 1430 1533 1476 1534 1489 1527 1510 1503 1450 1474 1537 1513 1522 1457 1514 1616 1519 1521 1458 1560 1565 1523 1444 1453 1501 1507 1485 1504 1508 1501 1490 1457 1477 1548 1482 1474 1518 1467 1487 1497 1521 1428 1428 1496 1476 1496 1458 1502 1509 1533 1535 1551 1548 1472 1466 1495 1487 1488 1432 1470 1500 1465 1493 1436 1477 1490 1515 1521 1488 1476 1460 1451 1448 1488 1518 1496 1533 1462 1511 1504 1439 1460 1439 1510 1451 1512 1501 1477 1467 1515 1455 1454 1414 1485 1509 1467 1465 1532 1435 1516 1541 1503 1463 1453 1502 1476 1448 1499 1444 1496 1483 1464 1443 1512 1495 1465 1462 1519 1438 1458 1489 1352 1426 1502 1439 1466 1457 1456 1486 1446 1476 1453 1464 1457 1436 1477 1523 1442 1515 1469 1449 1474 1481 1472 1471 1391 1466 1437 1492 1436 1479 1508 1475 1436 1476 1486 1469 1441 1470 1490 1508 1449 1396 1480 1478 1426 1427 1473 1398 1509 1487 1527 1530 1488 1487 1436 1408 1475 1506 1494 1483 1473 1498 1496 1370 1459 1440 1474 1451 1520 1356 1501 1469 1517 1527 1456 1448 1449 1425 1485 1507 1441 1468 1467 1416 1475 1469 1435 1483 1456 1484 1518 1500 1492 1525 1447 1503 1390 1455 1491 1543 1448 1452 1455 1477 1451 1480 1420 1477 1415 1496 1483 1494 1472 1475 1495 1511 1454 1470 1491 1479 1441 1419 1485 1429 1537 1413 1503 1486 1383 1551 1476 1432 1454 1477 1516 1473 1524 1539 1411 1461 1461 1415 1413 1408 1482 1355 1399 1441 1483 1485 1390 1448 1464 1516 1415 1517 1429 1452 1544 1413 1433 1525 1495 1523 1456 1463 1429 1493 1503 1412 1467 1402 1432 1455 1471 1470 1469 1450 1468 1439 1493 1478 1464 1478 1437 1426 1483 1477 1456 1413 1507 1488 1474 1482 1484 1455 1522 1509 1451 1484 1518 1435 1448 1372 1476 1512 1490 1512 1425 1429 1484 1437 1379 1465 1448 1413 1387 1413 1418 1478 1483 1444 1479 1420 1461 1485 1508 1476 1436 1511 1458 1436 1460 1477 1503 1453 1523 1444 1507 1480 1469 1461 1471 1432 1472 1468 1464 1461 1436 1460 1457 1430 1475 1430 1459 1477 1422 1462 1468 1464 1427 1494 1381 1463 1521 1414 1408 1474 1463 1436 1483 1519 1505 1488 1494 1394 1477 1446 1418 1493 1469 1434 1472 1472 1522 1475 1490 1491 1484 1542 1442 1463 1433 1526 1572 1434 1558 1518 1515 1465 1483 1545 1423 1448 1517 1582 1482 1536 1567 1522 1525 1556 1600 1550 1565 1561 1631 1592 1535 1546 1554 1523 1572 1524 1567 1605 1578 1541 1546 1642 1540 1513 1573 1579 1572 1512 1500 1496 1570 1578 1520 1529 1533 1492 1514 1531 1493 1530 1520 1502 1487 1486 1498 1520 1568 1560 1615 1557 1574 1541 1620 1600 1561 1666 1572 1589 1654 1652 1706 1718 1692 1652 1765 1791 1684 1771 1796 1797 1848 1798 1935 1928 1904 1959 1925 1963 2010 1938 1887 1889 1906 1800 1848 1846 1923 1858 1895 1840 1823 1808 1891 1799 1822 1799 1729 1673 1715 1761 1645 1597 1645 1575 1565 1609 1542 1633 1517 1568 1500 1547 1523 1508 1579 1504 1473 1514 1535 1441 1519 1532 1474 1448 1447 1470 1434 1465 1465 1541 1457 1506 1530 1462 1452 1521 1523 1509 1566 1463 1458 1540 1506 1562 1577 1514 1550 1522 1576 1529 1551 1494 1524 1575 1592 1554 1601 1635 1566 1633 1525 1633 1682 1636 1574 1661 1584 1667 1699 1601 1604 1641 1657 1582 1561 1638 1546 1554 1579 1611 1669 1586 1578 1566 1589 1552 1603 1484 1511 1459 1478 1512 1433 1435 1423 1454 1500 1510 1424 1468 1514 1506 1477 1411 1417 1423 1492 1397 1488 1454 1421 1515 1506 1417 1438 1487 1516 1438 1425 1588 1428 1504 1430 1416 1467 1371 1448 1501 1521 1426 1496 1416 1496 1391 1441 1478 1539 1436 1519 1457 1428 1467 1433 1440 1492 1468 1471 1476 1446 1498 1443 1433 1430 1481 1422 1477 1464 1415 1414 1426 1440 1499 1414 1469 1438 1561 1462 1452 1456 1477 1485 1509 1444 1441 1484 1438 1435 1425 1549 1488 1452 1476 1422 1462 1498 1477 1419 1463 1446 1437 1435 1456 1515 1532 1510 1506 1520 1466 1562 1556 1582 1512 1481 1513 1509 1561 1671 1569 1518 1588 1531 1566 1606 1635 1676 1719 1656 1660 1701 1717 1706 1760 1740 1859 1873 1932 1898 1935 1932 2109 2042 2101 2157 2177 2238 2268 2341 2329 2366 2551 2516 2491 2470 2532 2480 2563 2461 2449 2460 2506 2490 2439 2426 2401 2280 2382 2313 2295 2325 2227 2153 2219 2194 2179 2005 2045 1969 1982 1942 1958 1909 1801 1806 1816 1768 1717 1785 1772 1692 1679 1679 1657 1627 1666 1511 1582 1558 1636 1610 1614 1613 1611 1508 1555 1551 1496 1500 1514 1541 1563 1537 1560 1512 1407 1526 1528 1480 1484 1480 1515 1472 1503 1502 1495 1511 1469 1461 1503 1574 1442 1528 1479 1541 1559 1521 1579 1562 1497 1572 1564 1583 1567 1552 1582 1640 1486 1530 1550 1552 1573 1541 1600 1546 1583 1519 1498 1523 1574 1542 1572 1487 1513 1475 1546 1565 1563 1521 1555 1445 1507 1441 1464 1410 1527 1456 1461 1504 1455 1443 1468 1505 1494 1442 1448 1484 1501 1471 1410 1442 1477 1421 1484 1488 1496 1517 1457 1443 1526 1444 1478 1459 1474 1520 1442 1468 1505 1498 1489 1461 1447 1495 1480 1496 1559 1517 1529 1514 1517 1456 1514 1548 1528 1526 1405 1610 1569 1534 1530 1513 1587 1537 1580 1543 1573 1607 1622 1620 1574 1622 1598 1733 1645 1646 1702 1676 1705 1727 1650 1646 1682 1671 1605 1665 1655 1634 1599 1621 1640 1558 1565 1600 1647 1633 1589 1623 1587 1651 1627 1520 1603 1590 1518 1542 1537 1533 1580 1483 1416 1455 1526 1466 1439 1485 1494 1457 1422 1490 1503 1492 1514 1414 1533 1441 1500 1445 1480 1434 1438 1473 1465 1422 1452 1405 1495 1456 1443 1419 1417 1440 1502 1443 1417 1461 1432 1398 1542 1397 1444 1481 1499 1436 1447 1444 1461 1403 1408 1486 1486 1493 1461 1450 1447 1513 1412 1425 1472 1436 1431 1431 1381 1470 1536 1454 1439 1413 1484 1441 1443 1486 1413 1413 1392 1449 1450 1388 1494 1453 1478 1485 1415 1460 1380 1467 1410 1427 1403 1535 1408 1400 1425 1444 1423 1442 1469 1403 1434 1449 1443 1443 1415 1432 1408 1418 1458 1450 1418 1419 1416 1446 1381 1480 1427 1391 1407 1524 1424 1446 1448 1404 1437 1415 1371 1473 1436 1395 1512 1390 1483 1410 1432 1427 1447 1482 1466 1447 1458 1504 1457 1452 1434 1493 1367 1439 1440 1429 1421 1429 1407 1463 1421 1400 1417 1469 1413 1439 1342 1441 1404 1468 1450 1401 1398 1444 1454 1430 1462 1440 1437 1427 1391 1400 1441 1445 1457 1430 1385 1399 1459 1402 1426 1375 1458 1386 1371 1478 1472 1409 1468 1396 1458 1482 1381 1400 1391 1436 1425 1379 1478 1453 1448 1506 1518 1470 1387 1474 1370 1420 1445 1456 1434 1448 1493 1414 1479 1408 1413 1383 1437 1408 1448 1437 1390 1382 1396 1477 1419 1430 1470 1389 1446 1436 1481 1454 1452 1503 1404 1417 1410 1438 1384 1394 1508 1459 1401 1385 1490 1424 1361 1403 1499 1471 1472 1434 1417 1449 1472 1494 1532 1422 1497 1487 1412 1480 1384 1467 1395 1371 1399 1374 1362 1375 1456 1415 1427 1426 1462 1454 1380 1392 1436 1431 1412 1486 1394 1413 1512 1451 1444 1436 1358 1408 1336 1425 1479 1370 1397 1374 1461 1416 1493 1390 1445 1453 1464 1416 1414 1418 1412 1438 1485 1365 1386 1394 1432 1419 1449 1437 1517 1407 1443 1441 1390 1496 1398 1475 1401 1438 1364 1407 1346 1438 1424 1400 1452 1412 1447 1485 1451 1477 1414 1434 1394 1434 1473 1441 1348 1506 1452 1492 1454 1427 1438 1389 1449 1380 1433 1392 1405 1470 1385 1455 1427 1400 1414 1424 1413 1391 1456 1409 1433 1381 1380 1419 1374 1299 1419 1412 1450 1410 1404 1470 1487 1435 1385 1392 1439 1399 1382 1471 1436 1413 1492 1390 1344 1386 1381 1438 1362 1390 1333 1386 1440 1445 1427 1449 1388 1448 1471 1376 1454 1358 1434 1458 1492 1419 1430 1469 1398 1464 1449 1528 1502 1470 1389 1464 1416 1457 1456 1461 1434 1468 1392 1445 1442 1477 1430 1429 1401 1448 1486 1429 1385 1468 1500 1397 1450 1518 1448 1414 1451 1466 1489 1382 1533 1495 1542 1567 1500 1473 1506 1565 1546 1546 1537 1586 1499 1562 1604 1588 1653 1526 1548 1527 1553 1573 1507 1515 1564 1577 1524 1523 1514 1489 1560 1523 1541 1524 1485 1552 1511 1419 1491 1479 1505 1508 1452 1482 1493 1459 1511 1480 1491 1429 1532 1450 1468 1453 1506 1458 1439 1529 1390 1425 1467 1459 1425 1442 1455 1493 1468 1394 1489 1420 1395 1440 1434 1423 1428 1450 1389 1403 1458 1362 1414 1522 1487 1413 1423 1409 1405 1386 1415 1459 1386 1416 1430 1378 1446 1383 1488 1431 1463 1363 1412 1491 1400 1413 1451 1385 1472 1421 1408 1478 1437 1437 1375 1446 1467 1515 1408 1374 1355 1466 1428 1403 1400 1448 1500 1430 1393 1410 1436 1407 1441 1488 1432 1443 1436 1454 1359 1414 1417 1431 1413 1413 1362 1377 1410 1390 1479 1480 1431 1342 1437 1363 1367 1404 1395 1437 1429 1364 1463 1429 1454 1365 1412 1359 1408 1443 1546 1456 1429 1405 1484 1424 1478 1402 1411 1478 1444 1406 1284 1376 1371 1386 1465 1464 1362 1427 1427 1389 1348 1378 1371 1407 1498 1395 1432 1384 1401 1465 1441 1405 1404 1445 1379 1364 1427 1477 1374 1397 1365 1440 1474 1398 1409 1409 1395 1450 1409 1477 1470 1438 1400 1465 1444 1387 1479 1457 1396 1419 1438 1434 1401 1465 1400 1427 1365 1390 1463 1399 1401 1368 1381 1412 1413 1428 1472 1443 1441 1392 1453 1422 1427 1359 1456 1391 1448 1424 1439 1435 1451 1456 1490 1341 1407 1466 1447 1416 1504 1439 1440 1403 1384 1428 1466 1441 1408 1431 1415 1438 1455 1492 1445 1371 1554 1465 1510 1491 1486 1457 1481 1471 1567 1563 1570 1593 1549 1518 1492 1595 1627 1540 1600 1603 1612 1594 1607 1711 1626 1735 1705 1782 1794 1855 1735 1777 1713 1841 1742 1775 1841 1706 1786 1762 1755 1719 1767 1771 1772 1690 1756 1781 1788 1717 1744 1672 1746 1738 1643 1777 1737 1704 1713 1629 1583 1625 1639 1633 1490 1596 1547 1587 1550 1523 1558 1569 1567 1478 1537 1562 1467 1523 1518 1482 1500 1495 1489 1510 1511 1513 1493 1406 1460 1445 1509 1405 1470 1480 1449 1461 1459 1465 1437 1416 1490 1467 1412 1442 1426 1421 1478 1450 1423 1494 1452 1419 1409 1442 1490 1523 1446 1412 1449 1472 1467 1443 1435 1533 1448 1460 1433 1467 1508 1496 1495 1455 1512 1435 1424 1385 1481 1403 1508 1505 1435 1457 1475 1421 1429 1458 1448 1386 1448 1443 1419 1474 1468 1485 1494 1427 1470 1438 1475 1465 1409 1506 1404 1561 1440 1514 1457 1474 1418 1379 1387 1442 1443 1446 1510 1425 1491 1464 1448 1466 1397 1430 1471 1458 1357 1440 1419 1416 1462 1391 1433 1416 1426 1436 1461 1440 1413 1515 1463 1436 1425 1508 1418 1386 1413 1362 1412 1371 1363 1453 1346 1424 1383 1354 1427 1369 1395 1467 1433 1466 1403 1402 1419 1444 1387 1461 1447 1397 1451 1460 1383 1404 1503 1437 1427 1416 1431 1420 1394 1443 1458 1465 1485 1415 1467 1427 1412 1422 1433 1386 1418 1402 1458 1391 1388 1528 1416 1458 1467 1377 1420 1413 1406 1345 1372 1405 1403 1366 1423 1369 1471 1472 1447 1449 1447 1436 1416 1432 1505 1418 1443 1385 1445 1418 1407 1380 1383 1451 1420 1475 1452 1416 1464 1423 1414 1412 1395 1456 1376 1441 1474 1334 1452 1406 1403 1398 1368 1370 1367 1445 1375 1394 1416 1418 1437 1437 1400 1408 1425 1345 1397 1453 1454 1504 1451 1375 1551 1389 1338 1407 1395 1509 1464 1479 1374 1379 1431 1370 1441 1417 1401 1464 1409 1408 1447 1431 1467 1422 1356 1394 1451 1325 1474 1404 1337 1390 1350 1490 1379 1434 1373 1381 1397 1352 1326 1345 1437 1432 1421 1391 1470 1390 1362 1443 1466 1463 1427 1470 1349 1372 1422 1457 1377 1408 1492 1392 1495 1428 1380 1486 1440 1383 1392 1370 1358 1459 1465 1409 1493 1389 1421 1414 1387 1403 1383 1413 1403 1492 1371 1405 1430 1447 1408 1394 1422 1496 1339 1447 1407 1405 1415 1482 1435 1466 1487 1377 1444 1418 1419 1450 1423 1438 1340 1469 1374 1450 1371 1397 1433 1466 1413 1414 1495 1442 1414 1475 1523 1373 1443 1516 1431 1418 1426 1353 1474 1370 1430 1432 1408 1371 1460 1376 1353 1438 1388 1407 1364 1398 1447 1445 1440 1445 1503 1435 1453 1433 1421 1315 1462 1327 1461 1401 1408 1423 1390 1477 1383 1415 1453 1440 1414 1428 1421 1487 1394 1436 1447 1383 1437 1437 1454 1422 1395 1469 1470 1395 1391 1454 1397 1475 1436 1417 1444 1386 1405 1457 1448 1396 1417 1447 1417 1423 1470 1402 1446 1481 1414 1394 1437 1427 1476 1406 1380 1366 1427 1401 1451 1433 1457 1445 1429 1460 1388 1458 1365 1471 1491 1416 1356 1406 1413 1439 1352 1403 1423 1366 1407 1422 1445 1439 1427 1404 1423 1433 1410 1428 1468 1389 1423 1438 1368 1380 1420 1465 1395 1436 1368 1442 1387 1457 1452 1493 1468 1387 1399 1440 1409 1432 1405 1413 1420 1405 1467 1471 1444 1393 1414 1431 1427 1444 1392 1338 1498 1383 1481 1328 1404 1469 1379 1439 1433 1457 1366 1436 1507 1418 1473 1419 1473 1335 1362 1421 1458 1438 1410 1399 1433 1403 1353 1395 1427 1394 1440 1452 1366 1437 1480 1515 1466 1416 1462 1472 1419 1425 1470 1459 1450 1481 1465 1447 1461 1430 1417 1404 1477 1431 1472 1481 1404 1462 1407 1431 1469 1465 1426 1437 1500 1446 1481 1494 1372 1478 1527 1465 1413 1479 1549 1480 1509 1470 1547 1522 1497 1452 1483 1500 1475 1533 1509 1594 1544 1541 1547 1552 1601 1564 1554 1507 1466 1522 1498 1564 1500 1537 1499 1509 1483 1509 1567 1527 1549 1479 1562 1505 1531 1545 1589 1499 1489 1514 1494 1549 1483 1485 1543 1520 1562 1540 1611 1534 1570 1580 1545 1495 1525 1535 1546 1531 1565 1600 1544 1521 1608 1596 1501 1569 1544 1551 1593 1519 1558 1552 1564 1512 1516 1535 1521 1499 1522 1539 1596 1574 1533 1567 1578 1504 1541 1576 1490 1471 1515 1485 1563 1475 1500 1580 1532 1497 1529 1482 1464 1424 1441 1513 1488 1448 1439 1474 1516 1459 1485 1425 1545 1465 1465 1402 1480 1426 1426 1414 1458 1459 1369 1473 1400 1468 1468 1441 1471 1431 1464 1464 1516 1416 1484 1435 1417 1412 1425 1368 1432 1478 1402 1457 1463 1443 1461 1415 1471 1432 1460 1461 1503 1388 1435 1395 1461 1565 1538 1484 1402 1411 1477 1430 1472 1482 1402 1381 1388 1420 1409 1475 1412 1434 1525 1436 1461 1453 1437 1517 1502 1458 1485 1485 1480 1482 1516 1440 1489 1518 1507 1597 1468 1515 1499 1513 1531 1480 1508 1557 1524 1484 1537 1506 1452 1499 1491 1479 1415 1447 1468 1455 1460 1478 1485 1454 1444 1537 1582 1533 1475 1434 1475 1467 1472 1496 1544 1395 1555 1413 1448 1416 1476 1517 1472 1509 1574 1535 1502 1424 1489 1466 1470 1517 1474 1494 1498 1460 1488 1553 1518 1571 1556 1579 1566 1537 1593 1611 1511 1581 1530 1690 1608 1669 1712 1633 1622 1641 1730 1768 1647 1682 1695 1811 1768 1863 1801 1810 1784 1913 1864 1923 1958 1982 1865 2019 2020 2006 1936 2027 2090 2085 2149 2119 2209 2143 2103 2149 2096 2146 2078 2099 2153 2036 2058 2003 2069 2006 2044 2043 1928 2001 1991 1928 1934 2010 1993 1845 1919 1921 1861 1834 1927 1889 1816 1847 1761 1738 1799 1727 1653 1735 1751 1662 1635 1644 1598 1677 1654 1609 1610 1592 1588 1593 1589 1513 1525 1476 1560 1447 1544 1505 1552 1518 1515 1508 1516 1557 1579 1473 1508 1533 1525 1511 1440 1450 1507 1512 1533 1387 1461 1549 1470 1462 1514 1464 1445 1444 1458 1480 1496 1487 1429 1464 1465 1405 1497 1574 1482 1505 1481 1456 1485 1414 1392 1507 1434 1492 1406 1508 1451 1427 1489 1476 1429 1497 1537 1517 1389 1460 1507 1535 1486 1478 1469 1419 1520 1487 1547 1478 1535 1533 1507 1534 1447 1512 1472 1482 1541 1550 1548 1556 1585 1463 1484 1494 1607 1563 1532 1545 1584 1547 1532 1510 1506 1550 1492 1577 1568 1487 1490 1501 1578 1562 1551 1498 1533 1524 1489 1533 1516 1599 1513 1511 1545 1515 1495 1537 1524 1514 1554 1467 1532 1522 1526 1473 1605 1549 1529 1476 1505 1533 1493 1492 1509 1560 1512 1469 1511 1524 1493 1439 1525 1469 1481 1440 1501 1536 1484 1503 1439 1432 1461 1520 1467 1457 1468 1489 1437 1469 1447 1466 1443 1522 1477 1412 1500 1489 1446 1473 1426 1485 1433 1471 1490 1532 1472 1446 1496 1335 1451 1429 1433 1441 1404 1508 1453 1479 1417 1452 1504 1392 1365 1467 1436 1474 1458 1457 1380 1402 1431 1523 1473 1483 1456 1410 1449 1426 1404 1380 1410 1489 1419 1463 1390 1457 1492 1501 1425 1394 1455 1406 1449 1387 1379 1408 1431 1519 1443 1441 1446 1379 1444 1416 1396 1394 1422 1451 1507 1456 1392 1355 1399 1466 1369 1464 1481 1404 1420 1400 1427 1445 1425 1441 1492 1429 1489 1466 1497 1447 1460 1414 1397 1414 1427 1456 1408 1368 1497 1463 1377 1465 1453 1411 1358 1400 1426 1440 1377 1444 1418 1434 1368 1464 1438 1404 1419 1372 1448 1411 1503 1411 1410 1512 1424 1366 1394 1398 1380 1469 1416 1465 1458 1424 1412 1444 1472 1447 1386 1431 1371 1425 1391 1395 1497 1418 1424 1429 1486 1408 1507 1381 1456 1392 1468 1466 1410 1429 1397 1384 1414 1467 1517 1476 1404 1406 1432 1436 1439 1458 1443 1436 1418 1474 1459 1454 1487 1395 1486 1412 1466 1461 1472 1393 1445 1455 1467 1394 1441 1399 1471 1425 1430 1471 1467 1550 1496 1419 1375 1440 1461 1435 1441 1459 1425 1457 1400 1349 1419 1408 1505 1447 1433 1404 1470 1441 1435 1416 1447 1461 1412 1428 1422 1463 1395 1368 1408 1433 1502 1381 1439 1444 1375 1426 1480 1400 1408 1376 1398 1396 1362 1500 1473 1414 1433 1475 1467 1412 1430 1438 1449 1467 1410 1503 1417 1440 1384 1429 1469 1355 1492 1390 1428 1458 1435 1415 1409 1427 1353 1449 1422 1492 1483 1388 1494 1424 1420 1454 1406 1435 1435 1378 1445 1499 1483 1501 1425 1455 1413 1435 1448 1437 1446 1408 1422 1475 1366 1484 1399 1413 1402 1446 1415 1445 1400 1469 1411 1476 1376 1440 1504 1453 1447 1500 1419 1416 1445 1456 1435 1421 1406 1420 1402 1396 1426 1446 1457 1487 1400 1372 1467 1452 1441 1460 1417 1459 1404 1540 1397 1489 1429 1463 1410 1416 1362 1445 1428 1481 1399 1421 1525 1461 1468 1541 1440 1436 1460 1444 1445 1548 1430 1486 1493 1452 1492 1505 1468 1418 1473 1470 1453 1512 1480 1469 1437 1481 1447 1468 1433 1416 1473 1511 1496 1485 1547 1483 1491 1528 1441 1488 1413 1435 1501 1486 1427 1520 1555 1470 1547 1516 1488 1499 1460 1516 1495 1533 1537 1517 1488 1525 1464 1478 1516 1522 1516 1525 1586 1498 1520 1494 1600 1511 1480 1509 1492 1583 1529 1513 1504 1592 1510 1506 1517 1483 1505 1497 1471 1470 1505 1420 1488 1540 1428 1509 1473 1416 1465 1450 1483 1452 1428 1450 1448 1493 1503 1495 1526 1511 1493 1470 1480 1454 1455 1459 1546 1525 1441 1429 1450 1433 1435 1485 1464 1496 1427 1457 1453 1496 1383 1417 1541 1493 1411 1436 1504 1523 1467 1449 1496 1484 1447 1462 1488 1381 1409 1484 1425 1458 1410 1487 1436 1414 1418 1474 1489 1361 1402 1390 1354 1419 1346 1485 1453 1366 1492 1452 1378 1357 1471 1431 1446 1456 1457 1382 1496 1435 1425 1437 1446 1488 1412 1466 1428 1501 1468 1427 1448 1445 1463 1492 1441 1484 1485 1377 1412 1510 1396 1434 1428 1409 1437 1411 1479 1456 1423 1439 1380 1489 1502 1427 1488 1510 1425 1385 1400 1410 1441 1460 1411 1492 1439 1416 1446 1449 1433 1469 1510 1416 1485 1452 1477 1455 1514 1472 1504 1444 1442 1438 1427 1502 1444 1473 1529 1380 1475 1462 1449 1520 1440 1457 1470 1446 1513 1429 1450 1415 1454 1430 1439 1483 1450 1455 1489 1472 1470 1518 1541 1454 1412 1374 1462 1533 1421 1506 1430 1446 1439 1483 1429 1506 1481 1485 1428 1600 1456 1538 1487 1491 1381 1432 1411 1504 1505 1546 1468 1491 1540 1537 1470 1512 1514 1495 1528 1540 1596 1554 1638 1572 1569 1560 1626 1596 1578 1684 1616 1588 1621 1682 1625 1675 1697 1693 1737 1715 1698 1679 1726 1736 1701 1662 1777 1732 1712 1785 1792 1812 1794 1850 1887 1888 1954 1968 1985 1933 1915 1954 1873 1912 1864 1863 1944 1931 1851 1915 1864 1893 1895 1789 1843 1778 1909 1872 1772 1800 1816 1850 1765 1801 1872 1781 1806 1833 1667 1772 1703 1776 1697 1741 1614 1739 1789 1715 1621 1632 1706 1686 1562 1658 1607 1612 1593 1667 1593 1575 1586 1582 1563 1586 1573 1525 1546 1537 1524 1603 1574 1502 1499 1485 1556 1518 1557 1471 1471 1552 1495 1469 1559 1446 1511 1443 1511 1438 1540 1453 1421 1429 1445 1472 1539 1548 1477 1536 1445 1519 1476 1467 1431 1410 1516 1461 1511 1449 1495 1447 1435 1460 1427 1499 1461 1469 1390 1406 1496 1487 1485 1421 1417 1459 1447 1398 1429 1463 1452 1545 1457 1468 1408 1419 1492 1427 1459 1480 1472 1495 1447 1466 1447 1483 1512 1459 1477 1440 1559 1478 1511 1485 1463 1525 1512 1509 1485 1505 1530 1519 1443 1545 1534 1526 1499 1541 1492 1492 1527 1469 1588 1485 1503 1542 1470 1543 1565 1509 1465 1460 1670 1526 1524 1496 1567 1472 1595 1471 1510 1496 1501 1497 1500 1500 1541 1514 1510 1517 1515 1475 1479 1466 1426 1485 1471 1490 1492 1476 1535 1465 1508 1461 1434 1463 1510 1528 1535 1432 1501 1435 1452 1543 1478 1383 1462 1516 1512 1464 1454 1485 1391 1475 1485 1432 1481 1366 1422 1524 1435 1418 1463 1473 1473 1447 1459 1390 1508 1394 1401 1557 1462 1466 1454 1458 1443 1489 1449 1472 1421 1511 1377 1393 1407 1453 1497 1518 1490 1497 1439 1400 1486 1449 1407 1416 1478 1503 1466 1523 1481 1386 1422 1453 1465 1423 1489 1443 1493 1481 1412 1467 1456 1500 1553 1475 1487 1496 1438 1472 1459 1430 1436 1459 1461 1517 1398 1386 1473 1411 1441 1436 1479 1438 1502 1439 1442 1484 1448 1447 1373 1383 1450 1519 1470 1424 1443 1396 1514 1490 1457 1382 1379 1393 1492 1451 1424 1464 1444 1457 1432 1515 1392 1476 1401 1424 1455 1437 1455 1438 1447 1341 1445 1457 1407 1356 1433 1489 1464 1400 1562 1487 1468 1430 1506 1486 1392 1454 1400 1477 1467 1512 1488 1408 1446 1505 1416 1457 1348 1416 1419 1465 1436 1392 1474 1501 1489 1430 1468 1468 1389 1462 1458 1462 1444 1369 1460 1493 1409 1459 1368 1479 1432 1433 1427 1478 1406 1467 1460 1518 1367 1518 1381 1417 1450 1360 1486 1458 1447 1447 1436 1423 1399 1465 1437 1457 1486 1481 1533 1396 1420 1499 1402 1393 1399 1505 1391 1378 1450 1454 1479 1417 1484 1370 1409 1368 1417 1483 1469 1446 1379 1388 1428 1419 1431 1365 1424 1465 1461 1473 1472 1430 1481 1427 1440 1390 1451 1456 1460 1444 1417 1435 1445 1419 1370 1421 1446 1421 1426 1464 1433 1418 1486 1397 1423 1424 1466 1436 1476 1432 1458 1433 1442 1444 1476 1437 1416 1413 1439 1468 1482 1375 1473 1426 1449 1472 1474 1402 1477 1453 1414 1441 1425 1359 1439 1446 1414 1418 1430 1475 1432 1487 1415 1519 1422 1475 1516 1465 1396 1457 1443 1447 1430 1423 1509 1464 1472 1463 1408 1481 1458 1487 1403 1477 1462 1496 1446 1472 1494 1452 1442 1419 1432 1462 1403 1403 1458 1443 1540 1487 1402 1396 1391 1478 1439 1513 1462 1436 1428 1478 1404 1511 1452 1414 1423 1440 1492 1436 1419 1432 1449 1428 1455 1524 1427 1485 1483 1447 1404 1443 1472 1395 1471 1491 1453 1520 1504 1433 1448 1449 1477 1422 1451 1510 1466 1464 1440 1387 1525 1495 1481 1533 1443 1452 1420 1465 1429 1510 1486 1494 1477 1421 1557 1457 1484 1503 1550 1456 1528 1517 1522 1498 1526 1475 1541 1523 1599 1473 1593 1595 1584 1570 1564 1637 1590 1496 1575 1576 1557 1542 1581 1483 1572 1648 1552 1576 1585 1554 1581 1578 1580 1558 1615 1585 1650 1553 1531 1535 1573 1551 1492 1582</counts>
			</dataPoints>
		</scan>
	</xrdMeasurement>
</xrdMeasurements>
