<?xml version="1.0"?>
<xrdMeasurements xmlns="http://www.xrdml.com/XRDMeasurement/2.3" xmlns:xsi="http://www.w3.org/2001/XMLSchema-instance" xsi:schemaLocation="http://www.xrdml.com/XRDMeasurement/2.3 http://www.xrdml.com/XRDMeasurement/2.3/XRDMeasurement.xsd" status="Completed" recordIdentifier="{0D74BB74-03AE-4124-BA84-3CB0314B4484}">
	<comment>
		<entry/>
	</comment>
	<sample type="To be analyzed">
		<id>GPSS_Li1p5Mn0p5Y0p5Cl4_122625_694efed0ae15af25ac374c5e</id>
		<name></name>
		<preparedBy></preparedBy>
	</sample>
	<xrdMeasurement measurementType="Scan" status="Completed" sampleMode="Reflection">
		<usedWavelength intended="K-Alpha 1">
			<kAlpha1 unit="Angstrom">1.5405980</kAlpha1>
			<kAlpha2 unit="Angstrom">1.5444260</kAlpha2>
			<kBeta unit="Angstrom">1.3922500</kBeta>
			<ratioKAlpha2KAlpha1>0.5000</ratioKAlpha2KAlpha1>
		</usedWavelength>
		<incidentBeamPath>
			<radius unit="mm">145.00</radius>
			<xRayTube id="1010048" name="Empyrean Cu LFF HR (9430 033 7310x)">
				<tension unit="kV">40.0</tension>
				<current unit="mA">15.0</current>
				<anodeMaterial>Cu</anodeMaterial>
				<focus type="Line">
					<length unit="mm">12.0</length>
					<width unit="mm">0.4</width>
					<takeOffAngle unit="deg">6.0</takeOffAngle>
				</focus>
			</xRayTube>
			<sollerSlit id="21010002" name="Soller slits 0.04 rad.">
				<opening unit="rad">0.0400</opening>
			</sollerSlit>
			<mask id="22031000" name="Fixed mask 13 mm">
				<width unit="mm">9.00</width>
			</mask>
			<divergenceSlit id="22120001" name="Divergence slit 1°" xsi:type="fixedDivergenceSlitType">
				<distanceToSample unit="mm">50.00</distanceToSample>
				<height unit="mm">1.52</height>
			</divergenceSlit>
		</incidentBeamPath>
		<sampleMovement xsi:type="spinningSampleMovementType">
			<spinnerRevolutionTime unit="seconds">1.0</spinnerRevolutionTime>
		</sampleMovement>
		<diffractedBeamPath>
			<radius unit="mm">145.00</radius>
			<antiScatterSlit id="22090040" name="AS slit 9 mm (PIXcel)" xsi:type="fixedAntiScatterSlitType">
				<height unit="mm">9.00</height>
			</antiScatterSlit>
			<sollerSlit id="21020003" name="Large Soller slits 0.04 rad.">
				<opening unit="rad">0.0400</opening>
			</sollerSlit>
			<filter id="20030001" name="Large beta-filter Nickel">
				<material>Ni</material>
				<thickness unit="mm">0.020</thickness>
			</filter>
			<detector id="7010019" name="PIXcel1D-Medipix3 detector" xsi:type="rtmsDetectorType">
				<phd unit="keV">
					<lowerLevel>4.02</lowerLevel>
					<upperLevel>11.27</upperLevel>
				</phd>
				<mode>Scanning</mode>
				<activeLength unit="deg">5.542</activeLength>
			</detector>
		</diffractedBeamPath>
		<scan appendNumber="0" mode="Continuous" scanAxis="Gonio" status="Completed">
			<header>
				<startTimeStamp>2025-12-29T12:51:04-08:00</startTimeStamp>
				<endTimeStamp>2025-12-29T12:59:11-08:00</endTimeStamp>
				<author>
					<name>AutomatedUser</name>
				</author>
				<source>
					<applicationSoftware version="1.7b (136)">PANalytical Aeris Instrument Suite</applicationSoftware>
					<instrumentControlSoftware version="3.2.00000000 20240306">AERIS</instrumentControlSoftware>
					<instrumentID>950485</instrumentID>
				</source>
			</header>
			<dataPoints>
				<positions axis="2Theta" unit="deg">
					<startPosition>10.00943322</startPosition>
					<endPosition>99.99442286</endPosition>
				</positions>
				<positions axis="Omega" unit="deg">
					<startPosition>5.00471661</startPosition>
					<endPosition>49.99721143</endPosition>
				</positions>
				<commonCountingTime unit="seconds">12.495</commonCountingTime>
				<counts unit="counts">3241 3127 3047 3177 3205 3227 3099 3110 3216 3183 3092 3095 3191 3185 3194 3128 3203 3151 3141 3230 3113 3267 3162 3285 3143 3371 3138 3145 3207 3115 3196 3178 3370 3176 3302 3131 3199 3250 3217 3196 3093 3300 3256 3355 3172 3261 3291 3176 3339 3225 3364 3292 3346 3256 3307 3172 3448 3254 3333 3334 3273 3348 3449 3226 3435 3338 3339 3253 3370 3487 3403 3324 3490 3341 3357 3452 3463 3430 3415 3312 3406 3370 3389 3424 3415 3390 3462 3427 3404 3392 3336 3531 3410 3409 3613 3498 3480 3556 3439 3474 3497 3419 3462 3489 3586 3427 3516 3478 3427 3506 3487 3481 3503 3530 3522 3578 3542 3523 3571 3457 3538 3599 3550 3568 3570 3680 3563 3576 3526 3659 3636 3613 3796 3602 3637 3672 3703 3540 3570 3521 3583 3629 3708 3611 3548 3583 3619 3580 3747 3558 3674 3672 3657 3691 3564 3673 3644 3707 3822 3705 3749 3652 3726 3691 3709 3721 3759 3765 3695 3684 3682 3607 3671 3671 3768 3749 3668 3732 3640 3604 3709 3670 3737 3614 3563 3750 3674 3796 3660 3706 3891 3657 3615 3639 3526 3611 3649 3586 3703 3737 3656 3592 3594 3511 3646 3701 3709 3646 3673 3694 3640 3705 3615 3669 3551 3639 3624 3673 3572 3546 3619 3605 3593 3600 3617 3702 3643 3575 3494 3516 3643 3624 3639 3524 3525 3558 3458 3548 3548 3476 3535 3519 3526 3488 3612 3534 3452 3448 3540 3497 3445 3553 3459 3457 3342 3418 3399 3521 3460 3639 3517 3542 3508 3530 3515 3534 3545 3414 3443 3351 3449 3461 3531 3394 3534 3486 3564 3408 3473 3448 3541 3482 3418 3439 3339 3434 3559 3393 3480 3465 3496 3399 3565 3517 3525 3496 3418 3439 3532 3290 3490 3513 3674 3416 3363 3448 3470 3313 3532 3430 3442 3449 3377 3509 3367 3417 3360 3536 3467 3445 3448 3442 3407 3520 3510 3526 3509 3520 3498 3536 3492 3591 3494 3614 3454 3457 3461 3557 3460 3518 3429 3605 3544 3550 3544 3413 3497 3528 3516 3622 3504 3607 3713 3488 3587 3513 3626 3632 3668 3616 3541 3677 3568 3551 3570 3652 3554 3575 3616 3596 3581 3764 3648 3641 3818 3665 3752 3667 3657 3816 3682 3636 3654 3706 3612 3657 3742 3790 3750 3761 3680 3801 3714 3753 3702 3901 3764 3787 3645 3848 3838 3782 3828 3759 3771 3774 3758 3909 3914 3880 3823 3859 3812 3919 3791 3850 3839 3882 3763 3873 3827 3959 3767 3953 3850 3984 3938 3963 3878 3954 4001 3957 3871 4049 4112 4032 4099 4059 4019 4062 4146 4088 4119 4192 4216 4193 4230 4388 4280 4387 4286 4298 4320 4308 4318 4117 4243 4253 4131 4255 4205 4189 4287 4351 4286 4299 4445 4371 4331 4231 4344 4171 4246 4262 4134 3968 4142 3978 3953 3901 3934 3900 3912 3974 3807 3873 3860 3729 3925 3800 3925 3870 3717 3771 3771 3757 3765 3612 3684 3589 3803 3792 3700 3586 3677 3744 3671 3630 3597 3565 3489 3471 3689 3524 3503 3520 3528 3529 3644 3425 3583 3534 3578 3548 3496 3498 3485 3467 3582 3416 3449 3457 3618 3542 3577 3565 3433 3451 3340 3499 3580 3365 3530 3556 3474 3496 3583 3655 3472 3679 3548 3537 3517 3616 3642 3573 3763 3685 3789 3770 3721 3847 3848 3948 3894 3812 3856 3777 3722 3736 3534 3396 3518 3337 3313 3236 3296 3303 3225 3221 3240 3172 3252 3277 3137 3095 3205 3246 3227 3250 3269 3217 3145 3224 3094 3269 3109 3172 3095 3137 3084 3191 3073 3161 3164 3172 3182 3122 3125 3150 3079 2969 3170 3087 3103 3018 3132 2993 3051 3067 3058 3114 3109 3222 2967 3077 3073 2979 3030 3046 3007 3026 3082 3014 2955 3085 3123 3028 3107 3042 3062 3012 3074 3058 2923 3088 2846 3032 2960 3037 2983 3111 2989 3070 2961 2979 2991 3058 3002 2984 3022 2952 2997 3063 2958 2953 2974 2986 2941 2931 2890 3048 2986 2961 2977 2989 3040 3052 3068 3056 2972 3046 3002 2965 2941 3098 2937 3042 3010 3064 3174 3129 3110 3051 3039 3124 3037 3171 3135 3160 3164 3122 3160 3055 3124 3165 2953 3026 2942 3014 2958 3015 2996 2914 2980 2992 3011 3024 3012 2929 3026 2876 3052 2874 2951 2959 2895 3026 3087 2908 3019 3079 2887 2896 2953 2947 2981 2982 2968 2987 2992 2991 3044 3011 2906 2958 2990 2950 2972 3015 3043 3038 3052 2987 2999 3048 3001 2951 2975 2958 3072 2948 2839 2971 3047 3021 2960 2938 2953 2898 2884 2917 3032 2923 2990 2946 2941 2917 2766 2959 2822 2909 2823 2883 2898 2850 2873 2850 2918 2847 2761 2897 2841 2839 2901 2798 2898 2777 2838 2727 2834 2814 2720 2904 2833 2753 2913 2819 2774 2826 2720 2771 2710 2763 2755 2824 2757 2753 2676 2698 2772 2658 2651 2674 2717 2800 2700 2737 2630 2677 2696 2720 2742 2700 2702 2761 2581 2640 2753 2682 2774 2734 2682 2699 2721 2729 2668 2775 2674 2726 2660 2576 2669 2714 2667 2736 2617 2687 2738 2679 2639 2658 2670 2687 2718 2676 2692 2749 2498 2735 2681 2648 2642 2678 2699 2678 2566 2661 2610 2663 2599 2649 2689 2638 2735 2583 2684 2642 2570 2571 2706 2613 2591 2643 2657 2574 2622 2575 2601 2635 2618 2536 2659 2619 2587 2581 2592 2718 2621 2561 2725 2608 2545 2708 2610 2573 2463 2573 2519 2496 2617 2514 2654 2597 2570 2577 2521 2550 2582 2575 2435 2554 2568 2571 2638 2651 2512 2547 2537 2577 2581 2655 2523 2533 2538 2516 2510 2576 2605 2564 2585 2520 2536 2449 2525 2589 2516 2549 2474 2443 2595 2424 2528 2539 2499 2535 2469 2507 2549 2578 2531 2475 2559 2494 2478 2516 2499 2453 2584 2603 2518 2551 2484 2476 2572 2530 2363 2392 2478 2424 2448 2495 2495 2488 2583 2534 2606 2485 2494 2560 2501 2525 2484 2471 2387 2531 2529 2327 2453 2509 2316 2525 2580 2379 2494 2490 2532 2525 2397 2504 2414 2543 2441 2417 2504 2476 2447 2463 2313 2513 2411 2553 2476 2449 2565 2549 2452 2431 2541 2497 2515 2412 2574 2443 2532 2494 2509 2470 2449 2530 2540 2432 2439 2527 2475 2567 2474 2424 2516 2545 2527 2522 2454 2499 2537 2573 2514 2385 2499 2593 2517 2463 2491 2508 2407 2577 2417 2450 2478 2430 2478 2494 2499 2519 2500 2588 2536 2530 2518 2525 2520 2458 2525 2475 2431 2444 2462 2506 2495 2468 2466 2520 2482 2518 2492 2496 2440 2500 2410 2489 2497 2442 2443 2442 2544 2579 2482 2479 2541 2398 2446 2449 2417 2502 2380 2393 2429 2417 2424 2423 2450 2436 2408 2396 2445 2530 2367 2390 2424 2421 2410 2330 2417 2285 2428 2332 2466 2467 2413 2389 2409 2354 2326 2407 2329 2402 2316 2414 2420 2371 2395 2364 2411 2341 2374 2364 2322 2342 2411 2359 2302 2316 2279 2327 2300 2369 2314 2363 2297 2352 2277 2240 2341 2287 2327 2374 2312 2279 2350 2263 2274 2367 2278 2285 2331 2328 2379 2330 2229 2336 2299 2363 2330 2315 2318 2252 2241 2316 2274 2365 2146 2146 2121 2200 2239 2184 2244 2190 2173 2215 2222 2109 2140 2177 2145 2199 2186 2145 2053 2202 2148 2159 2170 2039 2080 2068 2048 2062 2057 2050 2046 2041 2044 2075 2049 2124 1947 2040 1994 2136 2069 2008 1926 2062 2001 2003 1891 2105 2056 2019 2078 2007 1955 2028 2068 2054 2008 2035 2092 2050 1996 2069 1953 2028 2054 2004 2055 1964 2075 1969 1930 1967 1937 1976 2036 1915 1893 1901 1899 1850 1920 1919 1865 1839 1859 1840 1901 1837 2008 1830 1865 1792 1893 1738 1871 1898 1883 1891 1796 1820 1848 1807 1884 1758 1867 1812 1829 1870 1837 1889 1816 1742 1870 1751 1765 1733 1807 1743 1772 1783 1814 1833 1710 1785 1772 1768 1813 1801 1818 1854 1815 1838 1804 1760 1764 1856 1776 1780 1844 1812 1813 1751 1777 1772 1754 1770 1742 1662 1855 1747 1770 1745 1728 1733 1854 1770 1795 1801 1886 1803 1789 1807 1823 1781 1740 1811 1799 1781 1720 1761 1808 1763 1799 1758 1742 1776 1838 1798 1749 1771 1787 1744 1813 1764 1857 1832 1777 1778 1819 1809 1799 1758 1728 1787 1737 1741 1795 1687 1796 1862 1795 1834 1798 1749 1824 1786 1750 1780 1758 1756 1799 1737 1780 1772 1801 1753 1755 1736 1812 1886 1830 1757 1814 1782 1751 1765 1876 1782 1807 1784 1823 1767 1711 1792 1840 1825 1805 1830 1812 1794 1817 1807 1804 1744 1724 1737 1793 1795 1843 1785 1759 1815 1744 1791 1793 1807 1691 1815 1702 1743 1845 1714 1754 1771 1816 1821 1845 1814 1833 1769 1741 1831 1771 1804 1725 1857 1825 1762 1771 1820 1780 1831 1805 1798 1794 1787 1842 1850 1841 1806 1783 1850 1842 1894 1874 1859 1843 1865 1832 1891 1849 1809 1911 1859 1937 1916 1885 1913 1986 1975 1945 1936 2015 1985 2036 2043 2043 2012 2123 2087 2189 2029 2199 2199 2087 2081 2174 2138 2072 1988 1987 1902 1971 1854 1903 1910 1873 1761 1851 1815 1787 1759 1776 1714 1724 1770 1774 1721 1789 1739 1659 1681 1698 1679 1716 1652 1755 1653 1578 1616 1573 1649 1610 1636 1693 1642 1666 1652 1564 1663 1613 1587 1656 1593 1636 1613 1583 1595 1648 1628 1589 1615 1575 1603 1627 1602 1570 1578 1585 1572 1562 1558 1495 1543 1561 1528 1574 1577 1538 1545 1537 1539 1568 1552 1582 1625 1558 1529 1544 1485 1540 1536 1564 1506 1493 1541 1568 1536 1602 1496 1548 1566 1494 1499 1526 1540 1451 1549 1513 1516 1563 1512 1489 1525 1514 1507 1546 1578 1545 1563 1439 1531 1452 1490 1528 1540 1573 1530 1559 1561 1499 1555 1598 1588 1468 1485 1634 1527 1478 1515 1497 1548 1465 1506 1499 1460 1493 1522 1508 1427 1536 1563 1519 1621 1534 1564 1629 1619 1607 1653 1670 1674 1696 1687 1653 1699 1599 1653 1599 1646 1597 1629 1620 1612 1580 1476 1535 1516 1526 1449 1465 1403 1420 1530 1424 1408 1358 1429 1386 1440 1373 1378 1482 1473 1438 1458 1400 1367 1428 1487 1437 1423 1480 1397 1409 1399 1416 1408 1345 1411 1369 1303 1415 1359 1349 1390 1340 1369 1339 1327 1401 1337 1400 1344 1330 1356 1376 1348 1303 1346 1406 1399 1327 1371 1409 1339 1364 1405 1370 1415 1305 1396 1398 1454 1450 1380 1400 1451 1483 1477 1434 1444 1398 1438 1411 1449 1427 1438 1433 1489 1403 1491 1418 1430 1471 1455 1446 1454 1475 1581 1537 1551 1578 1686 1682 1724 1759 1805 1817 1900 1832 1925 1963 1833 1978 1907 1882 1854 1831 1821 1732 1656 1615 1632 1526 1473 1567 1483 1430 1450 1453 1529 1420 1375 1318 1360 1371 1335 1398 1295 1387 1373 1280 1392 1357 1290 1308 1288 1389 1292 1286 1317 1289 1322 1370 1301 1312 1268 1345 1308 1276 1277 1326 1261 1353 1325 1290 1300 1286 1281 1367 1321 1364 1280 1223 1233 1258 1222 1283 1232 1258 1259 1271 1244 1170 1213 1250 1171 1180 1131 1208 1162 1180 1221 1196 1199 1190 1178 1174 1185 1226 1137 1127 1193 1147 1209 1156 1192 1159 1184 1208 1164 1149 1267 1227 1220 1183 1215 1163 1207 1249 1173 1194 1166 1184 1151 1184 1187 1200 1185 1105 1209 1177 1146 1206 1169 1170 1163 1173 1239 1258 1231 1186 1219 1250 1153 1157 1262 1198 1275 1197 1289 1260 1409 1368 1357 1337 1403 1383 1494 1403 1431 1507 1475 1488 1453 1503 1523 1538 1591 1550 1608 1654 1733 1628 1792 1813 1874 1998 1963 2087 2123 2246 2358 2569 2635 2691 2778 3055 3100 3298 3396 3463 3508 3490 3509 3463 3545 3287 3170 3050 2821 2662 2328 2344 2211 1966 1930 1685 1658 1580 1441 1403 1383 1336 1351 1272 1249 1275 1195 1263 1195 1257 1195 1214 1207 1206 1227 1200 1223 1263 1264 1287 1156 1207 1228 1218 1192 1259 1244 1271 1349 1302 1311 1392 1354 1375 1385 1343 1373 1319 1287 1364 1235 1208 1289 1169 1265 1235 1184 1179 1172 1149 1136 1186 1189 1165 1218 1098 1135 1138 1184 1145 1147 1144 1102 1110 1127 1230 1124 1153 1194 1233 1210 1283 1271 1232 1298 1300 1358 1270 1317 1300 1399 1288 1432 1378 1361 1383 1379 1399 1490 1448 1466 1552 1603 1630 1630 1686 1681 1822 1777 1870 1921 1990 1977 1964 2079 2162 2180 2164 2210 2103 2140 2128 2072 2096 2051 1989 1972 1898 1797 1767 1736 1583 1557 1516 1398 1507 1325 1354 1297 1339 1192 1222 1227 1188 1187 1165 1145 1196 1160 1162 1142 1176 1116 1153 1095 1198 1140 1123 1141 1117 1207 1113 1125 1079 1107 1185 1173 1110 1112 1105 1078 1129 1139 1153 1196 1167 1206 1128 1195 1177 1186 1158 1213 1160 1271 1174 1238 1165 1235 1318 1289 1258 1352 1314 1377 1470 1393 1463 1478 1520 1564 1590 1688 1781 1662 1820 1754 1829 1797 1796 1791 1889 1806 1841 1715 1715 1741 1683 1709 1643 1793 1752 1761 1880 1964 2005 2052 2095 2178 2290 2339 2451 2589 2665 2687 2731 2867 2959 2907 2906 2941 2889 2838 2735 2743 2565 2435 2444 2318 2139 2069 1953 1888 1735 1707 1613 1450 1433 1456 1363 1266 1268 1229 1196 1237 1261 1224 1187 1188 1259 1214 1192 1180 1151 1200 1203 1183 1204 1169 1108 1173 1144 1197 1159 1217 1096 1164 1161 1115 1205 1179 1173 1111 1139 1157 1155 1171 1127 1159 1151 1154 1217 1144 1172 1126 1101 1100 1141 1105 1184 1208 1138 1211 1156 1154 1133 1186 1145 1122 1141 1152 1183 1168 1100 1095 1130 1102 1122 1115 1090 1111 1078 1129 1098 1066 1049 1100 1080 1132 1097 1110 1129 1102 1138 1112 1175 1096 1135 1167 1120 1071 1144 1186 1105 1117 1119 1141 1155 1046 1145 1052 1214 1138 1103 1110 1102 1136 1128 1131 1215 1096 1134 1096 1057 1130 1039 1092 1058 1116 1102 1034 1063 1130 1067 1077 1070 1099 1059 1122 1139 1050 1144 1104 1114 1143 1099 1051 1064 1102 1132 1134 1124 1110 1139 1106 1182 1096 1068 1166 1147 1194 1103 1131 1147 1145 1182 1163 1215 1173 1219 1195 1180 1281 1188 1186 1242 1172 1204 1213 1183 1198 1208 1167 1188 1185 1225 1179 1166 1065 1135 1085 1123 1159 1161 1064 1170 1130 1102 1108 1097 1109 1155 1101 1060 1088 986 1099 1029 1033 1055 1087 1118 1136 1117 1073 1049 1117 1004 1117 1133 1077 1091 988 1051 998 1043 1028 1088 1008 995 996 1000 987 1024 1045 1008 996 1048 1025 1054 956 1055 1000 907 958 974 949 1032 1036 1033 1032 1019 987 958 1012 1016 988 993 1001 1000 1009 1007 1020 995 943 997 967 1004 996 1014 1018 971 938 986 985 1012 968 1021 970 1018 998 991 958 978 935 1013 1011 956 1063 971 957 900 958 962 954 979 956 1009 1016 964 996 970 1071 965 973 948 941 929 981 986 984 969 899 943 915 939 938 987 939 952 928 945 921 944 963 973 933 976 955 977 925 980 989 994 985 961 971 978 995 986 905 963 1005 958 915 874 953 961 879 909 881 946 936 948 911 918 986 869 972 902 922 952 973 970 946 949 927 937 949 888 990 950 948 937 932 929 955 981 944 986 940 949 993 1012 1006 963 948 972 904 915 1004 929 946 998 942 979 965 918 977 882 965 897 897 992 948 962 993 886 910 935 887 959 951 948 916 899 956 963 958 988 926 905 943 866 869 917 958 941 903 956 891 880 880 948 892 1013 966 953 935 899 958 915 928 877 885 966 948 905 947 978 942 939 995 971 941 947 915 839 916 933 905 888 920 952 966 957 907 897 936 958 957 890 903 974 904 1001 945 875 948 948 974 961 889 921 993 946 901 874 911 931 963 917 988 900 940 938 944 889 929 916 928 903 905 917 905 943 950 939 926 967 929 933 937 855 887 885 921 935 916 972 945 931 970 929 914 964 969 916 943 978 985 1017 956 987 985 999 913 1012 950 943 1027 969 991 988 929 966 959 927 990 985 940 985 954 979 954 981 923 960 913 974 967 1005 957 1009 988 968 1005 1039 1022 1040 1023 960 1091 951 978 1089 1094 1023 1028 1053 1091 1085 1120 1151 1162 1151 1241 1188 1166 1185 1248 1195 1269 1229 1238 1253 1354 1333 1351 1466 1391 1501 1619 1573 1612 1821 1819 1895 1866 2061 1999 2140 2158 2210 2227 2259 2338 2278 2374 2311 2231 2215 2083 2051 1954 1867 1850 1812 1756 1595 1679 1536 1468 1466 1357 1277 1255 1271 1210 1168 1165 1087 1185 1096 1073 1088 1022 1042 1029 1027 947 1027 1005 959 1035 1013 1104 1005 970 877 971 935 982 970 962 944 925 985 946 984 965 933 927 899 969 941 923 914 931 897 890 963 987 918 969 943 959 934 887 965 950 988 934 911 923 927 914 921 877 891 904 924 972 864 955 864 950 927 943 940 1014 914 932 954 886 866 926 894 924 881 886 938 946 899 904 939 968 1005 896 890 878 978 855 875 896 896 913 929 946 882 952 893 909 952 943 925 970 924 924 891 910 915 955 953 972 1005 962 925 944 935 970 948 963 946 950 929 934 925 961 1018 983 991 1031 999 1021 1029 1046 1131 1088 1110 1173 1125 1155 1076 1033 1107 1077 976 1039 1027 1056 1035 996 991 1083 1012 977 1014 958 1007 990 933 950 965 889 937 983 965 874 925 963 977 967 946 959 946 936 967 970 935 933 954 878 945 924 931 934 880 912 930 1017 993 938 1025 991 928 955 937 891 984 851 933 952 983 916 921 981 969 898 944 936 910 950 935 915 952 934 884 954 952 906 909 951 983 1002 988 918 958 913 921 987 972 936 1036 939 1019 1006 1014 998 951 970 949 997 934 1000 1038 1082 1074 1063 1029 1068 1020 1038 1008 1112 1105 1105 1137 1074 1117 1131 1165 1166 1128 1141 1160 1079 1191 1181 1209 1202 1095 1116 1116 1102 1051 1094 1061 968 1074 986 1102 1037 1026 934 1015 1020 968 986 955 1011 989 990 996 1000 991 1011 1017 929 989 994 1013 1012 1037 983 928 979 992 1019 979 1026 989 1014 980 1014 992 975 1046 1020 1074 1050 1038 1090 1118 1080 1081 1101 1064 1125 1088 1125 1153 1161 1159 1168 1139 1144 1132 1074 1154 1102 1056 1023 1009 1039 1015 1039 982 957 986 1046 1023 971 1013 898 990 963 997 954 957 943 945 970 950 934 1013 974 943 949 943 951 959 935 901 983 979 991 1007 965 936 997 986 1029 1050 1018 1011 1025 1050 1057 1062 1084 1096 1155 1126 1105 1120 1131 1160 1069 1138 1194 1226 1237 1227 1190 1186 1232 1221 1266 1223 1350 1235 1366 1323 1351 1292 1289 1304 1255 1328 1283 1201 1237 1199 1243 1163 1158 1157 1058 1044 1090 1029 1064 1029 1081 1028 1011 1030 954 955 935 1045 922 920 947 893 924 924 881 961 881 983 892 926 884 913 908 917 960 902 937 910 913 879 826 912 897 955 859 936 914 914 869 886 878 929 872 861 878 899 918 856 874 908 914 892 876 814 893 904 889 907 885 889 884 840 896 831 853 876 854 904 872 900 902 858 832 920 872 911 921 878 920 901 954 894 834 856 895 858 904 880 895 886 925 906 886 912 874 907 907 866 861 865 915 868 891 846 819 916 853 853 932 885 877 849 895 905 918 863 911 953 856 872 900 896 912 925 868 917 832 871 831 847 909 927 892 939 933 872 906 934 953 939 898 868 867 860 919 831 933 873 930 901 821 910 968 958 940 916 922 908 862 882 887 931 895 845 946 897 914 909 864 963 904 945 961 942 941 959 939 960 998 995 964 984 955 1034 1018 1035 986 1060 1006 991 1067 1055 1063 1110 1132 1076 1128 1160 1154 1125 1103 1139 1228 1164 1157 1190 1237 1259 1226 1176 1312 1308 1292 1308 1361 1366 1337 1388 1491 1537 1405 1501 1400 1527 1442 1481 1538 1543 1521 1532 1453 1513 1460 1428 1514 1479 1478 1434 1505 1524 1512 1494 1426 1470 1429 1492 1545 1470 1573 1642 1574 1657 1569 1733 1765 1774 1786 1970 1972 1987 2016 2020 2128 2167 2199 2193 2299 2195 2233 2317 2296 2246 2279 2379 2344 2305 2500 2361 2369 2454 2458 2560 2506 2476 2417 2495 2388 2273 2307 2175 2124 2072 1898 1989 1736 1728 1755 1660 1595 1584 1425 1414 1305 1391 1271 1266 1196 1090 1105 1131 1029 1002 1050 1025 960 991 999 941 987 973 980 901 981 915 942 891 864 909 961 918 956 931 906 945 929 904 867 919 927 907 844 960 915 956 868 908 879 907 880 917 901 900 891 909 898 913 914 918 912 966 835 853 856 990 863 921 852 842 845 888 908 929 865 894 901 907 901 929 917 942 939 966 956 937 960 931 979 877 945 929 952 922 952 955 921 909 924 926 893 1013 836 923 870 890 873 867 882 919 889 922 891 842 889 859 913 876 842 881 905 921 934 877 924 891 877 899 841 859 866 899 843 923 891 870 816 911 919 856 904 890 860 861 905 880 878 874 884 867 880 864 880 899 877 893 859 918 943 849 931 829 899 896 897 894 885 838 859 903 917 937 862 869 876 932 886 914 929 900 944 871 940 871 881 888 912 848 980 895 898 923 933 906 907 943 896 906 959 931 966 1015 1025 952 938 980 996 988 997 952 946 955 970 972 962 936 932 1001 930 940 960 934 923 920 895 881 910 897 867 876 885 895 869 927 893 880 892 873 931 805 872 896 955 842 954 821 922 930 884 928 832 864 878 863 863 853 835 886 832 903 881 883 945 864 946 815 950 847 894 852 882 876 850 871 859 937 893 859 949 916 881 846 958 874 834 904 870 876 855 841 872 943 851 881 825 850 878 867 906 819 844 851 827 880 868 930 924 825 905 868 842 893 863 889 886 851 895 878 880 867 863 902 893 870 889 956 887 904 942 918 972 932 965 988 926 919 931 947 958 936 945 973 951 980 972 966 911 945 931 954 904 928 897 929 927 917 862 935 925 932 870 877 842 895 746 838 808 841 845 827 881 839 830 855 871 829 904 870 878 904 922 976 835 882 937 901 932 916 865 924 979 995 933 957 971 1017 982 996 991 1043 1081 1073 1024 1033 1119 1116 1139 1095 1094 1127 1095 1089 1121 1196 1140 1161 1095 1214 1115 1153 1090 1162 1092 1072 1094 1054 1061 1035 1048 1069 1021 975 1052 925 955 993 985 964 956 905 896 847 919 897 876 920 886 850 875 855 847 799 819 830 790 787 826 884 815 812 775 840 781 836 853 829 864 801 804 821 844 839 853 789 796 801 775 806 823 794 804 837 821 789 761 828 804 811 829 848 792 812 794 818 825 797 776 792 841 824 753 830 766 825 772 828 803 834 820 782 842 795 790 775 805 802 758 840 819 812 839 797 796 787 797 842 846 834 830 790 872 812 813 815 824 769 843 798 813 782 725 819 792 737 840 801 755 782 836 839 833 770 811 790 784 821 762 760 735 811 764 754 798 754 806 805 820 793 754 825 817 778 834 816 865 773 798 818 768 817 818 820 784 816 879 771 794 817 787 837 870 831 844 810 846 872 866 811 835 820 845 787 781 809 822 852 811 825 848 862 790 865 856 834 898 804 854 772 795 850 790 906 751 797 832 790 781 780 832 807 801 796 773 829 789 793 803 795 842 818 788 806 797 798 794 888 837 839 831 819 823 782 837 822 808 833 831 837 788 785 823 814 784 845 810 769 863 790 796 745 807 796 809 846 841 824 803 800 815 781 824 770 807 808 803 745 833 781 777 804 798 791 840 885 850 801 804 809 807 828 833 790 895 807 857 839 823 846 854 840 855 854 868 855 818 865 880 884 915 868 853 822 877 809 785 842 854 877 869 872 869 829 893 867 897 896 847 840 877 914 894 874 936 946 949 915 874 939 918 890 921 917 976 953 956 957 979 954 987 965 1010 958 1003 936 1008 972 963 1011 946 964 904 876 889 881 968 971 935 856 853 865 882 862 843 880 869 812 901 803 944 805 902 861 853 868 825 850 852 868 883 821 828 868 853 891 871 912 864 866 860 817 908 869 883 907 943 945 960 948 1012 913 969 971 1010 1007 988 1063 1056 1005 978 952 960 1019 1035 964 951 926 936 958 979 1044 928 900 960 878 910 815 909 886 890 903 866 894 847 844 875 781 833 816 816 762 794 846 808 830 832 756 826 779 768 789 760 804 817 877 822 796 828 789 816 833 779 855 806 796 836 850 881 850 868 866 832 799 841 798 830 820 825 876 824 827 860 828 897 838 965 884 942 933 913 968 989 992 969 1033 988 983 1025 1031 1016 1029 1058 1043 1033 1037 975 1038 914 961 1014 982 962 924 975 1015 955 920 958 904 876 925 907 904 961 932 871 863 909 880 901 894 869 882 857 859 851 863 888 888 866 890 886 923 885 924 923 880 908 859 878 830 846 848 788 873 877 838 840 852 827 818 811 780 775 817 817 804 861 813 777 781 816 859 841 847 807 798 824 816 767 805 803 797 800 783 817 868 804 790 808 781 765 768 806 804 792 733 765 738 801 854 792 876 757 797 772 776 811 784 811 862 846 823 764 753 772 789 786 763 779 818 789 775 811 784 797 786 816 813 802 830 798 861 863 839 826 848 856 880 837 928 802 895 825 871 827 842 898 879 897 819 910 910 877 909 920 892 969 955 924 956 950 987 957 987 985 1033 1008 1023 1020 1031 1108 1092 1021 1063 1079 1024 1069 1066 1095 1012 1054 1051 1052 934 991 965 971 963 984 910 930 926 910 941 962 902 921 921 895 864 932 874 907 929 865 862 897 906 909 886 885 827 840 912 918 833 856 887 868 845 853 856 890 865 930 835 896 883 830 852 842 837 774 812 880 790 831 795 821 769 837 762 843 810 830 785 824 786 804 764 830 855 829 820 861 848 798 861 811 836 848 851 826 831 809 835 852 854 783 824 838 830 828 792 803 767 764 827 820 792 837 806 800 728 800 795 817 781 793 804 798 862 810 878 837 801 828 758 783 848 791 918 861 843 850 874 777 765 787 762 800 809 838 858 761 798 815 763 752 837 793 773 800 811 838 846 774 819 796 758 824 747 829 725 828 786 819 776 835 827 846 811 759 823 813 805 803 836 799 810 841 804 868 833 831 868 847 867 891 881 893 870 864 890 910 886 889 857 915 839 900 825 882 825 844 890 878 804 884 844 763 866 821 856 841 836 876 810 812 793 827 792 787 714 807 793 801 811 773 772 773 778 746 804 777 790 806 805 742 774 786 807 812 801 746 735 787 754 780 739 762 785 852 753 798 827 788 817 753 759 781 820 747 769 774 815 796 812 775 776 778 729 777 708 782 791 813 824 794 797 801 855 809 769 766 831 775 756 731 778 741 787 731 750 723 779 742 809 778 744 785 732 755 799 783 706 835 767 769 782 764 810 757 796 782 772 745 730 701 702 737 742 731 739 781 776 829 754 771 775 743 767 738 740 773 709 766 726 749 771 757 782 784 740 818 713 780 791 782 803 821 774 811 771 785 784 790 791 801 771 776 748 725 742 789 754 784 774 766 758 829 789 766 807 776 792 777 791 839 776 749 788 791 770 776 787 832 866 816 838 890 833 867 817 831 874 877 863 928 864 868 935 967 929 927 969 903 886 998 980 1036 974 993 1012 1071 982 938 979 942 978 910 971 914 958 986 899 891 959 906 853 861 818 809 915 846 791 772 804 801 787 822 821 790 822 799 819 798 810 810 792 849 758 786 760 778 751 798 799 735 839 766 763 781 794 805 775 782 833 806 753 812 786 767 805 759 762 768 827 773 779 806 772 741 745 829 810 782 792 799 788 802 776 761 798 742 770 797 822 790 806 791 802 815 774 805 769 787 799 769 826 810 815 744 791 724 741 706 743 756 731 744 757 762 783 815 804 729 747 768 735 739 756 717 761 793 806 779 763 770 800 712 698 802 769 814 785 817 741 782 774 745 740 776 753 749 757 779 748 774 713 794 739 718 832 762 681 746 767 789 755 751 797 709 814 745 767 732 756 785 726 757 748 741 801 772 778 808 752 763 764 763 744 744 709 794 712 743 722 775 721 761 762 770 778 786 723 720 733 774 788 791 797 798 760 770 784 792 814 818 814 823 821 795 745 844 821 823 829 799 811 817 851 836 825 764 754 839 760 840 765 794 784 859 776 789 783 798 803 818 764 767 766 767 820 776 801 740 737 748 738 780 770 776 761 826 750 747 822 717 776 751 782 785 779 775 780 756 834 735 755 746 846 795 779 815 813 816 827 778 831 824 828 774 820 819 909 813 871 820 877 828 825 794 805 814 818 819 783 799 850 792 829 810 828 820 851 839 793 815 755 858 779 764 784 774 773 733 752 798 785 758 811 731 830 805 782 826 803 743 785 766 768 762 759 737 769 809 774 816 777 783 723 770 766 791 749 786 790 765 779 778 802 745 749 722 727 793 752 747 794 732 756 753 778 746 746 710 683 797 709 752 735 746 788 740 738 770 764 759 732 763 773 770 787 740 718 785 726 754 763 695 746 716 774 813 782 759 700 789 736 769 756 755 738 761 727 696 709 723 744 744 735 733 743 751 752 740 750 760 727 771 790 737 696 710 704 753 708 732 722 695 712 783 728 764 740 737 755 729 726 731 736 729 744 717 750 749 744 777 718 768 698 766 766 719 736 715 704 725 765 723 732 742 745 749 766 762 763 777 732 727 706 690 789 756 780 726 756 767 717 788 694 780 790 784 770 772 757 784 771 778 766 784 779 745 738 767 703 722 718 767 749 767 731 795 767 789 762 706 757 728 744 713 762 740 749 710 791 781 744 757 715 810 744 740 769 820 734 777 743 751 728 762 737 758 786 771 750 705 773 804 762 741 716 712 741 740 758 797 772 757 772 821 758 836 766 823 798 812 798 761 757 860 826 836 798 802 800 831 864 899 882 858 875 806 886 873 819 839 799 817 859 865 896 825 888 844 895 868 837 877 832 847 753 834 799 840 835 866 849 837 759 779 766 790 840 758 825 770 836 742 772 742 798 700 801 750 750 721 763 722 758 723 743 748 746 714 821 794 769 764 717 768 723 722 743 710 763 731 753 751 772 768 739 756 740 749 726 757 733 723 778 749 798 737 814 746 752 749 739 716 710 766 750 734 801 759 795 807 790 769 743 797 751 795 760 805 725 768 726 810 740 721 792 690 760 772 772 734 775 783 781 761 795 771 755 735 768 740 754 789 755 752 780 770 758 751 723 751 700 758 770 734 720 806 798 783 748 744 754 784 713 754 734 726 766 817 771 774 743 736 689 735 684 730 693 771 715 763 781 781 809 794 776 778 746 784 797 775 813 778 777 806 753 759 760 822 809 740 764 775 778 739 738 771 764 812 796 793 778 769 768 813 834 758 739 735 797 747 767 770 773 738 797 727 760 772 719 751 752 767 803 768 705 795 724 737 699 770 805 781 772 717 718 802 757 760 716 710 820 735 698 715 710 704 762 787 788 709 738 788 751 721 752 781 757 750 765 714 697 797 775 764 740 733 725 758 767 751 818 763 786 762 811 782 769 730 757 762 759 747 760 761 823 787 803 797 773 764 754 698 817 708 732 790 736 780 735 745 782 741 769 784 779 806 762 718 777 731 773 729 801 731 810 726 774 722 723 787 756 764 745 796 692 736 767 755 781 752 778 785 795 768 795 804 834 783 761 802 844 797 752 799 779 837 787 847 801 808 818 755 809 791 816 801 864 852 830 811 765 772 774 781 843 774 842 810 723 763 761 790 780 730 839 700 786 747 781 723 701 791 769 779 753 710 785 752 739 815 794 765 784 703 769 750 726 798 786 756 791 789 822 747 800 833 783 813 833 806 773 789 759 799 863 761 824 861 835 814 850 803 823 805 816 879 823 779 724 800 827 791 796 823 809 811 827 783 818 742 801 789 786 836 819 840 811 850 777 799 756 766 751 777 750 804 790 731 750 729 744 804 762 783 763 746 729 791 739 779 763 757 806 757 812 760 725 737 730 779 734 739 759 746 715 763 762 790 773 700 724 784 733 792 729 795 802 737 801 683 752 741 732 754 773 760 795 754 789 708 726 739 772 763 778 740 799 782 771 744 738 676 728 795 771 798 729 736 756 750 752 731 770 776 814 810 755 795 749 764 744 756 756 792 798 697 778 758 783 749 705 827 756 780 768 782 769 792 779 771 818 768 820 792 740 774 745 724 754 769 781 744 814 782 723 780 806 766 744 820 798 764 731 795 800 780 820 756 745 743 800 758 772 764 776 802 750 781 820 769 792 824 759 799 764 765 762 766 734 775 796 829 832 778 802 799 785 746 753 767 747 770 729 779 749 737 786 707 778 807 749 797 771 813 782 748 799 754 779 751 778 767 742 765 830 766 761 773 743 803 749 793 809 775 774 789 874 810 783 806 769 707 745 765 786 779 734 789 735 757 784 775 783 797 801 833 793 817 791 782 782 789 770 763 776 771 812 796 756 784 773 818 764 754 780 744 826 799 776 816 775 839 804 821 766 840 849 735 765 859 845 832 795 765 885 827 836 829 860 826 803 801 815 812 770 807 756 797 775 780 830 772 822 840 836 774 842 823 815 834 844 811 756 836 824 819 803 776 813 768 808 823 835 865 844 836 856 823 842 860 822 871 887 846 851 889 863 832 893 895 840 921 935 951 909 911 939 947 923 892 902 890 904 894 926 892 956 926 897 930 889 890 957 962 968 970 918 891 866 923 905 853 787 886 850 841 829 842 776 807 838 850 842 879 809 847 832 808 824 840 848 808 825 843 830 755 839 822 806 792 770 860 758 830 790 761 793 797 761 810 751 749 849 800 769 778 771 762 810 743 807 780 790 793 817 807 765 743 815 792 823 769 816 792 783 814 774 819 782 854 782 796 807 755 834 745 854 729 791 859 752 799 837 829 809 855 784 841 822 767 800 805 860 814 827 827 863 844 847 854 856 780 838 823 854 828 847 847 817 818 851 858 868 922 830 857 847 893 893 900 890 893 917 891 879 938 901 968 984 1022 990 1049 1054 1040 1059 1076 1049 1112 1080 1035 1117 1128 1146 1113 1112 1161 1180 1149 1156 1091 1097 1117 1011 1123 1029 1078 1170 1157 1120 1034 1078 1077 1107 1062 1088 1039 1069 1081 1036 1076 1009 1037 985 1023 956 951 1002 926 943 966 911 895 963 866 890 906 885 938 956 904 889 842 816 841 851 817 916 862 864 854 800 818 799 859 863 808 790 737 817 853 739 794 772 755 837 796 790 792 769 815 777 815 775 721 793 741 774 774 756 805 782 781 795 759 826 759 803 789 777 773 728 786 713 735 763 758 808 782 792 771 819 820 762 852 776 798 790 759 772 820 788 787 768 786 760 778 753 772 807 779 737 744 759 746 787 720 820 782 841 808 747 749 834 743 800 815 781 813 805 744 759 777 799 793 793 824 829 777 753 784 782 810 793 783 803 786 792 793 783 801 804 822 782 833 792 772 791 763 751 775 795 870 796 795 819 739 848 822 810 821 802 764 815 806 868 750 810 800 801 788 770 790 832 761 811 776 772 835 748 805 764 779 769 791 755 829 779 758 695 733 729 719 802 808 781 743 819 762 798 811 771 754 810 839 789 758 786 777 780 797 811 800 796 850 775 748 810 764 778 754 797 753 771 776 757 777 760 739 806 802 737 788 764 809 734 775 750 760 774 734 768 791 788 776 726 709 790 731 773 773 827 772 769 744 780 741 769 796 777 769 741 744 728 733 762 802 780 760 724 777 772 793 818 774 725 751 770 731 768 798 741 820 746 783 798 766 728 791 775 751 781 776 796 787 743 789 764 792 792 785 803 862 769 769 742 801 778 814 817 852 836 863 866 847 883 922 805 885 841 878 881 866 918 906 875 906 869 929 906 890 991 914 844 905 925 864 884 864 866 838 873 863 864 888 855 861 911 876 890 881 866 898 913 860 849 885 771 812 887 858 879 831 901 817 802 852 806 775 774 838 781 766 760 811 820 878 821 827 843 808 834 771 799 823 752 787 799 800 793 843 830 832 745 838 793 844 815 834 786 854 752 866 835 813 806 768 783 759 865 814 847 766 811 822 783 785 742 756 803 817 780 781 756 806 803 783 815 755 788 754 792 772 791 788 800 680 765 757 773 745 795 813 747 740 767 742 774 774 731 754 737 808 793 852 745 775 783 748 750 736 711 786 727 727 775 782 742 776 786 705 747 716 765 735 759 726 717 792 740 755 746 783 747 752 753 697 742 790 710 728 726 733 747 710 684 717 763 732 737 784 742 761 772 776 733 788 726 750 674 734 705 760 775 740 720 720 752 742 715 710 730 755 744 717 709 773 753 719 770 709 713 756 730 752 771 752 755 762 732 720 796 778 738 757 737 697 736 736 683 757 752 687 751 747 676 745 722 729 752 752 761 751 707 662 744 711 736 743 753 754 698 699 746 719 730 706 729 771 718 770 775 808 742 729 768 758 737 763 728 787 804 783 780 820 761 794 807 756 756 759 805 703 750 735 777 731 776 800 723 738 746 741 763 744 746 780 749 768 742 812 743 696 770 768 745 735 773 776 736 758 728 734 732 764 720 752 703 742 723 725 649 744 727 745 762 750 739 759 769 687 748 759 703 696 786 735 760 800 752 711 773 720 740 729 709 711 667 713 722 766 753 746 755 698 705 790 747 783 762 688 754 769 763 769 768 744 774 723 787 750 752 732 770 743 670 709 710 720 722 741 710 755 714 791 720 730 678 746 726 702 698 716 762 693 760 729 751 768 710 765 725 766 692 753 737 736 739 711 738 727 724 692 727 726 711 771 715 738 748 729 666 764 736 695 755 728 707 711 671 690 713 726 661 704 728 771 730 739 701 769 736 703 754 719 730 765 714 753 699 751 722 777 826 774 746 766 733 700 715 719 723 758 743 691 781 727 744 759 772 760 805 733 812 780 745 764 754 749 718 740 768 707 773 730 776 752 749 781 737 804 738 765 781 804 796 794 819 809 779 774 756 808 765 818 725 783 826 754 803 848 829 800 786 832 815 789 812 842 788 769 809 745 791 832 801 803 844 796 796 804 817 788 814 825 801 766 795 875 851 821 847 859 875 831 886 844 908 943 888 930 841 937 931 871 962 925 917 936 967 1006 943 912 989 915 1007 1001 938 920 855 868 881 939 892 884 823 837 798 833 838 899 906 878 828 796 819 830 795 869 800 805 874 876 808 908 875 832 721 750 822 815 806 800 796 774 781 781 783 722 767 796 744 758 789 753 803 786 771 731 812 740 759 787 790 740 763 719 755 790 745 698 738 739 707 803 747 706 776 787 738 722 701 761 744 734 780 736 719 713 732 731 745 728 722 759 787 698 767 738 717 695 694 736 712 761 750 779 687 743 716 754 691 691 769 735 765 695 694 790 748 730 742 733 713 707 745 767 751 775 732 760 744 764 779 812 727 752 739 729 770 741 751 761 741 708 811 775 724 774 775 734 785 784 784 762 748 765 784 759 749 794 771 745 736 823 686 778 748 732 741 751 737 717 764 713 733 743 706 798 721 780 754 721 751 729 753 720 706 736 769 742 734 719 767 741 710 730 736 734 722 714 700 699 727 760 741 763 720 750 726 744 746 778 686 752 730 743 781 772 742 750 790 745 675 707 744 726 752 745 756 735 751 722 717 755 702 750 718 740 734 785 774 730 705 732 724 711 746 647 730 746 711 801 740 739 752 714 749 724 735 732 740 709 702 689 718 677 750 763 663 775 752 752 714 768 809 726 752 734 775 789 798 656 738 723 705 747 771 746 776 730 717 755 751 746 710 762 757 735 744 800 736 748 725 744 838 792 784 741 794 770 767 728 756 750 684 744 761 715 764 774 752 724 757 727 733 698 757 697 766 779 801 695 756 734 716 698 742 790 743 711 710 762 683 747 696 710 693 700 735 763 697 701 732 678 667 677 724 682 726 725 737 779 735 745 734 694 757 716 707 712 666 655 740 766 707 724 728 703 671 686 719 717 703 740 714 688 709 732 687 743 693 680 709 657 739 729 726 705 731 783 766 697 699 713 708 726 713 703 663 748 685 699 727 719 741 744 713 706 706 679 706 717 682 726 706 722 668 763 804 718 727 742 707 716 663 677 702 718 735 746 746 731 681 678 709 747 735 715 702 660 715 732 733 690 686 688 769 761 668 736 727 695 700 723 712 731 696 730 715 705 735 725 714 712 728 698 765 715 677 710 750 739 688 713 770 688 727 753 745 713 768 687 685 704 711 732 661 784 716 725 706 689 744 723 739 701 722 767 699 705 741 727 701 724 756 742 712 718 706 727 755 684 738 741 671 750 696 718 719 755 707 714 670 692 662 748 774 716 647 719 692 717 775 770 677 725 690 726 707 680 708 782 707 785 665 805 718 734 701 720 693 696 720 688 669 687 743 707 760 658 731 729 758 690 731 714 657 704 732 722 714 694 731 701 739 705 722 688 702 692 744 718 708 698 712 700 793 733 680 720 791 724 732 766 721 738 799 721 733 662 753 796 739 786 714 746 754 789 761 761 740 782 772 821 723 786 744 784 782 792 736 736 802 756 777 776 738 800 715 728 762 792 761 746 803 755 799 809 754 820 758 840 769 812 775 761 742 709 730 772 779 801 793 740 750 793 784 700 768 748 762 751 721 701 761 699 788 726 725 735 731 777 715 696 715 736 796 739 730 715 784 736 692 706 723 692 730 751 696 746 736 728 724 741 715 791 766 765 794 754 783 762 755 677 766 693 690 734 757 688 768 728 754 752 730 739 686 704 694 732 751 712 718 735 687 726 773 717</counts>
			</dataPoints>
		</scan>
	</xrdMeasurement>
</xrdMeasurements>
