<?xml version="1.0"?>
<xrdMeasurements xmlns="http://www.xrdml.com/XRDMeasurement/2.3" xmlns:xsi="http://www.w3.org/2001/XMLSchema-instance" xsi:schemaLocation="http://www.xrdml.com/XRDMeasurement/2.3 http://www.xrdml.com/XRDMeasurement/2.3/XRDMeasurement.xsd" status="Completed" recordIdentifier="{933003B0-99DD-47B9-94F1-473F9888CEC8}">
	<comment>
		<entry/>
	</comment>
	<sample type="To be analyzed">
		<id>GPSS_Li1p9Co0p9Y0p1Cl4_112225_6921f967f4e53d1f72397d36</id>
		<name></name>
		<preparedBy></preparedBy>
	</sample>
	<xrdMeasurement measurementType="Scan" status="Completed" sampleMode="Reflection">
		<usedWavelength intended="K-Alpha 1">
			<kAlpha1 unit="Angstrom">1.5405980</kAlpha1>
			<kAlpha2 unit="Angstrom">1.5444260</kAlpha2>
			<kBeta unit="Angstrom">1.3922500</kBeta>
			<ratioKAlpha2KAlpha1>0.5000</ratioKAlpha2KAlpha1>
		</usedWavelength>
		<incidentBeamPath>
			<radius unit="mm">145.00</radius>
			<xRayTube id="1010048" name="Empyrean Cu LFF HR (9430 033 7310x)">
				<tension unit="kV">40.0</tension>
				<current unit="mA">15.0</current>
				<anodeMaterial>Cu</anodeMaterial>
				<focus type="Line">
					<length unit="mm">12.0</length>
					<width unit="mm">0.4</width>
					<takeOffAngle unit="deg">6.0</takeOffAngle>
				</focus>
			</xRayTube>
			<sollerSlit id="21010002" name="Soller slits 0.04 rad.">
				<opening unit="rad">0.0400</opening>
			</sollerSlit>
			<mask id="22031000" name="Fixed mask 13 mm">
				<width unit="mm">9.00</width>
			</mask>
			<divergenceSlit id="22120001" name="Divergence slit 1°" xsi:type="fixedDivergenceSlitType">
				<distanceToSample unit="mm">50.00</distanceToSample>
				<height unit="mm">1.52</height>
			</divergenceSlit>
		</incidentBeamPath>
		<sampleMovement xsi:type="spinningSampleMovementType">
			<spinnerRevolutionTime unit="seconds">1.0</spinnerRevolutionTime>
		</sampleMovement>
		<diffractedBeamPath>
			<radius unit="mm">145.00</radius>
			<antiScatterSlit id="22090040" name="AS slit 9 mm (PIXcel)" xsi:type="fixedAntiScatterSlitType">
				<height unit="mm">9.00</height>
			</antiScatterSlit>
			<sollerSlit id="21020003" name="Large Soller slits 0.04 rad.">
				<opening unit="rad">0.0400</opening>
			</sollerSlit>
			<filter id="20030001" name="Large beta-filter Nickel">
				<material>Ni</material>
				<thickness unit="mm">0.020</thickness>
			</filter>
			<detector id="7010019" name="PIXcel1D-Medipix3 detector" xsi:type="rtmsDetectorType">
				<phd unit="keV">
					<lowerLevel>4.02</lowerLevel>
					<upperLevel>11.27</upperLevel>
				</phd>
				<mode>Scanning</mode>
				<activeLength unit="deg">5.542</activeLength>
			</detector>
		</diffractedBeamPath>
		<scan appendNumber="0" mode="Continuous" scanAxis="Gonio" status="Completed">
			<header>
				<startTimeStamp>2025-11-24T13:45:27-08:00</startTimeStamp>
				<endTimeStamp>2025-11-24T13:53:34-08:00</endTimeStamp>
				<author>
					<name>AutomatedUser</name>
				</author>
				<source>
					<applicationSoftware version="1.7b (136)">PANalytical Aeris Instrument Suite</applicationSoftware>
					<instrumentControlSoftware version="3.2.00000000 20240306">AERIS</instrumentControlSoftware>
					<instrumentID>950485</instrumentID>
				</source>
			</header>
			<dataPoints>
				<positions axis="2Theta" unit="deg">
					<startPosition>10.00943322</startPosition>
					<endPosition>99.99442286</endPosition>
				</positions>
				<positions axis="Omega" unit="deg">
					<startPosition>5.00471661</startPosition>
					<endPosition>49.99721143</endPosition>
				</positions>
				<commonCountingTime unit="seconds">12.495</commonCountingTime>
				<counts unit="counts">4413 4381 4450 4339 4351 4313 4367 4220 4349 4196 4350 4289 4423 4473 4261 4445 4297 4271 4422 4290 4317 4334 4377 4417 4354 4303 4281 4372 4368 4308 4426 4313 4308 4343 4378 4437 4374 4393 4440 4404 4316 4423 4487 4438 4399 4392 4378 4539 4470 4351 4422 4418 4314 4419 4509 4623 4475 4546 4529 4552 4585 4453 4434 4506 4543 4495 4581 4550 4453 4452 4485 4512 4529 4426 4502 4495 4524 4436 4520 4613 4489 4555 4499 4534 4525 4491 4461 4650 4649 4691 4652 4567 4758 4525 4644 4678 4561 4574 4560 4688 4590 4544 4539 4743 4671 4650 4677 4627 4684 4700 4559 4661 4630 4666 4727 4680 4764 4698 4575 4671 4781 4554 4702 4843 4822 4676 4802 4687 4744 4685 4642 4678 4552 4647 4735 4773 4748 4618 4860 4807 4690 4771 4761 4761 4763 4729 4816 4785 4686 4651 4836 4849 4688 4822 4692 4799 4612 4832 4865 4652 4850 4816 4799 4716 4861 4763 4772 4775 4776 4696 4900 4840 4852 4856 4890 4790 4820 4862 4695 4781 4897 4786 4828 4738 4825 4745 4864 4737 4746 4945 4806 4718 4786 4960 4658 4669 4904 4816 4775 4784 4883 4941 4895 4889 4821 4751 4851 4903 4778 4916 4967 4944 4840 4746 4759 4905 4825 4887 4954 4722 4912 4842 4868 4830 4714 4911 4792 4764 4922 4790 4778 4747 4710 4857 4850 4930 4941 4721 4844 4883 4910 4643 4811 4769 4719 4883 4844 4804 4796 4840 4657 4762 4742 4785 4904 4776 4815 4850 4825 4915 4887 4913 4826 4883 4834 4768 4894 4788 4838 4813 4861 4835 4832 4928 4802 4820 4848 4832 4860 4982 4877 4925 4718 4952 4898 4695 4910 4817 5026 4882 4991 4932 4709 4931 5014 4946 4955 4797 4936 4958 4768 4941 4882 4922 4882 4929 4830 4935 5072 4836 4984 4890 4937 4923 5018 5043 4886 4939 5067 4911 4863 4888 4991 5051 5082 5085 5069 4946 4968 4999 5027 5008 5138 5139 5047 5091 5061 4974 5067 4983 5010 5127 5018 5192 5122 4945 5160 5295 5078 5167 5117 5283 5199 5162 5212 5167 5157 5116 5303 5126 5218 5263 5190 5234 5212 5113 5134 5235 5190 5183 5217 5354 5298 5406 5190 5233 5262 5397 5275 5444 5265 5306 5293 5359 5447 5226 5316 5292 5409 5295 5323 5279 5332 5413 5343 5535 5425 5496 5323 5331 5558 5541 5432 5517 5477 5514 5577 5489 5429 5534 5375 5464 5418 5518 5410 5570 5644 5563 5521 5664 5505 5456 5640 5617 5420 5633 5647 5711 5681 5666 5689 5641 5711 5673 5709 5937 5803 5822 6097 6098 5912 6002 6075 6061 6250 6200 6290 6398 6418 6591 6751 6744 6830 6846 6939 7068 7121 7419 7250 7416 7475 7705 7779 7865 8028 8303 8283 8235 8408 8428 8560 8669 8448 8513 8818 8861 8944 8725 8773 8846 9029 8829 8808 8705 8454 8163 8193 7831 7568 7530 7199 6995 6747 6681 6503 6208 6415 6278 6252 6296 6115 6136 6018 6228 6131 6083 6209 6045 6153 6164 6003 6169 6064 6089 6098 5973 5995 5803 5916 5859 5808 5628 5637 5629 5546 5456 5509 5548 5476 5445 5516 5320 5456 5430 5431 5423 5300 5371 5408 5509 5313 5360 5298 5465 5413 5452 5461 5351 5426 5558 5366 5462 5436 5299 5544 5491 5351 5389 5398 5380 5372 5492 5478 5399 5437 5284 5526 5295 5286 5343 5342 5186 5241 5372 5183 5288 5300 5203 5134 5305 5333 5269 5294 5358 5109 5271 5110 5180 5148 5233 5239 5214 5256 5158 5051 5194 5205 5169 5185 5226 5291 5300 5118 5097 5124 5242 5236 5233 5059 5160 5035 5061 5188 5284 5213 5311 5198 5076 4999 5160 5108 5149 5207 5203 5053 5181 5291 5153 5092 5026 5095 5192 5190 5318 5234 5128 5126 5069 5022 5073 5158 5268 5190 5220 5127 5156 5165 5196 5083 5224 5116 5072 5136 5181 5216 5370 5243 5311 5279 5288 5360 5396 5366 5318 5341 5408 5508 5425 5427 5477 5461 5561 5665 5539 5608 5622 5506 5461 5611 5576 5750 5651 5720 5616 5572 5697 5688 5707 5655 5633 5883 5735 5650 5669 5719 5493 5497 5555 5450 5518 5215 5344 5242 5281 5349 5290 5102 5162 5196 5150 5197 5173 5158 5137 4974 5184 5100 5072 5192 5133 5147 5151 5038 5160 5207 5106 4907 5280 5209 5222 5032 5027 5132 5063 5250 5094 5150 5198 5097 5267 5084 5252 5069 5144 5111 5002 5249 5144 5167 5026 5035 5068 5092 5050 5133 5017 5098 5011 5105 4999 5108 5057 5003 5144 5092 5065 4959 5068 5120 5168 5038 5010 5079 5075 5038 5121 5079 5101 4983 5098 5104 5086 5188 5082 5163 5104 5062 5102 4979 5105 5177 5073 5061 4946 5153 5111 5032 5115 4930 5038 5154 5013 5045 4988 5137 5103 5001 5116 5004 5131 5144 4971 5031 4940 5108 5134 5050 5051 5080 4897 5085 5068 5118 4994 5188 5023 5081 4955 5095 5062 5088 5051 4918 5074 5034 4967 5129 4995 5098 5221 4993 5096 5150 5038 5034 4969 5106 5029 5051 5088 5117 5021 5096 5042 5100 4909 5194 4952 5010 5075 5047 5083 5064 5058 4982 5040 4977 5163 4870 5164 5022 5058 5074 5015 4989 4913 4958 5057 5137 4974 5096 5086 5018 4943 4908 4998 4925 5084 5048 5075 5132 4896 4894 4985 4948 5100 5023 4979 4875 4835 4979 4945 5146 4930 4975 4964 5073 4911 4890 4902 4973 4929 4919 4895 4991 4889 4851 4997 4924 4986 4933 4918 4972 5037 4902 4890 4962 4884 4919 4901 4872 4925 4919 4775 5028 4816 5013 4871 4874 4925 4851 4964 5017 5060 4860 4906 4857 4821 5030 4952 4926 4801 4885 4972 5087 4818 4942 4962 5004 5028 4976 4944 4904 5006 5060 4803 4908 5003 4911 4928 4909 4908 4899 4869 4887 4973 4981 4835 4988 4979 4774 4918 4993 4927 4872 5006 4901 4967 4876 4826 4929 4904 4875 4820 4760 4934 4973 4937 4970 4867 4971 4805 4920 4987 5063 4900 4874 5088 4942 4939 4847 4943 4829 4902 5154 5085 4951 4931 4939 4895 4847 4855 4802 4849 4857 5002 4966 4934 4954 4968 4886 4921 4931 4900 4914 5049 4882 4976 4959 4956 5098 4803 5086 4888 4890 5038 5084 5051 4876 4941 5007 4987 5141 4973 4951 4887 4970 5010 5023 4990 4927 4878 5044 4986 4965 5014 5079 4930 4996 5078 4888 4909 4952 5119 5089 4958 4900 5019 5105 5054 5060 4921 4895 4987 4937 5083 4957 5138 5026 4984 4921 5049 4916 5039 4919 4959 4975 4923 4996 5084 5036 5092 5011 4923 5111 5014 4997 4903 4929 4923 4855 4966 4976 4990 4970 5061 4947 4837 5059 4805 4852 4859 4920 5024 5074 4902 5106 4955 5044 4993 5008 4937 4829 5084 4901 5028 4927 4870 5003 4980 4926 4821 4823 4941 4905 4865 4932 4848 4893 4866 4936 4932 4895 4968 5003 4928 4926 4880 4890 4887 4870 4872 4825 4837 4720 4804 4874 4780 4976 4933 4729 5030 4835 4812 4834 4921 4883 4798 4924 4768 4848 4806 4858 4805 4745 4707 4836 4820 4905 4861 4968 4763 4805 4737 4696 4730 4777 4635 4590 4862 4743 4731 4863 4836 4797 4722 4734 4734 4702 4829 4687 4657 4737 4763 4735 4694 4705 4660 4594 4818 4738 4724 4591 4750 4685 4607 4739 4737 4630 4711 4647 4714 4637 4755 4567 4571 4631 4581 4645 4711 4750 4749 4609 4754 4676 4700 4801 4627 4707 4735 4528 4773 4526 4694 4465 4537 4575 4642 4632 4629 4630 4629 4553 4610 4545 4585 4620 4597 4587 4617 4567 4562 4586 4537 4527 4515 4508 4557 4489 4574 4589 4508 4528 4582 4502 4562 4565 4500 4539 4411 4573 4395 4540 4509 4542 4573 4633 4510 4485 4549 4405 4421 4461 4553 4501 4552 4440 4472 4617 4423 4532 4558 4476 4560 4393 4555 4529 4595 4422 4371 4362 4635 4537 4570 4494 4615 4524 4560 4556 4537 4617 4451 4593 4601 4469 4590 4702 4665 4651 4551 4702 4556 4591 4590 4632 4728 4714 4693 4726 4658 4789 4643 4879 4672 4784 4913 4744 4873 4868 4695 4862 4874 4854 4950 4789 4951 4853 4964 4677 4814 4930 4782 4939 4928 4787 4865 4878 4730 4740 4705 4781 4805 4775 4717 4746 4765 4656 4773 4767 4576 4604 4603 4532 4705 4512 4627 4554 4514 4472 4568 4366 4503 4517 4473 4482 4432 4547 4448 4456 4421 4354 4472 4610 4412 4457 4491 4542 4594 4456 4363 4461 4470 4432 4537 4470 4421 4489 4422 4289 4467 4504 4469 4594 4572 4516 4426 4510 4337 4430 4429 4483 4516 4500 4530 4364 4638 4432 4375 4509 4486 4519 4359 4517 4507 4370 4553 4435 4472 4438 4448 4538 4592 4664 4404 4449 4476 4602 4495 4435 4519 4534 4465 4448 4519 4497 4570 4461 4479 4634 4485 4495 4457 4486 4565 4530 4440 4497 4655 4557 4637 4425 4479 4468 4602 4533 4400 4490 4445 4438 4429 4438 4561 4572 4508 4448 4533 4568 4533 4500 4379 4510 4350 4542 4590 4521 4533 4416 4644 4550 4431 4483 4510 4287 4493 4367 4489 4441 4375 4505 4560 4534 4567 4483 4422 4492 4505 4560 4393 4586 4380 4489 4502 4485 4382 4342 4534 4395 4517 4548 4382 4522 4461 4461 4241 4438 4337 4428 4496 4509 4420 4318 4409 4458 4382 4431 4241 4447 4363 4341 4391 4270 4487 4223 4428 4311 4397 4418 4404 4350 4318 4435 4352 4330 4298 4278 4489 4386 4350 4420 4242 4449 4345 4331 4353 4283 4373 4229 4312 4362 4369 4348 4202 4262 4263 4265 4343 4249 4414 4307 4336 4314 4318 4264 4277 4430 4193 4346 4253 4291 4307 4335 4152 4410 4266 4388 4331 4399 4378 4356 4272 4414 4344 4228 4409 4308 4183 4447 4258 4368 4238 4248 4316 4146 4278 4169 4318 4338 4198 4248 4281 4391 4354 4364 4255 4366 4266 4178 4362 4306 4296 4352 4327 4212 4355 4276 4246 4296 4331 4246 4405 4247 4293 4330 4273 4186 4251 4254 4191 4284 4289 4367 4187 4120 4165 4246 4371 4424 4232 4200 4348 4190 4209 4323 4226 4272 4183 4244 4248 4284 4195 4182 4187 4195 4155 4226 4193 4207 4243 4300 4231 4203 4252 4266 4169 4228 4242 4270 4284 4485 4339 4327 4334 4311 4514 4363 4370 4448 4347 4464 4375 4337 4469 4409 4557 4402 4566 4599 4508 4565 4659 4602 4470 4643 4634 4792 4775 4768 4749 4864 4848 4834 4946 4905 4972 4878 5031 4952 5105 5026 5018 5014 5040 5034 5108 5112 4942 4928 4994 5033 5006 4997 5203 5072 5241 5114 5094 5172 5167 5144 5148 5099 5110 4970 4925 4879 4705 4816 4653 4598 4618 4607 4537 4490 4515 4315 4293 4386 4386 4299 4413 4259 4293 4268 4350 4376 4343 4363 4317 4320 4305 4244 4291 4314 4294 4382 4293 4318 4318 4359 4397 4237 4217 4293 4174 4183 4229 4200 4301 4284 4114 4130 4158 4234 4263 4243 4180 4312 4228 4406 4298 4302 4403 4347 4352 4341 4314 4453 4366 4438 4404 4539 4573 4666 4654 4615 4698 4694 4810 4795 4824 4853 4946 5046 4970 5059 5266 5316 5331 5476 5626 5528 5646 5564 5676 5733 5852 5784 5828 5960 6006 5879 5916 5844 5854 5669 5636 5581 5526 5629 5381 5414 5379 5417 5193 5365 5234 5177 5077 5088 5021 4944 4811 4726 4679 4703 4417 4448 4472 4389 4303 4251 4227 4217 4239 4063 4083 4118 4121 4045 4147 4264 4151 4002 4022 4021 4130 3936 4060 4013 4122 4060 4151 4120 4052 4170 4091 4107 4112 4103 4120 3998 4065 4021 4107 3998 4003 4177 3998 3992 4024 3988 4141 3953 4256 4089 4122 4220 4059 4200 4123 4102 4194 4106 4053 4228 4141 4218 4172 4296 4198 4227 4206 4337 4268 4319 4482 4474 4420 4630 4352 4380 4364 4485 4523 4516 4597 4647 4578 4579 4672 4506 4561 4507 4569 4425 4415 4333 4350 4229 4433 4309 4190 4115 4193 4244 4157 3988 4142 4106 4107 4140 4086 4051 4134 4081 4023 4106 4140 4080 3989 4057 3931 4083 4086 4142 3919 4070 4023 4042 4114 3957 3946 3973 4022 3994 4017 3999 3995 4011 3918 3939 4158 4015 4071 4082 3952 4071 4071 4010 4008 4024 4058 3977 3928 4058 4009 3969 4053 3902 3916 3862 3812 3982 3842 3993 4024 3947 3949 3951 3925 3951 3937 3979 3885 4021 4056 3985 3959 4005 3972 4025 4019 3990 3946 3936 3918 3924 4012 3983 3938 3990 3915 3875 3937 3991 4046 3843 3922 4012 3947 3916 3838 3920 4054 3927 4002 3898 3870 4037 3954 3989 3887 3862 3975 3955 3873 3886 4034 3993 3971 4020 3973 3971 3948 3979 4065 3819 3961 3888 4044 3962 3905 4053 4048 4011 3863 4099 3871 4065 3868 4083 3940 3895 4026 4048 3990 3908 3981 3899 3949 3924 3940 3922 4029 3943 3908 3914 3922 4022 3950 3972 3923 3983 4025 3940 3945 3861 3958 3898 4018 4017 3960 3980 4002 4010 3890 3995 4141 3831 4111 3961 3940 3984 4020 3925 4006 4019 4091 4081 4008 4103 4087 4097 4122 4135 4088 4072 4046 4135 4052 4043 3996 4054 4035 4179 4021 4069 4043 4032 4075 4025 4099 4017 3895 3979 4120 3940 4170 4005 3980 4061 3944 3988 3844 4005 4038 4126 3954 4181 3938 4010 3929 3972 3972 4023 3956 4081 4125 3933 3958 4031 3997 4048 4047 4029 3963 4056 4070 4068 4012 4004 4026 3993 4063 3983 4077 4078 4105 3945 4088 4018 4238 3983 4037 4163 4127 4155 4106 4196 4298 4267 4323 4321 4286 4396 4530 4589 4647 4499 4697 4596 4776 4790 4812 4921 4907 4996 5088 5145 5300 5286 5287 5522 5651 5883 5783 6009 6143 6324 6467 6518 6635 6818 7027 7026 7159 7485 7612 7465 7974 7900 7879 7959 7868 7952 7871 8095 8207 8143 8041 8145 8154 8013 7981 8098 8112 8237 8136 8248 8181 8437 8376 8454 8445 8760 8703 8704 8746 8679 8715 8368 8285 8346 7893 7703 7343 7099 6755 6571 6267 6202 5846 5622 5402 5439 5092 5036 4884 4814 4705 4924 4634 4567 4504 4628 4567 4557 4519 4612 4522 4509 4490 4381 4467 4366 4471 4469 4320 4464 4252 4619 4322 4469 4446 4420 4422 4298 4414 4437 4391 4269 4407 4329 4243 4243 4299 4305 4223 4174 4167 4264 4159 4065 4080 4116 4179 4211 4128 3920 4047 4074 4051 3838 4052 3929 4050 4050 3924 4006 3990 3986 4019 3951 4005 4005 3936 4038 4089 3996 3974 4033 3913 3874 3928 3901 3879 3934 3979 3967 3957 3961 3941 3989 3952 3879 4003 3845 3982 3944 3910 3921 3924 3920 3835 3941 3945 3855 3953 3769 3833 3870 3858 3962 3931 3865 3870 3970 3947 3889 3885 3877 3917 3803 3955 3874 3870 3978 3870 3810 4080 3834 3978 3893 4007 3960 3960 3986 3939 3819 3912 3993 3844 3887 3898 3979 3881 3990 3897 3925 3805 3968 3844 3991 3878 3865 3840 3833 3856 3840 3925 3963 3858 3865 3943 3911 3988 3876 3983 3926 3942 3879 3892 3840 3946 3878 3884 3902 3857 3882 3818 4045 3897 3855 3912 3954 3966 3942 3876 3786 3932 3901 3968 3983 3964 3874 3851 3932 3966 3862 4043 3891 3829 3822 3950 3899 3873 3940 3887 3805 3853 3834 3836 4044 3963 3963 3859 3857 3890 3943 4012 3930 3939 3867 3793 3804 3861 3923 3874 3925 3905 3901 3903 4048 3973 4007 3909 3811 3865 3951 3906 3917 3998 4050 3939 3944 3975 3910 3918 3981 3978 3956 4004 3958 4128 3975 3994 4041 4030 4084 4015 3968 4133 4061 4015 4111 4111 4051 4005 4204 4274 4169 4106 4099 4060 4220 4124 4089 4211 4294 4117 4196 4077 4058 4172 4203 4056 4071 4044 4102 3990 4069 3936 3875 3980 3996 3881 3781 3893 3977 3946 3929 3854 3953 4013 3883 3913 3963 3897 3903 3887 3785 3895 3966 4013 3872 3954 3911 3880 3891 3935 3989 3865 3915 3842 3861 3953 3850 3914 3976 3849 3831 3989 3849 3719 3969 4029 3870 3934 3758 3959 3905 3885 3888 3899 3826 3880 3895 3973 3962 3981 4076 3922 3983 3909 4056 3996 3980 4080 3940 4009 3876 3924 4025 4033 4065 4073 4175 4019 4122 3985 4072 4108 4185 4194 4091 4102 4189 4114 4138 4135 4156 4059 4239 4019 4085 4049 4041 3936 3983 3882 3903 4008 3900 3955 3943 3873 3875 3772 3869 3819 3927 3892 3872 3925 3820 3855 3864 3843 3832 3807 3773 3946 3738 3834 3831 3817 3943 3880 3792 3801 3876 3864 3866 3773 3876 3885 3793 3890 3819 3914 3796 3850 3759 3887 3809 3815 3761 3799 3771 3725 3828 3899 3793 3765 3967 3878 3907 3733 3785 3704 3898 3902 3821 3865 3823 3885 3778 3812 3789 3803 3825 3738 3854 3786 3854 3722 3781 3754 3785 3805 3949 3802 3951 3945 3908 3866 3865 3750 3859 3851 3776 3835 3892 3919 3972 3921 3894 3903 3970 4067 3949 3910 3936 3753 3989 3962 3905 4048 4048 4034 4088 3958 3962 4047 3982 4056 4058 4118 3984 4048 4029 4032 4033 4154 3911 3956 3987 4019 3968 3979 3878 3978 3839 3859 3999 3927 3929 3939 3749 3860 3810 3801 3816 3914 3834 3859 3804 3949 3849 3816 3924 3832 3884 3934 3848 3818 3841 3795 3908 3802 3867 3898 3913 3750 3826 3775 3828 3724 3779 3874 3839 3911 3902 3803 3865 3745 3891 3841 3838 3851 3892 3862 3816 3815 3768 3912 3827 3807 3772 3840 3797 3821 3799 3915 3825 3858 3777 3779 3709 3760 3738 3692 3834 3773 3840 3729 3838 3911 3920 3793 3855 3838 3700 3765 3882 3723 3756 3658 3886 3817 3769 3724 3789 3725 3752 3843 3821 3726 3847 3753 3861 3821 3818 3844 3673 3893 3844 3846 3857 3869 3717 3948 3779 3785 3786 3791 3843 3956 3745 3858 3828 3807 3869 3850 3866 3884 3776 3691 3824 3871 3867 3766 3804 3838 3857 3848 3766 3846 3834 3876 4035 3804 3806 3918 3904 3830 3813 3867 3839 3845 3859 3846 3906 3824 3989 3931 3808 3837 3761 3753 3950 3788 3753 3836 3820 3845 3822 4022 3878 3931 3924 3840 3930 3882 3864 3869 3841 3931 3880 3852 3863 3983 3808 3834 3898 3793 3962 3891 3917 3867 4004 3994 3956 3966 3998 3939 4000 3894 4067 4106 4011 3941 3985 3980 3954 3896 3947 3998 3988 4017 3933 3911 3872 3923 3943 3934 4047 3986 3881 3940 3949 3920 3858 3775 3823 3778 3788 3843 3818 3938 3789 3905 3862 3808 3706 3766 3821 3791 3810 3737 3801 3801 3866 3913 3849 3753 3910 3736 3808 3918 3890 3756 3809 3773 3790 3909 3849 3825 3807 3834 3890 3869 3862 3910 3854 3840 3781 3907 3848 3806 3759 3875 3977 3903 3827 3763 3738 3797 3785 3787 3824 3915 3738 3742 3916 3876 3790 3847 3805 3795 3840 3840 3884 3772 3895 3771 3827 3770 3868 3794 3857 3825 3746 3788 3801 3759 3832 3888 3826 3835 3745 3859 3709 3809 3826 3824 3828 3751 3827 3805 3800 3855 3817 3968 3781 3785 3751 3869 3827 3793 3767 3713 3698 3733 3783 3966 3815 3727 3821 3785 3749 3864 3811 3803 3805 3847 3855 3847 3917 3818 3742 3762 3829 3874 3796 3848 3780 3801 3746 3772 3825 3752 3826 3736 3799 3887 3863 3692 3762 3807 3783 3916 3818 3851 3824 3827 3741 3754 3745 3797 3885 3826 3710 3817 3835 3820 3743 3948 3837 3928 3677 3846 3812 3759 3815 3760 3781 3742 3835 3866 3715 3810 3828 3813 3958 3775 3693 3850 3867 3851 3752 3788 3987 3822 3950 3938 3790 3905 3812 3896 3963 3985 3870 4020 4016 3984 4011 4006 3918 4043 4107 4067 4081 4069 4020 4007 4073 4158 4129 4255 4098 4424 4324 4303 4177 4271 4303 4355 4341 4335 4217 4331 4338 4359 4351 4350 4394 4279 4379 4316 4472 4310 4452 4349 4322 4243 4427 4396 4370 4328 4240 4424 4450 4305 4365 4425 4318 4318 4238 4248 4259 4097 4136 4265 4218 4063 4054 4142 3946 4133 3956 3982 4013 3948 3946 3926 3945 3824 3893 3910 3834 3934 3829 3923 3840 3816 3781 3877 3828 3852 3800 3820 3799 3738 3815 3838 3894 3859 3848 3829 3964 3826 3797 3806 3800 3812 3862 3774 3854 3900 3765 3942 3797 3799 3882 3855 3923 3738 3889 3923 3850 3964 3915 3870 3878 3826 3803 3817 4000 3886 3878 3845 3893 3887 3956 3779 3776 3847 3811 3903 3963 3809 3890 3749 3928 3796 3910 3723 3871 3754 3756 3726 3732 3866 3880 3814 3796 3844 3744 3777 3738 3804 3807 3833 3884 3745 3749 3796 3809 3721 3705 3741 3768 3857 3820 3801 3815 3684 3795 3854 3831 3767 3820 3795 3821 3743 3827 3877 3640 3756 3824 3850 3755 3751 3794 3842 3937 3834 3890 3854 3903 3689 3767 3808 3817 3837 3885 3800 3790 3769 3826 3782 3850 3906 3886 3736 3820 3770 3897 3907 3877 3839 3860 3963 3999 3779 3911 3880 3860 3887 3953 3867 3895 3945 3897 3852 3873 3930 3967 3890 4008 3894 3861 3967 3887 3843 3919 3742 3964 3945 3919 3878 3849 3921 3984 3919 3836 3906 3901 3794 3746 3825 3888 3918 3869 3773 3726 3936 3879 3894 3869 3917 3861 3878 3830 3745 3869 3881 3951 3841 3865 3799 3969 3875 3825 3879 3935 3834 3922 3927 3946 3896 3960 3968 3885 4030 3939 3965 3987 3950 3937 3980 3990 3920 3988 3957 3980 3911 3809 3923 3892 3923 3835 3902 3860 3703 3866 3876 3842 3939 3868 3864 3820 3804 3810 3716 3876 3822 3876 3852 3829 3844 3843 3821 3721 3815 3779 3883 3869 3830 3818 3859 3800 3878 3835 3809 3909 3897 3886 3890 4012 3833 3850 3737 3849 3775 3808 3854 3958 3704 3795 3864 3729 3869 3645 3918 3779 3815 3818 3887 3838 3822 3772 3911 3732 3775 3689 3883 3849 3847 3852 3861 3934 3808 3812 3921 3926 3940 3906 3813 3815 3906 3991 3966 4010 3897 3799 3983 3945 4069 3897 4013 4154 3944 4005 4195 4188 4239 4248 4181 4367 4381 4395 4407 4564 4585 4529 4810 4891 4827 4929 5014 5120 5228 5281 5501 5522 5584 5597 5811 5842 5964 6154 6222 6170 6353 6343 6508 6683 6714 6692 6800 6804 6722 6613 6625 6714 6423 6352 6177 6008 5948 5735 5775 5611 5500 5399 5279 5232 5091 5145 4764 4871 4768 4804 4735 4609 4451 4486 4473 4416 4408 4321 4456 4335 4348 4469 4498 4469 4507 4465 4432 4492 4547 4531 4443 4512 4496 4480 4443 4472 4382 4226 4345 4252 4295 4357 4234 4200 4280 4072 4005 4147 4153 4030 4133 3986 4092 4026 3955 4030 3838 3978 4101 4064 3970 3992 4004 3970 4141 4035 3921 4082 4046 4041 4100 4005 4022 4081 4126 4052 3922 4031 4064 4116 4117 4041 4113 3947 4242 4057 4035 4073 4032 4041 3994 4007 4100 3909 3889 3953 4119 3978 3910 4035 3982 3833 3944 3870 3885 3950 3880 3893 3882 3882 3842 3894 3870 3919 3908 3897 3888 3957 3884 3821 3878 3803 3901 3892 3896 3941 3865 3815 3754 3907 3910 3763 3823 3749 3796 3786 3761 3867 3862 3775 3833 3778 3828 3787 3872 3897 3788 3795 3734 3809 3761 3847 3827 3777 3767 3854 3814 3814 3776 3838 3891 3792 3876 3724 3921 3753 3865 3783 3835 3857 3830 3850 3866 3928 3869 3965 3826 3871 3857 3714 3867 3851 3903 3712 3985 4006 3912 3851 3882 3982 3945 3983 3969 3976 4051 4035 4048 4103 4079 4059 4239 4083 4167 4055 4173 4301 4233 4237 4298 4327 4272 4325 4241 4393 4218 4224 4283 4155 4190 4152 4283 4190 4236 4248 4170 4092 4207 4087 4143 4104 4010 4040 4010 3881 4012 4056 4051 4014 4079 4046 3918 4053 4072 4029 4020 4048 4112 4086 3981 4019 3873 4159 4102 4105 3999 4049 4075 4075 4125 4027 4063 4232 4150 4044 4091 3922 3978 3993 4126 4083 4054 3972 4065 3952 3943 3872 3886 4012 4049 4148 3988 3963 3837 3929 3910 4008 3887 3973 3946 3915 3848 3979 3895 3920 3826 3940 3891 3860 3943 3824 3830 3847 3846 3807 3773 3973 3913 3947 3862 3978 3917 3924 3865 3943 3992 3820 3869 3858 3920 3813 3872 3938 3964 3772 3928 3983 3797 3927 3752 3964 3789 3813 3881 3787 3955 3817 3953 3701 3891 3819 3860 3865 3846 3868 3762 3902 3868 3925 3814 3825 3825 3671 3739 3771 3872 3938 3941 3908 3760 3781 3865 3723 3778 3771 3830 3867 3829 3747 3802 3843 3787 3818 3736 3745 3803 3808 3857 3742 3822 3861 3784 3725 3667 3885 3830 3811 3797 3735 3802 3764 3752 3662 3701 3670 3823 3761 3950 3808 3741 3768 3690 3740 3812 3788 3721 3731 3633 3720 3759 3745 3752 3754 3819 3908 3671 3801 3706 3725 3767 3826 3709 3873 3801 3740 3849 3785 3740 3778 3773 3749 3778 3720 3687 3751 3795 3835 3908 3726 3712 3704 3785 3720 3691 3847 3772 3733 3667 3683 3769 3771 3800 3706 3817 3854 3791 3647 3830 3788 3812 3841 3732 3760 3765 3811 3791 3808 3788 3785 3785 3775 3771 3726 3868 3921 3771 3818 3732 3849 3733 3636 3769 3789 3739 3855 3768 3646 3889 3839 3772 3688 3741 3779 3782 3806 3740 3768 3660 3812 3817 3733 3763 3725 3837 3801 3851 3760 3709 3701 3821 3705 3761 3838 3740 3766 3776 3750 3739 3843 3763 3833 3811 3864 3844 3746 3774 3804 3776 3810 3852 3830 3804 3801 3856 3874 3801 3816 3772 3734 3853 3784 3690 3933 3737 3735 3908 3849 3790 3784 3731 3868 3764 3787 3788 3876 3732 3840 3740 3769 3762 3862 3778 3804 3831 3788 3711 3769 3755 3751 3850 3755 3899 3792 3794 3928 3934 3743 3894 3840 3696 3808 3866 3924 3821 3950 3899 3777 3806 3854 3779 3879 3793 3807 3821 3927 3939 3793 3732 3829 3757 3833 3842 3753 3821 3742 3837 3764 3865 3676 3862 3848 3892 3848 3712 3851 3816 3788 3739 3832 3680 3888 3799 3851 3824 3827 3869 3824 3741 3817 3739 3906 3719 3760 3811 3842 3834 3663 3798 3836 3921 3770 3804 3621 3843 3627 3777 3648 3667 3750 3721 3791 3947 3735 3811 3785 3668 3782 3671 3725 3813 3606 3738 3743 3810 3823 3776 3779 3795 3790 3759 3772 3671 3879 3703 3788 3749 3841 3782 3874 3662 3790 3668 3781 3822 3770 3749 3788 3859 3726 3756 3766 3785 3767 3714 3710 3844 3871 3813 3782 3761 3781 3747 3864 3838 3792 3763 3682 3712 3776 3772 3770 3862 3844 3787 3719 3671 3722 3765 3784 3765 3610 3763 3801 3742 3731 3721 3697 3814 3748 3865 3721 3747 3694 3710 3819 3871 3853 3852 3904 3740 3822 3818 3904 3790 3731 3851 3745 3794 3779 3715 3813 3764 3718 3710 3870 3834 3699 3730 3775 3866 3885 3737 3806 3739 3858 3773 3786 3673 3896 3830 3675 3908 3921 3762 3906 3706 3895 3780 3840 3745 3805 3803 3903 3934 3873 3879 3775 3794 3859 3804 3878 3814 3919 3953 3809 3968 3769 3855 3823 3793 3835 3878 3909 3828 3872 3880 3880 3867 3950 3842 3817 3749 3907 3864 3935 3977 3982 3893 3884 3930 3771 3913 3959 3954 3907 4042 3926 4007 4031 3879 4080 4007 4001 4040 3981 3995 3887 4032 4081 4163 3969 4004 4094 4012 4080 4025 4039 4105 4141 3936 4177 4065 3982 4052 4075 4055 4037 4051 3984 4077 4033 4081 4081 3978 4013 4004 3968 3974 4025 4048 4101 3965 3968 3977 4007 4034 3949 3928 3870 3882 3986 3994 3960 3819 3989 3959 3916 3905 3884 3957 3960 3953 4144 3903 4008 3865 4006 3815 4044 3805 3975 3929 3932 3901 3892 3949 3991 3995 3793 3803 4023 3853 3885 3860 3843 3913 3874 3938 3923 3886 3851 3802 3844 3853 3878 3837 4032 3706 3744 3804 3785 3779 3735 3799 3917 3822 3785 3777 3739 3862 3683 3825 3858 3833 3711 3899 3716 3785 3776 3748 3716 3705 3724 3848 3733 3796 3798 3723 3802 3875 3799 3824 3814 3821 3802 3728 3715 3713 3717 3694 3707 3809 3900 3787 3895 3856 3814 3809 3786 3677 3706 3869 3655 3809 3648 3763 3806 3826 3727 3756 3780 3833 3728 3838 3757 3667 3838 3816 3784 3825 3671 3691 3732 3820 3782 3708 3804 3648 3716 3789 3701 3705 3784 3723 3857 3683 3795 3821 3661 3742 3713 3799 3774 3806 3798 3700 3781 3751 3724 3706 3792 3753 3723 3808 3833 3856 3797 3650 3808 3727 3650 3776 3780 3708 3763 3821 3809 3703 3747 3772 3773 3736 3777 3771 3726 3598 3697 3737 3733 3736 3829 3754 3830 3703 3670 3796 3789 3829 3874 3912 3792 3693 3833 3859 3853 3741 3848 3864 3800 3837 3785 3740 3861 3784 3826 3741 3899 3728 3955 3936 3878 3840 3947 3908 3923 3904 3878 3972 3798 3867 3944 3929 3967 4039 3968 4077 4066 4032 4180 4097 4174 4180 4407 4238 4315 4356 4281 4302 4220 4398 4366 4291 4327 4304 4327 4224 4402 4246 4262 4368 4442 4170 4273 4234 4199 4262 4205 4237 4216 4307 4197 4191 4270 4214 4261 4247 4350 4297 4172 4322 4241 4272 4244 4215 4288 4269 4245 4202 4328 4288 4352 4293 4374 4321 4289 4305 4130 4201 4196 4097 4132 4040 4079 4172 4142 4107 4115 4132 4040 4033 3984 4008 3942 4088 3935 3816 3914 3878 3838 3876 3813 3838 3928 3806 3864 3863 3776 3858 3834 3877 3947 3719 3782 3841 3921 3865 3770 3849 3763 3817 3892 3835 3801 3714 3916 3751 3862 3827 3884 3781 3876 3780 3846 3831 3709 3792 3698 3891 3881 3751 3775 3869 3861 3655 3851 3835 3736 3704 3830 3854 3851 3793 3762 3831 3770 3801 3791 3853 3848 3742 3868 3798 3800 3721 3882 3864 3702 3889 3779 3811 3945 3943 3924 3826 3954 3706 3847 3801 3932 3753 3853 3800 3793 3895 3899 3796 3796 3787 3680 3870 3874 3886 3829 3857 3838 3895 3910 3864 3829 3803 3954 3741 3966 3817 3787 3844 3863 3840 3947 3765 3818 3969 3891 3737 3857 3817 4009 3932 3896 3969 3908 3840 3913 4040 3924 4101 4052 3980 4124 4019 3957 4074 4053 4117 4089 4131 4057 4077 3933 4044 4028 3965 4141 4014 3968 4004 3796 3895 4062 3947 3977 3954 3879 3807 3869 3974 3858 3854 3862 3945 3957 3823 3878 3859 3846 3799 3859 3884 3912 3837 3822 3770 3919 3893 3792 3893 3888 3874 3818 4008 3872 3941 3826 3947 3821 3859 3956 3832 4015 3911 3828 3778 3838 3894 3850 3778 3847 3898 3795 3792 3781 3805 3826 3784 3850 3902 3842 3761 3776 3765 3787 3810 3900 3796 3834 3794 3784 3921 3770 3728 3685 3778 3743 3859 3815 3793 3767 3800 3823 3689 3734 3741 3878 3779 3727 3817 3734 3771 3748 3753 3887 3773 3834 3571 3819 3791 3827 3793 3819 3737 3836 3741 3805 3693 3784 3796 3750 3791 3780 3794 3764 3829 3876 3715 3790 3728 3783 3738 3832 3735 3786 3832 3747 3668 3772 3848 3790 3609 3716 3811 3677 3815 3712 3687 3755 3751 3746 3808 3779 3810 3661 3752 3724 3760 3877 3750 3735 3757 3860 3757 3707 3729 3776 3772 3730 3754 3703 3757 3798 3849 3735 3853 3834 3760 3754 3801 3742 3780 3770 3791 3839 3759 3749 3796 3756 3832 3748 3740 3740 3822 3812 3737 3717 3747 3711 3664 3638 3737 3688 3761 3826 3731 3754 3731 3854 3763 3918 3822 3785 3702 3815 3765 3883 3839 3741 3678 3748 3578 3788 3691 3639 3805 3725 3803 3871 3810 3838 3791 3795 3790 3783 3809 3787 3728 3896 3747 3705 3809 3824 3688 3756 3765 3713 3755 3749 3725 3719 3744 3676 3687 3867 3749 3768 3950 3825 3714 3841 3731 3725 3688 3787 3679 3836 3796 3743 3716 3878 3860 3779 3746 3756 3750 3659 3792 3756 3747 3706 3718 3626 3808 3671 3852 3793 3786 3759 3724 3756 3789 3686 3709 3790 3744 3740 3718 3755 3817 3914 3874 3716 3731 3761 3767 3739 3825 3826 3831 3808 3863 3784 3842 3792 3881 3835 3736 3685 3863 3823 3823 3749 3816 3838 3802 3757 3779 3700 3722 3864 3871 3914 3734 3867 3697 3743 3716 3837 3803 3792 3859 3868 3895 3728 3906 3776 3841 3794 3729 3886 3847 3803 3809 3739 3847 3782 3773 3829 3825 3659 3903 3758 3851 3758 3701 3785 3863 3718 3830 3782 3829 3825 3915 3765 3754 3689 3716 3794 3824 3864 3774 3656 3718 3827 3793 3663 3808 3794 3730 3783 3779 3833 3661 3659 3681 3692 3751 3716 3752 3740 3770 3838 3673 3754 3836 3702 3840 3735 3722 3635 3852 3818 3911 3709 3814 3741 3762 3872 3613 3864 3770 3821 3668 3809 3751 3854 3706 3813 3744 3718 3773 3634 3748 3785 3781 3690 3766 3727 3831 3881 3754 3621 3795 3824 3692 3835 3754 3681 3743 3703 3669 3752 3791 3841 3732 3767 3794 3859 3730 3794 3754 3705 3872 3723 3841 3909 3782 3760 3784 3821 3713 3871 3780 3690 3721 3657 3818 3755 3693 3773 3712 3662 3699 3716 3780 3690 3743 3809 3820 3818 3688 3771 3773 3834 3765 3772 3780 3782 3872 3740 3654 3879 3742 3739 3764 3964 3884 3839 3711 3889 3722 3932 3796 3855 3800 3860 3929 3823 3973 3945 3975 3841 3905 3872 3900 3960 3857 3940 3797 3798 3908 3877 3945 3987 3859 3883 3910 3939 3966 3898 3920 3916 3913 3884 3820 3940 3720 3784 3927 3868 3924 3885 3935 3815 3958 3849 3916 3806 3714 3810 3806 3864 3854 3786 3769 3765 3918 3855 3746 3699 3806 3867 3788 3668 3699 3773 3825 3817 3783 3852 3899 3742 3713 3756 3783 3780 3833 3784 3794 3769 3868 3863 3739 3725 3692 3695 3802 3960 3823 3788 3756 3708 3790 3863 3696 3853 3736 3723 3736 3739 3590 3776 3707 3741 3701 3729 3709 3712 3689 3769 3708 3816 3786 3656 3725 3776 3839 3760 3697 3868 3731 3751 3715 3737 3802 3731 3712 3701 3741 3735 3748 3654 3802 3795 3673 3716 3764 3647 3794 3727 3755 3803 3694 3834 3721 3724 3749 3832 3756 3669 3885 3703 3768 3888 3728 3795 3744 3711 3779 3759 3819 3671 3803 3797 3797 3732 3842 3678 3778 3748 3853 3820 3765 3672 3667 3762 3782 3866 3785 3685 3645 3754 3681 3825 3799 3840 3720 3800 3861 3769 3791 3848 3831 3779 3738 3694 3801 3867 3718 3729 3758 3701 3826 3788 3845 3718 3676 3763 3810 3658 3742 3752 3745 3780 3787 3759 3749 3692 3690 3762 3812 3775 3816 3841 3788 3799 3772 3804 3728 3732 3857 3735 3669 3817 3848 3781 3789 3726 3869 3805 3774 3776 3815 3770 3731 3808 3734 3755 3734 3790 3700 3775 3834 3696 3654 3843 3786 3853 3910 3771 3854 3719 3762 3847 3886 3845 3732 3842 3806 3972 3927 3790 3821 3882 3815 3824 3901 3851 3898 3830 3930 3897 3839 3949 3916 3748 3820 3835 3833 3893 3901 3839 3775 3806 3884 3870 3916 4008 3813 3899 3758 3846 3794 3884 3817 3863 3869 3855 3901 3911 3826 3914 3843 3904 3913 3935 3833 3891 3817 3910 3896 3704 3808 3825 3762 3872 3809 3875 3882 3873 3778 3868 3952 3874 3889 3901 4005 3866 3985 3979 4030 3974 3905 4042 3917 4000 3930 3958 4015 3936 3996 4054 3979 4032 4086 4055 3921 3982 3950 3932 3944 3958 3952 3993 3978 3975 3993 3930 3978 3935 3865 3864 3844 3877 3918 3804 3890 3867 3955 3891 3869 3882 3944 3799 3894 3880 3733 3878 3760 3778 3799 3835 3794 3839 3776 3855 3817 3871 3830 3727 3752 3682 3824 3741 3874 3713 3787 3807 3684 3904 3898 3928 3714 3836 3822 3806 3801 3856 3726 3855 3858 3854 3990 3834 3798 3851 3772 3740 3843 3821 3800 3831 3816 3796 3709 3776 3792 3854 3889 3829 3746 3821 3793 3801 3814 3996 3675 3829 3813 3768 3800 3885 3765 3790 3897 3778 3795 3753 3728 3769 3689 3885 3905 3807 3789 3708 3802 3873 3793 3705 3779 3934 3821 3746 3709 3838 3776 3835 3810 3799 3756 3820 3810 3788 3746 3806 3728 3764 3699 3891 3703 3837 3800 3822 3817 3854 3775 3804 3707 3789 3746 3718 3797 3782 3764 3805 3812 3716 3779 3802 3785 3766 3836 3698 3818 3841 3758 3788 3750 3687 3714 3675 3832 3819 3744 3803 3757 3762 3713 3863 3790 3816 3719 3833 3741 3704 3820 3834 3805 3801 3754 3884 3785 3745 3705 3822 3718 3811 3801 3795 3847 3815 3815 3821 3810 3810 3699 3781 3706 3883 3738 3855 3898 3863 3864 3832 3798 3772 3784 3935 3918 3788 3858 3795 3795 3753 3778 3799 3749 3853 3865 3825 3798 3779 3881 3907 3758 3904 3831 3760 3811 3800 3703 3822 3830 3828 3769 3712 3696 3895 3698 3931 3818 3755 3757 3755 3673 3645 3764 3779 3954 3888 3882 3838 3788 3867 3894 3798 3856 3835 3656 3737 3798 3829 3704 3732 3702 3695 3753 3738 3901 3812 3940 3801 3770 3879 3843 3803 3669 3778 3774 3761 3753 3759 3696 3837 3813 3859 3721 3755 3832 3761 3755 3699 3752 3800 3835 3744 3704 3790 3792 3809 3770 3716 3903 3793 3814 3723 3783 3825 3855 3776 3738 3733 3731 3801 3857 3762 3812 3750 3756 3785 3796 3829 3625 3743 3755 3756 3739 3838 3804 3708 3693 3711 3893 3847 3870 3731 3830 3772 3741 3792 3721 3698 3814 3715 3753 3836 3805 3846 3778 3700 3816 3750 3732 3757 3696 3744 3809 3708 3714 3723 3758 3751 3843 3854 3776 3843 3730 3859 3793 3838 3926 3719 3794 3819 3764 3721 3881 3784 3752 3769 3694 3859 3742 3800 3762 3767 3791 3770 3896 3758 3766 3729 3788 3898 3833 3786 3751 3827 3793 3789 3937 3813 3830 3819 3750 3842 3721 3804 3820 3935 3913 3653 3843 3805 3761 3763 3758 3712 3823 3862 3757 3808 3712 3826 3899 3894 3774 3751 3869 3826 3816 3841 3724 3811 3771 3792 3911 3732 3834 3949 3830 3889 3868 3799 3817 3883 3860 3875 3847 3829 3798 3785 3920 3908 3798 3874 3879 3805 3759 3754 3764 3783 3630 3892 3734 3809 3750 3749 3777 3769 3821 3835 3881 3808 3804 3784 3862 3761 3694 3791 3767 3757 3779 3855 3798 3802 3793 3777 3930 3698 3760 3849 3762 3734 3719 3740 3815 3762 3799 3825 3721 3776 3844 3820 3832 3891 3831 3775 3761 3815 3840 3783 3901 3775 3893 3812 3871 3840 3803 3845 3869 3857 3748 3941 3798 3844 3934 3873 3800 3879 3770 3809 3763 3785 3793 3866 3815 3832 3760 3825 3803 3757 3852 3779 3852 3855 3807 3834 3781 3781 3817 3704 3805 3843 3762 3881 3858 3857 3907 3804 3741 3749 3798 3909 3725 3819 3736 3959 3907 3963 3760 3773 3771 3797 3775 3708 3806 3815 3769 3792 3833 3791 3726 3863 3791 3825 3722 3762 3856 3773 3743 3799 3836 3883 3702 3837 3853 3909 3725 3797 3785 3805 3866 3812 3960 3844 3878 3763 3922 3872 3854 3857 3877 3891 3885 3843 3848 3951 3937 3869 3941 3879 3814 3823 3957 3885 3950 3862 3858 3903 3853 3790 3933 3795 3929 3890 3905 3923 3748 3820 3958 3801 3905 3894 4039 3819 3910 3836 3767 3814 3897 3917 3820 3880 3906 3847 3934 3804 3856 3781 3857 4014 3876 3875 3786 3850 3914 3839 3903 3925 4001 3808 3936 3823 3822 4011 3923 3855 4015 3941 3865 3833 3826 3924 3952 3863 3901 3799 3910 3866 3814 3824 3882 3926 3826 3930 3850 3896 3929 3948 3889 3845 3978 3886 3948 4003 3919 3933 3876 3927 3936 3876 3831 3952 3835 3835 3860 3882 3869 3818 3830 3873 3786 3923 3897 3876 3861 3906 3734 3915 3873 3754 3750 3871 3703 3966 3684 3769 3798 3807 3821 3975 3953 3854 3741 3878 3848 3848 3737 3811 3855 3909 3883 3798 3857 3768 3779 3982 3867 3901 4006 3943 3890 3905 3682 3818 3847 3914 3787 3941 3795 3888 3806 3891 3753 3887 3916 3844 3834 3896 3902 3768 3898 3824 3815 3735 3869 3812 3750 3779 3874 3838 3871 3732 3910 3932 3794 3783 3827 3836 3858 3820 3854 3947 3771 3787 3939 3747 3759 3802 3781 3883 3924 3776 3870 3784 3867 3896 3797 3853 3785 3817 4002 3873 3853 3781 3765 3749 3733 3852 3799 4019 3805 3853 3702 3863 3868 3796 3766 3812 3812 3889 3677 3891 3794 3780 3728 3743 3945 3828 3841 3833 3753 3912 3854 3849 3726 3786 3774 3779 3826 3804 3799 3924 3768 3763 3919 3849 3845 3934 3813 3807 3819 3931 3747 3892 3928 3953 3876 3998 3930 4029 3795 3884 3901 4098 3878 3984 3841 4011 4026 4026 4144 3964 4009 3929 4076 4183 4062 4180 4082 4037 4135 4107 4229 4161 4240 4310 4117 4101 4163 4114 4170 4058 4102 4180 4121 4099 4270 4025 4060 4111 4089 4131 4222 4039 4210 4244 4246 4202 4070 4288 4120 4198 4131 4159 4325 4255 4157 4203 4185 4205 4326 4239 4161 4193 4242 4102 4170 4110 4153 4043 4235 4162 4164 4138 4211 4109 4129 4186 4135 4083 4085 4183 4038 4147 4077 4084 4056 4001 4050 4036 4004 3979 4000 3910 4105 4065 4044 3980 3945 3964 3968 4026 4008 4021 3984 3958 3947 4105 4085 3944 4010 4132 4079 3964 3939 4056 4030 3968 4016 4143 4002 4088 3840 3988 3912 3864 3996 3980 3900 3827 3948 3923 3884 3887 3920 3906 3817 3953 3953 3887 3858 3914 4008 4001 3962 3957 4037 3871 3919 3900 3923 3970 3927 3876 3944 3918 4059 3830 3894 3906 3812 3900 3779 3859 3744 3802 3808 3868 4002 3882 3952 3816 3906 3850 3895 3835 3948 3898 3839 4014 3841 3891 3917 3903 3864 4024 3987 3834 3868 3868 3873 3866 3947 3781 3866 3921 3839 3860 3764 3879 3889 3823 3880 3845 3798 3900 3887 3922 3955 3875 3867 3868 3941 3900 3808 3754 3855 3769 3874 3759 3764 3837 3922 3886 3944 3986 3876 3894 3830 3784 3880 3831 3869 3908 3874 3934 3921 3748 3908 3932 3844 3826 3887 3860 3845 3953 3923 3891 3989 4009 3981 3949 3913 3902 3793 3751 3917 3862 3876 4001 3955 3907 3875 3790 3912 3970 3803 3833 3884 3912 3804 3921 3877 3869 3845 3937 3845 3989 3898 3860 3939 3850 3794 3857 3836 3819 3768 3801 3817 3877 3775 3857 3862 3916 3749 3835 3842 3833 3863 3749 3852 3814 3860 3843 3760 3851 3846 3884 3748 3771 3758 3811 3796 3755 3765 3868 3737 3841 3836 3846 3790 3819 3866 3751 3799 3943 3804 3850 3850 3790 3866 3789 3825 3936 3768 3884 3792 3887 3794 3732 3811 3746 3878 3704 3989 3890 3735 3791 3866 3844 3795 3747 3826 3712 3855 3886 3669 3775 3809 3750 3747 3790 3862 3831 3761 3883 3753 3721 3823 3784 3832 3860 3703 3780 3727 3827 3931 3735 3821 3838 3826 3710 3848 3765 3891 3809 3788 3707 3802 3858 3850 3769 3804 3684 3820 3924 3765 3890 3831 3820 3805 3826 3813 3790 3818 3852 3779 3869 3811 3858 3856 3777 3776 3776 3806 3783 3858 3898 3851 3802 3755 3812 3863 3694 3871 3822 3775 3887 3874 3965 3768 3708 3846 3820 3846 3889 3837 3964 3857 3897 3804 3833 3775 3676 3839 3873 3872 3866 3698 3825 3868 3760 3746 3853 3795 3749 3835 3964 3781 3862 3890 3737 3810 3853 3873 3752 3766 3796 3749 3782 3845 3887 3690 3820 3739 3741 3707 3773 3856 3806 3796 3925 3931 3799 3714 3739 3791 3774 3825 3659 3860 3835 3910 3793 3871 3786 3829 3844 3751 3799 3812 3781 3773 3812 3858 3775 3755 3837 3753 3830 3803 3748 3879 3902 3797 3760 3736 3779 3819 3745 3707 3852 3830 3914 3704 3864 3711 3851 3758 3819 3739 3868 3892 3814 3852 3855 3855 3705 3757 3810 3762 3886 3917 3936 3887 3779 3833 3807 3862 3799 3786 3704 3840 3894 3808 3745 3858 3793 3827 3806 3697 3744 3854 3698 3920 3770 3949 3832 3849 3757 3872 3837 3955 3816 3844 3844 3813 4019 3883 3841 3825 3891 3860 3737 3769 3752 3765 3869 3830 3854 3888 3810 3928 3912 3728 3830 3799 3754 3809 3831 3759 3835 3818 3848 3896 3789 3685 3768 3772 3917 3844 3832 3787 3839 3641 3715 3774 3874 3717 3789 3795 3817 3799 3740 3866 3897 3771 4012 3775 3800 3855 3874 3833 3830 3817 3936 3962 3860 3759 3890 3889 3783 3844 3835 3881 3867 3801 3856 3906 3879 3853 3860 3827 3918 3672 3819 3874 3778 3889 3972 4006 3901 3853 3887 3930 3928 3809 3813 3812 3878 3872 3872 3951 3774 3861 3816 3845 3805 3833 3967 3915 3958 4003 3768 3882 3883 3814 3931 3835 3849 3840 3866 3858 3845 3793 3843 3872 3810 3978 3872 3736 3926 3804 3886 3817 3810 3848 3849 3908 3863 3920 3819 3816 3855 3812 3779 3921 3866 3789 3916 3920 3765 3848 3890 3780 3867 3822 3796 4039 3858 3848 3911 3809 3822 3802 3911 3700 3660 3844 3927 3863 3885 3838 3895 3867 3849 3904 3873 3762 3816 3788 3870 3922 3875 3866 3824 3797 3994 3955 3879 3819 3896 3762 3777 3869 3825 3856 3885 3825 3842 3824 3941 3774 3906 3776 3809 3889 3817 3773 3977 3870 3837 3833 3816 3932 3812 3887 3747 3945 3836 3833 3831 3938 3896 3839 3745 3926 3807 3674 3857 3871 3790 3810 3901 3733 3832 3905 3905 3843 3812 3859 3755 3892 3880 3752 3931 3917 3925 3878 3813 3881 3803 3908 3901 3763 3814 3779 3951 3824 3710 3898 3903 3929 3869 3822 3816 3858 3883 3810 3845 3860 3739 3845 3705 3725 3923 3887 3901 3793 3853 3790 3884 3820 3876 3788 3773 3849 3861 3856 3896 3721 3955 3811 3769 3941 3919 3759 3845 3761 3777 3792 3804 3908 3750 3849 3809 3768 3797 3809 3942 3807 3826 3804 3782 3775 3820 3781 3886 3700 3803 3920 3817 3783 3822 3800 3839 3878 3822 3892 3776 3796 3826 3872 3809 3887 3910 3706 3816 3898 3795 3866 3900 3926 3949 3807 3823 3876 3763 3798 3805 3802 3840 3916 3821 3862 3805 3881 3855 3853 3916 3838 3757 3836 3836 3961 3926 3823 3826 3954 3857 3941 3824 3868 3873 3800 3944 3907 3862 3902 3875 3898 4014 3915 3950 3941 3878 3912 3858 4090 3874 4042 4021 3933 4023 3954 3923 3978 4043 4050 4065 4069 3997 4079 4013 4025 3983 4035 4016 4012 4049 4078 4085 4040 3984 4065 3976 4035 4048 4110 4103 4090 4106 4186 4059 4093 4202 4170 4096 4154 4172 4084 4128 4068 4183 3920 4068 3990 3984 4091 3970 4027 3930 4103 3964 4120 4006 3945 4017 3981 3990 4180 4068 4042 4022 3920 3798 4039 3965 3987 4011 4055 3915 3812 4039 3933 3941 3984 3943 4038 3857 3975 3942 4035 4042 3950 3895 3901 3975 3962 3946 3948 3947 4063 3998 3969 4171 4008 4025 3949 4020 4047 3975 4030 4117 4059 4049 4083 3981 4039 3934 3943 4036 3957 4010 3925 4055 3996 4023 3958 3971 3992 3952 3957 4008 3926 3946 3923 4013 3905 3829 3987 3983 3960 3885 3920 4034 3924 3842 3937 3826 4020 3831 3976 3788 3869 3872 3946 3817 3848 3874 3847 3833 3854 3820 3771 3881 3825 3878 3861 3814 3804 3834 3951 3935 3816 3763 3781 3880 3931 3994 4000 3840 3764 3768 3816 3894 3780 3814 3885 3922 3876 3791 3822 3784 3839 3892 3700 3921 3893 3926 3850 3792 3769 3924 3819 3817 3803 3875 3851 3920 3783 3932 3799 3851 3835 3961 3727 3800 3895 3848 3898 3980 3881 3859 3822 3795 3815 3786 3824 3709 3888 3852 3806 3844 3934 3842 3906 3946 3925 3915 3870 3894 3798 3909 3910 3941 3853 3799 3912 3830 3881 3827 4040 3838 3951 3892 3838 3978 4014 3870 3756 3957 3918 3911 3783 3968 3816 3877 3780 3801 3900 3906 3739 3749 3922 3856 3837 3902 3990 3826 4000 3949 4002 3861 3839 3892 3892 3923 3891 3933 3853 3878 3962 3848 3931 3970 3893 3896 3956 3977 3867 3942 3932 3933 3822 3918 3934 3913 3816 3844 3896 3823 3808 3917 3890 3859 3918 3766 3899 3758 3839 3887 3846 3898 3873 4009 3825 3882 3933 3836 3797 3806 3898 3878 3756 3891 3806 3926 3782 3888 3722 3898 3748 3884 3832 3903 3844 3891 3859 3872 3867 3930 4039 3854 3786 3861 3702 3806 3840 3847 3839 3786 3928 3754 3876 3832 3904 3859 3882 3779 3862 3870 3724 3831 3873 3787 3827 3762 3827 3831 3772 3821 3939 3970 3874 3780 3892 3765 3923 3974 3885 3957 3879 3735 3842 3708 3812 3820 3774 3825 3854 3845 3886 3817 3836 3821 3829 3782 3945 3878 3854 3785 3794 3809 3805 3816 3777 3807 3812 3878 3806 3809 3855 3818 3836 3760 3943 3753 3857 3796 3825 3961 3800 3857 3783 3818 3835 4004 3892 3876 3926 3940 3822 3846 3807 3852 3795 3806 3940 3855 3847 3856 3737 3903 3863 3852 3758 3822 3716 3896 3737 3791 3852 3816 3853 3815 3813 3856 3846 3877 3851 3917 3827 3738 3801 3863 3884 3887 3752 3767 3731 3898 3867 3865 3851 3832 3791 3856 3784 3863 3856 3877 3904 3912 3713 3924 3776 3841 3782 3827 3777 3879 3837 3923 3786 3858 3824</counts>
			</dataPoints>
		</scan>
	</xrdMeasurement>
</xrdMeasurements>
