<?xml version="1.0"?>
<xrdMeasurements xmlns="http://www.xrdml.com/XRDMeasurement/2.3" xmlns:xsi="http://www.w3.org/2001/XMLSchema-instance" xsi:schemaLocation="http://www.xrdml.com/XRDMeasurement/2.3 http://www.xrdml.com/XRDMeasurement/2.3/XRDMeasurement.xsd" status="Completed" recordIdentifier="{66C45C1F-20F1-47BE-A912-731FDEB28FB7}">
	<comment>
		<entry/>
	</comment>
	<sample type="To be analyzed">
		<id>GPSS_Li1p5Mn0p5Y0p25In0p25Cl4_121825_6943d914f4d05ae3d69790aa</id>
		<name></name>
		<preparedBy></preparedBy>
	</sample>
	<xrdMeasurement measurementType="Scan" status="Completed" sampleMode="Reflection">
		<usedWavelength intended="K-Alpha 1">
			<kAlpha1 unit="Angstrom">1.5405980</kAlpha1>
			<kAlpha2 unit="Angstrom">1.5444260</kAlpha2>
			<kBeta unit="Angstrom">1.3922500</kBeta>
			<ratioKAlpha2KAlpha1>0.5000</ratioKAlpha2KAlpha1>
		</usedWavelength>
		<incidentBeamPath>
			<radius unit="mm">145.00</radius>
			<xRayTube id="1010048" name="Empyrean Cu LFF HR (9430 033 7310x)">
				<tension unit="kV">40.0</tension>
				<current unit="mA">15.0</current>
				<anodeMaterial>Cu</anodeMaterial>
				<focus type="Line">
					<length unit="mm">12.0</length>
					<width unit="mm">0.4</width>
					<takeOffAngle unit="deg">6.0</takeOffAngle>
				</focus>
			</xRayTube>
			<sollerSlit id="21010002" name="Soller slits 0.04 rad.">
				<opening unit="rad">0.0400</opening>
			</sollerSlit>
			<mask id="22031000" name="Fixed mask 13 mm">
				<width unit="mm">9.00</width>
			</mask>
			<divergenceSlit id="22120001" name="Divergence slit 1°" xsi:type="fixedDivergenceSlitType">
				<distanceToSample unit="mm">50.00</distanceToSample>
				<height unit="mm">1.52</height>
			</divergenceSlit>
		</incidentBeamPath>
		<sampleMovement xsi:type="spinningSampleMovementType">
			<spinnerRevolutionTime unit="seconds">1.0</spinnerRevolutionTime>
		</sampleMovement>
		<diffractedBeamPath>
			<radius unit="mm">145.00</radius>
			<antiScatterSlit id="22090040" name="AS slit 9 mm (PIXcel)" xsi:type="fixedAntiScatterSlitType">
				<height unit="mm">9.00</height>
			</antiScatterSlit>
			<sollerSlit id="21020003" name="Large Soller slits 0.04 rad.">
				<opening unit="rad">0.0400</opening>
			</sollerSlit>
			<filter id="20030001" name="Large beta-filter Nickel">
				<material>Ni</material>
				<thickness unit="mm">0.020</thickness>
			</filter>
			<detector id="7010019" name="PIXcel1D-Medipix3 detector" xsi:type="rtmsDetectorType">
				<phd unit="keV">
					<lowerLevel>4.02</lowerLevel>
					<upperLevel>11.27</upperLevel>
				</phd>
				<mode>Scanning</mode>
				<activeLength unit="deg">5.542</activeLength>
			</detector>
		</diffractedBeamPath>
		<scan appendNumber="0" mode="Continuous" scanAxis="Gonio" status="Completed">
			<header>
				<startTimeStamp>2025-12-19T10:56:38-08:00</startTimeStamp>
				<endTimeStamp>2025-12-19T11:04:46-08:00</endTimeStamp>
				<author>
					<name>AutomatedUser</name>
				</author>
				<source>
					<applicationSoftware version="1.7b (136)">PANalytical Aeris Instrument Suite</applicationSoftware>
					<instrumentControlSoftware version="3.2.00000000 20240306">AERIS</instrumentControlSoftware>
					<instrumentID>950485</instrumentID>
				</source>
			</header>
			<dataPoints>
				<positions axis="2Theta" unit="deg">
					<startPosition>10.00943322</startPosition>
					<endPosition>99.99442286</endPosition>
				</positions>
				<positions axis="Omega" unit="deg">
					<startPosition>5.00471661</startPosition>
					<endPosition>49.99721143</endPosition>
				</positions>
				<commonCountingTime unit="seconds">12.495</commonCountingTime>
				<counts unit="counts">2843 2808 2919 2865 2769 2664 2866 2832 2772 2793 2746 2794 2785 2740 2808 2783 2789 2883 2687 2754 2806 2879 2810 2772 2746 2765 2753 2650 2836 2794 2769 2811 2752 2786 2824 2752 2743 2737 2753 2808 2738 2822 2767 2817 2881 2844 2804 2710 2847 2747 2835 2801 2966 2772 2780 2833 2937 2807 2796 2839 2735 2759 2818 2824 2736 2766 2896 2835 2823 2758 2889 2856 2828 2841 2813 2822 2782 2886 2976 2697 2793 2848 2821 2822 2838 2845 2859 2867 2808 2783 2815 2835 2828 2846 2951 2875 2888 2911 2884 2834 2839 2773 2822 2797 2866 2896 2878 2834 2941 2929 2871 2804 2927 2891 2863 2833 2846 2804 2919 2912 2863 2927 2905 3023 2913 2912 2981 2950 2946 3037 3003 3076 2995 2895 2862 2947 2956 2945 2944 2910 2787 3033 2891 3003 2940 2990 3093 3061 2877 2912 2950 2889 3074 2932 2965 2854 2947 2933 2954 2962 3019 2957 2985 2913 3064 2914 2978 2940 3021 2923 3102 2958 3009 2901 3060 3000 3008 3060 3047 3017 3093 2947 2896 3026 3028 3027 2960 2987 3003 2986 3020 2999 3001 3043 2919 2954 3047 3012 3006 3049 2937 3095 3015 3042 2956 2918 2975 3040 3003 3054 3039 3100 3063 3129 2964 3006 3002 3033 2960 2991 3050 3002 2994 2967 2875 2914 2980 2967 3116 3019 3133 3050 3055 3009 2992 2983 3068 2956 3043 3057 3007 3016 2860 2987 2977 2939 3201 2916 2969 2974 2972 2919 2951 2902 2880 3041 2916 2975 3005 2944 3015 2991 3057 2989 2990 2942 2943 3001 2984 2980 3036 2967 2956 3008 2958 3057 2956 2946 2944 2969 3051 3064 2997 2962 2966 3104 2911 3070 3021 2976 3014 2948 3049 3077 3071 3002 3005 2989 3154 3005 2965 3072 3088 3027 3145 3075 3087 3097 3064 3042 3102 3085 3008 3114 3171 3064 3081 3023 3076 3187 3163 3060 3116 3200 3136 3169 3128 3115 3119 3026 3141 3104 3105 3135 3165 3159 3093 3126 3192 3212 3173 3238 3150 3065 3210 3218 3091 3106 3266 3141 3114 3204 3364 3318 3265 3228 3329 3195 3293 3275 3189 3297 3366 3271 3371 3316 3331 3298 3364 3351 3294 3259 3334 3303 3402 3339 3395 3433 3389 3377 3339 3333 3494 3383 3383 3442 3365 3454 3504 3364 3384 3556 3440 3546 3434 3559 3520 3487 3617 3448 3592 3687 3676 3543 3666 3733 3797 3791 3741 3926 3937 4074 4054 4151 4125 4024 4001 3998 4104 4039 4115 3941 4010 3936 3973 3898 3882 3913 3911 3900 3819 3989 3838 3781 3731 3850 3787 3913 3787 3768 3822 3779 3841 3933 3939 3840 3992 3896 3880 3921 3833 3929 3879 3884 3786 3841 3780 3825 3789 3748 3817 3756 3771 3693 3804 3802 3661 3639 3670 3665 3724 3637 3752 3608 3736 3586 3527 3584 3555 3693 3443 3542 3516 3640 3593 3630 3491 3551 3532 3495 3560 3657 3492 3489 3546 3523 3557 3617 3486 3566 3480 3554 3414 3520 3449 3389 3529 3441 3506 3524 3521 3505 3364 3618 3492 3549 3563 3622 3442 3559 3513 3626 3620 3662 3558 3631 3710 3751 3776 3608 3627 3626 3517 3663 3629 3610 3564 3513 3453 3601 3560 3371 3478 3503 3441 3306 3505 3315 3392 3302 3464 3361 3436 3427 3379 3294 3369 3279 3463 3342 3360 3432 3413 3441 3360 3330 3412 3364 3277 3253 3325 3351 3394 3390 3286 3299 3305 3301 3272 3245 3172 3281 3157 3148 3209 3222 3098 3082 3145 3097 3135 3200 3143 3096 3175 3119 3135 3173 3183 3175 3034 3167 3073 3119 3095 3191 3132 3241 3080 3083 3064 3153 3148 3103 3148 3041 3069 3118 3070 3040 3066 3118 3127 3079 3006 3042 3090 3075 3022 3110 3087 3022 3089 2981 3030 3045 3039 3011 2968 3056 3050 3027 2968 2987 2993 3046 2958 3078 3061 3112 2983 2968 3161 3066 3071 3028 3007 3177 3000 3059 3031 3072 3116 3037 3219 3096 3086 3061 3152 2963 3074 3133 3053 3101 2929 3075 3036 2989 3063 3216 2874 3060 3020 2965 2991 3057 3050 3070 3081 3003 3127 2997 2983 3125 3048 2986 3037 3105 3030 3061 2978 3013 3030 3039 2995 3073 2973 3021 3030 2963 3049 2989 3108 2957 3036 2921 3058 3010 2948 3020 2939 2951 2962 3036 3052 3009 2990 2974 3184 2961 2900 2907 3022 3019 2962 2866 3092 2949 2834 2951 2983 2962 2964 2959 2956 3009 2920 2896 2922 2822 2952 2927 2869 2965 2938 2846 2846 3005 2986 2905 2955 2900 2896 2885 2900 2898 2954 2880 2967 2897 2992 2873 2943 2896 2875 2893 2900 2864 2951 2909 2890 2890 3003 2738 2826 2895 2845 2854 2893 2772 2856 2775 2856 2876 2863 2809 2849 2887 2900 2847 2784 2818 2801 2838 2775 2910 2804 2947 2791 2816 2773 2950 2899 2718 2903 2765 2818 2759 2807 2728 2746 2724 2795 2772 2879 2745 2739 2776 2723 2700 2690 2679 2873 2676 2775 2685 2744 2715 2768 2740 2718 2727 2696 2779 2773 2664 2670 2695 2759 2695 2741 2680 2798 2675 2774 2706 2666 2620 2549 2709 2686 2719 2714 2692 2652 2683 2691 2737 2564 2628 2765 2653 2687 2718 2658 2696 2718 2583 2679 2656 2626 2684 2640 2583 2713 2759 2661 2573 2656 2593 2643 2681 2584 2602 2612 2628 2601 2636 2647 2582 2640 2598 2593 2598 2572 2616 2692 2552 2642 2525 2505 2643 2613 2651 2662 2562 2551 2592 2511 2574 2652 2480 2589 2511 2654 2610 2531 2565 2511 2585 2525 2626 2626 2591 2565 2503 2588 2595 2634 2513 2595 2491 2524 2522 2563 2507 2459 2565 2615 2513 2516 2572 2602 2572 2494 2495 2516 2561 2465 2562 2440 2525 2514 2511 2490 2492 2530 2530 2451 2478 2509 2432 2534 2449 2525 2474 2524 2496 2592 2568 2570 2509 2573 2495 2460 2531 2475 2481 2556 2511 2471 2574 2576 2556 2487 2582 2505 2529 2480 2457 2497 2532 2511 2461 2518 2441 2449 2560 2450 2577 2520 2418 2440 2539 2584 2483 2467 2460 2444 2476 2426 2604 2512 2483 2484 2593 2411 2492 2495 2372 2405 2569 2403 2522 2488 2581 2517 2449 2408 2453 2388 2490 2527 2555 2495 2526 2542 2435 2525 2511 2409 2533 2605 2519 2489 2497 2474 2492 2503 2490 2516 2486 2498 2496 2494 2581 2537 2552 2474 2414 2596 2535 2504 2475 2495 2542 2506 2503 2514 2494 2530 2492 2466 2536 2523 2609 2471 2612 2558 2511 2484 2488 2535 2507 2487 2447 2439 2511 2510 2570 2596 2482 2477 2530 2472 2543 2401 2583 2501 2524 2505 2494 2595 2508 2554 2459 2494 2554 2505 2547 2537 2568 2565 2515 2410 2469 2451 2432 2473 2498 2511 2521 2516 2505 2491 2492 2424 2560 2474 2505 2488 2473 2518 2416 2408 2474 2444 2493 2405 2446 2452 2462 2380 2399 2475 2421 2512 2430 2447 2459 2529 2478 2357 2394 2528 2441 2544 2446 2404 2452 2420 2416 2463 2414 2474 2407 2355 2361 2406 2435 2423 2346 2306 2358 2389 2286 2296 2312 2283 2317 2295 2395 2317 2330 2311 2299 2254 2300 2152 2212 2256 2243 2328 2219 2340 2294 2245 2244 2198 2274 2229 2211 2101 2238 2118 2262 2257 2222 2229 2269 2109 2149 2114 2190 2090 2251 2142 2097 2140 2191 2159 2210 2096 2171 2237 2212 2185 2158 2161 2128 2132 2167 2110 2053 2129 1974 2097 2174 1991 2107 2081 2029 2050 2077 2085 1968 2079 2041 2095 2029 2034 2093 2067 2009 2010 2077 1915 1946 1923 1979 1980 1982 1989 1908 1941 1975 1876 2010 1969 1978 1953 1951 1968 1906 1936 1880 1952 1849 1943 1879 1907 1888 1885 1941 1911 1967 1933 1938 1845 1889 1850 1912 1991 1861 1922 1786 1964 1919 1879 1925 1777 1874 1820 1933 1858 1917 1950 1875 1826 1889 1825 1845 1850 1916 1728 1837 1798 1767 1794 1769 1862 1801 1856 1754 1871 1793 1800 1909 1805 1813 1834 1803 1788 1852 1822 1702 1820 1858 1844 1816 1816 1784 1867 1759 1789 1770 1798 1745 1801 1865 1809 1837 1694 1757 1825 1724 1732 1819 1815 1764 1842 1815 1789 1791 1734 1799 1717 1797 1779 1776 1738 1781 1797 1780 1788 1782 1806 1737 1874 1825 1786 1783 1780 1773 1812 1766 1788 1857 1789 1830 1769 1812 1735 1742 1796 1827 1800 1803 1799 1794 1813 1803 1749 1778 1744 1777 1660 1816 1849 1784 1830 1792 1806 1722 1788 1732 1856 1750 1767 1771 1796 1836 1801 1845 1706 1735 1713 1802 1789 1774 1779 1795 1763 1701 1717 1786 1754 1851 1728 1801 1802 1818 1820 1778 1850 1779 1781 1737 1749 1891 1741 1856 1700 1790 1845 1771 1801 1748 1817 1817 1761 1763 1801 1710 1759 1789 1760 1775 1789 1714 1769 1813 1835 1843 1773 1807 1757 1854 1743 1768 1940 1749 1781 1797 1791 1852 1775 1826 1759 1762 1812 1797 1864 1768 1792 1843 1826 1751 1781 1850 1733 1757 1738 1802 1747 1740 1756 1794 1761 1767 1656 1791 1728 1764 1823 1788 1735 1759 1744 1820 1733 1723 1773 1742 1740 1717 1816 1689 1799 1732 1712 1866 1802 1691 1748 1803 1763 1731 1762 1707 1716 1754 1714 1772 1709 1663 1784 1743 1709 1748 1725 1649 1644 1688 1671 1718 1693 1662 1761 1666 1627 1725 1712 1663 1708 1651 1667 1622 1720 1699 1652 1731 1652 1684 1641 1642 1605 1657 1660 1624 1598 1589 1617 1664 1585 1570 1626 1606 1672 1611 1545 1635 1583 1554 1496 1557 1491 1546 1617 1588 1577 1549 1617 1571 1578 1552 1602 1521 1554 1589 1553 1594 1637 1603 1557 1580 1525 1535 1547 1547 1548 1558 1551 1572 1526 1614 1616 1511 1525 1521 1600 1494 1610 1603 1547 1569 1583 1622 1674 1652 1733 1712 1787 1752 1800 1783 1808 1896 1887 1964 1932 2073 1958 1985 2063 2029 1969 1993 1914 1990 1831 1813 1801 1799 1767 1814 1723 1670 1723 1604 1630 1646 1586 1639 1598 1548 1620 1525 1582 1547 1600 1501 1543 1525 1521 1588 1551 1508 1631 1546 1622 1440 1565 1527 1579 1475 1495 1464 1496 1477 1497 1478 1500 1394 1390 1417 1419 1457 1434 1469 1433 1421 1419 1441 1424 1406 1402 1437 1444 1342 1326 1342 1379 1340 1375 1395 1363 1299 1438 1338 1344 1306 1396 1394 1317 1388 1320 1379 1372 1384 1376 1366 1325 1386 1356 1385 1366 1426 1363 1421 1403 1473 1349 1494 1468 1487 1605 1606 1701 1776 1838 1947 2032 2130 2203 2203 2386 2529 2480 2579 2448 2547 2472 2573 2530 2486 2358 2420 2278 2312 2169 2199 2098 2017 1942 1806 1850 1846 1813 1755 1639 1596 1609 1616 1591 1637 1640 1641 1665 1648 1676 1647 1535 1537 1542 1528 1482 1559 1479 1423 1445 1382 1418 1460 1378 1370 1400 1358 1388 1300 1411 1377 1357 1395 1335 1333 1317 1293 1292 1242 1309 1294 1299 1244 1300 1234 1241 1157 1215 1226 1216 1174 1197 1173 1201 1182 1246 1278 1143 1253 1287 1199 1230 1218 1188 1302 1238 1162 1241 1184 1183 1213 1208 1217 1206 1142 1179 1169 1154 1156 1282 1149 1203 1130 1142 1143 1174 1174 1124 1237 1107 1141 1121 1152 1199 1216 1193 1125 1209 1204 1154 1146 1215 1149 1180 1215 1186 1172 1118 1131 1180 1127 1204 1120 1207 1188 1145 1100 1179 1169 1158 1191 1157 1143 1177 1085 1195 1160 1188 1163 1184 1198 1149 1138 1167 1176 1222 1201 1226 1284 1300 1329 1324 1412 1383 1408 1451 1524 1538 1703 1766 1926 2045 1988 2158 2225 2384 2512 2645 2587 2680 2698 2732 2677 2618 2667 2582 2576 2413 2275 2197 2194 2003 1963 1804 1739 1692 1695 1591 1566 1483 1490 1421 1434 1352 1373 1354 1332 1318 1305 1293 1343 1345 1313 1347 1333 1300 1351 1357 1280 1241 1261 1372 1380 1326 1280 1366 1269 1237 1352 1326 1227 1289 1234 1287 1198 1280 1280 1251 1232 1209 1242 1227 1210 1195 1132 1182 1150 1184 1109 1149 1128 1057 1043 1080 1081 1039 1036 1101 1054 1022 1026 987 1153 1061 1013 1049 1059 1058 1086 996 1024 1011 1050 1021 1049 1072 998 1113 1044 1013 1110 1075 1000 1044 973 1008 1034 1035 991 970 1018 1015 988 1086 1002 1051 973 1006 1042 1019 1055 1066 1062 973 963 1016 1029 989 1034 994 1021 952 966 998 977 1030 1050 1019 968 982 1050 1002 1011 959 998 987 1036 996 1013 995 1004 977 995 1045 1035 968 1041 1046 1013 970 999 1015 1019 970 1037 990 1056 1057 1032 1014 1049 1061 974 984 1028 956 1060 978 1003 1033 1001 1025 1006 1038 1037 1004 977 999 1049 1087 1059 1037 972 1001 1003 1021 1099 1066 1047 1014 1093 1072 1073 1108 1122 1119 1095 1189 1191 1268 1280 1289 1252 1320 1245 1301 1373 1290 1306 1334 1288 1371 1254 1345 1303 1392 1310 1353 1353 1320 1429 1449 1515 1641 1628 1810 1721 2005 2225 2411 2539 2695 2967 3147 3326 3590 3673 3952 4102 4062 4243 4105 4299 4258 4127 4034 3977 3830 3666 3566 3335 3110 3028 2818 2737 2603 2334 2311 2214 1992 1890 1904 1819 1804 1754 1746 1624 1660 1583 1619 1589 1578 1511 1552 1538 1482 1466 1329 1414 1368 1361 1322 1335 1265 1324 1281 1255 1269 1286 1194 1124 1208 1141 1156 1095 1172 1119 1063 1023 1081 1052 1035 1098 1045 1040 1036 1053 1044 985 1005 1108 1019 1027 1047 969 1083 1026 985 995 1053 953 993 1027 1011 961 992 1006 966 1020 924 993 1043 1012 973 1035 1001 987 1010 990 959 1009 1095 971 995 918 966 957 957 932 1026 984 914 1002 969 931 920 938 922 955 958 927 957 961 977 967 983 997 941 997 998 937 986 924 933 915 1020 935 944 981 961 937 995 930 1025 994 926 975 927 966 946 984 948 960 981 891 1063 948 928 936 1000 928 977 979 907 931 936 952 892 957 953 1001 921 932 940 916 913 920 930 955 949 905 915 1023 980 986 916 943 962 889 994 961 964 926 968 897 948 941 962 946 961 891 927 948 923 963 901 947 891 887 923 878 925 954 987 970 982 921 985 979 953 980 973 894 943 932 893 987 930 1021 925 943 919 957 962 949 975 918 917 943 989 930 957 936 922 893 877 914 892 870 873 896 882 901 856 917 811 899 860 915 984 907 908 887 896 838 899 809 901 873 876 914 917 914 889 925 921 948 859 870 910 900 883 910 918 886 883 873 927 953 938 860 916 953 932 923 889 887 889 862 946 938 910 897 814 880 877 910 878 938 855 911 860 896 963 940 797 911 878 884 964 884 823 884 857 898 931 828 953 834 871 901 937 852 910 893 934 844 840 862 871 873 848 857 884 829 923 854 858 847 804 825 824 793 833 835 822 872 861 837 849 821 860 829 802 824 854 864 870 833 832 878 876 835 831 857 848 810 903 861 873 794 862 849 846 863 825 865 837 838 831 878 874 821 838 844 872 834 868 801 795 900 831 889 825 793 830 825 821 846 931 896 767 865 840 829 814 817 867 840 835 862 794 834 809 778 888 820 836 822 846 824 820 848 772 834 787 812 802 852 825 826 821 877 824 856 844 880 885 797 856 824 804 823 863 808 779 819 823 882 841 830 862 828 860 827 835 824 841 757 791 783 853 848 862 824 802 826 860 812 808 770 750 802 856 786 860 797 807 814 802 859 769 820 757 798 807 776 788 743 772 803 794 799 837 804 799 870 790 816 812 821 750 796 811 818 786 842 795 845 818 843 824 792 751 804 761 799 799 775 835 799 815 835 815 808 779 842 822 818 853 777 828 815 802 822 788 859 833 780 795 757 797 816 769 795 853 841 825 813 807 781 803 821 849 760 777 792 782 824 781 830 793 809 818 846 872 839 833 793 794 851 802 854 811 838 853 835 807 820 781 861 795 787 834 832 824 809 806 781 847 823 867 943 872 864 853 934 918 963 969 993 944 1044 1092 1164 1131 1155 1226 1256 1391 1418 1401 1557 1473 1492 1568 1593 1561 1647 1547 1546 1530 1511 1438 1434 1421 1374 1359 1311 1248 1224 1162 1138 1085 1041 1056 1032 933 1000 996 939 922 957 952 916 902 878 894 915 853 878 908 840 843 887 833 875 871 825 841 891 842 865 880 829 853 852 822 829 801 853 833 785 783 829 744 789 813 828 805 798 788 823 777 757 806 776 767 778 831 783 762 808 766 786 798 773 858 819 803 789 797 826 786 772 765 807 789 778 780 757 775 749 800 760 750 761 813 825 830 833 818 778 803 835 813 804 765 787 734 807 750 788 769 750 769 755 779 782 781 711 771 777 777 823 746 783 769 796 777 784 819 759 814 768 738 742 771 778 778 784 836 855 811 863 717 815 800 832 829 846 828 860 835 869 856 863 874 886 948 931 912 944 892 936 926 945 849 900 874 963 884 945 855 899 862 816 849 882 859 845 824 820 874 771 808 815 819 792 811 772 784 723 815 769 778 782 786 792 727 796 813 799 758 804 875 866 820 771 785 803 840 811 772 794 817 764 828 853 844 813 834 820 787 764 802 783 822 804 762 833 783 812 725 823 751 871 764 804 764 756 798 779 854 782 795 816 770 758 748 768 768 723 807 767 757 761 759 704 733 751 778 712 757 753 825 811 784 762 779 785 732 772 823 795 800 786 760 756 766 850 792 795 821 827 854 801 850 879 843 862 858 922 839 856 838 883 804 827 769 819 860 857 840 852 836 795 791 834 820 765 789 792 824 776 783 734 832 786 794 806 751 820 766 812 778 804 787 862 790 770 778 778 818 798 830 816 823 870 895 841 904 916 910 938 962 1020 995 1010 1008 1003 1104 1116 1091 1178 1091 1110 1081 1139 1061 1164 1080 1070 1011 1055 1023 982 952 951 957 853 954 898 859 876 1005 873 858 904 864 861 861 783 809 741 785 771 804 796 772 765 796 768 815 764 737 801 806 740 780 830 750 776 824 773 726 692 725 800 775 788 760 799 739 734 741 768 746 747 758 751 678 732 761 701 736 767 738 779 747 743 757 729 724 729 756 757 666 734 705 738 754 768 716 710 716 744 751 700 701 776 737 730 765 735 775 736 716 739 718 707 721 732 690 708 712 769 774 713 736 733 700 778 719 723 757 731 699 776 724 731 753 745 716 678 717 765 715 748 755 766 730 713 703 706 726 696 733 701 662 669 736 700 737 724 717 694 733 715 708 770 681 755 685 714 744 704 716 720 756 729 675 749 728 716 712 660 729 721 743 728 723 736 727 665 732 715 702 681 744 718 728 713 660 700 735 689 690 699 777 686 745 667 744 701 695 733 718 727 723 710 735 690 700 731 672 665 730 670 718 739 696 770 747 736 689 749 676 732 719 707 701 708 721 723 676 656 701 745 748 718 737 693 707 773 741 635 762 695 734 707 753 699 726 738 718 697 765 757 705 729 658 695 723 701 680 726 736 724 747 745 766 737 717 667 731 717 768 725 786 749 713 730 768 742 739 745 725 716 711 777 772 768 772 805 761 803 787 809 739 799 797 763 778 821 802 759 809 770 808 749 749 745 779 868 835 767 797 776 839 757 768 776 792 789 754 783 802 790 755 813 778 796 763 802 778 798 793 738 727 838 762 770 763 831 727 788 814 800 809 847 805 818 850 854 974 998 985 976 987 1007 1105 1104 1161 1246 1192 1185 1250 1307 1300 1401 1399 1474 1463 1553 1488 1693 1678 1759 1855 1958 1974 2065 2160 2335 2347 2446 2530 2699 2718 2817 2825 2864 2888 2913 2990 2960 2903 2947 2817 2696 2685 2637 2588 2329 2322 2224 2060 1987 1951 1855 1843 1674 1650 1526 1492 1364 1345 1262 1270 1198 1195 1147 1170 1103 1065 1031 999 993 987 1023 976 959 959 942 967 933 923 845 866 860 847 813 864 822 850 822 878 803 779 758 765 781 773 772 806 696 770 762 766 737 696 719 753 737 696 720 727 726 767 705 703 711 770 705 703 710 695 705 712 719 707 718 761 717 702 785 765 739 735 673 786 752 665 698 685 714 759 715 659 680 727 735 713 704 698 756 715 717 704 711 716 706 700 649 653 693 703 713 719 731 761 752 718 759 718 716 710 721 669 688 686 698 705 730 730 706 717 704 683 701 649 702 696 689 752 694 723 709 703 685 700 675 718 710 699 739 717 725 678 640 645 747 670 696 725 643 704 662 716 703 701 678 691 707 742 713 753 668 725 668 675 707 693 685 723 716 692 705 696 688 722 733 693 684 711 762 739 703 725 779 784 767 760 784 801 809 864 852 847 835 883 876 879 838 887 868 906 864 821 821 835 830 844 873 851 856 865 772 805 786 783 774 798 752 767 797 766 753 777 746 738 748 761 749 719 729 734 707 715 782 772 656 673 720 766 685 721 678 695 762 727 686 722 775 656 728 689 663 748 703 713 733 764 722 704 723 686 701 718 654 697 714 690 735 661 666 646 709 657 651 687 682 732 659 734 628 709 653 671 656 696 716 637 696 680 686 728 727 687 668 702 658 652 650 715 605 700 699 715 680 681 654 647 755 727 681 697 632 675 697 695 691 690 729 740 716 718 770 746 754 735 701 745 709 746 769 740 706 741 760 700 746 734 754 750 669 716 673 691 773 709 716 693 722 677 764 686 696 734 629 693 670 623 676 681 676 675 666 676 622 660 620 696 692 699 677 678 671 647 683 673 678 698 684 623 696 713 696 693 727 646 671 668 721 740 757 736 732 783 722 760 771 793 787 787 802 868 853 870 833 766 766 781 838 820 799 761 809 779 796 763 779 779 787 749 757 736 709 705 701 681 709 732 711 664 722 687 717 634 718 662 698 685 654 646 688 661 652 667 649 627 642 658 661 669 621 657 634 638 668 625 645 646 661 612 676 620 636 608 630 641 675 656 590 652 637 583 629 630 632 600 632 615 617 657 572 597 602 591 627 626 619 651 636 622 645 659 629 598 646 627 638 654 628 620 677 614 599 587 641 646 616 701 579 633 649 656 617 580 653 653 629 652 634 623 664 599 672 603 654 621 651 618 657 643 592 614 629 646 611 600 632 631 599 635 619 648 627 618 652 629 615 645 628 560 657 569 640 590 670 641 646 613 629 639 568 666 649 595 594 590 616 638 638 638 647 555 650 638 666 643 596 623 648 568 659 618 604 598 630 599 574 606 649 596 614 607 569 618 659 606 612 642 628 611 581 650 628 596 627 607 627 621 592 607 575 619 656 655 600 609 628 628 607 623 640 605 632 589 609 587 601 577 607 589 644 639 614 637 591 598 598 636 610 593 663 650 565 605 663 624 626 629 610 637 616 656 601 607 622 643 617 626 625 585 622 599 668 676 610 642 596 630 547 598 621 630 676 619 632 604 594 627 589 624 555 605 576 622 677 597 610 660 643 626 659 661 619 659 611 662 614 608 617 667 645 636 604 637 635 650 605 613 646 618 637 629 609 612 611 686 576 609 592 661 641 639 597 608 659 578 614 657 609 627 655 618 632 650 587 613 595 602 641 623 657 613 682 689 628 635 642 631 632 604 595 614 633 630 636 692 665 654 661 645 618 659 594 671 695 673 632 685 602 639 622 654 650 686 658 626 659 672 675 617 649 622 666 685 635 617 641 649 682 618 691 653 623 700 630 673 664 628 616 581 615 665 631 657 640 644 723 720 703 733 729 775 792 776 784 773 752 775 849 802 855 831 843 829 850 856 840 798 829 896 840 803 829 812 807 805 833 781 766 805 773 710 809 739 727 742 753 741 735 691 708 672 657 680 637 681 696 629 635 650 621 661 609 639 617 636 636 670 645 659 638 624 621 549 603 665 565 656 584 654 620 701 613 662 600 619 610 619 609 642 618 585 670 598 717 665 660 673 650 654 710 702 638 694 701 726 746 752 786 728 709 747 721 712 720 731 695 759 730 701 775 767 706 694 729 694 753 645 730 651 659 644 694 647 676 684 686 700 660 708 649 680 662 649 625 627 658 602 671 649 668 627 637 637 659 593 573 650 627 599 627 640 619 627 631 617 584 643 620 638 584 624 665 603 618 587 594 619 665 594 643 606 610 630 620 629 590 606 626 610 619 631 632 572 572 614 569 588 628 552 582 614 645 581 625 590 596 603 585 610 620 569 595 562 602 588 575 589 612 608 605 630 620 577 649 607 559 635 589 604 540 676 574 586 604 587 586 644 615 578 591 547 564 571 613 599 594 622 604 638 623 603 656 625 654 616 625 593 616 599 675 639 648 686 644 683 690 743 752 726 757 811 852 820 828 834 932 926 975 959 1001 996 1014 981 1045 1036 1088 1043 1056 1089 966 1047 1021 1028 967 995 972 971 888 944 928 949 890 905 865 827 832 809 800 760 765 778 723 788 735 759 696 799 730 717 794 727 774 684 718 670 682 736 684 702 641 660 635 624 634 646 642 634 641 594 631 647 634 597 621 603 638 609 625 618 589 649 614 570 623 641 612 604 585 589 639 622 589 586 622 624 608 593 574 590 595 591 632 600 650 554 584 616 595 571 576 607 567 580 545 559 588 581 594 586 592 607 606 561 565 565 547 583 571 589 583 559 626 583 570 602 577 555 565 600 552 582 548 574 545 587 580 584 582 616 607 576 575 583 590 553 591 576 554 571 546 576 562 600 592 584 604 550 567 594 562 577 559 597 571 591 586 619 569 603 591 605 582 598 611 646 561 604 599 532 619 612 586 629 611 637 617 636 651 636 645 625 687 700 634 661 690 648 689 684 673 651 742 724 660 695 701 667 691 634 686 665 663 640 632 663 590 670 640 650 624 587 638 622 626 646 609 630 599 633 628 614 594 613 598 628 596 605 596 624 610 588 579 583 631 669 625 620 616 606 558 592 561 624 604 577 564 577 629 619 596 599 600 569 564 580 554 551 624 600 642 554 593 554 605 600 583 558 594 570 582 603 562 514 568 568 557 614 578 599 583 535 574 570 603 621 534 531 581 563 550 558 589 588 549 564 535 598 574 582 586 556 571 569 517 534 514 580 562 543 509 562 592 582 591 588 568 565 576 544 561 557 575 577 555 563 582 596 573 581 611 587 621 588 539 590 572 635 548 547 595 595 563 598 542 558 552 567 564 545 549 561 592 559 553 585 556 585 531 527 598 621 542 546 556 555 565 580 567 520 598 557 577 584 580 612 543 572 576 602 584 616 591 594 601 601 613 588 613 600 608 645 695 591 662 645 616 690 671 656 718 672 678 626 715 651 658 649 632 650 652 705 694 670 660 653 596 620 656 612 637 647 593 632 640 616 600 582 609 567 613 559 608 577 598 561 597 562 553 514 603 614 588 566 579 546 572 594 575 590 542 536 517 552 568 521 598 548 586 562 594 547 574 550 572 573 553 557 523 525 560 585 593 577 556 554 536 585 536 565 495 554 558 536 567 586 547 550 553 570 541 578 609 574 560 554 572 553 536 550 575 555 573 566 568 613 563 599 552 567 540 567 555 537 556 566 552 538 584 558 574 518 584 589 582 573 521 568 565 482 563 556 535 580 526 565 575 627 582 540 541 527 560 555 498 572 591 521 559 554 534 586 560 535 548 579 527 520 540 552 569 588 516 531 558 555 560 550 594 547 539 574 503 535 537 558 568 551 564 512 566 515 576 512 548 535 536 487 585 552 568 607 587 588 602 585 593 572 592 565 538 509 560 510 596 505 580 610 582 568 581 573 572 549 566 532 599 603 645 585 575 567 572 626 560 585 572 544 562 602 604 584 597 547 648 564 597 582 569 590 506 561 597 579 572 614 585 552 556 550 581 566 581 563 561 548 537 532 547 508 532 560 567 571 555 593 568 560 604 534 534 599 569 573 600 579 613 536 653 569 581 608 614 596 571 598 596 545 638 622 593 589 631 627 640 623 622 622 644 590 603 643 626 580 614 564 536 577 552 567 534 560 566 569 567 581 573 570 575 527 577 537 487 555 617 611 556 576 549 601 506 576 549 562 564 576 571 564 581 513 506 516 555 549 534 596 541 589 551 613 576 506 568 568 532 568 585 514 563 549 595 552 597 553 552 523 574 537 555 564 539 544 554 548 527 551 571 558 585 541 541 523 616 568 590 562 528 554 538 574 495 549 587 601 568 552 543 511 540 550 548 546 525 561 503 520 554 529 565 540 530 499 547 548 549 549 555 533 502 545 501 531 523 547 582 534 545 609 524 535 560 512 560 517 569 519 541 541 489 518 528 518 545 531 519 581 551 555 543 543 538 546 529 482 574 526 553 559 553 501 582 504 550 492 540 520 543 501 498 527 516 602 560 557 515 535 557 530 545 515 559 571 546 550 565 528 526 522 556 527 570 582 537 547 538 501 511 590 555 538 591 562 562 537 540 566 568 549 556 530 534 540 534 564 543 561 547 599 556 544 556 515 552 575 516 563 493 536 561 536 518 548 526 574 519 545 535 557 503 539 559 516 534 556 540 557 557 525 545 531 552 547 534 544 546 575 541 565 601 590 581 597 552 563 579 576 552 594 580 666 611 597 595 613 659 603 652 651 634 680 647 677 651 692 682 667 671 705 639 731 733 704 691 733 713 690 703 715 716 712 635 685 700 701 647 690 657 612 681 630 615 654 602 628 598 626 593 608 575 617 587 621 570 605 602 568 587 590 562 605 555 551 595 566 540 561 511 542 538 565 533 491 533 550 531 553 549 530 522 620 528 534 581 525 530 540 554 519 519 523 512 543 531 546 481 527 512 551 576 568 501 565 515 555 541 559 558 527 481 494 549 538 525 537 577 524 542 491 523 547 538 538 536 544 527 525 504 530 518 513 547 576 569 502 534 558 499 523 577 565 549 547 550 522 548 546 559 515 527 522 513 563 518 594 483 525 545 508 564 559 539 535 539 537 550 509 545 550 507 522 520 550 535 554 558 556 524 523 579 516 566 561 529 579 518 577 531 539 550 592 585 567 583 581 547 535 557 552 537 558 558 567 588 521 550 553 530 567 565 531 534 551 544 582 532 574 580 591 557 572 511 605 538 508 536 551 504 536 532 569 503 541 543 489 541 515 540 510 520 548 560 541 533 518 527 552 560 539 569 575 516 491 539 523 480 534 518 562 541 550 557 526 556 532 577 511 522 548 516 566 600 548 556 522 616 627 581 553 556 527 531 561 555 527 528 549 574 590 548 567 559 546 583 520 547 568 555 498 523 562 526 543 570 554 543 566 529 520 557 530 528 522 563 531 544 558 522 553 539 561 542 552 535 562 581 539 595 581 555 564 578 537 572 546 573 545 568 538 551 556 556 594 502 542 554 556 577 572 566 539 613 567 596 566 600 577 572 547 563 572 585 547 549 543 555 544 588 580 573 546 537 547 588 560 563 514 576 537 527 557 561 507 568 547 518 504 543 552 555 550 543 504 539 524 559 551 586 552 580 512 541 556 498 544 553 515 516 575 539 507 583 534 540 536 530 517 532 548 499 538 542 529 552 499 498 521 575 517 530 510 535 537 482 522 508 523 533 562 562 529 548 497 493 533 546 568 540 577 560 530 551 514 512 556 540 586 518 537 517 552 579 509 581 509 549 539 539 489 539 535 527 548 533 522 553 556 526 576 539 577 562 531 517 528 546 540 508 542 515 530 495 574 504 540 570 537 582 510 490 520 529 489 530 531 510 567 552 531 594 622 517 557 503 555 550 548 568 544 543 541 523 492 544 560 556 511 543 493 533 568 558 535 600 587 559 506 532 572 552 514 533 533 554 549 561 553 599 512 544 577 560 532 576 538 562 541 538 539 526 548 582 576 565 555 581 487 584 553 555 614 596 520 542 569 521 545 594 544 568 530 507 549 533 512 559 579 579 559 557 612 567 562 522 526 589 537 579 527 542 540 559 523 553 534 578 547 513 525 521 540 508 581 581 537 498 509 550 564 527 533 548 554 546 574 534 572 549 520 546 578 555 537 528 571 516 523 516 530 542 585 544 552 585 584 554 554 606 563 571 577 564 559 580 569 603 579 548 599 605 568 588 551 551 606 585 553 609 591 614 574 584 580 583 575 572 610 555 512 605 563 582 558 544 624 585 584 571 566 673 552 603 572 572 580 580 600 573 557 576 600 604 543 570 563 582 560 559 614 599 588 613 623 626 582 597 598 593 649 634 600 590 604 583 608 607 571 593 629 601 618 607 570 598 604 590 571 535 579 606 594 697 563 600 613 624 611 572 628 573 600 582 560 612 574 580 595 592 570 618 569 642 591 592 609 605 635 625 642 588 663 609 621 638 597 642 649 612 648 625 611 658 639 636 604 648 626 653 686 616 556 605 593 627 605 606 635 601 626 602 600 604 596 659 562 555 623 602 605 606 627 548 568 582 601 593 570 594 563 601 573 548 555 577 571 593 557 593 554 603 583 534 590 576 518 576 554 524 567 565 554 576 562 541 575 521 565 521 517 549 537 580 538 558 543 572 575 573 565 561 555 547 553 588 595 562 580 570 545 546 594 593 534 559 550 548 527 598 557 612 517 541 568 538 567 563 602 560 625 534 588 544 535 523 583 587 587 548 571 576 583 611 563 619 595 626 566 549 567 569 602 549 623 500 578 582 593 585 608 608 634 641 605 633 648 657 631 617 641 693 679 678 685 715 745 769 824 742 825 780 863 848 797 883 864 859 875 974 889 876 939 930 878 918 912 931 919 938 924 874 925 906 920 984 914 903 905 917 909 859 823 837 834 873 838 806 862 781 824 819 759 779 704 773 730 761 722 720 724 745 690 702 656 671 673 694 618 621 656 575 653 624 642 590 631 614 570 569 578 592 539 556 555 593 632 591 574 570 554 600 557 531 579 557 545 591 579 586 548 629 578 567 594 517 571 516 539 538 594 556 513 574 560 607 532 535 559 558 562 553 558 536 532 568 530 517 562 565 574 569 539 499 507 575 566 558 570 562 524 523 535 540 517 588 584 542 530 554 542 537 561 546 569 551 560 587 582 576 548 530 571 559 538 548 557 562 525 541 538 568 558 535 564 579 584 609 566 535 591 624 567 567 581 572 580 576 561 558 562 527 565 547 561 568 552 558 567 570 635 551 554 641 566 571 554 553 629 554 541 562 540 515 588 543 548 579 535 545 547 548 525 556 523 522 564 581 554 538 565 546 577 495 519 573 544 565 518 543 568 549 532 543 530 571 574 536 540 559 519 540 544 566 498 537 548 525 539 517 559 532 527 542 538 524 551 526 516 563 543 580 567 520 527 583 534 543 549 517 589 590 538 550 512 556 530 546 554 587 539 528 515 521 544 534 546 568 565 553 528 516 548 585 568 484 588 523 552 512 512 551 548 514 519 521 553 570 509 522 540 579 530 524 548 486 536 571 558 532 546 563 552 549 538 550 563 544 501 540 522 531 558 551 552 573 593 570 556 559 546 617 564 579 550 510 591 576 586 608 612 596 531 604 612 614 618 594 576 586 614 624 576 615 599 563 588 610 597 613 678 626 560 598 567 592 613 602 587 613 569 605 531 633 573 597 591 592 574 587 562 594 579 611 582 598 535 584 546 618 559 588 542 536 561 577 565 536 544 529 563 601 529 548 570 564 564 538 545 554 546 558 585 573 477 519 544 550 572 548 549 528 554 552 559 553 532 573 558 541 532 595 530 524 556 529 598 518 554 510 520 506 523 522 526 545 537 545 584 501 468 545 475 526 569 537 590 523 574 490 541 489 519 531 513 540 544 526 508 506 555 545 519 611 536 568 509 554 495 540 506 519 539 541 550 548 538 525 524 536 529 555 544 553 578 544 565 479 560 522 517 523 548 539 515 557 549 484 528 548 488 519 539 535 539 547 525 511 546 527 538 516 547 506 551 507 557 504 533 563 522 570 523 563 502 519 559 554 544 523 539 559 561 537 522 464 542 477 499 539 528 499 570 585 505 550 541 551 521 511 525 525 542 515 536 499 522 507 506 541 522 546 546 500 540 499 481 505 565 502 526 526 545 541 531 528 559 557 526 481 486 516 509 536 545 527 508 569 533 575 576 568 537 512 543 523 568 538 570 525 570 526 563 548 534 551 543 605 547 616 581 575 530 576 570 554 615 558 575 561 569 541 543 555 539 553 592 581 545 583 543 531 574 561 533 575 545 583 572 516 533 627 559 549 547 572 544 535 575 538 556 567 567 563 541 599 555 542 545 530 528 517 552 517 464 552 603 583 529 550 518 558 524 512 543 545 542 539 524 522 562 556 505 539 515 568 524 569 502 542 579 546 544 521 518 589 537 574 520 536 533 522 517 558 520 519 511 529 528 570 514 544 543 550 522 485 593 542 546 512 523 513 525 575 593 522 556 568 529 544 505 538 576 539 555 553 535 564 507 527 543 523 552 527 555 489 530 516 573 552 579 562 560 543 535 517 510 513 499 534 533 546 521 561 514 573 526 555 525 536 570 566 524 514 604 523 548 517 560 505 524 511 541 515 473 554 514 536 525 580 532 558 545 518 514 489 556 501 544 536 555 546 486 492 504 518 563 511 527 550 511 539 571 568 535 526 512 578 565 508 562 533 511 530 582 563 536 550 543 557 564 603 545 506 571 633 547 559 613 568 547 552 562 532 563 571 586 607 595 580 611 543 598 556 539 590 546 574 563 623 572 551 549 577 591 575 587 588 577 597 580 586 619 643 588 607 633 619 699 681 717 675 694 684 697 685 767 704 733 745 768 786 748 723 769 784 738 783 836 769 788 814 780 797 771 766 779 788 768 720 848 787 763 747 774 747 711 750 725 764 738 776 728 702 709 689 704 691 698 666 691 642 737 600 684 633 663 605 615 637 615 667 576 605 574 554 600 574 618 583 609 598 535 624 574 556 612 569 547 595 618 563 543 563 551 555 501 611 559 545 534 551 532 514 575 551 568 533 504 524 512 514 527 532 532 521 612 517 551 522 540 532 515 540 521 517 505 523 545 502 536 500 491 497 543 523 525 529 520 534 495 521 541 506 542 494 494 522 539 528 568 510 528 478 541 556 513 481 549 514 586 518 558 520 544 528 554 532 537 522 529 548 574 536 541 516 585 550 512 530 525 519 562 532 582 548 548 543 569 545 555 524 524 550 581 545 548 525 569 551 541 584 525 530 521 551 525 501 553 508 576 572 538 536 544 546 524 582 555 570 547 505 598 534 557 547 503 523 581 567 518 568 511 498 564 525 575 531 523 561 540 544 505 539 540 531 543 538 596 543 553 531 531 507 523 541 513 536 505 567 511 505 535 499 526 530 520 563 568 542 543 506 602 491 544 512 549 534 578 528 472 525 497 518 521 548 471 543 500 544 542 539 549 547 504 499 518 507 516 548 532 516 555 538 522 550 588 550 518 505 566 507 512 483 526 525 506 511 537 543 547 576 577 543 486 604 566 605 563 531 504 525 498 503 561 520 585 535 586 546 546 563 564 598 553 539 559 568 533 566 526 578 543 502 569 524 507 577 550 566 531 499 547 524 516 532 535 540 538 489 553 510 526 526 528 513 551 553 513 547 474 510 510 512 507 541 515 528 561 538 501 535 538 527 516 515 520 522 557 530 500 513 523 494 574 520 506 527 552 529 571 523 515 515 520 539 543 528 550 533 515 529 518 508 480 561 529 564 525 561 504 481 495 476 518 501 532 552 510 498 513 502 519 514 503 547 504 557 467 509 537 510 506 513 534 482 484 532 511 481 504 546 464 534 541 524 517 535 541 509 491 514 537 542 559 523 555 484 486 558 529 516 557 540 510 531 503 489 507 538 557 528 544 517 547 492 491 520 528 494 534 527 507 508 514 434 543 547 552 505 522 524 525 494 533 528 505 537 499 550 541 481 500 499 493 533 554 513 565 479 508 476 542 520 508 494 520 519 519 501 459 548 519 491 507 494 521 482 517 523 509 548 489 524 515 535 503 494 538 513 482 541 530 508 548 540 505 527 506 521 530 505 535 543 498 527 517 488 504 543 526 569 579 547 529 519 585 517 530 539 486 541 513 497 504 503 559 480 549 534 526 519 491 496 488 543 509 517 510 486 522 524 530 523 529 551 493 531 480 536 488 522 490 506 487 486 514 514 555 495 515 555 510 510 563 508 582 539 505 558 573 542 583 532 559 579 575 536 521 563 516 521 534 517 584 538 617 561 548 600 610 555 598 584 609 572 532 537 582 593 574 597 586 627 540 556 569 577 578 602 581 527 584 560 594 555 576 563 583 584 572 587 542 557 575 584 572 570 579 534 545 561 595 606 575 578 586 579 538 556 562 577 521 546 556 563 516 551 525 548 536 556 567 552 555 611 555 618 597 539 549 575 560 545 556 570 568 511 553 552 548 556 566 533 532 528 529 512 553 525 523 537 551 504 481 518 489 587 528 555 516 557 515 551 521 534 536 550 556 552 488 498 532 563 543 521 531 509 537 529 528 519 513 508 535 485 530 549</counts>
			</dataPoints>
		</scan>
	</xrdMeasurement>
</xrdMeasurements>
