<?xml version="1.0"?>
<xrdMeasurements xmlns="http://www.xrdml.com/XRDMeasurement/2.3" xmlns:xsi="http://www.w3.org/2001/XMLSchema-instance" xsi:schemaLocation="http://www.xrdml.com/XRDMeasurement/2.3 http://www.xrdml.com/XRDMeasurement/2.3/XRDMeasurement.xsd" status="Completed" recordIdentifier="{9A3CCB97-EEA5-4210-8CAE-059BF18727EF}">
	<comment>
		<entry/>
	</comment>
	<sample type="To be analyzed">
		<id>GPSS_Li1p6Mg0p6Y0p4Cl4_122325_694ae824ae15af25ac372780</id>
		<name></name>
		<preparedBy></preparedBy>
	</sample>
	<xrdMeasurement measurementType="Scan" status="Completed" sampleMode="Reflection">
		<usedWavelength intended="K-Alpha 1">
			<kAlpha1 unit="Angstrom">1.5405980</kAlpha1>
			<kAlpha2 unit="Angstrom">1.5444260</kAlpha2>
			<kBeta unit="Angstrom">1.3922500</kBeta>
			<ratioKAlpha2KAlpha1>0.5000</ratioKAlpha2KAlpha1>
		</usedWavelength>
		<incidentBeamPath>
			<radius unit="mm">145.00</radius>
			<xRayTube id="1010048" name="Empyrean Cu LFF HR (9430 033 7310x)">
				<tension unit="kV">40.0</tension>
				<current unit="mA">15.0</current>
				<anodeMaterial>Cu</anodeMaterial>
				<focus type="Line">
					<length unit="mm">12.0</length>
					<width unit="mm">0.4</width>
					<takeOffAngle unit="deg">6.0</takeOffAngle>
				</focus>
			</xRayTube>
			<sollerSlit id="21010002" name="Soller slits 0.04 rad.">
				<opening unit="rad">0.0400</opening>
			</sollerSlit>
			<mask id="22031000" name="Fixed mask 13 mm">
				<width unit="mm">9.00</width>
			</mask>
			<divergenceSlit id="22120001" name="Divergence slit 1°" xsi:type="fixedDivergenceSlitType">
				<distanceToSample unit="mm">50.00</distanceToSample>
				<height unit="mm">1.52</height>
			</divergenceSlit>
		</incidentBeamPath>
		<sampleMovement xsi:type="spinningSampleMovementType">
			<spinnerRevolutionTime unit="seconds">1.0</spinnerRevolutionTime>
		</sampleMovement>
		<diffractedBeamPath>
			<radius unit="mm">145.00</radius>
			<antiScatterSlit id="22090040" name="AS slit 9 mm (PIXcel)" xsi:type="fixedAntiScatterSlitType">
				<height unit="mm">9.00</height>
			</antiScatterSlit>
			<sollerSlit id="21020003" name="Large Soller slits 0.04 rad.">
				<opening unit="rad">0.0400</opening>
			</sollerSlit>
			<filter id="20030001" name="Large beta-filter Nickel">
				<material>Ni</material>
				<thickness unit="mm">0.020</thickness>
			</filter>
			<detector id="7010019" name="PIXcel1D-Medipix3 detector" xsi:type="rtmsDetectorType">
				<phd unit="keV">
					<lowerLevel>4.02</lowerLevel>
					<upperLevel>11.27</upperLevel>
				</phd>
				<mode>Scanning</mode>
				<activeLength unit="deg">5.542</activeLength>
			</detector>
		</diffractedBeamPath>
		<scan appendNumber="0" mode="Continuous" scanAxis="Gonio" status="Completed">
			<header>
				<startTimeStamp>2025-12-25T15:10:57-08:00</startTimeStamp>
				<endTimeStamp>2025-12-25T15:19:05-08:00</endTimeStamp>
				<author>
					<name>AutomatedUser</name>
				</author>
				<source>
					<applicationSoftware version="1.7b (136)">PANalytical Aeris Instrument Suite</applicationSoftware>
					<instrumentControlSoftware version="3.2.00000000 20240306">AERIS</instrumentControlSoftware>
					<instrumentID>950485</instrumentID>
				</source>
			</header>
			<dataPoints>
				<positions axis="2Theta" unit="deg">
					<startPosition>10.00943322</startPosition>
					<endPosition>99.99442286</endPosition>
				</positions>
				<positions axis="Omega" unit="deg">
					<startPosition>5.00471661</startPosition>
					<endPosition>49.99721143</endPosition>
				</positions>
				<commonCountingTime unit="seconds">12.495</commonCountingTime>
				<counts unit="counts">2929 2821 3016 2921 2862 2907 2933 2946 2987 2892 2991 2895 2984 2964 2838 2945 2873 2986 2915 2903 2910 2992 3040 2888 2929 2954 2961 2985 2897 2895 2956 2976 2890 2933 2816 2940 2933 2934 3027 3011 2913 2985 2921 2993 2886 2916 2978 2865 2909 2928 2813 2827 2953 2941 2805 2898 2927 2855 2964 2894 3001 2905 2886 2954 2917 2884 3003 3027 2940 2976 2896 2946 2896 2985 3057 2904 3085 2914 3046 2964 3027 3017 3013 2946 2996 3006 2965 2986 3031 3061 3077 2949 3019 3069 3030 3070 2928 2970 3037 3029 3073 3073 3096 3029 3007 3080 3056 3051 3082 2948 3040 3079 3055 3122 2957 3030 2980 2998 3090 3125 3131 3046 2930 3131 3054 3094 3072 3009 3026 3041 2964 3155 3067 3012 3127 3083 3168 3016 3105 3176 3233 3106 3112 3101 3206 3076 3111 3082 3105 3092 3051 2985 3093 3261 3124 2977 3086 3074 3186 3083 3141 3204 3075 3041 3203 3069 3146 3109 3065 3207 3091 3045 3262 3164 3135 3082 3080 3004 3121 3034 3054 3141 3064 3095 3128 3190 2969 3140 3009 3010 3072 3059 3116 3156 3052 3031 3096 3129 2954 3145 3013 3043 3111 3078 3121 3076 3133 3063 3188 3047 2992 3080 3024 2975 3057 2960 3082 3052 3044 2858 2968 3006 2961 2963 3083 2985 2999 3035 3026 2960 2950 3026 2981 3031 2980 2962 2935 3062 2902 2940 2917 2948 2893 2959 2897 3042 2896 2963 2903 2961 2885 2989 2861 2902 2886 2892 2878 2954 2920 2859 2926 2786 2968 2841 2878 2794 2792 2814 2902 2697 2914 2965 2824 2865 2833 2894 2840 2850 2729 2720 2831 2794 2854 2831 2841 2844 2918 2762 2869 2801 2779 2698 2797 2762 2822 2837 2750 2672 2677 2793 2800 2782 2772 2668 2759 2702 2784 2781 2808 2836 2913 2738 2741 2880 2690 2810 2725 2718 2678 2656 2739 2708 2748 2696 2698 2787 2801 2762 2689 2730 2827 2736 2753 2749 2817 2706 2694 2784 2781 2832 2817 2692 2747 2843 2731 2813 2768 2776 2832 2896 2799 2717 2705 2694 2685 2742 2682 2687 2715 2800 2892 2811 2760 2857 2743 2923 2805 2814 2769 2886 2726 2776 2756 2831 2825 2863 2890 2802 2823 3009 2752 2798 2776 2751 2871 2820 2844 2842 2872 2747 2839 2835 2842 2847 2967 2898 2876 2834 2864 2864 2887 2871 2934 2905 2846 2929 2902 2919 2935 2834 2994 3016 3055 2924 3009 3065 3000 3133 3180 3114 3151 3084 3090 3156 3193 3099 3128 3115 3235 3302 3394 3326 3408 3505 3307 3359 3456 3353 3382 3420 3452 3424 3649 3467 3518 3550 3496 3559 3713 3565 3654 3576 3614 3571 3719 3518 3684 3660 3552 3658 3604 3609 3555 3645 3771 3681 3686 3651 3708 3437 3522 3602 3597 3658 3538 3674 3531 3406 3568 3437 3507 3515 3459 3407 3306 3395 3374 3418 3357 3359 3388 3353 3282 3379 3267 3302 3200 3154 3221 3257 3269 3109 3163 3131 3140 3061 3159 3093 3097 3202 3065 3086 3033 3164 3032 3117 3078 2995 3085 3053 3075 3041 3045 3018 3077 3063 3038 3062 2962 3134 3103 3069 3017 2967 3081 3017 3094 3085 3155 3065 3037 3047 3085 2960 2942 3019 3076 3096 3148 3021 2867 3008 3010 3006 2965 2916 2976 2946 3114 2818 3069 2841 2990 2923 2937 2878 2947 2763 2928 2864 2936 2808 2869 2864 2815 2829 2849 2869 2827 2735 2756 2682 2780 2752 2767 2802 2757 2779 2711 2709 2765 2728 2707 2710 2706 2767 2689 2680 2723 2734 2688 2736 2674 2718 2621 2658 2657 2668 2616 2662 2601 2596 2631 2584 2524 2620 2617 2664 2601 2597 2548 2628 2684 2694 2675 2601 2616 2517 2642 2598 2591 2602 2584 2586 2567 2592 2693 2531 2640 2523 2515 2547 2585 2599 2511 2515 2594 2550 2594 2515 2543 2530 2589 2610 2486 2549 2517 2640 2674 2672 2629 2622 2595 2622 2602 2602 2610 2652 2604 2719 2726 2584 2598 2632 2655 2644 2645 2620 2690 2637 2617 2649 2587 2624 2691 2593 2671 2684 2583 2718 2739 2577 2700 2622 2633 2622 2713 2579 2645 2697 2667 2557 2647 2522 2629 2535 2604 2545 2627 2667 2566 2609 2617 2515 2716 2602 2569 2535 2491 2397 2490 2439 2528 2444 2550 2487 2558 2493 2532 2484 2505 2461 2475 2430 2426 2455 2458 2500 2508 2520 2474 2509 2447 2464 2525 2501 2507 2519 2521 2347 2505 2477 2437 2439 2449 2396 2457 2473 2469 2445 2497 2482 2360 2426 2520 2422 2397 2369 2427 2436 2352 2467 2382 2358 2416 2450 2367 2367 2384 2351 2403 2350 2346 2466 2410 2434 2354 2387 2441 2372 2326 2348 2336 2416 2349 2396 2260 2308 2355 2339 2268 2436 2492 2424 2424 2316 2303 2313 2332 2390 2347 2297 2290 2328 2387 2321 2297 2349 2369 2343 2338 2398 2276 2368 2370 2307 2282 2295 2326 2369 2352 2271 2319 2343 2430 2277 2307 2285 2345 2348 2385 2354 2418 2379 2315 2324 2288 2372 2255 2301 2327 2398 2247 2379 2279 2402 2279 2297 2375 2214 2357 2256 2445 2293 2345 2345 2374 2236 2202 2290 2274 2426 2329 2351 2397 2300 2293 2340 2325 2360 2292 2274 2339 2314 2233 2264 2343 2323 2377 2353 2175 2251 2248 2255 2329 2257 2272 2356 2283 2342 2293 2277 2260 2361 2240 2358 2283 2251 2227 2277 2274 2287 2311 2297 2244 2309 2368 2180 2365 2342 2269 2353 2283 2249 2295 2302 2356 2204 2345 2315 2230 2230 2307 2182 2255 2249 2213 2238 2199 2295 2181 2228 2207 2297 2224 2305 2244 2240 2227 2300 2269 2276 2283 2144 2259 2266 2283 2255 2229 2143 2212 2184 2281 2188 2192 2206 2273 2290 2357 2114 2224 2176 2207 2157 2221 2238 2251 2194 2225 2154 2200 2221 2222 2168 2163 2148 2127 2243 2196 2233 2207 2199 2247 2171 2129 2284 2215 2294 2138 2238 2287 2173 2195 2205 2240 2182 2270 2135 2107 2174 2226 2204 2174 2145 2122 2188 2167 2118 2280 2166 2305 2160 2246 2223 2152 2224 2218 2136 2212 2136 2121 2223 2238 2248 2109 2141 2311 2144 2234 2115 2117 2268 2222 2131 2153 2169 2061 2170 2118 2200 2150 2160 2118 2278 2140 2102 2184 2170 2212 2129 2147 2136 2185 2162 2150 2191 2162 2119 2175 2157 2257 2160 2129 2176 2210 2199 2210 2166 2153 2133 2184 2201 2230 2172 2218 2157 2228 2170 2214 2158 2128 2230 2152 2223 2195 2195 2073 2203 2244 2159 2192 2287 2144 2168 2170 2164 2110 2086 2057 2124 2183 2143 2159 2143 2173 2095 2123 2139 2192 2058 2243 2085 2170 2108 2063 2194 2128 2068 2206 2129 2214 2167 2167 2187 2103 2100 2153 2139 2126 2031 2090 2161 2159 2157 2122 2146 2163 2108 2142 2144 2169 2064 2054 2165 2093 2083 2138 1999 2085 1995 2081 2071 2061 2056 2102 2048 2117 2038 2064 2003 2036 2123 1997 2075 2057 2044 1980 2010 2004 2006 2124 2098 2077 1985 1929 1989 1942 2000 2000 1938 2042 2019 2069 2038 2042 2008 1990 2034 1994 1997 1978 2020 2092 1957 1978 2030 1976 1892 1989 2009 1994 2032 1968 2010 1946 1912 1863 1917 1945 1926 1900 2013 1902 1952 1979 1927 1958 1991 2010 2000 1916 1928 2032 1954 1931 2086 1969 1902 2003 1975 1980 2019 1945 2057 1949 1917 1925 1959 1938 1921 1969 1906 1941 1940 1936 1939 1961 1941 1917 1968 1959 1941 1968 1933 1890 1881 1872 1957 1941 1919 1898 1930 1871 1901 1869 1873 1881 1951 1955 1823 1880 1838 1868 1868 1884 1805 1842 1821 1800 1746 1780 1794 1770 1701 1778 1748 1787 1765 1754 1762 1824 1758 1775 1780 1742 1766 1807 1774 1785 1646 1778 1757 1716 1733 1776 1714 1720 1711 1731 1705 1712 1736 1714 1656 1746 1690 1666 1702 1659 1697 1637 1710 1678 1693 1672 1674 1665 1634 1681 1709 1604 1710 1749 1667 1713 1673 1642 1667 1770 1630 1688 1684 1669 1753 1666 1702 1595 1589 1648 1636 1635 1661 1665 1631 1679 1681 1627 1721 1717 1686 1671 1647 1602 1606 1664 1711 1628 1655 1683 1623 1672 1620 1651 1716 1641 1631 1658 1612 1611 1601 1652 1758 1690 1641 1640 1576 1684 1689 1646 1567 1592 1681 1564 1672 1648 1692 1663 1649 1622 1758 1741 1713 1617 1648 1691 1617 1612 1650 1667 1668 1630 1636 1751 1669 1688 1614 1615 1561 1621 1594 1641 1587 1699 1623 1648 1702 1619 1626 1714 1623 1630 1665 1671 1541 1617 1610 1716 1597 1648 1599 1622 1582 1506 1593 1564 1692 1644 1658 1665 1575 1614 1574 1686 1666 1594 1640 1615 1656 1605 1654 1645 1642 1690 1650 1684 1688 1615 1634 1713 1600 1700 1696 1718 1678 1642 1726 1674 1690 1769 1731 1774 1718 1784 1748 1710 1782 1810 1794 1820 1866 1872 1879 1814 1868 1913 1799 1884 1869 1912 1918 1753 1838 1835 1871 1880 1886 1854 1856 1872 1843 1806 1761 1859 1805 1805 1839 1835 1756 1850 1866 1783 1925 1806 1817 1786 1822 1830 1730 1713 1804 1813 1746 1753 1666 1714 1777 1708 1744 1746 1620 1650 1708 1717 1693 1596 1667 1584 1598 1587 1536 1576 1589 1614 1542 1686 1555 1552 1598 1512 1503 1583 1583 1499 1457 1507 1563 1564 1483 1552 1575 1495 1520 1537 1509 1554 1574 1557 1497 1446 1470 1472 1519 1534 1564 1485 1503 1503 1526 1532 1451 1461 1463 1455 1384 1480 1445 1524 1478 1536 1443 1419 1464 1441 1456 1396 1405 1435 1468 1465 1496 1454 1441 1464 1511 1482 1398 1406 1415 1446 1424 1443 1441 1452 1433 1419 1482 1420 1495 1515 1394 1422 1366 1495 1455 1408 1405 1434 1434 1487 1460 1443 1411 1406 1367 1381 1399 1458 1416 1450 1353 1442 1451 1447 1460 1357 1409 1480 1356 1397 1329 1406 1341 1427 1362 1434 1340 1308 1402 1404 1361 1472 1462 1459 1390 1478 1483 1465 1431 1491 1483 1537 1482 1419 1468 1479 1432 1474 1531 1529 1541 1470 1481 1436 1508 1497 1492 1443 1527 1545 1535 1532 1478 1480 1568 1550 1478 1593 1571 1519 1542 1463 1508 1449 1576 1426 1429 1502 1428 1475 1462 1449 1366 1444 1379 1400 1399 1435 1396 1424 1313 1446 1402 1284 1368 1286 1335 1314 1345 1422 1355 1376 1313 1362 1358 1236 1366 1276 1326 1291 1315 1318 1258 1258 1286 1258 1260 1348 1260 1273 1295 1256 1350 1278 1259 1288 1281 1367 1333 1306 1336 1285 1290 1370 1408 1394 1425 1398 1442 1506 1513 1612 1658 1682 1757 1790 1850 1914 2000 2049 2190 2224 2143 2200 2261 2393 2419 2372 2361 2407 2350 2438 2368 2380 2316 2394 2274 2426 2422 2349 2403 2420 2414 2409 2417 2430 2321 2344 2465 2396 2528 2452 2452 2381 2413 2404 2423 2420 2421 2451 2466 2429 2396 2356 2214 2250 2111 2315 2064 2002 1951 2019 1967 1946 1832 1890 1813 1804 1849 1850 1861 1845 1795 1882 1747 1862 1814 1723 1708 1755 1685 1673 1678 1666 1635 1591 1663 1596 1579 1530 1491 1481 1447 1474 1550 1472 1393 1414 1382 1355 1304 1318 1312 1297 1299 1274 1181 1226 1203 1230 1250 1286 1234 1223 1153 1209 1148 1244 1219 1185 1174 1119 1186 1232 1115 1105 1166 1159 1088 1133 1158 1144 1143 1107 1117 1103 1162 1082 1220 1124 1145 1073 1081 1108 1112 1100 1113 1104 1060 1046 1040 1090 1094 1074 1124 1139 1173 1141 1193 1167 1190 1204 1253 1266 1291 1348 1368 1332 1405 1417 1412 1429 1497 1540 1613 1580 1588 1617 1601 1609 1669 1618 1590 1563 1587 1599 1652 1661 1600 1627 1577 1618 1582 1625 1593 1619 1554 1672 1668 1575 1620 1607 1502 1532 1520 1492 1499 1497 1434 1465 1432 1399 1355 1385 1341 1283 1336 1232 1219 1285 1280 1257 1209 1226 1166 1199 1234 1136 1198 1137 1227 1184 1196 1145 1165 1149 1146 1119 1057 1061 1135 1120 1058 1039 1108 1039 1083 1024 1032 1078 1047 1078 1063 1118 1038 1013 1059 1035 980 1022 1034 1091 946 1026 1031 1081 1042 1080 973 1091 1083 1030 1084 1029 1071 1008 1057 1049 1006 1078 1072 1104 1138 1065 1055 1097 1173 1180 1152 1167 1277 1230 1255 1245 1341 1353 1328 1361 1432 1398 1432 1506 1446 1530 1521 1497 1592 1669 1571 1586 1549 1640 1565 1630 1577 1576 1654 1646 1592 1565 1599 1670 1562 1628 1693 1676 1545 1644 1578 1580 1584 1607 1470 1474 1495 1538 1483 1452 1371 1323 1339 1314 1290 1235 1272 1291 1254 1244 1219 1194 1200 1147 1197 1150 1149 1109 1136 1078 1156 1108 1125 1029 1138 1065 1070 1035 1054 1064 1067 1074 1040 1059 1034 1048 1056 1074 1037 997 993 980 1030 979 1006 1018 955 1077 1028 1081 1039 1025 975 1049 1031 1011 1075 1048 1053 1124 999 1046 1012 1084 1036 1047 1036 996 1036 953 1014 1039 1017 1053 1084 1046 1035 1039 1053 1090 1033 1091 1017 1111 1050 1114 1093 1089 1209 1177 1166 1132 1204 1185 1178 1271 1236 1286 1363 1437 1478 1500 1554 1678 1696 1759 1759 1827 1960 2004 1987 2130 2165 2217 2295 2303 2268 2321 2405 2352 2257 2371 2298 2269 2261 2262 2327 2397 2210 2327 2263 2241 2218 2103 2245 2124 2134 2114 2110 2060 2019 2011 1979 1845 1925 1915 1952 1831 1935 1872 1912 1950 1859 1819 1830 1925 1851 1885 1881 1857 1854 1839 1838 1767 1781 1764 1654 1775 1649 1717 1704 1667 1553 1581 1571 1487 1516 1460 1422 1395 1345 1346 1369 1281 1318 1335 1291 1276 1251 1176 1159 1218 1152 1186 1138 1185 1128 1148 1110 1119 1084 1132 1119 1091 1102 1133 1056 1084 1099 1008 1013 1017 1117 1037 1071 1063 986 1014 1019 998 993 992 1034 973 939 1009 923 945 1004 997 949 944 964 944 908 877 934 912 884 828 873 931 954 918 903 884 885 887 878 911 883 904 898 899 834 865 890 842 942 884 924 795 854 876 883 891 827 913 868 877 927 846 854 848 882 911 856 916 890 900 898 934 893 917 898 909 901 809 938 924 874 897 881 857 888 891 917 901 927 876 920 882 897 878 857 844 881 831 900 873 938 865 869 882 932 878 864 854 838 885 933 824 854 881 900 860 787 866 847 858 873 849 869 854 864 838 807 833 791 828 795 876 901 853 901 870 882 862 906 868 789 820 818 806 852 840 733 843 770 764 787 822 843 868 795 802 793 822 749 776 843 791 780 779 807 806 771 796 821 783 815 790 844 797 830 828 769 818 797 804 729 843 801 732 807 796 730 841 781 795 771 730 818 784 811 811 830 827 755 766 792 757 813 812 755 789 746 796 830 781 833 799 861 783 793 749 750 734 790 763 789 788 791 800 791 762 769 739 788 799 793 736 766 776 802 757 737 805 816 783 692 767 733 793 744 722 774 765 750 797 747 771 766 782 760 752 790 761 708 794 733 800 783 720 718 736 710 757 724 761 723 710 688 760 751 712 764 694 799 774 746 746 724 743 760 761 763 778 749 765 736 794 768 771 751 777 728 755 768 694 715 759 773 738 742 735 776 732 667 675 735 718 738 772 707 786 695 738 732 710 755 750 730 756 790 700 769 688 694 648 747 717 735 736 711 722 751 739 721 731 731 684 760 671 651 735 669 692 714 729 709 758 721 722 744 676 714 714 728 737 698 738 716 744 706 686 703 751 665 718 768 725 728 690 744 742 694 783 727 703 674 672 738 790 716 692 675 720 688 697 707 714 749 733 717 721 692 726 656 732 697 649 725 714 717 760 765 748 720 745 742 755 715 757 698 713 752 747 704 742 724 763 773 727 801 756 781 731 778 695 728 741 709 722 712 697 782 715 789 771 780 733 747 764 804 737 753 764 737 738 755 777 717 797 726 776 781 730 775 798 749 774 719 761 757 705 733 779 746 666 776 714 763 734 715 750 748 768 693 764 719 773 795 748 778 763 779 739 846 759 880 807 862 862 854 871 833 909 861 956 991 981 956 910 978 921 1064 1072 1011 1043 1025 1001 992 1032 1048 1029 1061 1076 1013 1000 994 1031 946 984 1005 961 972 938 982 984 923 943 968 914 929 896 917 889 896 884 799 846 838 802 869 763 823 818 861 783 812 832 802 775 789 822 781 762 816 778 827 839 802 739 763 805 635 779 726 726 774 741 762 715 744 702 725 759 745 660 678 743 701 763 737 764 735 705 731 699 721 677 709 655 714 661 682 736 688 704 675 714 628 668 693 689 667 760 679 683 710 666 653 732 639 739 686 669 690 697 650 698 723 668 737 715 683 651 687 701 713 735 663 694 715 662 671 677 725 738 730 683 688 713 728 642 675 652 731 706 686 656 659 669 681 630 669 677 665 674 702 737 722 698 684 667 748 724 736 668 706 732 716 683 713 741 735 723 774 731 781 729 743 674 748 778 702 767 727 716 743 764 694 756 758 709 719 745 749 760 716 755 708 816 741 747 697 718 701 743 757 713 685 688 727 719 738 694 773 788 794 772 773 737 715 759 711 789 764 712 751 794 744 715 755 753 767 777 707 771 739 749 760 712 728 705 748 719 726 677 694 650 703 642 715 719 655 665 718 748 699 681 736 671 698 719 696 713 791 697 741 684 710 725 643 731 715 734 696 706 735 675 676 703 734 693 671 730 721 728 730 737 701 737 750 767 731 721 773 749 683 727 712 754 766 773 738 764 756 718 805 740 757 736 748 690 750 711 719 743 716 653 740 693 672 768 766 727 686 715 732 707 734 678 746 697 743 706 697 692 738 704 737 717 706 699 724 652 746 700 689 697 676 688 668 663 729 685 677 679 718 706 727 739 730 679 662 711 672 729 673 717 711 740 726 734 707 750 724 744 731 703 744 709 760 746 759 737 783 778 805 762 792 761 860 833 754 797 828 852 842 820 826 836 821 816 868 847 870 818 850 885 863 849 820 838 812 868 887 881 845 876 859 822 870 805 840 845 829 819 813 849 809 792 842 804 834 818 839 851 845 891 894 819 840 852 840 922 941 911 949 918 915 886 883 926 861 892 889 842 859 886 819 939 878 881 851 837 827 820 795 784 813 795 777 855 779 824 802 793 814 732 711 801 717 767 753 737 726 713 765 744 733 728 727 712 693 765 769 731 747 757 716 681 734 720 687 769 736 739 736 709 659 733 736 719 699 677 700 657 686 661 698 703 688 720 627 717 694 682 739 679 697 684 696 674 681 662 669 717 694 698 621 650 634 661 705 668 675 688 683 691 644 710 655 720 643 681 731 697 626 676 666 631 682 677 690 695 704 662 669 687 647 678 655 670 673 706 672 720 673 691 663 675 640 701 693 694 662 677 687 622 714 656 675 649 718 623 695 637 665 684 683 641 675 642 631 678 655 743 632 692 681 690 691 663 655 665 704 736 668 700 677 669 650 651 694 658 685 675 716 676 720 659 682 697 659 673 697 632 713 707 639 687 629 682 673 731 713 687 694 673 640 719 704 743 689 716 694 700 720 713 738 725 734 730 772 681 726 804 718 765 797 752 769 805 754 754 788 791 750 781 876 834 840 836 796 797 852 831 879 836 858 881 822 883 883 880 831 812 819 811 879 828 830 856 881 882 865 856 819 921 882 852 878 820 926 853 882 862 893 897 892 834 870 878 891 921 928 866 921 894 878 879 930 841 896 877 892 885 855 880 882 845 840 898 868 813 851 833 848 872 851 825 813 821 814 783 801 817 808 812 779 819 857 831 748 868 853 827 831 913 895 979 956 990 998 1055 1105 1166 1225 1235 1234 1311 1351 1374 1465 1369 1436 1410 1376 1459 1418 1481 1455 1499 1482 1460 1505 1544 1522 1562 1461 1466 1432 1450 1405 1429 1382 1417 1334 1383 1343 1326 1293 1306 1224 1304 1304 1244 1191 1174 1204 1191 1107 1105 1077 1119 1163 1140 1084 1037 971 1066 1104 1120 1103 1078 1012 1048 1124 1094 1078 1076 1076 1075 1068 1037 1062 1102 1023 1091 969 1034 959 966 972 977 990 937 937 902 947 945 956 949 974 918 1009 955 927 953 909 909 899 840 906 944 953 863 921 927 853 873 927 914 916 874 910 889 933 918 898 853 887 893 874 884 840 906 825 873 813 815 794 836 799 775 802 785 761 748 686 738 747 736 697 717 704 678 768 730 716 743 667 716 710 657 651 703 659 638 672 683 632 699 621 705 652 675 612 657 683 679 683 648 643 669 736 669 648 641 656 725 654 655 654 655 678 664 677 662 683 634 628 669 650 654 657 661 671 625 683 655 604 672 658 648 637 678 646 631 640 644 608 637 587 639 679 619 660 675 660 664 646 636 681 609 650 672 649 626 674 687 680 639 638 628 697 674 671 676 695 721 657 726 673 669 680 645 713 699 690 724 698 723 693 721 673 701 704 690 710 690 721 664 682 693 671 673 696 620 732 653 666 670 688 653 651 649 622 597 654 622 641 694 674 657 642 672 604 606 608 612 654 664 617 635 630 656 593 614 650 649 647 645 635 562 658 610 615 618 647 637 620 626 617 639 683 618 658 624 621 617 690 697 649 677 651 636 650 702 635 585 672 630 643 627 656 653 619 604 652 673 606 595 654 601 601 631 677 579 618 546 617 628 539 590 566 555 634 604 610 604 615 611 684 578 610 624 649 643 582 579 640 616 587 559 605 597 576 629 587 536 567 640 575 577 642 619 560 654 565 638 574 608 563 649 558 643 652 626 678 643 666 622 637 586 586 634 628 704 663 670 675 679 667 616 657 645 663 652 645 664 673 646 619 696 645 632 614 639 630 609 626 580 574 590 629 626 621 590 601 596 625 588 575 623 593 645 611 596 600 596 539 602 540 589 545 586 556 552 588 602 557 594 601 563 571 580 543 520 537 537 542 518 574 568 524 549 583 564 555 558 536 559 623 562 565 546 573 553 548 549 558 582 581 552 561 605 555 565 546 563 531 570 577 538 555 578 612 539 582 584 546 596 601 600 612 547 600 649 596 546 572 582 626 571 572 565 594 589 586 611 591 543 554 616 604 615 591 549 622 596 547 589 567 538 585 542 617 591 626 572 596 584 594 565 580 559 562 616 575 596 606 563 572 580 507 593 564 548 548 552 569 534 532 535 578 553 582 535 591 530 582 604 634 617 566 544 593 632 514 540 575 570 594 522 576 532 569 571 605 613 597 604 608 582 608 562 565 586 570 606 603 598 601 568 552 579 608 666 594 582 606 584 595 592 577 602 610 607 549 567 549 499 567 589 584 593 562 570 573 600 599 576 565 564 549 547 547 600 557 591 559 582 521 576 563 571 553 606 573 596 578 555 555 523 544 570 578 547 568 549 550 586 551 542 609 533 558 582 550 646 542 655 580 552 584 588 587 576 580 581 578 569 563 598 578 546 595 495 546 507 509 605 572 591 563 576 578 567 539 609 566 574 577 589 548 580 555 561 599 554 537 570 603 589 573 617 599 632 605 576 571 535 613 576 604 567 587 557 601 583 600 555 585 618 627 600 604 609 583 623 581 565 645 598 611 587 614 642 583 661 605 649 569 623 633 611 618 625 618 573 617 569 621 572 600 620 572 572 587 609 610 544 640 541 601 581 597 572 586 632 653 570 571 578 563 609 556 618 576 608 595 582 584 558 591 618 607 598 593 591 585 587 609 575 582 589 596 592 566 573 614 621 567 601 597 619 627 592 554 593 592 588 597 572 540 583 585 578 616 642 603 567 601 591 595 591 580 634 595 624 636 604 646 599 696 649 703 720 694 752 738 738 778 779 755 765 822 804 831 841 824 847 763 882 869 827 845 907 859 867 846 936 799 894 856 826 844 820 870 817 827 795 748 837 787 715 798 757 744 770 763 716 735 778 726 764 721 756 735 717 651 734 723 759 735 734 699 679 690 718 704 700 705 648 673 700 713 680 688 672 678 650 682 677 679 682 696 649 658 678 643 691 662 618 699 658 690 682 729 665 703 722 718 694 719 757 730 746 717 732 739 722 746 719 752 689 730 758 688 733 761 755 703 701 711 698 770 726 719 677 607 696 659 662 671 634 653 601 681 620 666 602 607 579 600 618 578 544 642 610 578 570 587 631 554 546 551 612 555 577 593 542 618 577 573 564 582 592 598 581 538 528 570 567 572 554 572 547 530 494 594 585 546 562 577 545 598 536 568 584 566 552 515 557 540 575 617 600 544 571 599 540 559 541 556 564 552 539 594 544 583 580 559 585 610 573 597 569 568 569 594 590 609 568 554 599 591 596 590 572 643 590 613 571 557 605 578 569 617 633 590 586 599 614 587 635 642 615 538 576 645 554 590 569 596 602 581 616 594 627 601 576 660 664 659 631 649 630 646 685 650 627 671 704 683 705 727 737 738 799 777 767 781 741 777 801 774 775 834 813 804 782 832 820 778 792 815 846 803 840 736 736 815 763 884 758 819 778 760 771 788 765 724 700 736 654 688 680 669 707 644 682 680 704 741 650 652 701 691 695 656 666 666 683 665 691 640 664 586 587 669 676 608 644 629 603 563 634 583 596 613 603 662 631 620 586 604 655 659 616 659 656 596 607 645 664 588 570 622 647 625 684 620 584 627 639 607 624 644 613 616 629 641 630 668 621 680 621 609 591 616 618 585 606 561 627 598 599 602 636 593 607 616 599 587 681 629 666 606 580 634 634 640 597 581 584 621 582 675 627 618 640 605 690 555 630 607 571 570 614 603 592 616 560 567 637 555 621 540 605 613 600 547 614 534 605 578 554 574 592 524 556 548 534 567 554 502 532 586 528 579 548 534 544 554 548 557 557 565 623 607 551 564 554 564 556 593 548 567 566 581 609 566 606 576 552 585 597 644 605 616 547 566 580 599 586 587 563 579 612 588 571 563 592 625 610 610 617 566 597 590 510 597 604 544 555 523 557 574 584 590 592 596 580 572 530 519 591 539 558 584 569 531 579 529 574 613 559 636 571 572 526 580 582 542 532 526 577 526 529 523 539 527 575 486 533 572 526 545 537 559 573 527 542 543 580 568 540 513 551 530 511 531 570 592 522 608 513 509 578 522 574 505 519 550 512 527 561 528 553 492 543 484 550 518 487 562 559 542 545 560 522 538 568 587 566 516 551 530 561 518 535 550 501 525 554 535 490 544 523 534 505 530 523 563 550 517 562 534 573 567 570 537 576 576 576 552 555 552 555 548 582 559 569 553 551 550 539 554 537 559 544 599 565 568 539 580 565 567 564 568 540 545 511 602 555 546 550 564 523 517 522 517 481 563 528 535 525 473 487 501 500 550 519 502 531 513 603 497 561 578 515 519 536 506 525 498 535 518 507 521 504 562 539 538 550 485 500 497 490 519 503 497 540 553 459 531 515 486 528 503 532 489 525 515 504 489 494 509 549 512 509 488 540 495 499 503 469 527 521 513 501 520 493 486 490 499 500 541 481 524 469 478 478 528 515 479 474 535 486 524 506 519 558 507 513 496 507 543 517 496 441 464 496 491 524 540 531 522 521 553 532 548 525 480 529 484 465 516 531 504 532 540 426 539 466 549 500 493 513 463 484 508 485 517 496 517 502 501 494 526 489 456 499 487 513 501 501 484 485 503 497 439 470 477 481 500 484 480 497 509 477 526 537 499 506 510 482 508 488 520 513 470 441 510 493 518 501 527 504 511 532 510 526 474 497 528 502 515 483 515 486 519 503 548 505 534 488 463 553 468 512 499 524 456 535 477 524 480 498 527 503 516 523 484 476 466 509 462 532 434 465 497 461 498 508 523 506 511 529 519 523 473 539 496 541 490 523 525 469 536 488 466 450 503 503 539 510 528 510 564 502 539 481 467 513 491 479 495 516 515 519 508 471 509 488 535 512 509 493 490 474 547 456 507 497 542 509 539 495 500 470 472 517 469 502 483 480 555 513 533 529 481 494 519 512 474 492 482 456 552 439 520 517 511 526 541 496 527 546 464 482 521 492 504 487 512 485 499 504 523 520 542 544 502 549 473 545 504 519 534 525 537 487 536 569 527 546 476 512 494 494 492 491 525 499 502 454 480 502 535 540 501 535 517 484 563 504 505 507 484 501 513 491 504 475 477 512 485 512 436 477 505 505 502 502 505 485 512 522 494 491 514 475 457 493 526 491 496 526 499 472 522 444 483 437 502 462 475 488 475 504 464 499 493 444 495 483 497 520 469 509 515 511 511 524 500 509 561 473 493 530 537 500 526 527 482 531 474 506 488 460 480 486 450 452 465 448 514 518 515 454 505 482 463 431 450 496 468 516 472 504 482 565 480 509 493 488 510 507 476 489 534 490 472 478 506 487 543 496 490 469 460 495 468 473 493 469 498 490 493 491 520 530 470 489 492 519 505 452 448 447 538 503 491 498 479 484 457 439 461 475 496 457 456 480 491 499 487 495 466 467 492 487 460 498 512 454 474 465 466 511 502 500 511 495 522 474 496 469 506 439 422 452 452 447 457 501 456 534 439 522 423 524 485 519 491 494 484 489 490 458 469 470 469 464 465 466 460 441 499 508 492 484 465 485 496 452 500 497 471 521 446 493 443 538 510 494 508 474 486 505 475 475 479 498 489 528 474 477 460 482 461 499 486 460 461 477 459 490 452 560 505 493 528 547 570 502 506 544 528 514 517 515 547 555 567 567 574 570 568 612 575 589 608 551 582 580 561 579 586 581 543 557 580 568 565 583 554 555 582 566 542 519 572 518 535 543 543 560 549 563 498 531 517 469 533 524 541 508 536 526 492 521 509 526 533 507 505 536 508 491 542 490 534 498 466 496 513 511 484 491 509 490 466 477 494 512 529 540 509 541 493 527 478 556 500 496 452 503 467 518 522 489 516 512 508 483 487 505 509 478 488 470 514 467 530 482 535 475 547 491 559 502 490 536 520 502 512 489 542 525 514 515 515 512 505 537 547 510 551 511 492 492 558 546 538 527 539 512 515 530 531 529 558 518 556 502 546 492 476 514 466 504 514 474 524 503 519 458 520 455 497 584 485 500 465 488 484 529 529 488 481 511 522 483 522 515 481 521 515 517 499 482 493 508 501 472 481 494 520 465 514 477 489 493 476 478 496 506 492 485 472 506 495 510 454 484 471 499 489 448 537 500 483 479 492 496 474 495 483 521 448 493 493 483 535 509 467 506 509 474 477 474 510 477 512 463 475 492 472 464 471 477 467 485 524 420 499 438 470 466 471 494 487 436 431 486 510 448 515 507 488 396 462 454 474 484 498 480 500 445 464 506 488 501 479 476 515 518 478 501 545 497 491 510 533 462 507 500 500 506 496 453 506 487 503 507 530 479 500 495 511 508 462 511 478 450 482 486 464 467 459 474 481 496 486 501 493 449 463 463 537 481 507 465 469 526 481 498 509 508 487 481 492 525 478 513 481 486 498 462 477 508 497 476 507 524 516 492 518 505 530 437 447 502 516 535 485 508 492 437 506 518 460 498 497 512 473 500 539 482 445 494 528 525 515 469 485 483 480 462 493 517 467 527 480 479 511 482 485 502 477 482 484 523 483 473 505 441 482 454 518 461 450 507 499 456 537 454 515 477 474 458 512 520 497 512 478 475 511 478 520 471 508 469 486 492 502 532 477 526 521 508 469 494 502 513 480 486 504 490 432 500 493 481 476 520 508 492 481 505 508 489 517 509 431 498 454 503 470 491 443 513 482 501 447 505 491 516 544 482 491 458 485 448 455 482 503 493 488 505 472 471 472 451 486 501 511 524 486 505 483 508 424 487 453 505 424 458 490 469 467 483 482 483 479 507 484 517 471 479 451 481 500 483 540 485 511 454 508 456 469 491 491 480 483 478 504 524 482 499 470 491 458 464 506 482 444 472 488 472 469 466 494 450 451 495 495 509 489 463 463 443 496 499 488 481 435 460 524 441 490 463 491 532 450 465 504 510 464 466 452 413 507 498 494 529 493 484 492 473 475 494 490 456 522 497 442 497 509 482 480 479 452 477 483 464 448 491 515 448 453 464 459 490 493 457 480 438 453 464 468 468 453 497 486 483 493 499 522 482 472 430 498 431 439 479 529 473 494 441 485 499 482 457 433 497 460 497 462 477 449 473 451 444 508 476 469 481 495 475 482 460 471 479 497 565 529 513 525 479 483 483 505 523 497 502 532 512 508 495 487 530 518 477 484 474 546 519 468 529 536 538 514 489 474 465 495 539 513 501 505 501 482 540 525 536 509 507 508 509 481 577 561 578 557 525 518 500 593 532 502 584 582 540 575 555 546 619 573 565 618 604 609 574 540 588 587 628 536 612 639 584 599 554 572 563 535 553 615 534 570 529 547 530 627 546 582 522 526 537 544 517 557 562 545 575 505 532 501 509 547 503 545 542 522 565 530 526 514 523 456 508 540 537 506 488 515 482 491 482 448 444 459 481 521 478 488 489 415 486 522 513 489 496 451 492 469 481 517 484 503 483 476 504 455 504 539 516 489 490 548 512 507 478 472 491 482 504 523 544 527 480 501 522 474 509 455 516 512 477 501 508 511 494 552 471 514 509 480 520 536 480 521 523 491 542 509 523 480 537 488 546 534 548 534 527 507 515 464 525 533 511 479 512 503 533 523 516 512 528 518 546 545 501 476 499 505 505 526 538 516 555 514 506 509 514 476 510 494 548 482 541 500 489 542 491 516 481 535 507 507 504 518 500 517 513 524 472 541 481 511 452 493 519 509 547 543 501 542 495 512 516 451 537 534 551 535 554 563 577 572 561 514 552 523 567 607 604 591 593 628 689 687 662 622 635 659 632 643 683 749 715 728 678 720 687 722 711 689 724 641 714 683 752 699 639 718 656 732 732 673 707 660 634 649 610 655 662 697 629 659 642 657 636 659 616 650 614 632 634 611 658 589 577 617 565 617 589 542 630 586 573 527 540 530 519 527 519 525 569 518 566 531 539 568 501 554 509 506 503 544 484 511 514 511 510 510 501 539 529 508 464 518 474 527 497 493 470 513 513 520 522 496 540 530 484 539 493 490 482 530 488 548 534 554 526 503 531 612 493 577 563 554 572 553 565 555 567 514 564 549 538 566 589 557 649 571 563 547 593 571 538 578 549 554 562 507 589 566 562 541 598 559 634 556 472 576 569 564 584 523 569 538 573 544 572 551 535 507 552 510 498 530 505 544 524 559 524 574 535 544 526 588 508 543 514 544 558 537 547 515 551 567 541 510 528 518 496 525 522 507 543 514 490 523 528 499 498 490 527 500 450 508 515 502 517 485 483 515 500 458 481 538 467 501 514 487 493 514 472 528 518 487 479 471 449 506 481 519 486 490 459 455 542 502 480 476 471 484 480 452 488 470 464 522 494 473 490 410 482 451 474 485 494 469 507 456 481 469 516 459 472 448 483 511 474 465 484 460 514 452 489 400 491 455 488 452 464 518 454 479 463 486 508 492 486 493 513 462 508 452 482 467 496 495 517 496 478 453 480 488 513 527 515 433 464 473 460 453 518 483 443 497 435 461 488 478 476 510 461 495 470 462 465 471 514 474 475 465 511 490 494 467 497 474 470 496 471 470 482 498 459 453 462 452 457 462 511 437 414 438 467 446 476 475 435 500 441 491 504 459 458 440 420 425 461 487 452 478 434 490 439 445 451 485 461 471 469 471 457 501 482 429 405 472 423 459 458 456 452 475 462 481 436 444 476 438 499 499 477 441 449 448 474 455 495 477 474 461 479 478 491 457 460 484 456 474 501 446 469 447 465 514 440 464 474 428 442 466 488 445 443 430 428 447 441 456 458 469 491 464 432 491 460 446 430 477 455 462 472 456 446 440 458 474 478 442 474 413 449 457 476 453 434 400 488 474 476 504 504 434 495 471 461 455 456 442 429 435 473 483 472 481 467 439 526 494 452 467 418 430 456 446 484 423 442 447 444 438 470 478 445 436 445 428 522 421 484 438 469 413 468 448 502 459 496 487 415 478 465 431 437 467 417 459 454 467 444 519 454 464 495 443 451 442 469 478 449 461 459 441 433 432 500 451 476 442 460 465 461 458 469 478 465 481 443 458 459 434 466 453 435 465 491 429 453 467 486 448 534 488 498 469 437 482 441 482 456 464 464 468 494 500 501 422 407 439 465 459 434 446 479 417 462 435 435 450 427 433 466 437 469 459 435 487 485 449 476 442 467 477 445 475 444 442 502 457 453 476 475 450 492 470 458 475 441 504 449 488 466 487 471 460 465 469 494 502 494 484 504 434 503 444 419 461 465 489 490 471 470 478 483 488 439 447 448 473 501 479 487 479 472 477 447 430 473 474 485 455 482 472 465 424 473 445 491 433 462 430 427 469 455 437 506 509 447 485 465 455 485 435 468 454 484 423 444 423 468 411 496 495 513 446 443 475 463 507 452 450 455 436 416 462 445 452 506 445 465 427 460 451 438 451 478 470 448 399 460 430 479 445 482 481 470 441 418 428 425 475 449 424 437 423 464 456 474 472 493 433 446 508 484 453 488 473 443 470 450 466 457 441 424 451 415 457 450 486 426 484 435 477 441 468 452 470 407 445 419 467 449 439 487 420 485 454 463 475 483 441 472 465 429 460 451 465 450 444 441 448 450 484 439 465 444 432 383 489 483 417 459 483 423 456 455 474 472 477 466 425 448 475 501 435 456 408 435 424 465 472 443 454 430 444 480 448 486 486 408 457 450 462 490 443 447 418 416 477 432 455 411 453 432 396 462 454 491 435 490 422 442 380 424 459 446 452 485 437 452 411 465 485 470 484 458 438 393 445 457 457 452 472 458 489 445 435 466 452 494 476 449 472 514 447 452 473 472 437 525 489 465 466 466 493 467 482 528 468 475 488 523 504 523 464 521 513 518 502 531 548 579 568 582 544 567 599 576 536 582 543 588 558 575 609 573 630 609 578 558 590 552 586 627 619 566 582 556 571 570 604 570 570 604 533 568 522 526 546 547 529 523 556 593 585 548 554 609 565 511 553 528 487 543 511 500 482 460 510 498 511 527 517 490 492 462 524 481 487 485 478 445 488 456 469 438 480 463 481 479 469 446 443 460 416 476 446 447 444 433 470 414 438 484 440 460 483 493 455 457 447 450 486 443 431 484 457 447 478 458 452 468 460 459 491 474 476 466 464 444 443 443 454 459 511 446 498 443 517 517 460 493 514 487 467 465 488 467 465 451 473 462 471 447 473 499 514 511 536 540 507 478 522 505 509 498 485 475 518 522 493 510 545 512 533 500 506 501 513 526 524 488 510 504 501 506 492 567 532 544 483 465 459 547 545 507 473 539 529 464 502 480 533 473 563 505 517 476 501 456 517 493 498 503 431 527 510 509 484 530 413 499 493 497 506 488 507 473 497 486 464 480 518 440 487 488 499 438 480 473 470 456 513 520 447 553 459 446 508 420 490 451 441 457 496 471 437 490 471 482 447 437 446 429 476 461 468 470 467 474 423 474 438 409 445 460 405 512 444 472 422 465 447 450 415 474 430 427 443 450 429 447 438 421 383 421 468 457 482 471 472 430 460 487 416 454 450 463 428 437 492 417 435 393 422 445 434 480 401 465 420 429 459 442 448 471 453 426 431 454 427 450 427 440 449 431 467 462 440 441 442 451 448 465 435 460 453 426 432 444 418 434 447 457 447 446 440 418 462 440 422 460 459 469 428 424 444 450 434 458 430 456 420 415 464 387 448 441 469 422 447 436 432 464 436 463 430 446 451 388 438 433 460 433 485 443 458 419 454 454 474 463 439 466 380 445 395 421 468 415 456 455 454 396 462 414 416 444 417 422 443 438 415 423 421 422 394 413 444 411 473 402 468 386 415 405 424 443 463 446 466 439 427 425 412 421 424 396 448 446 443 404 426 424 422 415 455 443 433 459 410 442 403 419 448 410 426 482 387 441 434 418 440 414 450 438 469 421 440 408 426 455 427 399 437 421 457 417 400 406 439 401 441 438 436 395 425 415 409 418 430 402 428 405 388 450 395 431 447 430 444 434 429 448 472 466 416 398 449 365 405 428 441 408 404 409 400 365 399 427 415 424 414 440 441 422 440 432 414 420 409 390 415 404 429 393 434 424 425 414 396 401 458 427 472 432 459 402 391 450 422 406 443 452 452 380 426 469 447 419 401 423 464 445 458 433 482 405 465 425 437 419 416 411 429 391 439 416 416 417 421 448 438 432 408 474 432 428 420 496 433 423 442 425 463 436 469 432 404 449 435 453 438 398 435 439 379 427 407 428 436 422 504 391 425 425 425 432 455 426 450 456 450 473 433 445 471 497 425 507 448 482 443 467 410 481 454 495 454 430 485 437 446 481 482 473 485 476 484 475 509 457 481 463 477 461 442 441 498 501 477 451 458 501 450 480 461 541 468 541 529</counts>
			</dataPoints>
		</scan>
	</xrdMeasurement>
</xrdMeasurements>
