<?xml version="1.0"?>
<xrdMeasurements xmlns="http://www.xrdml.com/XRDMeasurement/2.3" xmlns:xsi="http://www.w3.org/2001/XMLSchema-instance" xsi:schemaLocation="http://www.xrdml.com/XRDMeasurement/2.3 http://www.xrdml.com/XRDMeasurement/2.3/XRDMeasurement.xsd" status="Completed" recordIdentifier="{3F881579-B45E-4EE4-B39E-88ECEAF87BB9}">
	<comment>
		<entry/>
	</comment>
	<sample type="To be analyzed">
		<id>GPSS_Li2Mg0p5Mn0p5Cl4_100725_68e5a8e007cf888582f935cd</id>
		<name></name>
		<preparedBy></preparedBy>
	</sample>
	<xrdMeasurement measurementType="Scan" status="Completed" sampleMode="Reflection">
		<usedWavelength intended="K-Alpha 1">
			<kAlpha1 unit="Angstrom">1.5405980</kAlpha1>
			<kAlpha2 unit="Angstrom">1.5444260</kAlpha2>
			<kBeta unit="Angstrom">1.3922500</kBeta>
			<ratioKAlpha2KAlpha1>0.5000</ratioKAlpha2KAlpha1>
		</usedWavelength>
		<incidentBeamPath>
			<radius unit="mm">145.00</radius>
			<xRayTube id="1010048" name="Empyrean Cu LFF HR (9430 033 7310x)">
				<tension unit="kV">40.0</tension>
				<current unit="mA">15.0</current>
				<anodeMaterial>Cu</anodeMaterial>
				<focus type="Line">
					<length unit="mm">12.0</length>
					<width unit="mm">0.4</width>
					<takeOffAngle unit="deg">6.0</takeOffAngle>
				</focus>
			</xRayTube>
			<sollerSlit id="21010002" name="Soller slits 0.04 rad.">
				<opening unit="rad">0.0400</opening>
			</sollerSlit>
			<mask id="22031000" name="Fixed mask 13 mm">
				<width unit="mm">9.00</width>
			</mask>
			<divergenceSlit id="22120001" name="Divergence slit 1°" xsi:type="fixedDivergenceSlitType">
				<distanceToSample unit="mm">50.00</distanceToSample>
				<height unit="mm">1.52</height>
			</divergenceSlit>
		</incidentBeamPath>
		<sampleMovement xsi:type="spinningSampleMovementType">
			<spinnerRevolutionTime unit="seconds">1.0</spinnerRevolutionTime>
		</sampleMovement>
		<diffractedBeamPath>
			<radius unit="mm">145.00</radius>
			<antiScatterSlit id="22090040" name="AS slit 9 mm (PIXcel)" xsi:type="fixedAntiScatterSlitType">
				<height unit="mm">9.00</height>
			</antiScatterSlit>
			<sollerSlit id="21020003" name="Large Soller slits 0.04 rad.">
				<opening unit="rad">0.0400</opening>
			</sollerSlit>
			<filter id="20030001" name="Large beta-filter Nickel">
				<material>Ni</material>
				<thickness unit="mm">0.020</thickness>
			</filter>
			<detector id="7010019" name="PIXcel1D-Medipix3 detector" xsi:type="rtmsDetectorType">
				<phd unit="keV">
					<lowerLevel>4.02</lowerLevel>
					<upperLevel>11.27</upperLevel>
				</phd>
				<mode>Scanning</mode>
				<activeLength unit="deg">5.542</activeLength>
			</detector>
		</diffractedBeamPath>
		<scan appendNumber="0" mode="Continuous" scanAxis="Gonio" status="Completed">
			<header>
				<startTimeStamp>2025-10-09T14:39:53-07:00</startTimeStamp>
				<endTimeStamp>2025-10-09T14:48:01-07:00</endTimeStamp>
				<author>
					<name>AutomatedUser</name>
				</author>
				<source>
					<applicationSoftware version="1.7b (136)">PANalytical Aeris Instrument Suite</applicationSoftware>
					<instrumentControlSoftware version="3.2.00000000 20240306">AERIS</instrumentControlSoftware>
					<instrumentID>950485</instrumentID>
				</source>
			</header>
			<dataPoints>
				<positions axis="2Theta" unit="deg">
					<startPosition>10.00943322</startPosition>
					<endPosition>99.99442286</endPosition>
				</positions>
				<positions axis="Omega" unit="deg">
					<startPosition>5.00471661</startPosition>
					<endPosition>49.99721143</endPosition>
				</positions>
				<commonCountingTime unit="seconds">12.495</commonCountingTime>
				<counts unit="counts">2581 2729 2665 2642 2637 2723 2479 2617 2610 2575 2648 2669 2723 2632 2698 2635 2648 2612 2712 2691 2719 2620 2640 2682 2646 2706 2682 2721 2632 2696 2722 2588 2628 2660 2709 2618 2670 2555 2736 2739 2672 2647 2643 2647 2655 2632 2752 2623 2624 2582 2635 2565 2697 2564 2707 2618 2716 2604 2656 2587 2606 2618 2696 2706 2628 2691 2611 2576 2586 2604 2583 2708 2608 2702 2658 2670 2649 2668 2641 2619 2703 2631 2805 2701 2680 2674 2604 2691 2652 2746 2645 2750 2578 2711 2632 2721 2685 2651 2709 2696 2614 2679 2611 2589 2635 2596 2638 2716 2629 2705 2670 2718 2695 2655 2720 2674 2730 2675 2759 2655 2654 2683 2630 2592 2689 2658 2671 2661 2656 2724 2569 2778 2645 2662 2703 2633 2682 2629 2718 2673 2611 2718 2695 2605 2696 2740 2748 2651 2624 2621 2701 2641 2746 2707 2682 2590 2685 2620 2643 2722 2740 2805 2684 2729 2611 2660 2688 2670 2655 2717 2784 2779 2645 2663 2654 2643 2617 2714 2736 2699 2657 2633 2563 2780 2600 2701 2608 2748 2674 2740 2622 2689 2673 2613 2614 2651 2767 2676 2666 2680 2580 2650 2743 2618 2698 2634 2715 2645 2716 2669 2624 2703 2573 2753 2663 2621 2691 2623 2593 2581 2621 2642 2698 2597 2580 2580 2611 2617 2662 2605 2567 2595 2669 2631 2638 2630 2712 2623 2665 2647 2755 2630 2694 2679 2720 2523 2666 2624 2681 2564 2704 2685 2692 2756 2559 2537 2687 2732 2570 2719 2585 2656 2632 2632 2610 2684 2683 2654 2636 2676 2685 2641 2694 2800 2618 2760 2667 2639 2599 2694 2572 2684 2656 2664 2632 2771 2626 2631 2664 2726 2691 2650 2645 2652 2634 2742 2691 2718 2717 2721 2730 2697 2621 2739 2708 2603 2735 2773 2678 2692 2722 2814 2619 2702 2709 2717 2654 2717 2703 2675 2720 2744 2744 2663 2735 2782 2689 2766 2723 2827 2692 2731 2761 2830 2814 2725 2880 2745 2798 2873 2787 2762 2832 2811 2861 2886 2801 2783 2812 2775 2826 2887 2780 2902 2939 2742 2899 2858 2922 2835 2938 2830 2903 2863 2925 2874 2999 3000 2947 2923 2925 2937 2962 2962 2966 2901 3107 2986 3022 2958 3030 2908 3082 3044 3032 3080 2939 2986 3042 3075 2968 3158 3112 3130 3167 3027 3067 3152 3142 3181 3151 3228 3190 3167 3143 3260 3183 3219 3093 3233 3209 3178 3189 3215 3420 3430 3281 3306 3470 3542 3576 3657 3621 3620 3615 3776 3756 3873 3824 3885 4037 4047 4075 4060 4045 3972 4101 4056 4144 4111 4105 4027 3973 3993 4048 4180 4175 4167 4118 4267 4110 4185 3990 4140 4091 4045 4171 4031 4151 4103 4096 4048 4041 4073 4064 3944 4158 3974 3974 3939 3953 3979 3899 3983 4076 3852 3875 3874 3871 3799 3818 3857 3917 3740 3813 3855 3761 3569 3613 3618 3614 3573 3539 3480 3547 3557 3532 3501 3483 3529 3331 3472 3348 3376 3351 3411 3329 3376 3364 3437 3338 3412 3304 3218 3351 3313 3292 3286 3207 3333 3359 3233 3212 3241 3140 3102 3134 3172 3084 3166 3062 3126 3159 3154 3042 3074 3023 3024 3060 2995 3077 3047 3039 3093 3104 2947 3108 2976 3027 3051 3026 2903 2988 3029 3077 2989 2956 2938 2932 2982 3016 3014 2882 2987 3050 2905 2980 2980 2936 2961 2928 2905 2928 2851 2903 2882 2919 2781 2955 2920 2918 2828 2908 2918 2890 2853 2890 2841 2869 2905 2897 2842 2827 2905 2936 2821 2925 2863 2969 2748 2936 2895 2910 2884 2851 2875 2859 2900 2938 2915 2811 2929 2835 2834 2843 2777 2802 2763 2758 2774 2872 2793 2849 2808 2823 2907 2743 2795 2772 2815 2844 2748 2710 2729 2780 2778 2670 2784 2884 2577 2765 2690 2707 2724 2759 2793 2738 2752 2821 2784 2776 2760 2734 2789 2695 2705 2729 2754 2868 2812 2721 2724 2818 2723 2826 2761 2783 2776 2765 2791 2731 2692 2694 2738 2767 2786 2697 2732 2794 2671 2584 2722 2722 2686 2780 2709 2742 2562 2699 2687 2754 2711 2753 2678 2713 2584 2635 2718 2712 2646 2657 2702 2738 2656 2666 2602 2708 2699 2634 2747 2720 2716 2626 2623 2687 2588 2581 2675 2720 2672 2666 2734 2676 2565 2764 2652 2675 2720 2711 2638 2683 2717 2649 2592 2630 2590 2542 2606 2720 2645 2652 2653 2601 2651 2605 2707 2609 2583 2630 2677 2701 2657 2641 2638 2644 2608 2621 2596 2755 2647 2727 2616 2608 2572 2667 2708 2699 2687 2628 2780 2670 2574 2544 2643 2562 2624 2582 2617 2595 2672 2700 2685 2629 2555 2624 2608 2568 2581 2536 2626 2490 2500 2619 2536 2657 2600 2572 2626 2633 2630 2625 2679 2587 2649 2644 2582 2648 2568 2563 2564 2532 2543 2633 2629 2692 2561 2661 2540 2560 2604 2681 2582 2610 2608 2610 2536 2673 2482 2628 2567 2598 2496 2526 2555 2584 2561 2581 2544 2506 2528 2634 2549 2466 2515 2540 2494 2463 2635 2555 2528 2487 2535 2544 2512 2492 2548 2500 2517 2584 2521 2530 2720 2603 2524 2487 2537 2560 2506 2560 2503 2503 2476 2429 2487 2476 2452 2577 2479 2535 2467 2507 2560 2476 2465 2535 2430 2496 2558 2535 2500 2512 2504 2520 2539 2429 2465 2461 2486 2485 2523 2420 2387 2502 2528 2526 2459 2466 2400 2460 2452 2572 2388 2484 2484 2483 2492 2445 2491 2427 2503 2403 2638 2459 2440 2385 2414 2462 2459 2478 2501 2396 2528 2445 2522 2386 2441 2411 2444 2396 2425 2427 2353 2463 2421 2340 2505 2380 2430 2372 2438 2459 2372 2472 2363 2380 2288 2362 2336 2430 2404 2423 2315 2430 2350 2394 2394 2419 2449 2442 2367 2399 2465 2401 2466 2410 2313 2340 2401 2357 2426 2332 2358 2411 2458 2306 2337 2427 2374 2354 2350 2355 2362 2506 2289 2384 2393 2382 2406 2349 2349 2290 2431 2354 2248 2370 2355 2314 2355 2329 2398 2349 2358 2423 2377 2433 2360 2415 2319 2358 2403 2385 2365 2475 2403 2434 2400 2351 2441 2373 2415 2448 2400 2417 2425 2263 2428 2317 2262 2368 2473 2446 2386 2367 2408 2399 2397 2381 2325 2449 2374 2384 2385 2426 2334 2338 2375 2440 2385 2436 2411 2362 2435 2346 2311 2448 2434 2426 2433 2347 2318 2352 2300 2331 2382 2376 2346 2355 2333 2281 2308 2285 2378 2322 2316 2460 2364 2278 2362 2303 2378 2350 2372 2360 2396 2382 2329 2419 2436 2325 2362 2408 2318 2307 2374 2407 2381 2326 2350 2315 2323 2477 2366 2324 2411 2332 2292 2387 2287 2288 2330 2256 2293 2321 2359 2426 2309 2376 2294 2371 2323 2328 2313 2414 2328 2377 2279 2385 2290 2361 2386 2311 2305 2265 2287 2228 2318 2330 2239 2276 2252 2258 2318 2216 2365 2200 2272 2307 2372 2301 2272 2293 2300 2294 2238 2285 2201 2299 2299 2306 2285 2200 2340 2247 2251 2328 2172 2239 2262 2258 2233 2146 2155 2226 2232 2181 2265 2263 2167 2240 2274 2181 2257 2182 2244 2191 2161 2122 2214 2131 2165 2184 2185 2178 2081 2132 2119 2165 2187 2102 2084 2166 2147 2065 2083 2102 2073 2085 2070 2071 1970 2056 2181 2157 2173 2119 2037 2027 1965 2048 2057 2067 2017 2037 1928 2107 2016 2016 1979 2106 2017 2042 1966 1999 2025 1999 2041 1983 1959 1939 2045 2008 1997 1948 2021 2052 1955 1950 1975 1867 2029 1921 1933 1945 1949 1901 1870 1980 1919 1917 1917 1898 1917 1896 2009 1886 1901 1884 1939 1928 1790 1875 1927 1874 1963 1869 1986 1865 1929 1836 1905 1876 1833 1882 1878 1908 1924 1862 1886 1884 1922 1917 1881 1861 1927 1861 1812 1871 1877 1862 1848 1838 1972 1773 1844 1770 1879 1801 1816 1808 1881 1865 1796 1875 1745 1830 1855 1839 1801 1822 1836 1893 1791 1807 1722 1767 1763 1837 1836 1765 1859 1848 1775 1857 1845 1809 1823 1689 1816 1791 1822 1790 1785 1760 1814 1800 1783 1778 1834 1759 1803 1751 1708 1768 1736 1767 1722 1797 1733 1772 1727 1736 1722 1727 1767 1757 1786 1746 1832 1812 1764 1705 1726 1743 1767 1736 1711 1687 1765 1733 1830 1785 1738 1693 1715 1731 1734 1764 1746 1713 1783 1726 1811 1728 1758 1728 1672 1779 1804 1702 1721 1704 1696 1720 1735 1713 1724 1668 1763 1780 1770 1743 1773 1703 1726 1754 1651 1795 1795 1699 1769 1767 1812 1836 1783 1788 1784 1773 1761 1783 1735 1842 1826 1757 1759 1718 1808 1689 1810 1739 1720 1835 1784 1890 1706 1775 1839 1790 1778 1710 1759 1800 1754 1829 1800 1797 1805 1798 1778 1733 1792 1835 1741 1764 1713 1758 1739 1816 1759 1702 1764 1801 1797 1750 1730 1853 1703 1853 1762 1760 1770 1797 1752 1768 1883 1798 1809 1807 1816 1797 1791 1762 1697 1739 1768 1772 1758 1772 1762 1920 1812 1790 1768 1756 1809 1806 1719 1847 1715 1764 1743 1840 1853 1844 1819 1733 1783 1791 1712 1743 1742 1773 1768 1737 1700 1752 1746 1835 1751 1801 1743 1739 1767 1690 1732 1744 1742 1768 1718 1754 1663 1763 1816 1727 1741 1760 1755 1723 1741 1626 1701 1599 1734 1645 1637 1706 1730 1704 1677 1633 1654 1691 1798 1703 1723 1649 1661 1695 1597 1644 1630 1675 1631 1697 1609 1629 1689 1688 1624 1601 1646 1580 1650 1639 1646 1667 1656 1673 1712 1627 1586 1727 1586 1652 1670 1634 1601 1633 1591 1552 1652 1644 1646 1607 1635 1620 1561 1623 1557 1561 1603 1642 1573 1611 1600 1569 1610 1608 1559 1563 1506 1576 1545 1528 1568 1539 1530 1478 1585 1525 1532 1570 1498 1585 1606 1566 1494 1542 1515 1518 1597 1509 1666 1601 1535 1535 1539 1518 1538 1582 1543 1629 1496 1525 1554 1602 1550 1605 1726 1645 1734 1814 1771 1836 1853 1752 1847 1946 2039 1984 2118 2098 2106 2163 2080 2119 2210 2185 2249 2226 2160 2176 2233 2142 2103 2136 2175 2234 2075 2145 2053 2015 2019 2021 2057 2009 1971 1877 1912 1849 1932 1817 1844 1783 1673 1693 1773 1650 1753 1704 1628 1633 1662 1580 1620 1597 1567 1621 1480 1585 1595 1551 1513 1549 1487 1576 1437 1477 1367 1509 1472 1463 1501 1538 1442 1420 1484 1465 1494 1492 1409 1425 1424 1479 1465 1384 1531 1421 1345 1441 1453 1405 1402 1441 1511 1419 1485 1384 1559 1431 1469 1424 1474 1525 1521 1535 1544 1576 1574 1612 1670 1674 1757 1838 1780 1882 1959 2095 2195 2291 2450 2533 2800 2896 3213 3260 3617 3764 4045 4300 4445 4579 4850 4748 5074 5161 5175 5242 5374 5201 5299 5068 5111 5407 5178 5252 5064 5176 5012 5036 4903 4760 4838 4774 4637 4441 4477 4330 4295 4212 3996 3879 3738 3751 3550 3453 3263 3198 3083 2991 2891 2893 2769 2721 2770 2654 2691 2630 2550 2698 2620 2641 2624 2627 2613 2586 2562 2581 2442 2555 2510 2438 2370 2357 2205 2225 2185 2239 2129 2061 2089 2015 1962 1940 1891 1787 1837 1795 1702 1733 1707 1624 1598 1556 1543 1542 1542 1437 1479 1442 1503 1489 1427 1410 1434 1393 1338 1390 1375 1361 1350 1353 1325 1343 1352 1302 1295 1342 1312 1347 1356 1239 1314 1321 1299 1314 1217 1261 1274 1242 1249 1232 1200 1229 1227 1207 1158 1169 1258 1245 1223 1165 1251 1265 1227 1216 1221 1183 1211 1168 1147 1160 1232 1169 1225 1197 1148 1192 1191 1158 1168 1169 1199 1191 1126 1089 1227 1111 1195 1135 1145 1195 1188 1202 1177 1157 1097 1184 1137 1160 1187 1102 1137 1222 1151 1110 1170 1160 1119 1189 1149 1152 1099 1173 1205 1131 1075 1203 1108 1186 1122 1179 1141 1145 1141 1091 1125 1228 1077 1143 1140 1142 1139 1124 1182 1163 1169 1115 1133 1086 1162 1068 1137 1113 1135 1139 1153 1095 1091 1066 1043 1152 1152 1035 1096 1133 1116 1139 1131 1136 1111 1092 1144 1080 1131 1103 1170 1099 1130 1050 1117 1114 1147 1111 1092 1089 1137 1098 1125 1116 1093 1074 1081 1090 1131 1059 1114 1147 1075 1044 1083 1099 1136 1107 1132 1119 1098 1133 1058 1140 1064 1084 1175 1085 1123 1033 1138 1113 1111 1060 1092 1076 1032 1087 1110 1085 1149 1163 1070 1080 1134 1163 1113 1037 1026 1059 1072 1166 1086 1078 1088 1132 1096 1122 1093 1055 1082 1103 1044 1112 1050 1141 1041 1092 1068 1032 1114 1072 1085 1028 1082 1110 1059 1122 1138 1026 1123 1052 1015 1092 1151 1033 1089 1109 1122 1119 1134 1100 1150 1102 1055 1110 1082 1128 1117 1158 1114 1158 1158 1149 1053 1172 1094 1157 1101 1108 1099 1056 1095 1168 1160 1078 1080 1060 1101 1139 1210 1143 1115 1163 1168 1162 1135 1123 1121 1107 1172 1185 1096 1111 1188 1162 1158 1149 1152 1125 1086 1194 1089 1174 1174 1248 1196 1199 1229 1181 1237 1245 1273 1296 1274 1271 1257 1292 1336 1400 1383 1393 1371 1472 1501 1564 1635 1612 1823 1797 1935 2090 2206 2333 2424 2677 2902 3151 3521 3724 4073 4452 4793 5031 5349 5655 6097 6601 6915 7140 7353 7475 7398 7491 7453 7513 7717 7766 7603 7452 7308 7366 7054 6987 6806 6847 6643 6510 6355 6312 6063 5822 5805 5676 5556 5313 5096 4848 4822 4587 4452 4331 4003 3709 3668 3455 3380 3236 3150 3012 2878 2868 2904 2711 2647 2757 2583 2576 2607 2437 2501 2623 2536 2484 2355 2354 2317 2349 2391 2304 2242 2318 2151 2236 2173 2127 2028 2000 1987 1935 1930 1842 1771 1750 1812 1719 1745 1665 1561 1614 1445 1515 1553 1491 1441 1415 1383 1316 1387 1303 1290 1253 1252 1240 1246 1182 1178 1180 1154 1187 1159 1132 1076 1146 1116 1154 1086 1103 1094 1091 1056 1079 1053 1054 1097 1066 1097 1118 1103 1047 1066 1022 1061 1071 1032 1025 1012 1031 1006 1046 1035 1016 1018 1053 986 1057 1002 1004 1055 988 1027 986 1005 1076 1041 1007 996 917 1020 1018 986 1067 1043 1034 1010 987 990 1083 952 1102 994 966 1002 969 1056 972 939 972 1033 1025 956 1033 990 1010 1028 985 1057 1023 1009 966 998 1050 1026 947 997 1004 1018 956 937 971 993 949 961 1021 1038 989 994 967 929 1044 999 1020 1001 930 1030 972 1005 963 949 1030 1017 1003 982 950 973 993 961 962 1038 905 968 990 993 933 966 910 976 1005 1005 961 981 1034 930 1022 957 1001 921 993 997 969 1013 1084 977 1047 1018 968 977 915 953 1017 959 987 1026 962 1034 998 959 991 961 927 979 933 1036 977 965 989 985 965 923 988 968 960 949 1016 939 983 900 948 950 983 981 992 947 941 944 961 1008 999 978 996 989 962 938 999 1011 970 975 1009 964 1001 939 953 975 995 1004 921 1054 954 952 964 987 1006 930 940 971 929 1013 974 955 970 1012 970 917 890 955 926 952 973 962 916 964 948 994 965 964 990 945 929 983 959 983 967 965 950 951 969 923 886 1007 963 963 936 935 975 1016 942 984 915 939 948 968 946 991 962 986 904 884 872 938 888 963 880 953 931 898 922 908 880 910 918 905 889 912 975 886 945 950 873 873 927 874 975 864 906 866 906 870 931 947 987 910 873 874 868 895 952 859 906 890 892 907 931 927 892 944 873 921 918 873 901 885 936 899 852 919 896 915 920 874 863 864 923 874 904 865 890 897 958 841 893 912 890 910 895 894 921 883 916 850 881 907 907 897 840 892 888 852 897 895 844 853 868 915 940 883 853 934 853 943 882 858 898 923 800 880 888 928 911 860 868 892 870 874 832 885 918 893 901 852 873 872 871 920 820 868 873 870 913 862 830 911 886 852 852 873 877 879 875 886 868 812 852 906 898 892 957 824 892 866 833 822 887 905 889 887 888 889 853 870 850 847 897 801 854 896 878 825 916 860 878 849 882 856 914 901 845 869 920 905 816 911 938 889 830 818 859 881 822 836 813 823 903 876 902 861 905 859 877 858 875 864 887 897 896 929 846 881 860 893 858 851 863 895 829 905 860 843 854 869 858 892 894 841 913 832 906 884 833 824 856 923 815 871 856 901 869 837 867 895 892 902 800 860 886 852 844 867 891 858 915 802 891 808 863 877 812 891 871 900 834 876 840 814 904 885 892 890 856 817 873 916 852 825 833 849 858 850 880 859 867 848 858 829 890 933 866 848 826 879 829 864 830 865 844 844 861 793 856 835 905 832 870 886 912 816 850 895 814 868 860 879 819 834 838 877 810 900 876 929 823 882 877 856 834 828 866 911 833 822 806 867 798 859 845 806 849 866 833 850 849 839 835 819 852 841 823 804 819 860 877 860 879 858 822 856 860 838 867 830 880 825 789 828 873 854 833 947 866 851 787 824 817 827 769 909 865 898 853 902 823 873 763 876 834 902 793 897 902 891 889 843 877 848 858 858 851 873 853 780 892 863 794 810 814 844 787 889 868 863 860 868 821 812 840 859 850 885 846 853 840 870 853 886 816 845 881 881 890 859 850 914 832 862 872 827 859 907 839 865 863 873 896 816 905 882 836 879 867 837 871 865 832 870 837 861 825 837 853 800 817 835 829 854 859 871 904 855 885 861 893 903 890 855 845 867 829 868 901 793 842 813 793 833 839 739 815 852 814 857 783 858 839 850 859 889 772 766 899 886 847 872 880 859 827 863 845 855 845 817 848 801 818 816 823 865 865 823 864 851 866 827 812 832 849 846 903 879 808 799 822 824 791 824 881 824 779 871 781 796 838 849 861 895 814 860 848 821 802 957 880 810 859 851 825 795 823 844 798 794 797 826 817 918 828 858 839 787 844 874 870 833 833 883 862 843 858 831 850 847 841 827 854 785 845 828 841 780 854 840 854 828 887 920 877 914 823 885 905 923 959 933 964 1031 1000 1042 1113 1092 1139 1177 1252 1273 1327 1324 1337 1369 1420 1486 1484 1535 1546 1537 1569 1614 1590 1571 1583 1569 1506 1578 1524 1575 1468 1461 1492 1422 1464 1410 1388 1396 1294 1334 1305 1288 1223 1226 1124 1100 1111 1082 1090 1092 1036 982 1065 1030 1034 1031 907 951 929 938 890 896 928 905 900 939 906 905 829 869 851 872 798 820 882 810 861 861 872 854 884 812 810 860 828 899 824 855 862 795 804 847 822 897 856 864 907 896 871 884 840 880 856 843 856 817 885 865 852 844 892 886 827 885 861 887 900 889 849 832 879 831 835 835 820 829 789 823 831 816 852 844 847 794 796 836 813 876 793 813 844 815 862 811 845 844 840 859 831 795 821 801 806 830 780 799 783 807 772 767 800 811 853 836 819 848 801 747 830 807 793 806 812 829 812 797 756 830 783 804 815 744 805 790 785 836 820 797 820 778 790 837 781 800 818 803 753 813 784 839 807 770 814 831 802 866 844 803 872 804 764 782 751 803 823 789 759 839 807 805 767 809 812 835 800 858 736 773 803 781 758 830 807 813 799 796 784 773 759 797 819 835 831 829 770 850 770 815 754 829 885 869 843 809 782 855 837 796 791 784 832 829 845 857 744 840 807 811 792 795 831 857 819 784 843 770 810 821 783 713 860 845 814 831 819 799 842 822 789 771 825 836 867 818 798 832 800 877 785 775 867 835 816 796 832 828 837 835 871 786 878 833 820 819 782 802 830 876 813 882 821 817 860 898 805 849 801 802 778 793 827 820 899 786 885 876 816 812 805 835 823 770 861 818 857 823 837 803 840 877 860 847 866 844 822 877 860 871 851 926 950 913 900 933 929 909 899 937 962 916 930 954 972 987 965 965 998 1106 1045 1145 1074 1165 1193 1231 1264 1338 1432 1535 1640 1798 1853 1989 1998 2131 2255 2422 2601 2707 3055 3250 3442 3766 4024 4066 4452 4407 4688 4693 4834 4894 4994 5035 4986 4978 5134 5009 5271 5079 5153 5144 5040 5017 4691 4639 4329 4392 4113 3885 3852 3702 3568 3493 3346 3269 3042 2966 2766 2614 2512 2418 2304 2192 2121 2022 2039 1905 1735 1721 1647 1649 1602 1525 1416 1404 1334 1368 1277 1262 1241 1238 1220 1241 1163 1145 1086 1133 1134 1038 1158 1090 1127 1123 1130 1128 1140 1168 1123 1115 1131 1119 1095 1122 1153 1172 1166 1140 1252 1136 1172 1245 1216 1220 1255 1220 1283 1240 1211 1231 1223 1281 1212 1266 1212 1226 1165 1250 1180 1173 1242 1127 1143 1133 1129 1084 1120 1132 1091 1076 1007 1043 1043 1059 1056 1006 996 964 921 986 999 904 941 892 925 918 876 893 856 844 876 910 853 889 867 885 847 874 841 831 813 823 838 824 887 823 821 834 834 860 751 820 768 754 823 781 871 756 835 780 798 792 853 791 820 838 808 800 758 760 800 795 813 779 820 832 766 772 795 777 809 830 773 801 784 781 801 810 789 836 759 802 816 838 810 768 786 798 784 822 864 829 813 811 857 889 880 891 920 911 945 980 992 975 999 1091 1003 1077 1015 1106 1088 1091 1092 1104 1139 1130 1061 1114 1090 1172 1142 1141 1146 1075 1083 1089 1078 1136 1040 1033 1045 1043 1024 993 1020 998 980 1027 946 970 913 955 885 897 943 934 906 896 941 873 856 893 861 831 815 788 771 815 808 853 748 782 836 791 842 818 829 805 773 803 725 850 768 785 776 774 792 783 790 752 726 761 751 793 770 769 775 741 781 779 773 729 765 798 807 780 706 776 766 763 772 744 720 775 768 719 737 731 718 773 763 771 729 695 731 667 744 715 790 745 769 792 734 731 702 790 747 680 717 685 761 745 739 738 770 726 730 685 694 731 708 745 728 756 749 708 723 738 685 730 792 726 713 760 733 689 765 779 751 728 755 715 777 739 717 716 764 747 701 731 699 709 737 745 734 724 704 742 748 749 736 719 705 723 662 730 758 731 759 733 715 733 713 726 714 736 718 717 726 714 718 751 713 731 755 747 693 692 760 688 722 710 689 692 739 734 718 786 725 743 739 752 725 740 722 731 751 726 736 698 709 735 716 725 708 724 725 736 712 744 752 759 752 758 718 704 713 726 733 708 723 691 735 721 734 690 747 740 713 692 787 715 757 697 698 724 753 750 717 718 777 703 748 703 744 714 696 696 708 709 712 753 759 702 673 686 723 711 689 701 743 709 722 720 720 730 645 740 682 733 681 730 712 696 731 707 698 719 693 711 745 750 731 673 714 740 709 727 739 700 706 738 741 691 734 728 725 684 695 716 733 712 713 728 704 704 700 696 715 702 680 691 690 733 731 751 668 666 711 682 698 711 740 657 692 699 724 692 723 738 725 772 687 684 752 699 732 731 651 724 668 678 725 702 675 690 717 671 718 713 671 730 650 688 688 691 733 709 736 656 684 653 700 708 708 731 704 718 716 744 695 702 714 705 683 669 706 668 684 749 711 738 718 709 698 692 719 731 676 706 696 711 705 639 662 728 676 716 696 726 670 719 731 713 662 733 690 716 658 657 692 710 681 684 680 709 685 688 718 663 642 729 658 673 690 728 721 715 707 696 713 704 691 631 651 704 709 712 680 717 702 698 713 736 677 678 687 696 715 739 696 674 741 691 681 689 693 702 721 697 697 677 700 678 647 697 680 686 721 709 677 716 702 695 667 693 675 709 678 676 668 654 677 692 730 639 645 706 689 679 691 692 739 677 709 687 735 713 655 681 712 714 622 733 694 692 715 722 719 686 754 661 715 654 732 704 696 715 715 675 745 698 684 735 746 746 727 725 769 743 731 808 759 788 798 791 746 778 712 735 754 782 781 753 823 784 782 790 754 742 783 790 759 836 770 809 775 796 763 820 763 796 777 827 842 754 747 795 793 782 755 786 758 860 722 811 765 807 757 771 779 809 745 797 809 883 799 786 835 872 900 861 885 966 995 948 981 1028 1155 1244 1176 1192 1245 1237 1389 1327 1340 1441 1534 1499 1508 1567 1591 1520 1525 1624 1553 1536 1534 1566 1604 1575 1584 1667 1609 1563 1520 1431 1458 1333 1493 1431 1319 1310 1356 1258 1298 1199 1171 1153 1119 1136 1023 1130 1007 977 1027 951 937 927 906 919 875 842 842 835 849 842 808 819 787 744 774 783 794 730 761 783 740 750 777 738 736 714 732 763 714 780 703 739 786 772 762 744 727 686 757 756 711 706 727 778 752 805 777 849 858 831 845 849 868 763 832 853 898 861 853 822 903 926 873 863 859 849 865 860 930 814 926 814 889 886 855 824 856 884 877 864 831 816 812 818 813 827 833 827 773 810 776 828 735 788 800 754 729 776 829 782 794 760 735 719 696 694 721 768 703 726 734 796 719 711 738 778 709 729 727 765 690 712 714 727 749 679 742 681 699 693 716 720 712 724 670 660 650 685 686 678 661 732 674 669 728 635 684 664 679 654 686 686 664 772 698 666 694 739 689 713 670 668 684 667 716 727 687 712 653 690 672 720 659 724 726 739 698 734 707 706 667 734 654 724 679 707 695 793 713 765 739 739 765 732 740 767 758 744 767 791 754 830 789 825 868 876 915 957 928 967 992 1029 1074 1069 1124 1171 1212 1231 1285 1325 1385 1457 1463 1531 1536 1655 1655 1652 1599 1714 1642 1742 1671 1743 1740 1715 1686 1615 1639 1713 1695 1644 1623 1657 1712 1731 1686 1694 1583 1584 1576 1492 1411 1403 1343 1374 1287 1285 1232 1230 1177 1186 1154 1134 1137 1070 1027 1045 970 992 933 933 891 867 863 855 879 858 882 811 828 813 808 704 764 735 791 752 817 733 771 804 695 759 776 757 748 712 713 780 703 751 759 742 726 722 721 772 708 744 735 694 736 751 721 743 761 718 756 719 784 776 731 715 805 773 763 794 696 783 738 793 790 768 747 817 789 766 786 802 767 825 810 786 786 770 778 740 764 784 781 740 720 771 747 721 708 756 712 757 709 770 741 644 697 699 759 640 696 707 714 676 694 707 674 677 705 650 677 706 675 709 716 747 673 719 699 722 704 759 747 731 682 736 702 719 684 769 698 699 754 745 738 734 778 795 781 809 832 779 827 875 858 829 863 820 921 847 898 862 885 894 875 937 929 946 879 873 911 879 896 905 899 854 912 910 863 852 904 868 905 819 838 852 819 765 778 755 828 744 773 784 748 734 694 745 695 730 734 696 680 727 723 727 742 693 710 704 665 685 707 725 706 691 664 689 693 689 678 708 659 670 674 707 660 674 637 656 688 674 647 666 635 628 710 617 662 676 620 660 614 651 673 670 625 657 696 623 640 693 656 626 657 647 655 652 637 677 677 648 635 648 666 679 640 651 631 644 702 635 634 615 618 643 649 646 618 694 630 637 644 667 690 604 687 701 691 659 658 657 658 628 617 686 693 665 724 656 655 632 661 660 642 723 676 681 630 678 672 651 685 627 654 665 626 649 679 646 711 643 656 694 617 670 668 662 681 702 621 645 664 644 667 684 650 678 658 646 648 643 665 632 633 627 651 658 653 651 630 650 680 673 690 664 679 608 628 670 628 597 631 629 618 656 645 614 597 606 676 641 625 670 688 625 636 619 633 651 664 595 634 651 622 649 637 606 704 637 652 687 638 616 674 667 653 657 663 653 617 616 633 631 651 594 658 666 605 587 651 601 615 638 627 660 596 601 582 582 624 658 636 620 610 645 664 634 637 655 612 571 637 607 609 669 623 678 639 630 637 668 607 638 618 606 649 624 647 643 654 664 664 607 622 646 662 635 612 639 638 664 645 674 655 635 669 594 633 657 649 648 634 637 670 665 654 670 606 667 628 633 621 610 625 652 595 610 605 625 647 679 636 622 614 685 633 649 658 658 647 592 649 669 627 598 635 637 656 625 605 665 640 644 598 607 625 646 656 627 597 682 628 601 642 668 662 614 655 672 656 588 664 606 677 644 603 592 614 643 655 627 656 619 680 620 652 636 622 636 612 601 639 625 642 646 661 609 616 652 650 633 627 612 652 625 677 575 632 634 674 641 662 675 621 611 636 647 598 634 610 602 611 647 628 664 614 674 667 643 654 633 669 625 639 605 619 648 638 621 662 622 605 602 648 630 658 649 646 624 629 652 640 621 576 638 631 646 657 662 646 637 621 616 674 678 678 696 656 633 604 598 628 597 630 639 666 626 669 655 598 681 621 655 679 642 664 660 672 726 689 686 686 683 675 729 716 784 749 770 769 749 726 771 761 768 758 760 781 741 756 735 790 768 743 735 758 687 763 722 767 706 765 811 718 714 735 679 729 664 738 740 679 653 662 749 701 698 714 678 684 659 693 663 710 646 657 647 640 647 676 649 655 629 675 683 672 640 642 635 629 673 632 628 632 658 636 670 626 635 650 625 611 588 614 613 651 607 618 652 618 629 608 665 638 605 610 602 600 614 671 648 613 638 637 622 595 631 621 651 652 635 635 624 649 606 648 617 619 621 676 648 605 622 656 628 641 611 612 643 622 573 660 650 635 625 603 639 614 636 596 657 631 662 638 597 660 606 639 636 584 645 639 590 623 623 621 596 655 661 615 634 672 667 686 648 613 630 587 616 597 639 594 607 589 621 611 667 652 600 633 603 640 645 639 619 603 627 630 602 608 603 601 689 628 602 650 648 648 637 610 599 644 606 626 612 580 589 613 592 610 617 654 620 624 629 640 614 611 594 626 632 598 628 626 601 609 612 636 606 638 577 601 625 637 560 705 628 650 651 592 636 615 552 624 599 627 688 642 648 705 632 664 672 626 647 661 633 630 630 637 621 601 602 680 635 627 654 622 639 591 631 635 645 598 657 667 684 611 654 660 604 639 669 682 670 655 668 722 663 653 687 740 734 780 704 760 728 763 784 760 793 800 789 875 879 834 893 943 898 1001 981 964 1008 1004 1061 1066 1034 1069 1061 1060 1059 1081 1017 1017 1019 979 1038 1046 1074 1027 1061 990 1005 975 1010 977 1027 918 964 920 965 931 904 914 862 866 823 886 851 798 841 805 786 787 778 739 717 703 734 717 711 695 699 682 721 716 687 671 660 678 700 665 674 677 678 691 703 662 663 675 660 715 642 645 652 664 641 647 642 613 633 648 648 624 644 623 610 683 680 663 667 702 661 652 703 681 613 646 678 625 629 650 605 665 691 627 615 620 644 728 632 622 593 591 663 640 634 720 684 637 656 660 611 632 614 663 665 634 647 610 671 644 700 691 699 686 651 689 666 694 655 643 641 692 636 646 605 665 662 691 653 631 648 679 667 677 663 661 698 610 651 658 646 607 635 638 638 597 635 638 639 649 623 668 674 651 611 657 610 643 632 583 699 605 669 658 630 595 615 707 595 647 604 668 620 631 682 656 615 637 626 655 633 654 621 615 625 586 612 616 678 662 633 589 653 606 604 686 626 599 630 600 629 626 631 653 656 595 575 640 584 661 665 630 604 592 594 611 591 609 652 633 649 613 606 660 587 677 627 649 652 635 611 673 609 605 625 620 629 596 647 606 630 609 603 587 661 647 667 617 678 571 667 589 669 627 609 576 610 614 647 589 615 641 594 657 615 598 617 601 611 633 606 609 597 629 561 567 579 627 561 614 600 619 599 617 581 580 609 602 655 611 624 643 628 622 625 581 594 637 618 647 619 592 594 625 698 637 670 611 644 616 595 621 640 562 628 628 610 570 577 605 600 595 610 595 620 618 613 628 613 602 616 623 646 569 610 651 590 643 657 612 598 574 607 635 620 650 637 585 616 579 607 635 611 600 633 603 638 640 604 633 620 626 598 623 650 580 606 625 643 603 581 644 578 630 580 647 602 592 611 622 666 655 623 589 625 635 609 591 602 632 645 607 630 615 683 613 591 651 608 594 571 638 620 627 638 622 639 653 584 596 589 645 577 659 642 627 636 634 619 603 608 626 584 588 570 641 608 612 605 630 603 583 628 641 613 624 633 642 573 625 596 633 602 603 624 653 590 590 640 645 603 606 643 647 586 613 606 593 629 602 630 638 641 608 594 598 594 622 567 627 548 645 617 655 591 643 636 624 592 652 652 634 616 616 612 601 634 628 636 568 624 610 640 557 589 616 641 594 637 586 587 612 647 537 664 611 612 630 610 602 596 576 607 608 647 637 617 572 601 645 578 640 617 609 629 581 631 596 615 612 637 638 632 620 585 608 580 611 554 632 626 631 611 625 617 660 571 617 661 589 546 601 612 656 671 615 659 620 633 642 603 600 631 606 616 586 641 633 570 661 621 657 605 596 600 613 629 618 637 614 600 620 699 632 628 624 652 629 632 670 599 598 599 673 674 618 629 644 644 643 633 631 659 642 614 625 621 649 643 717 616 640 687 651 685 635 659 638 658 731 674 721 697 671 706 692 678 739 698 712 723 719 700 726 736 759 729 716 739 660 745 659 739 704 717 668 716 679 700 723 716 719 718 764 700 698 703 721 698 738 735 681 723 725 709 677 755 746 727 721 727 740 777 779 695 717 752 798 766 844 800 814 787 811 829 836 861 883 900 876 870 906 798 822 893 894 846 916 881 866 865 948 891 844 961 941 903 900 882 863 903 848 897 891 806 828 877 869 833 853 845 804 781 809 777 748 723 771 770 827 743 717 682 637 706 763 735 692 703 727 725 715 636 668 679 636 665 666 685 654 663 695 690 652 666 656 686 645 628 620 652 634 672 648 598 645 646 600 675 646 632 642 627 656 652 627 630 676 644 683 644 686 628 661 618 633 662 634 656 655 663 610 664 643 643 676 640 614 660 590 633 666 670 649 608 622 625 629 624 581 600 626 635 620 619 670 644 661 611 650 670 655 667 679 671 634 692 666 720 718 702 700 655 669 660 711 660 746 703 718 706 674 746 755 770 684 668 721 690 698 699 668 680 747 693 690 713 688 663 704 742 679 699 657 687 730 668 710 677 755 738 681 707 692 737 676 694 677 717 743 714 737 721 693 712 719 752 741 693 722 695 720 784 743 788 840 791 851 861 825 881 865 962 967 985 1007 1063 1092 1095 1172 1163 1241 1240 1169 1284 1336 1319 1370 1404 1405 1436 1442 1501 1477 1485 1576 1527 1543 1554 1541 1550 1482 1519 1487 1458 1487 1440 1392 1437 1453 1402 1365 1373 1446 1272 1378 1318 1361 1241 1247 1244 1264 1244 1157 1147 1112 1043 1096 1031 1052 998 924 958 908 913 920 892 830 878 927 867 862 795 783 798 800 778 779 741 718 748 728 735 716 696 714 711 671 700 712 704 681 705 677 667 691 707 711 690 658 654 665 679 652 674 656 655 618 653 659 667 705 650 650 656 577 633 604 654 678 685 653 674 641 592 641 690 691 652 656 649 653 642 638 663 656 661 680 686 708 685 655 651 659 633 684 669 675 654 719 710 667 687 653 654 695 699 660 691 723 724 747 661 750 692 698 721 729 798 703 713 785 761 816 803 745 813 787 737 754 775 813 822 808 781 768 780 823 770 777 731 775 794 838 831 807 836 805 793 746 832 773 819 795 770 796 780 778 733 767 728 779 744 793 727 740 703 753 697 756 730 751 724 673 678 718 687 690 718 672 700 682 649 679 654 681 663 669 605 653 666 703 642 676 673 658 651 677 590 625 664 674 644 675 601 633 617 611 653 686 650 651 656 621 629 664 637 706 615 653 610 638 626 632 584 671 604 635 621 632 606 649 578 637 564 638 617 630 633 652 594 607 605 624 641 678 654 618 645 657 623 628 657 634 640 655 619 626 608 637 615 651 663 634 636 609 631 606 636 612 629 606 643 637 621 643 609 645 638 634 605 660 625 630 613 630 614 651 643 603 620 644 622 644 640 617 636 612 626 641 648 648 666 569 596 644 657 628 613 670 604 614 668 608 616 587 623 653 593 659 637 599 671 605 671 591 586 628 620 600 618 618 630 653 642 610 620 624 639 646 610 582 629 549 648 628 655 610 637 624 602 637 638 619 620 595 603 598 629 627 628 633 588 599 630 643 638 634 591 652 616 631 570 626 650 575 572 651 580 670 662 602 625 603 618 579 624 601 619 623 607 609 592 596 630 615 643 598 642 648 607 659 605 618 607 605 637 646 608 601 633 582 632 575 600 643 597 592 576 617 623 596 616 597 612 590 608 590 639 647 568 644 649 592 637 605 651 594 605 643 648 593 604 637 572 661 633 622 607 609 619 593 668 668 619 645 601 627 561 617 642 637 634 649 622 615 611 578 634 624 640 674 644 586 605 630 603 608 642 615 632 632 619 629 599 676 573 596 606 595 649 614 643 606 599 584 671 606 629 628 585 648 615 633 597 629 542 637 622 594 578 625 596 608 603 563 649 594 628 629 637 668 659 603 657 616 622 658 636 591 589 617 582 639 595 624 615 579 621 595 606 586 608 656 630 637 614 595 622 583 655 625 639 605 600 630 662 680 657 643 595 618 632 570 613 631 648 597 638 618 591 617 628 581 621 622 616 676 666 653 657 660 619 642 650 701 679 672 657 654 628 693 689 653 689 636 689 657 680 697 676 642 685 700 662 726 729 746 695 653 678 697 671 719 683 719 712 715 702 753 655 702 665 683 666 698 649 691 687 748 685 687 667 716 656 672 684 663 668 668 659 624 659 672 657 657 663 669 662 653 665 675 647 635 623 653 590 619 616 624 643 618 578 611 722 609 619 641 639 615 615 641 606 625 631 651 596 599 676 647 642 624 631 603 624 606 639 581 647 613 641 643 638 617 650 579 646 651 655 607 645 602 617 672 647 639 610 647 612 596 644 621 619 634 628 593 624 648 566 606 637 572 643 596 656 648 587 615 607 590 588 654 626 594 658 624 618 600 635 649 645 647 601 626 599 578 638 614 659 651 622 629 600 587 632 608 603 669 629 654 599 615 626 646 589 588 634 581 647 603 584 584 629 644 608 627 597 606 602 660 665 640 643 656 624 687 599 634 602 641 633 644 666 620 600 655 600 655 626 575 627 659 639 629 590 637 653 624 642 629 591 644 623 628 607 638 602 619 633 648 690 620 642 635 620 602 640 641 618 653 627 645 684 629 663 671 648 661 665 679 618 641 671 684 689 639 689 661 666 689 693 728 703 706 718 740 695 772 731 716 800 751 762 776 799 841 807 823 864 843 937 918 957 904 967 954 915 979 959 990 1068 1046 1103 1140 1072 1113 1085 1183 1131 1172 1125 1116 1144 1193 1192 1202 1185 1236 1153 1218 1198 1225 1183 1166 1165 1161 1140 1084 1095 1171 1076 1133 1129 1139 1027 1078 1056 1005 985 1043 942 951 977 1004 901 895 949 936 973 915 871 872 898 836 847 834 882 843 821 791 780 803 774 772 760 762 794 731 740 714 668 742 684 695 699 694 650 707 713 674 632 695 666 653 663 697 658 670 640 653 639 643 643 645 628 677 659 599 632 633 651 635 621 589 648 676 656 645 650 646 641 607 615 676 596 635 607 664 636 670 620 628 644 650 648 634 585 636 668 648 626 606 654 615 670 674 651 633 636 624 682 638 631 664 650 630 680 632 602 629 640 664 673 686 596 648 648 660 677 668 622 680 657 685 660 652 692 658 637 660 681 664 667 666 688 683 720 706 672 655 693 675 697 694 695 681 675 709 695 661 708 728 710 729 723 712 723 691 732 729 696 691 680 735 706 697 779 676 672 742 708 696 704 739 633 672 641 710 665 689 672 651 677 737 697 618 665 699 690 665 686 683 665 659 640 629 678 642 652 643 627 627 604 660 640 661 636 610 596 669 657 608 607 624 653 606 608 633 652 611 632 645 583 628 629 651 593 623 618 601 647 642 641 620 656 623 606 610 608 639 632 604 611 613 609 626 660 578 634 613 659 599 662 608 574 601 651 617 644 639 659 613 622 619 617 584 579 663 621 579 628 635 631 629 629 639 608 640 699 659 623 597 626 609 609 624 621 606 651 644 643 675 587 561 610 590 623 608 617 622 611 562 683 628 614 664 624 622 585 569 603 637 585 620 593 601 597 621 625 579 601 592 621 636 617 614 635 627 593 633 624 635 572 600 606 563 601 634 605 577 584 552 629 626 583 589 663 569 615 620 633 601 629 589 574 668 632 575 580 636 617 654 617 668 580 592 609 614 590 616 593 627 617 582 599 603 616 599 646 559 587 592 612 621 601 610 623 624 613 585 621 587 619 614 601 567 625 575 670 601 668 611 623 628 650 682 636 622 585 653 619 634 585 620 661 622 583 650 594 608 619 608 619 596 578 588 623 611 596 588 607 614 581 589 586 628 629 606 594 602 626 616 619 637 620 659 613 632 588 645 573 614 652 582 626 611 633 615 630 626 636 648 603 619 621 628 599 633 576 598 566 612 575 604 530 633 600 642 634 569 643 604 594 607 612 627 581 600 601 596 564 604 621 588 586 600 633 587 568 629 546 621 623 572 620 607 592 570 661 611 615 551 653 603 620 656 601 609 648 654 622 593 622 577 618 618 650 645 619 597 620 638 636 596 598 631 561 615 594 592 661 587 623 616 634 649 607 617 602 594 596 630 620 621 600 662 586 609 622 620 622 667 650 623 618 638 667 654 655 649 628 627 667 631 664 646 716 628 681 672 637 676 650 683 672 678 715 714 650 774 677 757 735 672 751 724 702 717 776 731 693 739 749 764 696 794 728 796 765 742 785 754 768 779 799 776 760 766 748 710 731 771 731 781 756 734 739 700 723 818 748 730 798 719 745 718 672 728 748 715 744 760 754 720 719 767 777 778 784 801 823 762 762 808 731 723 782 804 770 770 811 791 824 836 793 785 788 819 753</counts>
			</dataPoints>
		</scan>
	</xrdMeasurement>
</xrdMeasurements>
