<?xml version="1.0"?>
<xrdMeasurements xmlns="http://www.xrdml.com/XRDMeasurement/2.3" xmlns:xsi="http://www.w3.org/2001/XMLSchema-instance" xsi:schemaLocation="http://www.xrdml.com/XRDMeasurement/2.3 http://www.xrdml.com/XRDMeasurement/2.3/XRDMeasurement.xsd" status="Completed" recordIdentifier="{0D5C33C4-8DEE-49FF-A103-03E47B06D834}">
	<comment>
		<entry/>
	</comment>
	<sample type="To be analyzed">
		<id>GPSS_Li1p4Hf0p2Sc0p2Zn0p6Cl4_110825_690fcd71f040177efa2b8c53</id>
		<name></name>
		<preparedBy></preparedBy>
	</sample>
	<xrdMeasurement measurementType="Scan" status="Completed" sampleMode="Reflection">
		<usedWavelength intended="K-Alpha 1">
			<kAlpha1 unit="Angstrom">1.5405980</kAlpha1>
			<kAlpha2 unit="Angstrom">1.5444260</kAlpha2>
			<kBeta unit="Angstrom">1.3922500</kBeta>
			<ratioKAlpha2KAlpha1>0.5000</ratioKAlpha2KAlpha1>
		</usedWavelength>
		<incidentBeamPath>
			<radius unit="mm">145.00</radius>
			<xRayTube id="1010048" name="Empyrean Cu LFF HR (9430 033 7310x)">
				<tension unit="kV">40.0</tension>
				<current unit="mA">15.0</current>
				<anodeMaterial>Cu</anodeMaterial>
				<focus type="Line">
					<length unit="mm">12.0</length>
					<width unit="mm">0.4</width>
					<takeOffAngle unit="deg">6.0</takeOffAngle>
				</focus>
			</xRayTube>
			<sollerSlit id="21010002" name="Soller slits 0.04 rad.">
				<opening unit="rad">0.0400</opening>
			</sollerSlit>
			<mask id="22031000" name="Fixed mask 13 mm">
				<width unit="mm">9.00</width>
			</mask>
			<divergenceSlit id="22120001" name="Divergence slit 1°" xsi:type="fixedDivergenceSlitType">
				<distanceToSample unit="mm">50.00</distanceToSample>
				<height unit="mm">1.52</height>
			</divergenceSlit>
		</incidentBeamPath>
		<sampleMovement xsi:type="spinningSampleMovementType">
			<spinnerRevolutionTime unit="seconds">1.0</spinnerRevolutionTime>
		</sampleMovement>
		<diffractedBeamPath>
			<radius unit="mm">145.00</radius>
			<antiScatterSlit id="22090040" name="AS slit 9 mm (PIXcel)" xsi:type="fixedAntiScatterSlitType">
				<height unit="mm">9.00</height>
			</antiScatterSlit>
			<sollerSlit id="21020003" name="Large Soller slits 0.04 rad.">
				<opening unit="rad">0.0400</opening>
			</sollerSlit>
			<filter id="20030001" name="Large beta-filter Nickel">
				<material>Ni</material>
				<thickness unit="mm">0.020</thickness>
			</filter>
			<detector id="7010019" name="PIXcel1D-Medipix3 detector" xsi:type="rtmsDetectorType">
				<phd unit="keV">
					<lowerLevel>4.02</lowerLevel>
					<upperLevel>11.27</upperLevel>
				</phd>
				<mode>Scanning</mode>
				<activeLength unit="deg">5.542</activeLength>
			</detector>
		</diffractedBeamPath>
		<scan appendNumber="0" mode="Continuous" scanAxis="Gonio" status="Completed">
			<header>
				<startTimeStamp>2025-11-11T14:38:49-08:00</startTimeStamp>
				<endTimeStamp>2025-11-11T14:46:56-08:00</endTimeStamp>
				<author>
					<name>AutomatedUser</name>
				</author>
				<source>
					<applicationSoftware version="1.7b (136)">PANalytical Aeris Instrument Suite</applicationSoftware>
					<instrumentControlSoftware version="3.2.00000000 20240306">AERIS</instrumentControlSoftware>
					<instrumentID>950485</instrumentID>
				</source>
			</header>
			<dataPoints>
				<positions axis="2Theta" unit="deg">
					<startPosition>10.00943322</startPosition>
					<endPosition>99.99442286</endPosition>
				</positions>
				<positions axis="Omega" unit="deg">
					<startPosition>5.00471661</startPosition>
					<endPosition>49.99721143</endPosition>
				</positions>
				<commonCountingTime unit="seconds">12.495</commonCountingTime>
				<counts unit="counts">3010 3009 2802 2849 2857 2874 2894 2918 2938 2830 2969 2846 2960 2959 2917 2927 2927 2890 2810 2848 2855 2859 2931 2880 2897 2946 2871 2939 2963 2950 2958 2912 2957 2814 2914 2881 3010 2931 2945 2943 2923 2944 2946 2870 2809 2945 2912 2863 2924 2839 2965 2901 2974 2795 2915 2926 2962 2947 2878 2857 2974 2971 3016 2983 2940 2992 2958 2925 2917 2961 2959 3074 3142 3114 2977 2940 3111 2993 3022 3139 3129 3076 3199 3075 3145 3234 3181 3212 3066 3139 3225 3141 3138 3173 3183 3199 3167 3219 3206 3179 3194 3223 3288 3207 3171 3252 3186 3282 3167 3218 3320 3215 3172 3192 3167 3156 3229 3155 3169 3158 3116 3158 3159 3269 3230 3147 3211 3174 3078 3108 3039 3111 3064 3031 3121 3105 3030 3125 3083 3047 3075 3138 3068 2962 3077 3093 3114 3120 3138 3015 3101 3134 3108 3103 3125 3148 3077 3080 3081 3092 3058 3111 3083 3086 3008 3168 3130 3094 3077 3120 2970 3113 3004 3091 3184 3279 3207 3237 3121 3285 3149 3216 3262 3273 3268 3192 3312 3214 3336 3285 3291 3307 3324 3348 3302 3458 3377 3295 3386 3484 3415 3508 3470 3401 3477 3439 3437 3584 3526 3530 3438 3477 3633 3492 3525 3477 3614 3518 3539 3484 3475 3450 3325 3436 3458 3395 3285 3262 3416 3458 3353 3314 3375 3373 3363 3404 3388 3436 3307 3414 3435 3387 3437 3347 3460 3331 3472 3511 3473 3533 3518 3496 3615 3581 3603 3583 3583 3618 3666 3677 3650 3732 3637 3578 3648 3447 3605 3563 3639 3622 3670 3592 3643 3560 3670 3503 3574 3512 3402 3406 3488 3327 3288 3333 3308 3251 3224 3233 3226 3130 3176 3230 3131 3124 3061 3115 3069 2940 3095 3003 3029 3107 3108 2988 3064 3030 3013 2967 3109 2967 3034 3010 3050 3046 3092 3054 2935 3001 3101 2958 3129 3149 3048 3045 3076 3089 3068 3067 3032 2997 3036 2987 3135 3054 3010 3114 3157 3049 3177 3076 3140 3186 3050 3138 3190 3159 3085 3124 3225 3198 3294 3217 3218 3287 3308 3221 3341 3296 3327 3276 3370 3344 3373 3427 3382 3414 3533 3479 3538 3476 3526 3498 3531 3544 3532 3483 3597 3471 3434 3445 3614 3572 3535 3605 3665 3590 3557 3479 3506 3621 3507 3630 3679 3486 3641 3458 3456 3573 3551 3363 3473 3375 3397 3380 3443 3473 3354 3339 3328 3363 3341 3414 3357 3333 3350 3435 3352 3479 3374 3457 3385 3499 3414 3548 3480 3400 3589 3527 3475 3523 3425 3491 3445 3579 3415 3538 3518 3550 3533 3497 3476 3451 3575 3599 3551 3552 3488 3562 3578 3588 3520 3456 3589 3613 3447 3554 3637 3489 3439 3399 3371 3459 3490 3484 3436 3348 3422 3356 3275 3450 3331 3396 3295 3280 3378 3329 3376 3354 3335 3332 3364 3342 3318 3439 3407 3288 3304 3339 3339 3234 3211 3275 3318 3275 3290 3258 3225 3209 3230 3251 3222 3273 3075 3252 3191 3157 3206 3187 3132 3125 3218 3220 3171 3226 3098 3153 3154 3167 3193 3097 3107 3160 3190 3136 3253 3126 3094 3275 3304 3126 3111 3149 3127 3266 3161 3135 3271 3198 3287 3312 3314 3253 3368 3296 3378 3341 3355 3383 3383 3349 3366 3349 3366 3387 3473 3486 3412 3454 3362 3420 3402 3574 3333 3280 3493 3391 3417 3361 3370 3285 3277 3357 3198 3365 3078 3177 3188 3181 3160 3018 3052 2985 3019 2977 3084 3003 3021 3060 3037 3005 3140 3111 2953 3030 3146 3104 3091 3118 3173 3200 3190 3246 3270 3396 3259 3289 3454 3450 3558 3621 3585 3668 3665 3832 3844 3814 3845 3954 4019 3994 4089 4126 4009 3985 4251 4179 4074 4117 4101 4221 4274 4178 4295 4205 4032 4391 4303 4321 4341 4241 4175 4167 4087 3980 3952 3732 3631 3488 3417 3243 3172 3103 3068 2982 2891 2837 2942 2834 2839 2907 2888 2890 2935 2800 2883 2848 2897 2818 2785 2831 2868 2829 2870 2723 2762 2762 2796 2816 2837 2726 2822 2741 2709 2734 2701 2738 2799 2894 2721 2780 2790 2794 2783 2776 2599 2851 2850 2646 2804 2733 2783 2689 2797 2627 2776 2716 2848 2698 2795 2735 2754 2747 2708 2757 2671 2751 2716 2593 2633 2712 2753 2748 2714 2779 2695 2657 2738 2729 2728 2583 2737 2657 2766 2716 2702 2661 2643 2733 2629 2713 2775 2786 2751 2840 2752 2743 2750 2656 2800 2787 2851 2794 2787 2863 2799 2886 2809 2802 2790 2877 2871 2925 2896 3017 2906 3054 2970 3127 3126 3070 3179 3193 3228 3294 3297 3389 3323 3455 3472 3517 3438 3602 3548 3742 3733 3726 3674 3703 3646 3614 3603 3701 3634 3560 3512 3586 3545 3705 3643 3669 3554 3713 3689 3828 3683 3683 3711 3556 3627 3498 3412 3407 3267 3173 3274 3225 3079 3037 3056 3100 2994 3010 2998 3088 3078 2923 3074 2938 3035 3039 3063 3089 3090 3086 3137 2991 3052 2883 2996 2935 2842 2873 2817 2800 2707 2671 2573 2684 2618 2681 2671 2630 2593 2676 2560 2510 2599 2604 2564 2532 2584 2444 2635 2510 2639 2505 2570 2533 2595 2681 2537 2553 2488 2486 2554 2507 2547 2460 2523 2625 2516 2519 2558 2487 2605 2493 2443 2573 2585 2484 2519 2504 2475 2393 2494 2512 2553 2463 2472 2480 2385 2525 2432 2482 2457 2461 2488 2336 2314 2503 2470 2356 2456 2472 2467 2429 2556 2419 2498 2475 2435 2336 2484 2446 2520 2457 2475 2375 2397 2439 2415 2428 2471 2409 2414 2329 2554 2488 2438 2468 2439 2427 2452 2406 2344 2510 2459 2404 2474 2422 2435 2454 2438 2422 2486 2347 2433 2389 2380 2348 2399 2365 2305 2321 2279 2422 2261 2393 2336 2403 2369 2315 2320 2360 2324 2292 2332 2349 2381 2324 2309 2358 2282 2256 2293 2313 2239 2261 2336 2293 2299 2335 2373 2373 2389 2289 2361 2377 2268 2327 2315 2324 2322 2346 2322 2305 2220 2295 2332 2290 2419 2273 2297 2320 2261 2270 2332 2383 2345 2337 2261 2388 2314 2279 2359 2272 2284 2337 2447 2402 2398 2365 2378 2371 2415 2305 2459 2396 2448 2371 2441 2358 2343 2359 2342 2368 2416 2458 2483 2423 2446 2464 2385 2400 2409 2452 2509 2495 2545 2431 2499 2410 2484 2442 2483 2499 2448 2377 2432 2417 2347 2396 2457 2404 2455 2372 2345 2401 2267 2350 2299 2308 2380 2409 2386 2400 2476 2452 2456 2417 2443 2425 2504 2365 2431 2347 2528 2442 2507 2458 2449 2469 2422 2489 2447 2550 2467 2485 2449 2533 2533 2493 2518 2615 2580 2510 2509 2493 2553 2491 2616 2599 2584 2550 2549 2652 2637 2660 2604 2649 2669 2596 2635 2688 2693 2708 2706 2725 2850 2867 2775 2850 2967 3023 2877 2987 3103 3118 3057 3278 3302 3294 3291 3322 3238 3387 3300 3421 3336 3363 3374 3446 3492 3502 3502 3532 3491 3484 3565 3493 3504 3348 3382 3327 3314 3246 3109 3076 2990 3000 2829 2733 2743 2584 2563 2570 2477 2357 2366 2370 2395 2252 2274 2175 2210 2095 2081 2197 2066 2102 2037 2085 2129 2097 2114 2082 2066 2038 2117 1996 2144 2069 2011 2017 2060 1983 1942 2004 2007 1985 2017 1993 2055 2054 2019 2166 2016 2054 2105 2150 2155 2073 2106 2141 2036 2074 2095 2097 2134 2116 2125 2129 2193 2104 2158 2190 2115 2121 2071 2130 2122 2178 2129 2137 2111 2113 2034 2101 2051 2079 2011 2092 2034 2040 1927 1940 1928 1878 1854 1827 1848 1851 1781 1845 1734 1845 1782 1821 1877 1873 1829 1840 1914 1956 1863 1811 1780 1831 1843 1830 1928 1842 1899 1841 1795 1775 1889 1806 1799 1830 1793 1772 1817 1775 1733 1739 1802 1706 1724 1701 1814 1832 1830 1818 1829 1795 1858 1689 1722 1719 1867 1800 1788 1787 1825 1824 1769 1895 1895 1887 1819 1881 1956 1992 1886 1902 1961 1953 1945 1869 1926 1954 1946 1943 1978 1960 1926 1895 1994 1921 1902 1982 1935 1975 1957 1868 1920 1979 1825 1929 1857 1808 1849 1771 1776 1711 1746 1769 1692 1753 1725 1740 1729 1678 1695 1626 1714 1606 1657 1675 1666 1720 1756 1732 1700 1725 1644 1744 1740 1690 1730 1714 1731 1725 1715 1752 1700 1769 1774 1765 1819 1826 1809 1839 1852 1809 1850 1791 1920 1848 1795 1728 1809 1887 1948 1823 1855 1882 1937 1884 1919 1904 1926 1916 1862 1917 1911 1915 1890 1959 1949 1924 1942 2002 2014 1939 1911 2003 1922 1935 1935 1987 2057 2042 1997 1984 1974 2102 2060 2058 2121 2060 2103 2164 2219 2214 2189 2196 2268 2220 2155 2208 2273 2263 2224 2257 2192 2239 2253 2286 2201 2256 2289 2278 2193 2230 2290 2213 2101 2118 2043 2100 2022 2086 1973 1983 1924 1869 1885 1920 1773 1900 1819 1830 1798 1690 1781 1744 1685 1749 1733 1768 1749 1704 1690 1703 1630 1719 1722 1713 1759 1642 1716 1631 1723 1653 1684 1735 1692 1665 1659 1643 1617 1708 1580 1610 1643 1668 1599 1665 1546 1619 1625 1597 1653 1682 1566 1594 1629 1659 1693 1692 1612 1606 1557 1615 1644 1621 1577 1652 1508 1658 1637 1612 1610 1649 1593 1551 1569 1607 1613 1636 1564 1597 1575 1557 1511 1606 1653 1572 1567 1580 1532 1643 1552 1558 1589 1538 1546 1641 1659 1645 1606 1628 1682 1695 1642 1639 1567 1686 1650 1720 1703 1666 1663 1732 1706 1654 1597 1619 1619 1705 1748 1672 1696 1720 1696 1681 1665 1647 1725 1707 1603 1662 1564 1620 1682 1533 1519 1609 1523 1591 1499 1546 1490 1544 1513 1561 1578 1649 1579 1649 1646 1649 1614 1605 1674 1657 1759 1663 1661 1699 1661 1736 1717 1799 1712 1804 1813 1729 1718 1677 1828 1762 1742 1775 1888 1877 1836 1836 1837 1823 1830 1762 1903 1876 1960 1976 1896 2011 1970 1986 2053 2073 2094 2069 2140 2142 2185 2264 2201 2309 2345 2365 2400 2518 2415 2498 2500 2539 2713 2684 2717 2865 2892 2813 2859 2763 2783 2815 2611 2671 2612 2609 2650 2584 2453 2434 2364 2397 2455 2472 2311 2191 2266 2262 2251 2120 2186 2159 2168 2100 2048 1817 1982 1838 1853 1800 1746 1746 1810 1723 1771 1775 1781 1695 1809 1758 1930 1863 1931 1928 1854 1867 1898 1991 1838 1966 2023 1997 2077 2117 2029 2077 1963 2121 2174 2124 2210 2187 2258 2165 2144 2173 2177 2168 1972 2084 2092 2070 1925 2032 1892 1882 1889 1890 1963 1890 1867 1912 1914 1933 2092 2074 2112 2210 2271 2360 2515 2596 2758 2883 3095 3368 3332 3789 3927 4106 4157 4421 4626 4825 4843 5159 5259 5334 5450 5755 5705 5704 5899 6032 6139 6345 6333 6626 6598 6728 6749 6492 6909 7006 6599 6550 6455 6006 5899 5613 5216 4781 4554 4282 3999 3711 3342 3188 2890 2828 2534 2364 2287 2237 2148 2008 1925 1916 1899 1817 1930 1887 1813 1877 1827 1727 1769 1694 1832 1809 1678 1695 1692 1658 1663 1662 1679 1659 1591 1620 1488 1525 1524 1485 1480 1483 1400 1373 1337 1309 1334 1322 1342 1293 1308 1292 1248 1261 1324 1327 1362 1313 1377 1379 1393 1395 1348 1357 1357 1341 1393 1384 1428 1445 1455 1477 1471 1504 1502 1467 1483 1533 1481 1483 1456 1513 1543 1438 1449 1461 1428 1525 1471 1398 1404 1340 1399 1433 1421 1365 1420 1404 1369 1400 1367 1390 1321 1461 1442 1366 1439 1424 1501 1481 1487 1502 1622 1636 1594 1659 1652 1627 1672 1644 1693 1766 1722 1844 1853 1853 1795 1824 1832 1906 1941 1916 1987 1897 1939 1979 1881 1996 2025 2002 2000 2029 2040 1846 1963 2029 1976 1979 1997 1958 1985 1922 1925 1919 1895 1915 1907 1972 1858 1918 1894 1895 1921 1810 1737 1778 1783 1660 1771 1660 1682 1609 1650 1515 1431 1364 1411 1339 1255 1273 1223 1242 1218 1174 1141 1138 1119 1140 1111 1077 1118 1213 1136 1170 1121 1176 1178 1135 1205 1150 1206 1157 1175 1199 1174 1211 1196 1204 1271 1232 1202 1207 1225 1256 1318 1243 1250 1289 1324 1275 1255 1313 1305 1258 1298 1281 1293 1277 1278 1248 1312 1233 1255 1183 1192 1155 1196 1147 1203 1231 1138 1156 1177 1177 1155 1161 1235 1222 1180 1189 1220 1140 1191 1233 1137 1148 1154 1127 1114 1140 1165 1201 1173 1152 1157 1096 1095 1135 1165 1200 1171 1194 1115 1236 1188 1242 1101 1205 1223 1203 1256 1273 1318 1311 1302 1294 1334 1349 1298 1345 1385 1336 1345 1320 1282 1317 1280 1261 1295 1231 1298 1294 1282 1233 1296 1270 1202 1300 1283 1280 1273 1281 1235 1217 1234 1243 1139 1185 1140 1157 1225 1175 1143 1194 1138 1201 1091 1188 1153 1166 1129 1101 1075 1072 1080 1135 1082 1108 1093 1113 1140 1076 1098 1100 1058 1072 1078 1048 1002 1033 1008 1103 1016 1053 1024 971 958 1001 1010 1091 1005 1005 1082 1119 1016 1024 1021 1034 1036 1119 1063 1150 1123 1077 1187 1248 1228 1277 1360 1399 1425 1548 1641 1710 1903 1883 2098 2149 2286 2377 2461 2510 2574 2657 2765 2861 2902 2970 2885 3114 3093 3224 3198 3265 3442 3434 3610 3530 3573 3604 3633 3501 3512 3496 3241 3265 3150 3040 2940 2846 2688 2610 2526 2495 2372 2306 2331 2169 2170 2277 2321 2281 2369 2304 2404 2295 2390 2402 2339 2514 2429 2443 2411 2484 2513 2538 2638 2591 2469 2568 2523 2529 2613 2411 2383 2359 2234 2206 2133 1949 1946 1995 1886 1728 1721 1608 1613 1571 1486 1499 1460 1366 1304 1287 1298 1234 1249 1244 1200 1209 1193 1129 1102 1137 1131 1057 1089 1089 1104 1072 1016 1034 956 1047 1031 1036 1029 1004 1030 1074 1002 1029 1048 1067 1009 1049 1124 1151 1071 1157 1181 1160 1181 1208 1225 1307 1261 1317 1395 1352 1336 1359 1287 1408 1445 1384 1422 1422 1455 1462 1475 1436 1468 1497 1516 1526 1524 1546 1511 1433 1530 1435 1479 1381 1307 1324 1296 1268 1245 1291 1240 1140 1185 1166 1125 1158 1081 1174 1185 1130 1131 1173 1193 1264 1236 1285 1309 1377 1315 1286 1352 1397 1354 1355 1377 1330 1356 1338 1342 1350 1361 1306 1359 1398 1336 1266 1270 1283 1284 1216 1216 1182 1190 1141 1128 1057 1051 1078 948 968 1002 899 962 979 916 920 909 919 918 887 890 904 874 841 875 889 840 937 910 937 876 893 920 880 899 876 891 918 914 908 973 941 951 936 964 943 942 938 943 996 941 1012 942 982 954 910 961 955 899 943 927 944 912 920 924 937 926 976 959 1009 947 925 986 946 989 967 991 986 939 947 1029 937 919 982 946 1056 941 933 957 1003 935 951 948 961 898 861 891 928 991 968 922 950 939 912 968 977 993 972 1015 996 949 1083 1116 982 1095 1104 1068 1083 1078 1133 1121 1167 1176 1181 1153 1142 1197 1114 1196 1214 1171 1269 1119 1141 1179 1202 1164 1118 1083 1077 1068 1072 978 1082 997 969 991 908 956 1012 998 959 968 985 950 948 915 963 977 939 936 912 952 935 1023 937 986 915 1017 930 983 995 974 961 994 939 970 998 1000 940 994 904 956 1003 998 994 940 952 919 1010 944 1028 967 970 1036 988 1033 952 975 947 949 931 941 913 979 881 883 912 851 867 844 911 839 861 901 821 874 849 845 869 798 861 841 795 806 830 854 835 868 876 891 912 833 861 847 818 887 789 877 852 878 861 878 891 888 832 858 884 895 888 883 886 861 887 846 861 887 891 922 870 881 995 945 923 926 986 984 949 992 992 1007 1006 979 1001 1014 1039 1021 1110 1092 1048 1082 1034 1037 1077 1062 1041 1125 1071 1105 1063 1061 1056 1158 1010 1019 1004 1057 949 918 949 976 963 985 913 915 909 884 840 847 825 815 760 857 782 783 830 758 811 841 776 791 844 743 820 727 799 769 703 808 788 775 798 786 801 800 831 821 800 770 891 850 830 801 821 826 859 813 893 805 830 874 854 839 824 800 818 897 822 854 882 891 855 822 866 778 890 814 885 836 887 867 871 888 885 901 930 909 953 1007 947 949 1001 976 1018 1079 1033 1087 1113 1129 1096 1162 1145 1205 1228 1275 1260 1177 1249 1239 1372 1278 1346 1264 1283 1276 1253 1314 1235 1221 1222 1209 1131 1110 1081 1132 1085 1083 1006 1058 994 995 1110 1041 991 956 1002 990 929 844 895 914 898 857 855 913 856 847 850 829 873 891 824 797 816 820 817 785 806 788 758 764 763 821 797 777 812 770 773 800 742 731 753 772 765 787 791 778 772 809 907 818 822 801 788 811 787 798 804 831 837 825 835 839 839 855 875 823 858 900 822 878 792 868 848 928 835 884 881 856 837 855 807 863 820 853 821 820 797 785 765 780 764 871 710 808 756 843 806 799 788 830 790 878 825 770 792 776 736 778 736 744 762 731 732 709 760 736 743 739 774 713 750 741 771 757 706 723 722 728 727 745 749 744 718 702 720 697 732 708 739 740 755 726 701 681 709 735 674 705 692 673 684 698 728 721 729 673 712 726 691 677 785 722 713 753 685 715 702 719 750 719 804 760 763 754 730 789 735 752 809 778 879 833 784 805 810 851 822 824 873 861 827 794 887 852 863 877 882 812 881 865 879 879 854 877 869 865 912 952 953 936 958 972 935 959 980 951 941 980 1010 1024 989 985 1051 984 1060 1051 1026 1041 1074 1161 1157 1170 1087 1204 1144 1183 1129 1115 1175 1127 1171 1125 1154 1188 1141 1126 1093 1164 1126 1132 1134 1096 1084 1090 1112 1065 1038 1101 1022 1043 993 980 1003 956 937 1005 969 948 938 976 983 989 920 952 891 976 924 913 882 835 825 864 876 886 817 865 884 803 819 771 819 788 816 757 782 751 743 722 756 753 712 754 735 726 716 715 743 744 755 747 672 723 740 720 741 713 731 692 731 762 725 694 724 754 719 758 734 744 696 722 742 746 710 728 740 742 712 720 747 746 724 741 797 702 796 794 763 759 842 713 780 749 750 789 821 813 808 869 868 847 909 890 925 971 944 1003 992 1023 998 1089 1040 1101 1081 1048 1056 1118 1149 1198 1161 1240 1200 1217 1253 1263 1280 1250 1239 1284 1275 1235 1214 1169 1127 1098 1103 1085 1046 1027 1011 1018 1021 993 1017 849 914 906 930 884 831 800 828 814 841 848 849 834 796 832 893 840 803 838 862 896 846 876 841 935 848 868 963 924 860 958 981 956 919 908 1020 959 945 932 963 880 973 859 913 928 989 891 879 929 876 866 935 862 850 867 859 884 874 840 889 809 888 835 845 805 839 771 853 829 803 838 820 811 792 769 758 854 801 768 824 779 767 842 833 785 857 883 846 824 862 850 862 854 858 861 934 891 990 929 947 955 1005 1079 1004 1012 1056 1086 1065 1138 1180 1145 1162 1194 1148 1132 1172 1241 1160 1197 1135 1191 1203 1181 1199 1177 1219 1190 1158 1185 1141 1164 1054 1074 1046 1075 949 944 928 936 937 908 952 916 904 906 854 865 848 798 803 802 848 850 856 790 821 790 781 807 745 813 764 791 772 808 798 797 782 751 767 831 770 821 773 760 767 754 734 784 754 773 788 760 763 739 774 723 729 760 726 760 711 720 730 685 722 669 677 695 702 721 693 701 673 686 712 719 681 699 714 647 683 721 700 724 693 668 681 694 710 741 737 729 693 763 687 737 754 788 802 770 754 759 833 828 827 870 873 802 849 874 909 868 902 891 940 882 939 957 973 937 938 972 1013 1039 953 977 983 998 1025 1025 967 1040 1047 1020 1032 1040 1021 1049 1014 1085 1082 1026 1059 983 1030 973 978 992 1012 1033 1002 983 1031 1025 1041 1027 1023 945 1033 1018 1101 1100 1066 1045 1017 1058 1068 1067 1115 1034 1097 1042 1111 1125 1101 1119 1097 1142 1015 1061 1016 1057 1055 1115 1051 989 1021 988 1014 1037 1027 987 1023 1041 982 1073 1048 1055 1055 1099 1087 1112 1211 1095 1235 1330 1331 1413 1416 1457 1516 1727 1644 1848 1907 1962 2077 1982 2187 2256 2305 2426 2439 2502 2563 2711 2733 2992 2972 3237 3254 3402 3532 3543 3487 3665 3772 3782 3866 4014 3880 3851 3938 3770 3915 3877 3869 3974 3914 4088 4054 4168 4318 4357 4354 4413 4488 4568 4518 4507 4558 4528 4591 4429 4375 4329 4294 4257 4372 4152 4137 4087 3858 3958 3786 3628 3347 3157 2995 2905 2710 2532 2423 2347 2137 2072 1928 1811 1767 1711 1535 1495 1370 1317 1215 1232 1119 1129 1064 999 1047 1037 931 928 920 879 887 908 894 866 848 910 836 879 906 878 815 824 806 845 783 778 826 799 784 823 771 784 766 782 786 798 743 774 779 837 790 843 827 822 821 817 851 817 847 835 867 814 802 883 858 893 855 879 883 877 876 854 850 925 853 891 859 905 815 888 954 811 869 849 904 904 856 847 928 853 884 844 809 854 867 853 880 872 812 844 813 782 860 850 846 851 803 776 800 808 860 859 808 841 825 837 867 755 805 785 822 799 811 758 804 732 743 732 725 752 768 704 755 734 717 730 632 707 714 663 647 689 684 650 656 691 710 641 644 680 610 655 656 673 640 697 612 662 706 626 661 682 710 639 663 676 690 671 699 653 671 723 668 665 667 730 664 689 692 724 677 659 713 678 714 691 677 714 723 679 723 704 718 686 717 693 731 728 716 727 725 727 723 794 737 767 744 731 746 717 745 764 751 763 766 755 790 784 814 768 787 839 784 789 775 810 774 802 810 797 783 832 821 832 764 784 747 807 767 757 870 829 797 802 759 823 829 823 788 806 818 778 796 785 791 756 749 783 768 751 711 744 757 797 775 746 811 758 755 771 770 770 781 694 802 732 761 774 754 751 726 771 731 760 753 709 723 723 752 737 744 708 685 758 801 770 784 767 824 838 820 813 888 829 904 931 966 938 951 990 1024 1055 1112 1109 1130 1128 1134 1056 1152 1152 1153 1154 1204 1157 1157 1198 1156 1262 1188 1163 1192 1205 1178 1153 1133 1126 1049 1062 1029 1019 961 921 946 932 944 888 842 857 849 849 785 806 821 798 703 782 739 727 736 759 734 718 696 730 659 687 652 703 649 691 648 665 609 640 669 644 605 630 644 656 668 661 617 601 592 577 569 611 624 588 585 593 587 601 618 599 636 598 626 605 626 579 609 652 603 597 619 697 629 712 662 655 636 665 695 622 695 695 675 668 683 691 720 695 746 713 706 781 751 732 718 727 719 771 801 766 832 713 713 736 774 750 740 703 711 737 744 707 700 672 742 699 697 709 729 664 765 733 708 658 690 648 679 648 633 660 716 665 617 686 705 668 641 631 647 652 630 626 646 632 647 641 685 618 624 623 638 614 610 579 625 625 659 611 632 637 600 631 625 633 638 618 624 617 637 696 710 621 563 634 638 653 616 611 664 640 613 639 651 641 605 650 601 640 642 577 580 633 616 587 599 589 615 593 592 569 572 544 566 549 596 551 570 590 564 598 601 544 549 563 565 559 589 555 565 579 622 629 571 606 594 593 613 610 606 654 602 690 607 605 607 629 720 611 585 636 678 679 668 659 685 674 669 716 698 664 655 646 709 694 672 701 809 747 667 772 723 785 779 744 713 758 719 748 698 755 743 724 789 780 753 753 755 791 748 773 818 741 754 759 764 767 761 770 752 750 749 777 797 755 770 729 776 763 744 746 725 780 761 718 764 738 729 680 728 760 728 757 693 659 708 722 703 681 708 680 711 677 665 685 666 648 658 645 655 618 605 607 610 632 614 638 624 599 624 691 606 653 638 611 645 675 653 642 680 687 647 684 634 680 676 614 684 650 683 647 669 638 689 634 685 678 651 666 693 684 618 664 686 663 685 679 667 630 652 660 720 666 699 645 704 668 648 688 706 716 705 679 673 655 673 694 683 713 677 687 710 735 698 685 731 761 709 722 695 712 741 699 743 714 706 752 685 705 723 698 676 743 733 735 785 756 780 752 768 759 763 765 793 773 804 830 848 895 832 881 897 928 952 976 974 1005 1056 1098 1101 1116 1176 1143 1143 1223 1274 1312 1338 1426 1436 1376 1423 1452 1601 1549 1534 1571 1607 1574 1533 1530 1515 1523 1494 1567 1478 1463 1405 1394 1343 1426 1407 1366 1247 1276 1224 1105 1216 1118 1019 1101 1119 1055 1082 988 994 976 997 969 1018 942 1008 1006 1029 959 1048 1046 1043 1070 1097 1100 1103 1098 1145 1141 1167 1204 1133 1182 1181 1096 1124 1149 1102 1132 1150 1087 1080 1088 1081 1104 1061 1030 1017 1029 999 967 954 952 851 836 886 807 913 842 830 833 779 828 826 797 735 797 773 761 724 729 757 690 702 679 663 684 680 699 692 676 710 660 760 706 733 707 710 686 728 683 734 677 674 705 713 756 751 726 719 719 714 706 682 735 696 686 686 681 646 705 664 706 687 652 689 661 665 651 684 668 656 694 646 631 702 668 633 676 661 713 699 659 654 687 639 708 653 698 675 688 726 671 701 696 720 697 721 666 673 722 671 663 693 676 698 661 661 702 641 686 659 682 649 658 692 665 670 669 663 727 653 652 651 615 709 684 683 743 719 686 710 659 714 688 719 693 725 758 719 689 724 735 718 732 761 720 719 700 687 715 664 751 712 679 672 632 721 648 652 660 618 648 657 609 622 623 609 641 623 696 589 660 641 637 649 624 658 624 638 630 692 756 689 721 733 817 749 790 865 831 832 934 913 915 898 929 986 1013 976 1060 1084 1077 1128 1115 1181 1201 1207 1199 1211 1241 1209 1158 1204 1172 1139 1146 1122 1157 1129 1104 1118 1078 1036 1014 1061 987 1055 1023 951 929 867 902 887 815 869 845 777 749 809 716 721 695 709 705 704 730 703 746 691 666 645 620 667 608 632 643 681 653 640 644 626 705 605 599 677 599 650 639 579 626 631 636 618 640 603 637 660 643 609 633 638 636 628 611 632 623 575 620 621 595 585 619 591 605 567 579 630 593 634 568 554 535 519 567 568 573 551 583 523 545 557 551 532 532 531 555 544 556 549 567 554 509 554 515 530 531 526 545 553 539 529 508 523 509 508 511 573 514 541 520 577 539 539 575 547 586 537 575 510 547 543 539 520 521 506 540 576 597 545 588 544 525 524 520 508 561 532 532 508 539 526 510 557 524 505 504 557 518 488 500 531 496 480 516 510 534 538 536 511 510 516 562 490 509 574 495 560 529 559 570 568 529 581 598 595 609 602 543 613 576 634 615 608 619 680 601 659 630 667 709 618 694 703 701 649 659 731 681 738 687 692 726 722 668 721 723 751 734 701 697 724 655 676 699 690 647 662 642 658 687 703 676 673 628 630 654 638 690 612 574 618 630 634 548 614 613 641 575 664 556 616 588 627 631 632 612 644 645 639 614 668 664 619 619 667 634 644 604 632 685 643 669 649 641 657 622 627 640 669 597 612 614 612 631 592 608 598 597 604 580 607 583 585 581 573 561 571 581 569 578 521 604 565 594 572 548 582 558 576 564 533 536 554 608 576 594 599 554 613 580 544 660 594 585 624 566 631 618 568 607 553 591 584 560 592 559 579 587 570 538 552 508 539 544 567 569 576 534 576 549 604 562 540 529 522 572 589 529 559 529 550 560 509 552 500 540 569 556 552 582 517 553 549 525 582 594 577 555 572 561 603 522 528 569 549 586 565 619 546 558 542 561 545 538 499 554 587 575 566 580 551 532 558 528 582 523 534 559 578 619 542 528 553 530 586 519 554 577 566 539 544 530 562 566 538 547 517 550 554 530 522 556 569 552 554 510 500 547 520 491 541 580 505 515 523 572 523 553 537 508 536 512 501 517 507 525 517 529 534 587 521 542 437 554 511 533 546 567 575 572 514 520 509 557 482 480 542 517 479 506 502 546 516 516 512 496 511 554 537 524 537 530 526 550 512 513 474 512 502 512 481 522 561 484 475 491 480 499 503 551 519 503 515 536 501 488 543 501 511 494 459 510 500 509 553 516 513 503 504 522 469 472 512 485 509 500 474 516 462 462 456 451 403 449 463 494 467 482 449 455 450 502 483 429 467 481 452 457 454 432 470 452 460 433 456 466 461 471 466 469 440 494 465 480 503 483 484 489 503 510 474 486 536 472 511 518 468 487 539 473 475 497 499 540 482 492 526 494 529 502 513 505 500 522 476 491 499 480 520 501 455 486 456 535 482 487 451 513 491 484 455 498 420 499 492 471 487 494 457 517 464 482 475 467 486 445 498 491 497 485 485 482 465 470 479 481 468 483 475 495 504 485 520 484 496 493 480 521 537 522 481 522 499 519 512 452 500 562 541 544 462 519 459 516 528 518 480 564 514 506 490 547 497 525 483 552 521 556 574 587 561 549 557 556 575 562 577 574 547 592 612 572 555 569 518 544 560 580 565 586 587 604 584 581 521 539 545 585 543 577 511 534 581 540 479 497 501 511 507 476 499 528 486 477 517 485 530 483 478 499 489 459 542 491 494 498 434 476 521 493 445 515 467 501 494 517 478 487 481 497 511 507 481 537 514 490 503 519 536 528 537 550 561 551 516 558 551 575 582 568 570 553 590 583 566 554 565 531 558 519 546 540 542 576 545 589 511 537 556 556 518 555 537 524 562 488 493 546 478 531 504 516 467 491 478 510 511 537 499 483 515 488 504 481 464 479 459 457 481 426 469 462 416 471 427 438 425 480 471 459 491 440 490 473 465 499 473 477 454 511 469 485 480 471 500 495 511 522 520 439 509 530 508 481 507 492 523 503 544 502 531 511 517 492 544 494 543 514 490 504 507 520 566 485 483 528 475 497 498 516 541 457 466 478 471 496 507 494 514 492 493 503 508 490 483 487 509 467 473 485 476 498 491 486 443 484 501 486 491 467 484 487 489 496 477 526 508 467 487 499 495 513 513 541 566 561 538 588 571 619 586 610 622 603 656 716 697 749 713 655 716 775 766 776 810 813 843 830 786 795 829 795 763 775 772 738 758 731 702 752 679 673 705 675 670 637 664 611 616 583 635 550 618 581 588 566 557 531 521 554 560 506 568 492 501 483 450 504 518 481 493 485 508 485 486 539 548 560 516 515 480 496 475 459 462 541 490 482 500 450 470 463 502 488 514 477 511 494 490 532 513 535 532 521 524 539 547 497 539 544 602 557 574 569 590 602 569 614 638 606 655 639 612 668 626 648 618 638 641 636 667 579 588 591 578 532 523 559 545 554 624 556 555 589 552 538 532 527 509 500 548 519 542 511 506 498 550 507 459 501 512 543 485 465 492 476 501 514 467 496 492 500 436 466 459 509 495 471 494 471 469 488 484 465 474 477 542 483 493 514 484 534 489 507 497 495 514 503 535 507 488 533 509 519 516 510 480 451 480 525 474 499 485 502 514 509 499 490 489 470 499 447 477 495 469 499 519 474 507 500 510 517 476 487 510 511 523 485 469 466 489 496 482 441 472 493 470 519 513 479 478 481 493 499 472 517 497 512 498 493 478 520 437 457 495 510 474 482 473 511 508 489 494 497 457 503 488 469 483 487 494 503 481 487 478 477 439 482 503 514 496 498 497 492 515 506 478 482 500 450 475 450 469 496 463 514 504 504 489 475 458 507 498 512 483 522 474 534 525 518 475 506 484 511 510 516 485 496 546 495 542 492 541 562 547 546 491 566 510 526 547 539 526 517 551 488 559 508 529 523 552 477 529 536 529 525 565 551 498 472 558 494 503 497 490 489 471 533 442 516 476 487 474 501 487 452 453 447 437 432 450 469 436 435 458 416 461 420 439 438 465 492 494 448 468 443 428 435 438 479 463 530 459 457 435 461 479 467 491 468 549 473 502 465 478 480 515 489 465 496 443 472 475 453 493 447 490 465 506 448 478 500 482 497 452 471 441 439 474 505 508 487 492 459 475 506 466 464 474 490 469 455 482 418 444 454 417 452 415 438 470 456 429 457 477 447 454 474 446 426 455 473 436 461 441 425 427 422 419 452 411 446 437 465 405 445 401 407 459 440 430 431 428 381 418 457 440 424 466 425 444 447 446 450 454 455 441 463 431 432 408 454 407 448 396 446 456 471 442 433 454 451 468 423 479 434 427 430 420 430 427 441 452 428 423 485 436 461 413 435 433 425 459 444 444 437 466 431 476 422 444 456 443 502 458 440 446 478 463 439 428 470 494 439 451 460 481 503 510 445 437 453 466 460 469 464 465 478 487 481 466 448 458 497 431 446 479 460 463 458 500 471 472 444 481 431 475 449 452 516 502 481 457 462 444 450 399 466 503 460 434 418 441 403 419 429 483 423 439 430 449 442 474 442 469 460 492 482 432 429 467 494 476 472 475 455 480 475 476 458 497 470 493 463 467 479 450 487 464 475 467 506 514 495 475 465 459 496 460 496 502 522 524 503 510 509 516 496 492 542 501 548 508 544 502 506 511 527 568 486 534 491 507 524 490 545 492 526 548 522 515 521 515 517 509 521 505 535 492 499 513 509 500 533 495 512 497 538 533 528 513 548 515 517 499 539 559 539 512 565 556 630 582 540 625 626 620 601 680 688 674 628 665 677 673 662 648 611 605 627 613 598 600 598 628 581 587 586 612 625 607 587 646 620 621 596 664 610 636 648 632 638 653 716 650 675 663 681 718 679 715 706 662 714 692 715 720 721 709 688 677 703 715 691 790 723 775 757 746 765 746 759 731 742 702 684 706 659 697 660 659 678 605 635 596 603 639 622 658 597 644 610 586 574 605 573 571 546 551 551 585 528 531 524 536 556 528 513 561 535 473 503 496 488 492 506 461 506 445 488 464 462 551 510 483 522 454 450 474 492 486 468 459 472 492 509 481 523 474 480 442 482 506 453 488 444 410 471 448 445 481 435 465 444 463 445 458 445 476 486 487 458 506 494 505 504 467 447 455 521 476 441 471 484 462 498 488 498 516 503 506 443 506 490 501 494 457 524 460 524 430 499 491 468 509 479 480 466 508 468 466 499 468 489 477 497 507 517 497 492 458 508 514 520 475 495 547 513 477 549 484 506 517 524 522 556 516 546 528 600 603 614 579 556 599 620 611 649 652 595 625 641 669 623 640 668 641 616 645 666 620 651 649 650 651 663 617 664 652 615 661 635 647 661 651 616 693 635 613 631 584 631 608 626 622 621 616 590 651 583 614 568 522 605 576 521 542 542 541 528 560 533 555 525 513 565 528 536 560 578 548 584 510 535 533 584 542 549 608 563 575 611 614 592 605 579 557 559 568 616 549 600 571 563 606 578 614 612 585 575 587 683 613 591 557 570 571 617 606 612 583 555 567 589 625 568 607 575 598 576 538 570 577 556 556 525 551 568 543 470 550 537 516 489 505 532 554 516 491 527 527 534 502 468 495 527 511 487 460 523 480 508 485 452 511 514 489 504 452 477 484 486 494 466 503 484 492 489 509 485 530 485 528 496 497 521 528 501 510 499 497 513 484 477 485 506 543 481 495 479 469 550 479 481 519 451 487 473 511 493 499 509 519 475 453 457 498 462 499 503 480 447 458 507 466 463 462 469 505 464 474 483 479 478 460 474 455 481 501 476 469 494 458 538 466 525 476 440 462 481 480 466 491 460 474 497 478 554 464 493 501 458 507 466 513 539 523 491 499 545 490 537 511 521 509 492 506 444 510 527 472 528 437 497 465 484 457 471 460 459 480 463 472 476 480 465 502 500 439 480 457 440 456 488 492 481 494 524 479 499 477 489 456 465 435 480 449 460 432 455 478 490 500 493 427 427 482 473 527 461 470 453 445 450 456 470 400 479 495 483 452 473 469 459 499 456 462 444 460 465 460 465 506 510 456 445 470 481 469 447 468 492 473 468 468 497 454 514 502 488 495 465 509 466 523 467 482 511 500 482 453 484 471 469 440 483 467 454 500 438 448 457 464 516 488 447 483 490 461 487 437 531 494 477 466 479 487 464 479 464 460 438 472 491 477 454 432 492 457 422 476 457 466 450 480 458 472 459 453 448 445 443 428 462 455 473 469 452 437 449 480 422 448 451 467 468 480 471 440 423 443 496 481 493 470 425 486 478 457 444 423 460 451 438 442 484 448 430 471 404 499 446 480 467 436 463 457 466 473 450 465 454 425 432 445 462 431 483 432 467 422 463 437 456 437 441 469 425 434 428 463 406 431 415 452 482 454 447 409 394 457 385 478 410 412 483 449 427 473 433 437 451 430 414 447 449 437 443 447 436 460 473 401 416 437 410 425 441 453 482 429 427 443 435 452 424 429 405 412 411 401 474 442 456 472 439 462 444 442 450 467 523 459 481 489 454 514 448 463 468 486 502 475 466 480 457 500 485 461 475 503 479 473 447 481 447 459 478 490 455 452 431 475 456 471 454 488 434 466 475 464 501 454 497 442 526 468 466 473 434 505 502 470 490 481 462 434 472 492 470 485 458 489 439 509 443 464 457 475 459 440 466 514 469 471 456 429 485 484 515 487 486 531 525 510 468 493 518 531 514 512 532 514 519 540 517 495 503 496 505 525 491 511 500 486 497 467 480 499 496 469 537 517 445 518 520 494 526 513 490 508 492 513 484 511 499 496 521 508 467 504 482 462 500 518 495 520 486 497 537 497 504 519 530 500 474 512 522 564 521 538 491 501 515 553 508 493 526 505 546 525 510 519 500 497 524 496 524 553 550 503 554 557 533 538 531 542 513 555 528 534 492 539 545 576 553 564 520 530 565 571 551 541 519 564 560 551 581 525 601 584 527 472 538 499 545 564 536 520 518 541 483 572 531 543 529 544 519 497 511 486 487 499 531 526 508 483 502 524 519 517 487 499 451 479 501 522 496 521 522 455 487 475 473 515 487 473 487 519 489 476 511 521 469 487 451 460 411 504 510 443 506 493 470 482 454 467 466 515 477 440 479 455 476 468 487 487 488 456 496 469 494 507 503 436 464 511 462 528 497 469 464 481 450 475 474 483 461 490 483 511 491 484 504 488 513 502 525 521 506 548 476 525 553 563 535 521 521 502 533 521 505 536 494 543 509 506 515 572 501 524 542 476 525 496 530 563 495 519 522 544 510 516 518 535 545 548 535 560 526 540 500 521 573 499 508 518 546 518 551 543 515 571 588 553 562 603 618 607 643 652 632 711 717 758 744 752 781 819 821 855 805 888 878 918 839 834 831 891 820 813 887 822 895 787 837 831 816 802 805 749 789 789 784 808 817 831 841 846 826 812 854 807 798 798 776 746 827 733 741 733 692 772 710 713 686 684 730 654 717 668 675 645 691 659 659 660 650 680 662 683 715 658 652 691 694 684 710 667 705 687 709 686 729 751 738 754 745 716 710 753 709 708 705 711 692 691 701 660 737 680 701 673 622 678 659 656 628 634 675 628 691 629 717 660 702 667 624 699 664 673 633 661 609 613 663 616 623 549 596 583 573 585 502 567 554 598 551 567 529 565 579 539 560 512 523 535 524 536 536 509 532 516 489 520 520 492 535 497 474 479 507 478 455 469 507 452 457 480 472 460 484 469 504 478 452 441 490 468 471 458 469 493 473 480 446 476 440 448 395 516 440 441 476 466 476 454 491 459 436 455 425 492 492 463 457 500 459 464 453 486 472 486 435 434 458 461 467 481 457 482 493 463 468 475 505 470 436 457 473 466 469 452 446 472 452 534 468 489 485 458 486 477 444 435 470 453 501 430 489 407 506 464 510 468 484 464 473 470 465 479 468 436 466 445 525 485 511 509 455 477 499 486 463 454 488 440 486 434 475 450 475 488 499 451 443 463 503 480 490 419 479 455 478 444 465 476 509 490 480 518 445 495 454 476 466 473 459 480 517 485 487 506 489 504 510 505 477 527 529 503 516 499 488 501 498 465 458 500 415 500 464 478 494 522 515 483 455 494 519 468 449 445 469 435 464 481 472 463 502 463 471 491 478 406 462 442 471 448 452 472 459 461 480 458 447 446 458 423 454 409 451 436 440 464 423 444 425 432 411 437 463 451 435 413 433 462 433 400 441 410 405 437 435 443 448 437 395 440 450 382 436 387 424 431 397 432 391 418 439 455 398 386 416 418 424 458 405 414 403 460 408 391 418 426 397 409 411 460 388 407 408 408 429 434 421 397 440 437 456 444 436 456 443 405 452 418 421 431 414 429 427 418 447 373 425 425 460 446 401 423 427 422 402 402 386 386 395 435 403 443 424 392 402 432 450 449 409 433 415 398 404 478 433 463 447 444 446 435 407 417 392 437 450 447 439 409 452 446 415 405 451 451 427 462 477 465 406 442 455 435 423 469 412 434 460 452 439 452 509 456 475 468 453 450 468 400 439 420 430 456 451 465 399 457 419 420 459 456 442 458 451 457 429 485 419 466 434 440 476 382 446 442 421 373 429 428 393 465 461 445 423 430 450 414 412 436 440 429 429 415 430 416 393 422 444 404 477 411 430 433 401 428 394 413 417 409 386 419 459 447 457 398 442 425 450 464 427 404 438 447 424 473 414 437 422 462 429 464 470 417 426 417 449 419 455 436 443 441 471 442 437 476 488 488 441 478 443 480 418 469 467 441 468 408 456 470 467 461 441 456 463 472 453 467 403 440 445 484 444 426 492 478 471 486 482 431 458 481 451 480 511 530 501 497 481 486 477 516 514 487 543 583 517 568 502 526 556 564 567 587 608 584 588 594 590 552 630 577 549 527 571 523 551 550 558 570 513 583 523 519 506 518 536 529 533 550 519 511 547 581 583 519 521 501 542 578 553 526 554 561 561 530 483 554 563 556</counts>
			</dataPoints>
		</scan>
	</xrdMeasurement>
</xrdMeasurements>
