<?xml version="1.0"?>
<xrdMeasurements xmlns="http://www.xrdml.com/XRDMeasurement/2.3" xmlns:xsi="http://www.w3.org/2001/XMLSchema-instance" xsi:schemaLocation="http://www.xrdml.com/XRDMeasurement/2.3 http://www.xrdml.com/XRDMeasurement/2.3/XRDMeasurement.xsd" status="Completed" recordIdentifier="{D56599CA-0FED-40C7-9B9B-4F5CA5B53375}">
	<comment>
		<entry/>
	</comment>
	<sample type="To be analyzed">
		<id>GPSS_Li1p45Mg0p6Mn0p15Bi0p1Ta0p15Cl4_112425_69248ac4f4e53d1f723993d8</id>
		<name></name>
		<preparedBy></preparedBy>
	</sample>
	<xrdMeasurement measurementType="Scan" status="Completed" sampleMode="Reflection">
		<usedWavelength intended="K-Alpha 1">
			<kAlpha1 unit="Angstrom">1.5405980</kAlpha1>
			<kAlpha2 unit="Angstrom">1.5444260</kAlpha2>
			<kBeta unit="Angstrom">1.3922500</kBeta>
			<ratioKAlpha2KAlpha1>0.5000</ratioKAlpha2KAlpha1>
		</usedWavelength>
		<incidentBeamPath>
			<radius unit="mm">145.00</radius>
			<xRayTube id="1010048" name="Empyrean Cu LFF HR (9430 033 7310x)">
				<tension unit="kV">40.0</tension>
				<current unit="mA">15.0</current>
				<anodeMaterial>Cu</anodeMaterial>
				<focus type="Line">
					<length unit="mm">12.0</length>
					<width unit="mm">0.4</width>
					<takeOffAngle unit="deg">6.0</takeOffAngle>
				</focus>
			</xRayTube>
			<sollerSlit id="21010002" name="Soller slits 0.04 rad.">
				<opening unit="rad">0.0400</opening>
			</sollerSlit>
			<mask id="22031000" name="Fixed mask 13 mm">
				<width unit="mm">9.00</width>
			</mask>
			<divergenceSlit id="22120001" name="Divergence slit 1°" xsi:type="fixedDivergenceSlitType">
				<distanceToSample unit="mm">50.00</distanceToSample>
				<height unit="mm">1.52</height>
			</divergenceSlit>
		</incidentBeamPath>
		<sampleMovement xsi:type="spinningSampleMovementType">
			<spinnerRevolutionTime unit="seconds">1.0</spinnerRevolutionTime>
		</sampleMovement>
		<diffractedBeamPath>
			<radius unit="mm">145.00</radius>
			<antiScatterSlit id="22090040" name="AS slit 9 mm (PIXcel)" xsi:type="fixedAntiScatterSlitType">
				<height unit="mm">9.00</height>
			</antiScatterSlit>
			<sollerSlit id="21020003" name="Large Soller slits 0.04 rad.">
				<opening unit="rad">0.0400</opening>
			</sollerSlit>
			<filter id="20030001" name="Large beta-filter Nickel">
				<material>Ni</material>
				<thickness unit="mm">0.020</thickness>
			</filter>
			<detector id="7010019" name="PIXcel1D-Medipix3 detector" xsi:type="rtmsDetectorType">
				<phd unit="keV">
					<lowerLevel>4.02</lowerLevel>
					<upperLevel>11.27</upperLevel>
				</phd>
				<mode>Scanning</mode>
				<activeLength unit="deg">5.542</activeLength>
			</detector>
		</diffractedBeamPath>
		<scan appendNumber="0" mode="Continuous" scanAxis="Gonio" status="Completed">
			<header>
				<startTimeStamp>2025-11-27T11:12:28-08:00</startTimeStamp>
				<endTimeStamp>2025-11-27T11:20:35-08:00</endTimeStamp>
				<author>
					<name>AutomatedUser</name>
				</author>
				<source>
					<applicationSoftware version="1.7b (136)">PANalytical Aeris Instrument Suite</applicationSoftware>
					<instrumentControlSoftware version="3.2.00000000 20240306">AERIS</instrumentControlSoftware>
					<instrumentID>950485</instrumentID>
				</source>
			</header>
			<dataPoints>
				<positions axis="2Theta" unit="deg">
					<startPosition>10.00943322</startPosition>
					<endPosition>99.99442286</endPosition>
				</positions>
				<positions axis="Omega" unit="deg">
					<startPosition>5.00471661</startPosition>
					<endPosition>49.99721143</endPosition>
				</positions>
				<commonCountingTime unit="seconds">12.495</commonCountingTime>
				<counts unit="counts">2906 2838 2943 2888 2836 2746 2946 2800 2900 2849 2911 2938 2810 2925 2928 2840 2932 2906 2778 2929 2992 2900 2928 2892 3035 2895 2899 2872 2929 2888 2948 2896 2915 3004 2874 2852 2916 2847 2899 2822 2919 2927 2961 2990 2970 2865 2950 2888 2932 2895 2850 2899 2944 2895 2827 2928 2976 3012 2907 2922 2816 2891 2895 2914 2840 2894 2931 3018 2944 2990 2881 2833 2929 2961 2873 3014 2781 2875 2887 2995 2948 2969 2900 2858 2930 2837 2909 2941 3078 2953 2986 2896 3032 2998 3063 2941 2942 2875 2948 2933 2864 2881 2924 2858 2853 2897 2956 3056 2947 2946 2826 3026 2956 2930 2921 2971 2925 2923 2974 2883 3016 3026 2964 2876 3045 2947 2938 3062 2997 3005 2820 2918 2967 2923 3028 3015 3011 2982 2995 2940 3093 2903 2948 2951 3036 2885 3013 2943 2946 2886 3058 3037 3011 3079 2874 3027 2946 2960 2932 2951 2963 2963 2966 3033 2953 2971 3048 2999 2901 2985 3024 2957 3004 3001 2983 3002 2978 3112 2927 2835 2913 2998 2939 2942 2994 2989 2972 2884 2962 2962 3061 3002 2971 2936 2940 2987 2926 2964 2932 2887 2951 2925 2971 2955 2985 2837 2844 2997 2914 2971 2927 2886 2913 2948 2980 2969 2944 2967 2940 2947 2870 2955 2861 2858 2908 2889 2790 2955 2835 2873 2926 2851 2898 2821 2816 2801 2897 2843 2916 2995 2882 2858 2918 2891 2828 2864 2928 2868 2939 2936 2855 2834 2797 2837 2850 2762 2785 2909 2850 2861 2919 2738 2928 2848 2807 2858 2823 2942 2791 2880 2963 2915 3008 2755 2821 2841 2815 2907 2843 2780 2763 2862 2775 2953 2852 2877 2854 2853 2927 2912 2849 2817 2864 2900 2882 2820 2810 2815 2838 2770 2832 2821 2843 2882 2875 2930 2783 2953 2797 2893 2854 2830 2933 2877 2841 2844 2933 2890 2969 2971 2927 2934 2984 2868 2834 2906 2959 2977 2924 2906 2937 2911 2986 2991 2869 2977 2936 2901 2947 3062 2965 2927 2997 2926 3037 2892 2884 3005 2984 2996 3099 3016 3137 3001 3087 3053 3049 3032 3029 3022 2983 3171 3040 3120 3002 3090 3069 3063 2990 3063 3157 3068 3089 3076 3106 3129 3170 3074 3230 3019 3072 3101 3099 3160 3129 3145 3181 3257 3151 3156 3159 3172 3131 3147 3209 3161 3235 3267 3183 3289 3271 3178 3288 3370 3280 3267 3219 3195 3328 3363 3290 3331 3286 3394 3307 3402 3522 3389 3415 3307 3429 3362 3368 3484 3469 3445 3533 3612 3578 3627 3626 3629 3613 3739 3777 3816 3907 3852 3947 3932 4043 3889 4018 4034 4137 4239 4118 4213 4249 4227 4297 4384 4404 4525 4521 4630 4582 4719 4817 4823 4774 4872 5026 5053 5032 4998 5015 5118 5062 5205 4978 4889 4944 4900 4720 4682 4481 4623 4226 4085 3853 3813 3780 3807 3708 3811 3664 3753 3843 3779 3895 3779 3817 3726 3955 3856 3936 3873 3835 3970 3900 3956 4033 3928 3874 4120 3944 4033 4106 4203 4112 4212 4064 4224 4290 4291 4349 4364 4504 4564 4392 4258 4537 4602 4398 4290 4253 4400 4277 4157 4143 4027 3862 3815 3644 3633 3566 3402 3369 3330 3358 3324 3265 3235 3280 3217 3329 3213 3324 3294 3216 3267 3211 3219 3227 3261 3272 3185 3132 3270 3273 3199 3184 3239 3039 3078 3110 3201 3140 3064 3084 3032 3084 3117 3004 3067 3079 3099 3063 3087 3060 3075 3078 2977 3099 3086 3041 3119 3047 3012 2986 3042 3084 3027 3103 3066 3160 2909 3066 3066 2921 3015 2908 3131 2985 2958 2980 3031 2981 3019 2997 2945 2993 2932 3009 2916 2997 2980 2987 2879 2993 2944 3052 2942 2953 2919 2927 2958 2920 2984 2893 3001 3005 2973 2945 2900 2910 2923 2928 2886 2940 2896 3034 3037 2973 2880 2885 3000 2882 2904 2960 2961 2997 2856 2789 2827 2878 2870 2933 2897 2941 2916 2806 2982 2882 2889 2852 2854 3025 2878 2914 2920 2934 2857 2892 2834 2927 2860 2907 2871 2888 2859 2801 2899 2882 2840 2887 2927 2889 2824 2824 2724 2895 2884 2834 2793 2826 2893 2901 2825 2889 2843 2827 2943 2752 2737 2776 2806 2906 2849 2854 2828 2738 2783 2824 2771 2873 2790 2833 2880 2865 2762 2857 2836 2913 2862 2852 2796 2794 2785 2833 2862 2797 2827 2856 2955 2847 2812 2907 2806 2835 2762 2842 2712 2767 2810 2839 2839 2774 2886 2800 2714 2840 2720 2802 2834 2750 2755 2806 2814 2831 2776 2783 2734 2757 2753 2769 2766 2764 2744 2684 2736 2769 2824 2814 2737 2841 2797 2765 2794 2750 2784 2791 2835 2809 2860 2589 2781 2775 2789 2824 2666 2778 2736 2719 2802 2803 2735 2720 2812 2741 2722 2768 2703 2765 2757 2603 2718 2828 2703 2742 2739 2823 2825 2773 2742 2669 2782 2746 2719 2737 2695 2712 2709 2643 2744 2739 2773 2708 2679 2747 2660 2732 2673 2634 2713 2693 2851 2695 2777 2778 2690 2699 2749 2708 2626 2724 2731 2678 2708 2710 2645 2641 2702 2635 2634 2686 2675 2654 2640 2672 2673 2643 2669 2643 2599 2599 2644 2533 2705 2680 2628 2731 2710 2704 2577 2634 2629 2606 2655 2554 2669 2631 2594 2644 2612 2722 2560 2516 2606 2539 2694 2641 2597 2537 2668 2639 2567 2666 2617 2664 2503 2678 2622 2606 2622 2610 2576 2596 2594 2604 2652 2717 2595 2622 2609 2633 2665 2663 2596 2698 2608 2645 2630 2604 2607 2618 2560 2634 2544 2550 2552 2539 2623 2616 2597 2536 2608 2620 2569 2658 2541 2626 2518 2682 2552 2521 2582 2592 2643 2550 2528 2522 2584 2571 2593 2629 2672 2602 2604 2585 2517 2499 2484 2624 2584 2643 2580 2594 2527 2546 2564 2578 2589 2556 2565 2602 2557 2516 2577 2542 2536 2593 2653 2655 2521 2540 2584 2499 2603 2636 2596 2622 2605 2627 2481 2600 2566 2591 2657 2556 2649 2581 2503 2557 2587 2510 2588 2555 2647 2458 2620 2588 2571 2416 2585 2550 2562 2524 2587 2584 2545 2465 2499 2581 2630 2554 2516 2413 2599 2451 2480 2518 2485 2571 2448 2528 2539 2535 2534 2530 2641 2548 2624 2552 2481 2564 2600 2538 2542 2576 2562 2584 2509 2458 2534 2543 2543 2610 2582 2462 2588 2527 2501 2503 2556 2494 2403 2465 2548 2529 2603 2484 2489 2490 2482 2530 2556 2581 2549 2542 2427 2574 2483 2628 2518 2515 2503 2489 2460 2495 2460 2517 2512 2453 2538 2441 2527 2517 2472 2437 2467 2478 2465 2549 2481 2620 2427 2640 2555 2528 2485 2527 2420 2539 2489 2525 2423 2525 2483 2535 2450 2474 2509 2495 2477 2428 2494 2493 2511 2529 2534 2515 2469 2478 2539 2491 2522 2578 2515 2558 2518 2612 2513 2406 2483 2473 2494 2483 2528 2425 2434 2486 2423 2496 2504 2485 2488 2512 2490 2595 2550 2454 2453 2534 2534 2538 2457 2386 2406 2513 2493 2417 2384 2443 2440 2422 2387 2445 2370 2507 2405 2414 2395 2529 2399 2371 2374 2350 2416 2456 2385 2502 2443 2533 2428 2494 2425 2404 2526 2451 2402 2440 2425 2320 2326 2462 2495 2445 2427 2437 2395 2507 2435 2460 2434 2446 2419 2426 2340 2483 2362 2438 2421 2393 2385 2411 2422 2327 2353 2322 2274 2431 2243 2384 2446 2297 2320 2338 2247 2274 2312 2280 2303 2290 2311 2220 2214 2256 2158 2243 2233 2284 2144 2175 2163 2206 2207 2206 2181 2160 2036 2088 2196 2106 2206 2151 2092 2107 2086 2084 2075 2080 2074 2113 2083 2068 2093 2057 2036 2058 2009 2053 2047 2076 2044 2000 2119 2077 1947 1973 2032 1982 2025 2106 1981 2078 2042 2096 2045 2078 2091 2004 1984 2053 1967 1929 1986 2005 1962 2011 2051 2004 1975 2014 2121 1947 1969 1935 2050 2050 2013 2046 2012 2059 2026 1964 2033 1950 1946 1971 2060 1970 2013 2049 2045 2030 2026 2015 2005 2051 1989 2041 2040 2004 1980 1940 1949 1906 1904 1950 1960 1891 1920 1994 1917 1936 1938 2012 1892 1845 1987 1902 1947 2044 1905 1870 2002 1971 1958 1862 1904 1935 1964 1868 1923 1887 1879 1910 1882 1916 1946 1867 1962 1906 1909 1886 1874 1935 1900 1889 1867 1893 1865 2001 1899 2003 1935 1819 1830 1905 1954 1929 1941 1890 1855 1919 1927 1934 1949 1925 1931 1887 1897 1921 1919 1887 1968 1941 1906 1948 1934 1964 1913 1891 1931 1896 1811 1921 1961 1888 1910 1997 1875 1867 1877 1935 1907 1954 1958 1956 2001 1868 1929 1856 1941 1983 1894 1981 1989 1867 1885 1892 1881 1963 1890 1973 1947 1922 1833 1924 1848 1897 1941 1815 1884 1854 1980 1939 1920 1855 2016 1914 1952 1842 1965 1939 1949 1927 1921 1924 1904 2000 1914 1941 1854 1920 1922 1903 1857 1879 1950 2025 1923 1915 1957 1905 1971 1919 1920 1933 1959 1856 1917 1943 1934 1843 1935 1938 1943 1965 1952 1911 1926 1953 1928 1948 1916 2048 1869 1881 1941 1893 1848 1926 1985 1994 1868 1880 1967 1893 1876 1886 1936 1958 1860 1912 1848 1862 1900 1861 1912 1892 1881 1777 1864 1865 1937 1868 1850 1850 1885 1902 1936 1868 1905 1887 1862 1896 1899 1833 1826 1856 1879 1932 1896 1888 1824 1821 1828 1890 1777 1839 1811 1827 1857 1795 1867 1798 1793 1752 1889 1932 1818 1828 1815 1823 1830 1762 1774 1801 1766 1720 1795 1827 1658 1794 1825 1707 1719 1732 1819 1776 1744 1789 1804 1785 1821 1753 1858 1720 1726 1697 1823 1777 1669 1746 1743 1799 1761 1776 1719 1770 1759 1708 1764 1663 1736 1649 1794 1673 1762 1677 1741 1699 1699 1704 1735 1744 1659 1683 1711 1742 1707 1651 1718 1702 1653 1673 1642 1699 1568 1699 1581 1655 1639 1673 1679 1617 1599 1654 1598 1685 1647 1606 1620 1561 1591 1620 1614 1634 1583 1592 1614 1573 1707 1611 1640 1654 1649 1576 1649 1660 1635 1622 1599 1679 1697 1616 1729 1656 1740 1765 1717 1795 1776 1876 1808 1835 1844 1839 1875 1818 1887 1875 1875 1822 1895 1845 1919 1978 2014 2064 2041 1998 2082 2120 2181 2211 2229 2262 2227 2304 2272 2175 2297 2382 2178 2183 2113 2132 2114 2006 1976 1916 1738 1766 1695 1733 1666 1585 1615 1650 1568 1628 1554 1549 1528 1541 1525 1597 1514 1598 1555 1596 1556 1470 1646 1549 1526 1578 1542 1583 1485 1593 1595 1648 1537 1590 1557 1495 1583 1567 1609 1635 1454 1536 1528 1530 1630 1576 1560 1505 1607 1588 1625 1540 1626 1665 1635 1640 1723 1702 1702 1730 1721 1772 1804 1806 1891 1973 2027 2208 2184 2350 2293 2681 2746 2910 3130 3359 3620 3597 3909 4173 4241 4488 4422 4647 4785 4798 4833 5013 5098 5258 5324 5510 5803 6144 6374 6672 7018 7514 7836 8417 8855 9148 9600 9961 10317 10445 10616 10814 11068 10717 10511 10276 9947 9223 8297 7716 6849 6287 5469 5008 4493 4056 3524 3151 2774 2548 2430 2389 2221 2119 2060 2098 2092 2063 2036 2086 2001 1995 2084 2132 2149 2087 2038 2110 2091 2088 2092 2011 2071 2102 1998 2049 2040 2017 1981 2021 1934 1918 1907 1919 1914 1864 1863 1853 1887 1746 1833 1756 1787 1723 1716 1657 1670 1682 1635 1583 1584 1585 1554 1484 1550 1481 1437 1480 1408 1385 1416 1479 1411 1436 1399 1437 1454 1368 1395 1418 1425 1445 1353 1425 1405 1364 1403 1443 1441 1360 1373 1415 1416 1383 1399 1382 1432 1346 1348 1331 1386 1306 1360 1332 1395 1335 1397 1415 1368 1365 1363 1338 1315 1278 1409 1278 1253 1311 1304 1274 1330 1349 1301 1262 1284 1220 1278 1303 1244 1288 1312 1273 1244 1269 1282 1254 1176 1218 1228 1229 1231 1307 1287 1270 1192 1241 1256 1250 1254 1312 1294 1265 1325 1228 1191 1288 1223 1304 1253 1229 1258 1230 1212 1249 1224 1308 1207 1209 1214 1190 1236 1143 1129 1284 1153 1200 1185 1277 1256 1228 1292 1217 1240 1164 1238 1224 1199 1172 1252 1190 1244 1186 1185 1200 1224 1218 1189 1202 1132 1193 1152 1201 1192 1152 1236 1192 1283 1215 1133 1229 1155 1236 1184 1150 1188 1201 1172 1177 1147 1166 1181 1228 1136 1112 1193 1144 1197 1179 1135 1172 1180 1158 1193 1153 1192 1186 1196 1202 1239 1227 1261 1161 1195 1162 1206 1203 1206 1148 1206 1123 1155 1151 1115 1204 1174 1121 1148 1152 1190 1186 1154 1104 1149 1167 1116 1097 1119 1204 1182 1130 1158 1111 1143 1151 1131 1136 1139 1175 1166 1222 1116 1177 1122 1172 1112 1126 1110 1072 1088 1123 1179 1141 1135 1149 1129 1190 1124 1163 1125 1140 1160 1130 1148 1150 1111 1228 1196 1189 1137 1182 1144 1170 1123 1209 1222 1134 1209 1166 1306 1165 1214 1173 1143 1173 1128 1160 1220 1247 1205 1238 1243 1253 1252 1254 1246 1184 1145 1357 1264 1275 1277 1300 1216 1218 1269 1267 1287 1277 1298 1311 1321 1295 1365 1273 1267 1286 1350 1230 1318 1295 1240 1251 1248 1251 1342 1326 1266 1305 1276 1376 1348 1347 1379 1416 1407 1369 1408 1464 1500 1447 1539 1571 1576 1643 1824 1823 1966 1987 2193 2430 2595 2725 2816 2973 3336 3436 3753 3915 3903 4167 4259 4427 4455 4497 4570 4662 4973 4957 5333 5558 5829 6072 6343 6685 6964 7411 8020 8237 8766 9152 9591 9865 10463 10171 10728 10489 10568 10371 10086 9650 9085 8717 7786 7189 6561 5922 5233 4826 4288 3916 3611 3139 2787 2439 2266 2160 2021 1890 1867 1896 1654 1675 1719 1568 1527 1641 1539 1593 1563 1606 1529 1569 1435 1492 1573 1551 1511 1504 1505 1403 1516 1516 1462 1508 1440 1500 1416 1359 1392 1401 1368 1342 1292 1310 1297 1260 1236 1295 1265 1241 1234 1236 1179 1150 1190 1157 1173 1162 1212 1196 1142 1165 1174 1137 1128 1055 1101 1137 1202 1193 1129 1208 1177 1155 1138 1075 1109 1174 1127 1132 1118 1107 1124 1230 1146 1122 1095 1097 1094 1046 1207 1088 1126 1159 1233 1106 1191 1168 1233 1158 1156 1193 1149 1193 1165 1087 1169 1129 1226 1167 1172 1119 1207 1171 1238 1182 1196 1225 1286 1141 1193 1163 1221 1226 1255 1260 1290 1269 1301 1318 1322 1310 1366 1360 1392 1323 1371 1422 1440 1341 1352 1455 1448 1341 1543 1469 1491 1483 1492 1516 1555 1529 1594 1569 1582 1634 1575 1560 1695 1627 1590 1616 1603 1673 1591 1571 1580 1501 1492 1493 1404 1338 1390 1308 1282 1361 1198 1152 1218 1133 1149 1192 1098 1111 1094 1183 1110 1151 1094 1077 1017 1111 1087 1108 1102 1128 1096 1069 1086 1129 1093 1108 1111 1060 1044 1059 1031 1052 1062 1076 1100 1044 1085 1036 1139 1011 1102 1038 1077 1064 1040 1058 1062 1066 1072 1062 1044 1063 1031 1040 1067 1065 1045 1043 1069 1076 1024 1089 1041 1060 1048 1053 1073 985 1030 1000 1043 970 1069 1038 1058 1023 1022 995 1026 1019 1033 1037 1058 1042 1097 1092 1086 1027 1040 1034 1073 1032 1121 1048 1016 1029 991 1064 996 977 1025 1006 1025 1017 1083 1060 1020 1025 1022 995 1043 1028 992 980 1020 991 1069 1090 1001 1044 1010 1041 989 1020 1053 1052 1011 988 1013 1016 1029 991 1019 1013 998 1020 1066 978 1038 974 970 985 1040 997 1019 981 952 1021 1023 1004 1002 1044 1047 1009 1076 1031 1003 975 983 969 1003 1056 1013 1008 1007 980 985 1007 986 959 975 997 951 993 984 963 1033 938 1049 1002 1016 1005 1032 1057 1011 990 932 960 994 944 964 979 922 1008 985 1004 1030 1022 934 970 996 988 947 998 972 944 966 969 1008 948 958 958 1023 1003 1051 1002 1002 1055 1021 968 1026 980 931 999 940 986 1013 966 1001 964 960 1024 942 939 946 1026 1016 1023 964 963 964 1004 964 1002 958 1016 928 954 944 930 1020 987 995 983 987 943 1030 919 870 970 998 965 965 997 905 942 998 981 1002 1026 934 1002 919 972 954 931 919 952 943 920 968 999 1017 914 983 1001 1005 1027 964 1020 986 956 998 1072 1009 1008 987 974 962 969 967 995 992 997 1009 930 952 1005 1013 910 922 940 948 882 930 904 963 959 956 957 939 992 874 931 959 950 943 911 957 973 941 929 939 919 865 966 880 931 952 914 907 952 979 902 881 956 924 930 891 944 901 918 957 914 938 922 945 909 952 943 920 961 913 975 970 856 923 909 939 929 906 934 935 912 891 881 899 904 878 897 923 955 961 895 932 936 882 927 892 934 940 932 881 883 873 889 907 877 929 973 907 933 927 970 907 941 912 945 955 937 949 946 921 940 871 914 966 951 902 950 946 898 924 894 904 928 919 917 987 888 916 869 946 919 951 888 943 961 851 925 878 974 926 921 891 873 933 862 915 908 915 896 865 919 914 926 907 953 901 915 927 959 905 940 906 878 915 887 866 899 957 909 905 902 894 944 943 888 923 915 883 945 911 890 911 902 880 827 918 918 915 941 932 891 869 896 899 969 863 884 914 947 853 809 907 909 913 926 894 890 924 884 921 921 936 923 920 947 939 939 857 949 964 994 933 953 940 996 961 968 960 1019 996 1020 1007 976 1000 1037 988 1088 1052 1045 1000 1051 979 977 988 980 1034 1007 999 969 954 937 974 936 946 859 922 922 898 886 905 935 915 865 875 861 906 859 897 841 923 889 870 886 897 843 924 874 870 886 846 892 867 898 849 876 903 882 943 903 877 895 840 865 897 935 896 893 898 890 866 844 817 918 881 890 906 893 847 870 858 937 885 885 867 866 872 860 906 874 874 836 914 860 882 899 862 928 808 851 912 832 860 896 861 906 862 802 884 859 859 863 843 829 893 890 848 832 886 849 852 858 861 817 869 882 847 861 842 890 835 887 872 870 891 824 933 851 853 843 884 862 864 861 864 855 874 891 879 884 860 861 845 862 844 878 867 845 872 886 832 855 857 848 878 892 883 906 936 956 889 942 882 915 904 932 910 906 933 879 956 921 929 882 944 911 923 929 950 1000 911 991 977 966 972 1020 1036 1002 1036 995 919 1016 1020 951 1002 954 918 914 969 880 923 936 891 919 871 877 899 908 952 887 880 850 904 861 918 898 889 913 894 960 907 966 941 1002 1053 1010 1019 1073 1184 1035 1106 1115 1115 1171 1161 1244 1132 1184 1245 1205 1361 1189 1280 1319 1328 1401 1442 1474 1661 1631 1682 1702 1744 1809 1749 1785 1839 1879 1850 1696 1782 1695 1556 1601 1495 1550 1379 1385 1278 1289 1189 1155 1151 1169 1060 1093 991 978 944 918 987 898 910 905 879 914 841 813 895 877 893 880 888 879 872 821 843 850 810 825 851 892 859 863 862 881 899 854 907 935 808 939 823 891 871 846 873 879 880 821 842 886 896 893 818 825 879 868 867 858 906 865 819 856 885 829 915 856 906 842 880 896 881 835 899 868 811 873 846 897 826 867 844 809 827 880 858 842 857 884 893 836 859 866 953 831 868 863 780 836 894 867 919 890 880 819 827 871 901 849 834 870 847 849 820 875 900 923 880 874 872 882 862 821 862 869 937 879 907 878 872 912 868 888 897 914 911 928 851 902 908 892 884 815 915 876 887 896 866 875 907 937 859 905 892 884 865 914 863 888 902 861 936 880 936 912 933 909 892 907 860 897 909 897 912 920 852 934 825 926 904 909 925 913 894 927 957 910 892 934 963 975 991 948 932 976 944 998 941 977 966 966 955 966 938 985 974 979 1001 918 884 958 915 830 913 979 870 879 891 901 866 922 850 908 848 892 878 880 868 887 907 868 859 877 923 831 851 916 912 873 874 863 849 867 884 830 854 862 867 874 918 843 898 855 846 822 845 865 919 863 881 860 878 835 861 850 888 889 875 863 889 880 890 860 896 841 894 912 819 901 869 933 881 831 881 914 843 913 917 903 838 866 905 918 937 940 914 935 921 934 805 928 890 905 857 922 853 978 903 886 850 942 865 913 922 902 897 889 897 958 985 978 990 1020 1027 995 1002 955 971 1046 1075 1016 1060 1047 1077 1155 1169 1094 1237 1231 1326 1382 1439 1580 1610 1665 1877 2055 2103 2226 2327 2315 2417 2574 2586 2699 2769 2844 2984 3148 3272 3438 3505 3840 3943 4349 4440 4881 5087 5564 5725 6077 6292 6509 6895 6934 7039 6973 7038 6973 6614 6375 6065 5563 5399 5024 4769 4609 4370 4202 3901 3801 3518 3179 2968 2638 2298 2171 1985 1733 1660 1536 1466 1432 1359 1355 1264 1161 1159 1149 1195 1086 1122 1066 1120 1053 1079 1080 1049 1052 1059 1022 1024 1056 1005 1034 1010 1026 970 1031 1021 1001 1002 1050 1008 1047 1029 970 1026 1017 1040 1021 976 1048 1044 1031 1016 1015 1043 1016 1069 997 1067 972 1002 967 999 968 925 905 935 994 929 948 937 920 960 949 926 894 926 883 864 885 863 882 864 878 877 878 869 912 898 886 875 935 854 879 883 900 888 844 824 878 850 881 876 854 824 857 844 902 857 895 807 890 870 898 861 830 886 840 906 901 873 888 822 863 901 866 879 867 850 874 859 847 868 820 849 867 836 834 856 903 809 852 809 857 854 874 857 905 848 841 841 910 927 854 879 891 874 912 921 876 857 895 885 901 835 837 903 909 869 909 923 910 928 956 923 938 937 948 926 1016 1007 1008 1005 1034 1025 1013 1053 1063 1028 1088 1128 1110 1157 1158 1178 1120 1235 1221 1307 1280 1360 1346 1338 1408 1344 1450 1461 1450 1410 1402 1357 1443 1335 1331 1274 1317 1314 1342 1342 1328 1270 1272 1189 1135 1126 1126 1106 1049 1057 1088 1023 991 1048 1023 964 1004 964 941 996 873 924 935 925 909 923 940 876 917 899 930 932 949 954 973 957 998 996 915 965 932 935 970 988 975 960 966 963 1008 1044 1075 1080 1038 1002 992 1046 1118 1068 1116 1063 1120 1092 1090 1047 988 1020 1015 999 972 972 971 1009 940 913 890 912 934 886 864 843 885 877 882 859 854 818 886 820 813 823 848 832 804 892 843 827 795 808 865 828 865 815 810 810 854 797 798 798 800 827 851 846 856 838 830 800 812 851 840 828 828 799 805 831 810 816 822 774 820 795 843 804 903 832 810 759 798 803 867 800 796 800 823 774 778 805 789 810 770 787 795 864 822 814 732 824 834 736 823 847 844 810 816 759 834 808 796 830 835 794 812 831 846 836 806 761 775 829 821 804 818 819 785 804 829 791 778 817 810 815 829 805 826 774 787 785 815 785 810 835 783 857 824 801 820 781 781 855 787 827 720 820 840 786 819 811 774 775 801 798 805 786 765 820 757 807 824 797 832 821 778 836 848 855 819 778 839 842 845 889 832 849 833 879 803 878 925 892 876 869 845 892 906 821 871 858 830 856 801 824 876 841 914 865 866 773 821 851 871 822 832 845 822 827 883 824 792 799 827 871 841 828 883 925 853 881 829 906 874 862 877 855 887 952 851 860 844 836 798 849 796 784 832 845 866 792 833 832 792 828 800 867 776 825 806 778 782 742 842 782 776 811 795 828 800 760 789 714 761 762 794 794 816 807 787 815 764 753 737 796 802 790 760 806 789 746 816 801 769 774 747 790 782 796 802 827 759 741 774 759 807 764 774 796 784 785 772 794 771 792 761 729 721 747 812 728 719 731 815 769 796 770 812 812 805 788 786 808 831 805 772 827 796 788 846 819 769 784 732 740 804 812 765 767 824 826 758 788 835 825 827 807 830 833 817 822 851 822 818 801 789 836 855 801 823 855 881 837 881 858 782 858 858 826 790 836 795 863 862 774 870 800 832 799 810 831 748 752 786 803 786 849 826 788 785 819 817 762 735 787 784 759 788 819 764 819 788 813 745 790 743 825 745 844 782 772 809 759 740 799 809 828 736 831 801 779 722 807 779 769 781 758 767 779 697 766 751 761 793 755 732 733 758 752 796 808 728 750 769 783 800 836 785 807 797 803 791 806 818 827 763 781 761 821 813 858 792 755 834 801 815 800 828 803 835 815 894 874 851 878 909 900 828 920 891 904 879 884 943 941 883 921 850 892 837 865 885 901 896 876 836 893 875 835 888 855 828 832 863 868 804 844 875 824 849 900 845 832 882 944 895 935 928 915 1059 1130 1098 1119 1173 1172 1189 1222 1307 1247 1286 1308 1364 1276 1397 1486 1513 1554 1584 1728 1776 1818 1920 2115 2103 2184 2283 2459 2490 2441 2559 2547 2542 2433 2413 2335 2188 2105 2117 2013 1991 1880 1826 1879 1804 1665 1705 1664 1591 1521 1421 1353 1333 1269 1155 1184 1088 997 1013 1006 980 930 887 874 829 884 877 843 808 805 868 818 823 833 849 843 781 795 840 863 771 808 799 770 819 842 740 745 790 758 811 795 785 792 804 770 842 811 816 847 778 829 831 823 774 856 852 806 857 820 906 820 856 800 864 856 816 849 889 873 854 845 842 839 803 792 848 819 858 854 864 835 868 885 835 815 849 818 812 825 799 812 844 763 826 813 777 791 741 804 784 728 709 811 783 743 787 758 722 734 760 712 751 774 751 749 763 709 758 776 705 746 800 690 770 778 774 754 763 720 774 728 756 766 676 737 776 718 755 816 798 707 739 710 717 761 786 766 752 732 689 763 745 774 703 780 829 764 755 787 749 772 779 793 737 747 800 756 743 701 771 789 765 754 786 767 751 779 739 768 742 762 775 840 771 758 783 789 827 757 802 784 778 795 844 736 791 790 776 777 792 831 815 777 805 798 855 842 816 876 859 879 861 944 896 1014 985 1059 1039 1114 1098 1152 1240 1139 1132 1258 1205 1227 1314 1361 1324 1467 1532 1588 1632 1808 1773 1882 2048 2150 2160 2354 2338 2523 2546 2589 2575 2580 2520 2370 2437 2195 2058 2119 2072 1915 1913 1763 1782 1804 1756 1759 1809 1627 1600 1514 1442 1372 1323 1230 1172 1114 1016 1004 1032 952 925 854 914 857 872 861 855 824 809 847 815 819 829 777 777 811 750 789 779 765 768 744 755 802 755 783 786 724 751 758 747 748 768 761 763 734 761 739 764 774 754 831 725 775 776 765 790 765 745 796 793 783 756 746 829 735 760 763 751 758 769 793 770 792 749 739 712 764 765 741 768 814 743 754 816 776 730 721 729 730 733 738 788 738 781 731 733 750 723 717 748 722 773 740 785 744 710 704 774 739 783 764 740 723 726 737 757 723 719 727 766 754 750 781 751 777 733 753 764 770 750 745 699 791 761 691 778 729 746 739 773 714 781 755 760 704 760 811 847 836 767 742 843 806 836 833 868 842 879 828 852 855 864 858 913 889 957 986 987 971 1079 1060 1023 1024 1072 970 989 998 1050 990 956 929 890 894 936 955 910 951 935 874 880 843 834 823 858 852 807 822 801 776 778 828 800 788 686 756 748 738 750 729 773 838 746 702 753 723 690 713 717 774 762 705 718 717 753 725 719 812 749 789 789 795 734 752 725 735 752 729 793 766 797 743 781 756 767 714 713 738 715 699 755 761 777 709 736 727 729 703 728 695 705 690 701 748 723 669 640 675 708 715 740 673 675 739 754 729 689 632 689 718 681 730 692 705 741 714 737 686 701 722 719 719 705 757 627 678 677 714 718 670 707 712 687 661 680 659 694 718 652 698 712 700 694 693 670 660 706 749 682 738 727 729 688 745 642 715 730 686 761 704 764 768 708 708 761 712 755 681 744 744 746 809 769 775 750 785 787 807 781 735 729 711 710 742 732 757 769 747 755 783 728 746 691 759 705 696 716 749 689 734 754 732 755 714 698 664 742 718 712 681 674 670 680 718 666 658 657 687 688 739 692 644 687 681 704 684 699 717 713 689 676 685 671 682 686 698 655 683 625 680 691 683 709 691 695 669 679 739 690 690 700 654 676 672 633 675 684 696 699 689 693 707 722 694 736 673 689 697 703 649 672 730 716 705 675 706 693 695 741 695 681 715 719 730 770 679 692 694 711 694 741 733 754 711 748 736 731 684 663 698 695 706 721 749 734 730 678 724 689 712 662 694 735 685 754 705 744 687 672 738 692 757 690 716 696 709 715 709 722 658 711 665 639 696 663 688 627 646 721 688 688 670 721 701 694 695 699 653 736 692 699 706 681 649 721 648 673 674 685 633 699 674 700 650 682 663 651 723 648 701 635 698 658 657 689 683 720 662 615 713 692 700 677 652 643 648 671 689 681 639 671 705 655 726 651 685 680 697 684 670 628 668 657 681 667 660 653 643 676 663 657 662 610 649 714 691 645 627 694 714 674 730 653 708 675 681 665 658 690 650 639 677 673 679 654 673 662 696 641 614 671 678 704 671 652 680 616 645 645 690 679 636 695 659 661 648 654 676 668 705 636 649 643 664 692 684 668 664 682 688 724 724 743 690 652 671 734 728 762 749 779 700 726 711 717 740 741 731 723 763 761 774 704 787 786 825 850 867 877 815 820 841 871 901 889 897 877 890 878 868 843 804 839 824 829 788 815 756 767 770 761 771 767 793 755 812 773 797 759 688 755 659 756 663 751 690 629 715 641 714 723 685 691 649 659 591 694 670 682 689 692 643 665 699 625 667 687 686 673 691 707 693 684 687 673 634 657 688 669 635 720 667 662 665 682 624 697 605 645 719 703 647 659 718 661 667 701 677 641 691 635 644 691 668 682 690 615 690 669 619 687 679 648 632 661 716 673 667 678 679 630 709 752 666 617 678 708 714 671 648 677 690 650 639 598 668 639 676 666 636 647 669 652 680 669 710 675 626 704 667 670 721 657 687 696 674 646 705 630 624 646 611 651 663 627 655 653 647 687 683 645 664 641 655 657 693 692 646 641 643 641 651 661 674 671 649 658 600 705 696 634 672 686 690 671 643 681 632 657 648 683 659 640 633 634 686 670 656 640 660 682 679 725 682 706 668 648 700 669 688 646 685 649 641 650 688 700 606 669 675 694 607 673 661 666 656 672 659 696 661 652 678 681 661 627 624 665 688 681 658 671 663 671 692 684 678 667 666 710 682 672 660 647 684 678 675 688 715 654 658 655 695 725 700 742 721 703 658 746 646 678 695 682 689 761 717 746 717 768 768 781 827 785 785 808 860 834 845 887 835 880 912 936 936 966 919 1016 1010 1001 1004 1068 1086 1163 1119 1202 1234 1250 1167 1220 1178 1197 1129 1140 1116 1156 1014 1037 1090 1002 992 1013 1012 997 921 915 982 943 999 983 942 918 881 871 856 811 870 830 800 726 763 746 726 785 755 741 710 692 694 790 725 775 737 756 723 703 728 700 727 697 756 686 751 719 730 663 740 666 679 713 663 707 721 697 642 696 713 693 706 715 728 691 691 708 704 702 694 703 658 701 679 685 693 665 693 682 661 654 753 657 697 670 696 696 726 729 664 705 724 662 647 734 645 675 665 662 689 694 682 685 651 669 703 665 679 713 666 690 641 755 701 653 648 670 682 678 676 690 642 685 668 649 654 702 703 652 620 688 645 713 676 616 681 667 681 638 668 718 662 707 668 667 719 671 666 660 630 682 686 673 692 693 681 680 729 683 671 670 656 698 677 663 669 725 679 667 636 728 716 686 650 665 675 656 691 678 663 679 673 698 700 721 700 707 712 683 685 661 682 714 702 679 657 658 659 673 650 651 628 684 647 664 678 626 664 679 626 669 635 670 673 635 655 650 643 664 687 674 686 643 679 646 669 695 659 622 641 676 716 643 672 666 659 665 643 671 684 663 661 646 629 616 629 617 707 675 661 675 666 667 633 700 608 634 660 642 661 684 637 638 641 668 624 671 616 625 672 619 636 619 664 673 688 625 669 635 651 672 682 622 630 692 700 664 673 645 665 662 658 702 689 672 656 618 648 659 695 722 711 665 676 644 637 621 632 643 710 656 669 641 654 706 721 638 681 659 734 672 680 684 696 619 628 663 670 630 665 698 666 702 614 658 626 646 653 680 635 660 688 611 640 667 676 661 634 620 651 653 598 645 655 638 696 639 633 622 622 649 709 575 665 668 645 630 693 674 660 687 659 653 696 687 687 679 683 636 643 671 656 641 651 690 698 686 631 601 681 679 668 677 658 642 629 619 688 704 647 646 650 697 653 665 639 652 625 683 680 692 648 641 703 675 711 717 650 687 697 709 660 681 688 674 669 688 663 701 614 656 689 705 642 676 701 679 619 711 706 705 655 651 684 652 653 674 673 669 699 699 650 697 707 651 664 656 695 668 676 642 646 717 673 678 731 673 685 671 659 631 650 654 671 663 695 688 682 663 653 665 672 655 670 650 704 656 714 655 655 692 686 643 661 666 695 630 659 650 618 689 701 726 635 683 642 678 657 615 704 651 643 637 647 623 710 633 689 647 685 696 656 656 690 672 686 652 667 692 664 673 686 659 667 654 696 645 649 655 649 651 593 673 668 692 634 732 657 657 705 609 659 668 677 658 665 663 657 703 674 676 626 674 659 627 694 658 631 643 662 656 678 673 658 704 698 675 667 642 656 637 679 704 664 687 711 698 682 654 649 681 690 728 690 677 621 691 646 687 656 671 646 696 658 616 701 650 689 709 652 652 670 699 681 692 680 746 655 720 746 700 700 691 687 749 735 750 749 734 710 735 720 749 775 741 810 794 788 869 820 829 808 843 828 817 785 792 799 799 755 778 722 799 797 814 760 749 760 791 761 765 787 737 799 752 780 768 784 820 806 817 794 766 848 752 777 798 834 801 844 806 903 844 813 872 914 926 910 897 977 1017 994 1016 1087 1124 1185 1163 1141 1150 1218 1198 1225 1144 1140 1176 1129 1059 1114 1031 986 1059 1011 943 950 1030 1026 939 992 969 996 934 960 983 902 962 920 926 897 875 803 852 819 806 741 774 759 811 773 773 761 714 742 708 732 718 697 707 687 678 685 666 726 702 643 690 665 695 664 667 711 688 687 678 669 654 660 667 652 728 669 707 714 669 683 727 689 624 681 693 701 685 668 643 681 683 650 680 705 657 655 676 692 655 680 679 674 731 723 708 660 660 647 668 665 704 655 675 676 721 673 714 633 689 715 693 721 659 713 695 642 674 676 655 683 673 655 731 690 709 710 694 696 696 728 719 683 688 730 705 711 677 726 723 730 671 713 696 736 687 759 662 694 703 678 676 621 700 645 732 686 626 704 719 695 733 661 715 736 689 719 730 707 719 761 715 724 712 663 758 734 714 749 735 803 698 777 736 704 729 744 764 727 748 719 787 765 782 771 777 759 839 823 815 855 905 892 932 943 1018 1014 1047 1067 1052 1115 1142 1196 1213 1217 1206 1352 1398 1374 1394 1593 1536 1704 1734 1757 1799 1874 1847 1845 1892 1885 1810 1793 1722 1721 1638 1604 1531 1552 1467 1436 1406 1412 1337 1343 1348 1390 1345 1396 1382 1307 1398 1327 1337 1305 1259 1280 1195 1126 1143 1080 1046 1025 899 924 853 853 859 848 800 825 820 793 835 735 745 764 748 742 783 720 787 757 737 687 777 761 726 754 718 730 764 728 712 738 693 716 678 745 723 695 779 741 748 709 705 674 673 733 703 748 706 713 679 680 712 728 743 723 693 734 731 704 674 717 757 662 708 687 757 698 674 737 642 734 728 677 638 693 685 719 723 734 756 682 751 704 696 674 745 720 710 659 772 725 753 709 685 756 676 688 730 755 699 709 720 721 761 688 765 708 685 750 716 709 759 741 726 739 678 692 727 731 724 751 741 760 759 731 725 708 774 732 709 724 765 737 724 796 757 839 731 834 753 783 791 741 794 794 784 729 721 697 720 753 735 752 715 733 715 747 708 727 716 781 703 735 724 703 672 703 699 693 757 662 698 733 681 731 665 661 679 639 683 688 751 620 644 729 677 674 749 668 696 683 672 624 687 680 676 717 662 706 681 689 711 724 677 717 686 689 691 696 660 667 677 661 699 693 656 639 677 700 662 670 675 694 684 666 678 697 670 616 711 670 700 622 717 678 618 653 671 675 670 695 638 654 699 662 697 662 599 698 679 662 661 682 694 691 642 637 684 656 623 653 693 656 705 674 696 654 661 693 657 679 675 662 649 698 655 660 654 665 660 654 647 725 664 642 696 714 651 663 673 679 681 679 652 656 661 641 594 674 624 631 748 635 683 652 677 669 676 677 706 692 656 660 683 694 687 668 647 707 653 676 655 662 675 652 707 605 676 660 685 662 653 683 710 700 637 661 629 614 661 639 661 661 666 671 701 656 667 728 647 724 650 680 647 731 662 644 705 712 669 722 664 689 664 688 677 657 670 645 642 681 715 728 688 659 683 688 669 639 693 663 715 667 705 651 684 716 679 695 682 680 678 662 675 719 708 662 684 673 704 640 700 718 671 625 669 704 668 657 711 726 731 678 711 692 676 723 675 787 720 720 755 689 732 732 703 736 713 672 688 697 730 692 723 675 697 675 710 638 668 693 699 675 673 670 710 735 753 637 690 686 678 661 694 700 697 687 689 651 683 685 713 719 663 647 690 707 684 701 690 703 620 653 694 650 657 705 674 649 660 634 650 615 668 677 643 620 669 668 663 703 649 666 707 670 649 648 631 631 683 659 669 604 699 641 633 672 681 687 695 690 716 704 717 671 692 642 702 729 752 672 696 664 701 699 715 711 716 712 739 721 708 699 720 688 651 719 699 703 761 682 692 724 689 712 686 697 682 690 701 718 754 671 712 652 710 693 646 730 704 652 643 730 722 677 708 729 701 732 673 682 747 700 685 704 730 719 727 746 674 647 737 738 751 690 709 752 764 757 770 727 820 750 757 775 801 757 790 815 800 814 786 761 760 751 780 767 742 747 779 772 754 705 712 762 719 760 688 697 729 732 758 723 719 684 726 691 719 727 759 738 721 717 719 769 662 698 653 702 735 688 726 668 698 657 693 622 680 688 669 652 656 683 677 653 652 658 682 651 685 660 692 639 674 608 702 613 704 697 667 655 676 657 650 660 674 683 691 663 651 639 713 670 649 702 670 672 620 662 661 642 679 704 658 664 623 628 679 705 703 612 632 660 657 663 667 650 664 635 648 627 668 679 654 692 660 645 687 664 716 673 703 634 692 686 662 666 685 656 661 683 636 635 688 654 669 693 690 633 614 648 673 669 636 661 663 692 653 655 658 655 651 659 653 632 644 661 664 691 663 674 695 626 638 658 678 713 683 614 657 648 668 675 666 687 725 662 646 637 686 684 677 646 654 705 698 670 706 638 700 715 645 715 666 676 679 662 692 613 663 700 649 677 656 672 666 674 731 705 696 664 664 654 657 664 660 701 699 699 662 696 729 688 683 694 692 690 718 694 677 726 698 683 707 762 746 731 697 740 724 754 729 716 784 722 731 746 735 789 747 805 763 802 838 774 871 821 870 894 885 940 969 940 967 1000 1020 1054 1095 1122 1154 1174 1207 1216 1336 1324 1354 1416 1450 1500 1579 1528 1599 1580 1609 1580 1589 1516 1583 1482 1452 1381 1338 1241 1268 1222 1218 1144 1194 1237 1216 1177 1156 1188 1140 1169 1178 1156 1245 1225 1179 1151 1240 1179 1115 1165 1100 1032 1014 973 978 949 892 909 902 837 831 810 806 827 768 782 748 822 732 723 777 733 744 708 728 673 708 698 658 670 722 691 712 684 738 693 672 691 674 716 665 656 684 677 717 668 686 713 655 626 666 661 646 711 655 662 688 716 666 735 702 645 646 689 665 644 698 652 683 659 661 697 626 676 649 616 696 677 649 706 663 714 652 707 692 690 654 615 682 661 700 600 702 691 701 629 704 679 629 691 662 697 656 686 679 677 690 706 674 660 671 645 648 674 677 677 715 736 699 658 689 685 712 634 710 689 736 686 728 742 689 715 661 678 712 719 692 715 682 716 791 701 724 741 750 697 690 730 700 691 678 721 744 710 668 745 731 723 717 720 742 689 753 698 698 683 700 699 688 666 695 673 725 709 702 714 706 715 694 707 680 647 642 667 655 660 636 654 611 638 640 688 699 675 712 646 640 636 695 624 635 649 689 616 643 650 697 689 668 634 689 723 655 633 677 653 676 636 648 615 631 643 647 660 701 695 662 634 641 636 694 712 645 656 663 653 615 654 641 688 699 705 706 610 609 618 596 664 648 640 678 675 642 657 680 640 689 705 684 649 644 636 678 624 685 626 656 642 671 665 628 661 679 618 705 637 657 645 685 676 697 699 645 615 605 643 678 651 652 635 680 674 629 645 626 675 630 647 636 623 717 684 715 618 664 642 636 668 632 659 703 654 689 710 654 662 649 652 667 646 660 639 628 676 689 667 652 722 585 621 665 634 632 608 651 637 662 597 651 661 651 658 625 669 665 637 613 640 624 641 658 662 648 670 675 586 647 663 659 631 640 710 685 666 646 622 649 644 655 680 641 603 663 638 661 685 645 638 649 654 649 644 656 584 653 654 656 652 667 660 667 650 664 642 705 603 704 652 604 665 619 631 665 663 687 652 615 672 628 684 685 669 688 667 676 699 651 640 674 662 682 627 654 682 666 617 697 693 670 657 681 693 665 680 628 705 679 692 647 642 716 700 662 657 667 671 650 628 666 731 712 664 700 650 703 647 716 700 663 682 689 647 625 690 671 693 724 687 705 672 695 685 695 685 632 697 713 650 663 675 681 639 659 726 652 665 689 656 671 687 730 670 669 674 614 704 650 639 674 701 654 670 643 669 604 679 634 667 677 623 634 597 647 613 668 687 658 731 658 639 658 613 705 684 694 637 681 693 649 676 677 682 720 651 646 693 690 626 644 678 667 638 691 659 748 687 641 673 704 659 656 671 687 680 624 667 632 694 673 641 657 709 689 700 679 699 746 670 685 653 663 707 718 705 687 708 676 735 703 759 722 727 718 732 797 745 744 818 807 856 852 840 835 865 832 860 894 882 859 947 924 892 915 962 886 899 896 898 867 873 875 770 812 859 813 816 800 806 783 771 802 791</counts>
			</dataPoints>
		</scan>
	</xrdMeasurement>
</xrdMeasurements>
