<?xml version="1.0"?>
<xrdMeasurements xmlns="http://www.xrdml.com/XRDMeasurement/2.3" xmlns:xsi="http://www.w3.org/2001/XMLSchema-instance" xsi:schemaLocation="http://www.xrdml.com/XRDMeasurement/2.3 http://www.xrdml.com/XRDMeasurement/2.3/XRDMeasurement.xsd" status="Completed" recordIdentifier="{E1C53005-99AF-457B-B32C-ACED30710A93}">
	<comment>
		<entry/>
	</comment>
	<sample type="To be analyzed">
		<id>GPSS_Li1p6Fe0p9V0p2Cl4_111125_691433ae47a6a0fd7c6576f7</id>
		<name></name>
		<preparedBy></preparedBy>
	</sample>
	<xrdMeasurement measurementType="Scan" status="Completed" sampleMode="Reflection">
		<usedWavelength intended="K-Alpha 1">
			<kAlpha1 unit="Angstrom">1.5405980</kAlpha1>
			<kAlpha2 unit="Angstrom">1.5444260</kAlpha2>
			<kBeta unit="Angstrom">1.3922500</kBeta>
			<ratioKAlpha2KAlpha1>0.5000</ratioKAlpha2KAlpha1>
		</usedWavelength>
		<incidentBeamPath>
			<radius unit="mm">145.00</radius>
			<xRayTube id="1010048" name="Empyrean Cu LFF HR (9430 033 7310x)">
				<tension unit="kV">40.0</tension>
				<current unit="mA">15.0</current>
				<anodeMaterial>Cu</anodeMaterial>
				<focus type="Line">
					<length unit="mm">12.0</length>
					<width unit="mm">0.4</width>
					<takeOffAngle unit="deg">6.0</takeOffAngle>
				</focus>
			</xRayTube>
			<sollerSlit id="21010002" name="Soller slits 0.04 rad.">
				<opening unit="rad">0.0400</opening>
			</sollerSlit>
			<mask id="22031000" name="Fixed mask 13 mm">
				<width unit="mm">9.00</width>
			</mask>
			<divergenceSlit id="22120001" name="Divergence slit 1°" xsi:type="fixedDivergenceSlitType">
				<distanceToSample unit="mm">50.00</distanceToSample>
				<height unit="mm">1.52</height>
			</divergenceSlit>
		</incidentBeamPath>
		<sampleMovement xsi:type="spinningSampleMovementType">
			<spinnerRevolutionTime unit="seconds">1.0</spinnerRevolutionTime>
		</sampleMovement>
		<diffractedBeamPath>
			<radius unit="mm">145.00</radius>
			<antiScatterSlit id="22090040" name="AS slit 9 mm (PIXcel)" xsi:type="fixedAntiScatterSlitType">
				<height unit="mm">9.00</height>
			</antiScatterSlit>
			<sollerSlit id="21020003" name="Large Soller slits 0.04 rad.">
				<opening unit="rad">0.0400</opening>
			</sollerSlit>
			<filter id="20030001" name="Large beta-filter Nickel">
				<material>Ni</material>
				<thickness unit="mm">0.020</thickness>
			</filter>
			<detector id="7010019" name="PIXcel1D-Medipix3 detector" xsi:type="rtmsDetectorType">
				<phd unit="keV">
					<lowerLevel>4.02</lowerLevel>
					<upperLevel>11.27</upperLevel>
				</phd>
				<mode>Scanning</mode>
				<activeLength unit="deg">5.542</activeLength>
			</detector>
		</diffractedBeamPath>
		<scan appendNumber="0" mode="Continuous" scanAxis="Gonio" status="Completed">
			<header>
				<startTimeStamp>2025-11-13T16:50:47-08:00</startTimeStamp>
				<endTimeStamp>2025-11-13T16:58:55-08:00</endTimeStamp>
				<author>
					<name>AutomatedUser</name>
				</author>
				<source>
					<applicationSoftware version="1.7b (136)">PANalytical Aeris Instrument Suite</applicationSoftware>
					<instrumentControlSoftware version="3.2.00000000 20240306">AERIS</instrumentControlSoftware>
					<instrumentID>950485</instrumentID>
				</source>
			</header>
			<dataPoints>
				<positions axis="2Theta" unit="deg">
					<startPosition>10.00943322</startPosition>
					<endPosition>99.99442286</endPosition>
				</positions>
				<positions axis="Omega" unit="deg">
					<startPosition>5.00471661</startPosition>
					<endPosition>49.99721143</endPosition>
				</positions>
				<commonCountingTime unit="seconds">12.495</commonCountingTime>
				<counts unit="counts">3396 3464 3371 3398 3425 3344 3489 3455 3323 3422 3315 3517 3387 3411 3364 3298 3445 3247 3378 3484 3450 3407 3397 3433 3459 3336 3485 3510 3386 3459 3335 3493 3397 3529 3374 3419 3463 3444 3411 3461 3406 3415 3449 3503 3428 3469 3585 3567 3502 3546 3418 3429 3484 3537 3541 3565 3488 3498 3589 3532 3490 3524 3531 3495 3579 3531 3529 3591 3451 3486 3583 3565 3571 3623 3566 3599 3442 3523 3629 3535 3624 3596 3571 3618 3611 3525 3619 3723 3594 3593 3578 3577 3637 3678 3621 3650 3704 3743 3802 3719 3637 3697 3667 3657 3697 3605 3602 3726 3611 3663 3710 3816 3691 3606 3675 3737 3547 3761 3786 3724 3777 3712 3672 3788 3673 3597 3798 3747 3715 3761 3573 3804 3719 3756 3680 3662 3709 3703 3662 3681 3613 3668 3678 3636 3735 3604 3749 3674 3740 3730 3752 3549 3645 3694 3672 3665 3734 3668 3591 3660 3636 3612 3625 3623 3651 3590 3710 3704 3762 3694 3617 3713 3672 3736 3710 3688 3657 3662 3838 3633 3770 3586 3668 3721 3647 3669 3606 3728 3569 3620 3626 3585 3624 3718 3774 3665 3682 3631 3648 3600 3672 3678 3595 3630 3641 3630 3637 3644 3530 3592 3742 3753 3677 3725 3784 3634 3640 3684 3636 3706 3632 3629 3624 3576 3539 3741 3583 3671 3565 3618 3688 3734 3657 3540 3532 3688 3586 3725 3707 3595 3660 3557 3632 3700 3575 3630 3588 3588 3679 3795 3640 3708 3628 3668 3627 3622 3652 3601 3656 3561 3779 3638 3595 3813 3675 3545 3588 3593 3662 3567 3569 3592 3648 3597 3665 3687 3580 3717 3653 3623 3703 3737 3641 3661 3653 3700 3649 3626 3688 3662 3733 3639 3727 3663 3638 3702 3617 3593 3754 3639 3740 3658 3670 3783 3847 3726 3667 3719 3773 3694 3682 3828 3782 3766 3753 3732 3803 3622 3773 3810 3691 3758 3751 3804 3744 3869 3701 3791 3755 3831 3741 3755 3713 3854 3905 3812 3845 3944 3818 3917 3802 3892 3833 3850 3860 3826 4023 3801 3921 3849 3955 3962 3939 3890 3958 3949 3994 3858 3997 4067 3956 3934 4012 3985 4070 4006 3812 3876 3982 4016 4092 4089 4157 4183 3958 4042 4109 4034 4069 4003 4082 4145 4060 4049 4119 4129 4043 4097 4055 4180 4087 4267 4144 4175 4253 4171 4147 4277 4208 4111 4132 4186 4168 4215 4204 4394 4280 4317 4287 4345 4262 4332 4225 4232 4368 4332 4311 4476 4383 4391 4409 4317 4502 4428 4531 4477 4574 4695 4647 4604 4669 4579 4563 4748 4752 4766 4913 4994 5030 5042 5120 5159 5202 5337 5418 5545 5535 5719 5674 5962 6000 6166 6147 6275 6205 6435 6473 6536 6605 6709 6651 6925 6699 6609 6738 6507 6519 6307 6219 6115 5916 5935 5896 5770 5781 5617 5560 5547 5505 5387 5432 5274 5328 5336 5306 5394 5315 5147 5229 5269 5326 5180 5121 5151 5050 5147 4984 5003 5010 4899 4889 4813 4786 4657 4670 4496 4672 4636 4500 4492 4427 4303 4279 4250 4305 4220 4202 4275 4241 4225 4217 4230 4173 4111 4223 4110 4170 4194 4150 4049 4069 3980 4032 4158 4089 4178 4039 4058 3937 4070 4207 4086 3984 4008 4036 4004 3953 3957 3940 4066 4065 3968 3891 4085 4011 3973 3976 3955 3989 4025 3970 4036 3816 4064 3929 3985 3949 3924 3874 3889 3860 3984 3949 3891 3881 3907 3911 3831 3893 3888 3790 4089 3912 4003 3863 3802 3912 3800 3972 3867 3812 3756 3870 3795 3807 3911 3829 3772 3851 3885 3889 3799 3889 3790 3844 3823 3806 3823 3750 3807 3786 3860 3831 3775 3799 3678 3867 3722 3792 3742 3759 3883 3782 3826 3794 3847 3759 3884 3717 3836 3826 3728 3748 3838 3900 3750 3651 3704 3696 3855 3798 3639 3848 3800 3742 3795 3795 3803 3727 3741 3782 3738 3856 3711 3806 3773 3759 3696 3903 3893 3752 3742 3750 3835 3878 3753 3721 3897 3851 3811 3961 3704 3906 3786 3727 3828 3788 3833 3757 3900 3878 3753 3786 3758 3809 3610 3776 3766 3715 3791 3747 3677 3631 3779 3771 3681 3782 3703 3767 3779 3627 3698 3760 3693 3712 3605 3616 3693 3750 3643 3760 3639 3759 3677 3743 3603 3713 3723 3804 3591 3624 3795 3775 3695 3691 3771 3775 3690 3675 3637 3625 3715 3710 3700 3688 3684 3740 3681 3687 3816 3769 3821 3734 3769 3683 3646 3645 3603 3688 3696 3748 3733 3674 3741 3738 3701 3638 3747 3696 3606 3626 3615 3825 3683 3601 3758 3656 3735 3728 3662 3673 3637 3556 3819 3640 3646 3687 3648 3720 3642 3720 3605 3630 3685 3611 3594 3748 3743 3524 3608 3620 3701 3744 3575 3712 3598 3620 3682 3674 3740 3585 3630 3545 3672 3651 3593 3551 3603 3669 3612 3613 3647 3734 3671 3747 3692 3628 3573 3668 3628 3736 3568 3649 3604 3645 3624 3601 3612 3627 3536 3617 3613 3601 3644 3607 3611 3614 3629 3685 3527 3632 3611 3635 3596 3598 3673 3701 3614 3660 3483 3624 3632 3707 3650 3588 3567 3602 3604 3626 3557 3675 3589 3625 3478 3602 3493 3568 3569 3610 3592 3552 3634 3552 3676 3535 3585 3592 3631 3490 3541 3615 3602 3558 3616 3494 3528 3583 3514 3603 3567 3552 3645 3587 3535 3600 3493 3679 3552 3475 3632 3534 3640 3547 3516 3622 3488 3511 3643 3502 3527 3543 3551 3484 3523 3573 3585 3506 3611 3568 3575 3569 3563 3589 3634 3615 3548 3425 3482 3555 3478 3481 3562 3534 3460 3571 3423 3468 3508 3565 3592 3529 3524 3483 3533 3441 3554 3504 3498 3432 3476 3519 3414 3547 3399 3555 3434 3552 3506 3528 3493 3462 3452 3369 3459 3587 3506 3545 3495 3472 3498 3447 3348 3535 3494 3422 3524 3474 3431 3424 3638 3422 3536 3507 3334 3530 3380 3547 3474 3498 3529 3450 3373 3490 3493 3440 3425 3535 3509 3503 3611 3493 3520 3532 3513 3478 3569 3468 3484 3492 3524 3473 3486 3466 3551 3621 3512 3474 3519 3553 3485 3416 3411 3580 3474 3528 3544 3514 3513 3427 3415 3576 3437 3529 3364 3439 3457 3486 3466 3488 3437 3493 3532 3480 3505 3588 3528 3462 3482 3530 3496 3480 3621 3585 3539 3598 3511 3533 3479 3589 3505 3558 3584 3488 3346 3542 3585 3622 3433 3462 3565 3626 3473 3573 3504 3575 3445 3492 3494 3551 3520 3627 3473 3457 3542 3483 3565 3570 3478 3608 3583 3485 3519 3610 3408 3483 3462 3578 3438 3515 3435 3494 3586 3493 3507 3453 3670 3468 3520 3598 3551 3495 3596 3386 3507 3550 3549 3605 3605 3448 3468 3451 3594 3584 3459 3503 3466 3585 3415 3442 3503 3487 3513 3547 3487 3446 3437 3583 3478 3500 3515 3359 3538 3428 3427 3447 3421 3458 3422 3485 3528 3386 3627 3458 3472 3457 3403 3495 3357 3406 3451 3475 3455 3380 3442 3512 3334 3367 3331 3365 3354 3321 3457 3296 3288 3416 3247 3329 3384 3358 3368 3220 3379 3332 3389 3358 3341 3255 3281 3309 3335 3300 3337 3261 3328 3249 3203 3298 3330 3241 3381 3290 3306 3194 3335 3297 3205 3195 3197 3330 3272 3211 3241 3263 3262 3255 3181 3259 3233 3210 3379 3202 3162 3217 3271 3139 3136 3091 3207 3159 3270 3139 3191 3135 3192 3086 3066 3195 3143 3219 3177 3053 3149 3241 3149 3171 3060 3239 3087 3149 3133 3049 3152 3064 3146 3138 3134 3068 3071 3166 3118 3106 3037 3072 2986 3108 3129 3003 3102 3161 3060 3127 3009 3083 3092 3060 3028 3011 3017 3122 3039 3031 3065 3100 2993 3040 2985 3089 2926 3086 3067 3009 3068 2989 3093 3072 2926 2987 2925 3010 3094 2925 2981 2994 2999 2980 3014 3011 2982 2989 2972 3064 2929 2894 2983 2934 3107 2915 2980 3042 2976 3058 2951 3088 2993 2940 3052 2966 3063 2973 2917 3054 2991 2878 2974 2932 3030 2916 3025 2904 2954 3034 3023 2927 3060 3023 3034 3077 3052 2945 2986 3069 2970 2980 2957 2985 2879 2915 2955 2877 2970 2986 2935 2987 2826 2935 2912 2902 2950 2966 2963 2984 2877 2960 2844 2919 2969 2905 2931 2945 2851 2907 2884 3000 3001 2928 2899 2888 3045 2930 2954 2996 2875 2959 2989 2900 2906 2956 2961 2864 3058 2912 2931 2901 2936 2964 2892 2908 2891 2829 2994 3010 2909 2921 2776 2924 2983 2963 2909 2913 2899 2879 2941 2980 2989 2952 2892 2853 2941 2937 2909 2829 2937 2919 2946 2940 2936 2995 2994 2914 2843 2944 2910 3026 2927 2939 2964 2851 2992 2923 2942 2938 3017 2885 3015 3011 2911 2989 2968 3020 2918 2901 3030 3064 2942 2960 3098 2814 2866 2939 2874 2998 2981 2868 2956 2984 2968 3006 2975 2970 3050 3074 2936 2978 2960 2887 2886 2974 3022 3078 2949 3024 2935 2952 3028 3072 2913 3021 2943 2943 3023 2941 2994 3047 2991 2959 2947 3041 2947 3075 2929 2910 2939 2971 2946 2993 2950 2850 2970 3005 2912 2902 2967 3002 2969 2903 2962 2953 2932 2878 3049 2881 2973 2898 2827 2839 2865 3021 2906 2801 2880 2835 2882 2847 2866 2795 2936 2876 2811 2888 2872 2860 2908 2864 2879 2823 2857 2871 2869 2909 2884 2845 2961 2839 2825 2733 2808 2861 2838 2959 2853 2782 2834 2698 2865 2876 2958 2883 2863 2762 2873 2834 2902 2772 2727 2814 2807 2819 2832 2800 2768 2775 2756 2800 2788 2776 2724 2693 2760 2769 2738 2885 2742 2881 2798 2734 2818 2755 2680 2690 2773 2758 2736 2718 2811 2706 2694 2728 2721 2743 2615 2670 2786 2764 2796 2724 2733 2662 2642 2652 2666 2653 2660 2762 2625 2647 2697 2590 2692 2676 2650 2723 2670 2694 2737 2710 2722 2611 2627 2638 2632 2711 2669 2584 2588 2590 2668 2619 2595 2609 2700 2627 2605 2578 2633 2603 2629 2597 2691 2638 2648 2605 2679 2617 2605 2691 2628 2622 2554 2661 2640 2596 2646 2683 2711 2646 2613 2565 2608 2620 2690 2602 2630 2613 2734 2609 2583 2600 2758 2745 2790 2717 2697 2711 2747 2745 2885 2851 2948 2928 3011 3081 3048 3208 3087 3236 3223 3376 3399 3410 3584 3668 3634 3685 3814 3745 3765 3873 3793 3813 3864 3742 3814 3653 3585 3598 3584 3531 3357 3314 3439 3250 3196 3149 3150 3120 2981 2950 3012 2793 2814 2789 2828 2831 2868 2768 2795 2756 2829 2743 2767 2673 2687 2687 2753 2698 2741 2715 2668 2658 2753 2694 2690 2738 2712 2706 2681 2772 2676 2634 2627 2685 2642 2587 2628 2731 2730 2615 2635 2630 2616 2629 2531 2637 2569 2549 2622 2567 2467 2487 2510 2512 2565 2524 2521 2618 2526 2604 2607 2576 2614 2514 2590 2583 2607 2530 2702 2681 2699 2676 2772 2679 2670 2782 2870 2857 2919 2945 3099 3132 3108 3321 3472 3431 3546 3684 3781 3856 3927 4109 4302 4292 4386 4476 4405 4599 4597 4552 4532 4627 4491 4430 4267 4352 4266 4224 4152 3930 3939 3821 3804 3631 3449 3505 3392 3316 3209 3192 3171 3081 3054 2918 2994 2767 2726 2777 2673 2755 2656 2593 2671 2616 2551 2507 2410 2513 2559 2512 2465 2457 2606 2517 2443 2428 2465 2369 2508 2331 2446 2414 2418 2474 2434 2458 2399 2415 2436 2415 2496 2516 2426 2415 2404 2400 2397 2393 2425 2389 2412 2454 2390 2398 2367 2382 2506 2370 2363 2422 2351 2466 2398 2417 2340 2326 2402 2373 2314 2321 2374 2298 2421 2408 2362 2335 2294 2392 2362 2429 2372 2389 2334 2371 2374 2441 2458 2338 2343 2341 2306 2340 2320 2306 2357 2280 2400 2364 2379 2285 2431 2402 2404 2303 2401 2338 2439 2476 2438 2382 2338 2388 2354 2399 2253 2373 2396 2262 2374 2368 2355 2379 2401 2284 2349 2359 2418 2353 2375 2385 2360 2328 2415 2373 2319 2416 2349 2266 2387 2364 2351 2346 2328 2273 2322 2306 2342 2336 2358 2339 2294 2408 2429 2371 2236 2316 2275 2300 2334 2411 2332 2349 2329 2323 2356 2398 2241 2238 2396 2362 2313 2330 2260 2268 2276 2345 2320 2266 2285 2261 2352 2403 2317 2281 2326 2270 2290 2363 2322 2360 2316 2365 2412 2297 2341 2358 2257 2398 2262 2389 2350 2248 2302 2350 2393 2312 2338 2337 2350 2324 2356 2341 2342 2327 2277 2323 2346 2309 2294 2393 2275 2381 2342 2318 2354 2286 2339 2344 2200 2363 2331 2313 2315 2365 2233 2296 2275 2337 2320 2316 2288 2301 2398 2314 2311 2340 2257 2351 2363 2319 2329 2264 2300 2287 2278 2315 2286 2283 2321 2323 2199 2313 2340 2251 2382 2301 2373 2284 2251 2379 2221 2277 2372 2403 2392 2199 2309 2273 2225 2326 2307 2234 2233 2337 2341 2278 2297 2302 2293 2280 2332 2389 2430 2391 2394 2312 2412 2275 2275 2370 2439 2352 2315 2315 2280 2257 2362 2279 2372 2430 2332 2341 2330 2318 2401 2448 2357 2385 2363 2392 2378 2367 2288 2311 2356 2351 2322 2406 2397 2359 2318 2359 2393 2355 2460 2290 2308 2357 2394 2412 2337 2384 2309 2348 2279 2315 2411 2440 2396 2425 2309 2442 2329 2386 2402 2394 2372 2486 2375 2419 2401 2478 2533 2506 2410 2532 2426 2470 2544 2408 2501 2455 2616 2628 2540 2538 2593 2624 2505 2712 2773 2787 2791 2765 2905 2962 3031 2990 3138 3223 3257 3485 3558 3904 4052 4157 4270 4645 4989 5294 5506 6024 6372 6733 7162 7665 7967 8333 8974 9342 9726 9901 10206 10233 10389 10484 10648 10696 10444 10448 10279 10463 9991 9628 9322 8665 8676 8260 7876 7689 7443 7505 7083 6975 6452 6362 6055 5823 5558 5204 4993 4779 4569 4340 4184 4181 3788 3780 3525 3414 3309 3279 3174 3149 3089 2973 2919 2922 2923 2873 2892 2819 2834 2820 2865 2763 2756 2762 2805 2635 2846 2825 2814 2719 2763 2819 2763 2694 2652 2664 2794 2660 2610 2616 2585 2687 2629 2465 2564 2599 2586 2637 2541 2432 2528 2528 2502 2431 2520 2488 2446 2518 2434 2446 2434 2475 2413 2393 2407 2475 2426 2384 2338 2436 2306 2418 2396 2460 2394 2409 2433 2322 2406 2288 2291 2358 2316 2364 2300 2400 2255 2291 2365 2387 2311 2327 2336 2419 2365 2369 2358 2288 2322 2291 2275 2280 2289 2379 2253 2350 2188 2260 2430 2302 2284 2251 2262 2318 2268 2250 2270 2266 2332 2270 2290 2295 2280 2319 2269 2261 2269 2291 2311 2245 2309 2127 2370 2239 2272 2288 2240 2328 2332 2269 2238 2239 2243 2208 2287 2235 2100 2297 2275 2284 2225 2251 2242 2247 2248 2315 2313 2351 2242 2214 2234 2177 2356 2177 2253 2217 2294 2236 2229 2285 2225 2201 2223 2145 2306 2160 2148 2090 2272 2308 2251 2221 2125 2264 2223 2251 2160 2188 2266 2209 2102 2231 2319 2259 2244 2181 2211 2177 2219 2179 2205 2232 2336 2275 2203 2270 2238 2247 2234 2209 2095 2203 2153 2249 2275 2192 2206 2205 2177 2315 2177 2242 2161 2249 2192 2272 2182 2149 2191 2217 2240 2202 2137 2224 2190 2200 2220 2143 2215 2245 2235 2220 2208 2211 2249 2319 2221 2357 2222 2241 2171 2270 2237 2293 2347 2284 2283 2226 2304 2277 2280 2330 2245 2281 2403 2425 2339 2394 2415 2345 2367 2358 2427 2291 2370 2357 2325 2343 2270 2363 2320 2351 2305 2318 2284 2258 2237 2251 2246 2271 2279 2295 2233 2219 2220 2240 2255 2245 2206 2254 2245 2231 2166 2272 2233 2160 2145 2110 2271 2200 2193 2248 2196 2209 2204 2249 2157 2233 2137 2253 2143 2270 2248 2207 2231 2214 2165 2277 2212 2257 2138 2098 2116 2137 2247 2199 2252 2208 2212 2236 2116 2200 2220 2226 2196 2162 2161 2234 2143 2160 2250 2136 2271 2172 2132 2143 2104 2087 2141 2155 2177 2213 2236 2163 2192 2214 2239 2124 2164 2162 2232 2236 2124 2147 2128 2075 2210 2236 2247 2128 2170 2094 2168 2143 2176 2156 2190 2181 2127 2146 2142 2172 2229 2170 2194 2087 2105 2123 2196 2125 2194 2173 2209 2131 2215 2110 2210 2182 2097 2087 2172 2150 2116 2161 2163 2109 2021 2166 2135 2043 2056 2167 2081 2112 2179 2115 2171 2059 2109 2189 2109 2099 2055 2204 2111 2175 2112 2087 2178 2058 2003 2130 2060 2168 2134 2155 2104 2126 2137 2206 2151 2087 2147 2122 2057 2151 2069 2109 2218 2089 2084 2135 2109 2158 2228 2092 2126 2145 2206 2175 2139 2017 2179 2090 2087 2114 2142 2085 2168 2122 2088 2191 2163 2051 2127 2143 2114 2026 2119 2076 2133 2112 2122 2085 2076 2119 2097 2070 2144 2100 2120 2119 2190 2152 2181 2197 2067 2111 2148 2160 2160 2068 2123 2102 2125 2086 2189 2138 2101 2068 2054 2063 2101 2028 2022 2058 2099 2029 2087 2206 2155 2049 2098 2152 2067 2139 2088 2133 2207 2104 2088 2061 2088 2168 1994 2096 2086 2090 2083 2184 2079 2056 2159 2132 2130 2055 2061 2162 2071 2075 2128 2089 2082 2190 2062 2153 2098 2101 2074 2088 2105 2051 2104 2108 2089 2074 2088 2143 2057 2159 2093 2136 2140 2122 2056 2046 2056 2173 2102 2048 2091 2154 2082 2156 2195 2113 2145 2041 2088 2128 2096 2093 2088 2127 2125 2066 2047 2133 2113 2050 2056 2064 2182 2055 2131 2130 2192 2060 2115 2104 2111 2088 2100 2043 2104 2095 2117 2035 2114 2063 2043 2164 2074 2054 2054 2141 2147 2000 2195 2058 2106 2147 2066 2115 2142 2067 2101 2110 2080 2125 2037 2103 2042 2075 2030 2076 2123 2096 2094 1995 2021 2079 1994 2065 2111 2077 2046 2118 2064 2077 2050 2065 2098 2091 2073 2035 2020 2126 2158 2081 2100 2086 2116 2035 2038 2052 2094 2122 2048 2073 2117 2120 2018 2161 2034 2120 2090 2075 2152 2100 2008 2105 2040 2097 2051 2134 2089 2157 2062 2063 2045 2135 2022 2117 2125 2119 2043 2129 2059 2100 2046 2162 2146 2197 2089 2102 2180 2211 2060 2191 2094 2092 2201 2152 2084 2036 2096 2138 2122 2115 2156 2156 2128 2160 2046 2131 2065 2114 2213 2079 2152 2082 2070 2093 2137 2022 2082 2130 2022 2051 2075 2098 2067 2109 2052 2112 2100 2102 2122 2012 2128 2071 2040 2038 2085 2013 2131 2072 2172 2109 2124 2110 2021 2105 2108 2142 2091 2005 2194 2011 2008 2163 2024 2113 2050 2073 2082 2167 2128 2165 2007 2139 2145 2141 2085 2021 2086 2043 2160 1990 2127 2049 2077 2146 2035 2170 2098 2040 2067 2093 2086 2033 2047 2122 2019 2049 2062 2018 2098 2122 2048 2140 2034 2055 2040 2121 2041 2119 2087 2118 2106 2037 2234 2123 2119 2069 2032 2034 2160 2042 2039 2121 2153 2101 2113 2098 2086 2093 2135 2156 2028 2112 2144 2016 2093 2073 2082 2037 2080 2099 2142 2079 1986 1999 2081 2088 2107 2162 2024 2053 2004 2106 2129 2059 2124 2105 2067 2134 2122 2159 2144 2166 2095 2044 2003 2143 2050 2193 2113 2067 2118 2022 2071 2051 2044 2100 2048 2111 2105 2008 2081 2020 2127 2069 2039 2113 2194 2087 2026 2063 2195 2047 2159 1981 2143 2074 2096 2106 2157 2025 2157 2034 2125 2171 2154 2150 2026 2060 2115 2137 2190 2209 2147 2120 2182 2298 2180 2149 2275 2309 2255 2327 2353 2357 2337 2399 2505 2555 2522 2556 2616 2662 2785 2760 2803 2901 2914 2897 2928 2929 2744 2849 2915 2945 2858 2766 2786 2886 2810 2750 2767 2727 2595 2765 2580 2584 2594 2539 2539 2495 2430 2391 2462 2279 2339 2452 2290 2415 2222 2218 2275 2280 2270 2206 2274 2145 2148 2185 2137 2075 2225 2104 2124 2138 2179 2130 2201 2153 2207 2111 2006 2072 2168 2122 2100 2032 2173 2104 2119 2005 2128 2042 2098 2044 2180 2084 2126 2055 2030 2100 2064 2069 2066 2090 2048 2063 2074 2102 2065 2106 2103 2126 2165 2094 2101 2132 2067 2124 2050 2076 2035 2134 2072 2128 2185 2070 2093 2139 2071 2077 2028 2052 2122 1963 2048 2101 2137 2053 2075 2139 2043 2120 2080 2079 2007 2081 2057 2126 2066 2050 2107 2113 2049 2027 2157 2061 2063 2066 1960 2080 2048 2202 2154 2040 1982 2085 2045 2082 2088 2039 2063 2111 2022 1983 2110 2040 2067 2097 2065 2094 2130 2108 2152 2083 2061 2006 2075 2132 2012 2087 2094 2015 2072 2079 2082 2088 2075 2075 2045 2104 2061 2071 2017 2021 1994 2056 2035 2068 2104 2018 2054 2029 2049 2060 2110 2019 2046 2122 2072 1988 2073 2049 2066 2092 2078 2087 2016 2091 2124 2151 2023 2123 2062 2045 2048 2096 2132 2077 2057 2061 1973 2019 2127 2049 2019 2152 1970 2038 2134 2034 2044 2132 2098 2106 2097 2062 2032 2157 2095 2093 2133 2142 2133 2075 2061 2174 2169 2124 2166 2098 2198 2050 2136 2041 2093 2071 2162 2099 2116 2076 2122 2115 2111 2112 2111 2107 2082 2145 2088 2078 2049 2149 2128 2071 2044 2094 2121 2120 2084 2145 2125 2111 2080 2154 2119 2115 2148 2126 2092 2052 2035 2096 2154 2069 2040 2004 2177 2046 2082 2063 2130 2090 2157 2051 2187 2082 2049 2011 2089 2079 2074 2088 2079 2079 2073 2072 2123 2096 2121 2006 2105 2038 2093 2155 2136 2102 2132 2085 2052 2084 2149 2080 2148 2016 2113 2179 2125 2058 2043 2054 2111 2098 2113 2136 2092 2178 2124 2097 2038 2145 2140 2063 2132 2115 2105 2112 2200 2182 2090 2159 2101 2301 2233 2209 2182 2177 2241 2231 2230 2275 2263 2299 2288 2332 2417 2334 2453 2390 2479 2636 2700 2682 2720 2805 3049 3090 3275 3392 3470 3588 3894 4078 4259 4245 4602 4547 4785 4918 5048 5212 5353 5283 5436 5445 5574 5593 5531 5612 5486 5445 5526 5397 5301 5208 5100 5001 4926 4791 4531 4568 4437 4224 4061 4079 3930 3858 3776 3761 3591 3415 3383 3333 3259 3197 3054 2996 2948 2908 2787 2890 2722 2782 2729 2727 2515 2513 2433 2505 2489 2463 2456 2382 2346 2418 2437 2412 2402 2326 2376 2344 2389 2381 2351 2325 2314 2351 2354 2411 2337 2352 2353 2432 2391 2388 2399 2504 2521 2563 2548 2495 2507 2507 2521 2499 2546 2522 2507 2462 2595 2466 2583 2510 2416 2519 2421 2363 2394 2408 2297 2346 2338 2359 2277 2363 2190 2219 2309 2205 2212 2195 2197 2301 2153 2228 2166 2113 2233 2307 2129 2139 2190 2189 2130 2198 2158 2124 2120 2139 2050 2157 2092 2108 2055 2116 2061 2153 2133 2127 2126 2200 2058 2108 2134 1991 2155 2170 2012 2117 2095 2161 2069 2066 2144 2064 2067 2134 2056 2078 2020 2045 2062 2043 2114 1996 2049 2065 2021 2084 2077 2109 2062 2108 2022 2054 2037 1950 1988 2112 1918 2124 1993 2098 2091 2050 2023 1999 2076 2092 2066 2041 2080 2156 2057 2059 2101 2106 2089 2084 2069 2139 2013 2072 2104 2189 2092 2150 2187 2062 2151 2099 2182 2207 2214 2181 2140 2255 2385 2171 2280 2284 2361 2292 2393 2426 2442 2396 2388 2494 2509 2401 2407 2440 2495 2505 2361 2429 2440 2422 2425 2419 2445 2426 2333 2371 2444 2335 2405 2312 2283 2260 2301 2224 2229 2247 2158 2184 2130 2129 2178 2202 2152 2187 2095 2120 2096 2090 2143 2141 2154 2158 2080 2153 2095 2042 2043 2059 2148 2109 2064 2080 2072 2077 2117 2114 2095 2095 2072 2044 2045 2041 2067 2094 2098 2040 2047 2098 2138 2079 2098 2114 2162 2026 2169 2205 2129 2202 2097 2127 2179 2194 2214 2171 2257 2242 2127 2172 2228 2213 2189 2189 2196 2073 2164 2198 2191 2060 2220 2096 2120 2197 2107 2170 2097 2120 2118 2055 2030 2082 2082 1998 2167 2125 2052 2029 2075 2021 2042 1997 2022 1943 2035 2053 2019 2074 1973 1929 1984 2053 1978 2109 2001 1995 1991 1985 2035 2048 2008 2067 2001 2054 2051 1995 1972 2089 1993 2043 1988 1970 2009 2060 2062 1944 2069 1981 1977 2010 2059 2041 2003 2026 2023 2138 2031 2032 1972 2038 2041 1966 2042 2006 2048 2047 1944 1979 2097 2011 2069 1957 1921 1972 2012 2058 2040 1960 1978 1977 1974 1964 1966 1969 2005 2036 2086 2053 1959 2042 1972 2013 2074 1973 1993 1931 1950 1960 2032 2024 1958 2093 2084 1987 2061 1996 1975 2063 1965 1926 1989 2022 2010 1994 2018 2048 2018 1943 1951 1950 2006 1928 2007 2052 2019 1935 1974 1989 1934 2034 2028 1923 2044 2053 2108 2040 2088 2009 1934 2020 1986 1997 2005 1944 1947 2083 1990 2057 1949 1962 2009 1995 1994 2054 1968 1992 2049 1954 1990 1990 1974 1961 2039 1986 2023 1945 1982 1956 2018 1966 1928 1997 1955 1944 1967 1919 1995 1965 1984 1955 1967 2006 2093 2012 1967 2008 2032 2009 2002 1910 1933 1985 1987 2021 1933 2000 2066 1955 2036 1959 2067 2035 2056 1953 1990 1974 2047 1975 2014 2045 1950 1981 1983 2041 1953 1998 2018 1966 1964 2032 2115 2095 1961 1957 1894 1903 1874 1950 2021 1962 2040 1981 2036 2010 1970 2044 2049 1964 2016 1989 2093 1984 1898 1982 1938 2057 2005 1997 2016 1944 1960 2017 2033 2000 1938 2015 1934 2026 2002 1998 1988 2059 2027 1966 2008 2009 1976 1989 2012 1959 1928 2030 2015 2087 1959 2089 2048 1967 2020 1925 2051 1985 2021 1974 1953 2088 1919 1948 1941 1946 1952 2049 1977 1912 1968 1935 1978 1936 2053 1988 1983 2007 1992 2041 1991 2082 1950 1982 2030 1913 1944 1976 2011 2003 2010 1984 1974 1905 1964 1969 2009 2022 2039 1943 2009 1976 1985 1920 1923 2019 1989 1962 1985 1930 2053 1972 1936 1958 1923 1980 1937 1982 2002 1909 1933 1957 1966 2038 1909 1963 2058 2030 1988 2003 2015 2073 1971 1926 2028 1959 2039 2058 1995 1933 1940 1942 1978 1971 2017 1913 1996 1957 1955 1932 1998 2072 1992 1976 1978 1980 1990 2008 1956 2008 2014 1998 1956 1882 1929 1924 2011 1956 2069 1898 1955 1994 2002 1971 1978 2019 2001 1940 1984 1935 1953 1974 1931 2039 1959 1936 1959 1922 1928 2030 1892 2004 2031 1934 2090 1969 1901 1943 1995 1882 1967 1947 2002 1939 1973 2020 1985 1969 2041 2050 2034 2020 1911 1913 1954 2008 1951 1980 2033 1937 2011 2073 2053 2095 2073 2032 1967 2136 2045 1994 2131 2013 2049 2079 1998 2022 2026 2074 2124 2089 2035 2055 1967 2076 1926 2101 2142 2049 2030 2007 2024 2020 1975 2019 2001 2007 2019 2032 2068 2037 2049 2049 1954 2015 1986 1977 2000 2009 2014 1980 2035 2061 1996 1985 2051 2011 2067 2067 2032 2127 2084 2064 2058 2000 2080 2110 2004 2071 2125 2095 2137 2179 2065 2163 2190 2276 2291 2295 2226 2306 2227 2251 2212 2330 2322 2322 2310 2235 2319 2376 2315 2336 2253 2299 2353 2340 2264 2357 2196 2211 2193 2276 2212 2252 2151 2133 2205 2272 2262 2171 2244 2090 2182 2222 2177 2213 2210 2244 2224 2263 2150 2113 2129 2110 2113 2070 2204 1994 2079 2102 2180 2116 2037 2180 2077 2215 1994 2106 2037 2018 2078 2110 2086 2056 2006 2041 2023 1943 2001 2035 1943 2030 2014 2058 1946 1955 1958 1956 1975 2020 2039 1886 2061 1956 1966 1979 1972 2035 2048 1926 2039 1975 1922 1967 2011 1928 1973 1942 1959 2068 1955 2004 1939 1966 1996 2037 1994 1962 1989 2051 1998 1981 2036 2050 1994 2030 1959 1949 2005 2048 1948 1966 1946 1884 1968 1976 2014 2091 1944 2033 1889 1887 1964 1956 1981 2000 1964 1963 1975 2033 1924 2016 1916 1818 1941 1934 1986 1932 1952 1899 2059 1986 1971 1939 1955 1921 1949 1988 1929 2032 2082 2052 2025 1968 2000 1979 1965 1945 1949 1976 2009 1899 1913 1962 1876 1968 2045 1913 1962 1960 1953 2023 1901 1993 1899 1973 1994 1974 1966 1984 2009 2040 1947 2012 1967 2026 2034 1967 1987 2018 1984 2021 2006 2007 1953 2001 1951 2040 2052 1929 1912 2002 1995 1945 2009 2009 2007 2025 2007 2032 1898 1958 1973 2025 1959 1972 1960 2003 2001 2008 2066 1991 1947 1980 2035 2024 2058 2140 2027 2060 2002 2055 2066 2071 2059 2068 2062 2155 2111 2219 2110 2148 2179 2193 2225 2319 2306 2373 2417 2410 2385 2487 2626 2593 2536 2569 2521 2596 2716 2717 2610 2612 2680 2720 2683 2759 2773 2696 2656 2741 2671 2574 2668 2655 2594 2605 2602 2548 2529 2512 2563 2544 2482 2411 2489 2415 2434 2338 2321 2403 2360 2290 2280 2251 2326 2321 2291 2183 2249 2249 2263 2266 2201 2221 2033 2189 2130 2201 2149 2144 2171 2182 2113 2027 2119 2075 2059 2103 2093 2047 2070 2058 2054 2080 2039 2110 2056 2034 2015 2069 2018 2080 2041 2035 2002 1979 2026 2028 1987 2071 1976 2035 2019 1985 2053 1980 2020 2001 2118 1926 2002 1961 1985 2038 2066 2031 1947 2041 2119 1996 1998 1999 2058 2021 2071 1997 2062 2051 2076 2040 2054 1973 2055 1977 2130 2052 1996 2047 2069 2014 1978 2066 2060 1998 1991 2084 2032 1974 2008 2053 1936 2004 2105 2023 1990 2039 1903 2024 2013 1971 2031 2039 1986 2042 2058 2036 2073 2043 1992 1986 2005 2048 2000 2004 1969 2033 2040 2037 2014 2012 2066 1979 1973 2032 1952 2035 2007 2032 2037 2085 1991 2042 1976 2073 2089 2051 2013 2080 2033 2087 2086 2075 2030 2096 2111 2042 2084 2098 2155 2171 2129 2100 2209 2178 2062 2099 2080 2138 2199 2170 2087 2230 2132 2171 2151 2171 2115 2216 2251 2187 2130 2165 2108 2121 2170 2074 2163 2104 2156 2064 2134 2079 2075 2060 2060 2146 2081 2103 2048 2041 2106 2067 2059 2006 2025 2057 2037 1924 2065 2006 2085 2060 1991 1972 2045 2005 1984 1978 2015 1932 1919 2098 1965 2059 1942 1954 1984 2004 1909 1929 2010 1962 1925 1841 2050 1950 1928 1896 1929 1979 1964 2049 1928 1974 2017 1989 2009 1923 1982 2031 1995 1912 2022 2015 1923 1958 2046 1900 1999 1882 1975 2013 1995 2016 2012 1981 1880 1881 1981 1967 1972 1967 1945 1986 1961 1911 1974 1987 1930 1970 1997 1956 1954 1944 1965 1969 1961 1916 1979 1928 1911 2042 1994 1907 1978 1944 1896 1978 1937 1888 1926 1921 1925 1950 1955 1924 1956 1965 1987 2021 1972 1919 1877 1934 2065 1954 2004 1967 1887 1927 1956 1899 1981 2038 1917 1956 2012 1920 1929 1918 1956 1926 1980 1968 2008 2026 1935 1959 1917 1936 1905 1896 1908 1964 1912 1960 1935 1883 1919 1977 1930 1975 1969 1935 1903 1897 1969 1919 1961 1927 1932 1889 1930 1934 1956 1919 1882 1962 1932 2032 1924 1984 1974 1951 1959 1945 1968 1907 1953 1909 1937 1895 1985 1923 1935 1972 1871 1963 1918 1996 1867 1915 1912 1793 1850 1898 1953 1917 1982 1957 1953 1904 1898 1956 1974 1957 1967 1946 1955 1970 1868 2045 1965 1909 1933 1951 1891 1955 1860 1936 1930 1857 1908 1975 1891 1973 1927 1890 2002 1979 1967 1930 1938 1875 1856 1965 1934 1925 2028 1872 1889 1955 1926 1822 1819 1862 1887 1916 1914 1955 1956 1947 1956 1943 1954 1979 1999 1928 1900 1942 1919 1965 1914 1915 1926 1955 1893 1942 1903 1938 1847 1940 1957 1991 1971 1861 1917 1909 1960 1960 1967 1973 1886 1964 2004 1931 1959 1934 1910 1926 1938 1960 1904 1974 1931 1917 1998 1958 1915 1986 1913 1850 1930 1895 2008 1980 1920 1963 1901 1942 1949 1937 1884 1876 1907 1941 1879 1972 2006 1930 1968 2027 1884 1907 1970 1897 1866 1925 1838 1958 1981 2004 1915 1869 1953 1952 1934 1918 1925 1912 1945 1838 1959 1959 1893 1958 1918 2020 1909 1922 1963 1992 1926 1869 1969 1922 1940 2001 1986 1920 1877 1914 1913 1990 1955 1854 1955 1896 1938 1937 1935 1928 1936 1947 1835 1893 1934 1976 1953 1919 2033 1941 1968 1951 1959 1896 1909 1965 1944 1964 1890 1904 1968 1933 2009 1971 1909 1915 1988 1893 1931 1940 1887 1866 1909 1959 1957 1905 1945 2005 1929 1979 1946 1890 1989 1903 1928 1844 1931 1910 1918 1994 1789 1881 1958 1934 1896 1904 1901 1893 1960 1934 1978 1943 1945 1949 1983 1939 1941 1915 1861 1941 1928 1921 1932 1923 1926 1948 1979 1963 1986 1929 1958 1917 1946 1907 1997 2011 1968 2016 2024 1957 2004 2055 1979 2001 2007 1994 2055 1986 2133 1986 2106 2054 2133 1988 2070 2013 2059 2069 2105 2039 2049 2024 1982 1962 2010 1947 2046 2043 2040 2054 1964 2013 2047 1977 2009 2016 1941 2003 2010 1980 2011 1931 1944 1925 2038 1954 1932 1896 2023 2005 1982 1954 1979 1990 2046 1974 1942 1954 1939 1920 2004 1933 1963 1970 1885 1944 1966 1987 1891 1884 1998 1936 1924 1950 2012 1983 1993 1894 1961 1965 1906 1906 1919 1830 1941 1898 1992 1879 1898 1971 1889 1970 1885 1912 1932 1900 1934 1960 2026 1979 1919 1900 1952 1931 1963 1930 1927 2039 1964 2008 1944 1988 1858 1928 1921 1981 1993 1918 1925 1985 2036 1942 2004 1929 1962 1986 1932 1954 1856 1928 1955 1944 2003 1946 1978 1886 1971 1934 2032 1869 1967 1977 1905 1910 1907 1950 1970 1953 1942 2032 1945 1989 1922 1923 2022 1900 1966 1905 1918 1917 1935 1872 1900 1979 1886 1947 1862 1953 1917 1983 1958 2006 1912 2016 1946 1915 1919 1920 1889 2018 1933 1995 1919 1920 1957 1915 1859 1844 1914 1919 1870 1947 1945 1982 1875 1947 2008 1964 1964 1928 1924 1913 1904 1949 1877 1948 1911 1898 1903 1941 1908 1884 1957 1915 1960 1902 1908 1902 1957 1888 1943 2027 1890 1962 1874 1974 1988 1968 1925 1984 1963 1892 1930 1932 1869 1847 1878 1923 1994 1959 1917 1959 1991 1876 1921 1949 1958 1954 1862 1983 1936 1916 1982 2030 1988 1842 1868 1900 2008 1942 2015 1881 1954 1952 1907 1879 2035 1987 1957 1934 1932 2035 1972 1886 1975 1970 1976 1844 1965 1961 1992 1944 1921 1935 1948 1964 2029 1973 1947 2052 2044 1932 1966 1947 1984 1965 2075 2023 2047 1964 2099 2071 2042 2144 2031 2085 2172 2120 2174 2224 2221 2185 2248 2097 2158 2152 2221 2259 2196 2147 2245 2255 2235 2174 2225 2273 2310 2315 2252 2222 2248 2225 2272 2242 2266 2218 2204 2223 2217 2118 2196 2169 2143 2188 2137 2075 2160 2123 2035 2090 2101 2091 2096 2091 2049 2072 2129 2078 2109 2078 2045 2124 2022 2010 2079 2024 2137 2020 2047 2095 2059 2127 2069 2026 2045 2001 2033 2022 2103 1992 2063 2030 2077 1961 2024 2003 1959 1870 1967 2002 2098 1968 1942 2008 1933 1903 1975 1955 2036 2000 1988 1993 1953 1962 1913 1953 2049 1880 1972 1979 1935 1955 1940 1917 1888 1914 1984 1953 1951 1884 1954 2005 2021 1957 1917 1951 1904 1855 1918 1938 1875 1890 1942 2020 1999 1968 1944 1870 1891 1937 1951 1910 1920 1959 1889 1983 1933 1908 1895 1907 1906 1950 1888 1974 1944 1864 1851 1835 1844 1895 1939 1962 1927 1896 1961 2005 1952 1932 1944 1987 1920 1840 1925 1920 1941 1961 1970 1932 1927 1890 1900 1921 1913 1925 1917 1994 1942 1981 1898 1921 1872 1913 1961 1925 1801 1954 1937 1930 1922 1910 1953 1960 1955 1911 1874 2001 1954 1936 1904 2028 1925 1920 1975 1879 1901 1930 1866 1983 1870 1915 1904 1814 1856 1888 1942 1914 1870 1913 1835 1945 1853 1901 1912 1942 1815 1906 1956 1969 1846 1947 1969 1979 1883 1907 1877 1876 1980 1900 1885 1893 1992 1974 1908 1929 1915 1998 1952 1938 1952 1907 1851 1955 1953 1907 1916 1941 1903 1932 1962 2004 1911 1990 1886 1914 1925 1888 1902 1872 1901 1920 1915 1906 1966 1939 1908 1872 1954 1934 1919 1939 1969 1998 1958 1825 1931 1898 1875 1879 1945 1937 1928 1907 1884 1924 1913 1895 1959 1943 1914 1939 1943 1951 1955 2009 1923 1947 1852 1837 1899 1957 2003 1982 1927 2024 1928 1962 1906 1934 1980 1977 1916 1941 1948 1963 1991 1988 1840 1921 1844 2007 1927 1928 1858 1864 1814 1936 1953 1935 1958 1983 1964 1901 1936 1982 1897 1914 1821 1909 1911 1924 1931 1868 1971 1928 1963 1926 1994 1943 1948 1905 1991 1966 1930 1896 1913 1874 1947 1941 1925 1896 1937 1934 1898 1951 1931 1885 1849 1957 1961 1939 1957 1987 1914 1869 2009 2027 1858 1968 1927 1988 1902 1921 1880 1842 1962 1965 1888 1941 1902 1871 1955 1956 1929 1886 1991 1884 1852 1886 1954 1872 1883 1948 1844 1868 1953 1973 1912 1931 1907 1821 1887 1954 1982 1853 1885 1937 1884 1923 1902 1984 1873 1850 1950 1918 1962 1940 1874 1971 1868 1891 2011 1930 1961 1903 1884 1956 1928 1903 1948 1893 1962 1927 1943 1886 1874 1911 1936 1886 1949 1869 1930 1836 1904 2032 1932 1897 1937 1904 1857 2003 1962 1978 1959 1963 1974 1991 1940 1913 1861 1966 1904 1907 1945 1889 1930 1943 1892 1893 1873 1878 1952 1872 1873 1972 1873 1860 1952 1893 1878 1923 1930 1960 1960 1928 1964 2008 1886 1843 1888 1956 1918 1916 1895 1869 1950 1949 1879 1922 2004 1844 1906 1914 1992 1969 1897 1893 1877 1950 1921 1929 1965 1982 1935 1934 1941 1904 1920 1870 1922 1902 1937 1904 1917 1904 1856 1902 1897 1927 1890 1918 2030 1975 1902 1921 1962 1940 1939 1963 1891 1879 1943 1891 1832 1862 1918 1864 1925 1856 1893 1888 1869 1947 1934 1909 1890 1791 2024 1877 1858 1881 1890 1895 1975 1898 1907 1870 1945 1898 1919 1962 1993 1945 1932 1890 1887 1906 1938 1974 1914 1933 1999 1906 1883 1906 1923 1962 1950 1946 1848 1944 1922 1928 1872 1950 1930 1899 1993 2012 1908 1970 2047 1921 1851 2020 2026 1981 1993 1887 1983 1848 1882 2021 1862 1911 1925 1948 1938 1965 1957 1991 1905 1919 1869 1940 1935 1841 1955 1977 1911 1899 1944 1990 1946 1917 1980 1955 1901 1979 2050 2010 1963 1973 1932 2048 1959 2074 1949 1967 1919 1998 1941 2103 2046 1943 1912 2009 2017 1967 2009 2025 1934 1998 1990 2031 2076 1942 1969 2011 1992 2008 1982 2002 1974 1922 2019 2020 2018 1941 1974 1953 1980 1967 2042 1985 1987 1945 2013 2028 1991 2023 2018 2052 2082 2012 2001 1993 2037 2032 2038 2061 2000 2037 2017 2035 2058 2022 2025 2004 1997 1991 2022 2020 2002 1977 2052 2058 1895 2029 1933 2012 2017 1986 2076 1987 1989 1972 2080 1965 2032 1982 1941 2071 1973 1882 2033 1885 1911 2016 1919 1892 1926 2039 1999 2015 1943 1961 1982 1956 2016 2035 2003 2005 2011 2018 1973 1974 1899 2014 1943 1972 1930 1978 1948 1978 2050 1959 1951 1975 1977 1986 2001 1960 1967 2015 1964 1963 1951 2009 1973 1995 1955 2036 1964 1949 2007 1970 1929 1927 1887 1960 1987 2042 2035 1989 1964 2022 1963 1910 1994 1981 1973 1957 1981 1936 1920 1910 1977 1920 2004 1963 1939 1985 2003 1951 1983 1891 1939 1906 1978 2037 1960 1952 1942 1989 1971 1872 1908 1937 1914 1963 1956 1976 1949 1916 1934 1844 2034 1883 1931 2020 1937 1966 1946 1919 1849 1968 1931 1998 1951 1966 1856 1976 2025 2012 1979 1981 1989 1926 1917 1952 1943 1962 2004 1941 1993 2010 2014 1969 1965 1972 1973 1890 1953 1916 1898 1886 1925 1936 1985 1942 1990 2001 1993 1930 1997 1990 1998 1945 1976 1961 1930 2048 1932 1962 2048 1920 1992 2026 1990 2018 1918 2056 2057 2048 1974 2046 2047 2046 2129 2026 1973 2079 2043 2164 2089 2170 2130 2117 2233 2156 2211 2160 2227 2291 2260 2353 2263 2308 2286 2340 2362 2408 2344 2429 2371 2410 2397 2431 2486 2508 2428 2415 2382 2540 2385 2494 2450 2478 2592 2598 2492 2573 2518 2482 2490 2582 2523 2495 2443 2413 2443 2444 2338 2440 2436 2485 2395 2422 2362 2372 2389 2332 2339 2324 2310 2271 2293 2342 2317 2274 2298 2245 2287 2173 2230 2237 2270 2200 2151 2233 2094 2265 2154 2150 2279 2198 2100 2129 2143 2227 2133 2171 2159 2120 2114 2140 2028 2074 2074 2151 2060 2106 2018 2119 2030 2112 2025 2033 2086 2080 2082 2082 2012 1974 2070 1989 2047 2026 2059 2031 2073 2002 1980 1985 2032 2094 2079 1998 1940 1969 1921 1992 1964 1857 1941 2008 2024 2011 2030 1955 1996 1989 2033 2049 1969 1995 2020 1890 1946 1923 1994 1930 2027 1896 1987 1969 1948 1988 2034 1992 2046 2008 1950 1978 1991 1914 2029 1907 1850 1973 2003 2024 1961 2018 2046 2010 1979 2054 2041 2019 2003 1994 1961 2023 1961 1997 2049 2056 1995 2004 1955 1984 2051 2103 2007 2079 1954 2106 2059 2090 2115 1993 2042 2048 2052 2077 2081 2044 2024 2096 2036 2046 2091 2069 2110 2054 2025 2144 2013 2068 2212 2063 2011 1935 2102 2128 2118 2075 2009 2042 2015 2031 2060 2114 2055 2060 2043 2165 1982 2087 2098 2080 1990 1985 2064 2061 2012 2094 1978 2067 2023 2052 1993 1940 1930 1979 2044 2019 1980 1999 2015 2053 2008 1999 1943 1993 1980 2037 1979 1932 2003 1926 1994 1952 1950 2027 1957 1966 2021 2022 1979 1935 2010 1998 1964 1945 2003 1976 1926 1944 1972 1937 1946 1982 1978 1978 1986 1882 1882 1925 1951 1924 1901 1914 1961 1970 2008 1971 1930 1968 1928 1929 1969 1949 1864 1944 1925 1951 1925 1978 1977 1965 1953 1996 1944 2031 2021 2003 1902 1951 2018 1941 1825 1972 1908 1944 1948 1958 1957 2018 1911 1916 2050 1864 1993 1962 1982 1920 1932 1946 2021 1909 1888 1895 1899 1950 2025 2038 1912 1902 1938 1965 1936 1935 1947 1971 1934 1912 1963 1917 1966 1876 1914 2022 1974 1931 1956 1979 1910 1958 1917 1941 1902 1958 1892 2017 1941 1926 1998 1911 1992 1931 1941 1910 1920 1975 1880 1986 1847 1900 2031 1966 1988 1893 1940 1913 1917 1944 1931 1900 2052 1934 1930 1912 1927 1935 1953 1917 1946 1954 1958 1976 1953 1936 1934 1923 1925 1878 2009 1927 1953 2011 2047 1964 1934 1991 1888 1931 1915 1955 2007 1924 1977 1946 2032 1902 1921 1880 1968 1968 1943 1919 1897 2031 1871 1898 1820 1961 1925 1946 1962 1961 2020 2001 1953 1939 1931 1960 1916 2010 1824 1942 1945 1940 1882 2034 1935 2040 1905 1993 1982 1997 1962 1932 1940 1951 1965 1943 1981 1925 1965 1937 1899 1941 1900 1870 1929 1972 1862 1965 1848 1852 1911 1954 1919 1908 1885 1865 1931 1925 2022 1914 1857 1895 1970 1900 1886 1964 1988 1922 1908 1928 1953 1918 1875 1946 1929 1932 1968 1890 2054 1973 1971 1894 1912 1902 1950 1893 1907 1937 1947 1948 1884 1832 1885 1939 1934 1890 1969 1893 1936 1875 1929 1899 1902 2013 2021 1900 1936 1884 1946 1988 1954 1947 1893 1975 1881 1988 1945 2014 1962 1931 1921 1949 1938 1984 1948 2003 2039 1906 1941 2015 1928 1896 1883 1963 1899 1948 2007 1906 1950 1966 1899 1966 1904 1985 1920 1916 1964 1909 1984 1850 1938 1987 1979 2013 1891 1948 1917 1871 1945 2014 1949 1928 1902 1964 1938 1959 1859 1917 1840 1977 1894 1943 1924 1925 1962 2036 1897 2022 1964 1894 2021 2022 1962 1967 1925 1930 1893 1824 2051 1887 1895 1947 1963 1957 1912 2024 1991 1976 2000 1916 1895 1964 2056 1992 1929 2019 1999 1979 1898 2033 2123 1976 1997 1995 1985 1983 1876 1940 2015 1997 1971 1969 1979 1997 1992 2099 2062 2022 1976 2013 2065 1981 2022 2026 2015 2014 2062 2036 2066 1978 2002 2013 2059 2035 1925 1946 1997 2074 2042 1928 1983 1972 1994 2005 2042 1988 1973 1979 2005 1992 1975 1961 2027 2051 1944 1983 1957 1983 2009 1933 2011 1974 1898 1985 1943 1991 1972 1930 1924 1928 1873 1947 1959 2021 2086 1859 2005 2012 1994 1986 1969 1919 1918 2005 1957 1897 1990 1972 1944 1996 2000 1908 1925 1990 2022 1975 1882 1926 1999 1994 2032 1876 2001 1962 1911 1861 1960 1924 1943 1991 1969 2000 1891 1981 1921 1886 1925 1915 1867 1889 1988 1962 1892 1938 1948 1962 2057 1962 1974 1896 1903 1895 1925 1896 2039 1936 1952 1931 1873 1965 1896 1931 1950 2017 1914 1910 1970 1935 1900 2011 1931 1994 1890 1966 1942 1915 1993 1955 2019 1981 1918 1915 1926 1964 1978 1909 1978 1945 1966 1906 2002 2015 1917 1934 2022 1984 1946 1967 1915 1914 1958 1874 1871 1990 1959 2050 1992 1906 1962 1997 1911 1890 1996 1894 2001 1945 1962 2005 1934 1915 1939 1934 1944 1962 1944 2011 1954 1998 2038 2009 1877 1982 2020 1873 1903 1977 1993 1981 1997 1974 1949 1937 1933 1978 1927 1953 1955 1915 1929 2029 1964 1927 1972 1980 1976 1965 1962 1981 2034 1885 1995 1956 1883 1992 1983 1903 2042 1963 2058 1897 2022 2004 1898 2051 2073 2044 2005 2024 1985 1890 1958 2024 1996 2001 1964 2011 1996 2031 1962 2010 2035 2025 2048 2064 2021 2083 2047 2016 2097 2134 2094 2122 2258 2084 2208 2203 2215 2087 2175 2212 2205 2225 2273 2222 2246 2236 2212 2198 2283 2229 2288 2201 2264 2325 2222 2251 2288 2333 2342 2302 2228 2214 2297 2327 2356 2276 2265 2350 2241 2269 2282 2301 2337 2261 2260 2316 2310 2139 2198 2186 2271 2182 2265 2165 2243 2194 2215 2146 2234 2183 2092 2212 2133 2142 2155 2102 2207 2145 2129 2131 2122 2152 2154 2117 2046 2110 2136 2098 2156 1899 2163 2066 2078 2083 2039 2031 2029 2036 1979 2119 2053 1996 2064 2100 2079 2044 2140 2054 2137 2033 2030 2066 2018 2033 2013 1961 2067 2061 2007 2052 2032 1979 2059 2051 1995 1945 1988 1978 2045 2007 1996 1977 2048 1985 2037 2043 2015 1968 1948 1978 2029 1969 1995 1959 1970 2005 1957 2024 1998 2014 2049 1935 1926 1924 2009 1982 1986 1981 1955 2011 2071 1971 2032 1927 2044 2003 2015 1941 1951 1947 1912 1994 1923 2005 1970 2009 1914 2022 2026 2013 1931 1909 2032 2003 1988 1961 1876 1942 1936 2040 1992 2005 2046 2030 1912 1991 1976 1988 1957 1997 1968 2000 1975 2050 2031 2025 1952 2040 2024 1998 1972 1972 2025 1994 2003 1996 1962 2065 2036 2083 1993 2038 2061 2032 2059 2006 1992 2046 2028 1974 1957 1998 1915 1986 1998 1949 2029 1998 2001 1973 1989 2038 1979 2002 2029 2058 1944 1998 1968 1985 2003 1959 2039 1909 2022 2003 2008 1978 1998 1909 2040 1944 1984 1994 1998 1936 1983 1920 1934 1868 1939 1964 1828 1908 1830 1880 1964 1977 1969 1994 1999 1914 1980 1932 1968 2028 1936 1993 1930 1967 1956 1949 1971 1919 1981 1976 1958 1949 1958 1954 1962 1930 2000 1964 1919 1957 1953 1952 1934 1944 1902 1886 1894 1946 1929 2030 1932 2029 2007 1889 1928 1969 1995 1930 1928 1958 1981 1908 2010 1970 1918 1973 1964 1880 2003 1954 1918 1925 1959 1996 1897 1964 1908 2064 1992 1915 1924 2045 1869 2046 1931 2007 1974 1928 1933 1947 1948 1935 1860 1863 1961 2020 1917 1971 2015 1857 1951 2014 1911 1956 1948 1885 1969 1976 1997 2000 1976 1936 1989 1959 1884 1990 1908 1905 1926 1958 1882 2071 1918 1922 1958 1893 1917 1956 2001 1941 1962 1910 1996 1994 1901 2005 1874 1905 1984 1939 1973 1940 1942 2031 2073 1971 1963 2049 1974 1933 1946 1966 2005 1944 1947 1910 1924 1963 1999 2029 1907 1921 1996 1977 1964 1897 1893 1881 2030 1990 1965 2029 1918 1956 1910 1874 1897 1944 1947 1886 2003 1928 1963 1928 1974 1939 1980 1877 1961 1994 1888 1899 1939 1972 2008 1991 1811 1987 1977 1994 1975 1931 1951 1879 1942 2027 1948 2005 1979 1939 1976 1943 1904 1891 2025 1941 1954 1968 1949 2018 1951 1961 1884 1958 2011 1886 1971 1960 1896 1915 1923 1997 1946 1999 1947 2021 1988 1873 1876 1926 1927 1950 1976 1983 1956 1998 1949 1976 1865 1988 1988 1983 1866 1941 2000 1894 1954 1937 2003 1933 1949 1868 1920 1974 1977 1927 1892 1947 1936 1959 1888 1890 1965 1992 1920 1927 1884 1951 1874 1925 2022 1869 2026 1991 1925 1969 1890 1933 1874 1954 1869 1952 1869 1942 1945 1920 1995 1916 1982 1902 1889 1903 1905 1957 1854 1934 1970 1988 2049 1978 1912 1941 1943 2007 1982 1923 1869 1949 2001 1950 1918 1992 1902 1940 1962 1953 1916 2022 1882 1982 1930 1935 1960 1919 1972 1891 2029 1908 1972 1999 1897 1915 2013 1878 1973 1971 1914 1950 1973 1947 1851</counts>
			</dataPoints>
		</scan>
	</xrdMeasurement>
</xrdMeasurements>
