<?xml version="1.0"?>
<xrdMeasurements xmlns="http://www.xrdml.com/XRDMeasurement/2.3" xmlns:xsi="http://www.w3.org/2001/XMLSchema-instance" xsi:schemaLocation="http://www.xrdml.com/XRDMeasurement/2.3 http://www.xrdml.com/XRDMeasurement/2.3/XRDMeasurement.xsd" status="Completed" recordIdentifier="{F55DBACD-1478-431A-A720-27D14E94C28D}">
	<comment>
		<entry/>
	</comment>
	<sample type="To be analyzed">
		<id>GPSS_Li1p6Mg1p2Cl4_111725_691b7e20f3837ac4a0a99379</id>
		<name></name>
		<preparedBy></preparedBy>
	</sample>
	<xrdMeasurement measurementType="Scan" status="Completed" sampleMode="Reflection">
		<usedWavelength intended="K-Alpha 1">
			<kAlpha1 unit="Angstrom">1.5405980</kAlpha1>
			<kAlpha2 unit="Angstrom">1.5444260</kAlpha2>
			<kBeta unit="Angstrom">1.3922500</kBeta>
			<ratioKAlpha2KAlpha1>0.5000</ratioKAlpha2KAlpha1>
		</usedWavelength>
		<incidentBeamPath>
			<radius unit="mm">145.00</radius>
			<xRayTube id="1010048" name="Empyrean Cu LFF HR (9430 033 7310x)">
				<tension unit="kV">40.0</tension>
				<current unit="mA">15.0</current>
				<anodeMaterial>Cu</anodeMaterial>
				<focus type="Line">
					<length unit="mm">12.0</length>
					<width unit="mm">0.4</width>
					<takeOffAngle unit="deg">6.0</takeOffAngle>
				</focus>
			</xRayTube>
			<sollerSlit id="21010002" name="Soller slits 0.04 rad.">
				<opening unit="rad">0.0400</opening>
			</sollerSlit>
			<mask id="22031000" name="Fixed mask 13 mm">
				<width unit="mm">9.00</width>
			</mask>
			<divergenceSlit id="22120001" name="Divergence slit 1°" xsi:type="fixedDivergenceSlitType">
				<distanceToSample unit="mm">50.00</distanceToSample>
				<height unit="mm">1.52</height>
			</divergenceSlit>
		</incidentBeamPath>
		<sampleMovement xsi:type="spinningSampleMovementType">
			<spinnerRevolutionTime unit="seconds">1.0</spinnerRevolutionTime>
		</sampleMovement>
		<diffractedBeamPath>
			<radius unit="mm">145.00</radius>
			<antiScatterSlit id="22090040" name="AS slit 9 mm (PIXcel)" xsi:type="fixedAntiScatterSlitType">
				<height unit="mm">9.00</height>
			</antiScatterSlit>
			<sollerSlit id="21020003" name="Large Soller slits 0.04 rad.">
				<opening unit="rad">0.0400</opening>
			</sollerSlit>
			<filter id="20030001" name="Large beta-filter Nickel">
				<material>Ni</material>
				<thickness unit="mm">0.020</thickness>
			</filter>
			<detector id="7010019" name="PIXcel1D-Medipix3 detector" xsi:type="rtmsDetectorType">
				<phd unit="keV">
					<lowerLevel>4.02</lowerLevel>
					<upperLevel>11.27</upperLevel>
				</phd>
				<mode>Scanning</mode>
				<activeLength unit="deg">5.542</activeLength>
			</detector>
		</diffractedBeamPath>
		<scan appendNumber="0" mode="Continuous" scanAxis="Gonio" status="Completed">
			<header>
				<startTimeStamp>2025-11-20T13:17:06-08:00</startTimeStamp>
				<endTimeStamp>2025-11-20T13:25:13-08:00</endTimeStamp>
				<author>
					<name>AutomatedUser</name>
				</author>
				<source>
					<applicationSoftware version="1.7b (136)">PANalytical Aeris Instrument Suite</applicationSoftware>
					<instrumentControlSoftware version="3.2.00000000 20240306">AERIS</instrumentControlSoftware>
					<instrumentID>950485</instrumentID>
				</source>
			</header>
			<dataPoints>
				<positions axis="2Theta" unit="deg">
					<startPosition>10.00943322</startPosition>
					<endPosition>99.99442286</endPosition>
				</positions>
				<positions axis="Omega" unit="deg">
					<startPosition>5.00471661</startPosition>
					<endPosition>49.99721143</endPosition>
				</positions>
				<commonCountingTime unit="seconds">12.495</commonCountingTime>
				<counts unit="counts">2848 2650 2787 2772 2738 2718 2780 2719 2678 2774 2704 2721 2774 2707 2744 2874 2698 2776 2711 2684 2755 2747 2689 2637 2712 2713 2641 2767 2714 2678 2721 2726 2749 2724 2642 2763 2708 2728 2700 2801 2609 2760 2732 2730 2701 2722 2698 2783 2764 2725 2667 2783 2677 2721 2771 2779 2724 2742 2796 2845 2756 2775 2762 2714 2676 2795 2749 2641 2737 2725 2725 2666 2657 2760 2730 2687 2683 2797 2820 2716 2797 2782 2740 2771 2796 2708 2858 2837 2782 2687 2773 2671 2777 2787 2738 2772 2793 2784 2748 2870 2794 2795 2864 2866 2751 2744 2784 2766 2720 2706 2784 2730 2759 2746 2847 2838 2710 2743 2726 2749 2780 2776 2853 2707 2804 2772 2744 2696 2764 2772 2868 2779 2825 2684 2843 2741 2746 2849 2737 2813 2820 2702 2696 2855 2734 2760 2826 2796 2727 2861 2796 2732 2783 2775 2831 2785 2759 2778 2835 2771 2739 2806 2857 2664 2753 2791 2692 2710 2778 2782 2860 2690 2690 2724 2741 2706 2791 2707 2734 2703 2718 2798 2749 2773 2700 2694 2735 2719 2699 2648 2713 2652 2713 2619 2653 2677 2783 2628 2623 2565 2768 2589 2666 2706 2611 2655 2569 2612 2603 2614 2740 2634 2692 2523 2589 2619 2724 2535 2627 2567 2629 2688 2653 2673 2616 2596 2547 2608 2585 2490 2541 2566 2569 2593 2613 2533 2556 2562 2578 2563 2537 2585 2507 2446 2443 2535 2534 2447 2462 2585 2519 2441 2572 2474 2668 2578 2548 2548 2444 2452 2437 2449 2497 2563 2377 2440 2384 2415 2407 2459 2476 2392 2465 2433 2450 2480 2415 2453 2452 2373 2418 2371 2467 2445 2446 2378 2445 2315 2427 2354 2317 2494 2425 2401 2437 2282 2365 2414 2367 2347 2327 2350 2396 2377 2347 2430 2352 2329 2349 2354 2298 2291 2399 2360 2336 2230 2253 2310 2213 2353 2310 2310 2289 2240 2244 2245 2258 2338 2279 2286 2318 2200 2226 2236 2338 2179 2300 2219 2280 2211 2209 2272 2175 2246 2268 2191 2223 2206 2242 2233 2131 2237 2289 2171 2212 2261 2196 2133 2232 2183 2223 2160 2281 2095 2150 2123 2092 2215 2055 2159 2156 2142 2059 2206 2076 2184 2141 2096 2155 2236 2157 2110 2179 2186 2106 2108 2134 2156 2167 2105 2103 2115 2162 2179 2193 2172 2207 2187 2225 2185 2246 2161 2169 2206 2245 2275 2302 2347 2270 2333 2353 2308 2441 2352 2458 2454 2559 2554 2543 2622 2824 2784 2815 2864 3021 3003 3076 3204 3233 3276 3512 3512 3665 3718 3888 3957 3998 4016 4118 4111 4269 4304 4400 4532 4648 4654 4597 4747 4660 4735 4718 4670 4906 4760 4878 4748 4587 4740 4566 4646 4525 4389 4298 4208 4225 4149 4258 4262 4314 4238 4361 4366 4484 4315 4316 4316 4380 4295 4064 4027 3878 3863 3601 3476 3363 3186 2946 2659 2637 2542 2336 2386 2168 2144 2112 2050 2091 2087 2056 2068 2094 2055 1991 1967 1969 2003 2075 1980 1961 1939 1852 1930 1888 1969 1897 1952 1904 1869 1927 1837 2017 1823 1894 1959 1892 1892 1860 1892 2001 1920 1881 1869 1839 1850 1819 1855 1866 1834 1779 1840 1867 1884 1824 1804 1827 1845 1900 1859 1858 1893 1887 1875 1853 1802 1848 1802 1847 1845 1861 1778 1873 1782 1877 1823 1872 1808 1847 1791 1805 1797 1813 1787 1823 1753 1737 1737 1761 1732 1730 1653 1761 1713 1859 1761 1695 1691 1755 1702 1707 1790 1792 1783 1770 1673 1690 1658 1660 1719 1661 1645 1714 1696 1639 1700 1716 1713 1758 1708 1705 1625 1710 1660 1723 1706 1644 1737 1658 1777 1628 1661 1719 1669 1673 1644 1681 1601 1678 1696 1656 1697 1657 1613 1670 1622 1645 1594 1593 1618 1623 1704 1630 1603 1629 1587 1658 1567 1658 1617 1677 1621 1668 1629 1570 1565 1630 1617 1629 1561 1544 1649 1568 1581 1627 1566 1544 1624 1562 1564 1587 1614 1619 1555 1529 1575 1586 1583 1571 1665 1645 1541 1594 1577 1547 1547 1500 1572 1542 1535 1555 1518 1555 1563 1515 1568 1585 1544 1514 1510 1562 1483 1480 1516 1510 1471 1544 1460 1432 1527 1435 1590 1521 1493 1472 1514 1504 1440 1469 1496 1548 1548 1470 1538 1467 1500 1529 1476 1462 1527 1528 1519 1520 1481 1571 1500 1485 1463 1499 1368 1449 1409 1449 1525 1476 1496 1454 1471 1429 1452 1430 1450 1449 1405 1454 1418 1440 1452 1423 1443 1424 1464 1368 1436 1421 1399 1413 1420 1418 1466 1439 1362 1403 1437 1423 1445 1440 1436 1440 1344 1467 1425 1443 1433 1470 1434 1465 1454 1369 1428 1377 1385 1446 1354 1401 1395 1330 1363 1383 1391 1346 1326 1384 1426 1387 1482 1383 1437 1426 1336 1367 1351 1317 1399 1300 1357 1321 1365 1387 1353 1400 1345 1331 1354 1386 1355 1358 1367 1347 1348 1373 1351 1386 1290 1429 1397 1320 1340 1370 1361 1307 1353 1364 1291 1258 1352 1329 1355 1311 1340 1299 1364 1365 1324 1312 1401 1366 1405 1323 1270 1341 1296 1363 1312 1258 1344 1335 1262 1322 1266 1303 1273 1371 1277 1298 1279 1274 1258 1329 1297 1252 1264 1232 1233 1231 1226 1322 1259 1268 1299 1280 1329 1245 1292 1255 1234 1228 1304 1292 1289 1313 1313 1301 1262 1265 1284 1263 1292 1335 1232 1310 1208 1271 1285 1295 1312 1242 1294 1248 1216 1364 1248 1263 1182 1215 1251 1217 1205 1203 1285 1284 1258 1222 1218 1243 1343 1252 1234 1283 1248 1269 1297 1237 1320 1278 1276 1184 1212 1218 1223 1231 1210 1265 1229 1192 1214 1259 1170 1317 1235 1189 1248 1208 1218 1205 1184 1167 1218 1166 1259 1204 1259 1194 1249 1302 1198 1171 1164 1149 1220 1206 1243 1213 1160 1181 1248 1167 1156 1147 1203 1234 1189 1183 1169 1190 1180 1185 1184 1106 1197 1168 1180 1181 1192 1148 1177 1187 1131 1167 1134 1212 1197 1139 1130 1195 1118 1179 1142 1225 1163 1139 1139 1073 1160 1133 1093 1160 1174 1142 1152 1134 1124 1171 1137 1126 1126 1148 1110 1130 1154 1108 1093 1170 1125 1135 1134 1041 1157 1162 1115 1104 1181 1168 1154 1063 1143 1080 1142 1156 1066 1087 1099 1158 1128 1087 1156 1142 1106 1091 1129 1195 1065 1143 1104 1157 1102 1138 1114 1126 1096 1078 1040 1050 1102 1066 1064 1067 1129 1018 1095 1061 1090 1106 1124 1116 1066 1055 1074 1069 1077 1021 1115 1107 1109 1090 1096 1029 1057 1083 1045 1088 1026 1109 1081 1107 1048 1121 1003 1076 1064 1168 1039 1052 1113 1004 1052 1117 1107 1127 1048 1064 1077 1069 1074 1146 1051 1096 1074 1122 1045 1083 1073 1122 1060 1142 1106 1092 1136 1096 1108 1076 1055 1060 1055 1072 1126 1105 1112 1148 1152 1079 1155 1128 1162 1092 1135 1141 1108 1094 1105 1006 1163 1085 1111 1071 997 1100 1057 1099 1043 1085 1040 1063 1051 1063 1083 1096 1080 1064 1041 1011 1036 1044 1050 1003 1037 989 1021 1004 1015 1027 1039 1041 1014 1017 1084 989 1028 1017 997 971 989 1020 1016 995 998 1003 969 1001 980 991 970 1006 942 1016 957 993 950 977 1017 983 982 937 951 965 927 1031 964 992 1010 949 914 1022 958 979 951 987 955 992 979 961 945 939 971 952 926 996 933 970 918 918 943 968 903 950 921 984 919 928 917 1001 960 960 987 945 1006 918 889 949 915 942 985 930 991 956 926 984 993 981 946 940 919 971 963 963 1003 970 947 952 943 1003 946 964 996 938 946 978 948 935 1004 943 957 972 943 981 1013 933 960 989 990 922 976 987 950 989 936 902 927 1008 945 985 952 911 943 923 944 909 889 910 896 895 927 911 908 890 863 951 847 900 893 915 956 909 941 911 968 902 917 965 900 936 938 852 883 887 895 890 939 879 906 888 892 840 902 876 869 805 902 851 846 863 869 885 942 908 873 811 944 901 911 853 916 871 898 890 891 860 826 869 816 871 824 883 904 886 913 847 863 825 874 882 875 885 903 895 864 813 889 917 867 899 847 876 847 877 847 871 901 853 855 813 854 853 831 859 852 891 856 867 901 886 874 839 909 915 882 912 894 886 961 920 946 890 830 895 838 878 856 883 866 848 891 866 891 805 864 906 821 856 790 883 824 861 818 795 849 854 871 841 838 803 888 861 826 865 875 812 877 849 813 847 855 799 826 869 879 815 880 788 838 819 788 839 836 806 838 847 880 827 788 777 824 813 798 819 782 778 799 819 803 845 876 829 741 832 859 857 833 831 881 812 859 788 901 835 833 820 825 865 759 783 827 859 773 843 829 845 861 847 786 789 811 845 824 819 835 832 789 857 769 824 778 825 801 832 869 801 852 801 780 772 812 786 772 832 770 793 798 834 772 806 792 809 770 806 797 834 754 842 776 770 742 795 719 768 816 819 809 816 753 775 773 785 838 832 769 772 792 731 745 777 753 788 739 797 823 751 752 760 782 776 745 755 777 794 740 789 787 813 760 780 773 751 712 762 788 777 737 773 749 785 765 756 812 805 828 762 785 773 746 834 778 806 797 789 779 770 763 829 808 802 775 775 759 760 844 770 752 831 797 766 775 842 772 792 881 738 861 798 924 857 881 826 896 900 874 913 965 962 1017 988 1084 1010 1036 1135 1058 1104 1171 1232 1266 1251 1298 1370 1355 1314 1383 1395 1343 1368 1391 1383 1385 1275 1337 1346 1280 1279 1246 1177 1115 1106 1077 1028 1020 1002 995 1004 918 925 905 946 910 958 975 915 908 993 967 960 1006 925 962 917 961 935 935 938 948 915 922 942 923 954 968 905 889 900 936 908 903 882 948 951 939 927 957 1001 997 1033 999 1002 1017 936 1042 1046 1011 1116 1063 1101 1114 1165 1219 1165 1164 1185 1276 1308 1317 1370 1465 1520 1505 1647 1663 1756 1944 1985 2132 2399 2439 2716 2976 3202 3435 3709 4027 4396 4894 5047 5756 6120 6606 7033 7879 8022 8623 9371 9916 10230 11019 11506 12117 12575 13058 13281 13415 13868 13612 14078 13956 13989 14110 13842 13263 12646 11995 11085 10298 9341 8388 7473 6629 5809 5153 4514 4086 3556 3254 2861 2685 2469 2411 2483 2356 2430 2397 2463 2223 2328 2373 2305 2234 2293 2290 2302 2289 2195 2155 2136 2140 2053 2190 2083 2115 2023 2059 2040 2019 1999 2114 1948 1945 2013 2002 2051 1901 1848 1902 1717 1802 1681 1626 1597 1488 1433 1324 1300 1172 1157 1068 1074 982 992 964 938 897 861 892 877 885 809 863 799 874 837 779 790 782 849 820 811 777 772 747 822 763 756 770 783 792 805 787 805 854 807 814 781 798 774 783 766 745 769 770 740 759 764 723 776 749 738 710 717 762 775 772 783 693 747 713 716 647 727 754 759 722 712 720 770 712 707 703 695 724 754 717 737 678 746 706 678 749 698 720 713 712 753 702 694 731 714 717 719 668 690 692 692 744 642 716 671 688 697 743 692 668 680 681 751 710 673 757 722 739 745 725 684 703 751 625 681 727 681 678 658 734 696 699 695 706 780 761 720 829 747 749 737 781 716 753 718 782 754 794 819 812 841 845 811 801 805 890 843 838 867 796 860 851 891 842 930 843 897 926 899 879 864 883 851 856 873 835 830 781 825 798 837 774 761 751 820 824 808 733 804 727 755 720 698 698 671 769 634 729 691 730 683 684 664 672 693 683 712 651 667 652 693 641 739 643 665 684 641 627 703 676 682 676 636 669 667 702 721 634 707 683 630 662 674 648 675 675 681 650 660 661 665 685 664 627 672 715 661 696 687 717 687 680 727 781 741 746 761 739 743 740 764 725 778 766 758 791 795 793 788 837 826 831 820 832 833 830 795 800 887 814 825 818 790 808 837 846 808 789 802 840 872 792 812 824 820 771 783 786 801 786 785 775 791 814 793 795 793 780 784 784 816 808 817 878 830 876 797 852 906 933 930 917 978 924 1042 1045 1092 1104 1112 1203 1239 1318 1476 1499 1679 1738 1814 1900 1971 2198 2340 2556 2772 3024 3203 3463 3752 4075 4444 4771 5209 5725 6310 6827 7307 7870 8227 8850 9536 9951 10513 11196 11517 12079 12186 12613 12647 12780 12742 12407 12133 11590 11141 10606 9914 8850 8427 7541 6921 6219 5674 5256 4536 4084 3713 3424 3096 2877 2597 2515 2469 2479 2393 2384 2353 2417 2398 2390 2449 2593 2515 2663 2611 2625 2683 2608 2794 2684 2654 2690 2585 2691 2682 2523 2477 2392 2380 2230 2238 2022 2005 1867 1690 1706 1538 1433 1456 1310 1266 1151 1136 1082 1069 984 938 865 862 916 875 845 769 781 764 810 756 807 790 763 686 708 693 737 729 721 721 659 700 678 711 707 698 672 680 652 700 644 653 620 665 605 609 595 635 610 657 603 600 617 635 614 642 630 614 560 557 645 576 592 614 629 616 644 591 628 618 603 582 583 579 627 622 604 591 608 603 679 586 601 585 593 587 598 623 617 585 605 589 598 542 577 591 600 576 598 580 548 563 580 593 572 598 597 532 556 540 545 613 606 563 587 615 553 567 562 560 557 593 578 551 576 578 575 559 560 537 555 538 515 539 552 512 572 520 550 553 564 499 570 569 528 518 500 507 532 558 525 494 484 497 533 533 551 504 562 550 532 525 566 550 482 528 498 537 515 548 512 524 578 531 531 542 561 577 520 537 501 466 516 524 538 505 571 559 568 519 570 565 559 520 519 528 549 524 537 496 497 500 527 457 494 503 547 529 482 572 464 489 477 524 473 559 498 500 493 537 477 519 517 529 490 522 501 512 517 507 518 528 518 507 529 493 478 522 579 538 519 503 530 541 506 542 521 527 506 505 507 490 513 513 495 497 524 486 501 521 504 467 485 460 492 527 500 471 479 484 469 516 490 466 472 486 480 479 503 506 490 525 505 490 499 499 511 519 487 478 493 495 486 502 465 481 441 478 515 517 442 497 496 503 488 493 455 483 486 475 467 457 480 489 470 447 493 426 446 484 503 480 467 512 472 441 445 468 454 465 476 448 455 495 448 471 393 473 477 484 460 448 441 518 449 462 456 455 442 435 466 465 469 452 481 426 459 454 479 473 475 459 486 489 465 445 440 429 447 457 499 450 464 453 460 426 467 468 460 439 455 454 455 473 434 429 434 450 424 433 458 452 445 451 449 472 428 481 464 417 478 446 459 440 445 435 442 432 447 466 444 461 543 462 471 481 449 411 423 399 436 438 459 459 435 455 446 419 442 463 437 424 414 441 457 463 420 428 469 444 434 430 450 448 444 490 442 465 463 424 469 460 450 446 423 466 431 428 449 460 462 425 430 471 448 470 423 444 470 449 453 444 467 469 453 414 465 422 436 445 498 446 483 418 465 456 472 492 479 466 481 460 462 484 504 503 492 474 471 477 441 519 479 495 496 494 517 526 469 526 555 507 540 519 575 557 574 566 544 581 548 547 597 593 576 656 586 648 609 625 660 696 677 673 619 686 656 634 640 651 692 632 684 717 697 687 653 655 617 665 612 617 613 611 583 630 646 644 632 617 607 580 557 561 532 513 518 555 548 511 538 495 533 504 511 482 506 517 447 496 447 460 497 502 491 439 499 473 428 452 427 413 444 460 478 459 443 442 472 421 436 449 415 459 406 439 454 420 464 413 445 436 451 408 448 426 427 471 412 423 417 445 396 388 411 408 427 396 402 418 384 424 454 431 420 450 404 410 415 428 424 419 417 417 486 400 429 455 418 405 406 404 427 418 446 435 477 434 395 416 440 429 431 437 392 426 469 436 428 415 409 412 414 428 449 429 395 421 394 449 407 452 408 429 429 451 434 447 419 429 428 446 451 451 499 496 466 471 490 442 479 473 559 477 515 470 540 548 559 572 523 555 583 556 595 592 642 587 583 576 551 558 585 574 522 594 569 570 512 578 514 580 522 543 467 551 477 485 478 433 486 455 490 462 437 451 416 471 464 413 404 440 389 422 419 374 391 432 376 392 369 416 390 421 423 458 425 418 441 422 408 430 426 444 429 417 453 427 394 402 411 394 401 383 405 419 445 437 447 431 406 430 441 437 430 444 385 439 398 433 422 392 433 408 437 411 421 384 410 423 442 415 466 416 443 404 417 428 402 381 449 378 378 415 388 412 426 440 445 397 410 413 404 423 448 421 425 398 429 386 385 370 432 378 407 395 404 421 398 417 407 400 389 442 453 461 395 448 480 429 418 418 407 406 386 452 384 409 407 406 458 447 389 391 407 407 410 446 419 421 410 405 444 424 408 395 405 453 397 425 387 406 450 414 406 414 446 469 443 440 466 459 458 458 470 471 485 518 501 505 594 553 560 630 603 663 696 742 719 800 819 875 922 992 1034 1101 1107 1154 1106 1202 1275 1227 1299 1351 1339 1372 1312 1383 1263 1208 1222 1215 1209 1104 1039 1013 886 958 856 859 794 786 689 645 614 582 591 553 540 508 481 495 473 497 457 479 450 442 398 407 426 441 471 439 423 463 469 448 466 447 461 417 458 448 505 456 497 463 437 488 494 483 536 475 502 493 476 494 487 546 524 554 483 523 496 490 504 555 532 515 536 544 481 478 474 500 439 443 447 470 455 452 411 414 441 417 468 393 411 444 445 434 419 394 388 399 351 381 412 395 388 373 411 404 373 379 383 345 377 373 370 354 378 401 362 385 357 358 424 376 429 384 396 346 341 350 346 365 357 362 384 383 365 420 347 366 333 375 363 402 370 394 366 363 392 384 353 361 387 378 365 376 384 384 367 323 392 390 360 373 374 422 367 375 352 366 396 361 361 399 344 380 366 354 351 353 378 367 378 381 350 388 385 409 385 376 384 364 380 363 357 374 339 392 351 395 363 346 368 407 376 401 390 441 409 364 354 379 385 369 349 393 340 406 416 392 375 410 396 404 399 391 378 339 385 383 423 383 402 408 435 373 443 395 385 451 374 412 423 431 453 407 446 419 414 429 432 415 420 414 400 426 415 446 400 426 476 456 444 389 432 461 478 412 467 429 441 440 428 421 395 424 437 403 407 429 413 424 371 376 404 413 403 412 463 418 434 397 406 424 425 451 406 394 415 415 414 395 391 430 385 366 405 381 425 386 399 406 455 420 432 393 471 413 426 439 425 420 409 433 443 426 426 438 446 406 428 408 478 467 443 497 473 451 484 485 496 483 505 560 514 531 505 507 556 591 557 596 605 619 605 581 683 729 750 760 859 886 949 1028 1046 1188 1264 1389 1460 1582 1845 1821 2207 2184 2576 2705 3099 3384 3694 3923 4431 4669 5194 5290 5783 5885 5977 6201 6306 6306 6709 6700 6664 6671 6668 6402 6107 5796 5346 5151 4789 4511 4165 4024 3789 3246 3193 2940 2650 2491 2319 1989 1861 1562 1456 1319 1288 1098 1101 1011 1027 970 936 950 944 896 912 1000 988 961 1011 1033 1001 1019 1071 1026 1092 1063 1072 999 1110 1148 1107 1171 1106 1146 1231 1118 1164 1143 1092 1143 1081 1112 1144 1083 1194 1055 1105 1133 1094 1058 1007 1080 1038 1005 1010 1069 1049 1009 987 983 957 956 962 948 993 872 857 837 844 834 776 725 751 761 720 713 712 648 572 588 620 605 584 566 539 566 465 542 494 471 475 466 481 450 442 458 483 438 440 453 440 467 454 449 405 426 440 425 378 402 375 399 388 430 387 409 413 356 436 396 409 402 402 385 372 344 392 417 377 386 382 417 366 417 365 404 372 375 386 360 369 426 395 400 339 381 325 375 371 401 374 345 366 410 375 427 404 351 385 362 386 383 395 383 395 383 358 385 389 411 428 404 366 386 397 422 372 421 433 398 436 432 449 443 461 473 496 511 517 548 591 578 572 598 614 599 647 650 661 719 737 699 710 697 692 702 669 694 701 632 657 601 610 559 572 548 560 512 562 523 511 438 441 470 435 459 429 411 418 378 402 408 367 418 382 402 390 383 400 367 399 423 357 375 426 358 400 392 389 442 386 380 436 422 397 442 403 393 425 397 427 423 450 414 433 439 454 464 459 465 416 434 399 430 394 436 430 407 403 398 435 446 404 387 433 409 415 387 428 433 412 396 423 384 404 374 374 409 397 402 375 374 384 380 404 392 398 401 368 355 339 303 342 356 375 343 369 374 346 332 327 333 350 340 335 339 311 366 342 366 356 325 346 363 350 354 331 326 385 307 346 304 342 338 334 334 307 314 342 367 325 327 326 303 299 290 342 334 315 304 331 298 324 328 296 348 305 317 296 322 356 318 322 295 352 329 320 326 296 332 308 310 339 316 318 337 327 341 321 322 272 322 339 275 315 321 339 333 325 322 318 327 317 310 356 338 338 301 316 296 294 312 315 328 332 327 302 302 286 313 338 313 316 358 323 293 315 317 325 263 300 318 289 303 314 291 354 315 332 300 309 278 301 274 333 289 306 338 310 330 290 309 311 311 326 321 324 322 308 258 316 280 274 311 270 283 305 303 320 311 294 269 312 302 313 269 309 306 316 325 343 297 297 329 302 291 283 271 264 323 304 285 293 299 293 287 340 303 295 325 282 307 287 334 302 305 286 325 310 294 288 293 282 286 293 292 286 320 302 293 265 319 296 294 296 302 328 320 274 302 288 301 304 342 306 334 328 316 295 320 303 318 310 290 288 292 303 298 294 299 314 286 288 314 328 297 300 302 309 275 275 333 312 320 298 319 320 303 301 292 302 291 304 290 286 295 249 295 300 286 313 273 306 309 311 282 298 292 308 298 294 315 308 311 294 308 311 334 323 278 296 273 300 273 303 327 283 304 295 310 296 313 307 301 299 301 311 302 300 284 279 292 291 330 319 323 287 312 311 295 281 322 324 336 311 305 289 310 305 294 318 283 314 293 328 294 300 285 283 284 307 312 292 302 294 289 296 305 272 291 285 306 262 290 301 287 295 296 293 275 288 298 299 281 272 304 289 289 355 300 307 313 286 325 281 261 298 326 308 317 269 309 273 305 282 307 286 284 306 303 283 332 283 286 303 278 343 286 282 318 327 286 316 306 302 286 301 329 269 300 334 314 313 319 296 293 284 306 264 294 311 301 294 261 283 319 309 332 299 294 327 304 311 301 335 302 278 313 321 306 330 326 342 317 332 328 374 331 344 344 360 381 364 361 353 367 358 379 382 361 375 372 373 377 395 368 403 348 337 362 368 368 359 361 364 378 358 368 342 380 383 398 382 382 418 333 362 377 376 422 438 395 454 505 477 468 517 589 552 615 617 684 657 762 764 868 891 977 1031 1120 1241 1334 1422 1572 1638 1675 1880 1849 2020 2048 2127 2096 2196 2198 2147 2191 2098 2013 2026 1968 1954 1926 1825 1803 1660 1609 1533 1447 1275 1299 1236 1151 1070 1034 1001 863 927 790 725 676 635 570 546 529 525 467 509 468 459 449 456 385 435 445 458 431 435 426 445 420 453 434 459 430 447 480 421 428 481 456 507 456 447 516 495 540 510 569 530 524 526 541 514 501 533 554 560 577 601 552 560 604 575 513 531 519 537 536 526 504 500 537 472 462 498 483 458 474 469 427 431 425 444 403 415 401 399 389 407 413 417 389 374 365 356 375 359 385 346 353 362 392 321 335 342 365 315 353 319 352 348 362 347 310 291 315 310 326 290 333 334 336 330 326 302 313 341 334 298 315 366 293 305 351 355 363 339 309 314 354 319 331 335 343 347 344 325 341 345 368 337 326 324 381 340 335 329 370 363 378 376 369 396 367 365 371 386 406 417 438 406 417 406 439 431 418 429 407 425 424 438 423 371 407 430 430 433 407 419 422 388 386 378 387 400 403 373 377 368 380 413 376 385 384 353 368 380 386 405 361 393 390 384 446 425 431 422 425 434 452 467 484 485 466 498 538 553 614 628 689 732 759 825 855 948 1018 1113 1184 1256 1298 1443 1523 1629 1728 1872 1796 2052 2084 1998 2218 2264 2209 2308 2313 2165 2138 2003 1922 1808 1731 1707 1506 1486 1455 1377 1313 1392 1248 1343 1175 1163 1063 1014 914 890 786 717 647 575 542 533 525 509 464 467 468 464 451 413 404 457 397 425 443 407 407 426 460 418 461 412 442 420 436 433 498 439 480 453 467 487 456 465 507 482 498 514 505 559 507 504 496 528 499 523 495 508 512 501 497 479 538 498 485 485 470 480 461 449 451 474 442 377 476 412 430 424 402 415 406 434 402 417 381 452 414 404 408 401 417 401 435 439 405 414 437 473 524 483 458 498 469 484 500 500 466 465 486 460 494 483 436 443 428 455 450 428 391 403 404 450 417 422 389 414 376 350 373 373 343 289 354 289 370 320 308 321 311 308 345 308 346 346 322 285 292 312 326 279 351 344 335 344 306 361 368 372 367 371 411 404 460 436 459 450 459 468 527 550 556 498 537 551 546 588 597 571 536 538 552 526 508 469 532 477 491 470 503 434 452 437 407 402 365 429 382 399 366 372 344 353 314 299 297 290 299 304 269 282 310 304 279 281 294 299 293 299 297 297 307 289 284 285 292 297 242 302 282 261 299 274 242 226 256 245 256 293 267 288 280 293 276 272 271 268 290 263 311 308 276 295 297 284 269 283 259 248 295 303 266 270 322 263 297 295 294 261 277 295 297 297 302 295 305 279 279 301 296 310 311 304 323 308 298 314 336 308 307 328 330 314 325 315 344 302 300 325 318 304 291 290 334 291 336 295 325 326 296 272 294 256 300 269 293 264 303 274 229 280 286 257 287 266 296 269 256 232 230 224 242 263 244 249 231 286 274 278 275 274 275 269 235 230 236 278 241 243 245 234 256 244 225 256 284 257 269 239 243 242 250 216 243 221 273 268 271 232 241 227 257 236 240 269 262 244 227 230 231 271 225 231 236 247 241 282 223 223 261 230 228 237 224 249 247 266 258 277 267 285 213 233 226 271 225 221 230 232 238 234 258 274 240 230 216 235 236 217 236 223 228 220 211 228 230 241 233 232 265 217 232 228 210 233 242 233 241 216 256 210 249 245 244 230 223 216 238 248 265 236 239 236 245 227 209 220 230 245 258 234 221 225 262 235 279 212 244 263 228 246 238 277 224 261 232 231 245 248 277 274 240 238 209 232 219 276 242 292 247 288 262 227 262 279 243 261 227 266 233 239 271 231 284 256 282 244 244 241 284 292 212 239 271 266 291 263 250 267 245 269 279 217 242 259 288 232 275 240 276 272 270 287 264 250 273 247 279 284 246 274 262 264 283 281 280 269 279 306 293 281 245 280 285 296 271 273 270 261 261 276 246 276 249 265 267 246 270 267 245 276 246 260 230 274 275 239 265 273 262 259 265 280 265 291 226 224 246 236 239 238 267 230 267 238 279 271 294 257 244 261 272 287 258 241 284 271 258 245 270 261 260 267 249 228 289 226 231 265 236 235 272 299 273 256 290 274 284 247 277 288 258 272 281 231 273 262 222 240 247 258 236 249 239 269 251 234 270 229 250 218 260 242 239 242 245 286 303 293 297 279 322 300 320 305 337 336 359 344 329 372 364 400 417 417 388 375 428 443 461 481 471 415 428 411 418 414 421 406 370 399 319 374 340 365 331 343 355 340 342 328 309 305 339 301 300 268 230 248 246 231 248 233 228 246 238 240 212 236 258 228 233 229 234 248 214 233 231 231 240 228 236 264 217 232 228 205 213 203 247 203 262 239 263 248 203 195 216 208 209 227 191 217 224 203 229 222 205 231 208 209 212 231 209 234 228 225 243 239 227 221 247 265 241 213 229 244 248 220 246 236 220 215 238 242 224 224 234 258 264 226 243 239 232 204 244 213 222 246 229 236 212 220 227 204 229 226 224 212 182 239 211 222 197 229 210 212 219 224 212 196 233 203 228 213 221 199 216 190 215 226 203 240 200 258 193 214 196 213 221 215 230 188 221 222 214 228 230 195 210 237 204 206 206 179 219 214 217 216 239 216 221 211 217 213 209 198 201 180 230 201 207 193 193 203 227 223 194 214 198 211 202 198 211 228 219 218 215 229 201 210 213 213 190 218 203 215 216 227 233 218 214 224 210 232 251 212 233 207 218 203 173 204 227 192 205 239 215 200 245 208 208 226 202 238 205 233 212 218 217 238 224 229 200 202 245 232 229 234 257 231 237 244 258 250 236 280 257 274 288 261 270 275 282 250 306 315 316 310 334 299 351 358 341 387 402 436 406 446 485 456 511 520 617 533 599 634 651 718 631 751 705 684 742 729 793 752 744 708 704 704 736 668 671 639 618 620 599 596 588 528 574 493 529 515 491 519 496 429 449 403 395 381 407 356 347 357 306 308 304 293 313 275 271 285 284 226 276 272 279 274 248 286 239 267 267 243 234 233 263 265 259 241 259 264 270 234 275 259 273 260 288 261 270 276 229 260 230 262 286 232 243 257 278 244 286 299 287 278 269 269 306 285 318 294 278 277 341 270 308 301 298 326 249 315 280 342 319 299 307 286 299 286 307 288 303 289 275 295 317 283 288 295 261 299 266 234 259 285 257 274 248 263 247 242 237 214 233 226 243 239 241 228 232 237 259 194 239 227 237 223 214 224 228 210 239 215 237 207 227 198 218 214 219 201 230 225 176 237 210 257 247 246 247 230 257 238 239 246 248 242 248 262 268 266 256 236 260 267 229 269 247 235 230 244 219 227 227 245 237 228 236 215 214 277 232 223 228 230 242 226 215 228 218 217 230 216 210 180 212 205 192 194 198 215 191 205 215 186 203 185 197 182 212 187 211 208 217 178 215 206 193 209 219 207 194 190 192 211 195 199 166 211 211 221 189 194 193 217 176 198 209 205 202 230 187 196 204 216 209 202 223 185 212 197 194 230 191 213 179 190 197 189 183 226 193 199 169 207 211 200 181 184 210 200 213 193 211 219 180 222 198 219 184 197 183 210 214 213 199 203 182 186 197 206 197 193 193 200 189 202 196 215 202 209 190 208 185 206 214 186 214 211 206 207 189 197 203 194 182 207 201 224 216 211 215 202 205 181 204 189 193 173 174 198 179 165 181 184 168 204 193 201 217 221 204 201 189 194 194 195 202 202 186 178 198 214 173 202 189 182 173 186 204 195 190 203 219 205 205 194 187 196 190 156 189 198 221 225 200 203 222 211 188 205 185 217 227 207 208 184 182 212 181 186 212 194 208 180 214 202 211 181 207 240 220 199 194 209 206 220 220 199 214 187 228 203 209 186 186 201 201 193 217 189 222 226 211 218 197 223 181 202 202 200 222 200 222 223 219 200 204 215 201 233 198 196 211 208 207 212 209 185 219 208 215 212 208 197 208 203 212 205 204 194 238 166 224 208 224 213 192 188 216 214 202 237 186 201 189 199 190 206 217 205 201 202 204 185 213 207 199 207 219 214 193 201 213 192 183 213 212 194 196 198 217 215 198 194 199 206 200 198 195 195 214 202 193 184 224 214 202 213 224 208 204 213 209 220 224 202 207 204 204 230 222 239 196 189 202 204 223 207 220 243 220 212 194 227 210 248 213 203 205 207 203 223 195 209 177 190 222 203 204 208 212 190 220 235 196 229 205 222 198 243 210 216 207 194 208 200 196 239 202 200 227 191 221 206 212 244 212 217 202 202 218 213 189 226 215 227 221 208 226 220 241 217 220 227 218 231 236 189 231 228 212 260 262 221 270 277 282 282 241 271 279 317 296 332 305 306 352 357 296 335 323 358 343 365 363 380 347 353 340 334 332 332 323 356 321 310 314 348 303 328 302 278 303 317 312 323 333 341 321 287 330 319 327 359 316 332 343 354 351 382 365 408 395 421 395 470 460 503 605 569 578 559 592 633 682 641 645 695 720 713 736 676 653 702 719 622 696 608 606 641 651 620 602 608 554 553 511 561 491 527 521 509 479 512 467 506 459 478 410 385 376 419 405 381 321 365 317 331 310 268 317 280 284 249 273 242 264 276 282 292 280 243 228 265 233 266 271 274 272 243 264 238 259 235 285 263 258 279 237 267 264 275 279 238 224 247 256 235 239 273 266 265 256 289 230 268 270 279 287 283 275 271 291 308 278 297 311 315 278 287 302 311 335 310 342 332 342 338 354 307 344 343 359 371 359 359 324 316 325 355 310 333 295 339 322 340 320 331 330 294 327 303 277 287 299 293 292 324 285 289 284 274 297 285 275 270 273 261 279 247 280 260 272 273 261 274 266 258 287 259 246 262 258 276 259 266 248 250 299 295 241 237 302 258 293 279 266 259 302 290 298 261 271 291 306 328 303 331 305 290 301 306 308 328 331 335 324 330 331 312 361 343 315 345 355 369 421 442 448 418 460 503 548 549 589 624 667 733 762 791 858 881 952 982 1101 1212 1180 1226 1324 1293 1361 1359 1360 1282 1275 1324 1255 1263 1211 1190 1150 1113 1100 979 1058 1048 1025 982 1009 1052 967 958 999 891 906 854 852 820 792 797 698 735 692 694 660 580 599 547 573 507 456 469 422 419 443 371 406 376 352 346 328 351 310 334 318 304 273 275 303 289 311 307 288 324 298 279 289 286 292 250 273 274 248 315 311 280 293 270 284 287 268 273 300 293 328 286 313 320 325 304 287 306 318 302 295 327 304 321 339 327 317 362 350 322 383 382 378 361 392 360 425 410 360 370 376 371 371 402 370 370 398 388 401 410 378 394 372 382 392 448 370 383 401 367 365 375 355 365 372 372 319 393 329 365 366 332 372 376 344 339 339 326 348 347 364 347 354 333 365 354 338 367 389 378 365 325 391 356 365 375 356 353 371 401 421 377 375 373 359 367 345 340 353 385 361 359 333 331 310 309 321 318 286 320 328 321 289 314 294 315 269 301 285 273 260 268 256 277 265 275 291 256 242 279 270 233 236 233 247 263 267 225 267 219 244 209 224 222 221 215 228 210 202 246 207 197 245 248 238 271 220 218 241 246 220 235 236 199 246 214 220 218 212 232 240 193 235 222 201 234 228 224 235 191 220 194 233 201 208 199 223 212 203 212 215 197 216 199 216 213 220 183 204 212 225 199 211 243 228 216 226 205 200 201 221 203 208 195 199 220 230 231 240 206 190 198 233 223 212 206 187 228 194 221 228 227 227 202 216 205 217 210 227 197 201 218 209 181 216 216 217 218 229 203 213 198 218 182 206 207 221 229 202 189 238 226 211 226 223 205 232 216 197 218 223 196 199 232 199 194 199 220 201 225 220 203 207 196 176 208 233 207 198 200 192 235 219 200 202 206 224 207 249 199 209 228 189 206 227 189 199 219 205 172 216 189 208 204 200 235 208 215 214 206 179 196 235 193 191 207 199 205 195 207 213 171 184 174 208 219 203 197 203 196 187 218 215 198 195 212 208 205 210 200 202 218 245 211 203 224 236 208 218 181 197 187 216 199 182 204 205 198 191 208 210 206 232 196 200 183 194 186 211 218 213 191 221 202 192 193 212 218 186 183 197 201 194 213 197 189 200 182 192 219 176 201 208 181 201 192 204 195 256 214 205 194 245 212 212 236 188 213 198 208 205 215 198 192 199 240 226 218 184 203 195 215 216 225 235 219 229 204 186 205 196 200 224 217 191 228 233 209 206 237 201 195 201 220 204 226 210 209 222 195 229 186 208 216 230 199 192 236 173 205 215 223 199 223 213 258 223 214 211 208 249 205 238 208 182 215 219 203 224 219 198 229 201 208 221 222 229 199 208 207 224 190 212 223 194 217 227 190 188 208 223 214 221 198 189 209 204 207 222 226 188 197 223 240 219 213 244 211 226 235 259 207 210 218 208 242 234 262 270 240 279 266 257 278 249 305 261 322 280 294 277 280 301 270 327 296 299 276 288 288 279 267 277 271 300 267 274 258 298 266 276 258 248 259 272 257 284 250 229 271 288 256 261 238 232 222 227 244 266 247 249 267 243 237 232 225 219 233 218 242 207 220 226 206 197 226 197 191 208 191 196 206 197 198 201 211 183 219 201 182 214 206 177 193 189 193 224 199 212 216 205 200 192 196 209 207 217 199 222 239 225 196 246 222 204 229 209 184 201 176 232 204 226 221 213 234 189 213 201 203 237 213 195 195 214 210 227 237 202 224 208 197 234 239 224 188 225 200 251 202 185 199 200 209 190 211 224 210 203 226 213 214 222 211 225 203 192 203 213 210 219 199 212 208 205 231 215 223 218 219 200 238 183 194 230 196 202 230 186 223 212 208 212 195 214 210 198 216 208 213 201 209 208 180 222 222 216 198 207 218 213 206 210 231 211 200 219 197 205 221 208 215 213 201 220 184 204 184 222 218 190 216 191 236 192 212 197 229 190 218 199 224 179 237 238 213 208 213 214 260 231 223 230 209 248 207 246 202 234 237 242 237 257 232 213 278 240 260 243 263 260 245 246 242 282 280 300 281 284 304 286 307 295 306 320 318 336 357 358 389 403 400 447 460 493 548 561 609 621 632 676 690 731 770 788 866 902 935 973 984 1027 1002 1060 992 1007 909 952 946 982 898 900 895 863 845 802 776 748 743 695 688 699 675 710 677 716 722 681 639 679 669 689 683 644 635 614 631 592 559 547 556 513 457 471 424 404 400 402 367 368 365 338 317 320 336 322 260 337 303 293 298 299 310 261 284 235 290 238 268 247 281 263 241 221 256 219 250 274 226 258 244 259 243 269 262 262 268 280 243 291 273 259 288 249 234 240 293 230 276 263 261 260 282 268 242 284 288 286 283 288 269 313 284 285 324 293 271 275 287 282 298 280 273 291 303 302 313 346 292 317 315 331 325 330 314 329 322 303 323 342 315 329 290 322 338 326 304 324 333 347 340 362 347 335 353 329 340 363 324 337 303 354 288 330 345 315 328 333 323 387 303 314 343 327 303 344 311 353 315 325 334 283 305 336 339 317 328 291 294 285 279 325 297 309 272 272 322 273 280 260 250 316 272 309 271 280 297 286 278 274 295 264 281 266 288 296 268 294 298 284 243 271 210 237 236 232 242 230 228 257 241 225 269 245 264 280 236 257 229 247 247 211 226 236 234 229 234 235 209 232 204 212 206 197 193 234 223 194 240 217 245 205 236 202 206 212 197 215 201 219 216 196 262 214 208 220 209 209 221 218 207 223 220 220 245 216 210 228 229 204 209 196 203 211 210 219 200 196 220 212 208 175 210 217 197 202 245 203 243 219 212 190 203 217 214 229 221 207 237 231 202 188 182 231 215 214 202 190 194 193 242 199 188 211 178 229 193 204 223 213 212 204 201 215 203 201 196 194 226 201 196 229 226 187 204 218 194 201 206 234 227 220 204 218 189 224 189 210 190 181 220 192 211 208 191 210 204 176 198 212 213 181 190 211 203 208 215 213 180 207 227 218 206 192 174 205 203 222 211 198 191 193 222 180 193 193 202 211 226 210 202 201 209 218 216 190 177 211 208 191 188 220 194 192 181 214 196 210 187 217 176 218 169 210 184 199 195 189 202 211 213 197 177 185 228 236 186 187 204 220 197 185 224 234 213 213 202 214 194 194 183 203 188 170 197 185 179 189 191 203 200 184 195 183 180 224 213 171 192 202 184 189 218 211 193 202 183 192 195 189 190 236 206 205 194 208 202 212 191 208 196 183 185 182 216 195 223 191 204 207 231 206 204 204 170 185 195 174 218 197 179 211 183 222 208 199 209 238 175 208 203 204 216 195 197 210 212 188 198 196 193 211 214 199 210 226 199 190 175 194 175 178 187 194 204 222 218 209 226 204 210 197 201 198 201 217 194 204 216 179 207 186 216 210 231 205 208 222 207 215 226 217 208 197 183 217 213 201 213 231 228 206 214 225 262 206 228 231 209 224 240 221 227 229 221 235 236 256 230 219 217 245 242 217 245 267 273 276 299 263 278 276 291 275 322 311 338 341 348 360 371 371 351 357 401 395 396 419 394 420 361 386 414 428 415 401 413 434 434</counts>
			</dataPoints>
		</scan>
	</xrdMeasurement>
</xrdMeasurements>
