<?xml version="1.0"?>
<xrdMeasurements xmlns="http://www.xrdml.com/XRDMeasurement/2.3" xmlns:xsi="http://www.w3.org/2001/XMLSchema-instance" xsi:schemaLocation="http://www.xrdml.com/XRDMeasurement/2.3 http://www.xrdml.com/XRDMeasurement/2.3/XRDMeasurement.xsd" status="Completed" recordIdentifier="{441F5A9B-0CD7-47C7-BBA4-05CD390E9AE7}">
	<comment>
		<entry/>
	</comment>
	<sample type="To be analyzed">
		<id>GPSS_Li1p7Co0p2Mg0p2Fe0p3Nb0p1Mn0p2Cl4_122625_694e531dae15af25ac374614</id>
		<name></name>
		<preparedBy></preparedBy>
	</sample>
	<xrdMeasurement measurementType="Scan" status="Completed" sampleMode="Reflection">
		<usedWavelength intended="K-Alpha 1">
			<kAlpha1 unit="Angstrom">1.5405980</kAlpha1>
			<kAlpha2 unit="Angstrom">1.5444260</kAlpha2>
			<kBeta unit="Angstrom">1.3922500</kBeta>
			<ratioKAlpha2KAlpha1>0.5000</ratioKAlpha2KAlpha1>
		</usedWavelength>
		<incidentBeamPath>
			<radius unit="mm">145.00</radius>
			<xRayTube id="1010048" name="Empyrean Cu LFF HR (9430 033 7310x)">
				<tension unit="kV">40.0</tension>
				<current unit="mA">15.0</current>
				<anodeMaterial>Cu</anodeMaterial>
				<focus type="Line">
					<length unit="mm">12.0</length>
					<width unit="mm">0.4</width>
					<takeOffAngle unit="deg">6.0</takeOffAngle>
				</focus>
			</xRayTube>
			<sollerSlit id="21010002" name="Soller slits 0.04 rad.">
				<opening unit="rad">0.0400</opening>
			</sollerSlit>
			<mask id="22031000" name="Fixed mask 13 mm">
				<width unit="mm">9.00</width>
			</mask>
			<divergenceSlit id="22120001" name="Divergence slit 1°" xsi:type="fixedDivergenceSlitType">
				<distanceToSample unit="mm">50.00</distanceToSample>
				<height unit="mm">1.52</height>
			</divergenceSlit>
		</incidentBeamPath>
		<sampleMovement xsi:type="spinningSampleMovementType">
			<spinnerRevolutionTime unit="seconds">1.0</spinnerRevolutionTime>
		</sampleMovement>
		<diffractedBeamPath>
			<radius unit="mm">145.00</radius>
			<antiScatterSlit id="22090040" name="AS slit 9 mm (PIXcel)" xsi:type="fixedAntiScatterSlitType">
				<height unit="mm">9.00</height>
			</antiScatterSlit>
			<sollerSlit id="21020003" name="Large Soller slits 0.04 rad.">
				<opening unit="rad">0.0400</opening>
			</sollerSlit>
			<filter id="20030001" name="Large beta-filter Nickel">
				<material>Ni</material>
				<thickness unit="mm">0.020</thickness>
			</filter>
			<detector id="7010019" name="PIXcel1D-Medipix3 detector" xsi:type="rtmsDetectorType">
				<phd unit="keV">
					<lowerLevel>4.02</lowerLevel>
					<upperLevel>11.27</upperLevel>
				</phd>
				<mode>Scanning</mode>
				<activeLength unit="deg">5.542</activeLength>
			</detector>
		</diffractedBeamPath>
		<scan appendNumber="0" mode="Continuous" scanAxis="Gonio" status="Completed">
			<header>
				<startTimeStamp>2025-12-27T14:23:30-08:00</startTimeStamp>
				<endTimeStamp>2025-12-27T14:31:37-08:00</endTimeStamp>
				<author>
					<name>AutomatedUser</name>
				</author>
				<source>
					<applicationSoftware version="1.7b (136)">PANalytical Aeris Instrument Suite</applicationSoftware>
					<instrumentControlSoftware version="3.2.00000000 20240306">AERIS</instrumentControlSoftware>
					<instrumentID>950485</instrumentID>
				</source>
			</header>
			<dataPoints>
				<positions axis="2Theta" unit="deg">
					<startPosition>10.00943322</startPosition>
					<endPosition>99.99442286</endPosition>
				</positions>
				<positions axis="Omega" unit="deg">
					<startPosition>5.00471661</startPosition>
					<endPosition>49.99721143</endPosition>
				</positions>
				<commonCountingTime unit="seconds">12.495</commonCountingTime>
				<counts unit="counts">3317 3380 3404 3339 3459 3325 3351 3280 3372 3332 3369 3426 3426 3345 3433 3386 3324 3367 3449 3341 3301 3458 3316 3589 3396 3523 3501 3392 3478 3394 3457 3491 3538 3459 3474 3484 3470 3362 3471 3435 3382 3446 3521 3540 3429 3438 3454 3557 3506 3487 3516 3588 3523 3490 3536 3537 3410 3512 3486 3503 3599 3573 3506 3420 3539 3613 3488 3642 3633 3607 3622 3560 3484 3670 3576 3650 3506 3730 3648 3586 3587 3617 3726 3647 3654 3595 3722 3660 3749 3647 3687 3582 3719 3795 3760 3654 3707 3618 3731 3615 3669 3601 3661 3729 3602 3788 3695 3631 3673 3696 3660 3740 3719 3816 3853 3768 3787 3747 3757 3865 3768 3710 3716 3737 3683 3748 3861 3857 3691 3811 3928 3790 3714 3797 3786 3767 3725 3732 3786 3721 3828 3749 3776 3856 3771 3806 3751 3861 3824 3869 3924 3889 3796 3741 3860 3756 3820 3825 3882 3778 3840 3820 3816 3923 3761 3950 3789 3843 3741 3773 3792 3737 3865 3649 3809 3836 3806 3783 3735 3783 3810 3864 3751 3866 3857 3909 3781 3905 3804 3713 3843 3863 3677 3734 3764 3850 3733 3670 3835 3882 3798 3792 3702 3836 3772 3839 3773 3872 3812 3745 3628 3779 3693 3724 3751 3724 3807 3661 3639 3811 3660 3709 3825 3707 3572 3688 3666 3673 3661 3640 3627 3643 3694 3696 3721 3542 3719 3645 3535 3691 3664 3678 3662 3544 3638 3656 3471 3570 3636 3638 3526 3588 3662 3606 3578 3556 3663 3537 3525 3539 3585 3539 3555 3589 3640 3556 3573 3533 3525 3695 3477 3571 3495 3606 3565 3600 3636 3605 3608 3593 3549 3424 3505 3554 3520 3550 3580 3439 3622 3462 3450 3620 3592 3602 3511 3611 3543 3408 3546 3517 3586 3537 3640 3529 3615 3342 3550 3448 3453 3621 3531 3467 3463 3406 3518 3573 3628 3443 3572 3528 3508 3561 3543 3674 3625 3497 3424 3612 3480 3533 3507 3553 3520 3551 3598 3488 3656 3625 3541 3685 3557 3704 3618 3646 3655 3622 3515 3539 3739 3633 3588 3690 3589 3542 3571 3676 3579 3627 3650 3650 3670 3613 3647 3698 3675 3545 3706 3619 3602 3608 3579 3672 3856 3703 3747 3659 3729 3676 3759 3681 3661 3742 3558 3738 3710 3824 3824 3797 3759 3654 3735 3890 3809 3799 3818 3770 3694 3852 3829 3803 3723 3793 3817 3742 3909 3755 3909 3924 3885 3846 3749 3885 3958 3845 3876 3873 3901 4023 3923 3977 3955 3926 3923 3948 3956 4112 3930 3860 4064 3989 4041 3960 4012 3985 3941 3980 4032 3889 4107 3994 4025 4048 4183 4038 3999 4121 4099 4053 4072 4129 4232 4053 4173 4112 4117 4131 4143 4288 4275 4282 4193 4341 4228 4274 4236 4289 4228 4351 4440 4444 4475 4289 4448 4531 4355 4254 4259 4373 4306 4120 4180 4077 3976 3864 3956 3891 3858 3833 3815 3812 3803 3822 3856 3855 3711 3809 3885 3772 3717 3744 3850 3825 3697 3761 3693 3829 3748 3707 3669 3667 3742 3674 3737 3683 3744 3602 3662 3594 3584 3538 3454 3558 3505 3527 3523 3512 3498 3412 3489 3511 3416 3364 3523 3326 3403 3403 3493 3427 3411 3440 3596 3405 3443 3304 3314 3430 3464 3442 3422 3401 3402 3412 3412 3409 3401 3301 3415 3402 3314 3358 3413 3375 3321 3247 3302 3394 3397 3428 3431 3267 3357 3259 3320 3341 3311 3455 3352 3292 3299 3255 3264 3289 3192 3332 3271 3191 3267 3240 3279 3294 3259 3318 3287 3346 3144 3193 3077 3117 3235 3173 3272 3282 3312 3225 3245 3181 3341 3181 3240 3118 3185 3153 3203 3202 3163 3387 3238 3222 3191 3073 3178 3194 3114 3186 3142 3173 3207 3139 3117 3194 3123 3050 3116 3131 3099 3034 3002 3111 3085 3107 3086 3152 3163 3071 3127 3041 3150 3205 3067 3128 3064 3116 3045 3114 3109 2983 3145 3083 3119 3083 3159 3126 3077 3137 3095 3077 3085 3114 2986 3137 3079 3074 3058 3090 3191 3071 3122 3141 3025 3123 3062 3027 3179 3060 2976 3029 3003 3126 3001 3122 3010 3177 3208 3024 3061 2984 3005 3031 3005 3037 3066 3114 3007 3142 2962 2946 3034 2950 2987 3004 3020 3067 2960 2942 3020 2964 2949 3070 3006 3002 2975 2926 3106 2949 3032 3019 2916 2970 3049 3059 2952 2956 3021 3010 3023 2948 2988 2888 3031 3030 2981 2944 3013 2909 2940 2947 2897 2972 2988 2994 2958 2977 2983 2961 3003 2948 2970 2843 2935 2982 2983 3033 2983 2940 2931 3021 2902 2977 2932 3053 2980 2962 2921 2982 2937 2969 2908 2897 2981 2904 2871 3008 3010 2889 2933 2889 2943 2950 3023 2853 2925 2921 2935 2967 2911 2853 2842 2958 3018 2907 2958 2807 2947 2926 2816 2985 2852 2919 2930 2833 2776 2924 2950 2935 2899 2904 2943 2938 2910 2933 2902 2901 2898 2809 2831 2827 2741 2915 2759 2921 2894 2852 2801 2734 2775 2821 2891 2901 2815 2883 2771 2799 3003 2900 2889 2816 2891 2846 2927 2856 2819 2761 2869 2923 2930 2797 2909 2806 2798 2758 2970 2856 2765 2866 2864 2874 2835 2771 2824 2754 2893 2862 2814 2772 2839 2783 2872 2724 2744 2751 2817 2758 2756 2798 2738 2826 2760 2793 2870 2739 2866 2705 2937 2843 2746 2786 2801 2810 2746 2711 2810 2824 2831 2777 2806 2776 2827 2840 2792 2747 2698 2678 2673 2856 2667 2707 2731 2704 2714 2758 2799 2756 2648 2786 2771 2683 2638 2642 2786 2707 2706 2689 2691 2660 2697 2737 2715 2727 2735 2817 2740 2744 2785 2613 2741 2670 2719 2758 2744 2731 2683 2641 2744 2705 2800 2691 2699 2622 2752 2690 2670 2648 2714 2728 2546 2679 2697 2729 2658 2688 2689 2781 2669 2669 2720 2717 2658 2676 2612 2678 2747 2708 2696 2744 2665 2574 2765 2749 2755 2636 2675 2710 2640 2649 2641 2657 2671 2627 2592 2728 2591 2692 2597 2717 2616 2711 2741 2596 2642 2614 2707 2632 2646 2545 2678 2698 2712 2661 2651 2691 2752 2667 2685 2668 2633 2666 2657 2597 2736 2688 2712 2599 2740 2647 2691 2697 2800 2695 2675 2756 2644 2721 2794 2749 2656 2641 2761 2707 2810 2782 2649 2712 2674 2654 2800 2634 2707 2695 2752 2696 2717 2667 2607 2589 2698 2628 2759 2665 2642 2595 2769 2694 2705 2626 2666 2753 2650 2790 2728 2625 2753 2748 2749 2692 2789 2705 2655 2724 2612 2719 2680 2667 2581 2763 2617 2707 2662 2783 2742 2640 2781 2630 2762 2732 2718 2681 2694 2637 2656 2669 2725 2651 2635 2555 2626 2665 2669 2695 2587 2631 2678 2718 2700 2645 2683 2746 2661 2639 2591 2722 2650 2676 2511 2545 2629 2678 2624 2664 2751 2619 2666 2685 2659 2618 2684 2675 2711 2630 2673 2650 2620 2643 2669 2687 2500 2564 2614 2663 2670 2567 2531 2504 2494 2506 2538 2562 2520 2592 2555 2615 2541 2571 2553 2631 2601 2500 2424 2520 2463 2598 2577 2505 2528 2530 2551 2557 2499 2486 2543 2457 2571 2437 2518 2436 2519 2424 2511 2427 2412 2440 2455 2430 2431 2422 2371 2419 2489 2392 2471 2347 2400 2448 2352 2427 2437 2403 2270 2496 2376 2387 2417 2423 2373 2403 2466 2392 2412 2387 2398 2283 2333 2238 2323 2349 2332 2263 2351 2363 2401 2388 2305 2292 2275 2261 2302 2261 2303 2343 2277 2300 2379 2331 2089 2276 2310 2383 2305 2229 2286 2319 2268 2326 2318 2152 2252 2265 2334 2331 2209 2281 2242 2249 2182 2235 2288 2248 2183 2216 2174 2268 2228 2150 2178 2212 2168 2274 2330 2207 2141 2198 2226 2282 2153 2130 2173 2222 2216 2180 2154 2169 2164 2110 2109 2115 2203 2145 2164 2210 2215 2226 2135 2214 2143 2187 2172 2151 2229 2189 2181 2120 2181 2236 2201 2119 2254 2224 2174 2238 2240 2173 2213 2153 2087 2146 2134 2098 2133 2077 2074 1997 2189 2199 2130 2160 2107 2074 2117 2142 2049 2188 2153 2067 2178 2149 2050 2176 2109 2138 2179 2144 2146 2190 2219 2073 2214 2078 2157 2107 2105 2119 2048 2115 2130 2109 2099 2047 2136 2137 2136 2080 2084 1988 2053 2077 2068 2090 2110 2134 2134 2065 2126 2107 2110 2270 2051 2163 2114 2125 2009 2105 2088 2195 2107 2056 2083 2065 2027 2127 2157 2072 2102 2010 2020 2085 2094 2126 2170 2078 2150 2131 2105 2054 2040 2067 2092 2044 2120 2137 2133 2070 2194 2154 2164 2062 2053 2079 2247 2180 2139 2195 2126 2092 2111 2104 2112 2031 2148 2067 2143 2110 2150 2164 2055 2143 2145 2184 2089 2161 2180 2141 2061 2134 2146 2103 2137 2131 2049 2138 2144 2133 2124 2021 2122 2059 2126 2135 2047 2219 2194 2191 2064 2187 2109 2088 2241 2196 2132 2129 2196 2179 2143 2192 2138 2152 2054 2145 2096 2149 2136 2180 2183 2106 2261 2120 2140 2187 2136 2085 2156 2147 2135 2137 2130 2105 2077 2149 2158 2097 2073 2115 2112 2138 2086 2120 2165 2137 2157 2101 2185 2091 2103 2080 2153 2118 2084 2141 2199 2079 2044 2093 2072 2137 2073 2053 2038 1999 2111 2054 2018 2108 2007 2056 2063 1992 2106 2060 2159 1941 2016 2078 2028 2041 2055 2060 2037 2101 2128 1997 1992 1933 1986 1983 2029 2123 1933 2029 2041 2057 2011 2004 2062 2022 2058 1987 2036 1971 2126 1981 1970 1987 1903 1908 2022 2002 1980 1944 2081 1902 2032 2027 2029 1959 1904 1960 1955 1958 1963 1980 1988 1957 1911 2005 1944 1911 1925 1978 1978 1913 1875 1850 2004 1888 1973 1929 1988 1912 2006 1929 1880 1947 1941 1900 1952 1939 1914 1988 1933 1970 1944 1888 1856 1864 1904 1854 1909 1882 1922 1925 1804 1905 1828 1940 1872 1876 1942 1901 1912 1860 1858 1783 1848 1863 1842 1873 1861 1846 1940 1868 1842 1944 1842 1819 1934 1943 1904 1968 1890 1944 1902 1894 1983 1944 2014 1912 1923 1983 2003 1943 1959 1948 2016 1921 1978 1957 1886 1933 1923 1997 1993 1947 1887 1877 1879 1891 1969 1944 1982 2032 1924 1959 2080 1944 1936 1978 1983 1887 1998 2060 1986 2031 2044 2068 2030 2151 2210 2158 2120 2194 2209 2198 2185 2154 2169 2184 2215 2261 2088 2108 2127 2184 1926 2047 1926 2011 1997 1933 1802 1864 1900 1897 1858 1826 1862 1845 1806 1758 1866 1895 1781 1858 1791 1807 1814 1821 1839 1778 1762 1767 1764 1826 1861 1840 1787 1784 1790 1805 1751 1747 1785 1736 1829 1822 1799 1845 1885 1794 1852 1911 1895 1843 1917 1884 1909 1954 1952 1961 1977 1893 2122 2085 2258 2068 2151 2204 2205 2220 2259 2237 2172 2202 2312 2290 2238 2188 2142 2121 2165 2166 2063 2173 2100 2082 2120 2155 2161 2194 2196 2285 2295 2321 2349 2419 2525 2472 2524 2547 2548 2721 2724 2819 2815 2832 2894 2925 2979 3019 3087 2981 2988 3109 3153 3146 2989 3002 2986 2915 2788 2714 2749 2638 2500 2421 2237 2237 2181 2111 2081 2039 1977 2004 1924 2002 1935 1919 1879 1932 1875 1971 1853 1881 1923 1848 1848 1866 1789 1744 1811 1870 1774 1740 1671 1788 1741 1711 1691 1781 1723 1694 1655 1636 1717 1638 1653 1718 1703 1690 1715 1676 1677 1711 1721 1670 1700 1708 1682 1643 1743 1740 1632 1646 1619 1598 1651 1641 1625 1597 1543 1595 1687 1673 1593 1705 1631 1578 1566 1626 1625 1599 1646 1590 1619 1568 1594 1622 1608 1653 1625 1595 1594 1592 1607 1595 1639 1589 1530 1624 1586 1600 1564 1595 1587 1585 1581 1602 1567 1576 1662 1584 1618 1667 1525 1581 1548 1605 1586 1617 1610 1676 1592 1603 1619 1601 1604 1665 1581 1631 1602 1549 1651 1630 1578 1634 1548 1614 1577 1606 1553 1638 1561 1571 1579 1648 1540 1655 1563 1581 1489 1575 1601 1600 1564 1581 1642 1573 1511 1536 1557 1581 1634 1613 1626 1568 1508 1508 1592 1523 1577 1591 1606 1520 1503 1571 1620 1555 1535 1573 1646 1539 1544 1561 1587 1592 1586 1613 1563 1579 1538 1562 1636 1572 1490 1578 1559 1563 1603 1635 1534 1572 1566 1637 1609 1585 1612 1554 1595 1583 1579 1564 1509 1600 1579 1594 1596 1576 1628 1570 1515 1608 1578 1632 1508 1566 1602 1570 1543 1651 1571 1531 1573 1593 1541 1557 1638 1530 1625 1544 1604 1557 1604 1531 1495 1563 1571 1529 1672 1464 1486 1576 1544 1605 1528 1525 1563 1620 1563 1611 1576 1553 1588 1528 1525 1610 1534 1538 1570 1618 1535 1570 1582 1584 1552 1602 1499 1615 1614 1533 1582 1563 1575 1574 1558 1553 1546 1545 1528 1506 1664 1557 1547 1573 1569 1537 1640 1582 1506 1615 1585 1538 1527 1572 1537 1553 1547 1515 1586 1586 1557 1594 1542 1541 1558 1512 1614 1600 1561 1566 1585 1595 1607 1502 1563 1549 1590 1579 1613 1590 1568 1570 1616 1563 1623 1550 1567 1519 1601 1557 1591 1609 1652 1544 1625 1562 1521 1584 1604 1626 1624 1584 1612 1607 1600 1613 1622 1622 1625 1663 1681 1605 1583 1604 1697 1700 1687 1703 1778 1793 1786 1869 1836 1886 1980 2003 2063 2066 2172 2258 2339 2463 2506 2405 2531 2558 2558 2602 2663 2546 2679 2561 2620 2604 2482 2555 2628 2571 2547 2553 2624 2644 2747 2758 2836 2843 2906 3032 3138 3215 3430 3356 3519 3648 3616 3833 3754 4019 3948 4014 4257 4376 4346 4491 4559 4761 4793 4762 4812 4939 4866 5067 4967 4785 4898 4600 4527 4361 4199 3934 3728 3532 3404 3315 3049 2954 2726 2629 2478 2492 2335 2283 2265 2250 2084 2134 2067 2121 2006 2137 2034 2031 2053 2032 2018 2054 2015 1977 1989 1982 1994 1935 1898 1944 1895 1828 1883 1749 1847 1751 1814 1760 1754 1740 1801 1767 1836 1830 1736 1714 1763 1753 1772 1660 1784 1736 1763 1739 1752 1714 1655 1666 1738 1662 1678 1699 1670 1657 1684 1658 1631 1709 1663 1637 1621 1674 1647 1623 1650 1634 1607 1582 1617 1604 1588 1699 1563 1572 1700 1649 1651 1556 1584 1557 1591 1604 1620 1548 1616 1642 1601 1572 1660 1578 1591 1534 1634 1557 1536 1516 1603 1514 1524 1584 1542 1618 1657 1546 1595 1502 1530 1541 1680 1611 1621 1573 1557 1549 1568 1563 1572 1576 1548 1554 1557 1563 1559 1636 1501 1559 1596 1542 1553 1506 1552 1525 1414 1517 1516 1525 1620 1584 1532 1501 1486 1539 1536 1537 1515 1535 1598 1529 1517 1544 1598 1520 1633 1543 1545 1560 1450 1518 1560 1517 1506 1484 1596 1558 1518 1493 1483 1523 1572 1547 1530 1520 1509 1521 1578 1552 1448 1549 1518 1537 1571 1530 1526 1482 1453 1490 1517 1504 1543 1485 1515 1551 1546 1483 1517 1529 1540 1514 1586 1515 1530 1473 1508 1524 1449 1494 1533 1511 1520 1512 1507 1493 1547 1495 1573 1534 1554 1503 1568 1542 1557 1546 1568 1595 1549 1517 1572 1520 1524 1512 1556 1557 1529 1551 1564 1533 1504 1512 1519 1472 1503 1452 1586 1569 1570 1557 1529 1521 1527 1446 1491 1473 1608 1559 1549 1574 1575 1566 1516 1561 1520 1514 1597 1558 1583 1560 1636 1485 1588 1556 1583 1603 1524 1572 1541 1523 1536 1538 1496 1519 1496 1543 1468 1501 1574 1541 1535 1642 1606 1527 1481 1490 1525 1484 1553 1503 1525 1572 1611 1533 1470 1556 1506 1532 1580 1590 1587 1491 1551 1586 1577 1481 1500 1537 1534 1554 1464 1538 1531 1498 1441 1550 1476 1478 1457 1534 1526 1563 1474 1562 1435 1445 1460 1489 1566 1527 1523 1604 1571 1570 1530 1507 1439 1570 1482 1487 1534 1419 1554 1551 1588 1473 1530 1470 1507 1530 1518 1505 1553 1474 1514 1530 1532 1452 1536 1478 1524 1482 1494 1501 1468 1461 1516 1494 1574 1496 1484 1512 1537 1472 1550 1527 1576 1558 1511 1463 1529 1549 1464 1604 1525 1499 1488 1490 1490 1515 1470 1495 1486 1525 1515 1607 1427 1512 1557 1501 1575 1534 1500 1497 1465 1546 1572 1478 1498 1559 1565 1509 1504 1575 1577 1507 1529 1438 1528 1500 1593 1521 1490 1550 1528 1473 1451 1573 1525 1534 1492 1519 1514 1582 1523 1476 1487 1553 1466 1477 1444 1557 1540 1492 1499 1455 1534 1480 1507 1450 1516 1545 1507 1508 1439 1507 1547 1459 1556 1507 1519 1498 1488 1505 1433 1462 1483 1444 1497 1487 1433 1511 1589 1547 1439 1495 1494 1466 1484 1507 1499 1478 1450 1543 1464 1529 1561 1536 1468 1505 1534 1549 1490 1574 1526 1534 1519 1540 1485 1517 1531 1442 1509 1586 1498 1561 1470 1509 1544 1554 1529 1560 1499 1493 1527 1501 1519 1516 1547 1570 1441 1506 1486 1565 1464 1465 1593 1558 1505 1514 1607 1497 1521 1562 1511 1543 1490 1511 1530 1464 1545 1476 1549 1513 1448 1525 1528 1471 1472 1485 1534 1578 1464 1466 1564 1541 1514 1466 1525 1407 1555 1531 1527 1460 1474 1475 1507 1502 1473 1556 1456 1486 1531 1551 1504 1549 1512 1492 1514 1519 1532 1475 1536 1505 1536 1553 1499 1434 1478 1535 1534 1495 1550 1481 1390 1462 1538 1511 1509 1573 1589 1528 1568 1473 1527 1531 1475 1460 1577 1495 1489 1538 1533 1517 1545 1606 1548 1495 1537 1531 1492 1548 1488 1595 1508 1532 1478 1550 1514 1475 1522 1505 1536 1549 1472 1536 1490 1577 1521 1551 1575 1509 1469 1485 1511 1451 1536 1498 1433 1534 1533 1540 1492 1488 1498 1459 1486 1493 1520 1479 1489 1549 1608 1471 1448 1575 1488 1495 1483 1444 1545 1433 1564 1463 1488 1477 1521 1513 1537 1538 1488 1537 1496 1486 1526 1551 1520 1517 1533 1571 1472 1577 1528 1529 1509 1535 1514 1511 1528 1519 1555 1522 1564 1457 1552 1526 1523 1491 1491 1574 1583 1507 1546 1431 1537 1523 1582 1444 1522 1490 1517 1472 1498 1537 1554 1507 1538 1556 1541 1518 1574 1528 1541 1516 1563 1500 1553 1526 1486 1525 1475 1523 1462 1554 1490 1569 1623 1554 1532 1431 1477 1591 1524 1474 1510 1554 1532 1539 1527 1496 1537 1531 1501 1579 1529 1618 1546 1529 1465 1525 1565 1488 1581 1542 1480 1539 1461 1501 1604 1553 1500 1527 1484 1510 1455 1525 1559 1503 1578 1553 1451 1547 1551 1411 1510 1517 1564 1579 1514 1433 1557 1572 1547 1554 1476 1558 1520 1605 1486 1562 1534 1560 1477 1521 1526 1507 1525 1519 1558 1540 1474 1542 1607 1526 1590 1521 1535 1564 1563 1567 1569 1512 1588 1534 1522 1467 1520 1483 1522 1584 1569 1533 1604 1487 1525 1504 1607 1550 1538 1533 1499 1517 1438 1572 1524 1570 1522 1500 1467 1458 1567 1516 1537 1541 1539 1529 1462 1524 1498 1509 1544 1626 1569 1509 1576 1502 1552 1503 1540 1544 1539 1573 1554 1468 1573 1570 1551 1589 1447 1591 1532 1516 1572 1557 1534 1535 1559 1489 1525 1589 1562 1602 1585 1534 1532 1562 1538 1596 1521 1632 1594 1610 1607 1688 1568 1623 1608 1686 1610 1548 1655 1690 1638 1650 1678 1672 1619 1679 1666 1612 1758 1694 1716 1690 1717 1733 1768 1656 1654 1789 1708 1739 1703 1777 1766 1737 1798 1843 1802 1858 1813 1838 1859 1837 1887 1898 1904 1864 1927 2002 2011 1964 2023 1978 1949 1897 1951 1984 1839 1924 1900 1879 1893 1824 1782 1836 1752 1755 1794 1699 1682 1693 1719 1727 1710 1624 1603 1597 1635 1585 1636 1524 1564 1618 1529 1622 1576 1609 1573 1605 1554 1513 1578 1638 1592 1566 1651 1573 1551 1604 1583 1520 1629 1624 1603 1518 1560 1581 1552 1471 1570 1454 1543 1551 1494 1587 1522 1581 1631 1518 1489 1549 1531 1529 1615 1560 1550 1634 1579 1513 1645 1560 1630 1572 1588 1516 1496 1604 1588 1615 1570 1503 1600 1633 1596 1597 1623 1527 1572 1567 1561 1613 1561 1578 1558 1523 1566 1563 1567 1570 1521 1570 1581 1576 1545 1516 1607 1517 1531 1613 1553 1652 1575 1545 1512 1620 1553 1503 1511 1561 1599 1601 1527 1548 1564 1541 1524 1587 1549 1572 1584 1560 1582 1582 1598 1498 1595 1540 1577 1514 1543 1547 1584 1577 1535 1538 1586 1656 1531 1493 1539 1553 1589 1553 1542 1603 1509 1498 1486 1485 1537 1561 1498 1590 1535 1521 1455 1535 1558 1537 1556 1576 1508 1661 1547 1496 1525 1512 1538 1613 1560 1598 1543 1605 1583 1553 1517 1511 1607 1557 1524 1570 1608 1535 1552 1531 1617 1572 1642 1605 1534 1575 1477 1602 1604 1698 1550 1630 1584 1469 1499 1615 1517 1568 1516 1532 1663 1569 1617 1588 1615 1520 1536 1531 1612 1526 1578 1610 1554 1595 1623 1455 1598 1547 1647 1518 1556 1593 1593 1654 1550 1579 1583 1521 1509 1563 1587 1592 1562 1559 1568 1542 1610 1576 1588 1509 1603 1538 1516 1569 1555 1578 1642 1512 1622 1634 1527 1467 1518 1541 1540 1579 1572 1599 1540 1585 1572 1604 1543 1609 1541 1553 1559 1576 1549 1654 1574 1613 1575 1563 1622 1547 1618 1619 1617 1634 1564 1582 1588 1599 1552 1528 1511 1585 1628 1525 1569 1543 1575 1626 1533 1610 1624 1657 1629 1618 1608 1638 1622 1648 1640 1681 1653 1675 1678 1686 1682 1702 1702 1681 1729 1866 1814 1834 1784 1901 1880 1886 2022 1974 2034 2104 2129 2084 2177 2257 2200 2245 2257 2265 2332 2327 2391 2390 2428 2489 2512 2459 2595 2491 2635 2596 2782 2669 2627 2828 2869 2910 2901 2981 2906 3085 3216 3287 3374 3465 3547 3567 3589 3618 3765 3724 3678 3693 3952 3845 3895 3941 3877 3946 3841 3677 3648 3535 3398 3270 3262 3098 3018 2890 2799 2665 2772 2713 2535 2410 2332 2237 2149 2197 2107 2094 2016 2051 2003 2005 1927 1858 1978 1812 1986 1947 1870 1953 1841 1837 1855 1814 1869 1816 1824 1810 1860 1862 1824 1843 1843 1839 1797 1810 1744 1733 1804 1803 1778 1836 1789 1740 1840 1814 1802 1816 1865 1690 1797 1748 1763 1676 1754 1704 1732 1745 1725 1664 1676 1739 1728 1667 1707 1615 1729 1673 1691 1717 1706 1688 1724 1728 1684 1724 1689 1687 1731 1709 1754 1738 1717 1728 1671 1668 1630 1740 1659 1734 1693 1712 1626 1691 1701 1641 1621 1689 1589 1662 1620 1688 1667 1659 1686 1613 1595 1686 1608 1639 1594 1665 1643 1607 1628 1607 1673 1570 1669 1669 1632 1660 1637 1580 1724 1637 1590 1591 1559 1588 1594 1599 1635 1602 1513 1619 1627 1608 1615 1678 1521 1564 1580 1583 1648 1640 1644 1612 1642 1547 1576 1555 1633 1609 1611 1543 1597 1654 1648 1622 1612 1697 1630 1618 1587 1661 1621 1686 1608 1625 1673 1650 1694 1645 1672 1744 1660 1717 1679 1690 1623 1707 1736 1670 1707 1694 1658 1771 1746 1748 1657 1746 1763 1691 1797 1752 1803 1790 1747 1858 1785 1768 1860 1828 1785 1861 1785 1742 1849 1863 1732 1784 1847 1729 1802 1712 1801 1833 1775 1690 1675 1616 1579 1723 1711 1643 1587 1608 1678 1637 1695 1608 1673 1654 1584 1614 1694 1692 1610 1658 1604 1595 1643 1571 1578 1648 1589 1587 1594 1513 1600 1568 1538 1585 1566 1562 1613 1576 1578 1571 1665 1680 1670 1620 1603 1628 1548 1603 1508 1648 1582 1589 1572 1516 1587 1576 1627 1584 1567 1634 1586 1600 1612 1621 1495 1594 1613 1618 1575 1625 1548 1564 1626 1629 1570 1599 1514 1507 1556 1580 1619 1556 1662 1554 1669 1549 1589 1613 1616 1651 1538 1583 1611 1620 1576 1542 1589 1496 1577 1609 1544 1551 1599 1572 1553 1590 1591 1647 1551 1640 1557 1598 1605 1607 1614 1456 1632 1589 1552 1611 1548 1615 1609 1591 1543 1581 1459 1570 1554 1573 1591 1643 1539 1512 1551 1552 1510 1573 1597 1575 1571 1603 1588 1548 1558 1570 1630 1530 1593 1492 1524 1567 1584 1635 1568 1542 1632 1628 1578 1598 1665 1544 1549 1528 1538 1634 1543 1466 1550 1547 1522 1611 1615 1532 1548 1608 1555 1543 1533 1528 1560 1481 1518 1562 1541 1601 1634 1550 1551 1521 1519 1507 1529 1657 1504 1538 1577 1548 1586 1550 1505 1562 1510 1607 1602 1529 1580 1598 1683 1678 1484 1536 1603 1528 1517 1547 1574 1539 1539 1569 1575 1592 1532 1558 1576 1555 1547 1492 1455 1592 1589 1551 1556 1580 1545 1606 1529 1531 1562 1551 1542 1591 1529 1575 1541 1595 1581 1605 1493 1453 1502 1553 1600 1489 1604 1558 1550 1514 1614 1494 1585 1511 1567 1587 1538 1636 1644 1577 1591 1556 1563 1643 1608 1608 1581 1561 1526 1534 1576 1536 1601 1482 1558 1551 1591 1576 1603 1574 1551 1600 1631 1583 1509 1509 1543 1560 1558 1575 1611 1570 1564 1619 1602 1566 1556 1502 1590 1629 1571 1602 1506 1517 1551 1617 1572 1673 1538 1568 1594 1545 1615 1521 1561 1546 1569 1537 1547 1649 1520 1599 1541 1547 1534 1629 1566 1531 1599 1546 1612 1528 1521 1609 1592 1552 1598 1616 1576 1614 1633 1568 1635 1588 1520 1475 1515 1519 1591 1527 1595 1520 1541 1537 1545 1606 1562 1565 1595 1588 1582 1600 1474 1499 1603 1573 1587 1559 1583 1561 1593 1592 1610 1602 1675 1515 1516 1565 1534 1497 1614 1591 1643 1565 1531 1551 1523 1573 1552 1540 1595 1515 1626 1520 1528 1510 1536 1560 1545 1508 1520 1510 1531 1571 1514 1629 1534 1579 1591 1535 1510 1621 1517 1555 1576 1621 1588 1559 1515 1588 1565 1549 1553 1504 1560 1580 1538 1557 1649 1549 1539 1595 1525 1607 1593 1536 1583 1550 1540 1510 1509 1580 1584 1560 1551 1512 1640 1600 1591 1587 1603 1529 1565 1536 1526 1532 1582 1482 1549 1580 1633 1499 1535 1619 1559 1532 1564 1636 1532 1626 1634 1531 1483 1573 1557 1616 1605 1553 1613 1546 1585 1568 1625 1594 1581 1554 1543 1593 1576 1616 1581 1538 1598 1499 1611 1546 1522 1604 1566 1610 1563 1553 1569 1551 1527 1626 1515 1634 1572 1578 1539 1671 1569 1571 1661 1590 1531 1641 1658 1578 1643 1591 1551 1562 1630 1528 1572 1645 1577 1549 1585 1645 1687 1555 1660 1624 1614 1602 1596 1655 1695 1694 1637 1622 1708 1661 1636 1685 1612 1611 1666 1694 1613 1697 1637 1605 1654 1618 1643 1730 1585 1694 1659 1672 1621 1722 1706 1676 1678 1668 1678 1627 1619 1665 1660 1693 1633 1685 1775 1708 1691 1672 1813 1678 1706 1756 1706 1756 1783 1776 1754 1768 1767 1757 1763 1861 1812 1859 1839 1894 1800 1896 1859 1824 1845 1843 1890 1971 1951 1901 1936 1858 1983 1950 1952 1886 1922 1889 1826 1774 1848 1822 1837 1821 1727 1723 1750 1764 1726 1696 1662 1784 1715 1647 1640 1654 1669 1661 1650 1623 1660 1682 1616 1628 1676 1662 1720 1592 1738 1634 1666 1654 1606 1591 1679 1707 1663 1698 1688 1656 1708 1612 1702 1720 1690 1665 1785 1648 1636 1724 1647 1680 1640 1611 1606 1646 1623 1711 1625 1654 1670 1588 1615 1570 1564 1617 1639 1627 1644 1587 1542 1542 1689 1597 1604 1574 1616 1614 1574 1533 1604 1555 1613 1571 1611 1639 1598 1614 1565 1605 1551 1604 1513 1553 1541 1564 1582 1586 1577 1593 1578 1542 1531 1523 1525 1600 1490 1569 1549 1561 1557 1657 1559 1567 1535 1549 1593 1493 1501 1586 1568 1537 1531 1562 1609 1567 1580 1575 1602 1616 1481 1530 1596 1533 1595 1607 1566 1593 1591 1617 1645 1595 1578 1581 1582 1586 1618 1574 1548 1534 1524 1618 1546 1597 1639 1569 1586 1574 1536 1573 1545 1593 1561 1563 1609 1581 1574 1597 1516 1589 1583 1591 1673 1625 1625 1632 1637 1538 1597 1564 1673 1656 1623 1596 1622 1549 1605 1601 1636 1621 1610 1604 1647 1653 1562 1536 1613 1625 1549 1651 1575 1627 1592 1662 1603 1644 1620 1631 1648 1729 1631 1644 1718 1640 1633 1707 1767 1733 1698 1808 1776 1809 1753 1748 1763 1811 1812 1792 1828 1875 1907 1800 1938 1949 1897 1889 1940 1873 1957 1932 2076 1962 1979 1915 2002 2057 2100 2114 2138 2080 2155 2037 2161 2180 2126 2226 2243 2194 2212 2195 2176 2165 2231 2144 2080 2021 2029 2002 2020 2012 2010 1927 2008 1918 1933 1882 1914 1864 1838 1785 1776 1768 1695 1782 1730 1750 1740 1706 1708 1697 1650 1671 1743 1613 1665 1650 1678 1631 1666 1708 1645 1635 1655 1684 1749 1611 1596 1675 1663 1603 1654 1691 1634 1639 1667 1681 1683 1692 1638 1641 1587 1687 1661 1642 1676 1611 1734 1698 1684 1629 1697 1649 1583 1633 1606 1650 1605 1597 1596 1669 1596 1579 1689 1637 1596 1652 1613 1594 1605 1618 1582 1633 1634 1582 1612 1592 1675 1683 1610 1645 1666 1672 1657 1699 1650 1572 1668 1726 1613 1611 1659 1684 1614 1708 1651 1624 1637 1707 1607 1623 1620 1696 1664 1679 1650 1613 1572 1585 1616 1642 1662 1662 1706 1618 1571 1618 1672 1524 1656 1607 1647 1595 1659 1646 1625 1664 1569 1658 1600 1693 1655 1730 1597 1759 1645 1674 1656 1650 1702 1596 1627 1633 1708 1627 1642 1632 1645 1663 1671 1742 1679 1675 1685 1642 1672 1672 1702 1717 1677 1772 1741 1696 1759 1801 1784 1763 1816 1661 1733 1756 1793 1786 1747 1774 1749 1672 1715 1812 1713 1695 1761 1689 1759 1665 1698 1688 1691 1703 1642 1639 1729 1663 1719 1663 1630 1782 1584 1591 1669 1619 1684 1578 1583 1580 1561 1642 1515 1594 1586 1582 1615 1591 1653 1602 1583 1604 1512 1646 1507 1590 1706 1632 1598 1603 1534 1578 1561 1579 1545 1498 1619 1542 1524 1558 1648 1577 1610 1620 1624 1530 1623 1533 1592 1567 1550 1584 1635 1562 1592 1597 1610 1555 1577 1491 1598 1653 1628 1586 1570 1557 1520 1656 1662 1523 1563 1649 1559 1539 1643 1594 1601 1566 1597 1514 1585 1578 1588 1563 1539 1502 1532 1566 1574 1588 1596 1678 1591 1701 1600 1597 1483 1604 1577 1593 1558 1644 1585 1580 1588 1522 1592 1598 1529 1599 1647 1541 1678 1617 1622 1571 1587 1577 1596 1592 1588 1641 1583 1609 1555 1545 1661 1571 1633 1654 1597 1564 1628 1549 1559 1579 1612 1576 1629 1615 1590 1580 1605 1554 1631 1578 1584 1618 1588 1583 1625 1629 1578 1588 1535 1535 1631 1562 1565 1584 1562 1555 1548 1591 1524 1625 1542 1603 1535 1572 1573 1580 1572 1582 1536 1534 1557 1587 1571 1613 1547 1533 1553 1535 1566 1599 1589 1541 1629 1539 1607 1635 1585 1538 1609 1606 1531 1606 1533 1571 1607 1626 1654 1585 1628 1506 1569 1605 1577 1521 1572 1563 1658 1618 1631 1563 1602 1576 1600 1521 1587 1610 1485 1552 1598 1656 1696 1531 1622 1522 1534 1581 1591 1620 1591 1634 1517 1628 1560 1608 1510 1588 1624 1524 1548 1601 1618 1629 1588 1579 1637 1647 1526 1574 1575 1586 1536 1566 1647 1610 1553 1606 1607 1458 1556 1655 1609 1598 1573 1594 1623 1617 1602 1547 1639 1503 1569 1535 1596 1574 1606 1599 1604 1592 1586 1647 1625 1596 1539 1556 1604 1570 1563 1599 1598 1531 1602 1580 1608 1547 1637 1631 1576 1576 1600 1589 1623 1608 1548 1557 1577 1563 1602 1615 1624 1604 1589 1527 1580 1530 1566 1573 1566 1698 1568 1616 1527 1586 1555 1540 1551 1639 1648 1587 1535 1538 1547 1538 1601 1623 1530 1559 1529 1605 1572 1617 1587 1564 1563 1550 1562 1577 1620 1564 1549 1609 1572 1623 1544 1564 1525 1582 1588 1562 1616 1601 1576 1659 1535 1527 1544 1573 1580 1568 1569 1575 1597 1581 1548 1579 1570 1597 1604 1524 1605 1618 1644 1621 1580 1661 1516 1532 1551 1552 1620 1613 1540 1525 1651 1576 1635 1561 1630 1571 1619 1567 1591 1639 1625 1550 1598 1552 1596 1563 1598 1636 1542 1548 1555 1614 1627 1626 1528 1645 1604 1575 1607 1572 1577 1601 1514 1628 1560 1618 1514 1622 1644 1607 1608 1550 1570 1627 1554 1595 1673 1617 1600 1611 1628 1611 1690 1649 1643 1578 1541 1612 1666 1603 1605 1638 1644 1622 1628 1629 1681 1664 1681 1693 1673 1667 1652 1671 1587 1623 1642 1719 1712 1613 1662 1660 1642 1671 1606 1659 1693 1673 1678 1592 1656 1691 1648 1642 1645 1671 1664 1677 1656 1639 1659 1681 1702 1596 1631 1529 1562 1594 1612 1624 1615 1627 1633 1573 1559 1625 1701 1497 1615 1616 1498 1623 1559 1583 1607 1585 1566 1580 1600 1594 1618 1645 1624 1555 1615 1641 1646 1566 1618 1637 1576 1538 1601 1664 1562 1577 1618 1484 1601 1591 1650 1593 1567 1556 1615 1624 1519 1605 1547 1500 1536 1612 1583 1595 1562 1545 1547 1603 1579 1642 1584 1562 1583 1588 1648 1645 1583 1607 1571 1628 1522 1643 1603 1599 1588 1589 1563 1552 1580 1606 1564 1557 1606 1474 1625 1543 1534 1591 1600 1605 1570 1580 1666 1549 1582 1580 1625 1600 1565 1513 1558 1582 1543 1563 1570 1557 1649 1593 1536 1574 1593 1584 1573 1635 1583 1615 1584 1606 1546 1538 1539 1612 1551 1631 1549 1585 1621 1545 1596 1632 1643 1541 1522 1544 1633 1513 1604 1598 1609 1576 1603 1486 1589 1552 1646 1600 1659 1637 1596 1625 1558 1548 1585 1646 1526 1674 1525 1617 1621 1640 1603 1569 1586 1611 1569 1594 1517 1568 1575 1555 1569 1641 1563 1618 1664 1614 1525 1623 1592 1585 1609 1559 1607 1555 1583 1538 1569 1569 1513 1579 1615 1596 1599 1600 1625 1633 1606 1561 1590 1578 1550 1603 1520 1633 1592 1564 1618 1514 1588 1520 1611 1632 1612 1593 1612 1526 1599 1595 1649 1663 1560 1648 1623 1605 1648 1584 1607 1622 1538 1652 1591 1629 1650 1594 1618 1641 1673 1576 1545 1701 1758 1690 1659 1654 1696 1673 1635 1739 1679 1704 1726 1655 1733 1690 1765 1773 1734 1763 1660 1769 1901 1773 1776 1661 1796 1708 1832 1710 1734 1769 1865 1801 1706 1866 1716 1833 1778 1764 1913 1820 1835 1862 1856 1909 1797 1910 1879 1835 1792 1818 1829 1789 1825 1792 1809 1743 1763 1700 1649 1613 1722 1800 1742 1730 1698 1676 1642 1686 1716 1673 1691 1677 1622 1631 1596 1694 1633 1689 1626 1697 1613 1655 1593 1685 1639 1570 1673 1603 1624 1647 1625 1592 1630 1615 1616 1590 1589 1591 1601 1595 1667 1569 1653 1620 1615 1548 1576 1667 1689 1682 1670 1674 1639 1569 1593 1622 1696 1676 1690 1600 1607 1630 1622 1570 1684 1640 1589 1576 1615 1591 1594 1585 1629 1601 1562 1612 1607 1684 1604 1596 1676 1573 1558 1597 1580 1513 1601 1649 1633 1628 1607 1585 1534 1583 1614 1616 1533 1700 1599 1565 1593 1561 1581 1664 1570 1618 1637 1567 1575 1567 1609 1652 1671 1623 1590 1509 1615 1579 1537 1629 1666 1583 1623 1565 1677 1647 1606 1537 1643 1559 1646 1633 1603 1660 1615 1575 1654 1653 1587 1596 1589 1601 1627 1556 1646 1534 1584 1633 1679 1635 1631 1599 1596 1568 1583 1626 1651 1601 1604 1574 1663 1618 1566 1563 1608 1595 1592 1607 1607 1671 1571 1572 1654 1508 1602 1626 1573 1598 1659 1641 1606 1585 1553 1564 1591 1584 1660 1621 1586 1566 1637 1588 1565 1562 1593 1537 1631 1593 1587 1585 1589 1597 1614 1669 1579 1635 1587 1578 1640 1625 1690 1593 1609 1594 1597 1648 1633 1645 1587 1622 1609 1625 1677 1613 1597 1570 1606 1649 1540 1628 1591 1596 1646 1548 1570 1584 1602 1546 1588 1637 1616 1603 1587 1547 1543 1595 1534 1587 1563 1587 1644 1679 1614 1636 1583 1606 1637 1620 1559 1596 1637 1564 1529 1544 1579 1595 1629 1613 1639 1632 1600 1519 1620 1583 1582 1670 1535 1666 1544 1538 1620 1626 1597 1548 1613 1632 1592 1631 1633 1633 1668 1578 1574 1551 1571 1630 1593 1562 1654 1540 1571 1681 1640 1553 1642 1557 1607 1537 1562 1651 1657 1587 1533 1551 1646 1654 1579 1603 1529 1617 1575 1590 1537 1678 1648 1530 1606 1612 1536 1604 1638 1580 1611 1532 1640 1661 1618 1626 1621 1561 1648 1553 1579 1676 1577 1646 1618 1599 1555 1582 1630 1555 1603 1520 1512 1560 1610 1663 1593 1610 1572 1562 1656 1638 1631 1650 1563 1570 1591 1552 1501 1668 1670 1568 1650 1545 1615 1669 1604 1581 1601 1611 1617 1683 1595 1580 1680 1587 1616 1626 1634 1624 1693 1594 1635 1631 1597 1570 1617 1649 1617 1599 1551 1578 1603 1679 1613 1626 1616 1607 1599 1579 1629 1601 1589 1616 1607 1519 1575 1669 1634 1602 1635 1637 1632 1656 1595 1603 1572 1631 1642 1595 1626 1631 1637 1604 1616 1635 1590 1615 1555 1597 1728 1558 1683 1702 1589 1613 1624 1652 1625 1610 1638 1632 1616 1665 1674 1622 1650 1625 1603 1627 1556 1646 1546 1555 1652 1689 1638 1620 1621 1546 1634 1656 1640 1640 1612 1605 1681 1625 1695 1575 1559 1653 1590 1596 1591 1580 1696 1579 1652 1618 1640 1679 1679 1601 1626 1524 1598 1559 1606 1648 1601 1558 1625 1680 1633 1625 1524 1610 1615 1650 1580 1618 1612 1599 1630 1558 1573 1598 1655 1550 1626 1553 1638 1610 1642 1572 1564 1569 1633 1619 1595 1590 1590 1561 1636 1654 1613 1556 1596 1609 1537 1601 1568 1607 1629 1611 1623 1553 1665 1581 1621 1573 1564 1634 1574 1649 1609 1612 1611 1672 1638 1572 1606 1658 1618 1631 1668 1646 1623 1596 1569 1590 1643 1612 1563 1623 1641 1608 1620 1609 1634 1712 1648 1626 1655 1607 1630 1568 1669 1648 1579 1627 1580 1626 1560 1723 1548 1683 1680 1672 1624 1694 1653 1590 1592 1720 1636 1619 1721 1656 1670 1668 1641 1666 1601 1632 1661 1638 1631 1643 1676 1636 1608 1710 1678 1673 1648 1680 1724 1641 1732 1763 1669 1676 1717 1677 1625 1687 1700 1663 1657 1749 1722 1690 1829 1681 1625 1749 1672 1659 1620 1694 1767 1742 1662 1716 1726 1680 1730 1683 1738 1704 1656 1742 1658 1656 1766 1702 1737 1675 1662 1694 1617 1728 1701 1701 1678 1673 1706 1727 1752 1676 1741 1690 1780 1634 1742 1748 1751 1710 1698 1687 1782 1704 1639 1694 1664 1657 1688 1748 1728 1683 1658 1718 1705 1752 1666 1700 1659 1695 1737 1636 1716 1705 1721 1658 1666 1666 1780 1710 1688 1663 1650 1595 1656 1662 1703 1700 1638 1644 1648 1614 1512 1530 1701 1630 1653 1640 1686 1597 1607 1678 1701 1628 1561 1575 1695 1653 1693 1588 1691 1682 1583 1647 1673 1639 1621 1651 1653 1666 1676 1677 1618 1675 1650 1632 1642 1679 1600 1644 1680 1672 1622 1637 1715 1707 1729 1644 1639 1649 1690 1685 1723 1630 1740 1684 1658 1639 1654 1752 1736 1718 1639 1677 1620 1657 1576 1619 1657 1700 1607 1635 1655 1563 1610 1584 1648 1659 1574 1635 1650 1648 1658 1657 1652 1667 1655 1688 1669 1555 1582 1605 1653 1645 1586 1637 1642 1614 1687 1639 1653 1667 1613 1685 1635 1649 1737 1654 1696 1631 1592 1668 1658 1699 1683 1583 1667 1642 1616 1683 1593 1624 1645 1659 1611 1639 1681 1644 1736 1716 1707 1648 1636 1733 1719 1698 1621 1714 1656 1658 1644 1717 1656 1744 1793 1711 1673 1724 1689 1725 1788 1658 1738 1715 1686 1740 1777 1751 1789 1818 1743 1799 1742 1810 1834 1872 1839 1940 1941 1893 1832 1931 1868 1924 1946 2025 1950 1931 1897 1961 2082 1972 2052 2041 2048 2030 2077 2076 2129 2137 2160 2108 2105 2091 2142 2159 2080 2131 2130 2155 2044 2168 2047 2055 2033 2154 2015 2005 1993 1988 1968 1994 1935 1982 1986 1900 2044 1960 1914 1881 1903 1882 1868 1869 1906 1878 1886 1783 1815 1796 1849 1767 1803 1774 1783 1692 1756 1695 1746 1775 1759 1661 1638 1721 1793 1661 1811 1730 1715 1699 1658 1673 1769 1666 1670 1689 1689 1730 1804 1700 1702 1721 1679 1703 1715 1655 1673 1680 1733 1720 1707 1723 1703 1685 1648 1667 1713 1735 1778 1678 1701 1804 1728 1629 1702 1748 1699 1769 1746 1662 1813 1700 1743 1693 1693 1713 1721 1687 1580 1722 1609 1743 1643 1729 1762 1603 1753 1727 1736 1766 1728 1699 1655 1664 1747 1737 1731 1642 1670 1668 1707 1687 1693 1662 1584 1656 1625 1683 1635 1754 1702 1602 1743 1665 1664 1608 1680 1684 1701 1650 1654 1705 1639 1673 1631 1642 1649 1721 1679 1693 1766 1567 1722 1687 1668 1716 1745 1724 1672 1692 1687 1724 1728 1712 1680 1696 1807 1667 1677 1682 1800 1744 1673 1692 1698 1604 1716 1621 1676 1669 1656 1738 1636 1683 1697 1611 1711 1678 1697 1706 1639 1690 1658 1668 1615 1754 1678 1668 1744 1675 1685 1636 1666 1750 1638 1659 1642 1656 1704 1702 1700 1682 1686 1705 1628 1707 1628 1704 1728 1612 1657 1647 1601 1618 1623 1642 1680 1598 1682 1665 1714 1633 1690 1613 1702 1653 1676 1636 1667 1675 1584 1606 1608 1628 1594 1628 1664 1670 1595 1660 1597 1635 1634 1664 1599 1631 1623 1697 1618 1681 1705 1611 1660 1667 1614 1631 1661 1641 1594 1628 1679 1608 1641 1651 1701 1629 1635 1599 1663 1600 1586 1643 1615 1619 1664 1636 1654 1671 1648 1595 1702 1634 1683 1604 1642 1635 1702 1603 1663 1589 1686 1635 1640 1621 1670 1629 1610 1650 1578 1677 1653 1718 1571 1668 1563 1595 1661 1689 1627 1594 1663 1744 1597 1683 1654 1626 1600 1652 1654 1652 1626 1654 1647 1623 1620 1594 1567 1547 1634 1593 1666 1578 1575 1554 1635 1660 1616 1602 1608 1672 1666 1634 1615 1556 1637 1610 1596 1656 1617 1594 1634 1611 1633 1669 1602 1590 1636 1642 1583 1693 1614 1622 1636 1695 1686 1673 1632 1708 1724 1587 1597 1649 1613 1624 1686 1599 1624 1649 1724 1584 1628 1746 1613 1538 1671 1617 1582 1600 1600 1700 1663 1635 1649 1704 1603 1654 1638 1646 1628 1689 1647 1681 1600 1610 1639 1583 1680 1616 1621 1565 1679 1693 1625 1604 1566 1700 1653 1634 1607 1655 1636 1619 1656 1677 1677 1650 1605 1582 1718 1617 1621 1676 1649 1630 1660 1615 1611 1640 1579 1695 1670 1646 1642 1664 1571 1590 1637 1688 1621 1601 1629 1708 1606 1608 1652 1636 1630 1641 1697 1676 1590 1664 1634 1556 1612 1665 1586 1629 1704 1594 1575 1653 1630 1645 1593 1649 1631 1610 1680 1521 1570 1662 1658 1621 1734 1576 1644 1690 1581 1599 1649 1664 1681 1632 1566 1655 1687 1668 1629 1617 1627 1646 1578 1569 1588 1622 1566 1589 1642 1617 1682 1623 1665 1617 1523 1662 1668 1667 1621 1668 1616 1719 1608 1687 1668 1592 1689 1641 1638 1695 1687 1650 1639 1661 1687 1647 1637 1597 1743 1641 1629 1706 1639 1681 1616 1624 1623 1654 1739 1729 1615 1653 1663 1672 1644 1683 1581 1633 1570 1579 1616 1678 1646 1702 1676 1605 1683 1716 1544 1663 1679 1666 1653 1628 1662 1679 1634 1669 1683 1709 1619 1621 1667 1624 1650 1716 1599 1702 1630 1670 1619 1679 1706 1636 1611 1646 1636 1644 1639 1630 1707 1681 1629 1683 1648 1571 1780 1645 1741 1673 1696 1719 1714 1732 1646 1733 1713 1743 1657 1653 1739 1753 1699 1667 1675 1684 1734 1739 1724 1694 1702 1634 1712 1643 1684 1640 1759 1678 1656 1699 1646 1688 1675 1637 1692 1589 1657 1599 1666 1587 1608 1677 1665 1705 1690 1725 1663 1739 1626 1659 1615 1559 1641 1647 1607 1624 1680 1648 1699 1610 1651 1668 1683 1615 1631 1615 1612 1680 1642 1638 1665 1670 1673 1688 1624 1692 1647 1615 1620 1696 1627 1663 1665 1680 1653 1631 1708 1618 1552 1607 1590 1677 1632 1700 1649 1654 1619 1661 1644 1650 1653 1632 1674 1696 1616 1615 1717 1649 1640 1656 1667 1590 1651 1648 1693 1560 1675 1662 1610 1592 1746 1675 1646 1619 1660 1700 1625 1631 1678 1640 1593 1686 1552 1645 1652 1657 1658 1582 1681 1614 1663 1611 1648 1579 1610 1610 1685 1660 1726 1716 1629 1633 1687 1613 1662 1565 1611 1637 1607 1641 1704 1650 1751 1617 1721 1641 1613 1670 1596 1693 1625 1639 1611 1631 1581 1634 1638 1636 1655 1622 1677 1603 1593 1639 1657 1667 1664 1642 1652 1718 1674 1673 1647 1666 1738 1659 1684 1636 1723 1629 1644 1641 1638 1622 1718 1670 1731 1690 1599 1706 1607 1619 1667 1583 1628 1663 1684 1702 1646 1618 1729 1653 1752 1702 1676 1681 1677 1658 1676 1631 1679 1694 1679 1672 1682 1634 1658 1755 1703 1687 1677 1599 1704 1647 1669 1676 1673 1692 1705 1782 1698 1711 1667 1734 1701 1736 1711 1780 1747 1744 1704 1801 1818 1748 1759 1699 1791 1777 1793 1780 1816 1749 1805 1888 1765 1889 1893 1940 1901 1868 1872 1876 1850 2000 1883 1963 1862 1959 1998 1962 1841 2031 2019 1953 2019 1980 2076 1980 1971 2061 1993 1971 1968 2006 1993 1951 2032 2045 2006 1904 2041 1959 2003 1981 1971 1991 2009 1887 1938 1888 1962 2030 1905 1807 1905 1933 1848 1880 1858 1861 1901 1892 1813 1862 1787 1864 1790 1851 1872 1723 1844 1761 1784 1815 1786 1763 1741 1728 1697 1661 1677 1745 1742 1745 1762 1699 1727 1667 1662 1699 1604 1646 1658 1697 1689 1739 1761 1687 1725 1746 1695 1706 1656 1687 1667 1706 1778 1650 1737 1688 1776 1750 1675 1680 1729 1652 1691 1742 1654 1697 1648 1711 1724 1727 1696 1725 1652 1734 1655 1653 1756 1691 1685 1631 1730 1691 1707 1631 1734 1686 1700 1780 1735 1709 1685 1788 1729 1742 1732 1710 1749 1699 1737 1719 1677 1786 1706 1738 1792 1704 1700 1687 1591 1665 1722 1618 1760 1681 1699 1739 1653 1706 1623 1715 1725 1651 1715 1616 1688 1703 1647 1643 1621 1686 1608 1651 1657 1671 1707 1630 1674 1733 1626 1753 1610 1713 1654 1747 1723 1626 1661 1717 1710 1653 1701 1685 1680 1695 1578 1664 1684 1682 1746 1652 1698 1737 1657 1700 1692 1721 1671 1742 1698 1718 1720 1728 1687 1675 1739 1665 1688 1683 1656 1695 1627 1666 1674 1694 1638 1649 1656 1685 1743 1676 1653 1696 1713 1738 1662 1652 1640 1570 1644 1695 1697 1664 1684 1682 1749 1641 1630 1645 1622 1661 1709 1647 1690 1625 1670 1642 1672 1737 1631 1691 1728 1688 1666 1722 1663 1743 1695 1612 1731 1673 1656 1723 1643 1669 1605 1640 1594 1574 1673 1728 1742 1610 1615 1722 1720 1670 1734 1575 1660 1683 1627 1683 1626 1662 1720 1606 1657 1628 1690 1693 1701 1651 1669 1633 1673 1652 1670 1613 1640 1669 1660 1703 1679 1621 1700 1703 1670 1678 1703 1640 1710 1663 1661 1663 1693 1651 1616 1695 1663 1708 1640 1572 1714 1707 1663 1642 1698 1701 1652 1601 1812 1697 1635 1604 1624 1689 1651 1691 1718 1669 1665 1656 1665 1669 1665 1561 1655 1634 1738 1696 1660 1672 1616 1711 1605 1673 1581 1655 1564 1630 1711 1603 1622 1684 1710 1640 1710 1601 1723 1720 1656 1610 1627 1673 1621 1736 1661 1584 1673 1731 1664 1703 1689 1666 1651 1618 1646 1688 1683 1590 1654 1681 1655 1663 1697 1645 1660 1657 1607 1672 1701 1659 1727 1768 1627 1647 1714 1649 1674 1717 1676 1625 1686 1641 1645 1639 1671 1677 1765 1605 1693 1687 1627 1693 1644 1648 1670 1618 1716 1609 1712 1686 1609 1707 1728 1675 1670 1621 1634 1629 1693 1655 1686 1621 1667 1686 1666 1621 1647 1643 1619 1649 1642 1617 1660 1689 1691 1637 1638 1689 1719 1745 1654 1712 1682 1706 1675 1638 1621 1725 1618 1619 1687 1741 1691 1607 1753 1728 1584 1656 1604 1665 1616 1682 1644 1675 1660 1666 1633 1717 1649 1682 1758 1698 1611 1652 1639 1592 1670 1534 1662 1612 1622 1688 1656 1697 1685 1628 1648 1560 1652 1678 1639 1655 1568 1608 1600 1621 1695 1676 1607 1625 1615 1687 1616 1702 1616 1662 1583 1631 1701 1636 1719 1648 1727 1707 1652 1707 1572 1673 1625 1656 1697 1671 1713 1634 1670 1583 1703 1707 1704 1690 1585 1637 1663 1605 1746 1573 1695 1739 1643 1603 1658 1653 1593 1590 1645 1687 1719 1687 1668 1625 1659 1646 1642 1691 1621 1635 1752 1571 1660 1707 1708 1727 1638 1706 1685 1642 1642 1653 1641 1677 1715 1706 1633 1654 1745 1730 1672 1701 1587 1558 1735 1620 1701 1719 1776 1738 1725 1649 1674 1713 1715 1756 1733 1655</counts>
			</dataPoints>
		</scan>
	</xrdMeasurement>
</xrdMeasurements>
