<?xml version="1.0"?>
<xrdMeasurements xmlns="http://www.xrdml.com/XRDMeasurement/2.3" xmlns:xsi="http://www.w3.org/2001/XMLSchema-instance" xsi:schemaLocation="http://www.xrdml.com/XRDMeasurement/2.3 http://www.xrdml.com/XRDMeasurement/2.3/XRDMeasurement.xsd" status="Completed" recordIdentifier="{59AEC4D1-A64D-4700-BE03-3552B8516F16}">
	<comment>
		<entry/>
	</comment>
	<sample type="To be analyzed">
		<id>GPSS_Li1p7Fe0p7Nb0p15Cu0p15Cl4_121325_693cb366f4d05ae3d69752b4</id>
		<name></name>
		<preparedBy></preparedBy>
	</sample>
	<xrdMeasurement measurementType="Scan" status="Completed" sampleMode="Reflection">
		<usedWavelength intended="K-Alpha 1">
			<kAlpha1 unit="Angstrom">1.5405980</kAlpha1>
			<kAlpha2 unit="Angstrom">1.5444260</kAlpha2>
			<kBeta unit="Angstrom">1.3922500</kBeta>
			<ratioKAlpha2KAlpha1>0.5000</ratioKAlpha2KAlpha1>
		</usedWavelength>
		<incidentBeamPath>
			<radius unit="mm">145.00</radius>
			<xRayTube id="1010048" name="Empyrean Cu LFF HR (9430 033 7310x)">
				<tension unit="kV">40.0</tension>
				<current unit="mA">15.0</current>
				<anodeMaterial>Cu</anodeMaterial>
				<focus type="Line">
					<length unit="mm">12.0</length>
					<width unit="mm">0.4</width>
					<takeOffAngle unit="deg">6.0</takeOffAngle>
				</focus>
			</xRayTube>
			<sollerSlit id="21010002" name="Soller slits 0.04 rad.">
				<opening unit="rad">0.0400</opening>
			</sollerSlit>
			<mask id="22031000" name="Fixed mask 13 mm">
				<width unit="mm">9.00</width>
			</mask>
			<divergenceSlit id="22120001" name="Divergence slit 1°" xsi:type="fixedDivergenceSlitType">
				<distanceToSample unit="mm">50.00</distanceToSample>
				<height unit="mm">1.52</height>
			</divergenceSlit>
		</incidentBeamPath>
		<sampleMovement xsi:type="spinningSampleMovementType">
			<spinnerRevolutionTime unit="seconds">1.0</spinnerRevolutionTime>
		</sampleMovement>
		<diffractedBeamPath>
			<radius unit="mm">145.00</radius>
			<antiScatterSlit id="22090040" name="AS slit 9 mm (PIXcel)" xsi:type="fixedAntiScatterSlitType">
				<height unit="mm">9.00</height>
			</antiScatterSlit>
			<sollerSlit id="21020003" name="Large Soller slits 0.04 rad.">
				<opening unit="rad">0.0400</opening>
			</sollerSlit>
			<filter id="20030001" name="Large beta-filter Nickel">
				<material>Ni</material>
				<thickness unit="mm">0.020</thickness>
			</filter>
			<detector id="7010019" name="PIXcel1D-Medipix3 detector" xsi:type="rtmsDetectorType">
				<phd unit="keV">
					<lowerLevel>4.02</lowerLevel>
					<upperLevel>11.27</upperLevel>
				</phd>
				<mode>Scanning</mode>
				<activeLength unit="deg">5.542</activeLength>
			</detector>
		</diffractedBeamPath>
		<scan appendNumber="0" mode="Continuous" scanAxis="Gonio" status="Completed">
			<header>
				<startTimeStamp>2025-12-16T12:19:33-08:00</startTimeStamp>
				<endTimeStamp>2025-12-16T12:27:40-08:00</endTimeStamp>
				<author>
					<name>AutomatedUser</name>
				</author>
				<source>
					<applicationSoftware version="1.7b (136)">PANalytical Aeris Instrument Suite</applicationSoftware>
					<instrumentControlSoftware version="3.2.00000000 20240306">AERIS</instrumentControlSoftware>
					<instrumentID>950485</instrumentID>
				</source>
			</header>
			<dataPoints>
				<positions axis="2Theta" unit="deg">
					<startPosition>10.00943322</startPosition>
					<endPosition>99.99442286</endPosition>
				</positions>
				<positions axis="Omega" unit="deg">
					<startPosition>5.00471661</startPosition>
					<endPosition>49.99721143</endPosition>
				</positions>
				<commonCountingTime unit="seconds">12.495</commonCountingTime>
				<counts unit="counts">3187 3174 3235 3285 3166 3232 3234 3350 3242 3232 3172 3257 3260 3256 3199 3317 3327 3358 3259 3303 3158 3282 3192 3200 3250 3226 3350 3227 3299 3243 3323 3182 3224 3315 3222 3278 3177 3283 3171 3225 3316 3264 3360 3289 3213 3286 3224 3263 3455 3330 3346 3244 3364 3196 3299 3354 3358 3324 3194 3225 3275 3220 3334 3279 3416 3249 3303 3324 3430 3468 3442 3235 3399 3520 3393 3374 3458 3402 3415 3303 3409 3314 3368 3422 3479 3351 3420 3489 3403 3381 3393 3452 3420 3420 3349 3420 3413 3397 3484 3470 3434 3453 3431 3486 3450 3461 3437 3466 3403 3413 3407 3575 3492 3430 3438 3348 3457 3458 3360 3488 3534 3510 3439 3574 3383 3450 3411 3524 3493 3441 3421 3402 3474 3470 3413 3421 3450 3379 3371 3379 3438 3351 3434 3395 3547 3452 3452 3521 3475 3496 3417 3523 3522 3478 3417 3574 3511 3393 3430 3420 3487 3502 3431 3482 3504 3471 3342 3465 3387 3358 3463 3348 3526 3390 3546 3423 3508 3353 3469 3456 3502 3467 3461 3357 3344 3402 3470 3402 3494 3368 3456 3435 3400 3386 3397 3387 3454 3472 3375 3441 3495 3438 3579 3343 3451 3484 3451 3352 3430 3366 3344 3404 3399 3482 3430 3562 3377 3393 3392 3382 3436 3358 3472 3428 3458 3433 3456 3373 3416 3324 3488 3360 3377 3399 3394 3411 3353 3425 3445 3408 3380 3432 3479 3380 3496 3407 3387 3396 3368 3333 3402 3366 3411 3418 3442 3296 3587 3394 3412 3470 3438 3443 3427 3352 3394 3394 3370 3347 3365 3386 3447 3426 3399 3431 3405 3351 3399 3363 3303 3365 3433 3386 3527 3350 3387 3402 3483 3401 3472 3507 3431 3477 3461 3448 3496 3443 3379 3516 3444 3524 3419 3399 3550 3542 3417 3417 3432 3420 3473 3475 3462 3558 3300 3387 3511 3436 3470 3510 3474 3536 3529 3461 3540 3533 3486 3604 3597 3490 3606 3462 3546 3595 3482 3465 3670 3467 3673 3423 3574 3609 3677 3559 3688 3591 3646 3608 3680 3609 3671 3625 3627 3598 3620 3627 3678 3587 3823 3650 3729 3633 3792 3711 3785 3788 3663 3736 3670 3731 3677 3789 3822 3844 3844 3796 3754 3750 3805 3934 3812 3764 3812 3794 3814 3840 3856 3799 3823 3764 3851 3724 3856 4054 3861 3991 3882 3866 4020 4008 3910 3860 3951 3795 3901 3950 3994 3860 3980 3921 3940 4109 3983 4036 3938 3988 4064 3917 3984 4068 4074 3945 3977 4055 4187 4121 4154 4208 4165 4132 4254 4192 4227 4273 4012 4157 4286 4340 4369 4283 4395 4456 4358 4450 4553 4516 4708 4616 4668 4810 4808 4895 4801 4997 4878 4818 5114 4966 4814 5049 4901 4986 4748 4920 4973 4799 4764 4718 4605 4560 4618 4563 4542 4495 4431 4421 4521 4451 4530 4524 4506 4616 4571 4486 4525 4378 4378 4277 4326 4189 4107 4179 4226 4087 4109 3970 4082 4160 4062 4016 4012 3948 4107 4015 4012 3964 4107 3903 4057 3951 3989 3975 3976 3968 3933 3966 3881 4028 3965 3988 3853 3800 3834 3946 3849 3913 3945 3831 3846 3915 3869 3891 3900 3943 3848 3833 3973 3923 3855 3863 3916 3903 3787 3890 3921 3859 3876 3844 4000 3815 3954 3790 3806 3803 3752 3792 3798 3738 3772 3861 3758 3862 3892 3784 3777 3834 3807 3726 3732 3890 3770 3859 3705 3702 3796 3757 3705 3767 3677 3779 3717 3691 3722 3641 3725 3868 3863 3708 3579 3622 3676 3742 3728 3621 3760 3633 3620 3711 3788 3681 3769 3740 3687 3723 3682 3708 3674 3645 3652 3747 3557 3743 3594 3633 3663 3754 3645 3538 3739 3672 3662 3690 3649 3606 3513 3643 3660 3688 3686 3609 3674 3648 3518 3542 3629 3633 3598 3707 3713 3571 3569 3624 3669 3622 3685 3637 3589 3623 3521 3470 3544 3531 3635 3579 3543 3615 3603 3602 3553 3670 3502 3642 3607 3659 3538 3511 3494 3599 3550 3552 3524 3596 3626 3509 3570 3527 3556 3532 3527 3647 3531 3563 3488 3585 3411 3646 3552 3591 3555 3480 3448 3395 3515 3500 3619 3617 3557 3593 3540 3515 3577 3640 3475 3500 3499 3617 3551 3481 3569 3397 3564 3660 3499 3627 3666 3535 3533 3490 3609 3563 3583 3550 3629 3573 3618 3572 3601 3564 3551 3619 3406 3660 3622 3532 3649 3508 3475 3649 3534 3511 3528 3518 3449 3638 3540 3650 3522 3436 3402 3653 3591 3503 3562 3502 3479 3551 3429 3674 3562 3540 3320 3570 3484 3627 3538 3514 3494 3587 3525 3555 3649 3498 3451 3534 3503 3516 3456 3498 3608 3482 3476 3586 3484 3311 3435 3493 3513 3418 3581 3525 3643 3462 3407 3485 3654 3442 3468 3615 3419 3553 3579 3595 3532 3612 3553 3529 3522 3417 3476 3435 3593 3586 3459 3412 3478 3575 3517 3529 3464 3410 3656 3369 3354 3571 3489 3416 3446 3426 3479 3464 3526 3436 3434 3476 3461 3342 3469 3448 3407 3519 3539 3511 3488 3534 3390 3386 3479 3426 3442 3504 3452 3513 3406 3492 3404 3496 3383 3537 3460 3526 3373 3397 3434 3443 3372 3517 3490 3583 3544 3439 3401 3437 3533 3471 3401 3432 3458 3387 3515 3481 3539 3410 3386 3495 3466 3406 3363 3424 3380 3501 3436 3477 3505 3406 3479 3414 3576 3459 3350 3404 3356 3383 3475 3455 3332 3452 3410 3453 3452 3389 3400 3448 3465 3319 3434 3395 3494 3468 3420 3573 3387 3377 3298 3299 3409 3422 3357 3351 3343 3438 3396 3364 3279 3345 3370 3367 3369 3404 3411 3317 3264 3370 3359 3384 3384 3356 3294 3417 3413 3357 3346 3437 3270 3324 3340 3378 3331 3252 3386 3262 3257 3445 3407 3434 3341 3290 3422 3321 3423 3301 3329 3389 3326 3285 3456 3422 3310 3254 3359 3332 3305 3337 3409 3408 3485 3384 3422 3227 3295 3333 3313 3307 3357 3391 3381 3367 3364 3406 3280 3351 3295 3405 3302 3359 3329 3437 3351 3301 3358 3363 3453 3420 3339 3368 3396 3333 3394 3401 3375 3385 3318 3334 3404 3372 3231 3340 3400 3249 3379 3428 3364 3353 3373 3427 3341 3470 3340 3373 3293 3322 3258 3439 3383 3363 3398 3297 3379 3348 3463 3542 3440 3416 3341 3320 3411 3348 3361 3450 3426 3397 3327 3501 3458 3400 3397 3415 3388 3323 3447 3429 3406 3366 3502 3485 3452 3420 3384 3472 3321 3422 3428 3381 3420 3410 3350 3443 3394 3400 3421 3341 3403 3432 3395 3501 3327 3418 3396 3464 3426 3411 3447 3342 3428 3445 3375 3392 3414 3450 3426 3432 3367 3408 3362 3435 3468 3445 3431 3409 3392 3310 3471 3398 3423 3299 3379 3332 3460 3411 3376 3440 3442 3436 3320 3393 3460 3403 3428 3342 3313 3291 3358 3353 3325 3416 3291 3404 3378 3331 3324 3327 3354 3250 3374 3319 3152 3270 3343 3359 3300 3198 3356 3282 3468 3235 3286 3184 3299 3171 3272 3237 3246 3359 3315 3299 3216 3279 3310 3276 3391 3168 3349 3259 3241 3353 3253 3189 3241 3211 3289 3226 3232 3245 3285 3197 3211 3298 3272 3166 3201 3248 3157 3271 3222 3092 3142 3239 3127 3118 3275 2995 3205 3184 3186 3161 3123 3183 3136 3193 3152 3115 3032 3095 3074 3170 3082 3047 3060 3163 3142 3164 3021 3078 3138 3070 3106 3149 3094 3032 3044 3184 3042 3093 3035 3059 3130 2978 3043 3000 3003 3041 2990 3019 3101 3089 3059 3150 2983 3079 3082 2988 2965 2948 3032 3009 3042 3049 3093 2957 2993 3015 3017 2984 2904 2964 3025 2985 2993 2933 3052 2974 2960 2901 2997 2994 3005 2962 2971 2885 2950 3054 2963 2927 2980 2935 2965 2941 2856 2898 2835 2921 2926 2968 2907 2984 2901 2956 2938 3032 2875 2919 2887 2907 2990 2941 3018 2969 3004 3105 3024 3007 3132 3108 3113 3099 3162 3204 3105 3000 3149 3168 3182 3148 3038 3038 3177 3099 3114 2894 2959 2884 3065 2978 2969 3017 3063 2923 2890 2847 2907 2849 2913 2963 2897 2922 2934 2860 2944 2851 2899 2857 2873 2960 2901 2827 2865 2899 2948 2794 2861 2847 2852 2940 2866 2774 2820 2864 2868 2848 2879 2849 2830 2765 2923 2913 2860 2869 2873 2830 2976 2832 2733 2850 2896 2799 2808 2789 2788 2865 2809 2794 2781 2805 2824 2971 2867 2797 2864 2869 2798 2812 2809 2878 2872 2751 2793 2833 2790 2893 2834 2892 2779 2867 2764 2797 2820 2854 2773 2788 2819 2857 2836 2905 2824 2806 2757 2785 2923 2835 2933 2797 2923 2798 2854 2844 2932 2839 2841 2924 2791 2874 2817 2856 2796 2878 2937 2823 2950 2850 2874 2942 2869 2899 2763 2859 2889 2918 2843 2942 2819 2932 2842 2969 2865 2866 2851 2848 2920 2900 2728 2739 2824 2838 2886 2894 2948 2876 2886 2809 3002 2844 2939 2807 2897 2879 2955 2757 2943 2875 2853 2860 2914 2781 2847 2807 2876 2764 2857 2787 2889 2813 2941 2910 2731 2825 2837 2821 2919 2890 2792 2840 2834 2826 2812 2896 2776 2930 2874 2920 2849 2726 2879 2868 2953 2750 2804 2924 2827 2906 2898 2846 2813 2798 2871 2833 2706 2854 2837 2744 2854 2741 2826 2866 2906 2844 2808 2798 2852 2787 2783 2782 2748 2816 2850 2740 2924 2853 2804 2779 2827 2753 2787 2775 2749 2794 2833 2843 2715 2746 2880 2742 2784 2877 2754 2752 2621 2784 2869 2735 2802 2762 2791 2657 2757 2694 2824 2645 2748 2738 2618 2784 2722 2750 2653 2674 2683 2761 2779 2607 2742 2546 2646 2754 2705 2680 2660 2705 2723 2725 2617 2736 2570 2708 2638 2718 2669 2691 2715 2674 2566 2638 2622 2657 2648 2700 2648 2660 2714 2669 2693 2579 2629 2642 2746 2597 2617 2591 2575 2651 2575 2622 2653 2725 2534 2649 2625 2596 2631 2647 2700 2645 2694 2654 2603 2666 2646 2627 2569 2713 2576 2595 2560 2597 2595 2600 2646 2625 2716 2667 2622 2601 2598 2661 2672 2644 2554 2560 2636 2672 2703 2609 2657 2709 2675 2759 2711 2777 2717 2757 2838 2845 2818 3021 2924 2944 3039 3120 3291 3397 3528 3699 3837 3940 3970 4081 4201 4190 4298 4261 4443 4423 4541 4462 4397 4563 4452 4351 4264 4135 3987 3987 3721 3639 3657 3439 3359 3342 3304 3188 3060 3119 3057 3122 2935 3007 3072 3085 3061 2926 2993 2886 2964 2756 2818 2822 2683 2685 2694 2663 2612 2630 2652 2608 2623 2665 2562 2553 2510 2578 2594 2448 2555 2520 2555 2545 2483 2461 2529 2510 2424 2676 2609 2550 2482 2511 2477 2532 2498 2454 2537 2464 2496 2459 2448 2437 2537 2583 2494 2557 2526 2454 2598 2539 2548 2585 2550 2609 2618 2509 2645 2512 2660 2601 2575 2580 2581 2632 2639 2760 2668 2752 2913 2973 3073 3117 3190 3262 3392 3574 3713 3953 4081 4267 4363 4471 4610 4859 5016 4992 5093 5106 5299 5267 5250 5209 5145 5170 5073 4952 4772 4628 4471 4421 4423 4351 4291 4200 4196 4033 4166 4248 4142 4299 4124 4407 4282 4137 4232 4044 4110 3926 3782 3661 3556 3485 3386 3207 3095 3214 3045 2899 2849 2775 2786 2780 2728 2753 2694 2741 2536 2687 2560 2686 2604 2614 2512 2479 2487 2431 2478 2454 2457 2486 2442 2403 2454 2432 2462 2399 2382 2384 2474 2360 2349 2434 2361 2348 2396 2317 2337 2429 2395 2393 2343 2411 2407 2401 2380 2474 2332 2354 2327 2393 2376 2487 2334 2386 2344 2272 2451 2410 2363 2411 2407 2346 2404 2403 2308 2392 2355 2294 2351 2415 2446 2308 2352 2316 2363 2330 2332 2359 2362 2382 2280 2337 2318 2299 2368 2449 2348 2284 2252 2404 2397 2338 2351 2321 2290 2313 2292 2402 2322 2389 2335 2301 2367 2320 2334 2386 2272 2250 2406 2317 2309 2306 2299 2363 2323 2339 2296 2273 2307 2274 2283 2242 2226 2278 2256 2336 2338 2298 2326 2320 2267 2356 2297 2298 2355 2365 2234 2270 2296 2267 2290 2349 2304 2280 2286 2303 2363 2247 2235 2359 2331 2233 2252 2244 2346 2263 2401 2312 2261 2269 2260 2339 2277 2284 2302 2267 2301 2268 2237 2291 2347 2309 2267 2169 2275 2310 2290 2289 2208 2381 2241 2325 2393 2283 2295 2330 2286 2244 2229 2331 2228 2184 2370 2226 2389 2301 2345 2307 2357 2320 2331 2214 2250 2196 2300 2277 2319 2304 2343 2343 2317 2319 2327 2262 2316 2320 2354 2224 2268 2297 2281 2328 2307 2321 2280 2240 2274 2221 2308 2310 2320 2278 2252 2369 2320 2270 2356 2324 2361 2402 2243 2273 2211 2325 2250 2220 2343 2285 2338 2304 2248 2299 2333 2281 2391 2347 2269 2256 2239 2236 2337 2256 2241 2294 2328 2273 2339 2294 2262 2301 2182 2306 2178 2272 2258 2219 2334 2422 2321 2331 2293 2288 2204 2325 2318 2327 2367 2367 2301 2259 2309 2299 2259 2270 2310 2272 2354 2259 2332 2294 2256 2426 2268 2409 2358 2360 2343 2346 2280 2229 2321 2373 2333 2268 2334 2342 2318 2292 2289 2298 2287 2354 2289 2308 2369 2319 2233 2181 2234 2266 2305 2436 2287 2261 2330 2331 2282 2292 2293 2363 2340 2423 2496 2382 2388 2316 2324 2424 2416 2398 2525 2476 2437 2344 2453 2470 2469 2575 2471 2557 2540 2525 2552 2589 2625 2692 2762 2778 2828 2926 2804 3112 3126 3395 3309 3601 3818 3943 4197 4617 5003 5265 5676 6232 6834 7266 7670 8055 8282 8484 8750 8922 9204 9529 9571 9615 9908 9957 9665 9509 9437 8491 8384 7757 7688 7110 6759 6681 6373 6164 5937 5735 5517 5433 5326 5318 5214 5264 5173 5099 5181 5020 4812 4786 4672 4665 4373 4389 4256 3930 3902 3593 3607 3441 3444 3126 3181 3008 2920 2916 2808 2876 2714 2752 2622 2664 2602 2659 2590 2498 2558 2456 2409 2574 2395 2441 2465 2415 2385 2387 2430 2375 2343 2296 2351 2294 2404 2289 2291 2286 2303 2238 2293 2224 2235 2301 2242 2342 2248 2334 2258 2256 2212 2258 2367 2300 2292 2291 2346 2211 2283 2231 2243 2302 2232 2236 2210 2260 2341 2287 2262 2328 2225 2183 2219 2174 2295 2295 2275 2181 2253 2272 2267 2259 2228 2240 2273 2268 2278 2156 2235 2273 2226 2208 2224 2257 2260 2277 2272 2307 2268 2234 2258 2206 2188 2170 2259 2229 2294 2218 2235 2182 2153 2259 2239 2157 2287 2138 2242 2326 2308 2246 2260 2227 2199 2177 2255 2171 2213 2224 2178 2267 2214 2204 2277 2269 2190 2275 2317 2211 2229 2331 2251 2242 2197 2180 2193 2245 2281 2229 2188 2250 2158 2178 2260 2354 2266 2171 2159 2272 2206 2195 2228 2161 2184 2114 2312 2280 2183 2282 2195 2189 2203 2193 2169 2251 2249 2188 2226 2162 2196 2209 2262 2166 2231 2220 2201 2060 2192 2320 2208 2229 2258 2206 2076 2192 2226 2136 2294 2136 2262 2195 2176 2224 2248 2214 2132 2143 2154 2144 2179 2164 2169 2197 2162 2166 2210 2251 2251 2226 2206 2180 2102 2225 2143 2276 2232 2172 2204 2227 2122 2201 2161 2156 2211 2135 2176 2170 2187 2269 2193 2158 2126 2192 2247 2155 2174 2197 2177 2248 2215 2198 2110 2143 2218 2165 2183 2293 2197 2180 2194 2159 2158 2198 2195 2192 2175 2224 2137 2153 2149 2261 2200 2248 2236 2069 2155 2170 2228 2219 2172 2163 2214 2206 2165 2079 2161 2192 2191 2149 2112 2149 2226 2214 2153 2255 2172 2189 2225 2092 2116 2153 2209 2137 2192 2180 2093 2198 2258 2207 2175 2109 2145 2245 2181 2076 2120 2198 2083 2084 2113 2132 2103 2139 2136 2178 2124 2223 2224 2138 2164 2123 2115 2200 2154 2098 2147 2137 2165 2138 2269 2219 2118 2157 2171 2095 2109 2196 2125 2150 2083 2156 2070 2149 2183 2217 2081 2179 2077 2144 2124 2113 2153 2140 2118 2150 2134 2092 2124 2124 2104 2136 2092 2148 2207 2156 2197 2163 2133 2157 2142 2124 2203 2131 2051 2160 2220 2229 2181 2160 2156 2170 2185 2186 2136 2137 2189 2205 2193 2084 2134 2163 2114 2129 2162 2188 2119 2190 2132 2081 2119 2058 2147 2181 2149 2146 2142 2121 2156 2098 2172 2194 2167 2180 2152 2140 2102 2135 2076 2158 2097 2090 2179 2165 2183 2059 2183 2133 2136 2120 2231 2117 2187 2097 2066 2065 2176 2196 2081 2211 2177 2207 2186 2073 2118 2229 2074 2142 2080 2160 2090 2105 2089 2131 2064 2242 2118 2227 2132 2165 2152 2194 2153 2139 1962 2149 2107 2178 2007 2131 2176 2088 2072 2175 2158 2194 2163 2154 2159 2145 2094 2053 2143 2158 2130 2190 2181 2087 2123 2164 2195 2189 2125 2084 2093 2115 2139 2106 2177 2166 2106 2147 2201 2069 2134 2109 2046 2240 2132 2226 2080 2109 2121 2083 2205 2116 2160 2165 2150 2187 2115 2196 2147 2232 2118 2179 2160 2181 2196 2129 2131 2095 2216 2174 2111 2153 2145 2235 2144 2121 2077 2159 2124 2043 2150 2093 2193 2154 2155 2157 2127 2114 2199 2141 2166 2149 2096 2127 2105 2161 2152 2117 2143 2164 2135 2105 2198 2165 2090 2168 2208 2183 2146 2160 2221 2197 2159 2198 2165 2155 2092 2176 2216 2164 2124 2126 2127 2143 2113 2129 2147 2170 2141 2139 2167 2093 2131 2178 2102 2086 2119 2146 2161 2048 2161 2051 2166 2147 2101 2141 2163 2200 2145 2179 2094 2141 2108 2094 2132 2162 2214 2188 2194 2115 2113 2048 2094 2168 2132 2123 2120 2051 2156 2070 2127 2131 2110 2100 2055 2172 2154 2009 2182 2165 2156 2140 2051 2182 2160 2169 2128 2124 2134 2195 2143 2081 2216 2113 2214 2125 2125 2017 2102 2110 2110 2184 2079 2169 2069 2220 2104 2121 2204 2223 2201 2058 2150 2003 2114 2084 2119 2175 2076 2055 2169 2079 2152 2201 2172 2146 2247 2238 2201 2163 2271 2211 2293 2267 2229 2086 2203 2200 2244 2234 2238 2305 2180 2274 2199 2257 2102 2196 2170 2280 2208 2242 2150 2176 2198 2170 2129 2193 2091 2150 2205 2190 2194 2213 2112 2110 2067 2140 2183 2085 2109 2092 2128 2193 2073 2126 2042 2168 2157 2076 2253 2169 2152 2090 2154 2074 2193 2177 2126 2134 2125 2149 2127 2116 2113 2116 2106 2125 2154 2114 2106 2115 2136 2175 2072 2021 2138 2188 2087 2151 2079 2156 2184 2215 2137 2178 2194 2158 2211 2183 2111 2168 2122 2116 2139 2170 2060 2077 2145 2108 2064 2165 2078 2153 2123 2101 2142 2213 2034 2115 2179 2122 2073 2091 2146 2163 2054 2064 2081 2161 2174 2124 2141 2109 2104 2113 2187 2170 2135 2076 2079 2103 2181 2037 2130 2160 2005 2107 2061 2094 2151 2123 2080 2107 2120 2140 2112 2231 2136 2206 2130 2208 2128 2022 2180 2069 2069 2137 2061 2166 2209 2171 2075 2220 2094 2137 2126 2148 2091 2117 2152 2185 2136 2091 2121 2176 2207 2101 2236 2154 2226 2082 2141 2202 2140 2067 2102 2019 2131 2147 2222 2097 2194 2149 2107 2146 2167 2167 2105 2179 2075 2060 2086 2154 2084 2162 2144 2186 2087 2098 2065 2129 2093 2076 2198 2152 2147 2142 2162 2167 2115 2123 2252 2169 2212 2190 2160 2217 2121 2281 2092 2200 2225 2151 2224 2311 2276 2264 2257 2335 2420 2575 2494 2534 2655 2692 2876 2891 2987 3087 3078 3180 3168 3300 3278 3213 3358 3504 3439 3482 3486 3519 3574 3444 3293 3221 3144 3079 3008 2919 2992 2926 2894 2780 2784 2647 2756 2503 2463 2489 2404 2486 2525 2441 2387 2421 2226 2333 2348 2313 2266 2302 2299 2259 2231 2228 2264 2142 2189 2177 2199 2105 2171 2183 2165 2142 2136 2192 2116 2120 2193 2209 2153 2170 2163 2194 2091 2103 2137 2134 2118 2170 2125 2088 2167 2076 2103 2062 2130 2095 2178 2111 2111 2107 2163 2159 2149 2102 2093 2085 2185 2156 2153 2170 2190 2105 2099 2062 2083 2091 2172 2006 2166 2247 2105 2095 2139 2100 2059 2042 2149 2100 2215 2101 2123 2128 2108 2131 2135 2111 2139 2123 2077 2076 2118 2139 2147 2077 2114 2129 2174 2134 2060 2186 2139 2045 2168 2083 2155 2110 2125 2137 2115 2100 2064 2121 2116 2042 2077 2104 2166 2046 2123 2141 2124 2117 2073 2118 2148 2161 2029 2083 2125 2045 2067 2165 2105 2114 2054 2219 2070 2113 2101 2075 2079 2108 2169 2135 2051 2146 2092 2145 2197 2195 2131 2083 2093 2167 2123 2103 2073 2066 2254 2160 2120 2104 2137 2082 2098 2136 2059 2066 2027 2077 2069 2121 2077 2172 2085 2133 2112 2089 2170 2084 2162 2060 2119 2094 2037 2085 2124 2056 2106 2181 2131 2137 2175 2104 2136 2126 2111 2124 2065 2143 2115 2092 2056 2136 2086 2116 2123 2097 2156 2138 2064 2138 2192 2136 2194 2105 2115 2082 2137 2091 2097 2080 2092 2129 2101 2094 2177 2177 2146 2155 2103 2088 2077 2130 2108 2132 2267 2117 2145 2124 2110 2144 2134 2132 2147 2129 2201 2145 2098 2129 2123 2163 1991 2165 2086 2141 2154 2160 2087 2119 2096 2200 2164 2058 2100 2098 2058 2208 2147 2161 2155 2126 2115 2119 2049 2220 2155 2211 2111 2099 2099 2200 2112 2157 2188 2174 2190 2174 2135 2077 2119 2114 2185 2118 2101 2138 2122 2123 2138 2116 2209 2124 2183 2103 2157 2190 2071 2142 2139 2186 2153 2229 2172 2159 2180 2188 2231 2243 2140 2284 2162 2149 2276 2208 2156 2177 2134 2241 2215 2280 2201 2266 2242 2274 2341 2339 2298 2405 2262 2341 2482 2532 2509 2518 2594 2576 2698 2712 2835 2816 3110 3172 3404 3558 3913 4153 4562 4887 5176 5375 5628 6122 6126 6298 6424 6661 6773 7012 7357 7380 7653 7648 7553 7283 6883 6483 6180 5934 5732 5601 5444 5374 5092 5185 5052 4882 4672 4418 4171 4116 3746 3760 3615 3632 3426 3282 3284 3233 3184 3153 3165 3267 3232 3237 3065 3051 3047 2953 2971 2972 2967 2940 2961 2892 2901 2860 2791 2712 2672 2705 2592 2559 2574 2531 2577 2481 2439 2476 2373 2407 2372 2360 2271 2288 2237 2276 2292 2256 2223 2238 2182 2179 2265 2218 2143 2140 2186 2142 2189 2225 2230 2103 2203 2052 2108 2130 2142 2149 2058 2132 2111 2089 2123 2204 2100 2169 2094 2044 2158 2118 2161 2154 2124 2119 2143 2099 2152 2036 2089 2110 2164 2120 2149 2123 2061 2173 2089 2072 2035 2171 2085 2109 1996 2128 2127 2141 2131 2045 2156 2024 2081 2173 2118 2153 2108 2131 2204 2116 2161 2104 2116 2098 2124 2107 2096 2148 2107 2110 2103 2154 2020 2051 2018 2085 2140 2173 2063 2226 2088 2152 2118 2122 2138 2145 2159 2052 1988 2089 2036 2085 2126 2112 2132 2043 2103 2187 2137 2106 2125 2103 2052 2134 2057 2158 2118 2077 2110 2029 2059 2131 2050 2070 2102 2053 2068 2169 2182 2167 2166 2170 2123 2169 2121 2145 2123 2138 2218 2107 2161 2200 2157 2211 2219 2316 2316 2436 2375 2338 2374 2375 2405 2424 2393 2432 2456 2478 2477 2360 2347 2331 2378 2381 2284 2310 2268 2268 2280 2313 2288 2316 2279 2273 2217 2161 2206 2231 2102 2196 2206 2093 2178 2022 2085 2145 2185 2059 2125 2113 2124 2088 2100 2077 2018 2139 2145 2059 2166 2129 1996 2112 2020 2056 2136 2074 2080 2076 2158 1998 2154 2112 2062 2191 2109 2096 2020 2057 2036 2007 2065 2023 2028 2080 2054 2104 2117 2081 2104 2098 2156 2100 2161 2115 2074 2124 2048 2079 1999 2158 2088 2121 2039 2063 2143 2056 1970 2058 2073 2002 2025 2015 2060 2016 2051 2038 2093 2009 2042 2122 2059 2066 2101 2044 2130 2097 2118 2057 2112 2107 1983 2109 2078 2065 1961 2137 2023 2110 2004 2069 2063 2060 2146 1997 2055 2061 2053 2108 2089 2000 1997 2061 2083 2038 2001 2049 2154 2103 2132 2051 2156 2106 2022 2062 1999 2010 2047 2121 2085 2085 2073 2064 2021 2064 2000 2045 2059 2065 2034 2110 2015 2032 2092 2060 2090 2031 1961 1970 2057 2021 2087 2069 2071 2102 2022 2081 2002 2026 2004 2032 2023 1965 2131 2044 2097 2047 2067 2044 1963 2054 1996 2119 2038 2070 2050 2128 2022 2134 2054 2171 2080 2026 2043 2063 2041 2019 2035 2045 2010 2053 2084 1992 2039 1931 1987 2047 2024 2051 2046 2003 2072 2139 2025 2098 2004 2132 2061 2022 2027 2048 2033 1931 2041 2104 2055 2070 2039 2104 2012 2039 2010 1997 2027 2069 2062 2103 1991 2082 2018 2027 2079 1964 2011 2077 2039 2091 2025 2044 1966 2054 2030 2079 2017 2062 2042 1961 2019 2153 2024 2008 2060 1932 2069 2064 2050 2063 2043 1974 2037 2038 2035 1932 2018 2026 2133 2127 2025 2103 2071 2003 1987 2060 2014 2024 2048 2030 2085 2077 2097 2106 1954 2017 2047 2011 2091 2048 2070 2088 2026 2063 2039 2048 2027 2182 1966 2032 1970 2056 2110 2011 2062 2115 2051 2070 1998 2039 2006 2022 2089 2012 1991 1974 2042 2076 2060 2055 2043 2049 2069 2083 2006 2023 2090 2019 2185 2000 2078 2077 2066 2102 2068 2191 2099 2137 2020 2123 2010 2096 1946 1955 2131 2039 2048 2055 2049 2000 2106 1999 2103 2068 2108 2077 1998 2082 2047 2033 2063 2095 1998 2069 1939 2035 2056 2070 2043 1977 1957 2037 2052 2067 1978 2059 2059 2055 2015 1948 2019 2043 2059 1977 2039 2072 2036 1932 2016 1948 1914 2081 1998 2154 2006 2125 2100 2058 2003 1997 2003 2042 1947 2069 1995 2085 2029 1994 1958 1983 1967 2006 2033 2062 2038 2053 2106 2122 2040 2036 1995 2073 2043 2094 2077 2035 1988 1988 1952 2002 2060 2032 2024 2009 2078 2005 2077 2045 2077 2056 2102 1964 2003 2049 2039 2090 2038 1938 1999 2125 2044 1919 2018 2061 2000 2019 2093 1973 2061 2084 1989 2044 2120 2028 2002 2075 2096 2024 2071 1971 2001 2007 1974 2100 2113 2080 2108 2059 2097 2046 1999 2058 2009 2004 2070 2003 2151 2078 2033 2040 1980 2011 2045 1995 2063 2129 1982 2007 2111 2090 2081 2004 2071 2101 1998 2011 2089 2074 2113 2032 2121 2102 2067 1991 2063 2028 2097 2007 2131 2086 2081 2001 2030 2024 2056 2096 2031 2046 2078 2099 2092 2066 2045 2135 2073 2216 2137 2263 2165 2265 2254 2243 2269 2274 2272 2221 2288 2123 2242 2256 2170 2113 2236 2187 2182 2263 2132 2169 2118 2160 2108 2104 2166 2093 2157 2165 2052 2029 2171 2178 2062 2077 2015 1968 2121 2045 2078 2053 2126 2018 2114 2010 2136 2134 2050 2097 1988 2216 2165 2155 2048 2176 2183 2216 2119 2143 2156 2167 2232 2212 2331 2317 2276 2447 2401 2415 2461 2441 2419 2518 2539 2578 2579 2663 2588 2510 2564 2701 2507 2569 2573 2452 2508 2381 2345 2415 2425 2359 2477 2340 2363 2345 2362 2397 2267 2256 2195 2291 2321 2260 2235 2234 2183 2161 2170 2160 2230 2260 2150 2184 2250 2218 2203 2279 2296 2310 2350 2279 2377 2310 2269 2425 2401 2414 2358 2394 2323 2361 2337 2357 2340 2342 2275 2211 2245 2330 2263 2207 2213 2154 2215 2184 2201 2166 2143 2079 2182 2232 2078 2045 2150 2029 2015 2076 2066 2079 2099 2028 2136 2136 2039 1984 2109 2073 2081 2077 2058 2042 2046 1997 2083 1987 2041 2078 1993 2094 1999 2038 2029 2089 1990 2001 2025 2024 2035 1991 1967 2027 2007 2023 1989 2021 2005 2004 2040 2018 1941 2079 2014 2040 1982 2049 1985 2003 2224 2041 2039 2007 2039 2004 2010 2006 1948 2025 2012 2115 2111 2030 1937 1931 2020 2087 1943 2062 2039 2032 2023 2073 1969 2083 2053 2111 1974 2011 1978 1954 2049 2068 2043 1990 1960 2009 2031 2011 1945 1983 1993 2148 2095 2052 1994 2056 1976 2047 1993 1994 2087 2021 1944 2136 1976 2028 2034 1938 2129 1980 2088 1968 2094 2012 2045 2042 1948 2025 1959 2016 2027 2038 2042 2036 2084 2011 2055 2066 2042 2043 2091 2002 2016 2034 2022 2124 2067 1992 2137 2102 2016 2065 2080 2032 2106 2057 1992 2092 2117 2063 2037 2045 2053 2103 2122 2098 1928 2081 2099 2142 2138 2029 2135 2175 2206 2202 2131 2219 2195 2267 2409 2444 2547 2534 2726 2719 2566 2802 2904 2902 2887 3015 2980 3111 3040 3215 2957 3024 2991 2968 2884 2796 2793 2715 2858 2805 2731 2707 2701 2745 2735 2747 2646 2617 2585 2505 2498 2501 2332 2365 2261 2243 2242 2253 2214 2272 2177 2229 2160 2164 2282 2247 2181 2142 2191 2228 2155 2193 2146 2269 2101 2141 2257 2266 2203 2178 2194 2298 2235 2198 2173 2248 2209 2241 2186 2187 2225 2182 2069 2177 2180 2122 2082 2106 2127 2178 2058 2110 2116 2059 2083 2094 2036 2055 2062 2074 2042 2137 2082 2001 2021 2011 1956 1938 2095 2074 2000 2047 2030 2045 2058 2007 2002 2001 2077 1992 1934 2022 2001 1998 2032 2031 1989 1954 1990 1946 1959 2019 2011 1959 2055 1936 2043 2002 2045 1966 2028 1989 2020 1977 1950 2049 2090 2011 2060 1941 2097 2022 1997 2014 1990 1985 2136 2017 1946 2058 2001 1976 1982 2040 2034 1987 2031 2045 1976 2039 1936 1994 1968 1993 2029 2037 2035 2032 2024 2041 2001 2040 2010 2119 2015 2023 2017 2063 2036 2074 2043 2005 1941 2091 2054 2063 2078 2084 2078 2123 2029 2091 2102 2114 2177 2159 2239 2156 2181 2212 2248 2224 2301 2226 2250 2254 2258 2168 2266 2264 2286 2197 2164 2168 2326 2152 2142 2205 2237 2098 2142 2177 2139 2145 2151 2215 2056 2141 2069 2060 2058 2135 2099 2059 2068 2072 2042 2033 1972 2029 1997 1999 2067 2068 2010 1980 1880 2057 2000 2008 2081 2074 2006 2011 2066 2119 2023 1951 1995 2005 1988 1974 1999 1989 1986 1994 1984 1949 1957 1967 2066 1950 2029 2026 2031 1946 1978 1963 2046 2004 2020 2049 1990 1947 2017 2021 1955 2024 2039 1900 2096 1972 2040 1983 2093 1970 1947 1958 1972 2013 1922 2046 1984 2017 1984 1988 1961 1990 2005 1981 2039 1968 1967 1931 2099 1966 1940 1955 2017 1977 1963 1967 1985 2004 2001 1949 1955 2004 2018 2036 1996 1942 2031 2016 2126 1929 1973 1915 2071 2078 2000 1938 1988 2064 1943 1963 2067 1991 1968 2059 1955 2043 2021 2011 1992 1987 1973 1902 2032 1993 1970 2018 1995 2037 2025 1943 1929 1989 1942 2028 1955 2066 2048 1993 2020 2107 1953 1936 1959 1958 1993 1984 2145 1951 2001 1995 1904 1992 2053 1933 1971 1971 1929 2034 1988 2133 2038 1981 2016 1967 1973 1903 1948 1992 1981 2016 1933 2074 1935 1923 1961 2064 2038 1980 2028 1954 1992 2111 1986 1941 1981 1999 1902 1927 1957 1996 2008 1959 1995 2012 1977 2031 2104 2017 1962 2054 1986 1980 2022 1992 2005 1977 2014 1979 2029 2001 1983 1971 1950 1953 1899 2024 2018 2000 1966 1937 2038 2021 2005 1945 1946 2033 2028 2019 2001 2037 1965 1939 2044 1984 1994 2003 1907 1993 1978 1894 1983 2001 1970 1996 1993 1907 2057 1923 1969 2038 2008 1962 2053 2048 1989 1997 2000 1973 1943 1946 2028 1984 2044 1972 2004 2046 2023 1951 2010 1991 2043 1972 1993 2072 1961 2039 1995 2082 2049 2005 2080 2006 2012 2046 2043 2085 2083 2049 1984 1999 2014 1978 1936 1980 2104 2042 2038 2046 1970 2053 1958 2014 2046 2040 2083 2045 2010 1981 2005 2007 2045 1986 2054 2000 2003 2014 1999 2067 1999 1966 2063 2035 2031 2058 1950 1977 1966 1971 2006 1991 1978 1916 1937 1981 2023 1980 1988 1900 1961 1909 2009 1911 2039 1980 2006 2108 1982 1984 1986 1991 2080 1975 1997 2013 1959 2008 2014 1922 1941 2015 1992 2004 1973 1943 1961 1940 1976 1958 1958 2007 1920 1940 2028 1990 1947 1943 1957 1920 1942 1956 1943 1917 1876 2036 1953 2002 1963 2010 2030 1959 2007 1927 1962 1956 2039 1990 2045 2003 1985 1993 1992 1983 1871 2037 1933 1964 1971 1966 1904 2027 1976 1976 1997 1961 1978 1871 1952 2049 1972 1931 2058 2018 2072 2053 1971 1953 1972 2054 1968 1911 1964 2020 1905 1981 1961 2019 2047 1929 1960 1951 2035 2038 2009 1966 2016 2070 1999 1979 1972 2013 2080 1981 2021 1962 2005 2034 2033 1977 2075 2075 2005 2035 2139 2069 2188 2129 2104 2153 2215 2305 2251 2284 2291 2199 2198 2310 2215 2227 2164 2210 2181 2068 2153 2157 2135 2072 2261 2116 2069 2147 2132 2204 2150 2069 2129 2120 2048 2198 2126 1995 2168 2040 2038 1946 2010 2058 2124 2104 2072 2049 1982 2050 2057 2059 1925 2125 1975 2068 2034 2099 2026 1959 1948 2001 1949 1933 2041 1974 1959 1974 2038 1938 2007 1995 1957 2016 2010 2023 1974 1966 1967 1937 1964 1980 1994 2041 1922 1983 2024 2047 1982 1899 1904 2014 1951 1993 1981 2036 2020 2036 2098 2010 2009 2061 1992 1944 1971 1951 1935 1935 1989 1992 2000 2039 1996 1880 2025 1964 1938 1991 1926 1976 2027 1990 1951 1965 2020 2008 2021 1982 1995 1934 1984 2027 2018 1934 1979 1984 1979 1909 1958 1897 2056 2007 1957 1965 1974 1998 2047 2024 1933 1934 1986 2010 2004 2042 1973 2041 1902 1964 2005 1999 1940 2009 1912 1996 1965 1966 1996 2027 1960 2047 2057 2074 1924 1927 1948 1980 2036 1948 1944 1903 2029 1974 1987 1978 2068 1995 2031 1947 2011 1985 1992 2044 1957 2000 1911 1952 1962 1951 1944 2010 1997 1913 2022 1964 1938 1977 2001 1911 1969 1964 2020 1996 1981 1956 2044 1987 2025 1973 2005 1933 2029 2025 1993 1969 2019 2008 1958 2008 1955 2005 1993 1967 2031 1940 1927 1977 2042 1936 2020 1957 1972 2051 2021 2016 1996 2024 2072 1978 1932 1961 1908 2002 2028 1845 2060 1927 2013 1941 2048 2000 1988 1957 1956 1942 1987 1904 2036 2043 2076 2041 2019 2016 2072 2004 2023 2028 2036 2008 2054 2063 2056 2017 2084 2055 1934 2002 1963 1994 2100 2094 1993 2092 1972 1970 1968 2046 2006 2160 2045 2058 2065 2139 2131 2182 2235 2219 2280 2301 2349 2371 2349 2475 2341 2431 2459 2409 2486 2434 2522 2458 2467 2417 2474 2434 2462 2419 2467 2418 2422 2447 2235 2466 2275 2458 2264 2349 2330 2345 2297 2263 2299 2210 2248 2292 2201 2113 2107 2109 2149 2153 2127 2025 2069 2039 2010 2104 2066 1961 2140 2134 2031 2122 2009 2039 2101 2122 1968 2118 2030 1982 2054 2083 1988 2057 2030 2056 2065 2085 2069 2068 2066 2053 2084 2057 2062 2163 2052 2109 2029 2125 2034 2035 2051 2037 2050 2096 2053 2033 1948 2062 1971 2077 1988 2053 2028 2002 2026 2052 1965 2043 2034 2010 1974 1975 2106 1984 1988 1993 2016 1947 2045 2000 2003 1930 1994 2022 2030 1917 1950 2004 1995 1985 1946 1982 1997 2056 1962 1945 2025 1975 1968 2068 1887 2008 1987 2021 1937 1929 1963 2068 2058 1983 1934 2063 1947 1994 1977 1999 2013 1991 2001 2016 2012 2000 2026 1993 1990 1998 2116 2024 1986 1961 2016 2007 1970 2037 2025 1905 2051 2050 1910 1968 1931 2012 1888 2023 1978 1957 1956 2044 1956 1952 1958 1976 1939 1962 2005 1945 1952 1913 1981 1949 1970 2109 1983 2044 1943 2011 2009 1977 1927 2014 1998 2000 2028 1988 2015 1979 2010 1997 1991 1992 2014 2023 1941 2002 1936 1980 1958 1944 1959 1974 1999 2001 1952 2040 2007 2043 2007 2015 1990 1997 1958 1948 2027 1989 1991 1959 1977 1988 1959 1913 1990 1965 2022 1978 1993 1993 1849 1984 1922 1988 1991 1958 1989 1951 1929 1982 1885 1954 1956 1994 1932 2044 2026 2099 2068 2009 1969 1988 1995 1928 1953 1982 2027 2040 1983 1982 2040 1985 2043 1972 1982 1969 2058 1958 1956 1933 2022 1961 2052 2013 1913 1994 2002 2012 2011 1978 1936 1958 1929 1888 2063 2024 1936 2013 1965 1996 1936 1968 2050 1960 2015 2063 1970 1969 1988 1978 1972 1950 2002 1987 2000 1954 2005 2036 1961 2012 2041 1974 2020 1950 2005 1948 2019 2003 1951 1945 1891 2035 1963 1947 2006 2007 2051 2032 1917 2046 1917 1971 1939 1956 1914 1927 1965 1997 1981 2025 1978 2007 1984 1982 1956 1987 1990 2029 1906 2016 1968 2006 1983 1947 2031 1935 1981 1923 2009 1992 1991 1965 2050 1976 2020 1926 1889 1905 1993 2013 1968 2004 1977 1998 2023 2011 1972 1951 1959 1900 1988 1921 1970 1973 2004 1924 1912 1966 2022 1982 1985 2002 2078 1972 1917 1985 2040 2035 2021 1938 1971 1939 1987 1955 1977 1984 1950 1956 1973 1945 1983 2012 1983 1985 1965 1975 2082 1919 1996 1998 1994 1965 2040 2001 1985 1962 1976 1909 1984 1924 2070 2015 1927 2003 1960 1983 1999 1978 2038 1966 1986 2010 1934 1912 2043 1992 2017 2015 2075 1994 1966 2006 1956 1943 2037 1971 1918 2010 2044 1932 1957 1965 2007 1933 1897 1991 1982 2068 2007 2017 1878 2052 2051 1954 1975 1893 2038 1982 2026 1960 1968 2000 2013 2028 1991 2091 1912 1967 2006 2026 1988 2103 1991 1959 2010 2034 1983 2034 2049 1958 1954 2004 1976 2004 1996 2057 1993 1968 2025 2051 2024 1959 1998 1963 1998 1985 2007 2021 2037 2024 1900 2018 1933 1924 1909 2021 1931 1955 1930 1892 2041 2079 1998 1999 1942 1969 1989 1916 1941 1998 1995 2041 2040 1929 2060 2019 1958 1963 2032 1887 1956 1977 1914 1947 1946 1994 1921 2030 2054 1947 1973 2025 2030 1991 2049 1918 1909 1931 1994 2014 1964 1990 2037 1969 1933 1956 1946 1999 1987 2103 2076 1981 1978 2016 2048 1961 2006 2036 2027 1973 2009 2038 1977 2019 1961 2011 2000 2081 2022 2032 1933 2008 1992 1885 1992 1971 2038 1961 2057 2006 1969 1927 1995 2022 1983 2011 1974 2020 2056 2031 2049 1919 1941 2017 2007 2007 2012 2051 2056 1991 1990 1989 2017 2098 2023 2092 2127 2042 2069 2126 2110 2077 2146 2122 2162 2182 2156 2135 2140 2182 2123 2198 2096 2231 2148 2021 2134 2140 2135 2162 2093 2169 1988 2129 2103 2060 2065 2174 2153 2128 2127 2105 2136 2064 2005 2036 2117 2102 2058 2052 2027 1985 1992 2040 2102 2032 2132 2051 2065 2090 2030 1991 2075 2084 2084 2145 2063 2091 2133 2081 2169 2153 2133 2130 2109 2112 2178 2128 2094 2114 2098 2177 2109 2101 2092 2085 2079 2044 2150 2085 2142 2118 2104 2099 2089 2084 2005 2104 2120 2094 2102 2119 2087 2016 2060 1954 2051 2014 2052 2083 2068 2058 2053 1966 2002 2050 2084 2019 2021 1998 1991 1987 1992 1993 2024 2016 2051 2015 2081 2023 2013 2000 2109 2068 2021 2036 2066 2029 2093 2098 2087 2031 2090 2005 2132 2027 2099 2115 2055 2178 2159 2174 2151 2138 2136 2012 1995 2064 2066 2121 2098 2053 2047 2072 2016 2106 2061 2102 2067 2021 2042 2070 2097 2000 2172 1992 2037 2065 2050 2049 2006 1943 2083 2006 1962 2099 1961 2052 1960 2043 1933 1945 2046 1971 2046 1965 2015 2052 1964 2002 2064 1995 2087 2082 1971 1962 2024 1965 2052 1910 2033 2072 2000 1977 1991 2105 2141 1949 1941 2026 2028 1975 1937 1999 1987 1979 1953 1987 2019 2009 1991 2018 2019 1914 1972 1989 2011 1999 2028 1994 2019 2063 2023 1980 2070 2001 2061 2055 2018 2028 1957 1954 2029 2073 1969 2032 1946 2125 1982 2019 1938 2031 2032 2010 1948 1954 2034 2017 1972 2061 2004 1985 2043 2040 2065 2085 2084 2075 2124 2087 2060 2103 2062 2189 2125 2087 2077 2110 2114 2109 2145 2111 2129 2190 2262 2371 2328 2223 2389 2328 2473 2578 2568 2618 2683 2649 2769 2811 2814 2859 2816 2758 2834 2817 2806 2752 2753 2627 2647 2605 2539 2592 2662 2485 2584 2647 2524 2558 2593 2531 2563 2543 2606 2574 2515 2562 2485 2553 2497 2409 2306 2343 2297 2335 2385 2277 2199 2271 2202 2123 2159 2140 2154 2101 2104 2182 2170 2110 2128 2118 2134 2152 2133 2108 2136 2099 2112 2085 2015 2163 2082 2121 2059 2072 2022 2104 2074 2106 2078 2081 2131 2130 2155 2130 2116 2102 2114 2099 2081 2134 2133 2064 2081 2163 2159 2221 2237 2122 2176 2152 2060 2153 2074 2112 2051 2211 2141 2110 2073 2142 2093 2059 2148 2090 2154 2068 2066 2012 2143 2104 2080 2085 2079 2047 1943 2035 2033 2029 1971 1991 2060 2108 2042 1995 1981 2081 2048 1961 1987 2024 2011 2129 1960 2072 1989 1978 2005 2042 1994 1991 2036 2044 2014 2050 1992 2058 2032 2022 2030 2065 2032 2015 1975 1991 1959 2033 1908 2001 2041 2052 2002 2040 2084 2081 2000 1993 2094 2094 2105 2052 2023 2098 2036 2037 2127 2000 2093 2041 2093 2032 2102 2027 1984 2050 2043 2068 1990 2064 2050 2169 2065 2076 2085 2080 1990 2009 2094 2014 2118 1978 2015 2063 1944 2019 2008 2012 1969 2047 1984 2104 2020 1994 1940 1937 2030 2000 1979 2057 2005 2068 2080 2068 2047 1997 1979 1979 2032 1984 1980 1962 2082 2010 2071 1967 1991 2002 1889 1979 2001 2019 2086 2128 2023 1998 1987 2022 1993 2025 2007 2023 2055 2007 1963 2007 2010 2009 1934 1958 2031 2006 2008 1901 1996 1948 2003 1936 2011 2049 1965 2043 1952 1974 1973 2062 1968 1984 1964 2035 2013 1980 2002 1999 1971 1920 1953 1972 1965 2005 1967 1948 1993 1980 1956 2009 2018 1984 1990 1971 1968 2045 1957 1978 1973 1999 1959 2043 1946 1964 2002 1987 2037 1991 2032 1911 2049 1909 1974 2032 2055 1944 1988 1961 1997 1966 1963 2040 1894 2103 2007 1931 2020 1965 1939 1967 1938 2057 2015 1940 1935 1972 2089 1971 1976 2001 1989 1990 1999 2005 1994 1974 2045 2031 2058 1973 1983 2026 2015 1981 1963 1945 2091 1971 1998 1938 1964 2040 1938 2049 1997 1895 1974 1939 1983 1914 2073 1977 1999 2042 2016 1970 1955 2019 1952 2013 1904 2047 2032 2013 2011 1987 1940 1939 1875 1952 2054 1902 1993 1918 1990 2062 1909 2006 1938 2004 1907 2016 1948 1995 2010 1957 1988 1992 1974 1985 1966 2004 1983 1988 1980 1948 2110 2010 1944 1947 2010 2028 2033 2088 2018 1905 2001 2057 1992 2005 1939 2009 2040 1980 2021 2063 1961 1990 2008 2006 1924 2024 1944 1965 1979 2031 2009 1970 2012 1982 1992 1965 1994 1998 1984 1942 1936 2025 1949 1981 2003 2000 2038 2103 2005 1921 2004 2043 1993 2066 2063 1980 2023 1950 1997 2076 1908 2026 1965 2023 2053 2042 2066 1992 1981 1997 2048 2015 2037 2056 1923 1978 1967 1961 2009 2001 2012 1988 2049 2011 2015 2083 1922 2004 1967 1992 2049 2005 1962 2003 1982 1953 2009 1952 1960 1977 2096 1981 2041 1945 1993 2071 2011 2061 1998 1917 2071 1937 1998 2056 1988 1978 1920 1928 1975 2026 2013 2008 2007 1993 2037 2014 2025 1977 1985 2011 1902 2047 1976 1942 2053 2081 1979 2004 1995 2053 1985 1976 1939 2011 2080 2077 2074 2009 1990 1989 1954 2063 1973 2028 2043 2080 1996 1968 1995 2002 1991 1989 2010 2111 1999 1942 1865 2080 2006 2049 2067 2075 2021 1969 1894 2057 2033 2008 2024 2081 1932 1988 2022 1992 1947 1978 1994 2083 1983 1961 2079 2019 1951 2031 2015 2034 2056 2080 1992 2011 1911 1989 2089 2058 2027 2071 2044 2064 2051 2055 2043 2123 2077 2059 2133 2191 2048 2104 2112 2091 2093 2084 2095 2184 2116 2239 2123 2140 2140 2096 2057 2147 2050 2127 2060 2159 2149 2049 2019 2149 2136 2091 2045 2064 2115 2044 2032 2077 2057 2156 2078 2076 2011 2025 2012 2082 2094 2029 2141 1980 2059 1979 1966 1984 1945 2064 1989 2070 2102 2134 2107 2080 1985 2124 1978 1998 2070 1941 1975 1919 2065 1969 1965 1933 1992 1998 2009 1985 1869 2023 1975 2050 2009 1978 1952 1941 2065 1979 2086 2049 1982 2019 2049 2003 2000 2016 2000 1971 1975 2058 2001 2032 1990 2065 2040 1962 2062 1972 2055 1988 1996 1979 2028 2055 2084 1964 1980 1953 1980 2010 1918 1988 1936 2029 2011 2047 1917 1999 2044 1931 1951 1953 2000 2116 2038 2001 2061 1998 1994 2036 1966 1946 2048 2037 2032 1976 2012 2017 2013 2031 2008 1983 2043 1954 1960 1983 1986 1945 1974 2032 2032 2020 1974 2065 2038 2053 2043 2059 2063 2024 1910 2004 1967 1954 2105 1958 2010 1961 2047 1966 2057 1984 2013 1974 2001 1999 2052 2044 1982 1977 2014 2041 1993 2024 2010 2055 1989 1982 2009 2018 1994 2042 2027 2072 1987 1964 1997 1950 2080 2100 2040 1989 1999 2041 1973 2011 2033 2024 2083 2038 2032 2058 2023 2031 1944 2001 2043 2029 2013 1971 2018 1994 2029 2007 2044 2071 2001 1970 2026 1996 2029 2057 1956 2004 2056 1999 2088 2076 2097 2006 2066 2003 2060 2016 1996 2060 2060 2018 2090 2051 2059 2055 1985 2104 2026 2044 2120 2088 2082 1995 1972 2078 2134 2064 2036 2115 2087 2059 2127 2179 2159 2080 2117 2156 2267 2239 2264 2246 2272 2429 2457 2404 2517 2579 2677 2601 2636 2718 2791 2785 2785 2825 2768 2767 2729 2649 2681 2637 2597 2518 2481 2483 2475 2427 2545 2459 2433 2510 2503 2524 2542 2435 2449 2439 2509 2370 2412 2477 2566 2475 2488 2359 2324 2473 2415 2337 2380 2364 2338 2235 2283 2213 2273 2172 2122 2174 2208 2213 2129 2207 2098 2151 2184 2155 2043 2141 2085 1941 2071 2047 2076 2104 2038 2086 2070 2083 2072 2040 2126 2057 2024 2025 2111 2058 2091 2006 2027 1988 2077 2138 2033 2132 2108 2038 2125 2086 2068 2047 2066 2028 2059 2116 2140 2090 2138 2051 2112 2047 2105 2127 2068 2134 2100 2090 2155 2043 2070 2094 2115 2049 2241 2088 2072 1939 2144 2117 2080 2009 2086 2026 2091 2122 2099 2063 2061 2026 2097 2032 2049 2028 2113 1956 2051 1987 2051 2016 2087 2099 2009 2108 2093 2051 1988 2029 2040 2052 1990 2047 2078 2008 2084 2062 1973 2029 1989 1972 1970 2007 2003 2049 2071 2023 2080 2001 2064 2058 2074 2043 2051 2089 2046 2074 2039 1981 2036 2048 2080 2102 2080 2061 2045 2033 2088 1946 2036 2089 2089 2015 2088 2043 2008 1961 2059 2079 2026 2027 2043 2021 2019 2010 2072 1977 2029 1955 1972 2066 2016 1976 1991 2001 2009 2113 2020 1910 2102 2033 2049 2005 2002 1992 1957 2001 2036 1986 2009 2054 2025 2030 1922 1943 2008 1956 2077 1936 2043 2003 1947 1936 2055 1938 2019 2035 1954 1987 2076 2131 1941 2036 2032 2011 1984 2069 2014 1929 2043 2006 2034 2048 2010 1951 2039 2022 2011 2049 1947 1987 2037 1982 1998 1996 1915 2004 2018 2011 1980 2033 1999 2067 1990 2073 1967 1956 2032 2022 1956 2009 2033 2045 2017 1926 2080 1994 2016 1995 1989 1953 2013 1969 2036 2062 2012 1973 1994 2021 1964 1882 2028 2071 2034 1983 1989 1945 2052 1962 1998 1985 2027 2000 1972 2025 1982 1900 1960 1996 1936 1884 1980 2017 1986 2067 2093 2015 2000 2018 1951 2032 2012 2024 2026 2093 2031 1993 2080 2065 2079 1994 2021 2059 1960 2001 1993 2015 1991 1945 2000 1941 2038 2015 1955 2074 1940 1998 1993 1952 2025 2019 1993 1992 1956 1993 2030 2042 1948 2018 2032 2019 1955 1945 2034 2031 1978 1955 2064 1972 1935 2053 1990 1972 2067 2019 2025 1987 1977 2009 1983 1958 2006 2038 1984 2021 2026 1976 2006 1987 2006 2040 1989 2033 1953 1990 2057 1942 1958 2088 2061 2011 2007 2001 2020 2040 2052 1936 2012 1934 1936 1894 2088 1985 2035 2057 1892 2034 1939 2026 1972 2042 1959 1877 2063 1927 1999 1990 2033 2045 1947 1978 2028 2027 2012 2006 1938 1976 2059 1912 1998 1974 2045 1990 1971 2045 2031 1960 2133 2066 2144 2035 2003 2126 2005 2114 1849 1991 2071 2033 1953 1937 2052 1974 1916 1972 1938 2060 1956 1969 1968 2047 2053 2002 1998 2000 1960 2011 2012 2054 1992 1905 2051 2009 2036 2016 2040 2019 2046 2014 2041 1943 2038 2011 2040 2047 1902 2172 1985 2010 2010 2074 2045 2032 1953 2004 1947 1979 1961 1954 2044 2010 2016 1913 2083 2046 2005 1949 2079 2093 1980 2068 2004 2023 1990 2029 1981 1984 1926 2033 2069 1942 2084 1965 2017 2080 1983 1937 2003 2023 2019 2029 1987 1987 2052 1927 1945 1941 1986 2033 1958 2072 1979 2045 2126 2015 2020 2043 2004 2080 2010 2019 2009 2030 1944 2032 1986 1930 1932 1954 2029 1920 1994 1998 2019 2055 1983 1983 1971 1941 1960 1973 2070 2037 2012 2029 2041 2057</counts>
			</dataPoints>
		</scan>
	</xrdMeasurement>
</xrdMeasurements>
