<?xml version="1.0"?>
<xrdMeasurements xmlns="http://www.xrdml.com/XRDMeasurement/2.3" xmlns:xsi="http://www.w3.org/2001/XMLSchema-instance" xsi:schemaLocation="http://www.xrdml.com/XRDMeasurement/2.3 http://www.xrdml.com/XRDMeasurement/2.3/XRDMeasurement.xsd" status="Completed" recordIdentifier="{EEDF3804-231B-4AED-A06C-6370B4E3A7D3}">
	<comment>
		<entry/>
	</comment>
	<sample type="To be analyzed">
		<id>GPSS_Li1p5Mg0p8Mn0p45Cl4_112425_69248ac4f4e53d1f723993d5</id>
		<name></name>
		<preparedBy></preparedBy>
	</sample>
	<xrdMeasurement measurementType="Scan" status="Completed" sampleMode="Reflection">
		<usedWavelength intended="K-Alpha 1">
			<kAlpha1 unit="Angstrom">1.5405980</kAlpha1>
			<kAlpha2 unit="Angstrom">1.5444260</kAlpha2>
			<kBeta unit="Angstrom">1.3922500</kBeta>
			<ratioKAlpha2KAlpha1>0.5000</ratioKAlpha2KAlpha1>
		</usedWavelength>
		<incidentBeamPath>
			<radius unit="mm">145.00</radius>
			<xRayTube id="1010048" name="Empyrean Cu LFF HR (9430 033 7310x)">
				<tension unit="kV">40.0</tension>
				<current unit="mA">15.0</current>
				<anodeMaterial>Cu</anodeMaterial>
				<focus type="Line">
					<length unit="mm">12.0</length>
					<width unit="mm">0.4</width>
					<takeOffAngle unit="deg">6.0</takeOffAngle>
				</focus>
			</xRayTube>
			<sollerSlit id="21010002" name="Soller slits 0.04 rad.">
				<opening unit="rad">0.0400</opening>
			</sollerSlit>
			<mask id="22031000" name="Fixed mask 13 mm">
				<width unit="mm">9.00</width>
			</mask>
			<divergenceSlit id="22120001" name="Divergence slit 1°" xsi:type="fixedDivergenceSlitType">
				<distanceToSample unit="mm">50.00</distanceToSample>
				<height unit="mm">1.52</height>
			</divergenceSlit>
		</incidentBeamPath>
		<sampleMovement xsi:type="spinningSampleMovementType">
			<spinnerRevolutionTime unit="seconds">1.0</spinnerRevolutionTime>
		</sampleMovement>
		<diffractedBeamPath>
			<radius unit="mm">145.00</radius>
			<antiScatterSlit id="22090040" name="AS slit 9 mm (PIXcel)" xsi:type="fixedAntiScatterSlitType">
				<height unit="mm">9.00</height>
			</antiScatterSlit>
			<sollerSlit id="21020003" name="Large Soller slits 0.04 rad.">
				<opening unit="rad">0.0400</opening>
			</sollerSlit>
			<filter id="20030001" name="Large beta-filter Nickel">
				<material>Ni</material>
				<thickness unit="mm">0.020</thickness>
			</filter>
			<detector id="7010019" name="PIXcel1D-Medipix3 detector" xsi:type="rtmsDetectorType">
				<phd unit="keV">
					<lowerLevel>4.02</lowerLevel>
					<upperLevel>11.27</upperLevel>
				</phd>
				<mode>Scanning</mode>
				<activeLength unit="deg">5.542</activeLength>
			</detector>
		</diffractedBeamPath>
		<scan appendNumber="0" mode="Continuous" scanAxis="Gonio" status="Completed">
			<header>
				<startTimeStamp>2025-11-28T10:24:08-08:00</startTimeStamp>
				<endTimeStamp>2025-11-28T10:32:15-08:00</endTimeStamp>
				<author>
					<name>AutomatedUser</name>
				</author>
				<source>
					<applicationSoftware version="1.7b (136)">PANalytical Aeris Instrument Suite</applicationSoftware>
					<instrumentControlSoftware version="3.2.00000000 20240306">AERIS</instrumentControlSoftware>
					<instrumentID>950485</instrumentID>
				</source>
			</header>
			<dataPoints>
				<positions axis="2Theta" unit="deg">
					<startPosition>10.00943322</startPosition>
					<endPosition>99.99442286</endPosition>
				</positions>
				<positions axis="Omega" unit="deg">
					<startPosition>5.00471661</startPosition>
					<endPosition>49.99721143</endPosition>
				</positions>
				<commonCountingTime unit="seconds">12.495</commonCountingTime>
				<counts unit="counts">2831 2617 2622 2752 2644 2721 2750 2772 2621 2741 2803 2782 2662 2737 2733 2773 2740 2754 2819 2774 2749 2730 2826 2790 2749 2885 2709 2824 2837 2835 2892 2748 2751 2766 2763 2703 2902 2812 2731 2732 2818 2769 2762 2788 2852 2815 2854 2769 2885 2901 2802 2956 2777 2921 2842 2854 2878 2817 2979 2792 2871 2879 2784 2928 2934 2916 2895 2916 2890 2895 2870 2947 2808 2894 2868 2938 2940 2973 2924 2878 2945 2909 2971 2898 2893 2977 3063 2982 3028 2976 3029 2882 3000 2994 3025 2944 2956 3024 3022 3026 3118 2991 3001 3181 3072 3006 3032 3022 3047 3147 3035 3160 3136 3040 3050 2998 3031 2988 3018 3039 3058 3111 3058 2993 3000 3101 3165 3116 3137 3165 3037 3133 3109 3116 3060 3111 3153 3023 3176 3167 3096 3114 3015 3231 3194 3203 3235 3095 3173 3213 3111 3144 3233 3254 3246 3141 3200 3225 3201 3253 3210 3248 3116 3232 3319 3199 3220 3208 3146 3289 3229 3216 3040 3166 3246 3306 3190 3266 3215 3171 3271 3121 3183 3205 3112 3362 3136 3214 3092 3259 3164 3170 3247 3216 3185 3301 3238 3200 3292 3297 3233 3204 3300 3141 3271 3159 3243 3108 3422 3187 3176 3118 3287 3146 3191 3126 3199 3185 3186 3169 3107 3143 3158 3164 3239 3172 3158 3207 3136 3079 3118 3117 3179 3112 3157 3128 3131 3190 3147 3117 3190 3033 3196 3137 3123 3009 3137 3094 3102 3064 3180 3197 3172 3107 3099 3117 3062 3034 3123 3094 3112 3116 3016 3079 2991 3057 3024 3103 2989 3099 2923 3126 3028 3188 3054 3153 2976 3014 3112 3116 3094 2995 3038 3008 2984 3025 3036 2970 3006 3083 2985 2982 3019 3035 3020 3070 3060 2965 3049 3048 2992 3035 3037 2920 3108 2914 3011 3022 3030 3020 3058 3005 2955 3084 2982 3037 3130 3061 3090 3080 3051 3108 2942 3010 2999 2971 3021 3028 2952 3077 2971 3024 3051 3105 3104 3037 3049 2937 3123 3066 3164 3034 2971 3014 2978 3071 2980 3083 2995 3121 3066 3079 2993 2981 3053 3147 2962 2979 3070 3010 3138 2988 3014 3039 3069 2997 3009 2969 3052 3078 3078 3120 3166 3078 3103 3133 3105 3088 3059 3107 3100 2991 3094 3126 3063 3189 3035 3081 3158 3157 3207 3059 3082 3063 3081 3099 3148 3176 3131 3145 3137 3098 3167 3171 3153 3157 3209 3254 3243 3201 3152 3142 3220 3251 3123 3181 3156 3407 3215 3240 3252 3235 3285 3273 3293 3384 3306 3384 3375 3446 3520 3579 3543 3651 3552 3609 3577 3607 3490 3485 3439 3567 3589 3620 3652 3607 3610 3570 3730 3685 4038 3648 3731 3754 3953 3837 3988 3873 3945 4162 4044 4122 4129 4253 4371 4347 4331 4455 4409 4425 4453 4378 4360 4368 4436 4352 4234 4357 4433 4159 4293 4218 4273 4188 4100 4080 4079 4054 4067 4084 4098 3892 4078 4042 4026 3923 3846 3866 3888 3812 3853 3846 3818 3830 3777 3740 3685 3735 3705 3652 3572 3504 3548 3523 3364 3527 3378 3359 3297 3341 3300 3273 3219 3228 3066 3259 3151 3096 3054 2973 3090 3036 2988 3000 3006 3053 2966 3026 2961 2994 2908 2977 2935 2823 2807 2931 2840 2900 2851 2935 2925 2893 2943 2849 2851 2894 2827 2946 2902 2820 2858 2871 2901 2813 2791 2939 2895 2812 2839 2757 2807 2842 2855 2756 2765 2802 2771 2740 2850 2862 2786 2740 2841 2841 2888 2784 2753 2789 2703 2770 2755 2711 2619 2727 2785 2732 2724 2762 2758 2710 2771 2784 2650 2731 2741 2733 2787 2713 2679 2719 2661 2703 2636 2679 2704 2664 2711 2720 2682 2613 2697 2617 2598 2617 2728 2688 2688 2637 2726 2571 2750 2556 2610 2566 2537 2627 2632 2619 2575 2650 2701 2679 2612 2682 2668 2683 2611 2690 2522 2647 2687 2603 2595 2571 2580 2595 2513 2599 2674 2587 2633 2521 2585 2466 2635 2576 2586 2500 2612 2589 2636 2653 2592 2476 2594 2556 2480 2657 2542 2571 2554 2596 2596 2459 2623 2582 2487 2513 2510 2578 2543 2513 2605 2557 2588 2567 2539 2548 2496 2676 2530 2492 2551 2508 2664 2575 2519 2570 2565 2520 2595 2576 2531 2511 2536 2562 2571 2474 2522 2476 2501 2614 2539 2536 2538 2454 2521 2631 2465 2571 2434 2548 2513 2536 2520 2597 2602 2444 2531 2484 2490 2415 2609 2528 2525 2476 2467 2572 2503 2507 2446 2461 2529 2480 2457 2480 2542 2517 2490 2388 2513 2530 2484 2563 2552 2450 2477 2506 2426 2423 2422 2399 2486 2452 2432 2507 2447 2562 2483 2453 2383 2468 2470 2477 2410 2447 2473 2433 2537 2450 2515 2485 2472 2474 2399 2506 2456 2432 2442 2435 2449 2415 2439 2465 2380 2524 2362 2511 2397 2385 2396 2447 2435 2460 2351 2402 2361 2482 2548 2339 2533 2403 2390 2400 2409 2487 2314 2405 2498 2468 2402 2474 2459 2458 2442 2360 2386 2401 2498 2503 2418 2409 2458 2449 2431 2459 2440 2387 2391 2342 2317 2405 2321 2388 2378 2383 2287 2317 2428 2413 2354 2304 2396 2328 2450 2298 2423 2324 2339 2346 2322 2434 2419 2466 2376 2311 2371 2335 2278 2331 2361 2448 2352 2411 2218 2319 2317 2322 2318 2429 2308 2357 2307 2368 2363 2312 2306 2292 2388 2389 2423 2250 2263 2280 2270 2326 2376 2296 2282 2241 2291 2320 2262 2291 2323 2364 2339 2272 2291 2333 2282 2266 2238 2228 2304 2370 2264 2273 2368 2276 2368 2307 2331 2328 2243 2263 2371 2346 2304 2347 2283 2274 2204 2289 2325 2303 2331 2279 2277 2352 2289 2344 2303 2377 2333 2254 2328 2287 2241 2281 2287 2209 2294 2199 2322 2241 2333 2362 2291 2263 2242 2295 2240 2310 2336 2208 2328 2261 2176 2203 2259 2323 2373 2148 2239 2280 2244 2258 2143 2384 2211 2254 2246 2226 2260 2144 2271 2275 2275 2275 2332 2249 2301 2305 2243 2232 2172 2197 2204 2272 2263 2274 2229 2276 2252 2272 2207 2270 2211 2309 2193 2282 2269 2203 2244 2167 2277 2259 2180 2167 2158 2241 2239 2256 2311 2266 2254 2261 2196 2225 2300 2266 2163 2261 2170 2183 2306 2167 2277 2296 2195 2252 2231 2291 2278 2279 2237 2210 2140 2292 2259 2227 2174 2235 2259 2264 2300 2216 2236 2234 2238 2153 2193 2214 2282 2272 2269 2212 2255 2234 2259 2203 2283 2252 2269 2184 2193 2212 2243 2234 2208 2185 2199 2173 2197 2208 2248 2219 2300 2300 2204 2284 2222 2192 2260 2283 2297 2214 2184 2206 2232 2256 2219 2260 2132 2153 2247 2093 2245 2201 2195 2176 2223 2141 2150 2181 2189 2119 2252 2238 2169 2160 2245 2217 2127 2131 2158 2141 2129 2181 2161 2084 2221 2225 2214 2175 2152 2141 2218 2089 2152 2171 2137 2157 2158 2098 2148 2130 2164 2134 2232 2162 2118 2167 2110 2110 2139 2087 2104 2119 2090 2176 2057 2119 2179 2126 2154 2089 2139 2085 2041 2036 2079 2055 2057 2055 2089 2017 2044 2022 2041 2113 2046 2023 2098 2017 2009 2011 2028 1935 1965 2037 1956 2028 1945 1979 2021 1864 1979 1988 1930 1992 1999 1978 1963 1964 2003 1986 1982 1975 1913 1968 1967 1917 1916 2014 1859 1926 1830 1849 1899 1872 1814 1930 1932 1849 1904 1907 1941 1911 1943 1887 1839 1912 1908 1922 1873 1880 1909 1882 1857 1830 1865 1858 1812 1905 1826 1830 1807 1731 1863 1866 1902 1764 1829 1846 1852 1747 1818 1863 1782 1805 1827 1741 1863 1762 1833 1798 1741 1724 1765 1773 1736 1721 1790 1837 1786 1783 1702 1749 1784 1779 1814 1772 1809 1790 1775 1780 1756 1779 1749 1809 1834 1729 1707 1737 1783 1757 1786 1785 1755 1779 1712 1843 1658 1776 1779 1744 1710 1646 1720 1801 1728 1660 1791 1707 1706 1821 1732 1680 1728 1660 1755 1667 1765 1680 1810 1706 1706 1697 1726 1672 1741 1685 1741 1698 1671 1641 1716 1639 1697 1714 1757 1643 1615 1701 1671 1775 1683 1611 1707 1633 1642 1690 1673 1673 1612 1649 1720 1693 1719 1649 1675 1671 1680 1751 1594 1690 1648 1597 1724 1636 1675 1725 1565 1701 1694 1673 1653 1603 1632 1668 1700 1694 1675 1700 1617 1725 1648 1671 1665 1661 1654 1599 1639 1700 1654 1655 1655 1672 1604 1628 1594 1694 1567 1683 1669 1692 1753 1679 1692 1702 1674 1731 1669 1665 1713 1687 1605 1676 1712 1663 1746 1719 1632 1700 1654 1733 1717 1641 1665 1701 1666 1738 1696 1666 1678 1675 1707 1692 1677 1764 1665 1678 1732 1617 1773 1732 1597 1662 1616 1666 1674 1633 1616 1661 1655 1743 1674 1696 1738 1663 1677 1656 1637 1679 1624 1716 1706 1718 1647 1621 1703 1660 1627 1637 1691 1647 1645 1668 1640 1703 1677 1629 1612 1695 1648 1671 1608 1702 1655 1647 1660 1678 1635 1707 1644 1689 1641 1643 1658 1624 1693 1699 1662 1621 1636 1582 1649 1632 1639 1616 1572 1712 1640 1632 1634 1571 1672 1675 1602 1685 1641 1675 1619 1722 1594 1656 1638 1638 1643 1565 1637 1582 1633 1669 1539 1672 1669 1581 1653 1623 1608 1605 1583 1584 1610 1567 1596 1671 1584 1559 1585 1561 1558 1599 1539 1522 1534 1573 1495 1568 1545 1556 1576 1541 1548 1625 1582 1600 1544 1526 1589 1540 1484 1531 1554 1547 1573 1563 1592 1551 1626 1538 1524 1453 1542 1533 1520 1497 1477 1447 1466 1528 1495 1455 1514 1538 1564 1449 1394 1497 1499 1487 1497 1408 1485 1444 1533 1456 1434 1419 1503 1525 1471 1436 1431 1460 1466 1416 1479 1483 1419 1430 1331 1493 1416 1481 1433 1464 1449 1446 1395 1470 1551 1411 1497 1454 1414 1383 1482 1499 1448 1439 1393 1430 1429 1491 1433 1502 1530 1526 1510 1590 1578 1577 1602 1636 1686 1770 1792 1765 1736 1804 1812 1854 1830 1901 1839 1870 1924 1905 1890 1863 1877 1851 1960 1934 1889 1923 1914 1955 1938 1888 1861 1896 1832 1926 1816 1837 1775 1804 1767 1755 1793 1792 1739 1820 1862 1800 1789 1738 1683 1693 1655 1689 1650 1714 1751 1673 1632 1671 1725 1618 1604 1621 1541 1536 1561 1580 1536 1588 1507 1524 1489 1475 1452 1504 1465 1484 1418 1391 1350 1447 1322 1394 1463 1386 1371 1365 1356 1400 1372 1385 1361 1333 1315 1406 1357 1309 1360 1331 1392 1353 1306 1297 1397 1333 1347 1394 1355 1392 1346 1379 1381 1390 1367 1380 1381 1389 1336 1357 1450 1482 1408 1457 1412 1440 1561 1518 1618 1627 1594 1789 1795 1941 1928 2128 2278 2326 2488 2672 3060 3311 3541 3983 4053 4298 4514 4620 4711 4808 4888 5092 4952 4899 4857 4958 4890 4601 4568 4335 4478 4346 4316 4315 4272 4231 4077 4020 3952 4012 3861 3973 3921 3946 4026 4010 4051 4111 4144 4110 4243 4211 4220 4194 4065 4025 3992 4038 3867 3850 3741 3598 3508 3307 3174 3196 3126 3036 2929 2712 2769 2649 2575 2515 2415 2516 2313 2389 2381 2267 2215 2318 2186 2151 2046 2113 2010 2104 1959 2016 1921 1924 1913 1832 1813 1835 1827 1718 1707 1675 1669 1579 1576 1619 1534 1476 1481 1505 1451 1494 1366 1397 1358 1399 1373 1328 1427 1335 1309 1321 1229 1275 1216 1314 1215 1236 1279 1249 1260 1165 1242 1199 1275 1198 1186 1186 1142 1191 1172 1187 1172 1202 1140 1113 1164 1132 1244 1195 1114 1160 1102 1086 1131 1149 1106 1175 1189 1111 1148 1061 1099 1101 1094 1073 1126 1098 1100 1137 1095 1097 1080 1116 1164 1076 1173 1104 1125 1114 1093 1068 1141 1071 1127 1060 1058 1092 1099 1095 1086 1089 1112 1085 1088 1048 1124 1106 1064 1009 1042 1081 1047 1078 1049 1087 1037 1043 1051 1031 1075 1046 1124 1065 1015 1115 1074 1073 1064 1035 1082 1105 1067 1074 1103 1111 1022 1057 1068 1063 1043 1089 1074 1044 1047 1117 1105 1004 1069 1040 1044 1053 1062 1061 1077 1096 1136 982 1012 1046 1004 1036 1023 1013 1069 1020 1058 992 1066 1004 1045 1060 1037 1010 977 1116 1085 991 1050 1049 964 1039 1047 971 1086 1084 1064 1007 996 1055 1078 1069 1037 1011 1037 1054 1027 1026 1030 1090 1021 946 1075 1065 1016 1025 1028 1029 1056 999 980 1058 1022 1074 969 1038 1003 999 1044 904 1064 952 1036 1026 1081 997 989 1011 997 1013 1052 1016 1047 1018 1018 982 1011 1039 984 1013 1019 982 958 1026 987 1013 935 1042 1020 1038 949 986 1010 1007 1061 1051 1028 1016 1054 1057 1050 1028 1042 1048 1080 977 1059 1077 1024 1035 1061 1044 1086 1040 1034 1000 1109 1050 1052 1048 1076 1045 1076 1035 1098 1043 1034 1054 1078 1137 1061 1073 1055 1077 1057 1100 1041 1073 1110 1117 1119 1108 1072 1139 1094 1083 1059 1061 1039 1087 1103 1106 1144 1135 1121 1084 1155 1118 1168 1175 1127 1132 1167 1145 1162 1161 1215 1238 1239 1343 1236 1274 1203 1242 1364 1314 1359 1321 1440 1458 1538 1499 1601 1699 1689 1851 1855 1871 2066 2142 2251 2504 2583 2798 2817 3190 3430 3703 3890 4156 4461 4695 4838 5165 5235 5450 5413 5641 5553 5899 5812 5911 6021 5970 5923 6005 5916 5895 5584 5780 5720 5640 5446 5441 5496 5289 5350 5193 5195 5273 5016 5035 4914 4913 4929 4961 4827 4945 5024 5001 4922 4848 4931 5037 4945 4997 4910 4924 4737 4654 4613 4366 4268 4257 4075 4000 3786 3781 3464 3369 3196 3158 2889 3013 2684 2707 2612 2565 2457 2437 2350 2258 2171 2151 2192 2039 2058 1969 1999 1876 1900 1813 1839 1750 1810 1835 1779 1816 1757 1677 1711 1634 1655 1574 1540 1414 1424 1465 1426 1349 1350 1273 1251 1290 1184 1257 1120 1134 1188 1145 1111 1084 1154 1074 1078 1051 1077 1113 1032 976 1067 1082 1040 1052 1016 1034 1030 991 1044 959 981 1006 1019 999 1015 975 1032 1048 984 1029 989 986 1017 906 967 1003 993 981 1014 980 996 979 1000 952 1012 993 947 985 900 971 965 993 1016 963 953 1008 957 985 988 1057 980 999 964 936 960 1014 1000 976 948 908 923 993 960 899 963 937 903 946 982 933 961 965 973 958 939 952 943 972 899 930 944 894 945 877 952 935 937 992 930 903 934 941 925 976 959 944 953 926 904 921 910 950 931 950 892 884 860 956 956 887 992 929 937 984 966 922 903 924 882 955 961 906 978 919 842 823 932 893 900 986 862 906 930 859 927 897 939 951 891 907 895 885 846 878 885 892 906 961 899 897 860 961 917 865 874 867 933 842 897 869 942 988 929 894 912 819 903 940 910 885 905 907 940 880 857 893 907 900 941 885 897 885 880 890 918 900 917 952 909 955 862 947 928 902 963 933 971 964 896 890 1004 998 957 1001 1006 986 1045 1022 998 1030 1007 991 1037 1042 954 1018 1033 956 981 977 1006 1019 956 986 951 941 935 999 953 992 1009 991 989 977 985 928 1003 903 966 928 938 894 926 912 957 916 945 920 869 909 972 914 941 845 912 942 848 876 876 881 875 932 832 938 837 788 858 875 890 830 827 887 870 825 884 850 866 868 860 854 827 829 892 810 861 814 774 900 848 869 848 799 836 775 827 799 840 866 859 826 885 855 796 833 815 778 824 839 859 857 806 780 870 832 788 839 810 808 852 814 831 864 868 812 829 805 854 857 841 782 834 818 784 782 786 860 853 782 832 803 870 849 813 851 809 787 858 854 827 816 826 826 815 749 781 844 810 821 800 822 811 776 775 803 780 821 843 805 787 793 816 827 841 806 771 776 782 779 750 760 786 805 812 787 791 800 778 834 814 810 772 852 755 781 834 756 786 795 775 811 778 791 762 796 785 819 816 828 822 784 771 778 785 782 874 764 798 805 799 777 812 838 817 834 770 810 804 795 799 821 820 782 807 799 809 804 767 742 831 840 821 759 806 747 851 809 785 762 840 833 814 812 788 777 781 780 788 781 761 818 799 790 818 731 778 793 812 820 754 811 751 776 746 840 790 791 780 801 822 809 800 786 783 778 800 760 857 725 768 751 768 803 772 742 796 773 822 805 739 795 722 802 770 760 749 756 782 790 760 759 778 805 788 805 732 807 763 749 832 789 787 817 757 725 805 797 744 785 777 830 772 772 766 827 819 768 775 811 807 735 810 798 769 799 775 759 790 780 785 758 699 825 834 812 797 736 761 787 785 822 792 807 775 799 847 738 717 765 756 809 791 759 766 762 757 768 774 787 784 755 729 709 776 752 771 774 810 766 739 769 753 794 747 757 760 767 784 744 791 798 775 716 759 794 805 738 754 795 742 801 770 738 791 769 790 780 756 774 738 759 766 831 785 763 812 752 813 764 792 823 749 778 763 792 775 782 800 767 777 774 754 754 702 770 749 729 769 738 798 780 799 726 759 776 736 817 741 768 799 792 743 776 805 766 724 740 735 786 831 789 829 800 765 752 806 736 793 765 827 836 764 769 787 774 749 778 727 811 729 775 771 740 749 786 763 795 734 784 800 774 809 764 813 767 757 692 840 771 757 741 771 720 777 762 799 742 874 767 780 779 829 789 794 781 743 765 771 726 726 781 771 746 761 772 800 774 796 790 760 803 790 771 757 711 779 711 771 794 733 800 750 763 730 801 757 765 752 750 753 757 747 767 724 745 710 784 743 755 747 784 786 744 770 729 797 762 830 772 803 730 744 788 756 742 716 755 741 782 737 760 760 815 790 714 769 743 787 750 812 832 773 759 721 765 707 744 788 764 757 753 784 760 758 731 799 758 762 785 765 734 801 752 768 753 800 776 748 788 765 773 764 740 760 751 804 786 738 786 770 740 792 753 755 748 765 801 776 755 798 779 839 749 831 809 881 827 826 828 812 830 890 893 832 918 878 877 939 892 1030 1001 999 1030 1026 1113 1045 1110 1107 1169 1175 1136 1157 1168 1139 1141 1146 1145 1135 1153 1128 1117 1132 1109 1125 1085 1076 1035 1107 1116 1019 1085 1066 1026 1046 1099 1041 1064 993 1025 947 1016 1005 1025 1014 971 961 947 983 921 937 979 934 913 983 928 940 923 948 929 967 940 918 1018 968 987 906 970 987 968 981 976 994 1024 1005 1003 1011 966 1005 963 1051 1042 1007 995 998 1028 989 953 945 961 984 977 969 1024 921 936 969 959 923 921 971 954 919 986 895 950 945 867 890 871 905 891 867 887 861 799 871 854 839 876 828 793 840 804 806 819 849 813 802 794 804 770 824 825 832 831 822 792 815 732 794 805 801 791 793 746 795 805 767 778 733 762 762 761 749 748 745 767 716 788 795 793 757 782 708 760 726 840 730 768 725 706 733 727 704 819 762 739 714 756 723 765 734 729 755 690 727 767 720 756 782 743 757 797 755 738 721 726 812 686 775 751 769 747 734 715 706 771 757 736 730 727 735 711 738 761 681 746 692 713 737 735 721 722 742 689 741 777 730 771 780 742 720 764 789 776 802 704 742 750 817 797 771 798 723 779 777 782 670 712 847 758 705 744 754 793 705 775 772 724 725 797 794 741 828 768 782 783 787 686 752 732 722 786 720 722 735 789 798 741 767 747 735 749 774 738 825 726 792 760 760 751 772 790 784 728 724 817 772 734 793 783 773 781 782 783 780 792 760 795 735 774 767 803 793 823 775 788 775 745 805 775 749 804 813 732 734 795 809 802 795 800 830 776 766 877 809 810 808 818 812 841 818 843 859 819 872 908 913 834 869 933 932 946 1025 1041 1091 1182 1280 1309 1429 1442 1511 1556 1596 1571 1620 1612 1607 1663 1611 1703 1669 1763 1760 1783 1796 1731 1734 1732 1781 1829 1917 1920 1952 1932 2008 1998 2084 2195 2342 2470 2500 2715 2841 3058 3117 3178 3274 3213 3335 3301 3387 3239 3301 3298 3353 3379 3411 3399 3299 3306 3233 3047 3060 3057 3073 2846 2815 2624 2683 2584 2608 2508 2498 2459 2419 2269 2265 2239 2173 2284 2033 2058 1968 1923 1945 1972 1902 1905 1820 1790 1701 1715 1629 1685 1530 1560 1527 1527 1537 1502 1481 1576 1542 1469 1435 1474 1433 1438 1496 1481 1501 1457 1525 1552 1578 1626 1550 1615 1640 1648 1650 1661 1702 1744 1617 1711 1666 1676 1666 1670 1662 1657 1710 1662 1633 1669 1679 1640 1666 1643 1542 1562 1545 1522 1523 1541 1505 1407 1520 1366 1359 1365 1332 1383 1333 1278 1260 1288 1236 1213 1231 1123 1133 1099 1204 1173 1139 1111 1102 1029 997 1042 996 1001 996 993 967 924 931 903 857 878 890 866 885 870 858 824 882 790 831 844 793 790 782 746 787 793 825 776 796 796 809 753 777 828 763 742 760 732 747 732 762 792 810 752 768 751 798 748 760 757 729 740 738 778 808 823 780 733 789 787 772 817 795 812 772 779 836 886 800 879 850 920 958 983 1005 954 1017 1036 1053 1007 996 982 996 1032 1011 1040 1061 1048 1097 1038 1075 1091 1044 1087 1078 1043 1047 1038 1121 1059 1027 1108 1075 1045 1079 1055 1038 984 982 1031 993 1009 950 940 1025 1004 949 1001 941 891 907 870 922 902 867 968 869 909 837 832 842 892 849 904 798 797 799 806 767 842 768 722 749 785 778 832 809 772 745 716 774 750 769 772 752 773 738 776 769 761 780 748 771 750 789 690 756 711 745 751 688 760 743 764 696 745 706 769 746 740 720 780 746 719 744 732 730 745 674 673 700 735 676 729 708 726 692 686 707 693 707 720 696 686 707 724 757 635 693 701 650 687 692 669 728 726 675 694 663 688 692 629 745 710 689 667 667 687 695 692 712 730 671 713 668 706 667 688 652 700 693 674 657 728 706 679 666 673 663 656 678 683 705 719 690 670 662 695 685 713 681 696 686 683 661 698 658 708 662 725 678 699 615 720 661 675 646 631 621 663 681 684 687 704 700 637 640 648 678 645 699 640 652 675 693 685 740 662 696 642 655 673 629 714 673 687 667 691 654 679 719 678 700 635 666 646 683 680 699 655 657 642 725 659 749 650 686 681 679 654 639 642 678 682 671 671 706 688 680 653 660 735 672 662 690 660 712 694 654 670 688 672 660 666 634 661 681 661 684 707 679 678 645 633 676 654 677 639 684 678 656 645 660 650 649 689 645 687 645 651 643 675 670 636 700 682 668 647 651 654 683 691 656 694 679 691 667 667 692 667 686 694 646 663 667 651 660 665 666 703 674 665 710 644 668 627 652 661 631 621 682 642 655 664 654 667 640 634 635 634 664 703 668 657 655 635 632 624 679 636 644 686 695 617 662 645 596 693 653 648 689 680 664 683 691 643 703 686 666 679 644 683 654 666 673 679 706 666 723 682 625 644 674 685 669 678 670 648 635 647 682 644 601 679 666 646 629 627 639 635 598 619 635 684 667 644 632 659 693 648 620 639 624 621 616 674 656 617 666 674 645 605 676 639 613 674 639 615 616 676 600 608 664 654 675 658 605 647 651 628 664 629 637 613 678 646 638 614 676 667 649 610 641 638 665 654 699 683 641 620 690 637 634 627 621 623 650 632 650 643 658 609 701 646 623 696 649 634 609 644 662 647 648 655 656 682 604 632 646 647 648 651 634 668 631 648 661 625 688 665 682 647 688 627 677 672 633 654 674 663 642 639 641 679 614 615 680 624 648 680 641 697 648 767 643 716 691 653 684 734 707 737 711 717 689 714 714 749 698 717 647 756 728 699 726 711 750 727 702 678 666 712 741 708 711 723 714 734 739 708 715 745 716 701 680 693 712 744 692 661 682 713 693 725 729 717 716 694 693 666 674 748 663 675 716 687 649 718 698 723 738 702 733 696 755 724 717 671 647 707 730 702 697 740 703 708 717 716 721 750 754 721 700 705 733 708 740 776 703 787 748 820 832 834 800 814 850 844 917 934 967 1017 1007 1093 1130 1120 1131 1198 1181 1221 1239 1322 1263 1291 1335 1352 1361 1312 1237 1360 1291 1314 1308 1311 1320 1300 1349 1349 1334 1287 1263 1313 1283 1210 1221 1224 1172 1146 1120 1123 1114 1130 1072 1153 1146 1027 987 1070 999 936 1002 913 937 920 897 875 875 844 883 862 841 841 849 814 767 841 803 798 780 775 777 733 770 775 751 743 715 812 812 831 866 824 812 791 826 821 822 832 851 860 824 878 857 872 886 901 858 892 882 847 906 890 844 866 875 897 870 815 892 829 817 837 858 803 812 803 827 813 809 796 744 738 764 748 805 786 774 791 708 779 754 720 725 770 712 683 677 740 710 743 698 742 773 690 726 618 770 639 643 724 673 689 699 703 601 673 705 673 638 695 656 694 601 613 644 703 665 680 662 675 686 615 666 629 669 676 695 691 645 667 614 661 650 687 675 679 629 658 693 681 682 642 681 706 663 702 618 640 658 633 667 686 672 671 642 710 712 681 665 632 691 660 639 697 667 714 650 592 633 737 696 690 675 631 665 690 728 726 642 683 743 750 696 693 706 752 687 742 743 763 746 728 787 731 799 793 845 925 912 931 914 919 878 946 1028 1017 992 930 1035 1072 1081 1006 1033 1091 1157 1108 1269 1281 1296 1417 1384 1454 1468 1408 1444 1509 1422 1519 1486 1440 1539 1539 1499 1464 1549 1611 1487 1601 1461 1516 1425 1447 1387 1529 1397 1441 1443 1412 1353 1323 1239 1301 1258 1226 1160 1164 1155 1170 1149 1054 1079 946 1057 1040 1022 1019 929 953 967 940 950 881 861 854 831 850 844 851 770 763 786 794 805 810 732 800 812 818 736 789 814 740 784 766 795 766 751 773 747 803 784 837 846 763 812 845 797 841 870 801 874 774 847 844 808 854 826 842 822 800 857 882 741 798 782 799 776 800 765 785 757 809 748 805 767 794 715 743 730 842 734 755 736 779 748 703 739 747 792 748 825 817 770 822 837 815 759 784 777 811 757 787 780 755 763 752 801 743 749 766 783 767 750 765 769 725 757 770 767 719 764 737 748 802 738 794 721 745 776 775 767 730 775 771 776 777 744 779 769 798 825 789 712 773 795 821 709 810 824 828 788 811 794 771 814 812 826 861 820 845 843 831 849 823 770 823 840 804 842 834 845 824 790 887 803 850 813 781 769 776 771 733 795 776 778 748 738 774 750 765 686 681 757 732 751 722 729 714 710 700 729 621 673 685 677 651 656 647 635 649 641 646 669 644 635 623 667 593 675 644 645 635 632 659 625 631 609 639 642 713 674 616 632 666 643 614 609 592 618 679 640 639 651 616 644 634 595 617 660 614 648 626 634 651 609 642 635 677 621 627 679 693 622 654 639 654 625 631 640 609 668 644 696 696 648 663 664 655 681 677 653 684 675 642 688 694 731 694 656 706 722 734 671 716 724 719 691 711 684 691 707 712 703 725 691 710 694 648 677 712 671 696 723 634 672 689 638 681 603 670 671 663 630 659 638 675 675 630 645 657 635 672 630 636 658 653 629 636 622 612 597 597 609 620 656 639 658 627 631 639 629 616 614 620 636 627 612 589 612 607 572 625 636 582 632 594 599 619 591 625 674 615 630 601 574 590 635 589 629 632 614 608 606 588 615 617 640 617 588 602 636 608 608 605 569 583 614 571 621 643 610 557 577 603 588 615 662 635 605 588 591 558 573 614 589 594 576 635 607 595 592 598 594 618 645 612 599 599 601 607 640 588 605 655 641 629 586 625 637 583 622 598 600 592 588 604 644 604 620 642 597 630 574 593 641 623 593 573 587 581 629 599 562 580 573 561 602 592 628 568 569 632 570 570 587 596 600 615 624 626 560 599 592 580 617 570 573 553 604 558 596 642 579 625 603 544 660 609 591 615 626 607 579 612 594 588 581 590 557 646 559 605 638 605 638 596 626 579 610 617 613 626 584 609 606 591 572 604 568 563 641 544 632 560 588 617 586 582 562 602 591 601 612 610 559 613 566 588 561 592 572 571 574 573 573 593 587 546 607 596 586 595 576 605 579 563 553 607 594 563 590 585 615 621 586 622 572 602 608 629 618 601 545 596 595 581 558 588 602 596 580 577 563 566 598 621 591 563 595 575 555 629 622 594 585 625 598 555 571 590 584 659 605 607 568 597 584 598 604 564 625 587 586 574 575 591 621 608 577 627 640 579 608 602 624 583 615 605 586 637 644 664 604 659 589 598 595 603 580 578 617 658 682 588 635 636 636 613 663 647 706 656 713 631 685 663 688 651 698 700 635 632 640 674 639 701 699 677 698 677 673 682 676 727 670 701 662 709 672 671 670 645 725 698 674 681 688 703 681 692 681 635 661 622 633 689 641 688 654 655 638 590 660 622 677 667 634 648 633 605 654 661 678 626 633 595 691 593 642 614 627 656 645 669 606 602 684 628 583 621 591 640 644 627 627 609 608 619 635 631 647 614 643 611 600 588 609 581 636 609 584 597 599 614 582 631 621 573 641 604 586 629 608 573 568 591 560 570 590 605 604 594 556 648 570 587 628 613 563 565 586 623 599 634 619 642 590 612 596 596 578 582 617 623 615 616 571 599 600 595 595 599 626 592 547 573 585 602 628 529 563 598 622 564 603 552 634 635 553 614 609 616 597 641 555 605 623 588 585 566 603 611 597 594 581 585 600 569 586 585 527 579 593 557 570 631 579 602 609 590 607 603 602 567 614 568 563 576 634 593 605 628 585 573 565 553 595 575 603 556 571 577 578 574 568 562 563 623 604 610 594 574 571 607 595 624 587 551 617 583 621 579 597 600 606 569 595 584 568 570 578 584 608 596 579 618 574 557 605 604 625 542 598 581 572 601 628 572 626 589 589 636 672 631 613 656 660 660 613 599 609 613 609 622 619 623 669 611 676 652 656 682 686 698 717 708 703 721 716 723 760 739 777 788 780 735 775 805 760 854 798 837 850 868 893 814 904 808 875 885 844 924 839 830 843 878 871 862 872 793 842 837 816 920 920 798 816 856 873 827 875 803 843 812 824 804 829 778 798 803 799 738 739 804 736 760 737 731 677 732 758 685 705 673 703 697 729 732 657 712 747 705 662 712 687 692 711 640 670 708 694 635 623 655 671 666 663 643 635 618 640 675 674 629 593 664 688 651 644 645 666 638 647 658 679 709 674 690 720 699 671 656 668 690 653 683 728 686 654 657 676 684 663 685 647 676 625 668 634 652 663 695 661 709 645 658 672 686 616 692 614 645 668 639 648 662 621 678 582 675 646 602 636 607 600 618 616 606 616 648 588 628 651 636 593 587 620 612 592 620 593 561 573 592 621 613 550 612 597 583 640 633 598 587 558 574 580 598 574 642 646 622 644 623 566 576 624 589 611 594 612 598 601 579 638 576 606 609 597 607 616 613 582 600 628 587 632 568 557 652 593 586 592 551 603 621 595 584 597 521 587 593 564 580 540 580 608 625 574 568 610 557 555 591 615 574 610 588 624 600 602 612 562 598 575 601 574 644 575 576 599 613 546 590 588 568 529 583 549 564 608 542 551 568 606 570 557 559 599 574 572 598 628 593 602 573 568 581 586 575 600 537 530 554 612 595 556 575 554 599 540 557 577 608 656 570 609 554 583 569 584 544 636 614 577 562 584 587 557 543 589 539 527 567 555 584 566 559 605 554 583 571 589 642 550 576 570 573 593 602 550 553 533 580 576 540 580 620 588 579 563 514 552 577 557 580 605 604 587 572 571 588 587 595 603 584 626 613 566 571 595 549 568 583 572 547 538 605 572 602 565 554 600 593 604 567 571 569 558 533 574 551 598 573 583 598 616 573 598 535 567 564 569 640 587 597 622 550 565 593 569 555 618 574 618 538 593 527 547 556 569 553 586 573 592 567 589 561 626 597 574 577 565 560 556 559 574 523 590 550 559 595 615 575 567 605 583 594 590 572 568 559 615 616 565 531 595 560 604 560 565 572 562 580 590 588 566 565 532 572 592 548 560 584 607 554 575 599 578 579 560 614 562 589 528 535 589 557 620 554 590 568 588 621 563 570 524 585 586 572 572 581 552 564 580 579 558 530 577 587 566 576 611 590 593 574 542 535 571 575 623 541 615 587 588 564 601 578 562 570 554 597 572 576 546 617 604 567 601 602 544 557 584 608 584 514 572 578 567 589 547 630 583 595 615 573 567 572 594 555 577 565 548 601 577 581 570 551 599 587 608 566 572 643 595 590 570 602 642 603 621 635 627 542 615 580 638 609 603 542 603 583 656 572 618 611 626 658 612 587 613 603 617 642 585 585 578 623 588 627 636 625 607 611 633 623 599 648 643 623 586 608 607 622 653 616 638 682 609 641 573 647 647 609 635 594 642 580 620 620 605 653 583 605 670 632 596 661 571 649 583 615 610 658 594 649 685 641 631 661 644 653 658 617 605 645 650 653 631 681 635 658 645 664 618 659 599 648 622 666 685 691 653 637 639 664 711 674 665 724 626 637 607 630 676 631 694 646 621 674 626 642 682 644 649 651 663 715 673 704 726 712 715 769 715 698 693 839 792 790 800 783 808 801 810 830 814 847 765 794 768 878 865 782 856 777 800 801 822 783 811 770 780 809 774 747 732 726 748 760 767 730 781 764 725 708 718 696 724 713 676 733 699 682 681 691 721 677 626 650 617 690 652 648 631 640 603 642 633 652 685 632 603 647 642 623 603 612 589 666 638 582 575 642 654 678 665 583 648 625 650 590 599 607 566 648 629 604 626 651 657 636 560 582 630 611 645 612 621 658 670 629 649 653 638 619 693 720 663 684 673 695 745 643 653 693 687 728 688 712 666 675 675 722 692 704 722 685 643 702 678 687 656 719 654 660 671 650 688 659 657 693 707 678 673 721 708 674 675 692 682 696 680 714 723 673 665 625 684 659 669 624 689 675 637 670 664 692 669 682 673 665 691 725 699 720 758 771 782 816 755 806 800 776 841 845 814 847 813 820 830 789 873 840 792 855 834 823 837 822 842 892 845 820 849 923 924 904 935 858 848 851 878 848 906 883 869 880 915 906 902 978 931 992 956 963 975 991 1038 1065 1082 1068 1038 1117 1137 1064 1161 1096 1057 1121 1173 1076 1115 1126 1067 1085 1138 1095 1061 1116 1123 1068 1114 1110 1061 1119 1059 1076 1079 936 992 991 1004 976 925 971 915 981 892 920 850 906 866 858 909 810 819 830 810 791 750 795 732 766 705 768 752 664 753 720 695 719 704 661 665 668 643 654 637 655 683 700 631 654 651 648 649 631 637 639 674 671 663 648 650 643 642 692 673 675 679 655 674 666 661 626 661 677 651 702 723 663 681 676 739 667 730 708 653 724 727 722 741 738 763 736 774 789 792 785 799 793 793 874 821 846 812 834 872 861 901 909 903 934 886 831 900 856 889 849 861 906 873 913 882 814 893 816 861 845 863 874 860 867 862 863 826 807 869 840 822 837 801 799 749 829 795 772 725 795 785 770 785 795 797 817 719 754 762 754 749 741 787 716 816 705 708 697 696 700 705 678 664 656 653 707 726 668 692 704 724 649 682 623 666 699 683 666 629 592 627 650 635 612 619 641 648 679 651 630 649 645 652 644 631 629 635 608 623 589 608 615 629 641 612 621 617 596 604 580 601 621 588 598 556 598 667 609 615 581 576 614 612 604 617 613 566 617 609 588 608 583 604 561 638 596 607 603 596 597 639 606 611 591 540 594 644 609 605 588 634 579 605 634 603 646 622 593 612 647 573 622 617 617 651 655 548 628 602 606 615 606 612 623 600 650 572 614 616 583 611 613 591 616 590 586 599 614 631 591 580 623 567 606 608 567 641 605 659 618 594 622 596 596 605 569 560 608 598 604 612 574 613 587 607 599 571 612 594 569 587 658 576 563 602 556 577 590 583 618 600 595 605 581 619 567 603 574 554 582 599 598 573 575 635 615 622 629 565 563 619 586 591 611 616 543 558 577 611 585 585 527 593 593 610 599 592 589 546 545 565 603 645 564 559 597 559 583 566 561 545 564 560 556 619 568 551 585 579 604 574 587 586 559 543 551 579 601 543 639 555 592 579 585 570 581 596 501 579 539 616 551 613 546 611 574 570 560 571 593 550 569 580 541 563 571 566 613 607 620 580 570 614 560 598 545 573 605 559 603 565 589 613 553 577 589 571 613 608 575 560 549 570 579 597 550 584 605 583 579 551 585 578 592 618 588 609 630 618 593 562 554 586 600 564 567 576 576 600 551 585 578 631 630 592 599 554 557 579 578 567 602 575 611 582 629 616 583 596 577 566 565 613 613 591 638 578 590 561 578 601 613 616 599 562 607 574 583 553 570 567 575 609 595 609 583 556 595 598 607 588 586 529 566 602 590 586 583 606 542 612 578 584 620 671 612 576 585 606 617 581 587 577 601 597 575 618 597 558 581 563 590 550 618 586 623 573 612 559 586 578 578 564 554 605 559 576 585 617 564 578 621 616 585 602 583 585 589 613 646 635 589 632 616 611 607 673 620 649 642 648 592 607 641 655 662 657 657 647 662 659 651 633 602 642 661 664 646 629 668 650 617 649 660 620 629 656 633 678 629 650 634 712 621 698 649 619 655 662 618 644 687 627 655 643 640 610 621 634 627 594 624 631 642 602 573 627 613 583 598 584 587 594 630 575 599 568 612 610 605 600 616 595 601 618 565 625 597 600 574 605 572 603 586 587 546 579 608 573 592 631 577 564 615 618 587 601 566 604 637 605 605 627 629 592 611 566 575 601 591 622 592 593 627 608 601 580 582 579 565 582 552 536 615 574 577 639 624 576 603 539 608 594 626 573 618 558 578 572 584 605 599 589 580 609 583 583 547 599 605 623 607 648 614 566 615 539 576 584 592 604 578 605 602 600 559 587 564 603 594 563 633 635 616 641 565 600 552 590 584 575 562 601 624 596 593 599 600 604 574 598 597 576 628 595 634 631 615 577 612 613 604 554 568 618 591 583 656 640 587 623 667 688 683 671 696 727 697 654 703 652 680 719 679 687 716 704 693 654 664 659 627 644 705 645 663 693 647 678 695 689 708 711 659 686 743 627 713 671 710 671 654 654 700 654 696 644 696 693 667 678 684 667 693 690 686 657 695 701 714 738 645 691 735 745 716 726 742 726 740 742 750 816 772 780 776 808 905 893 891 919 890 906 914 903 974 957 991 1001 1025 990 1005 1002 963 1019 1005 1020 1051 1011 952 1067 1004 1028 1061 1011 1028 1023 958 997 982 966 996 956 973 947 925 952 954 906 928 943 923 854 909 881 847 870 882 856 845 834 786 753 835 791 764 785 734 719 774 751 735 732 741 736 689 711 670 659 668 709 614 650 645 650 683 676 678 615 614 613 635 560 610 629 667 598 663 631 666 641 586 622 672 650 625 632 640 649 615 607 630 630 651 631 653 640 637 681 646 647 648 662 673 600 658 672 678 640 635 713 665 615 653 610 634 645 669 646 662 656 670 679 700 660 659 691 684 701 703 686 702 642 683 696 700 671 696 726 678 681 750 687 762 673 716 676 665 748 664 669 673 708 691 633 685 724 685 688 670 695 674 716 695 664 713 693 681 710 707 692 652 714 663 680 691 684 633 678 650 665 692 709 645 669 634 651 663 630 640 610 640 621 628 640 639 623 652 655 642 605 625 628 667 606 638 696 688 677 654 677 643 619 627 673 642 655 593 668 615 588 618 590 637 609 601 642 614 628 603 603 666 609 607 619 634 612 614 613 593 640 636 629 634 602 632 639 645 593 607 680 601 647 614 610 655 651 619 654 637 614 659 619 670 601 629 649 621 622 604 618 601 637 616 606 649 601 595 599 611 654 671 584 600 652 604 599 618 630 615 616 584 606 639 618 588 621 593 599 606 553 602 576 603 607 635 604 598 579 625 594 632 554 579 567 587 539 575 572 624 558 622 602 588 592 576 577 598 552 583 599 603 554 635 638 621 589 561 574 593 575 571 561 574 573 564 585 557 564 639 522 582 585 587 583 623 597 595 607 583 553 627 554 575 567 599 597 574 569 582 609 541 566 568 578 575 595 618 579 560 572 573 594 566 590 643 589 579 570 601 552 580 586 592 543 570 532 602 566 586 570 604 584 590 562 569 562 599 577 542 588 569 620 610 586 595 580 564 591 569 618 587 566 613 567 565 570 589 572 560 587 597 586 590 587 524 542 538 560 566 576 568 599 632 589 567 574 622 613 556 575 617 590 564 566 606 588 542 593 580 574 580 573 606 556 539 545 563 563 558 589 601 588 565 580 544 553 570 592 656 579 599 578 577 583 596 594 574 592 623 566 566 574 575 539 595 602 550 589 590 600 562 613 629 619 572 576 577 563 558 600 583 633 573 591 589 560 593 631 604 566 550 577 589 614 570 635 564 598 601 601 578 578 606 565 603 532 553 584 571 547 600 561 575 579 567 604 648 567 593 577 583 576 579 604 594 569 612 595 570 614 602 588 556 564 590 578 568 597 620 575 567 568 542 600 600 557 604 557 574 578 554 579 568 609 528 562 615 613 606 556 617 562 611 565 590 628 583 577 591 587 554 572 597 564 602 609 665 608 648 654 637 580 598 650 618 631 619 614 633 664 612 626 640 688 618 650 675 642 676 648 636 681 681 610 669 666 632 641 671 670 696 662 687 664 701 657 699 696 637 676 670 667 714 708 650 683 648 654 685</counts>
			</dataPoints>
		</scan>
	</xrdMeasurement>
</xrdMeasurements>
