<?xml version="1.0"?>
<xrdMeasurements xmlns="http://www.xrdml.com/XRDMeasurement/2.3" xmlns:xsi="http://www.w3.org/2001/XMLSchema-instance" xsi:schemaLocation="http://www.xrdml.com/XRDMeasurement/2.3 http://www.xrdml.com/XRDMeasurement/2.3/XRDMeasurement.xsd" status="Completed" recordIdentifier="{AB3AB7AD-0603-4C32-9D4C-621321B4D726}">
	<comment>
		<entry/>
	</comment>
	<sample type="To be analyzed">
		<id>GPSS_Li1p5Mg0p5V0p5Cl4_110125_69065e22e3432ed06b655fa4</id>
		<name></name>
		<preparedBy></preparedBy>
	</sample>
	<xrdMeasurement measurementType="Scan" status="Completed" sampleMode="Reflection">
		<usedWavelength intended="K-Alpha 1">
			<kAlpha1 unit="Angstrom">1.5405980</kAlpha1>
			<kAlpha2 unit="Angstrom">1.5444260</kAlpha2>
			<kBeta unit="Angstrom">1.3922500</kBeta>
			<ratioKAlpha2KAlpha1>0.5000</ratioKAlpha2KAlpha1>
		</usedWavelength>
		<incidentBeamPath>
			<radius unit="mm">145.00</radius>
			<xRayTube id="1010048" name="Empyrean Cu LFF HR (9430 033 7310x)">
				<tension unit="kV">40.0</tension>
				<current unit="mA">15.0</current>
				<anodeMaterial>Cu</anodeMaterial>
				<focus type="Line">
					<length unit="mm">12.0</length>
					<width unit="mm">0.4</width>
					<takeOffAngle unit="deg">6.0</takeOffAngle>
				</focus>
			</xRayTube>
			<sollerSlit id="21010002" name="Soller slits 0.04 rad.">
				<opening unit="rad">0.0400</opening>
			</sollerSlit>
			<mask id="22031000" name="Fixed mask 13 mm">
				<width unit="mm">9.00</width>
			</mask>
			<divergenceSlit id="22120001" name="Divergence slit 1°" xsi:type="fixedDivergenceSlitType">
				<distanceToSample unit="mm">50.00</distanceToSample>
				<height unit="mm">1.52</height>
			</divergenceSlit>
		</incidentBeamPath>
		<sampleMovement xsi:type="spinningSampleMovementType">
			<spinnerRevolutionTime unit="seconds">1.0</spinnerRevolutionTime>
		</sampleMovement>
		<diffractedBeamPath>
			<radius unit="mm">145.00</radius>
			<antiScatterSlit id="22090040" name="AS slit 9 mm (PIXcel)" xsi:type="fixedAntiScatterSlitType">
				<height unit="mm">9.00</height>
			</antiScatterSlit>
			<sollerSlit id="21020003" name="Large Soller slits 0.04 rad.">
				<opening unit="rad">0.0400</opening>
			</sollerSlit>
			<filter id="20030001" name="Large beta-filter Nickel">
				<material>Ni</material>
				<thickness unit="mm">0.020</thickness>
			</filter>
			<detector id="7010019" name="PIXcel1D-Medipix3 detector" xsi:type="rtmsDetectorType">
				<phd unit="keV">
					<lowerLevel>4.02</lowerLevel>
					<upperLevel>11.27</upperLevel>
				</phd>
				<mode>Scanning</mode>
				<activeLength unit="deg">5.542</activeLength>
			</detector>
		</diffractedBeamPath>
		<scan appendNumber="0" mode="Continuous" scanAxis="Gonio" status="Completed">
			<header>
				<startTimeStamp>2025-11-03T14:35:53-08:00</startTimeStamp>
				<endTimeStamp>2025-11-03T14:44:07-08:00</endTimeStamp>
				<author>
					<name>AutomatedUser</name>
				</author>
				<source>
					<applicationSoftware version="1.7b (136)">PANalytical Aeris Instrument Suite</applicationSoftware>
					<instrumentControlSoftware version="3.2.00000000 20240306">AERIS</instrumentControlSoftware>
					<instrumentID>950485</instrumentID>
				</source>
			</header>
			<dataPoints>
				<positions axis="2Theta" unit="deg">
					<startPosition>10.00943322</startPosition>
					<endPosition>99.99442286</endPosition>
				</positions>
				<positions axis="Omega" unit="deg">
					<startPosition>5.00471661</startPosition>
					<endPosition>49.99721143</endPosition>
				</positions>
				<commonCountingTime unit="seconds">12.495</commonCountingTime>
				<counts unit="counts">2798 2782 2895 2774 2713 2773 2814 2831 2817 2868 2793 2895 2796 2882 2818 2851 2872 2793 2783 2826 2822 2782 2803 2771 2878 2834 2744 2798 2854 2764 2853 2910 2849 2814 2826 2809 2918 2892 2845 2849 2904 2863 2750 2822 2769 2803 2817 2905 2824 2921 2793 2834 2826 2810 2780 2949 2790 2872 2976 2824 2942 2856 2890 2774 2891 2846 2823 2854 2855 2827 2993 2910 2863 2776 2770 2844 2816 2944 2902 2827 2919 2976 2903 2897 2912 2914 2859 2928 2850 2967 2770 2984 2919 2884 2966 2991 3045 2889 2849 2962 2938 2860 2959 2891 2933 2962 2860 3004 2811 3005 2931 2975 2977 2958 2939 2897 2995 3013 3047 2929 2990 2972 3066 2917 2953 2810 2905 2820 2858 2811 2903 2981 2955 2841 2887 2836 2809 2897 2904 2843 2825 2745 2842 2913 2994 2761 2895 2839 2835 2820 2750 2720 2881 2803 2907 2855 2843 2829 2832 2835 2778 2805 2829 2737 2753 2770 2810 2781 2799 2774 2876 2781 2651 2707 2783 2875 2782 2768 2802 2721 2816 2704 2719 2734 2767 2733 2777 2755 2666 2794 2737 2793 2790 2726 2720 2778 2729 2761 2758 2783 2746 2691 2675 2768 2710 2705 2710 2795 2693 2722 2868 2730 2704 2823 2656 2750 2684 2654 2722 2502 2796 2665 2719 2713 2671 2766 2576 2684 2763 2669 2674 2677 2750 2732 2801 2658 2719 2686 2847 2712 2731 2780 2680 2745 2611 2662 2733 2666 2742 2603 2676 2664 2662 2726 2639 2725 2712 2649 2689 2652 2816 2693 2657 2771 2666 2618 2657 2690 2773 2835 2727 2746 2631 2740 2686 2733 2661 2708 2657 2716 2666 2656 2792 2743 2715 2713 2769 2729 2731 2674 2670 2684 2768 2802 2786 2738 2775 2713 2753 2626 2780 2649 2880 2730 2780 2738 2739 2779 2716 2867 2729 2798 2910 2836 2837 2862 2937 2882 2847 2946 2823 2804 2889 2887 2908 2894 2967 2873 2935 2947 2945 2944 2877 2922 2941 2942 2916 2928 2912 3007 2990 2958 2924 3106 2967 3089 3062 3083 3024 3021 2963 3074 3104 3103 3140 3123 3061 3159 2962 3078 3087 3121 3100 3083 3041 3054 3087 3042 3147 3043 3027 3056 3197 3113 3183 3209 3170 3250 3167 3145 3271 3185 3278 3174 3204 3238 3204 3312 3257 3294 3182 3272 3297 3299 3229 3401 3385 3336 3344 3263 3354 3319 3327 3295 3354 3469 3471 3369 3384 3327 3387 3465 3376 3476 3552 3525 3646 3553 3605 3720 3729 3635 3718 3842 3759 3921 3962 3959 4114 4159 4196 4297 4342 4388 4322 4584 4622 4721 4746 4821 4720 4801 4916 5148 5075 5135 5282 5275 5310 5418 5391 5503 5501 5592 5376 5393 5462 5491 5519 5445 5370 5286 5359 5316 5354 5433 5338 5226 5428 5379 5392 5520 5598 5524 5458 5396 5424 5535 5447 5540 5452 5543 5306 5322 5112 5090 5156 4979 4899 4690 4592 4640 4544 4370 4258 4243 4065 3906 3718 3876 3747 3708 3566 3500 3534 3421 3385 3413 3375 3336 3313 3200 3142 3228 3166 3172 3224 3192 3187 3127 3176 3010 3126 3058 3133 3007 3087 3076 2990 3069 2982 3100 3076 3044 3035 3048 2840 3140 2915 3042 3025 2951 2974 2904 3066 2879 2895 2904 2971 2877 2983 2920 2924 3088 3008 2949 2972 3065 2997 3010 2904 2903 2961 2934 2877 2878 2897 2909 2857 2895 2978 2868 2821 2833 2923 2754 2929 2911 2870 2828 2864 2901 2767 2769 2782 2797 2892 2943 2766 2765 2904 2928 2826 2793 2766 2891 2811 2817 2764 2843 2746 2718 2811 2858 2797 2783 2818 2835 2756 2700 2772 2824 2714 2741 2817 2788 2743 2806 2745 2851 2753 2753 2859 2833 2748 2798 2812 2806 2779 2773 2800 2864 2780 2789 2781 2834 2796 2878 2825 2736 2761 2799 2712 2783 2746 2772 2803 2861 2713 2910 2848 2844 2917 2848 2891 2874 2891 2889 2709 2721 2771 2815 2843 2698 2808 2799 2733 2742 2865 2708 2761 2688 2740 2755 2778 2827 2762 2727 2691 2739 2752 2761 2767 2735 2697 2710 2669 2755 2720 2821 2717 2747 2664 2640 2583 2753 2761 2690 2652 2778 2718 2728 2702 2676 2745 2585 2723 2660 2656 2722 2739 2687 2670 2579 2732 2624 2760 2669 2683 2724 2695 2750 2611 2733 2711 2717 2640 2756 2563 2746 2539 2672 2700 2662 2725 2649 2659 2706 2732 2615 2721 2709 2600 2729 2642 2609 2554 2646 2624 2631 2527 2672 2676 2765 2597 2742 2595 2650 2578 2668 2659 2643 2669 2673 2740 2621 2575 2663 2620 2684 2736 2641 2653 2611 2602 2630 2624 2491 2645 2596 2566 2605 2649 2604 2582 2598 2654 2629 2685 2601 2576 2551 2503 2548 2581 2521 2606 2503 2534 2538 2526 2693 2508 2566 2559 2552 2543 2532 2578 2548 2579 2542 2605 2603 2525 2575 2584 2529 2500 2582 2561 2502 2517 2537 2529 2486 2472 2577 2530 2558 2490 2520 2475 2488 2476 2516 2478 2556 2514 2562 2536 2519 2595 2500 2458 2513 2375 2457 2385 2399 2581 2465 2592 2452 2428 2488 2464 2436 2530 2540 2437 2398 2530 2482 2337 2383 2450 2386 2405 2339 2480 2445 2431 2503 2470 2352 2402 2414 2377 2280 2436 2381 2453 2332 2359 2295 2357 2360 2366 2402 2352 2332 2385 2327 2337 2454 2346 2395 2250 2334 2310 2392 2315 2347 2457 2290 2368 2309 2335 2363 2342 2355 2329 2456 2287 2320 2304 2318 2337 2395 2407 2325 2322 2365 2313 2355 2297 2406 2306 2354 2263 2190 2243 2349 2338 2320 2234 2322 2324 2253 2316 2315 2329 2339 2383 2242 2318 2281 2307 2235 2333 2283 2225 2377 2385 2294 2280 2209 2226 2299 2263 2282 2255 2376 2260 2307 2247 2225 2266 2276 2319 2275 2229 2362 2196 2242 2214 2185 2221 2320 2285 2279 2296 2282 2257 2296 2351 2308 2267 2334 2200 2130 2258 2300 2339 2341 2249 2311 2295 2237 2179 2307 2196 2171 2314 2293 2254 2281 2272 2234 2222 2259 2230 2217 2193 2251 2231 2294 2395 2290 2267 2255 2282 2249 2265 2243 2146 2189 2301 2286 2259 2288 2273 2237 2226 2174 2200 2316 2273 2255 2267 2206 2242 2235 2285 2220 2276 2241 2222 2270 2337 2266 2275 2193 2186 2219 2247 2362 2317 2294 2366 2290 2240 2219 2333 2298 2234 2255 2214 2244 2158 2265 2316 2303 2315 2149 2339 2312 2193 2247 2251 2252 2256 2257 2122 2379 2304 2227 2234 2326 2293 2227 2235 2208 2263 2264 2251 2276 2279 2339 2178 2206 2279 2263 2233 2174 2174 2093 2138 2332 2256 2217 2215 2204 2291 2189 2167 2203 2208 2245 2155 2131 2278 2143 2155 2176 2080 2169 2178 2148 2186 2238 2207 2205 2193 2069 2151 2129 2064 2260 2206 2081 2213 2129 2148 2105 2170 2095 2020 2126 2087 2122 2066 1955 2074 2149 2062 2154 2082 2061 2071 2070 2021 2047 2025 2115 2032 2072 1956 1934 1945 1974 2003 2058 2048 2001 2100 2044 2019 2042 1993 2010 2063 2051 1961 2009 1917 2044 1994 1994 2027 1885 1980 1851 1910 1940 2013 2070 1917 1959 1919 1873 1910 1931 1925 1888 2000 1839 1917 1848 1935 1935 1813 1941 1831 1805 1824 1818 1827 1855 1781 1808 1863 1844 1876 1886 1861 1806 1802 1828 1783 1792 1811 1797 1762 1802 1814 1765 1798 1698 1748 1699 1735 1768 1736 1685 1775 1771 1745 1755 1767 1712 1708 1701 1722 1746 1701 1656 1679 1754 1671 1698 1664 1673 1670 1755 1618 1736 1655 1780 1713 1704 1731 1631 1658 1684 1672 1682 1694 1749 1632 1675 1653 1602 1669 1648 1663 1736 1611 1649 1608 1691 1594 1646 1689 1663 1619 1637 1623 1564 1667 1682 1555 1630 1576 1656 1666 1582 1631 1625 1666 1601 1539 1527 1680 1594 1594 1603 1603 1600 1600 1656 1670 1566 1622 1542 1586 1539 1653 1640 1585 1605 1506 1616 1603 1583 1627 1576 1613 1516 1552 1571 1616 1611 1586 1591 1563 1541 1500 1527 1608 1610 1626 1551 1517 1593 1577 1587 1551 1587 1526 1555 1549 1482 1492 1541 1488 1540 1546 1504 1573 1560 1572 1506 1500 1511 1573 1526 1597 1545 1577 1535 1519 1527 1582 1487 1511 1599 1523 1545 1530 1557 1584 1559 1573 1516 1459 1522 1519 1542 1534 1609 1540 1555 1512 1527 1516 1532 1619 1561 1546 1614 1548 1568 1549 1509 1557 1514 1565 1586 1536 1549 1571 1583 1547 1669 1510 1474 1525 1460 1574 1547 1548 1582 1419 1582 1518 1548 1520 1552 1543 1555 1588 1591 1542 1607 1557 1562 1576 1526 1560 1581 1518 1596 1564 1565 1555 1633 1594 1629 1537 1601 1622 1601 1520 1549 1555 1600 1624 1613 1608 1617 1633 1629 1614 1603 1646 1672 1670 1648 1570 1632 1614 1648 1606 1582 1703 1588 1614 1594 1619 1580 1644 1623 1689 1636 1615 1642 1538 1581 1730 1659 1642 1549 1579 1604 1628 1566 1619 1539 1551 1584 1544 1518 1486 1533 1568 1550 1516 1560 1492 1545 1500 1577 1524 1511 1570 1481 1553 1495 1453 1442 1531 1455 1415 1475 1518 1507 1524 1458 1486 1472 1431 1543 1431 1521 1386 1456 1422 1486 1431 1417 1472 1372 1452 1412 1459 1397 1360 1357 1424 1419 1395 1421 1335 1334 1404 1450 1366 1336 1391 1425 1358 1366 1367 1359 1402 1386 1330 1323 1333 1401 1300 1367 1343 1312 1335 1334 1377 1368 1336 1300 1326 1274 1316 1427 1240 1259 1295 1343 1305 1216 1305 1257 1306 1321 1288 1268 1215 1339 1300 1253 1239 1259 1267 1269 1244 1181 1251 1279 1246 1181 1136 1238 1279 1241 1265 1196 1231 1265 1207 1277 1219 1214 1168 1250 1204 1260 1247 1219 1165 1248 1151 1229 1162 1173 1229 1233 1212 1208 1213 1185 1147 1172 1161 1162 1171 1227 1201 1186 1265 1151 1229 1113 1158 1174 1145 1224 1233 1206 1148 1187 1231 1180 1182 1154 1211 1180 1211 1242 1206 1182 1201 1218 1213 1217 1252 1256 1253 1278 1276 1253 1338 1289 1328 1318 1361 1348 1352 1383 1378 1423 1444 1526 1401 1410 1507 1501 1496 1562 1369 1493 1457 1470 1425 1454 1496 1466 1465 1512 1401 1344 1354 1347 1292 1259 1332 1306 1352 1255 1289 1244 1289 1230 1248 1211 1234 1248 1218 1219 1251 1267 1237 1167 1204 1248 1266 1183 1271 1198 1234 1146 1105 1183 1153 1167 1218 1173 1147 1173 1173 1106 1108 1143 1147 1207 1178 1165 1164 1136 1160 1136 1123 1214 1108 1118 1120 1151 1150 1170 1089 1154 1144 1156 1205 1201 1223 1260 1244 1251 1266 1341 1298 1444 1427 1438 1533 1574 1664 1721 1775 1989 2035 2194 2306 2556 2680 2860 2965 3247 3443 3743 3730 3921 4255 4527 4642 4783 4938 5214 5291 5299 5473 5807 5759 5880 6121 5963 5819 5850 5819 5874 5946 5683 5580 5515 5465 5154 5220 5002 4860 4699 4594 4460 4372 4179 4189 4002 4056 3839 3828 3779 3666 3592 3401 3230 3222 3137 3029 2965 2794 2847 2793 2604 2525 2321 2247 2157 2096 2067 1986 1874 1785 1707 1695 1623 1615 1583 1593 1599 1564 1526 1553 1501 1497 1427 1430 1411 1460 1386 1399 1350 1423 1318 1341 1390 1336 1321 1285 1373 1208 1293 1260 1259 1229 1271 1220 1233 1145 1100 1103 1111 1130 1055 1103 1081 1092 1088 1080 1002 1017 926 941 983 1008 1017 1008 946 960 937 999 921 909 933 875 916 857 893 870 923 898 962 933 917 861 892 918 889 917 941 888 879 894 905 902 888 902 909 863 909 932 835 863 916 874 869 907 960 900 939 943 903 843 879 837 839 931 906 891 862 912 874 884 900 937 916 894 895 911 886 814 812 832 847 860 841 879 827 868 893 852 818 892 875 810 882 829 878 833 893 843 839 918 809 867 833 799 807 861 825 898 809 892 831 863 861 847 874 861 929 853 914 892 839 801 813 818 840 813 835 828 797 804 868 828 873 837 900 814 883 905 838 857 821 822 843 857 890 862 845 875 843 839 865 845 829 871 842 891 860 871 887 865 845 839 869 859 832 859 829 832 813 870 886 869 919 834 872 862 884 931 852 910 861 924 889 903 928 847 884 865 882 925 930 893 881 879 880 919 922 900 938 886 877 923 940 1003 930 974 1005 1031 924 962 1010 909 996 1006 1025 974 1063 1068 1029 1088 1045 1107 1102 1108 1113 1096 1142 1232 1231 1173 1193 1251 1280 1253 1333 1239 1272 1246 1306 1246 1261 1247 1295 1257 1308 1297 1363 1267 1269 1195 1187 1238 1220 1219 1244 1236 1189 1198 1183 1192 1225 1170 1178 1155 1156 1112 1175 1142 1154 1116 1051 1135 1138 1124 1109 1092 1129 1120 1075 1108 1111 1117 1093 1071 1098 1069 1017 1049 1104 1056 1092 1099 1061 1064 1091 1148 1084 1160 1154 1106 1200 1156 1216 1201 1212 1200 1233 1311 1253 1380 1368 1358 1358 1396 1491 1601 1640 1694 1725 1840 1986 2111 2170 2371 2495 2536 2674 2967 3072 3215 3431 3559 3862 3966 4177 4301 4527 4642 4798 5013 5132 5367 5537 5621 5528 5617 5848 6027 6013 6107 6108 5933 6033 6150 6134 6303 5980 6030 5960 5991 5914 5701 5702 5804 5510 5575 5521 5306 5486 5132 5251 4995 4989 5071 4976 4956 4874 4820 4901 4847 4694 4764 4483 4572 4401 4374 4128 4086 3981 3685 3681 3526 3398 3286 3166 2979 2912 2701 2728 2569 2349 2342 2345 2236 2145 2039 2061 1966 1876 1870 1787 1774 1741 1652 1643 1569 1529 1426 1525 1504 1367 1385 1302 1288 1297 1281 1224 1192 1198 1161 1118 1093 1106 1053 1078 1080 1041 1016 961 986 979 1005 934 866 908 928 891 915 865 909 912 841 882 808 870 899 826 866 849 812 806 874 794 829 849 851 846 811 759 716 781 854 743 799 804 838 773 758 773 772 828 771 765 723 792 731 789 777 684 750 739 732 700 688 728 689 741 753 699 783 771 714 685 717 739 772 750 727 686 686 748 681 718 680 722 663 658 726 675 658 704 727 698 732 661 686 701 704 690 708 710 695 705 657 728 662 735 697 704 714 672 641 716 691 665 683 746 644 647 677 660 640 656 703 655 667 685 652 617 703 642 657 656 611 679 697 716 666 697 648 698 652 645 653 695 627 653 660 659 608 648 657 677 672 631 606 676 635 647 652 622 622 650 594 685 613 653 609 629 608 638 618 686 659 696 621 697 653 626 625 635 655 609 652 611 655 631 608 623 578 614 622 659 583 566 610 630 681 636 643 662 631 614 635 652 649 644 634 611 664 651 662 639 612 620 600 643 639 683 642 676 689 618 675 710 630 671 660 705 659 612 671 628 632 632 622 654 669 695 619 623 650 645 620 644 586 638 613 614 641 638 651 614 576 666 598 629 618 628 666 628 631 611 613 570 645 607 610 619 637 603 633 609 583 569 586 540 581 596 616 593 598 577 612 599 570 607 599 626 578 599 570 611 610 599 594 561 556 609 587 568 617 557 576 567 558 580 579 606 562 604 566 533 509 579 580 560 591 571 551 560 573 558 554 552 570 569 562 568 597 554 561 565 537 580 579 581 592 537 553 571 545 530 499 545 571 555 536 560 576 554 550 551 552 563 512 603 568 554 548 526 577 571 536 504 537 560 520 581 568 524 573 553 547 544 524 548 557 537 560 557 507 548 562 480 547 556 522 526 532 553 557 486 510 543 529 572 537 492 544 573 495 520 527 490 563 598 529 578 547 552 510 548 548 557 523 592 556 547 505 560 513 552 545 523 514 523 579 543 500 527 546 482 516 561 485 520 538 529 533 530 540 521 516 560 551 497 555 540 526 516 513 526 487 514 490 554 480 519 551 531 509 527 513 536 502 521 530 496 564 537 530 548 525 509 526 537 528 510 514 496 536 558 519 474 531 544 578 524 564 524 529 540 520 494 564 509 504 551 486 524 499 503 567 494 501 528 517 501 533 540 492 537 571 492 528 558 537 559 551 534 502 534 541 532 491 576 532 507 521 494 531 480 545 509 526 523 563 543 513 499 511 516 483 498 548 569 522 552 540 482 541 502 512 538 565 525 529 500 494 509 502 529 499 509 605 522 541 480 539 536 539 525 524 524 515 519 550 539 577 556 548 543 539 507 551 557 518 539 535 451 534 471 559 549 560 520 518 528 504 517 530 531 523 532 507 543 519 561 511 561 512 512 493 567 517 536 541 517 555 549 528 551 527 603 538 554 530 525 533 501 564 506 549 533 576 541 520 567 543 555 512 547 531 561 530 516 571 600 508 542 514 552 598 490 559 561 549 601 550 566 570 531 557 541 522 558 616 590 578 602 556 626 563 614 607 592 630 602 617 536 615 589 602 569 613 598 602 631 624 586 626 599 670 655 608 678 646 646 642 607 644 636 641 628 657 674 640 613 612 671 647 619 690 640 642 613 621 580 617 590 567 616 567 606 637 641 583 590 567 576 582 573 597 625 591 570 606 550 550 545 603 556 584 575 509 555 534 525 528 562 579 572 561 594 523 539 564 524 523 501 508 555 525 556 544 535 553 539 543 543 555 566 522 522 552 532 519 535 546 547 516 547 527 538 522 538 504 538 537 487 516 562 505 511 531 523 488 529 518 501 471 472 495 505 482 531 503 524 511 497 502 538 528 510 546 497 521 510 476 510 521 434 478 490 500 536 511 483 499 510 530 512 481 488 486 490 493 519 495 495 463 510 521 475 478 530 491 511 513 528 495 495 500 527 543 500 480 480 489 512 472 504 493 520 499 502 486 517 498 481 458 511 522 506 496 513 555 542 525 521 493 519 530 532 592 611 562 595 607 648 612 630 671 626 649 652 683 687 711 716 785 738 753 788 825 773 874 839 874 838 877 867 859 894 824 835 840 821 869 842 818 848 806 789 756 812 790 759 740 726 711 679 695 715 670 662 657 587 671 599 614 631 588 610 585 625 553 591 580 597 597 634 566 641 571 559 634 548 559 586 545 525 527 553 594 552 554 549 522 566 554 539 528 522 534 565 543 562 580 582 572 558 563 610 569 578 534 564 588 588 580 620 569 556 540 594 595 550 557 584 568 552 553 517 574 512 582 507 580 491 550 549 499 490 542 494 500 482 516 510 511 472 491 448 504 497 480 462 513 441 518 449 477 484 542 473 484 449 439 474 466 472 490 457 449 465 508 464 477 492 476 468 428 439 465 447 430 467 405 478 466 474 450 486 457 455 473 440 434 465 470 469 443 449 446 456 479 455 417 448 404 441 462 424 441 469 467 459 437 427 432 455 416 454 419 428 388 431 443 442 443 452 428 424 421 423 426 393 439 439 437 453 458 418 443 432 440 418 462 451 444 447 458 470 401 420 457 426 466 404 456 438 447 437 435 398 438 440 437 439 414 459 480 428 458 439 443 432 471 482 406 464 411 441 450 493 459 490 458 478 452 479 519 447 483 416 467 480 505 490 457 511 490 464 484 457 486 510 513 490 508 480 482 479 493 467 465 447 445 503 514 451 434 498 467 452 499 488 467 439 458 454 459 462 489 462 423 492 503 433 487 437 478 468 477 452 449 488 456 470 452 451 438 488 477 433 479 457 457 447 468 511 484 475 429 516 468 492 471 505 509 475 458 481 441 481 479 485 490 531 529 462 468 494 498 509 538 498 524 584 524 638 576 587 598 589 556 593 556 664 643 709 742 780 777 841 909 979 1015 991 1119 1190 1173 1310 1398 1577 1571 1626 1772 1934 1950 1988 2209 2179 2253 2408 2537 2612 2590 2743 2743 2817 2858 2988 2896 2854 2898 2984 3010 2942 2932 2915 2832 2759 2766 2639 2625 2615 2497 2523 2359 2353 2217 2178 2096 1988 1907 1960 1841 1685 1692 1597 1574 1619 1571 1526 1593 1541 1552 1535 1510 1617 1643 1649 1685 1682 1679 1780 1785 1829 1861 1888 1902 1833 1781 1824 1795 1738 1745 1706 1620 1632 1504 1499 1460 1515 1408 1399 1381 1259 1342 1261 1249 1192 1113 1099 1119 1081 1138 1034 1088 1014 1068 987 963 1008 921 910 995 954 963 937 899 885 928 915 853 887 845 802 898 873 803 788 749 788 757 801 752 729 730 694 665 726 664 661 639 609 617 638 635 646 546 566 559 567 516 579 551 536 586 528 529 540 487 518 511 473 479 532 456 498 435 468 464 461 489 469 430 482 446 475 461 481 469 426 446 433 462 475 455 439 466 466 461 481 508 464 458 448 458 475 455 405 432 414 460 448 425 454 435 455 452 447 444 448 469 430 438 426 422 500 465 456 477 423 464 426 472 473 487 461 479 491 514 510 486 492 537 493 570 565 538 514 517 519 584 544 625 591 605 608 608 598 625 640 660 670 691 782 737 754 789 813 837 842 828 889 914 944 998 916 941 935 1028 985 964 947 927 974 947 953 890 880 909 957 894 833 768 762 775 791 782 695 682 624 677 620 585 638 625 603 582 625 520 547 554 571 498 473 563 545 549 512 535 474 522 486 540 490 503 463 493 484 532 500 478 468 496 489 476 476 471 483 475 490 468 481 457 473 450 466 461 434 440 406 449 455 437 411 455 429 422 427 424 413 441 428 445 410 407 394 443 414 421 416 415 403 407 400 447 431 407 437 399 404 441 390 413 406 426 429 430 433 391 357 431 411 401 435 428 409 385 390 417 364 389 359 381 388 397 395 401 402 359 433 408 371 401 358 344 379 385 348 380 383 397 375 403 377 380 393 377 404 403 386 372 381 371 375 401 370 400 404 399 417 397 385 363 362 368 381 381 374 363 402 408 390 402 387 375 347 401 353 393 395 408 386 370 387 387 381 378 399 386 360 410 410 391 400 383 414 384 372 417 353 371 395 402 396 372 403 419 415 429 363 412 379 446 425 436 417 416 454 500 468 514 478 462 565 507 471 493 496 497 519 513 460 511 492 513 471 503 514 504 451 482 472 463 472 469 466 438 396 411 434 468 399 441 383 424 390 435 418 380 390 379 375 400 392 372 381 385 404 386 403 386 360 377 398 383 378 377 376 364 378 366 424 373 385 366 397 375 351 388 351 377 430 381 434 349 370 427 390 374 368 400 392 411 397 427 399 375 401 407 392 425 395 413 414 384 401 392 390 412 409 407 433 378 391 378 385 369 398 384 424 396 392 381 401 361 415 386 402 404 384 440 408 397 389 422 402 459 406 417 414 378 420 410 400 363 411 406 421 403 381 403 403 415 390 382 387 396 411 424 388 414 353 409 397 376 383 412 371 357 369 382 377 398 372 379 422 382 373 414 339 393 388 349 356 383 397 378 374 332 335 338 413 345 377 335 340 359 402 351 383 387 355 347 363 354 343 327 362 384 330 367 364 344 366 375 345 366 347 358 390 328 384 356 336 374 377 359 365 372 365 357 299 347 348 361 311 363 350 334 329 353 316 350 343 344 347 354 352 357 330 360 327 332 322 339 335 334 312 323 334 383 362 339 360 350 351 332 336 340 344 359 351 323 342 320 344 336 308 313 332 318 340 362 335 339 340 359 307 327 325 371 338 356 336 331 343 316 328 318 326 328 301 339 353 346 332 342 360 350 361 333 337 335 320 324 389 370 332 345 366 371 361 395 358 313 371 349 360 350 408 366 400 367 352 376 382 368 375 353 353 376 369 382 392 371 394 351 404 392 411 370 378 392 360 379 387 394 397 421 372 399 416 416 405 405 399 411 427 415 447 440 434 414 470 490 484 469 516 525 501 527 575 582 618 607 655 664 697 682 756 735 750 747 792 818 796 806 810 853 883 849 889 878 870 862 936 958 938 911 973 870 956 957 952 894 951 902 901 843 837 778 800 760 777 790 770 729 772 756 695 694 678 670 676 625 638 670 603 615 633 651 596 630 605 619 628 636 688 713 696 768 673 816 784 809 822 793 864 848 859 889 884 876 855 920 887 890 908 829 867 841 847 799 824 720 706 699 733 703 704 714 626 631 615 589 551 581 543 542 537 495 536 535 473 434 427 416 435 419 440 432 440 390 431 423 418 400 399 402 430 382 387 409 327 389 368 369 412 358 389 369 380 404 342 373 391 391 363 342 328 343 332 362 346 374 348 342 347 318 379 325 357 357 355 336 357 365 336 328 326 337 319 353 381 324 323 311 330 355 339 336 337 332 363 297 336 340 306 289 339 340 368 327 332 331 330 334 353 344 360 322 312 358 296 334 331 356 321 322 365 318 331 356 352 323 318 351 328 336 332 338 381 348 347 341 401 411 333 388 372 380 350 378 359 373 349 333 340 390 351 356 354 361 396 379 403 376 413 386 385 412 383 376 400 409 392 414 403 428 450 494 449 440 485 501 500 534 520 564 608 619 595 688 693 701 660 731 782 774 793 800 860 882 967 978 973 961 941 1021 1029 1008 995 952 991 976 1017 987 1023 1041 1005 984 997 981 970 996 963 906 939 920 895 857 816 857 758 788 747 741 745 717 665 635 662 687 632 644 610 640 552 563 557 587 557 538 602 530 555 587 592 574 586 614 645 642 645 656 665 681 667 668 681 708 668 633 670 663 680 627 640 636 648 660 650 565 655 595 551 558 614 547 583 565 531 480 512 527 506 511 455 456 472 459 497 465 472 491 458 448 476 456 451 464 457 447 407 428 403 452 426 474 436 482 418 392 417 445 458 415 448 436 460 421 455 464 429 425 416 458 464 443 447 486 426 461 458 443 424 421 458 442 461 459 437 461 409 462 477 447 458 433 460 446 441 435 417 464 453 462 439 433 445 467 498 446 517 480 447 458 455 480 463 498 482 453 462 472 488 473 434 463 540 495 496 498 482 512 489 506 502 533 509 497 508 501 469 553 513 520 504 510 540 494 509 503 471 475 495 511 466 468 477 503 472 468 479 428 467 466 467 438 441 411 394 418 408 433 403 405 439 412 414 380 408 381 377 343 358 359 349 337 357 384 370 350 357 334 349 337 344 368 371 344 360 357 338 326 339 343 383 355 354 363 371 323 353 342 356 325 349 279 314 342 296 375 331 334 335 337 317 303 305 299 330 323 328 338 334 328 361 307 300 306 320 340 324 300 300 303 294 289 332 348 302 331 299 312 318 339 342 313 307 310 338 307 325 350 351 307 300 349 324 320 327 332 334 329 351 329 322 322 338 318 323 305 299 350 317 295 315 313 301 346 313 343 294 272 334 327 306 294 294 306 296 272 278 306 332 283 332 308 313 314 297 284 304 270 288 292 274 280 308 274 296 272 290 274 263 302 300 268 285 275 272 276 260 249 322 280 275 259 269 285 273 283 286 267 261 263 266 275 295 273 272 301 244 246 291 259 282 237 242 277 280 245 260 266 284 276 283 279 241 259 280 274 267 262 244 268 305 271 293 278 263 301 267 270 214 270 291 271 245 288 282 249 286 245 292 256 246 276 242 276 278 294 264 243 285 263 263 271 269 267 278 286 271 277 239 260 269 248 297 269 296 249 258 244 267 258 260 233 289 263 265 285 248 256 247 283 250 280 280 290 299 289 289 287 289 240 239 237 257 265 230 256 268 256 279 285 280 282 286 284 256 281 291 275 260 285 263 242 231 248 234 275 279 272 250 230 272 274 239 221 273 246 274 247 274 246 236 297 261 281 257 230 238 242 265 271 262 241 247 295 237 282 251 260 277 273 261 224 298 294 243 258 283 300 242 262 243 263 258 262 244 265 278 248 259 280 261 243 241 272 235 247 245 284 242 249 244 263 290 282 244 244 291 272 294 241 275 278 275 275 270 270 280 236 250 265 238 246 282 250 239 292 244 236 260 222 270 276 237 264 268 263 240 268 244 269 288 278 264 238 283 233 246 222 270 264 240 274 238 278 257 211 231 293 239 276 243 274 233 248 206 242 267 271 280 259 270 245 284 259 240 259 235 275 276 235 268 259 263 258 268 264 263 297 283 278 244 272 297 286 281 262 317 277 294 293 307 288 306 301 284 335 310 306 308 333 293 288 314 299 313 323 344 315 327 317 325 363 315 311 322 337 313 348 292 309 295 280 307 316 340 315 291 319 297 289 335 327 290 314 336 310 330 315 288 300 310 291 284 299 290 308 284 279 300 286 276 297 299 284 261 293 295 246 319 300 296 265 311 298 298 269 296 263 304 305 313 312 300 270 261 258 275 241 321 278 290 274 275 295 285 276 240 263 276 280 257 249 258 260 269 260 276 267 246 256 294 270 251 265 292 285 258 274 281 272 271 284 270 270 273 249 258 251 218 233 259 280 291 235 265 242 246 221 287 267 245 245 264 265 275 266 237 272 256 259 250 240 259 267 280 281 225 268 258 245 236 246 241 233 241 270 259 259 211 242 239 275 232 258 276 244 264 263 250 257 248 248 243 232 245 228 233 217 240 224 257 261 234 240 242 270 248 208 234 249 229 263 230 221 226 246 240 207 241 231 263 241 274 220 268 248 263 236 265 256 261 262 268 212 232 233 291 240 270 244 242 236 238 232 249 240 279 258 241 238 227 256 241 229 262 280 226 268 282 238 226 260 273 237 280 250 276 250 273 267 262 241 276 265 260 284 270 237 262 262 247 271 284 271 285 274 267 281 282 296 238 310 290 260 281 301 286 328 296 298 283 291 302 294 303 312 375 355 377 359 378 354 375 332 399 393 379 383 398 396 374 400 400 415 394 414 424 491 439 430 443 413 444 438 445 455 409 439 477 441 407 444 422 474 416 451 401 414 386 436 416 392 414 433 394 383 341 388 358 402 400 387 360 378 377 365 344 357 339 336 295 319 315 323 312 336 342 342 322 312 365 333 299 320 316 290 308 364 282 296 331 358 327 342 349 330 361 392 388 341 367 367 387 371 382 427 374 388 381 358 390 406 383 359 403 398 364 377 393 354 372 354 353 381 340 358 360 343 313 321 344 323 331 322 325 272 307 304 319 313 314 291 310 293 279 267 299 293 266 263 281 284 263 294 248 304 280 271 273 335 247 257 272 244 336 247 288 286 244 276 277 276 269 238 290 248 280 249 245 264 264 256 268 280 266 291 276 267 244 282 269 272 278 233 261 272 246 259 276 227 262 242 241 229 241 282 270 272 256 270 240 272 250 258 230 265 269 228 274 249 272 226 247 245 232 275 245 282 257 267 243 238 257 223 263 256 245 250 263 272 242 249 232 242 215 216 209 230 230 217 234 246 265 265 232 240 231 213 213 231 233 221 201 199 224 223 231 218 228 238 202 248 270 237 246 240 248 213 256 213 246 201 217 199 234 226 222 223 213 201 234 216 194 218 223 221 246 231 220 218 229 232 232 265 226 229 217 224 210 212 199 225 225 243 219 205 238 249 228 240 229 229 220 233 195 221 235 250 238 207 231 231 230 248 242 232 243 222 229 245 225 210 266 228 235 237 221 225 200 291 260 220 224 197 262 233 222 240 240 227 226 241 247 224 224 239 265 232 247 225 220 240 240 223 235 221 243 242 235 246 243 219 228 267 235 278 238 242 231 228 259 225 234 245 234 242 260 223 242 221 229 246 241 260 241 221 250 222 260 234 249 235 216 229 230 218 230 240 230 227 218 230 244 243 259 238 225 219 248 233 256 226 221 236 218 232 220 217 221 226 233 234 244 228 258 226 226 224 236 227 211 223 223 210 229 256 230 245 238 239 218 234 245 226 218 222 225 233 241 248 225 241 244 224 210 215 228 217 231 244 240 263 256 223 232 261 216 245 231 250 207 250 226 207 227 249 228 229 242 249 241 270 240 214 214 239 221 225 238 227 240 269 224 229 198 234 212 264 249 241 222 236 210 240 225 216 216 232 211 205 225 219 234 229 199 222 207 202 264 215 229 213 215 271 243 259 226 227 230 205 216 240 234 239 260 218 244 229 238 210 236 246 236 238 250 244 214 240 235 240 227 223 222 215 226 223 245 241 245 242 237 194 246 212 211 236 247 225 247 236 202 202 216 248 239 245 219 228 232 229 235 243 213 239 250 237 245 199 238 225 220 261 227 242 221 239 228 219 238 232 262 206 266 236 211 222 239 231 243 211 225 257 203 268 265 238 233 237 201 244 233 232 265 249 267 206 226 247 217 244 298 263 242 268 236 237 249 262 249 247 287 294 262 279 230 298 265 283 272 234 290 274 278 287 293 289 301 302 308 283 278 300 271 302 304 322 303 309 277 312 279 298 293 311 302 325 308 310 321 285 299 306 308 300 303 299 324 330 331 311 325 319 372 346 339 347 343 329 357 340 343 366 376 318 360 368 389 401 346 343 361 341 321 402 362 397 386 403 379 365 396 327 405 370 406 395 389 407 406 386 386 405 388 401 368 436 387 384 386 407 384 363 417 395 383 365 347 355 350 389 381 338 355 340 354 371 358 357 351 311 323 324 330 334 349 298 311 309 281 315 330 287 288 317 303 262 325 276 274 322 301 293 295 279 305 317 323 316 297 305 339 326 335 322 367 354 352 360 379 364 361 348 353 412 382 410 401 448 470 417 416 428 427 413 400 401 423 431 405 387 405 407 392 370 379 386 372 359 372 369 375 367 388 365 358 355 361 383 330 305 329 332 315 338 344 332 303 312 281 290 300 295 285 292 277 287 313 277 299 268 291 291 283 258 263 271 280 234 282 283 276 263 288 298 324 278 300 272 271 279 295 265 256 249 285 287 271 265 280 273 281 299 287 284 274 267 273 293 271 278 303 276 301 263 283 313 283 298 298 303 315 294 314 297 314 334 305 326 333 344 384 300 377 374 376 366 406 360 384 383 429 398 417 430 403 451 461 477 473 487 494 473 492 503 485 519 459 526 533 519 560 539 563 574 562 560 556 566 595 616 592 659 630 642 571 665 626 609 610 622 650 640 661 644 634 622 610 599 557 601 636 590 623 609 593 560 547 544 534 538 545 526 493 554 520 547 505 507 490 463 421 456 431 419 428 455 430 452 393 378 372 407 361 331 376 394 385 364 384 366 374 324 420 337 368 342 353 383 372 394 388 372 443 400 424 414 406 397 434 439 432 469 481 470 457 480 493 476 461 476 461 524 484 492 485 497 488 480 511 499 478 504 420 498 500 447 511 480 478 448 479 447 440 405 456 454 421 443 443 419 393 411 431 431 377 403 383 386 378 377 401 382 390 387 375 364 336 367 389 374 353 365 335 342 397 354 364 366 370 397 333 327 319 354 389 346 347 355 334 362 319 352 381 331 357 393 353 324 347 377 334 349 357 361 330 376 376 369 312 378 364 382 343 339 341 345 331 323 362 317 348 338 343 327 337 327 351 329 337 289 341 305 336 321 298 329 321 312 281 325 283 320 309 237 291 290 311 299 277 282 298 278 263 272 282 259 247 281 270 270 288 262 238 259 256 238 239 287 278 261 266 282 282 282 303 292 242 269 248 247 276 246 240 267 306 249 246 276 260 280 273 308 246 245 258 257 270 270 267 271 260 271 226 262 239 215 251 284 244 296 263 274 259 233 256 262 272 272 283 262 288 280 277 261 265 286 290 282 269 290 270 244 288 279 270 284 294 302 276 276 298 261 279 293 271 281 305 299 281 264 293 274 336 292 296 306 298 307 337 314 332 285 311 358 291 330 341 342 343 359 327 319 334 321 347 340 350 348 330 337 336 357 327 356 349 315 354 346 329 351 323 338 342 350 313 318 343 337 302 349 301 303 304 323 288 305 326 301 315 305 297 307 314 296 308 275 289 285 317 286 257 262 318 233 261 232 260 259 265 260 240 247 274 262 272 272 271 217 264 268 245 289 277 269 245 235 214 214 268 229 224 233 234 249 233 244 202 224 228 232 218 261 229 236 235 229 285 234 258 212 235 244 275 249 203 222 274 267 221 269 241 224 257 246 278 246 228 232 238 212 219 249 246 256 245 234 256 225 278 242 231 233 240 265 197 268 238 263 241 243 210 225 204 236 241 209 260 205 228 234 215 239 232 234 217 245 221 219 227 231 239 234 234 205 237 240 242 235 222 261 206 229 224 224 234 262 267 263 222 220 257 222 248 248 256 259 241 223 217 248 216 209 260 248 213 214 207 277 267 203 236 202 217 233 231 210 226 268 230 208 228 219 262 207 241 225 244 248 275 229 229 231 224 229 249 237 234 234 262 215 246 249 232 235 234 248 245 220 223 219 221 228 236 236 214 212 232 264 231 241 257 217 239 241 220 242 259 231 236 236 237 242 265 229 263 264 250 278 261 208 258 242 281 265 251 279 238 274 256 268 246 280 271 225 265 248 247 242 246 287 283 261 288 243 266 276 277 269 293 290 266 268 287 279 257 241 231 271 257 297 272 282 273 298 259 295 256 281 279 248 269 257 247 267 263 279 261 272 265 275 282 301 277 247 264 266 231 279 263 267 222 238 276 268 228 243 236 231 273 247 246 241 263 276 233 287 271 235 242 261 258 263 239 230 237 263 235 278 246 227 275 246 245 226 215 231 245 276 245 240 262 220 228 291 277 244 199 246 267 242 259 274 267 246 212 246 226 239 246 239 265 268 261 231 265 235 228 228 244 268 243 266 240 218 234 215 219 265 228 242 250 262 242 290 218 261 265 228 271 224 242 247 264 249 248 248 276 242 227 234 245 266 244 244 268 270 237 287 208 246 241 275 272 276 249 228 274 274 257 261 262 238 219 246 237 283 244 257 246 242 265 268 291 248 250 224 243 256 267 281 256 276 291 249 261 260 263 238 264 270 272 258 219 266 275 256 259 262 276 264 292 247 234 280 273 248 232 279 262 262 284 270 259 279 266 293 261 265 281 290 265 275 271 265 282 270 272 274 272 295 313 246 271 289 315 296 274 306 261 284 316 306 317 340 297 355 330 348 329 323 305 366 343 355 345 372 329 401 371 409 408 430 413 399 426 390 401 424 410 430 441 381 444 409 452 398 438 465 445 443 445 445 465 448 457 455 473 498 480 483 460 491 499 518 526 527 473 535 532 519 514 530 473 525 498 511 509 511 506 458 525 448 545 483 480 478 459 437 485 457 438 453 414 422 426 456 447 458 399 399 410 399 357 418 386 395 420 426 395 395 359 353 359 344 386 342 324 366 341 332 301 340 358 344 348 304 324 319 312 337 308 299 296 299 333 332 363 321 357 342 311 317 311 341 313 333 358 347 334 357 325 390 379 354 381 417 386 425 418 395 419 403 430 422 427 477 478 479 427 422 413 459 410 429 404 428 376 359 366 371 355 377 401 401 411 385 396 377 396 393 399 409 359 392 393 395 402 401 392 385 362 346 367 394 325 359 358 346 327 322 357 355 303 330 354 301 312 331 279 323 285 291 302 287 310 315 314 308 305 291 288 335 312 306 312 263 293 293 300 344 343 286 302 291 304 274 308 287 295 282 300 294 300 274 298 281 292 324 299 299 271 299 295 276 277 301 293 266 280 256 306 295 274 261 279 287 306 282 265 244 240 257 296 284 282 260 256 227 288 259 286 268 240 302 222 270 256 257 276 248 264 244 267 272 245 275 245 271 274 247 261 236 321 225 247 264 249 238 246 246 266 244 275 256 269 256 250 239 233 227 219 228 229 258 259 243 267 237 246 228 257 238 243 267 234 258 228 262 236 249 245 199 219 226 223 213 233 222 261 210 222 221 218 249 246 221 262 234 248 248 273 235 230 256 240 258 262 237 230 224 236 221 259 260 233 246 246 207 278 228 219 226 233 238 201 256 268 269 239 259 211 213 239 242 257 240 249 232 261 185 231 218 206 179 220 244 276 216 226 239 226 219 232 245 247 225 229 213 263 233 238 244 231 229 217 223 235 251 211 192 204 240 260 236 233 215 238 239 233 217 210 194 243 219 234 256 213 235 202 258 241 218 220 215 242 224 243 229 199 244 203 261 219 223 211 209 194 233 233 239 244 226 223 235 230 203 240 203 240 243 221 211 241 222 213 225 220 228 215 224 236 213 248 207 240 273 230 219 264 228 212 198 218 226 247 240 259 215 226 207 241 205 240 243 232 218 239 213 276 220 216 213 245 221 231 215 246 244 222 213 218 235 238 214 233 197 226 258 229 240 235 238 249 219 220 214 218 222 227 192 244 250 210 242 244 230 227 248 265 231 226 224 220 229 265 218 247 231 222 230 237 217 242 223 242 214 234 205 220 199 228 243 222 249 231 228 231 261 268 278 266 228 229 245 244 236 221 228 240 240 228 238 242 227 245 246 278 259 242 277 268 276 270 242 256 269 258 278 257 261 283 290 270 266 268 245 266 281 249 261 264 250 261 245 276 260 247 288 245 249 241 274 275 272 287 239 292 275 281 292 308 273 266 239 282 282 258 281 278 286 281 272 275 282 264 246 284 281 257 305 306 258 305 284 280</counts>
			</dataPoints>
		</scan>
	</xrdMeasurement>
</xrdMeasurements>
