<?xml version="1.0"?>
<xrdMeasurements xmlns="http://www.xrdml.com/XRDMeasurement/2.3" xmlns:xsi="http://www.w3.org/2001/XMLSchema-instance" xsi:schemaLocation="http://www.xrdml.com/XRDMeasurement/2.3 http://www.xrdml.com/XRDMeasurement/2.3/XRDMeasurement.xsd" status="Completed" recordIdentifier="{5DE694FD-CF6C-4B17-8B72-B5AE0AB1E340}">
	<comment>
		<entry/>
	</comment>
	<sample type="To be analyzed">
		<id>GPSS_Li1p8Fe0p55Zn0p55Cl4_121225_693c5ab8f4d05ae3d6974f16</id>
		<name></name>
		<preparedBy></preparedBy>
	</sample>
	<xrdMeasurement measurementType="Scan" status="Completed" sampleMode="Reflection">
		<usedWavelength intended="K-Alpha 1">
			<kAlpha1 unit="Angstrom">1.5405980</kAlpha1>
			<kAlpha2 unit="Angstrom">1.5444260</kAlpha2>
			<kBeta unit="Angstrom">1.3922500</kBeta>
			<ratioKAlpha2KAlpha1>0.5000</ratioKAlpha2KAlpha1>
		</usedWavelength>
		<incidentBeamPath>
			<radius unit="mm">145.00</radius>
			<xRayTube id="1010048" name="Empyrean Cu LFF HR (9430 033 7310x)">
				<tension unit="kV">40.0</tension>
				<current unit="mA">15.0</current>
				<anodeMaterial>Cu</anodeMaterial>
				<focus type="Line">
					<length unit="mm">12.0</length>
					<width unit="mm">0.4</width>
					<takeOffAngle unit="deg">6.0</takeOffAngle>
				</focus>
			</xRayTube>
			<sollerSlit id="21010002" name="Soller slits 0.04 rad.">
				<opening unit="rad">0.0400</opening>
			</sollerSlit>
			<mask id="22031000" name="Fixed mask 13 mm">
				<width unit="mm">9.00</width>
			</mask>
			<divergenceSlit id="22120001" name="Divergence slit 1°" xsi:type="fixedDivergenceSlitType">
				<distanceToSample unit="mm">50.00</distanceToSample>
				<height unit="mm">1.52</height>
			</divergenceSlit>
		</incidentBeamPath>
		<sampleMovement xsi:type="spinningSampleMovementType">
			<spinnerRevolutionTime unit="seconds">1.0</spinnerRevolutionTime>
		</sampleMovement>
		<diffractedBeamPath>
			<radius unit="mm">145.00</radius>
			<antiScatterSlit id="22090040" name="AS slit 9 mm (PIXcel)" xsi:type="fixedAntiScatterSlitType">
				<height unit="mm">9.00</height>
			</antiScatterSlit>
			<sollerSlit id="21020003" name="Large Soller slits 0.04 rad.">
				<opening unit="rad">0.0400</opening>
			</sollerSlit>
			<filter id="20030001" name="Large beta-filter Nickel">
				<material>Ni</material>
				<thickness unit="mm">0.020</thickness>
			</filter>
			<detector id="7010019" name="PIXcel1D-Medipix3 detector" xsi:type="rtmsDetectorType">
				<phd unit="keV">
					<lowerLevel>4.02</lowerLevel>
					<upperLevel>11.27</upperLevel>
				</phd>
				<mode>Scanning</mode>
				<activeLength unit="deg">5.542</activeLength>
			</detector>
		</diffractedBeamPath>
		<scan appendNumber="0" mode="Continuous" scanAxis="Gonio" status="Completed">
			<header>
				<startTimeStamp>2025-12-15T16:24:50-08:00</startTimeStamp>
				<endTimeStamp>2025-12-15T16:32:58-08:00</endTimeStamp>
				<author>
					<name>AutomatedUser</name>
				</author>
				<source>
					<applicationSoftware version="1.7b (136)">PANalytical Aeris Instrument Suite</applicationSoftware>
					<instrumentControlSoftware version="3.2.00000000 20240306">AERIS</instrumentControlSoftware>
					<instrumentID>950485</instrumentID>
				</source>
			</header>
			<dataPoints>
				<positions axis="2Theta" unit="deg">
					<startPosition>10.00943322</startPosition>
					<endPosition>99.99442286</endPosition>
				</positions>
				<positions axis="Omega" unit="deg">
					<startPosition>5.00471661</startPosition>
					<endPosition>49.99721143</endPosition>
				</positions>
				<commonCountingTime unit="seconds">12.495</commonCountingTime>
				<counts unit="counts">2943 2967 2857 2929 3041 2919 2945 2800 2895 2918 2851 2932 2828 2967 2962 2902 2932 2892 2902 2838 3001 2899 2897 2910 2773 2853 2896 2932 2921 2864 2897 2854 2849 2845 2950 2873 2925 2910 2921 2906 2892 2911 2913 2987 2884 2870 2925 2913 2923 2916 2914 2886 2936 2900 3010 2842 2892 2880 3034 2928 2869 2943 2976 2875 2863 2950 3009 2863 2968 2906 2985 2942 2877 2899 2910 2955 2923 2935 2963 2970 2970 3116 2868 2939 2983 3033 2979 2941 2994 2994 2974 2937 2968 2922 3059 2982 2947 3026 3017 3004 2985 2985 2989 3049 2983 2970 2994 3008 2890 2995 2941 2843 2852 2904 2921 2917 3002 2906 3019 2980 2875 3033 2958 2991 3027 2989 2962 2925 2991 3055 2954 2936 2962 2936 2996 2922 2985 2915 2916 2963 2958 2964 2969 2923 2950 2869 2827 2920 2865 2903 2917 2911 3009 2941 2916 3023 3014 3014 3000 2884 3017 2923 3014 2924 2859 2935 2932 3043 2925 2904 2922 3050 3001 2992 2944 3021 2936 2876 2965 2968 2889 2863 2863 2767 2853 2948 2876 2901 2957 2877 2835 2851 2955 2918 2916 2907 2988 2916 2804 2943 2844 2963 2935 2916 2884 2843 2892 2962 2918 2839 2837 2878 2872 2928 2907 2954 2960 2919 2862 2859 2953 2893 2840 2889 2915 2844 2733 2805 2855 2860 2944 2897 2929 2825 2829 2846 2918 2878 2904 2821 2943 2833 2812 2797 2810 2828 2729 2823 2925 2897 2824 2827 2866 2871 2887 2887 2917 2843 2819 2863 2820 2870 2747 2881 2802 2771 2884 2745 2777 2785 2808 2774 2820 2873 2892 2942 2850 2853 2904 2827 2948 2862 2857 2888 2890 2909 2841 2877 2879 2819 2755 2862 2885 2814 2955 2883 2811 2825 2899 2844 2854 2946 2825 2872 2845 2959 3023 2896 2895 2847 2827 2852 2882 2959 2901 3011 2965 2852 2951 2914 2966 2952 2897 2889 2879 2936 2864 3058 3004 2936 2993 3024 3002 2961 2874 2956 3050 2954 3038 3105 3003 3118 2995 3078 2941 2982 3050 2956 3018 3028 3060 3169 3014 3066 3115 3197 3051 3058 3114 3133 3180 3094 3175 3171 3211 3179 3119 3195 3190 3335 3182 3225 3273 3185 3158 3295 3304 3259 3222 3239 3226 3157 3323 3292 3278 3231 3258 3249 3228 3268 3256 3266 3318 3273 3236 3339 3307 3170 3295 3280 3293 3369 3229 3312 3278 3316 3312 3424 3394 3373 3444 3304 3369 3419 3377 3385 3383 3474 3577 3481 3467 3563 3614 3634 3489 3599 3521 3610 3676 3635 3572 3654 3530 3713 3613 3556 3626 3629 3670 3616 3651 3632 3599 3579 3660 3524 3650 3535 3635 3766 3721 3551 3641 3741 3693 3574 3686 3604 3524 3660 3689 3798 3672 3691 3700 3691 3703 3596 3652 3649 3554 3462 3428 3416 3401 3454 3409 3316 3429 3234 3410 3447 3334 3279 3220 3286 3315 3252 3194 3272 3293 3137 3287 3263 3316 3188 3276 3128 3116 3181 3094 3213 3192 3276 3283 3187 3264 3123 3255 3240 3163 3319 3214 3270 3419 3329 3352 3133 3178 3203 3144 3199 3080 3105 3098 3170 3038 3061 3143 3150 3078 3141 3062 3143 3125 3121 2973 3123 3137 3047 3069 3114 3083 3055 3138 3135 3073 3231 2990 3096 3075 3004 2948 3084 3027 3038 3142 3060 3082 3101 3050 3065 3072 3049 3058 3161 3013 2919 3148 3096 2941 3061 2980 3036 2922 2987 2972 2967 2950 2923 2859 2908 2918 2877 2985 2810 2825 2974 2883 2906 2940 2854 2881 2858 2930 2870 2865 2841 2880 2843 2857 2832 2828 2705 2837 2830 2796 2770 2887 2803 2889 2736 2784 2869 2752 2747 2854 2805 2629 2817 2670 2765 2797 2824 2660 2788 2748 2781 2696 2765 2767 2796 2825 2819 2716 2770 2795 2725 2764 2759 2825 2797 2740 2637 2810 2794 2843 2745 2731 2809 2771 2701 2694 2851 2792 2763 2762 2762 2799 2879 2838 2834 2693 2706 2817 2777 2703 2790 2793 2751 2768 2801 2773 2845 2778 2779 2833 2740 2663 2707 2829 2725 2782 2765 2725 2719 2651 2715 2724 2738 2613 2717 2797 2719 2610 2726 2684 2588 2656 2783 2602 2606 2681 2585 2653 2646 2697 2668 2652 2573 2676 2699 2715 2673 2662 2649 2650 2624 2677 2699 2663 2665 2580 2741 2580 2722 2675 2665 2656 2701 2602 2679 2648 2812 2747 2682 2612 2632 2743 2639 2670 2696 2746 2627 2682 2722 2821 2823 2810 2831 2839 2821 2693 2782 2772 2734 2723 2789 2817 2707 2702 2717 2749 2600 2698 2756 2705 2654 2679 2743 2712 2825 2725 2780 2743 2757 2783 2775 2685 2750 2680 2772 2766 2732 2820 2718 2796 2729 2850 2766 2816 2754 2824 2705 2687 2654 2778 2694 2654 2668 2706 2741 2642 2642 2610 2710 2712 2735 2656 2635 2588 2630 2641 2659 2719 2685 2616 2670 2612 2592 2589 2586 2587 2652 2638 2729 2635 2549 2704 2660 2540 2594 2636 2527 2732 2518 2705 2621 2493 2573 2538 2533 2516 2487 2618 2576 2627 2533 2505 2577 2588 2440 2446 2576 2542 2532 2489 2566 2490 2433 2600 2606 2480 2516 2480 2529 2577 2500 2567 2434 2561 2451 2517 2528 2465 2417 2548 2515 2515 2541 2447 2376 2466 2440 2553 2529 2509 2574 2552 2421 2526 2442 2482 2465 2534 2481 2475 2489 2456 2414 2472 2476 2502 2563 2419 2438 2400 2579 2466 2413 2490 2512 2490 2440 2520 2476 2479 2482 2520 2494 2550 2444 2590 2501 2481 2470 2451 2432 2538 2425 2396 2474 2392 2391 2438 2444 2445 2446 2389 2411 2436 2485 2380 2441 2437 2405 2495 2450 2497 2415 2388 2454 2422 2441 2440 2370 2404 2470 2369 2446 2398 2462 2483 2390 2467 2447 2379 2366 2331 2311 2323 2353 2368 2352 2402 2401 2321 2407 2377 2335 2409 2397 2470 2355 2346 2224 2361 2383 2385 2463 2464 2269 2431 2339 2302 2415 2396 2426 2385 2350 2310 2373 2360 2366 2428 2413 2455 2443 2317 2453 2467 2330 2386 2396 2371 2326 2450 2358 2377 2353 2367 2293 2371 2285 2347 2381 2467 2427 2389 2302 2424 2316 2366 2392 2353 2390 2455 2389 2385 2316 2303 2420 2403 2422 2366 2439 2404 2307 2441 2380 2411 2365 2429 2387 2346 2316 2358 2384 2441 2379 2442 2378 2499 2305 2372 2361 2332 2391 2539 2369 2452 2460 2380 2403 2343 2330 2341 2337 2352 2358 2349 2367 2387 2411 2430 2325 2456 2357 2309 2392 2327 2419 2436 2344 2521 2418 2447 2436 2366 2390 2364 2374 2425 2403 2422 2476 2416 2441 2407 2442 2420 2432 2367 2453 2355 2312 2328 2339 2295 2318 2306 2374 2283 2268 2396 2329 2408 2316 2392 2398 2355 2304 2380 2356 2379 2347 2297 2299 2257 2468 2326 2365 2288 2271 2246 2267 2275 2230 2284 2214 2283 2326 2182 2236 2200 2263 2183 2256 2304 2346 2274 2279 2285 2315 2223 2265 2206 2313 2170 2226 2171 2255 2203 2163 2194 2269 2231 2174 2236 2181 2129 2056 2193 2116 2136 2123 2168 2245 2114 2208 2129 2094 2107 2129 2113 2139 2070 2000 2063 2143 2004 2048 2078 2060 2116 2127 1997 2007 2129 2055 2070 2040 2073 1990 2078 2055 2051 2066 2006 1982 2069 2058 2000 2005 2056 2049 2020 1981 1966 1966 2012 1926 2030 1975 1987 1989 1990 1875 1910 1927 1965 2001 1948 2015 1999 1960 1958 1987 1964 1907 1936 1980 1931 1940 1923 1954 1863 1871 1923 1921 1807 1819 1850 1910 1900 1948 1841 1878 1872 1886 1919 1914 1895 1833 1864 1852 1905 1903 1943 1794 1856 1848 1862 1794 1918 1835 1868 1822 1870 1849 1905 1876 1871 1764 1974 1887 1886 1876 1891 1923 1868 1942 1883 1887 1922 2034 1920 1924 1935 1948 1915 1949 1922 1932 1856 1893 1877 1826 1857 1985 1916 1827 1826 1776 1851 1806 1839 1882 1878 1899 1848 1815 1775 1801 1886 1853 1827 1774 1784 1775 1882 1775 1769 1786 1810 1847 1844 1770 1702 1781 1733 1804 1710 1648 1787 1757 1754 1712 1710 1622 1721 1687 1728 1745 1659 1687 1767 1638 1627 1743 1706 1715 1646 1647 1701 1627 1683 1734 1718 1705 1608 1698 1652 1713 1734 1670 1667 1722 1548 1649 1613 1689 1652 1725 1745 1690 1634 1675 1623 1778 1710 1693 1671 1722 1700 1686 1750 1753 1715 1657 1679 1687 1622 1668 1664 1684 1685 1708 1778 1688 1664 1745 1767 1708 1754 1673 1731 1638 1784 1661 1742 1682 1677 1801 1668 1684 1634 1649 1665 1712 1683 1652 1655 1685 1682 1734 1637 1750 1723 1632 1684 1628 1637 1736 1709 1743 1740 1734 1634 1681 1702 1644 1683 1700 1703 1685 1669 1709 1741 1684 1683 1665 1741 1692 1674 1684 1637 1701 1701 1650 1669 1650 1669 1626 1722 1636 1731 1694 1754 1701 1662 1709 1715 1687 1674 1688 1689 1613 1818 1640 1705 1707 1689 1760 1655 1653 1665 1767 1681 1670 1693 1648 1661 1642 1644 1733 1706 1630 1632 1657 1656 1673 1640 1634 1651 1684 1565 1719 1677 1669 1700 1674 1597 1749 1675 1728 1631 1618 1652 1623 1692 1695 1604 1600 1595 1638 1607 1615 1590 1623 1610 1612 1546 1644 1571 1597 1580 1602 1571 1489 1586 1535 1603 1518 1612 1550 1585 1559 1604 1582 1576 1528 1603 1478 1655 1596 1575 1543 1558 1679 1567 1589 1529 1539 1468 1521 1515 1470 1434 1471 1558 1506 1452 1494 1525 1581 1473 1566 1536 1525 1461 1447 1437 1482 1548 1555 1475 1499 1539 1459 1430 1433 1514 1505 1477 1467 1478 1608 1553 1553 1615 1568 1542 1601 1631 1605 1591 1547 1628 1670 1604 1619 1625 1615 1600 1636 1539 1640 1585 1591 1543 1492 1516 1479 1545 1489 1468 1469 1489 1442 1451 1485 1553 1510 1497 1558 1525 1518 1548 1588 1585 1600 1525 1538 1588 1563 1613 1567 1615 1549 1529 1521 1543 1477 1482 1508 1457 1467 1458 1421 1508 1415 1467 1419 1480 1422 1515 1521 1549 1532 1545 1558 1578 1622 1638 1749 1768 1749 1727 1767 1785 1785 1757 1648 1753 1734 1709 1723 1829 1716 1663 1680 1549 1672 1565 1591 1593 1530 1560 1538 1457 1465 1508 1546 1510 1537 1559 1596 1534 1563 1648 1610 1579 1502 1579 1515 1510 1494 1572 1528 1515 1493 1527 1397 1397 1472 1379 1364 1410 1398 1364 1371 1390 1455 1332 1424 1410 1392 1400 1391 1371 1365 1408 1364 1448 1368 1383 1406 1356 1367 1358 1326 1268 1348 1318 1333 1306 1215 1307 1293 1336 1266 1273 1270 1263 1313 1320 1271 1310 1275 1190 1206 1249 1285 1237 1224 1267 1242 1299 1259 1298 1313 1268 1318 1339 1364 1321 1389 1384 1511 1518 1547 1556 1619 1676 1735 1826 1780 1873 1727 1721 1745 1892 1850 1837 1799 1779 1859 1750 1711 1740 1763 1748 1701 1653 1722 1795 1669 1695 1673 1703 1624 1587 1723 1656 1708 1737 1717 1680 1687 1685 1700 1588 1646 1548 1630 1616 1590 1612 1544 1433 1488 1392 1422 1423 1344 1356 1306 1275 1285 1253 1211 1181 1140 1196 1314 1133 1202 1190 1167 1175 1193 1176 1117 1131 1170 1121 1129 1162 1112 1095 1088 1151 1155 1091 1090 1069 1139 1111 1106 1091 1122 1163 1102 1083 1087 1123 1070 1090 1111 1048 1082 1034 1104 1049 1151 1082 1033 1111 1064 1079 1094 1092 1127 1049 1082 1070 1058 1065 1127 1110 1139 1050 1108 1051 1136 1101 1094 1104 1091 1206 1138 1123 1182 1173 1128 1187 1237 1123 1108 1152 1136 1146 1191 1147 1203 1178 1233 1190 1195 1228 1178 1279 1222 1297 1315 1299 1335 1295 1375 1320 1292 1365 1258 1325 1346 1286 1289 1276 1226 1239 1273 1270 1223 1186 1242 1207 1204 1166 1204 1214 1165 1149 1143 1227 1173 1192 1140 1168 1140 1139 1136 1126 1141 1130 1087 1088 1077 1126 1114 1028 1045 1051 1001 1016 1010 1045 1023 989 1036 960 1042 1009 985 988 995 985 990 943 968 1002 926 981 1032 1011 984 970 995 946 964 1030 1065 961 1084 1021 1011 1006 987 1049 1094 1074 1101 1130 1078 1101 1091 1023 1098 1073 1094 1025 1100 1068 1067 1040 993 1049 953 1022 1002 1060 1038 1016 1016 1039 1067 1057 1031 1014 1009 1058 1026 1048 995 1006 1093 984 1046 1017 1044 1102 1035 1060 993 995 981 1041 1072 1022 996 1011 930 946 922 955 1023 990 986 989 938 992 940 976 965 976 982 890 994 1021 970 976 972 903 997 997 1048 945 997 1010 1023 1019 989 1012 991 1007 965 991 927 944 936 967 970 945 990 954 893 1000 1004 946 970 902 953 894 919 918 938 1011 935 993 910 989 933 877 936 894 924 928 949 954 914 939 966 954 984 898 979 921 955 902 945 868 872 908 890 910 989 967 894 876 904 938 893 881 929 915 905 910 896 942 899 879 897 969 977 925 943 962 863 948 898 915 988 940 906 923 961 895 949 983 958 998 978 986 896 930 971 934 920 1013 969 1045 940 1019 1008 1007 1017 1063 1080 1097 1162 1182 1201 1230 1377 1423 1455 1424 1613 1699 1761 1730 1759 1782 1888 1866 2049 2005 2062 2086 2138 2148 2227 2162 2153 2103 2114 2010 2106 2092 1839 1933 1823 1782 1835 1802 1762 1659 1671 1691 1755 1669 1663 1687 1664 1699 1625 1655 1595 1534 1538 1555 1516 1428 1337 1441 1381 1384 1329 1227 1254 1230 1148 1091 1125 1139 1038 1057 1012 975 1017 1023 1051 958 973 946 979 930 932 906 904 950 871 909 933 958 907 913 919 942 930 937 867 892 937 935 954 872 873 901 907 889 868 885 877 868 871 931 863 892 945 877 924 858 866 887 877 974 832 911 912 865 854 839 906 905 886 913 892 869 845 866 818 903 923 885 868 826 873 871 877 900 845 863 942 885 871 860 897 840 862 887 937 841 933 917 950 831 900 891 883 870 929 925 941 951 911 912 894 871 860 886 870 948 898 870 914 889 849 881 861 868 880 951 848 857 858 806 795 897 896 843 775 842 796 901 851 828 838 792 824 904 856 852 872 890 845 849 815 827 828 768 772 862 880 878 845 891 867 836 831 848 827 867 804 845 802 847 802 797 859 854 838 906 793 821 837 829 839 831 857 863 823 829 835 859 862 788 836 819 779 789 825 812 866 834 838 830 843 854 854 832 867 825 853 790 807 864 850 849 783 833 873 828 800 758 854 766 755 852 797 811 805 829 832 857 789 803 817 791 858 816 819 776 805 776 818 814 801 796 844 816 817 848 871 860 830 845 872 843 882 859 866 819 910 828 848 910 861 930 894 902 863 928 824 851 842 927 899 876 815 830 855 863 810 856 846 898 826 841 829 847 811 859 810 759 860 807 837 856 831 757 849 863 822 807 839 898 847 859 799 841 834 801 835 820 774 806 804 821 791 830 811 805 821 828 847 789 819 804 788 825 770 811 812 747 725 741 777 854 800 792 801 787 773 835 753 799 789 771 806 794 774 752 794 816 821 799 837 831 772 835 776 806 881 778 785 807 769 764 768 807 783 761 794 838 756 857 791 781 815 797 730 802 787 754 762 860 784 829 804 809 809 779 791 741 805 753 761 782 795 785 767 755 804 797 755 782 749 783 750 738 703 752 766 769 787 764 705 787 796 752 813 751 740 756 747 804 802 784 779 782 773 841 820 737 762 777 749 791 795 778 772 846 818 789 772 773 820 814 789 773 808 788 784 794 741 794 797 758 778 782 765 838 849 781 778 806 757 746 761 821 723 769 760 784 714 800 841 781 738 718 749 775 713 759 798 760 811 758 755 738 771 747 701 753 792 690 739 757 728 711 753 788 742 740 746 756 696 783 752 700 785 742 767 746 719 747 726 767 754 748 761 764 785 819 791 803 766 792 793 802 866 856 818 773 775 809 778 795 781 823 793 806 806 740 754 802 811 776 737 755 776 795 738 772 822 710 810 747 760 753 778 709 753 789 757 778 740 786 754 772 718 732 766 737 731 746 772 800 757 804 805 765 761 722 768 729 743 716 705 713 778 749 734 712 721 782 753 712 737 717 679 746 720 746 743 713 706 700 708 729 734 731 718 714 787 734 725 775 777 710 767 725 744 718 709 718 730 723 704 730 716 753 780 744 763 761 756 741 696 728 712 758 692 704 738 762 772 766 701 794 733 754 722 695 710 754 720 771 673 751 787 769 761 743 779 776 729 737 722 766 706 784 713 782 741 745 746 773 708 778 720 758 749 737 789 761 710 688 823 723 739 729 741 757 812 781 757 794 803 742 758 688 741 736 728 760 764 795 791 752 811 828 814 838 799 803 768 786 816 859 860 823 825 782 849 807 830 829 793 791 765 786 790 760 768 815 776 746 747 798 737 760 786 748 753 809 782 771 802 727 757 742 766 764 734 757 709 749 742 785 771 761 705 747 744 740 737 738 709 680 730 700 673 696 775 722 715 709 725 734 674 732 766 698 751 752 734 750 704 806 707 717 717 749 722 731 719 710 779 724 739 713 749 730 737 723 787 763 736 714 745 759 702 761 784 750 781 775 762 836 719 720 761 782 752 778 727 706 693 712 706 749 728 719 706 784 725 737 720 757 714 749 712 738 732 737 697 722 674 722 686 692 643 709 736 740 704 688 706 748 736 743 728 773 735 692 719 723 727 691 640 717 674 693 649 759 759 697 696 705 665 673 664 756 716 701 709 704 703 748 705 677 706 709 669 741 738 682 749 707 735 742 699 767 718 781 766 721 703 727 732 726 751 755 712 707 706 736 699 716 744 736 731 686 738 718 707 715 702 748 681 694 714 692 702 723 708 687 773 723 705 700 688 724 731 692 700 761 760 749 802 718 786 777 827 781 840 821 830 836 866 857 866 891 929 822 902 884 856 856 891 857 854 852 919 876 908 832 843 847 770 820 860 845 811 835 876 811 871 788 840 793 857 827 825 855 881 791 847 808 829 869 821 810 745 732 816 774 744 747 765 739 721 726 740 746 743 746 763 732 648 727 704 711 713 675 743 696 717 718 703 725 715 736 677 698 703 696 676 666 742 735 696 683 701 739 732 677 704 722 704 718 695 658 716 712 777 761 675 730 727 673 725 707 727 757 692 740 702 684 699 681 673 720 744 686 686 713 682 722 688 737 739 686 740 702 713 693 721 710 719 697 776 689 691 682 699 666 728 716 700 704 731 702 717 723 662 713 713 686 761 740 733 695 660 715 672 738 723 677 667 727 692 715 739 707 675 657 719 750 698 712 674 659 664 712 637 648 675 687 724 656 637 708 685 686 673 655 710 649 680 631 710 701 648 693 649 668 695 693 718 714 686 701 707 678 696 710 720 692 705 682 736 724 728 695 713 728 698 701 722 722 742 706 724 723 761 775 756 684 721 760 773 732 743 744 797 765 722 714 697 675 704 709 679 759 690 721 704 708 736 733 704 669 707 672 755 715 756 737 691 704 734 737 714 698 721 654 710 733 678 690 742 706 673 696 657 720 728 636 726 703 711 674 732 696 681 746 685 688 707 740 680 688 721 731 721 725 701 669 696 734 656 709 750 747 688 713 718 674 698 689 652 701 728 682 691 694 677 726 718 697 728 754 710 709 726 711 708 729 788 781 746 767 745 805 765 783 771 778 773 831 796 813 810 819 814 791 792 736 776 717 805 831 872 805 811 805 820 805 841 804 843 817 827 845 842 888 854 864 883 856 832 781 820 834 893 878 858 904 918 933 965 926 1055 985 1113 1083 1087 1126 1225 1171 1179 1207 1266 1347 1343 1298 1399 1460 1449 1485 1425 1579 1478 1526 1445 1493 1429 1500 1481 1477 1509 1497 1481 1409 1393 1407 1411 1356 1395 1337 1326 1295 1277 1324 1203 1253 1233 1283 1217 1218 1117 1157 1069 1164 1051 1025 1059 980 979 1016 917 941 902 919 827 887 933 846 841 808 781 793 772 772 779 717 802 790 802 736 725 711 714 747 716 746 708 692 707 740 714 699 661 713 674 721 666 647 694 717 704 671 659 701 681 696 722 649 683 639 753 680 691 684 749 700 715 669 667 656 673 660 678 682 663 660 669 701 669 667 703 668 694 646 695 727 657 626 686 667 686 690 653 662 643 680 631 666 658 740 676 717 640 658 696 653 656 671 642 691 644 684 643 676 722 662 692 631 623 675 691 677 639 636 650 652 651 685 660 660 674 661 672 662 678 666 646 658 691 658 664 676 643 692 595 636 680 614 732 679 655 658 654 641 661 662 629 636 682 606 687 638 643 644 698 661 668 650 610 629 706 688 721 681 650 695 702 697 664 703 691 669 742 663 738 689 697 761 728 755 723 756 694 751 764 815 729 748 708 739 701 680 704 704 760 741 724 757 729 740 763 741 731 689 726 733 692 770 742 703 708 690 693 719 713 757 702 688 675 662 663 669 727 742 648 714 697 690 665 604 665 672 637 695 632 682 654 667 660 611 651 632 629 690 641 682 619 663 630 691 650 694 679 619 691 709 636 702 698 671 698 687 686 660 672 744 729 728 731 786 800 812 759 753 762 766 750 794 802 835 812 847 815 819 794 749 811 819 786 768 812 845 755 791 764 788 761 757 795 727 719 743 752 735 724 731 692 748 694 661 681 695 733 765 698 714 718 702 661 693 670 640 678 688 673 612 593 640 652 659 665 681 680 644 661 645 655 646 617 654 664 649 676 628 635 662 582 634 654 634 629 645 593 623 606 628 652 624 595 610 616 682 639 652 622 591 622 590 658 700 624 631 605 604 679 652 621 643 655 616 620 635 583 625 638 564 601 618 629 641 606 647 632 621 646 603 630 646 652 633 635 601 632 614 621 658 657 631 593 601 624 616 601 631 578 628 597 582 611 677 624 587 634 608 620 658 611 656 590 603 613 646 627 643 606 654 613 616 646 612 599 658 635 647 634 640 606 604 647 622 652 669 678 619 634 627 610 622 618 595 650 624 651 597 618 652 604 630 638 656 604 662 569 592 639 609 591 593 593 627 625 594 642 604 610 606 596 609 588 609 636 626 614 548 629 616 599 591 616 626 635 597 670 578 617 624 610 557 614 627 681 608 653 590 594 616 626 620 643 625 639 602 582 594 640 601 618 638 629 634 625 609 625 606 599 621 595 645 601 664 581 658 642 619 614 621 624 629 634 557 584 628 599 585 639 624 600 657 632 691 635 617 665 658 660 635 633 640 644 624 598 673 616 609 606 623 645 634 592 598 607 605 627 638 591 611 621 634 661 608 669 617 578 620 604 594 644 570 595 623 607 640 571 614 583 615 624 634 619 616 603 616 609 640 612 583 608 659 626 587 631 606 620 561 663 595 622 596 590 603 600 563 618 613 587 601 604 566 634 649 578 590 626 609 608 579 579 610 640 623 650 595 600 580 626 620 581 611 603 567 602 604 615 606 597 590 611 610 616 599 605 573 572 653 619 613 610 587 632 554 647 644 593 635 564 614 622 559 621 627 593 651 616 586 606 608 645 555 594 618 566 619 590 611 630 591 578 623 616 576 588 608 596 623 587 604 625 632 654 615 636 635 590 599 586 655 598 622 656 588 638 635 639 625 653 621 676 639 667 613 641 669 603 684 674 642 645 612 672 644 674 622 628 654 681 660 712 683 653 659 648 678 673 676 670 661 666 697 630 690 635 645 664 639 675 683 658 698 679 664 662 677 655 637 670 646 640 639 652 618 653 655 669 627 645 671 644 657 653 669 669 706 679 680 697 685 684 676 663 703 699 781 741 703 711 724 774 776 783 805 806 883 832 847 877 836 864 863 874 819 842 817 806 797 848 822 835 789 846 814 743 800 852 790 810 827 787 812 779 763 781 761 806 733 787 709 766 730 718 750 703 688 677 713 690 665 649 686 652 676 712 658 699 631 682 653 674 675 642 624 613 663 610 621 618 648 612 653 634 640 618 615 605 621 656 587 643 588 614 608 623 588 620 610 597 615 588 616 591 626 595 619 647 604 656 636 591 619 626 580 627 591 559 666 600 543 584 633 629 611 578 612 610 639 606 558 634 579 600 569 561 594 589 578 623 595 567 611 554 630 622 600 611 618 639 608 561 617 584 585 588 555 628 625 601 571 586 587 568 596 569 556 613 622 568 634 626 571 550 634 600 565 589 622 554 603 595 605 573 545 499 584 606 604 575 583 585 602 582 576 569 580 572 561 602 565 630 591 575 564 557 572 581 628 558 614 558 597 578 581 606 586 591 592 606 574 542 594 591 598 567 570 553 572 625 606 631 586 535 589 580 586 586 557 605 593 555 550 589 607 565 541 571 561 610 587 601 621 627 578 597 608 619 613 590 602 612 590 644 614 585 595 629 684 634 642 624 669 686 701 685 687 752 690 663 689 727 667 704 697 712 715 683 685 679 664 722 695 713 690 702 679 685 746 727 724 635 691 683 713 672 641 656 721 703 665 679 696 673 603 686 659 652 645 699 670 623 696 608 647 658 659 658 636 595 611 608 599 593 581 605 627 648 595 623 603 592 578 604 594 609 570 573 592 565 582 609 577 603 587 552 593 598 546 606 579 563 572 556 558 601 596 533 609 588 556 544 562 580 528 576 594 587 548 523 595 566 599 571 551 546 550 604 604 633 541 548 547 538 620 550 516 554 578 550 576 590 543 559 591 589 596 568 586 550 605 582 581 589 596 539 592 554 547 595 610 574 533 547 558 591 554 527 547 604 544 585 584 586 549 553 559 585 550 626 577 583 594 600 599 556 587 599 583 627 551 575 583 593 559 564 521 633 555 581 565 556 586 628 595 629 637 594 625 587 577 628 580 607 597 563 632 585 603 576 618 599 560 640 608 602 558 661 615 628 635 611 606 660 615 616 602 623 611 650 603 594 610 603 664 570 597 642 637 662 622 641 654 624 611 610 597 569 591 576 574 629 576 565 614 624 639 604 611 593 536 642 548 555 607 597 588 579 576 568 588 597 583 611 618 554 575 598 601 559 592 574 577 602 590 559 551 604 561 534 557 550 579 556 580 532 561 572 553 536 585 539 554 550 558 573 574 565 596 558 544 552 559 584 551 567 565 578 528 554 535 574 563 559 594 596 575 534 598 567 560 593 586 580 560 588 544 529 572 574 562 578 576 610 551 578 565 604 585 543 549 574 561 554 582 590 568 554 562 566 569 555 555 527 560 573 534 587 560 521 598 566 533 549 558 541 582 554 573 548 571 550 565 562 535 601 547 587 505 550 559 546 533 569 565 553 548 554 583 550 551 533 581 537 587 558 518 576 532 569 573 537 547 507 529 545 541 540 599 573 492 561 546 538 583 510 580 538 546 571 532 598 570 570 542 534 570 537 587 572 522 546 561 588 555 567 590 600 594 516 536 590 579 565 560 544 541 545 537 564 596 529 583 540 586 531 551 543 543 549 564 564 530 536 546 539 550 560 557 564 549 546 542 549 500 532 570 543 570 556 577 548 555 552 555 545 548 583 579 572 571 485 547 602 594 591 547 499 546 528 547 542 578 581 510 561 552 504 504 537 567 555 565 583 549 575 563 551 589 555 555 575 587 602 565 587 565 527 588 575 567 597 585 548 540 593 607 562 567 550 588 582 590 602 567 584 588 601 581 566 523 518 544 617 592 575 553 562 569 598 529 588 527 578 543 548 583 516 554 564 537 582 528 551 584 569 587 540 560 532 560 523 536 542 565 535 544 515 541 569 548 518 548 512 577 522 538 547 598 542 564 541 603 545 567 555 567 545 553 584 573 589 561 539 525 598 515 543 540 550 527 568 549 547 582 562 537 605 528 529 531 556 522 548 558 541 518 519 539 554 584 542 568 554 547 515 542 567 580 555 539 544 566 570 528 583 502 559 509 569 595 547 567 556 578 585 558 525 531 543 532 525 563 547 563 572 556 567 544 591 576 548 555 531 574 530 548 552 577 563 541 522 607 552 548 534 564 577 583 556 581 562 586 597 536 566 599 566 608 592 601 564 629 555 605 590 610 558 579 578 597 580 604 576 587 596 624 555 557 586 623 579 575 622 629 637 584 603 571 615 573 611 597 569 593 628 601 613 548 621 568 563 556 597 553 581 603 541 617 558 565 582 579 547 541 565 574 553 597 605 598 531 593 518 580 539 541 593 554 555 607 529 536 568 513 572 595 527 526 542 574 529 523 569 526 533 543 563 571 579 526 511 580 535 548 532 544 534 586 535 559 557 599 559 551 586 521 500 519 518 554 564 554 546 614 567 585 563 515 592 510 565 526 565 542 548 576 593 556 541 528 535 563 524 564 554 580 544 506 521 543 541 542 544 554 588 557 552 584 531 538 560 537 554 545 582 545 583 534 518 561 559 533 575 557 554 561 554 570 533 527 540 568 592 529 537 546 553 532 567 559 514 528 538 516 537 502 576 523 531 554 536 577 528 519 551 498 575 574 557 533 540 558 593 561 581 525 577 511 558 555 524 546 565 522 531 561 555 568 560 550 578 504 560 512 538 500 536 540 544 519 555 515 552 563 509 540 545 540 538 511 564 566 504 558 525 547 566 526 544 545 539 519 537 565 581 564 540 548 547 545 543 560 539 516 517 566 533 577 519 570 533 536 549 550 554 558 558 542 536 607 560 623 579 585 583 595 569 552 575 628 622 574 588 586 581 575 585 611 606 630 607 602 581 624 583 596 653 674 595 648 627 593 664 620 654 659 641 631 668 594 630 663 655 671 627 658 615 675 651 649 614 636 590 591 622 621 541 593 614 592 608 600 598 598 597 614 581 578 592 566 584 564 614 591 574 546 598 613 578 583 622 561 562 579 602 595 558 586 557 608 570 543 574 529 537 533 536 571 537 558 542 504 551 548 573 584 575 581 595 510 535 585 567 544 591 567 574 590 531 548 489 580 596 605 512 565 537 559 533 585 558 574 515 562 580 530 559 612 581 551 566 588 552 544 590 589 519 545 551 562 526 578 508 571 483 547 534 553 547 544 543 493 507 533 531 596 558 548 554 587 592 504 566 571 585 542 576 582 546 553 570 535 531 535 533 526 579 539 535 500 547 538 505 553 528 548 551 568 565 568 573 534 579 574 544 614 544 571 565 537 566 559 564 619 532 557 544 573 569 575 576 587 590 546 550 531 573 532 584 554 600 566 578 564 582 589 541 583 584 572 562 611 571 564 560 532 593 605 556 581 589 544 580 518 613 553 583 577 610 601 564 598 562 556 575 545 565 560 569 550 548 554 561 580 591 527 569 522 547 568 566 550 549 541 548 555 514 568 539 520 520 538 589 530 525 502 522 547 526 521 551 551 572 565 558 567 542 555 526 509 551 549 538 517 520 552 549 562 536 536 541 588 534 516 536 553 539 544 601 565 553 564 524 531 508 588 524 542 521 538 550 522 547 534 510 612 520 533 547 520 513 559 553 539 567 586 535 587 536 534 581 581 535 517 545 532 545 508 565 541 539 548 545 526 564 564 538 546 535 546 585 556 534 565 491 574 543 546 542 547 539 549 516 572 558 554 512 568 525 573 579 564 532 556 543 585 584 586 560 512 568 555 548 540 541 561 569 524 562 557 551 544 529 543 543 549 581 547 541 528 551 569 563 564 533 556 570 573 506 550 548 558 526 527 561 529 544 540 548 565 559 573 548 547 539 552 565 527 535 568 559 590 573 517 564 564 570 593 560 554 562 537 543 518 545 541 557 551 563 526 557 553 567 539 520 548 535 546 559 549 557 535 551 502 521 607 542 530 530 579 542 579 570 556 543 573 527 571 556 544 531 562 527 543 551 577 595 544 566 585 603 533 544 576 553 561 555 610 573 521 613 600 541 575 562 570 586 560 537 544 579 588 541 550 584 551 623 507 585 572 577 552 551 513 612 593 610 554 568 547 574 554 540 557 548 529 543 540 575 540 560 570 577 569 556 493 571 567 583 551 572 589 551 541 537 527 564 608 513 547 554 563 560 596 531 578 608 545 588 508 516 630 538 576 582 524 558 561 529 562 545 578 570 590 547 536 549 555 600 553 535 512 580 584 570 527 566 577 567 590 539 534 524 559 524 589 587 552 553 568 577 566 595 541 582 581 525 575 558 565 572 566 546 577 547 578 579 549 547 577 593 574 553 559 595 647 599 550 575 569 571 599 602 585 591 597 559 576 562 550 555 575 534 591 607 649 599 571 615 582 578 656 605 601 566 596 626 589 613 570 606 586 595 546 624 602 591 575 570 566 621 613 577 621 606 592 567 634 597 574 628 604 586 594 580 556 540 605 592 584 630 595 582 591 590 578 650 561 583 591 629 601 603 625 627 598 609 610 653 605 632 640 618 639 638 642 667 643 612 622 631 649 589 619 612 600 600 629 610 622 644 615 637 626 558 621 608 611 595 590 633 605 613 590 628 587 567 591 584 591 538 625 555 609 573 590 578 623 597 587 558 605 562 591 608 551 637 616 582 605 557 592 580 597 584 533 614 599 535 552 586 547 595 579 573 547 590 619 559 583 580 545 579 601 568 569 574 514 602 570 554 635 568 584 595 600 569 559 563 568 554 598 549 567 611 532 577 571 567 584 556 576 619 540 612 577 587 552 565 535 557 586 524 538 532 581 569 588 574 539 577 585 554 602 543 572 552 580 529 523 586 575 530 580 544 545 579 575 536 569 565 563 580 573 583 567 547 532 561 553 590 577 620 607 596 547 574 538 597 528 544 565 583 517 543 537 593 560 598 540 607 553 593 572 550 567 541 580 590 590 583 615 588 573 592 590 595 556 583 595 599 603 594 597 603 574 634 631 617 651 647 694 643 696 635 706 668 731 702 744 792 738 708 773 769 806 706 689 715 717 746 748 733 722 752 753 747 696 712 781 735 733 715 731 698 704 708 768 693 736 714 697 715 706 673 712 733 719 668 721 683 707 747 701 657 648 641 639 604 672 647 613 667 632 612 588 613 610 626 592 613 607 605 609 638 588 580 583 587 609 610 581 528 609 590 567 593 594 568 560 589 569 590 549 576 590 569 615 575 581 558 618 560 628 592 568 555 594 555 555 578 578 568 586 552 540 567 581 568 530 566 547 586 564 571 549 542 586 556 523 550 525 482 540 576 534 586 583 569 563 576 587 598 529 556 558 607 565 554 555 567 570 544 540 566 538 559 569 565 526 588 541 555 594 568 543 550 579 596 552 600 618 562 558 589 560 583 568 569 584 580 582 597 573 526 584 584 611 567 584 533 546 548 586 561 578 551 574 507 559 593 579 596 544 570 545 600 548 590 582 593 552 546 543 518 573 570 550 547 561 587 570 562 546 570 548 581 538 585 534 529 551 587 556 568 571 563 558 549 567 597 588 561 548 530 559 565 563 555 557 557 536 600 559 594 575 533 554 554 537 533 568 563 540 532 540 560 587 521 585 529 585 525 532 562 523 573 554 571 607 547 535 538 593 534 550 550 600 553 551 549 559 560 614 568 512 588 575 535 564 540 527 495 542 590 544 577 547 589 564 543 548 568 578 547 570 555 553 552 595 517 572 580 567 570 541 550 545 579 553 562 519 546 570 599 547 518 582 521 532 557 535 595 560 521 535 539 530 519 539 531 563 550 606 556 565 550 540 574 552 564 550 582 529 563 593 512 561 549 529 588 542 532 561 530 568 528 537 535 569 553 528 521 537 574 527 525 537 540 534 542 546 552 549 603 535 529 613 548 522 545 543 575 556 522 524 549 563 541 535 540 593 580 566 519 518 506 535 525 540 539 541 541 503 528 595 528 549 521 556 523 520 553 568 520 566 574 614 539 556 533 528 497 516 521 536 542 545 595 566 563 556 559 548 529 564 574 560 550 537 554 587 591 569 568 512 528 540 508 564 551 515 579 544 553 522 545 554 577 526 556 555 574 546 569 553 525 537 597 562 588 564 531 540 569 596 549 536 545 552 512 548 530 540 547 567 540 543 531 556 534 494 533 516 587 561 533 589 565 533 535 563 600 530 556 544 505 568 594 573 511 519 524 552 570 541 606 538 519 544 562 496 568 573 528 535 518 533 521 535 567 561 511 541 539 530 550 532 554 584 519 573 562 528 535 538 520 532 538 527 536 598 540 539 526 528 536 534 516 534 535 550 530 547 535 579 539 519 528 572 552 568 575 548 576 535 553 581 591 533 518 530 516 566 531 523 590 531 539 549 547 561 536 550 538 544 560 532 560 549 553 561 535 548 514 529 510 546 583 525 570 529 543 553 546 525 527 557 559 587 579 581 550 516 550 574 556 550 580 584 571 549 570 594 576 533 575 550 535 587 537 574 522 561 533 537 546 567 514 592 595 530 579 546 506 537 538 599 587 589 577 513 557 549 541 534 535 531 495 528 565 546 629 564 592 580 568 568 559 559 550 561 577 560 543 541 584 576 555 578 556 578 566 574 569 563 516 542 582 532 569 592 582 496 529 544 562 527 572 589 508 568 559 577 558 527 558 580 606 533 551 536 508 538 592 562 564 530 574 554 538 539 524 609 539 566 520 499 564 559 579 548 544 547 540 516 543 576 579 571 583 502 506 561 566 569 567 559 546 584 543 581 565 533 547 564 543 542 551 558 572 550 532 551 573 522 586 515 586 554 537 549 575 551 550 533 561 554 538 530 549 552 543 599 588 541 513 542 577 564 530 538 509 547 594 534 609 567 570 554 552 568 505 597 572 510 521 537 609 547 549 544 545 591 539 575 540 520 553 526 563 504 530 556 549 543 565 567 546 542 530 560 530 588 546 611 533 562 558 546 549 529 497 531 550 528 575 536 520 572 581 539 520 534 550 613 541 553 596 545 546 537 548 540 560 578 588 548 600 583 592 596 541 575 569 581 588 572 568 582 542 590 573 562 567 518 539 588 546 562 589 582 549 581 578 551 533 551 575 556 580 593 592 611 561 578 568 644 634 643 631 643 580 598 619 623 655 652 650 711 601 636 632 662 647 634 691 669 681 677 664 709 664 674 677 668 666 673 682 649 674 672 689 670 688 626 633 675 655 599 640 693 628 635 663 677 618 630 652 670 593 608 629 619 587 571 595 628 640 621 594 594 587 614 561 574 573 615 607 600 585 580 577 584 612 564 576 551 599 574 549 573 576 547 553 573 598 599 604 564 589 570 582 593 566 582 552 574 554 549 613 589 588 595 580 557 570 565 549 554 593 560 555 540 566 536 597 550 523 636 514 569 549 551 536 526 570 550 593 554 551 573 546 566 535 563 574 566 546 575 552 506 549 544 588 559 541 553 570 578 593 559 547 531 553 590 589 538 584 569 607 555 600 619 582 549 563 561 574 589 579 616 591 516 565 573 567 597 565 528 487 614 577 532 569 607 584 548 575 588 601 580 609 596 599 583 599 608 552 569 571 617 574 598 568 613 556 556 583 552 569 565 544 576 617 589 553 518 553 571 584 568 557 583 552 590 553 545 591 530 541 581 564 611 556 532 555 562 560 564 553 543 550 568 568 569 551 528 502 515 546 573 539 500 511 569 584 510 525 533 532 493 552 524 538 540 551 546 566 548 576 551 563 517 530 548 540 542 553 513 562 500 570 497 548 531 544 567 520 514 545 558 534 561 496 490 554 543 529 513 509 575 511 548 538 553 537 526 534 535 536 503 549 543 561 517 540 512 560 526 520 582 551 496 570 540 514 557 562 560 538 498 511 560 552 528 508 524 552 564 552 556 555 521 562 493 545 534 530 553 524 565 565 535 527 550 520 489 578 580 533 547 546 560 539 550 523 536 566 595 575 543 598 539 518 534 512 535 538 569 514 559 577 566 578 595 518 537 539 512 544 539 555 547 534 567 549 505 507 584 557 521 551 541 533 538 538 491 497 511 534 519 503 560 560 547 492 540 554 582 575 586 531 541 573 539 546 517 558 544 497 544 550 576 556 536 608 548 546 510 582 583 533 521 527 576 533 540 514 554 544 593 543 563 598 557 524 544 579 558 561 541 495 522 554 518 514 588 531 565 530 563 556 521 542 514 563 518 513 548 598 585 567 537 594 475 531 508 533 553 538 547 541 520 529 574 528 573 581 524 526 527 529 588 540 529 563 521 577 521 536 583 555 530 522 522 543 557 523 526 544 583 568 528 525 544 591 513 554 541 513 514 520 552 571 534 566 567 575 530 517 540 532 619 612 505 529 530 568 564 587 526 552 540 539 563 510 482 526 514 556 523 574 538 562 549 559 528 526 562 535 568 570 537 572 532 553 526 546 582 535 558 561 536 580 538 568 542 551 518 538 557 559 570 513 523 552 510 525 566 528 564 575 553 536 521 523 520 539 536 551 571 546</counts>
			</dataPoints>
		</scan>
	</xrdMeasurement>
</xrdMeasurements>
