<?xml version="1.0"?>
<xrdMeasurements xmlns="http://www.xrdml.com/XRDMeasurement/2.3" xmlns:xsi="http://www.w3.org/2001/XMLSchema-instance" xsi:schemaLocation="http://www.xrdml.com/XRDMeasurement/2.3 http://www.xrdml.com/XRDMeasurement/2.3/XRDMeasurement.xsd" status="Completed" recordIdentifier="{22BAF1B2-6379-45D7-B3E1-B39E26230C31}">
	<comment>
		<entry/>
	</comment>
	<sample type="To be analyzed">
		<id>GPSS_Li1p65Ni0p75Cu0p10Ta0p15Cl4_121325_693cb366f4d05ae3d69752b6</id>
		<name></name>
		<preparedBy></preparedBy>
	</sample>
	<xrdMeasurement measurementType="Scan" status="Completed" sampleMode="Reflection">
		<usedWavelength intended="K-Alpha 1">
			<kAlpha1 unit="Angstrom">1.5405980</kAlpha1>
			<kAlpha2 unit="Angstrom">1.5444260</kAlpha2>
			<kBeta unit="Angstrom">1.3922500</kBeta>
			<ratioKAlpha2KAlpha1>0.5000</ratioKAlpha2KAlpha1>
		</usedWavelength>
		<incidentBeamPath>
			<radius unit="mm">145.00</radius>
			<xRayTube id="1010048" name="Empyrean Cu LFF HR (9430 033 7310x)">
				<tension unit="kV">40.0</tension>
				<current unit="mA">15.0</current>
				<anodeMaterial>Cu</anodeMaterial>
				<focus type="Line">
					<length unit="mm">12.0</length>
					<width unit="mm">0.4</width>
					<takeOffAngle unit="deg">6.0</takeOffAngle>
				</focus>
			</xRayTube>
			<sollerSlit id="21010002" name="Soller slits 0.04 rad.">
				<opening unit="rad">0.0400</opening>
			</sollerSlit>
			<mask id="22031000" name="Fixed mask 13 mm">
				<width unit="mm">9.00</width>
			</mask>
			<divergenceSlit id="22120001" name="Divergence slit 1°" xsi:type="fixedDivergenceSlitType">
				<distanceToSample unit="mm">50.00</distanceToSample>
				<height unit="mm">1.52</height>
			</divergenceSlit>
		</incidentBeamPath>
		<sampleMovement xsi:type="spinningSampleMovementType">
			<spinnerRevolutionTime unit="seconds">1.0</spinnerRevolutionTime>
		</sampleMovement>
		<diffractedBeamPath>
			<radius unit="mm">145.00</radius>
			<antiScatterSlit id="22090040" name="AS slit 9 mm (PIXcel)" xsi:type="fixedAntiScatterSlitType">
				<height unit="mm">9.00</height>
			</antiScatterSlit>
			<sollerSlit id="21020003" name="Large Soller slits 0.04 rad.">
				<opening unit="rad">0.0400</opening>
			</sollerSlit>
			<filter id="20030001" name="Large beta-filter Nickel">
				<material>Ni</material>
				<thickness unit="mm">0.020</thickness>
			</filter>
			<detector id="7010019" name="PIXcel1D-Medipix3 detector" xsi:type="rtmsDetectorType">
				<phd unit="keV">
					<lowerLevel>4.02</lowerLevel>
					<upperLevel>11.27</upperLevel>
				</phd>
				<mode>Scanning</mode>
				<activeLength unit="deg">5.542</activeLength>
			</detector>
		</diffractedBeamPath>
		<scan appendNumber="0" mode="Continuous" scanAxis="Gonio" status="Completed">
			<header>
				<startTimeStamp>2025-12-16T12:28:17-08:00</startTimeStamp>
				<endTimeStamp>2025-12-16T12:36:24-08:00</endTimeStamp>
				<author>
					<name>AutomatedUser</name>
				</author>
				<source>
					<applicationSoftware version="1.7b (136)">PANalytical Aeris Instrument Suite</applicationSoftware>
					<instrumentControlSoftware version="3.2.00000000 20240306">AERIS</instrumentControlSoftware>
					<instrumentID>950485</instrumentID>
				</source>
			</header>
			<dataPoints>
				<positions axis="2Theta" unit="deg">
					<startPosition>10.00943322</startPosition>
					<endPosition>99.99442286</endPosition>
				</positions>
				<positions axis="Omega" unit="deg">
					<startPosition>5.00471661</startPosition>
					<endPosition>49.99721143</endPosition>
				</positions>
				<commonCountingTime unit="seconds">12.495</commonCountingTime>
				<counts unit="counts">3181 3234 3277 3376 3139 3226 3257 3363 3372 3235 3337 3247 3208 3155 3129 3278 3254 3193 3183 3218 3164 3179 3290 3187 3132 3267 3244 3270 3164 3158 3213 3181 3244 3291 3135 3250 3175 3216 3104 3295 3365 3301 3177 3309 3249 3326 3286 3249 3271 3217 3263 3325 3263 3246 3195 3301 3167 3203 3294 3370 3242 3322 3355 3321 3314 3330 3365 3209 3260 3251 3166 3225 3239 3297 3332 3273 3321 3288 3312 3296 3295 3209 3262 3351 3347 3286 3371 3294 3375 3422 3225 3359 3164 3350 3321 3177 3244 3328 3388 3298 3341 3318 3392 3391 3368 3317 3285 3280 3399 3265 3361 3320 3310 3369 3233 3375 3377 3326 3328 3256 3264 3298 3285 3358 3372 3361 3423 3360 3272 3417 3389 3338 3402 3242 3370 3304 3301 3338 3231 3295 3253 3460 3364 3364 3373 3416 3409 3340 3460 3308 3354 3328 3346 3249 3525 3320 3369 3349 3283 3273 3242 3199 3395 3358 3353 3372 3340 3312 3249 3324 3260 3316 3269 3292 3390 3347 3280 3342 3201 3321 3324 3273 3214 3276 3385 3268 3269 3269 3400 3375 3201 3356 3268 3277 3372 3311 3268 3289 3326 3294 3192 3307 3237 3307 3273 3280 3326 3185 3331 3204 3300 3271 3327 3201 3262 3254 3325 3130 3227 3212 3252 3290 3314 3328 3169 3296 3340 3276 3288 3308 3287 3282 3164 3262 3390 3249 3241 3355 3255 3200 3272 3313 3304 3327 3294 3253 3254 3211 3220 3329 3264 3171 3245 3333 3256 3182 3256 3187 3294 3256 3299 3298 3309 3293 3187 3221 3251 3267 3212 3261 3188 3156 3236 3189 3249 3187 3304 3215 3181 3310 3265 3302 3276 3246 3217 3225 3329 3250 3214 3239 3300 3346 3242 3299 3204 3320 3227 3364 3336 3279 3335 3302 3356 3414 3273 3297 3271 3243 3416 3291 3281 3329 3318 3369 3350 3244 3295 3310 3446 3436 3383 3330 3460 3340 3420 3412 3481 3510 3302 3489 3362 3344 3423 3346 3428 3353 3291 3516 3410 3520 3463 3490 3418 3444 3460 3574 3514 3523 3569 3484 3464 3472 3469 3517 3545 3614 3576 3619 3546 3612 3655 3562 3528 3546 3599 3542 3693 3676 3672 3531 3626 3545 3688 3693 3676 3609 3620 3723 3664 3666 3629 3734 3636 3725 3658 3698 3645 3779 3594 3745 3741 3681 3587 3849 3796 3710 3824 3650 3727 3764 3753 3841 3837 3922 3653 3667 3724 3808 3773 3800 3696 3690 3820 3831 3900 3833 3873 3872 3760 3788 3856 3863 3844 3868 3697 3842 3896 3876 3818 3891 3935 3940 3988 3896 3975 3919 3903 4049 4131 4140 4064 4158 4180 4309 4255 4157 4358 4291 4279 4398 4283 4338 4355 4270 4511 4344 4425 4468 4522 4544 4441 4643 4530 4744 4748 4818 4912 4979 5101 5231 5238 5392 5509 5691 5796 5886 6007 6064 5971 5917 5991 6028 5938 5910 5655 5792 5716 5806 5699 5723 5692 5699 5937 6070 5864 6038 6044 5862 6053 6071 5983 6004 6120 6032 6002 6027 5948 6133 6099 6103 5994 6000 5792 6044 5691 5567 5392 5384 5145 4833 4853 4739 4554 4468 4170 4075 3997 3923 3945 3732 3722 3794 3677 3617 3624 3688 3638 3691 3643 3742 3451 3694 3528 3504 3515 3545 3468 3440 3492 3474 3557 3471 3432 3396 3433 3428 3436 3436 3390 3522 3411 3463 3309 3361 3341 3352 3354 3428 3283 3391 3443 3340 3392 3267 3292 3418 3469 3329 3285 3384 3329 3283 3369 3390 3302 3335 3350 3323 3334 3318 3266 3372 3358 3330 3263 3288 3266 3087 3302 3267 3260 3246 3414 3294 3216 3296 3211 3289 3335 3265 3295 3234 3239 3339 3127 3269 3270 3247 3231 3263 3278 3267 3247 3266 3228 3290 3255 3259 3229 3310 3319 3176 3216 3275 3214 3230 3258 3195 3224 3228 3148 3307 3223 3226 3229 3334 3197 3287 3220 3247 3182 3305 3261 3224 3227 3358 3300 3256 3253 3191 3199 3291 3272 3294 3295 3219 3288 3290 3289 3251 3225 3235 3286 3236 3427 3141 3104 3234 3226 3199 3174 3253 3241 3202 3129 3158 3193 3179 3171 3190 3213 3258 3256 3184 3208 3187 3188 3180 3101 3186 3153 3195 3204 3097 3143 3154 3107 3166 3171 3205 3163 3147 3114 3126 3203 3229 3128 3078 3302 3161 3148 3123 3178 3166 3226 3166 3164 3129 3166 3066 3125 3180 3057 3069 3176 3067 3010 3026 3039 3135 3247 3179 3053 3098 3129 3114 3070 3116 3120 3135 3186 3154 3185 3086 3045 3094 3143 3125 3108 3124 3161 3046 3052 3097 3101 3118 3253 3162 3081 3170 3043 3051 3065 3056 3056 3048 3023 3167 3020 3125 3084 2996 3079 3028 3050 3007 3085 3084 3055 3024 2992 3139 3024 3054 3024 3026 3023 3102 3208 3078 3111 3094 3057 3082 3085 2953 3058 3063 3096 3058 3057 3070 3002 3074 2942 3035 3064 3038 3128 2986 3056 3106 3083 3021 3026 3024 3043 3072 3002 2990 3122 2967 3021 3037 3078 3031 3015 3026 3134 3132 3096 2960 3109 3008 3076 2918 3043 3079 3008 3006 2936 2993 3011 3025 3094 2981 3046 2934 2996 3032 2952 3091 3042 3022 3005 2978 3062 3105 2990 2994 3080 3005 3062 2902 2910 2946 2972 2943 2963 2888 2861 2962 2850 3009 3004 3006 2903 2865 2902 2985 3009 2947 2968 3007 2917 2958 2954 2919 2972 2826 2859 2910 2867 2893 2950 2945 2886 2988 2940 2952 2940 2936 2945 2909 2954 2890 2982 2955 2964 2944 2920 2918 2928 2942 2879 2938 2903 2859 2888 2901 2958 2891 2859 2845 2873 3057 2752 3019 2937 2905 2921 2966 2933 2837 2951 2908 2932 2863 2869 2900 2878 2955 2891 2887 2953 3066 2858 2940 3004 2983 2943 2902 2903 2914 2901 2804 2933 2940 2862 2905 2938 2913 2805 2892 2915 2884 2980 2863 2815 2922 2785 3020 2891 2849 2965 2902 2873 2889 2894 2915 2871 2911 2923 2976 2832 2996 2906 2917 2869 2918 2972 3070 2878 2997 2930 2937 2885 2940 2903 2900 2934 2920 2785 2930 2954 2821 2942 2911 2908 2985 2920 2949 2934 3040 2933 2900 3026 2951 2856 2872 2871 2951 2933 2849 2983 2931 2997 2946 2931 3016 2913 2876 2958 3057 2958 2943 2904 2890 2973 2953 3038 3062 2953 2967 2872 2947 2952 2907 2816 2899 2901 2922 2943 3024 2949 3008 2965 3004 2984 2901 3005 2998 3012 2989 3033 2992 2987 2999 2955 2939 3009 2969 2883 3039 2974 2947 2931 2949 2945 2927 2909 2971 2904 2999 3011 2891 3084 2971 2997 2924 2956 2917 2932 2967 2838 2961 2989 2854 2989 2851 3010 2911 2885 2976 3067 2915 2921 2967 2856 2979 3000 2960 2940 2883 2929 2897 3003 2870 2945 2889 2947 2867 2957 2800 2943 2882 2794 2793 2858 2815 2850 2959 2829 2890 2810 2886 2896 2878 2894 2845 2814 2874 2802 2820 2810 2803 2849 2840 2809 2780 2896 2846 2805 2736 2916 2829 2809 2880 2755 2967 2920 2716 2790 2806 2777 2849 2803 2806 2774 2728 2872 2778 2816 2785 2718 2787 2838 2746 2849 2879 2741 2798 2705 2700 2597 2825 2737 2774 2691 2651 2742 2780 2693 2670 2747 2761 2889 2638 2690 2771 2703 2634 2686 2694 2650 2747 2662 2710 2614 2648 2579 2642 2692 2547 2668 2652 2662 2673 2675 2588 2604 2639 2533 2590 2662 2601 2519 2664 2533 2547 2531 2577 2568 2569 2524 2589 2548 2520 2631 2632 2479 2559 2588 2530 2555 2523 2514 2499 2537 2452 2542 2539 2452 2518 2445 2440 2524 2544 2461 2487 2500 2524 2536 2458 2476 2476 2440 2461 2410 2397 2422 2416 2495 2469 2462 2503 2484 2628 2500 2533 2460 2393 2444 2521 2455 2454 2521 2334 2471 2439 2517 2428 2391 2434 2457 2429 2421 2396 2510 2423 2429 2443 2442 2467 2457 2414 2350 2464 2515 2449 2544 2514 2459 2504 2493 2431 2453 2431 2437 2447 2399 2635 2398 2466 2476 2558 2454 2500 2479 2409 2509 2530 2426 2409 2539 2457 2514 2554 2439 2501 2421 2450 2496 2394 2464 2482 2462 2477 2468 2379 2450 2457 2456 2401 2476 2397 2370 2469 2432 2530 2412 2434 2486 2430 2404 2453 2329 2429 2411 2455 2475 2423 2396 2344 2428 2363 2489 2465 2418 2395 2434 2430 2427 2427 2384 2491 2418 2433 2433 2373 2482 2457 2494 2378 2374 2421 2336 2459 2436 2528 2459 2490 2450 2376 2474 2424 2422 2448 2499 2430 2464 2409 2398 2413 2532 2382 2540 2391 2443 2498 2350 2492 2492 2445 2452 2445 2411 2428 2518 2412 2408 2506 2372 2440 2442 2410 2423 2445 2481 2455 2409 2393 2417 2438 2393 2400 2421 2427 2393 2467 2382 2538 2537 2511 2404 2477 2509 2468 2400 2376 2344 2488 2387 2400 2459 2403 2444 2429 2478 2489 2468 2453 2429 2457 2450 2354 2445 2435 2439 2352 2426 2437 2419 2398 2359 2321 2455 2526 2483 2349 2446 2426 2425 2465 2424 2370 2413 2427 2426 2408 2449 2471 2354 2352 2395 2281 2375 2366 2413 2378 2397 2437 2402 2398 2332 2393 2382 2411 2386 2329 2383 2401 2436 2435 2408 2484 2407 2496 2364 2445 2465 2395 2266 2344 2348 2333 2506 2374 2375 2307 2343 2302 2337 2360 2441 2460 2356 2247 2357 2326 2363 2364 2416 2475 2413 2339 2328 2303 2364 2357 2326 2292 2251 2341 2354 2294 2267 2273 2259 2254 2259 2282 2238 2308 2227 2152 2269 2246 2238 2268 2219 2259 2267 2108 2253 2175 2237 2190 2187 2284 2173 2227 2191 2294 2187 2300 2271 2229 2201 2122 2233 2243 2223 2136 2192 2211 2184 2210 2217 2187 2112 2239 2139 2100 2148 2126 2196 2128 2126 2115 2212 2138 2139 2149 2156 2059 2164 2092 2122 2061 2150 2151 2164 2146 2190 2087 2187 2154 2115 2098 2091 2109 2160 2217 2158 2077 2124 2077 2152 2078 2117 2034 2146 2075 2081 2108 2113 2096 2009 2176 2140 2077 2001 2189 2135 2102 2187 2207 2076 2231 2241 2236 2292 2251 2256 2237 2336 2338 2252 2359 2321 2372 2263 2317 2320 2256 2359 2184 2233 2227 2163 2195 2244 2201 2210 2214 2182 2221 2104 2163 2102 2226 2226 2131 2144 2205 2226 2149 2196 2191 2169 2137 2114 2242 2236 2270 2143 2227 2210 2172 2190 2120 2085 2159 2146 2078 2184 2104 2103 2139 2080 2106 2039 2100 2043 2033 2014 1992 2045 2034 2044 1950 2114 1904 2067 2005 2194 2078 2019 1980 1930 2038 2034 1999 1936 1989 2069 2081 1997 2009 1937 1918 2012 1952 2039 1904 1965 1966 1917 2002 1927 1954 1918 1921 1861 1923 1859 1894 1918 1920 1872 1941 1867 1975 1957 2067 1969 1936 1889 1961 1923 1789 1980 1949 1955 2032 1891 1949 1913 1964 2061 1981 1975 2017 2044 2052 2048 2041 2114 2078 2078 2127 2120 2222 2309 2368 2453 2507 2653 2752 2780 2903 3087 3255 3320 3590 3501 3661 3613 3828 3531 3727 3620 3600 3514 3574 3440 3545 3500 3507 3439 3622 3317 3322 3351 3258 3120 3342 3189 3169 3161 3210 3148 3213 3168 3174 3213 3162 3201 3222 3165 3173 3108 3049 2971 2990 2824 2832 2712 2735 2685 2651 2489 2596 2425 2391 2369 2304 2294 2270 2203 2181 2156 2105 2168 2088 2100 2059 2007 1964 1985 1975 2057 1920 2005 1981 1929 2025 2050 1934 2059 1973 1903 1947 2011 1984 1974 1934 1929 1840 1885 1922 1933 1884 1943 1832 2011 1938 1887 1968 1884 1888 1895 1854 1848 1884 1921 1856 1953 1822 1832 1926 1929 1887 1842 1898 1813 1773 1927 1891 1850 1846 1913 1890 1863 1851 1848 1790 1927 1863 1873 1899 1771 1876 1808 1844 1798 1918 1827 1857 1874 1825 1784 1748 1711 1794 1792 1807 1800 1887 1798 1843 1857 1794 1790 1811 1814 1829 1807 1785 1748 1776 1766 1831 1755 1769 1797 1739 1824 1757 1799 1824 1771 1753 1808 1790 1765 1778 1820 1743 1777 1734 1746 1762 1762 1745 1737 1723 1788 1793 1801 1822 1727 1730 1759 1828 1799 1823 1808 1776 1756 1801 1797 1777 1798 1788 1738 1754 1835 1773 1800 1758 1787 1788 1795 1787 1762 1760 1719 1751 1770 1803 1781 1891 1836 1815 1840 1809 1813 1753 1816 1726 1815 1776 1889 1855 1771 1852 1843 1892 1824 1868 1871 1855 1839 1869 1847 1866 1932 1862 1887 1976 1959 1923 1906 2020 1971 2094 2102 2053 2128 2046 2127 2200 2224 2152 2208 2116 2173 2199 2164 2188 2195 2201 2108 2188 2117 2119 2074 2124 2135 2122 2152 2008 2107 2053 2045 2006 1985 2077 1936 1943 1990 2003 1859 1962 2001 1960 1967 1980 1929 1907 1823 1979 1878 1836 1849 1896 1888 1887 1867 1844 1864 1986 1854 1875 1875 1866 1828 1835 1815 1808 1827 1834 1838 1883 1778 1865 1845 1839 1898 1811 1812 1878 1821 1705 1839 1833 1785 1876 1785 1818 1832 1922 1898 1876 1865 1799 1789 1781 1862 1796 1832 1787 1797 1741 1778 1820 1750 1794 1849 1836 1719 1811 1725 1836 1818 1790 1792 1783 1798 1799 1892 1799 1843 1735 1803 1822 1872 1809 1816 1827 1756 1849 1778 1788 1745 1810 1745 1815 1779 1774 1763 1789 1860 1804 1803 1804 1857 1851 1796 1831 1839 1806 1805 1845 1658 1828 1828 1894 1864 1803 1783 1835 1795 1883 1893 1785 1816 1836 1825 1802 1870 1889 1889 1865 1834 1861 1986 1910 1951 1976 1961 2090 2122 2144 2199 2334 2415 2652 2585 2963 3217 3615 3904 4203 4448 4619 4771 4825 5033 4768 4868 4824 4849 4637 4676 4400 4274 4378 4327 4284 4106 3997 4053 3998 3902 3875 3665 3763 3714 3831 3605 3848 3781 3589 3450 3414 3439 3365 3411 3426 3222 3321 3172 3224 2992 3011 2946 2876 2792 2788 2788 2653 2564 2587 2535 2495 2461 2429 2264 2407 2336 2329 2169 2071 2162 2022 1958 1891 1970 1888 1842 1817 1691 1809 1821 1794 1780 1715 1739 1773 1698 1693 1734 1718 1712 1765 1741 1712 1562 1707 1723 1711 1643 1715 1721 1644 1698 1692 1652 1667 1720 1679 1669 1682 1694 1772 1701 1753 1645 1699 1749 1759 1662 1798 1745 1771 1719 1640 1727 1722 1750 1742 1751 1711 1679 1709 1751 1772 1771 1774 1782 1776 1800 1847 1831 1939 1932 1893 1923 1970 1949 1929 1826 1844 1951 1898 1892 1845 1915 1893 1869 1734 1829 1858 1721 1860 1829 1851 1895 1844 1882 1830 1977 1906 1835 1939 1970 1855 1868 1806 1873 1805 1849 1753 1884 1848 1811 1784 1820 1770 1732 1770 1772 1818 1718 1719 1680 1696 1734 1689 1744 1659 1679 1591 1580 1658 1654 1711 1615 1671 1706 1630 1626 1634 1672 1575 1643 1682 1612 1649 1660 1642 1574 1625 1574 1588 1695 1601 1638 1614 1669 1554 1672 1653 1679 1627 1698 1647 1569 1634 1629 1680 1597 1663 1564 1593 1660 1546 1710 1569 1542 1637 1623 1602 1671 1646 1570 1579 1651 1604 1651 1604 1568 1546 1593 1569 1518 1578 1540 1563 1557 1523 1628 1590 1552 1456 1568 1477 1654 1610 1579 1586 1615 1528 1535 1624 1613 1669 1602 1543 1528 1552 1654 1576 1608 1681 1600 1563 1516 1614 1537 1624 1559 1666 1603 1525 1528 1587 1546 1581 1599 1583 1539 1487 1567 1552 1627 1501 1606 1573 1655 1573 1625 1562 1496 1580 1598 1514 1514 1561 1572 1575 1520 1585 1572 1550 1542 1536 1456 1573 1594 1529 1455 1614 1496 1549 1546 1519 1565 1477 1556 1541 1598 1488 1475 1515 1502 1463 1501 1532 1499 1538 1531 1442 1452 1578 1534 1445 1526 1448 1468 1445 1485 1435 1467 1479 1445 1477 1436 1402 1483 1474 1490 1440 1461 1467 1456 1419 1404 1459 1463 1436 1493 1444 1454 1492 1472 1468 1453 1388 1474 1415 1463 1401 1447 1383 1493 1417 1435 1402 1497 1390 1488 1404 1440 1411 1471 1452 1442 1431 1436 1396 1410 1384 1398 1414 1464 1455 1409 1462 1401 1444 1496 1422 1419 1409 1458 1394 1413 1361 1424 1353 1387 1402 1363 1390 1447 1388 1401 1405 1447 1365 1405 1503 1429 1426 1383 1366 1385 1426 1431 1432 1332 1334 1371 1369 1428 1327 1371 1313 1363 1403 1357 1430 1371 1330 1333 1370 1341 1313 1409 1333 1289 1371 1301 1290 1282 1323 1318 1355 1310 1392 1357 1362 1389 1343 1318 1320 1350 1325 1333 1342 1354 1347 1351 1297 1336 1299 1395 1309 1269 1306 1257 1317 1283 1300 1333 1271 1350 1307 1256 1305 1328 1220 1330 1260 1274 1309 1301 1310 1268 1290 1269 1274 1259 1321 1336 1264 1269 1273 1345 1297 1282 1321 1296 1295 1299 1333 1301 1265 1361 1310 1313 1249 1284 1309 1279 1283 1256 1315 1302 1255 1237 1367 1341 1234 1305 1243 1265 1224 1252 1291 1322 1288 1317 1305 1285 1286 1282 1235 1274 1295 1342 1215 1256 1261 1281 1269 1276 1263 1359 1272 1268 1197 1264 1280 1251 1295 1294 1190 1235 1250 1235 1260 1247 1280 1167 1269 1192 1264 1254 1276 1285 1207 1271 1231 1258 1244 1315 1156 1257 1174 1280 1229 1233 1251 1313 1181 1291 1202 1317 1232 1267 1234 1195 1276 1209 1314 1235 1216 1240 1220 1218 1139 1229 1229 1258 1244 1211 1224 1225 1224 1259 1247 1318 1185 1254 1213 1200 1240 1221 1164 1252 1223 1247 1228 1189 1231 1207 1274 1157 1240 1293 1289 1261 1223 1229 1225 1211 1181 1227 1197 1193 1252 1217 1260 1237 1223 1272 1194 1157 1206 1292 1232 1181 1192 1231 1227 1214 1197 1169 1181 1210 1225 1214 1236 1144 1261 1229 1182 1192 1206 1192 1202 1292 1200 1186 1207 1160 1241 1203 1212 1196 1239 1274 1221 1268 1163 1220 1240 1235 1173 1216 1187 1267 1231 1171 1207 1202 1201 1204 1216 1173 1176 1207 1229 1253 1232 1202 1241 1172 1183 1188 1130 1236 1179 1216 1162 1219 1187 1191 1212 1189 1141 1204 1196 1186 1234 1153 1132 1194 1201 1248 1238 1205 1194 1236 1193 1136 1133 1212 1229 1205 1263 1207 1241 1261 1105 1244 1213 1238 1256 1216 1189 1233 1216 1148 1157 1189 1232 1253 1267 1157 1220 1189 1204 1211 1278 1196 1226 1217 1210 1243 1185 1255 1297 1209 1206 1209 1207 1251 1212 1236 1241 1233 1228 1251 1212 1196 1199 1183 1154 1219 1142 1237 1135 1204 1180 1217 1185 1163 1090 1244 1233 1197 1178 1201 1155 1172 1203 1161 1155 1139 1225 1158 1135 1195 1189 1157 1164 1158 1173 1144 1176 1144 1218 1190 1221 1189 1235 1196 1228 1182 1208 1130 1117 1221 1213 1177 1199 1211 1203 1193 1184 1170 1216 1157 1181 1282 1131 1224 1211 1217 1184 1149 1129 1149 1200 1197 1218 1153 1206 1141 1174 1136 1141 1181 1141 1138 1115 1177 1229 1129 1161 1142 1150 1220 1189 1159 1202 1161 1166 1138 1138 1145 1211 1173 1185 1146 1167 1179 1243 1165 1194 1221 1251 1195 1177 1204 1192 1175 1171 1169 1162 1169 1164 1258 1155 1186 1146 1198 1174 1202 1189 1184 1103 1195 1152 1110 1207 1123 1183 1103 1164 1143 1212 1252 1238 1201 1159 1262 1214 1174 1181 1199 1175 1165 1170 1126 1196 1142 1188 1191 1109 1159 1211 1173 1224 1155 1229 1173 1210 1135 1203 1227 1126 1196 1194 1154 1162 1151 1203 1180 1140 1121 1191 1217 1159 1170 1144 1126 1147 1215 1182 1154 1159 1113 1198 1147 1166 1167 1231 1124 1171 1174 1173 1166 1177 1194 1200 1196 1199 1263 1121 1142 1193 1274 1217 1216 1179 1228 1210 1316 1225 1220 1332 1239 1254 1309 1182 1238 1243 1230 1231 1298 1159 1235 1262 1262 1274 1298 1269 1241 1275 1200 1192 1192 1224 1301 1305 1316 1229 1234 1233 1260 1228 1172 1236 1260 1249 1194 1189 1270 1242 1232 1196 1166 1218 1153 1184 1188 1131 1210 1175 1177 1185 1194 1189 1192 1144 1152 1181 1208 1138 1203 1204 1234 1185 1130 1204 1197 1155 1120 1179 1183 1116 1192 1163 1195 1260 1120 1156 1166 1223 1173 1190 1209 1145 1171 1190 1191 1159 1189 1201 1239 1216 1181 1251 1188 1235 1223 1259 1218 1200 1187 1222 1242 1235 1261 1298 1317 1300 1188 1204 1221 1272 1263 1277 1279 1318 1333 1343 1306 1371 1310 1416 1325 1312 1374 1394 1384 1396 1398 1391 1328 1398 1363 1302 1367 1318 1340 1355 1356 1365 1327 1336 1339 1320 1332 1350 1313 1429 1290 1278 1279 1264 1284 1314 1300 1270 1305 1321 1279 1284 1249 1224 1264 1236 1269 1312 1322 1224 1233 1211 1216 1233 1225 1251 1216 1246 1259 1180 1269 1225 1258 1238 1223 1209 1221 1188 1231 1190 1143 1210 1156 1245 1202 1199 1186 1211 1200 1178 1196 1198 1194 1136 1178 1216 1171 1230 1229 1243 1224 1262 1210 1179 1267 1198 1248 1263 1230 1218 1162 1224 1204 1167 1211 1183 1201 1199 1236 1212 1239 1195 1235 1222 1173 1170 1196 1247 1158 1147 1180 1240 1223 1183 1215 1206 1241 1211 1248 1187 1183 1226 1171 1182 1232 1176 1193 1209 1245 1239 1254 1209 1200 1155 1229 1164 1176 1128 1151 1240 1219 1266 1200 1187 1150 1212 1257 1172 1283 1184 1210 1162 1211 1171 1168 1158 1199 1223 1243 1204 1268 1179 1225 1183 1259 1167 1183 1197 1165 1288 1158 1229 1189 1204 1254 1197 1240 1181 1168 1238 1151 1181 1178 1196 1202 1260 1206 1208 1254 1194 1216 1206 1219 1223 1201 1272 1203 1134 1233 1260 1225 1181 1187 1206 1222 1254 1166 1244 1230 1173 1224 1216 1191 1254 1227 1207 1223 1235 1220 1249 1204 1181 1311 1240 1239 1259 1221 1174 1277 1297 1224 1265 1293 1234 1257 1268 1308 1363 1288 1372 1376 1403 1443 1461 1467 1608 1603 1695 1738 1818 1856 1825 1814 1726 1805 1640 1772 1698 1770 1737 1782 1714 1712 1861 1725 1754 1753 1855 1808 1798 1937 1887 1910 1900 1913 1863 1865 1873 1866 1770 1701 1826 1809 1810 1851 1741 1757 1743 1781 1678 1626 1667 1535 1554 1504 1506 1556 1554 1523 1443 1537 1494 1458 1419 1450 1446 1403 1382 1441 1365 1411 1351 1300 1337 1270 1298 1314 1280 1282 1242 1239 1277 1285 1257 1301 1214 1233 1225 1235 1243 1198 1190 1187 1123 1269 1183 1232 1114 1191 1160 1193 1137 1123 1175 1189 1131 1233 1166 1175 1101 1185 1226 1178 1206 1197 1172 1192 1159 1104 1149 1169 1177 1133 1187 1168 1186 1139 1140 1217 1176 1146 1190 1197 1182 1191 1158 1164 1192 1097 1158 1136 1194 1268 1160 1179 1202 1170 1232 1162 1199 1178 1130 1181 1196 1225 1100 1182 1203 1172 1144 1195 1183 1185 1214 1223 1152 1236 1205 1167 1255 1210 1150 1250 1214 1174 1223 1138 1151 1191 1188 1174 1285 1237 1178 1213 1198 1191 1259 1198 1258 1227 1229 1234 1262 1215 1232 1224 1180 1264 1257 1270 1211 1244 1285 1184 1241 1235 1209 1265 1225 1187 1229 1217 1245 1215 1200 1216 1330 1243 1296 1259 1321 1308 1313 1311 1269 1339 1445 1415 1414 1498 1593 1554 1566 1612 1613 1624 1595 1657 1703 1731 1674 1683 1618 1697 1721 1725 1714 1654 1710 1741 1689 1699 1708 1735 1765 1697 1783 1720 1656 1604 1697 1772 1602 1619 1687 1673 1722 1603 1680 1588 1575 1576 1576 1533 1629 1584 1570 1516 1499 1516 1400 1440 1420 1402 1346 1371 1309 1304 1278 1338 1309 1269 1230 1345 1288 1264 1267 1206 1214 1210 1207 1204 1212 1184 1181 1129 1168 1105 1142 1201 1154 1123 1150 1183 1214 1155 1161 1135 1193 1144 1133 1184 1170 1087 1119 1112 1116 1170 1164 1062 1164 1125 1113 1154 1075 1137 1113 1072 1125 1164 1114 1133 1120 1085 1139 1106 1164 1096 1100 1066 1126 1129 1114 1048 1106 1129 1116 1103 1098 1053 1107 1074 1163 1116 1071 1144 1138 1090 1139 1127 1052 1151 1067 1053 1125 1137 1107 1123 1032 1167 1163 1107 1127 1025 1061 1129 1062 1062 1119 1118 1047 1128 1076 1049 1054 1113 1123 1108 1093 1089 1101 1132 1121 1077 1093 1120 1106 1011 1057 1083 1109 1119 1090 1118 1055 1066 1145 1088 1124 1153 1106 1123 1150 1137 1102 1105 1122 1129 1066 1108 1101 1095 1063 1142 1120 1137 1159 1172 1101 1161 1094 1153 1076 1062 1111 1125 1070 1164 1161 1113 1152 1173 1117 1070 1181 1218 1142 1158 1175 1146 1213 1168 1245 1215 1210 1287 1286 1219 1245 1282 1275 1244 1301 1316 1231 1299 1332 1315 1365 1318 1302 1314 1319 1322 1296 1333 1358 1299 1331 1296 1324 1260 1323 1259 1291 1330 1232 1259 1212 1261 1269 1255 1229 1200 1265 1274 1169 1207 1201 1239 1196 1189 1201 1160 1140 1162 1104 1171 1128 1128 1098 1172 1124 1145 1125 1094 1108 1103 1048 1063 1088 1079 1131 1061 1105 1097 1091 1088 1076 1135 1098 1072 1072 1052 1079 1097 1105 1078 1077 1084 1063 1004 1048 1034 1112 1091 1079 1060 1088 1084 1144 1068 1156 1113 1146 1121 1131 1133 1116 1090 1120 1124 1121 1166 1143 1078 1072 1134 1087 1081 1069 1132 1193 1086 1093 1118 1141 1144 1082 1075 1100 1111 1052 1127 1114 1110 1019 1091 1089 1097 1038 1069 1064 1114 1077 1043 1070 1057 1089 1031 1111 1067 1031 1070 1070 1040 1115 1008 1050 1020 1039 1008 1085 1034 1076 1056 1097 1012 1112 1095 1052 993 1042 1039 1060 1043 1058 1052 1112 1071 1066 1069 1010 1094 1120 1055 1009 1070 1089 1024 1033 966 1025 1045 956 1042 1042 1018 1037 987 1048 1014 1013 1102 1071 1005 1053 1032 997 1049 1008 1042 1015 1062 1067 1053 1035 1013 987 1044 993 1070 1049 1056 1070 1010 1020 1039 1015 1062 1068 1065 1048 1045 979 1051 978 1047 1004 984 1096 979 1051 1048 979 1002 1037 1061 1015 1024 1016 1049 1079 1047 1018 1084 942 981 1054 1026 984 1000 1006 976 1051 1023 1082 1035 1066 939 1037 998 1017 1008 1032 1012 1067 963 960 963 962 989 1001 1007 1041 976 976 985 1026 968 994 973 1026 952 973 1006 1022 980 1044 990 1047 1027 1000 997 1066 1010 1012 1029 1004 1029 1063 1034 972 978 1053 1061 999 1010 1049 1087 1020 987 1029 1035 1029 1047 1057 1004 1032 1031 1044 991 1027 993 986 994 1026 983 1005 1023 1035 992 1073 1036 1021 1008 1052 1053 1022 1049 1050 1070 1042 1062 1121 1053 1021 1092 1055 1057 1008 1084 1093 1022 1060 1000 1078 1034 1044 1057 997 1033 1049 996 985 977 1016 979 1060 1013 1064 967 1081 1026 1045 1047 1054 992 1051 993 995 1039 1067 1044 1039 1056 1009 1031 1011 1038 1038 1009 1062 1053 944 1046 1071 1038 1045 1092 1077 1140 1114 1225 1249 1213 1198 1284 1305 1271 1272 1296 1303 1289 1266 1249 1277 1216 1210 1235 1265 1289 1288 1313 1321 1376 1295 1267 1278 1301 1382 1340 1324 1324 1325 1345 1360 1256 1329 1321 1303 1300 1312 1204 1256 1176 1231 1232 1302 1170 1224 1166 1184 1148 1181 1170 1213 1167 1132 1164 1150 1143 1066 1111 1130 1073 1156 1069 1066 1066 959 1057 1053 1037 1062 1002 1036 1067 1014 1013 1074 1022 908 1036 1022 984 996 970 1022 1056 964 972 1018 996 914 964 961 939 1021 1003 912 975 976 903 1027 963 1019 962 949 1018 998 1025 953 971 1008 958 983 993 954 968 941 959 987 1017 978 975 963 1004 964 1037 977 989 980 969 977 934 944 997 1022 949 1011 950 988 955 960 975 989 928 988 933 965 949 951 901 917 961 944 980 997 899 999 941 986 986 968 967 914 933 977 945 959 945 883 979 898 943 931 950 988 952 916 988 915 1009 932 930 970 915 1020 960 964 958 954 980 947 1010 954 940 926 933 958 943 940 1033 913 967 981 993 918 963 952 914 910 1003 954 920 972 889 934 995 936 982 1012 990 994 1030 1027 971 983 965 972 980 971 929 1011 1014 1015 974 997 992 986 971 949 941 909 986 918 981 1013 969 973 956 1017 960 946 945 1006 996 980 981 1001 970 976 952 1028 1020 970 965 958 1004 1006 1027 960 1023 1049 1091 1091 1060 1064 1077 1070 1043 1075 1066 1020 1085 991 1028 1066 1017 1066 1081 1053 1040 1059 1110 1169 1148 1120 1061 1056 1090 1080 1097 1099 1092 1128 1135 1157 1125 1161 1140 1126 1124 1144 1053 1131 1041 1011 1035 1043 1088 1110 1068 1106 1159 1053 1121 1084 1042 1037 1016 1086 1027 1001 1010 973 1052 1039 1036 1007 1041 1060 1079 990 1023 942 970 993 1011 977 1001 1038 992 983 951 956 946 946 1015 969 955 924 945 967 1004 957 938 957 924 907 950 963 970 1007 969 946 952 922 959 951 908 1012 881 1006 995 946 915 906 978 949 1004 920 942 987 942 992 983 988 926 894 973 928 913 955 1007 915 936 868 988 937 875 1045 889 931 988 929 984 993 975 899 949 979 959 970 1016 978 945 989 1010 989 994 954 959 970 936 965 943 1008 1009 1038 978 966 976 983 999 989 1024 984 1016 1042 1021 997 992 1084 1021 1002 1059 1036 1033 1036 963 991 1024 998 1005 1004 1004 986 1077 1024 1049 1010 978 996 990 1051 942 1033 1015 1027 997 1010 1000 952 940 1045 969 990 1019 973 1070 1034 1019 1023 962 940 1012 928 965 954 953 982 1000 989 999 975 1001 971 942 970 999 951 975 1002 998 1037 1004 988 948 969 983 976 1011 936 962 893 970 936 995 968 911 920 918 1008 1021 999 991 943 938 953 911 929 974 954 998 900 966 964 951 977 938 937 958 919 966 995 939 943 955 921 950 944 969 922 956 964 965 928 970 932 957 969 911 952 915 921 960 902 965 943 972 1017 956 965 962 909 873 900 935 935 985 962 948 917 982 989 936 902 978 941 927 952 939 941 911 854 973 926 966 927 937 881 910 931 938 872 934 902 883 911 880 932 917 1003 940 877 913 984 938 907 861 901 918 926 924 908 910 996 930 948 906 972 925 933 937 910 939 879 925 970 889 895 944 901 863 878 940 970 907 945 865 844 862 925 926 925 917 936 940 908 861 934 898 873 862 885 913 907 908 921 872 912 894 960 910 948 934 890 882 946 916 877 906 880 941 900 906 902 928 915 886 920 888 912 865 905 941 923 885 963 876 915 940 888 866 871 928 909 977 901 940 926 930 903 927 906 919 945 882 919 879 932 886 881 911 862 871 900 834 884 897 913 871 927 863 886 981 860 848 912 888 895 889 938 895 914 899 892 871 877 910 895 882 850 879 870 884 840 900 853 889 910 895 910 860 914 851 933 915 895 888 911 866 865 849 933 856 867 789 859 934 847 933 867 862 867 872 884 925 857 874 854 875 897 829 862 861 824 921 826 906 892 889 851 838 935 907 873 852 899 905 874 927 878 899 858 838 861 874 837 882 870 863 877 821 927 869 868 863 827 858 844 894 909 802 823 880 887 917 886 951 834 888 916 851 877 846 917 866 878 908 880 900 846 821 859 919 849 876 862 921 864 898 933 920 806 881 851 882 866 889 847 847 908 837 900 859 923 902 903 895 863 901 873 888 889 901 883 871 848 926 835 874 903 816 860 884 846 779 960 866 856 851 819 861 851 884 826 907 907 864 878 843 849 853 859 875 841 883 889 873 920 872 851 840 888 855 901 881 888 868 910 894 882 883 862 893 848 853 852 833 881 822 843 865 826 867 895 816 852 898 833 875 851 864 868 858 901 810 818 857 891 916 850 845 865 836 874 819 888 875 827 814 874 884 848 830 900 853 866 924 852 852 826 845 825 864 898 831 850 892 824 879 816 842 856 821 773 870 902 863 854 845 858 851 807 785 848 864 838 916 854 812 837 864 861 863 816 871 884 787 882 893 810 868 851 860 910 857 877 808 893 858 854 827 848 871 877 851 917 818 854 877 849 807 861 830 853 875 863 850 879 841 900 832 841 855 789 844 828 844 834 818 840 803 827 812 873 877 864 889 818 853 839 793 857 831 827 866 823 888 871 866 833 873 844 871 815 879 891 811 863 852 841 865 872 829 807 811 832 885 832 825 825 838 782 825 857 929 821 855 895 845 887 866 889 849 829 839 847 808 888 854 856 835 835 861 822 856 874 843 917 882 864 833 884 866 898 867 806 824 849 859 866 845 843 880 864 856 857 845 818 831 887 888 838 875 839 832 869 773 871 837 854 858 844 857 832 856 831 864 839 828 891 803 810 832 855 846 834 821 813 848 824 806 898 842 762 883 855 868 853 806 768 894 849 859 834 881 846 881 849 807 865 847 817 829 868 826 798 856 865 845 843 886 866 833 875 871 832 810 816 830 884 853 814 869 797 880 911 860 796 879 832 823 837 869 842 828 853 862 850 836 864 847 886 828 898 872 876 828 801 839 851 845 845 870 839 865 826 814 835 872 852 847 831 907 849 848 866 863 851 899 874 877 873 849 864 914 900 896 853 866 928 901 864 909 929 891 940 934 1002 974 964 955 886 922 934 921 928 982 918 941 905 959 879 956 950 914 996 939 961 944 920 972 909 982 932 936 894 954 929 904 912 917 935 927 936 950 944 910 958 864 932 900 908 869 918 904 876 925 942 857 911 833 936 898 871 848 912 828 898 932 884 905 855 875 859 839 826 893 892 835 894 917 880 856 866 872 869 898 857 842 860 888 897 869 837 856 871 893 817 779 866 843 862 883 853 867 855 841 848 895 802 831 847 839 817 835 882 835 848 845 874 785 794 857 851 825 869 847 826 793 822 823 877 888 840 842 831 842 816 812 830 809 856 766 836 849 850 831 855 832 878 810 875 801 830 811 850 839 882 852 864 852 873 856 832 799 801 852 900 876 837 857 866 796 824 857 825 857 798 831 878 862 915 872 824 834 791 864 861 881 843 884 824 863 851 812 828 846 832 792 827 809 816 858 765 817 811 841 852 827 818 861 799 847 861 825 849 865 864 789 799 816 842 863 863 861 897 839 849 871 881 830 892 848 827 811 779 821 786 835 811 829 862 901 859 882 782 807 849 869 802 770 922 815 855 823 878 815 814 858 820 897 868 830 816 849 869 823 878 838 863 806 836 804 825 843 833 877 767 798 888 857 863 843 845 893 800 785 881 859 833 856 878 909 847 837 889 836 803 839 891 854 856 828 853 866 857 857 875 890 784 800 843 877 835 848 858 865 828 855 852 901 837 833 860 844 802 871 826 823 816 811 831 864 859 869 838 909 933 811 864 841 830 772 869 844 845 836 800 887 838 789 818 802 828 835 853 820 812 838 842 821 829 806 853 800 860 826 836 820 767 830 839 799 796 823 842 844 784 819 831 835 877 878 829 806 832 819 851 837 813 838 895 834 847 808 771 803 806 825 798 780 787 798 855 763 790 890 833 816 818 860 837 863 833 835 808 792 799 804 796 794 865 850 823 842 818 853 831 870 818 865 805 838 808 865 842 826 880 823 798 843 801 876 847 837 809 836 818 835 814 803 840 857 830 782 834 816 881 817 838 881 854 835 797 844 803 839 803 810 880 831 811 831 852 859 766 840 817 891 892 831 857 851 791 836 853 828 853 849 840 866 831 858 792 824 860 881 833 859 888 845 807 793 836 852 849 847 798 823 863 781 865 917 843 825 832 867 812 810 859 876 871 824 909 817 834 856 847 816 790 821 804 782 806 845 804 831 823 845 806 836 851 893 802 810 886 803 803 901 819 840 835 840 856 797 825 788 822 813 893 804 845 829 863 806 844 825 852 894 863 833 822 824 854 794 858 823 766 885 859 756 813 859 814 846 824 825 831 826 835 826 809 853 816 833 812 838 761 862 845 825 867 829 790 805 816 859 865 808 838 835 817 814 799 802 810 862 871 808 845 867 824 831 894 848 813 834 869 847 815 821 762 806 785 872 788 812 807 845 910 856 852 818 846 804 790 841 822 806 852 867 887 834 808 786 879 805 878 850 849 851 807 823 827 799 832 823 847 841 824 831 801 811 827 795 808 794 803 782 797 826 804 846 779 852 830 818 878 800 839 782 821 873 843 817 850 857 807 789 837 811 802 853 847 844 806 850 820 794 830 823 822 826 785 911 787 847 805 843 790 837 885 906 877 840 843 863 861 819 882 883 847 905 876 932 904 975 940 952 926 870 904 910 924 952 896 910 937 942 924 934 925 942 846 884 947 883 903 1009 889 946 896 877 864 895 868 929 898 922 869 898 925 917 942 858 855 924 884 895 890 916 866 872 841 906 848 897 843 912 896 868 902 826 867 847 849 816 815 832 811 891 890 854 825 819 867 852 944 853 830 803 899 785 815 835 798 881 845 877 858 853 781 826 886 854 838 855 846 803 820 842 837 779 849 828 789 843 884 827 862 891 804 819 781 841 861 823 780 855 876 800 829 862 836 861 810 842 776 834 810 804 808 875 825 758 824 828 804 844 819 826 830 832 855 895 824 841 802 861 815 837 837 868 815 837 808 785 864 920 789 822 805 845 842 834 856 829 839 766 824 821 850 849 865 803 800 824 820 810 765 819 827 805 877 792 774 817 836 814 827 889 873 802 877 839 841 892 867 821 861 859 798 802 817 851 847 842 842 857 829 821 846 835 854 863 843 878 817 844 841 857 857 829 836 886 828 839 848 846 889 858 875 854 861 851 884 873 839 908 907 913 917 892 904 917 954 933 880 984 928 931 943 906 940 901 945 896 942 982 940 956 928 966 970 942 923 937 921 992 948 956 924 876 1000 922 955 892 905 890 937 879 941 950 955 924 922 973 949 876 913 964 942 998 912 902 933 944 898 963 924 913 917 912 934 906 922 937 954 945 903 956 932 866 886 918 900 925 946 942 918 883 847 850 882 896 853 906 840 872 823 835 881 834 894 853 885 872 832 843 830 855 808 861 859 868 777 796 812 827 806 847 828 798 854 789 863 796 777 826 789 823 805 903 844 813 818 770 877 771 798 807 818 795 842 799 883 804 790 812 801 775 838 780 818 825 849 802 774 885 828 831 760 812 800 808 832 809 818 826 854 814 825 790 840 795 822 796 817 806 871 823 781 888 835 778 840 767 828 797 853 824 803 765 809 812 848 781 815 801 810 779 847 843 797 851 816 776 837 771 779 802 795 791 845 821 800 798 820 764 771 812 809 847 826 801 851 810 850 826 802 820 862 830 829 831 782 828 809 778 815 774 812 841 861 789 836 883 892 868 826 867 784 850 850 803 817 833 827 784 840 807 812 805 817 848 851 922 843 798 774 830 870 822 843 842 820 811 851 808 828 834 804 840 833 856 880 867 838 834 812 834 824 813 855 783 856 873 857 794 867 773 836 835 799 831 785 912 825 793 863 838 889 814 842 892 803 841 806 843 831 858 890 865 835 810 874 844 815 892 877 852 849 887 907 811 866 895 824 907 837 885 877 802 890 932 865 822 869 868 847 876 939 916 914 877 914 909 899 902 929 866 832 893 878 866 940 941 878 859 892 923 900 898 884 898 921 963 941 933 862 905 857 930 890 884 943 925 934 885 845 871 899 894 877 833 852 884 915 832 807 840 847 865 886 893 881 853 875 834 840 871 864 905 829 877 881 828 867 838 836 814 852 817 846 820 850 794 796 841 851 837 875 860 833 952 819 756 800 863 835 819 803 856 833 820 821 875 790 818 821 806 878 828 865 835 808 880 859 857 795 802 846 833 865 843 850 883 819 811 783 857 812 775 845 826 874 894 819 827 808 802 778 843 816 888 830 858 854 843 812 821 837 855 800 873 839 806 786 826 811 821 847 802 812 786 809 823 829 760 840 787 778 822 821 805 850 875 762 865 789 841 732 754 770 798 821 814 793 852 781 811 798 802 814 786 797 818 771 869 841 824 786 789 791 791 822 785 835 750 787 819 804 834 802 785 777 832 837 760 861 789 786 797 806 836 813 843 811 847 796 800 778 800 767 784 822 803 842 711 852 795 831 826 796 812 873 835 836 786 775 786 821 760 803 862 799 789 795 819 817 801 815 831 769 843 787 794 790 800 821 873 775 844 802 831 783 810 825 748 859 821 774 792 785 854 789 758 814 808 754 836 765 808 779 769 791 816 796 768 790 813 800 868 818 810 757 775 795 816 789 788 766 794 790 787 835 752 785 807 813 787 787 797 787 797 781 780 835 781 821 796 759 777 769 797 797 773 731 794 835 835 832 824 786 758 834 775 756 740 820 787 801 784 766 761 759 755 772 794 878 818 774 804 795 800 754 758 801 797 769 783 796 785 798 829 805 753 786 778 771 799 776 788 758 834 763 738 813 805 799 783 773 822 785 766 804 797 761 790 825 769 797 829 832 792 785 789 749 814 843 761 854 768 805 780 754 801 794 737 721 764 803 776 789 821 784 775 786 801 812 801 818 748 792 753 787 779 757 758 772 753 847 783 778 737 823 781 845 766 770 792 713 779 747 778 767 819 767 770 747 776 779 781 823 758 773 745 735 794 726 739 752 758 776 810 726 763 799 736 769 796 778 799 795 786 728 796 792 786 790 763 796 779 755 804 811 687 776 714 791 733 789 752 757 773 754 776 775 714 796 782 744 756 829 830 774 797 754 766 779 750 752 773 797 789 770 764 775 790 793 814 752 753 807 747 768 797 786 785 759 779 778 766 814 795 804 767 762 782 812 778 751 743 763 828 766 775 792 758 733 758 784 834 794 751 811 740 750 753 754 782 748 779 818 772 795 794 779 730 789 716 789 790 789 742 774 788 802 739 775 723 778 805 756 788 758 790 808 762 799 763 775 762 788 752 782 827 803 794 749 812 790 789 795 767 826 809 805 856 758 779 784 801 826 832 796 859 842 854 819 888 895 831 839 838 874 804 837 796 854 806 827 820 821 891 901 872 819 816 830 867 832 824 890 810 873 834 813 823 806 833 830 887 807 767 848 842 844 787 882 825 838 858 769 838 852 829 884 818 835 853 877 838 840 851 850 844 793 799 848 786 826 753 826 813 840 799 811 805 821 843 860 799 808 863 781 799 809 820 772 814 777 808 801 815 818 785 792 815 815 825 841 821 792 774 793 722 802 759 764 797 781 795 815 773 757 726 771 803 796 779 767 786 780 693 798 720 717 828 763 763 753 764 742 746 784 749 781 797 744 804 748 829 808 785 736 786 754 781 785 749 709 735 809 769 815 789 768 778 768 793 773 798 739 760 775 802 821 740 727 750 731 791 756 734 753 746 754 773 806 763 852 716 784 771 755 778 766 748 777 788 760 792 753 748 798 784 816 805 849 729 788 798 799 779 742 758 735 748 792 779 783 793 738 798 777 754 768 812 744 746 817 764 769 768 769 801 750 777 800 757 746 788 781 743 800 774 747 786 751 810 760 762 761 733 849 762 769 785 791 820 793 779 775 781 813 766 760 736 781 803 757 788 777 788 795 747 721 733 800 808 803 770 811 765 768 779 802 813 762 783 802 797 729 775 775 749 768 757 767 783 757 778 777 788 733 777 796 793 810 778 775 748 778 760 812 784 805 751 793 772 760 766 827 751 817 783 791 781 769 791 783 739 761 728 751 782 786 800 815 746 739 798 780 776 748 747 747 768 768 768 754 802 817 802 822 759 755 779 804 812 807 805 788 723 757 787 798 819 739 755 775 768 766 781 738 718 805 770 819 737 769 782 792 771 744 746 754 811 821 759 775 795 739 796 751 766 750 723 763 771 741 783 801 766 744 788 765 738 764 779 743 803 744 788 776 785 774 797 771 727 788 707 756 758 761 839 805 835 758 819 792 810 748 800 703 765 750 770 779 772 787 714 779 771 788 741 792 753 793 707 781 786 768 755 824 784 768 744 771 811 783 763 735 749 730 726 737 697 777 756 820 776 788 782 799 739 754 734 796 749 798 770 767 736 748 796 798 739 752 788 828 776 785 773 774 732 691 767 741 763 748 811 786 797 750 734 807 800 783 802 761 760 756 821 782 797 799 763 757 748 722 840 712 771 697 718 808 774 803 785 783</counts>
			</dataPoints>
		</scan>
	</xrdMeasurement>
</xrdMeasurements>
