<?xml version="1.0"?>
<xrdMeasurements xmlns="http://www.xrdml.com/XRDMeasurement/2.3" xmlns:xsi="http://www.w3.org/2001/XMLSchema-instance" xsi:schemaLocation="http://www.xrdml.com/XRDMeasurement/2.3 http://www.xrdml.com/XRDMeasurement/2.3/XRDMeasurement.xsd" status="Completed" recordIdentifier="{74083EF9-5F63-44F2-8D3B-94C960B6108F}">
	<comment>
		<entry/>
	</comment>
	<sample type="To be analyzed">
		<id>GPSS_Li1p5Mg0p5Y0p5Cl4_101825_68f3cc5f028f64128e25b3b2</id>
		<name></name>
		<preparedBy></preparedBy>
	</sample>
	<xrdMeasurement measurementType="Scan" status="Completed" sampleMode="Reflection">
		<usedWavelength intended="K-Alpha 1">
			<kAlpha1 unit="Angstrom">1.5405980</kAlpha1>
			<kAlpha2 unit="Angstrom">1.5444260</kAlpha2>
			<kBeta unit="Angstrom">1.3922500</kBeta>
			<ratioKAlpha2KAlpha1>0.5000</ratioKAlpha2KAlpha1>
		</usedWavelength>
		<incidentBeamPath>
			<radius unit="mm">145.00</radius>
			<xRayTube id="1010048" name="Empyrean Cu LFF HR (9430 033 7310x)">
				<tension unit="kV">40.0</tension>
				<current unit="mA">15.0</current>
				<anodeMaterial>Cu</anodeMaterial>
				<focus type="Line">
					<length unit="mm">12.0</length>
					<width unit="mm">0.4</width>
					<takeOffAngle unit="deg">6.0</takeOffAngle>
				</focus>
			</xRayTube>
			<sollerSlit id="21010002" name="Soller slits 0.04 rad.">
				<opening unit="rad">0.0400</opening>
			</sollerSlit>
			<mask id="22031000" name="Fixed mask 13 mm">
				<width unit="mm">9.00</width>
			</mask>
			<divergenceSlit id="22120001" name="Divergence slit 1°" xsi:type="fixedDivergenceSlitType">
				<distanceToSample unit="mm">50.00</distanceToSample>
				<height unit="mm">1.52</height>
			</divergenceSlit>
		</incidentBeamPath>
		<sampleMovement xsi:type="spinningSampleMovementType">
			<spinnerRevolutionTime unit="seconds">1.0</spinnerRevolutionTime>
		</sampleMovement>
		<diffractedBeamPath>
			<radius unit="mm">145.00</radius>
			<antiScatterSlit id="22090040" name="AS slit 9 mm (PIXcel)" xsi:type="fixedAntiScatterSlitType">
				<height unit="mm">9.00</height>
			</antiScatterSlit>
			<sollerSlit id="21020003" name="Large Soller slits 0.04 rad.">
				<opening unit="rad">0.0400</opening>
			</sollerSlit>
			<filter id="20030001" name="Large beta-filter Nickel">
				<material>Ni</material>
				<thickness unit="mm">0.020</thickness>
			</filter>
			<detector id="7010019" name="PIXcel1D-Medipix3 detector" xsi:type="rtmsDetectorType">
				<phd unit="keV">
					<lowerLevel>4.02</lowerLevel>
					<upperLevel>11.27</upperLevel>
				</phd>
				<mode>Scanning</mode>
				<activeLength unit="deg">5.542</activeLength>
			</detector>
		</diffractedBeamPath>
		<scan appendNumber="0" mode="Continuous" scanAxis="Gonio" status="Completed">
			<header>
				<startTimeStamp>2025-10-21T10:15:05-07:00</startTimeStamp>
				<endTimeStamp>2025-10-21T10:23:12-07:00</endTimeStamp>
				<author>
					<name>AutomatedUser</name>
				</author>
				<source>
					<applicationSoftware version="1.7b (136)">PANalytical Aeris Instrument Suite</applicationSoftware>
					<instrumentControlSoftware version="3.2.00000000 20240306">AERIS</instrumentControlSoftware>
					<instrumentID>950485</instrumentID>
				</source>
			</header>
			<dataPoints>
				<positions axis="2Theta" unit="deg">
					<startPosition>10.00943322</startPosition>
					<endPosition>99.99442286</endPosition>
				</positions>
				<positions axis="Omega" unit="deg">
					<startPosition>5.00471661</startPosition>
					<endPosition>49.99721143</endPosition>
				</positions>
				<commonCountingTime unit="seconds">12.495</commonCountingTime>
				<counts unit="counts">3091 3020 3000 3039 3051 3128 3193 3087 3107 3154 3031 3160 3176 3138 3080 3045 3004 3092 3102 3115 3046 3075 3055 3068 3087 3131 3140 3003 3204 3126 2999 3088 3095 3088 3053 3042 3026 2907 3089 3080 3130 3109 3072 3053 3044 3175 3202 3086 3001 3099 3147 3125 3140 3091 3119 3061 3001 3158 3069 3140 3088 3141 3216 3101 3141 3119 3162 3155 3121 3276 3169 3198 3240 3171 3150 3114 3090 3139 3145 3195 3225 3178 3253 3145 3219 3151 3115 3152 3171 3120 3126 3112 3309 3248 3186 3208 3139 3266 3206 3139 3190 3179 3192 3308 3262 3199 3189 3259 3173 3231 3116 3232 3241 3240 3340 3233 3208 3337 3247 3274 3362 3218 3250 3259 3328 3225 3315 3229 3266 3315 3338 3418 3268 3288 3279 3334 3373 3270 3294 3305 3309 3250 3398 3390 3364 3302 3388 3370 3314 3418 3260 3298 3389 3433 3400 3281 3317 3340 3215 3344 3301 3236 3280 3326 3315 3317 3298 3326 3259 3330 3306 3212 3330 3280 3307 3354 3288 3246 3091 3289 3199 3287 3350 3305 3268 3442 3316 3251 3237 3269 3174 3351 3394 3251 3209 3360 3344 3286 3244 3281 3218 3194 3287 3252 3233 3274 3208 3237 3356 3177 3213 3280 3252 3366 3354 3297 3280 3257 3330 3244 3360 3295 3221 3234 3238 3331 3227 3292 3318 3364 3320 3288 3242 3271 3275 3298 3287 3182 3243 3292 3274 3160 3238 3201 3240 3315 3293 3162 3164 3139 3135 3155 3091 3155 3140 3226 3238 3086 3117 3234 3142 3245 3060 3085 3196 3121 3154 3189 3120 3163 3289 3161 3199 3168 3186 3175 3186 3178 3171 3260 3225 3095 3261 3250 3317 3201 3090 3075 3210 3288 3381 3365 3264 3275 3274 3170 3144 3163 3218 3296 3306 3239 3177 3244 3333 3321 3296 3275 3384 3397 3333 3298 3151 3284 3358 3385 3361 3374 3278 3312 3396 3386 3325 3388 3363 3399 3356 3317 3397 3319 3410 3278 3375 3345 3333 3462 3325 3341 3502 3409 3435 3490 3489 3423 3489 3441 3439 3408 3456 3363 3526 3453 3544 3385 3468 3617 3360 3545 3479 3537 3468 3490 3484 3524 3480 3509 3481 3542 3584 3554 3446 3591 3556 3650 3598 3577 3641 3715 3578 3666 3583 3757 3654 3651 3638 3663 3638 3641 3649 3709 3707 3695 3696 3583 3794 3752 3653 3702 3711 3681 3733 3786 3734 3708 3672 3759 3773 3790 3824 3784 3961 3802 3836 3795 3868 3821 3850 3848 3885 3918 3979 4084 3932 3989 3988 4111 4029 3986 4014 4220 4115 4243 4083 4285 4362 4360 4414 4414 4337 4452 4527 4484 4485 4540 4587 4640 4629 4577 4449 4341 4413 4377 4310 4272 4170 4086 4169 4043 4001 3980 4007 3821 3903 3831 3859 3805 3905 3883 3824 3837 3783 3827 3855 3765 3732 3807 3747 3703 3771 3748 3749 3661 3738 3617 3640 3802 3705 3710 3675 3688 3769 3699 3670 3755 3672 3747 3558 3854 3656 3584 3549 3593 3631 3643 3642 3679 3628 3665 3678 3657 3543 3735 3635 3750 3654 3778 3727 3879 3831 3864 3803 3905 3833 3914 4010 3925 3994 3972 3954 4065 4068 4128 4099 4256 4214 4158 4334 4476 4332 4590 4693 4890 4787 4845 4909 5046 4975 5096 5137 4880 4813 4769 4503 4397 4245 4170 3881 3844 3685 3646 3513 3615 3430 3480 3450 3499 3350 3409 3280 3281 3315 3384 3185 3348 3403 3358 3260 3250 3272 3278 3187 3248 3186 3374 3281 3271 3198 3082 3218 3153 3173 3140 3223 3276 3171 3238 3145 3219 3179 3234 3141 3336 3174 3300 3220 3315 3162 3162 3131 3233 3244 3200 3181 3208 3146 3195 3161 3120 3179 3153 3195 3129 3161 3170 3249 3201 3195 3215 3246 3152 3109 3186 3117 3088 3175 3140 3141 3161 3155 3056 3195 3105 3120 3233 3119 3175 3192 3190 3229 3290 3241 3294 3329 3337 3324 3395 3415 3459 3543 3544 3474 3699 3647 3726 3673 3802 3950 3890 3845 3933 4094 4032 4143 4215 4377 4427 4681 4705 4905 4999 5045 5149 5254 5275 5302 5195 4995 4707 4632 4446 4287 4132 3952 3792 3545 3429 3473 3407 3309 3203 3264 3204 3214 3156 3206 3130 3101 3254 3083 3044 3032 3118 3002 3067 2991 3083 3063 2975 2955 3017 3079 3021 2978 2994 3006 3106 3061 3011 3008 2916 3085 2958 2910 3039 2992 3005 2980 2958 2924 2915 3028 2980 2923 3004 2980 3045 2990 2874 2962 2987 2927 3025 2978 2944 2887 2944 2848 2888 2874 2983 3091 2869 2888 2993 2978 2882 2954 2991 2967 2959 2881 2876 2833 3003 2927 2927 2904 2937 2927 3005 2834 2978 2960 2949 2870 2779 2758 2892 2741 2839 2947 2957 2891 2907 2883 2871 2848 2922 2859 2756 2868 2914 2909 2770 2824 2846 2877 2916 2868 2869 2878 2779 2818 2742 2768 2847 2857 2827 2931 2917 2828 2803 2924 2820 2904 2836 2783 2845 2793 2811 2796 2815 2694 2740 2813 2850 2748 2831 2805 2820 2775 2838 2845 2752 2793 2723 2815 2800 2941 2832 2788 2735 2763 2604 2754 2875 2718 2694 2831 2694 2817 2818 2755 2801 2683 2800 2650 2705 2770 2679 2726 2718 2756 2731 2796 2725 2728 2665 2772 2646 2699 2738 2667 2749 2651 2747 2770 2648 2762 2725 2807 2867 2718 2692 2781 2780 2726 2743 2657 2685 2820 2770 2635 2723 2680 2641 2709 2775 2765 2798 2676 2682 2663 2733 2638 2698 2684 2768 2698 2719 2699 2806 2747 2672 2654 2765 2597 2559 2747 2642 2801 2715 2712 2671 2690 2645 2698 2696 2676 2620 2693 2708 2621 2601 2618 2590 2629 2707 2706 2738 2752 2664 2658 2769 2742 2605 2611 2624 2757 2655 2639 2693 2654 2657 2585 2649 2615 2508 2653 2717 2634 2679 2698 2552 2516 2673 2678 2566 2620 2615 2691 2764 2576 2634 2645 2633 2579 2653 2588 2691 2637 2624 2560 2586 2565 2599 2572 2568 2682 2608 2713 2576 2622 2583 2616 2659 2671 2662 2631 2549 2504 2609 2611 2636 2608 2592 2556 2659 2592 2591 2595 2627 2605 2600 2601 2683 2619 2560 2711 2607 2613 2609 2586 2646 2709 2733 2611 2605 2635 2687 2653 2629 2592 2694 2704 2672 2644 2628 2594 2704 2656 2644 2677 2690 2589 2746 2670 2622 2674 2865 2820 2768 2776 2840 2834 2724 2902 2688 2834 2770 2788 2900 2933 2823 2823 3009 2872 2889 2945 2862 2932 2943 2957 2911 2852 2890 2976 2827 2762 2767 2721 2753 2763 2773 2688 2651 2719 2752 2690 2556 2620 2561 2590 2564 2628 2627 2567 2578 2593 2632 2608 2627 2539 2597 2705 2610 2568 2636 2685 2508 2635 2621 2547 2485 2681 2512 2611 2503 2480 2495 2576 2547 2660 2638 2454 2578 2475 2484 2581 2493 2531 2435 2465 2539 2429 2545 2414 2515 2533 2538 2583 2524 2532 2544 2490 2481 2477 2469 2490 2420 2459 2459 2504 2444 2505 2407 2406 2429 2434 2409 2469 2385 2400 2362 2377 2389 2415 2406 2452 2379 2428 2330 2367 2416 2368 2360 2344 2432 2306 2380 2328 2427 2302 2228 2333 2385 2404 2358 2262 2421 2367 2321 2310 2284 2382 2346 2313 2325 2324 2287 2224 2323 2195 2381 2319 2391 2214 2391 2301 2323 2348 2357 2233 2330 2342 2361 2335 2331 2394 2394 2421 2463 2395 2434 2409 2472 2481 2514 2596 2564 2566 2568 2609 2653 2568 2595 2802 2817 2904 3027 3142 3107 3162 3253 3256 3326 3285 3203 3331 3060 3002 2965 2938 2775 2650 2531 2438 2392 2334 2326 2248 2168 2219 2168 2083 2122 2135 2005 2125 2084 2085 2109 2063 2070 2053 2113 2048 2170 2123 2088 2043 1968 1985 2080 2065 2112 2106 2005 2004 2050 2042 2053 2020 2101 1924 2030 1947 2038 1956 2020 1991 1879 1963 2068 1916 2025 1947 1993 1946 1964 1922 1992 2006 1945 1887 1983 1896 1948 2061 1934 1947 1929 1934 2023 1903 1941 1913 1927 1902 1888 2012 2056 1966 1957 1972 1911 1938 1988 1970 1951 1964 1985 1901 1960 1999 1902 1930 2031 1923 1909 1942 1986 1935 1832 1967 1933 1937 2041 1966 1873 1920 1911 2097 1948 1910 1858 1839 1927 1830 1981 1894 1929 1857 1909 1992 1937 1996 1977 1804 1941 1916 1901 1917 1878 1896 1955 2014 1920 1916 1910 1899 1953 1935 1897 1936 1860 1963 1786 1958 1921 1970 1926 1944 1963 2033 1991 1961 1939 1915 1860 1894 1876 1979 1938 1979 1836 1968 1949 1901 1941 1854 1995 1856 1823 1946 1857 1950 1972 1868 1961 1960 1945 1870 1939 1916 1971 1968 1912 1885 2028 1985 1970 2018 1942 1936 1934 1906 1986 1990 1988 1951 2002 1979 1943 1968 1977 1934 1894 1883 1905 1936 1945 1893 2026 1911 1981 1987 1910 1909 1840 1959 1922 1910 1947 1890 1904 1864 1990 1897 1840 1886 1819 1944 1912 1878 1964 1892 1975 1940 2023 1940 2000 1902 1957 1944 1913 1982 2010 1972 2007 2003 1962 1950 2082 1946 2048 1983 2106 2042 1992 1992 2027 2004 1970 2092 1948 2024 1984 2049 1905 1956 1917 1952 1868 1934 1920 1900 1843 1848 1847 1871 1914 1881 1803 1869 1851 1801 1812 1802 1760 1788 1760 1776 1845 1858 1786 1776 1783 1824 1695 1816 1771 1766 1792 1742 1749 1772 1725 1758 1769 1772 1708 1792 1732 1684 1661 1686 1763 1728 1799 1769 1715 1717 1743 1751 1671 1739 1699 1702 1670 1681 1653 1715 1701 1630 1618 1699 1730 1601 1680 1737 1661 1683 1680 1640 1635 1706 1709 1674 1668 1683 1708 1671 1667 1719 1658 1724 1668 1654 1698 1642 1693 1699 1582 1668 1584 1538 1718 1650 1639 1629 1629 1601 1642 1601 1655 1735 1652 1665 1660 1615 1671 1646 1667 1691 1699 1703 1664 1608 1582 1676 1569 1586 1660 1643 1644 1728 1724 1637 1559 1647 1625 1563 1655 1643 1593 1672 1649 1604 1675 1547 1576 1681 1629 1695 1602 1648 1679 1621 1696 1654 1722 1771 1775 1769 1708 1836 1847 1941 1849 1881 1985 1966 1930 2027 2022 1963 2133 2174 2257 2201 2342 2278 2372 2379 2507 2617 2555 2571 2631 2689 2637 2690 2628 2513 2431 2434 2310 2346 2179 2143 2053 1880 1936 1906 1812 1735 1710 1690 1661 1564 1612 1620 1564 1532 1585 1594 1490 1495 1523 1442 1516 1522 1489 1466 1497 1380 1462 1489 1422 1431 1495 1409 1381 1486 1446 1485 1464 1468 1409 1411 1483 1433 1466 1437 1474 1459 1443 1384 1414 1427 1499 1419 1438 1504 1452 1541 1527 1570 1517 1439 1498 1545 1637 1498 1606 1673 1691 1707 1848 1774 1940 1962 1940 2138 2046 2195 2157 2190 2281 2395 2430 2476 2644 2678 2785 2916 2971 3038 3151 3441 3520 3709 4002 4085 4430 4535 4564 4487 4678 4705 4487 4527 4482 4460 4164 3863 3593 3410 3080 2944 2797 2542 2329 2277 2058 1924 1855 1794 1823 1707 1673 1710 1632 1627 1603 1586 1479 1593 1543 1592 1582 1593 1615 1545 1554 1567 1538 1599 1518 1543 1502 1493 1459 1489 1468 1442 1509 1417 1455 1413 1428 1416 1412 1410 1423 1389 1418 1323 1395 1400 1358 1339 1331 1343 1394 1342 1400 1347 1293 1242 1330 1377 1334 1385 1357 1308 1354 1343 1337 1322 1361 1352 1363 1346 1341 1336 1346 1257 1369 1354 1401 1392 1371 1377 1364 1357 1361 1340 1402 1378 1338 1339 1386 1322 1317 1291 1427 1381 1382 1432 1334 1399 1447 1463 1422 1441 1568 1512 1555 1549 1616 1596 1698 1733 1758 1837 1919 1870 2074 2198 2223 2231 2410 2627 2655 2859 2833 3012 2900 3154 3231 3427 3493 3963 4015 4403 4613 4946 5304 5612 6049 6308 6607 7151 7281 7576 7768 7659 7534 7388 7045 6902 6384 6076 5631 5161 4800 4347 4089 3643 3343 2998 2681 2604 2458 2194 2073 1831 1772 1815 1812 1764 1696 1584 1576 1616 1560 1520 1588 1566 1507 1480 1493 1524 1511 1569 1531 1544 1519 1553 1632 1670 1660 1707 1758 1720 1748 1763 1809 1807 1849 1783 1799 1771 1660 1709 1605 1691 1657 1569 1506 1451 1392 1456 1347 1360 1324 1314 1262 1286 1226 1202 1313 1230 1181 1254 1248 1224 1227 1224 1218 1148 1227 1244 1183 1261 1270 1242 1280 1260 1298 1305 1328 1173 1268 1304 1338 1256 1292 1268 1296 1323 1315 1355 1314 1315 1388 1353 1317 1373 1374 1346 1433 1380 1405 1470 1475 1419 1511 1525 1475 1490 1502 1645 1607 1578 1575 1609 1594 1558 1598 1641 1554 1598 1477 1543 1501 1481 1460 1426 1388 1391 1342 1313 1325 1333 1304 1286 1304 1361 1290 1277 1261 1299 1219 1277 1313 1232 1213 1211 1244 1265 1182 1298 1229 1197 1243 1227 1302 1249 1245 1233 1229 1217 1203 1245 1245 1214 1243 1237 1239 1309 1201 1360 1307 1320 1330 1315 1420 1394 1361 1391 1445 1426 1397 1484 1487 1500 1528 1530 1645 1590 1720 1815 1825 1892 1888 1935 2087 2007 2059 2113 2157 2119 2223 2097 2061 2027 2021 2019 1907 1802 1778 1672 1657 1617 1496 1488 1446 1431 1414 1365 1340 1400 1382 1385 1375 1407 1481 1425 1535 1514 1595 1558 1618 1752 1804 1849 1945 1984 2165 2185 2248 2236 2367 2538 2451 2621 2588 2683 2834 2940 3048 3269 3399 3493 3641 3763 3931 4040 4197 4265 4452 4367 4251 4223 4252 4038 4165 3769 3708 3594 3334 3031 2872 2815 2575 2430 2282 2112 1958 1920 1801 1702 1588 1663 1466 1410 1495 1453 1356 1424 1318 1336 1348 1368 1437 1326 1371 1277 1306 1332 1267 1359 1335 1335 1264 1289 1335 1254 1293 1263 1236 1276 1179 1279 1220 1322 1189 1281 1263 1202 1214 1246 1264 1248 1269 1239 1261 1213 1321 1231 1297 1301 1280 1316 1289 1282 1382 1316 1352 1337 1384 1331 1306 1387 1346 1320 1376 1397 1422 1410 1360 1381 1456 1369 1381 1369 1322 1324 1307 1321 1334 1300 1268 1251 1183 1204 1204 1217 1210 1206 1254 1190 1202 1198 1104 1205 1163 1116 1141 1218 1210 1178 1138 1133 1119 1202 1152 1123 1191 1142 1092 1153 1142 1093 1107 1074 1113 1066 1085 1132 1077 1128 1175 1109 1093 1057 1041 1112 1078 1080 1107 1118 1088 1087 1131 1106 1141 1154 1078 1143 1089 1160 1197 1159 1105 1129 1114 1109 1156 1151 1146 1193 1149 1166 1191 1138 1173 1235 1198 1221 1177 1286 1291 1217 1230 1272 1380 1264 1274 1319 1334 1379 1435 1530 1533 1594 1586 1641 1741 1656 1757 1691 1706 1683 1713 1710 1663 1587 1534 1570 1546 1424 1396 1391 1294 1273 1219 1258 1216 1180 1168 1082 1069 1071 1029 1044 1060 1050 1103 1028 1025 1111 1125 1036 1068 1003 1045 989 987 1034 1004 1047 1040 1056 1101 992 1047 1013 1013 1006 1062 1011 1022 969 1006 1029 1048 1016 1021 1042 1026 1020 967 1030 976 1003 1027 949 997 1014 1048 978 1009 1001 978 1043 1011 983 1013 997 1094 1025 998 1054 1025 1063 997 954 978 1020 923 1005 1015 1029 1024 962 1020 1010 1025 992 1002 1022 1007 957 1060 1058 973 1002 995 983 922 1005 983 979 945 1048 947 916 1012 978 983 921 946 973 922 964 923 989 929 974 1001 908 1019 960 935 874 982 994 956 952 961 917 982 926 1021 946 950 948 991 941 946 931 880 870 960 923 912 931 905 937 916 1000 958 912 934 939 962 969 927 957 945 969 994 954 907 971 937 946 979 980 980 939 949 956 985 932 972 1041 987 971 905 1010 899 1008 886 985 959 966 903 895 915 963 911 907 942 945 981 909 938 924 900 918 922 880 923 964 954 940 876 953 919 901 950 898 934 870 992 967 960 959 918 897 936 890 958 931 940 960 896 926 901 1046 957 905 931 920 945 890 945 952 933 998 927 976 954 943 892 950 926 916 906 863 894 890 962 927 937 972 929 928 938 963 980 960 897 949 997 971 900 889 894 941 907 933 929 968 906 921 953 878 908 921 958 921 958 917 935 954 943 935 943 909 999 997 944 953 915 988 1007 991 964 978 1049 986 1011 1038 1003 1059 1050 1079 1081 1055 1075 1121 1088 1124 1130 1089 1170 1104 1106 1064 1050 1122 1117 1021 1062 1024 987 947 972 930 984 1012 987 910 973 973 975 991 980 944 1041 1051 989 1026 992 1005 1061 1027 998 1068 1033 1132 1045 1126 1204 1141 1230 1211 1340 1307 1360 1337 1452 1454 1596 1633 1638 1782 1820 1830 1898 2002 2111 2184 2296 2369 2512 2562 2764 2994 3137 3338 3445 3738 3813 3892 4179 4173 4208 4199 4110 4110 3937 3707 3725 3411 3337 3065 2925 2799 2554 2458 2353 2183 2007 1764 1774 1572 1541 1306 1341 1318 1283 1250 1158 1083 1138 1121 1045 1097 1012 1084 1006 991 1002 1025 947 966 998 983 977 991 983 992 952 955 975 920 962 922 964 948 898 915 941 957 977 937 895 916 920 915 939 918 968 911 990 895 921 904 888 906 854 887 918 891 904 873 906 954 880 857 884 877 861 934 863 927 855 890 918 843 871 821 876 898 886 944 821 842 865 899 921 857 837 905 914 864 866 936 855 943 962 935 919 838 873 859 926 931 847 902 952 933 893 899 874 885 889 907 894 984 927 882 926 983 920 964 909 972 968 972 953 990 986 1049 974 1026 1073 1061 1093 1117 1129 1075 1089 1136 1171 1198 1301 1230 1289 1282 1300 1318 1425 1312 1309 1348 1264 1331 1226 1271 1257 1176 1122 1086 1116 1189 1102 1107 1044 1028 983 1080 950 948 905 949 962 871 954 968 938 918 983 940 1008 936 942 940 1002 1045 1043 997 1044 1035 1053 1085 1070 1106 1124 1156 1171 1127 1222 1214 1279 1317 1348 1272 1378 1397 1421 1388 1348 1336 1316 1253 1332 1228 1296 1217 1191 1145 1207 1134 1096 1047 1035 1001 992 1018 968 998 916 955 894 902 929 920 902 933 864 888 932 924 852 921 946 835 838 880 866 902 891 899 973 906 929 955 945 933 962 946 1042 990 1040 962 1045 1031 1018 1045 1096 1099 1093 1121 1104 1221 1123 1141 1199 1196 1177 1145 1190 1152 1140 1194 1155 1208 1138 1052 1072 1080 1117 969 1000 1060 1014 982 1011 871 969 976 879 918 885 847 1009 845 945 860 904 932 838 891 866 832 896 828 831 851 888 855 904 879 931 827 904 889 879 898 883 916 825 899 854 899 833 874 861 884 933 924 905 840 856 857 916 851 927 838 940 879 900 962 944 874 956 935 1024 956 1027 1025 934 1017 1022 1037 1041 1026 1087 1091 1119 1126 1133 1132 1217 1095 1131 1154 1188 1197 1202 1237 1149 1216 1105 1158 1183 1165 1161 1107 1076 1122 1126 1047 1027 1089 990 991 1038 996 1094 997 1011 987 1003 948 947 936 974 958 921 942 937 915 947 892 934 948 945 937 921 926 924 943 952 953 948 933 958 904 905 906 911 959 948 905 962 904 893 903 962 940 926 939 894 961 918 935 878 914 897 910 898 964 929 944 973 875 896 951 863 950 939 895 889 1008 944 883 991 872 929 936 924 907 834 835 865 870 817 896 797 769 821 822 818 847 856 852 800 845 799 798 823 779 811 782 779 762 821 823 778 824 775 790 786 825 844 836 784 807 787 830 788 791 816 825 864 889 837 780 799 846 850 834 806 791 794 791 788 828 798 825 816 814 820 788 819 857 798 829 769 852 784 853 802 786 816 772 821 817 849 837 803 818 750 799 847 817 853 784 795 772 815 826 800 810 766 803 816 834 824 846 840 831 790 796 784 845 785 835 879 800 830 797 810 847 859 877 838 860 838 827 790 846 855 836 812 841 775 830 802 830 820 815 902 820 857 809 814 794 838 835 831 889 871 898 897 883 862 887 777 866 880 916 886 909 872 933 955 970 964 902 969 1059 991 950 939 958 975 974 941 968 970 949 1001 1022 1086 1020 1024 1072 1088 1038 1077 1047 1108 1016 1075 1042 1051 1087 1085 1175 1040 1098 1049 1129 998 1085 1123 1030 1019 1118 1110 1096 1105 1153 1156 1144 1081 1092 1191 1201 1173 1208 1213 1234 1273 1278 1376 1373 1375 1392 1435 1415 1549 1572 1712 1689 1774 1834 1830 2071 2051 2221 2192 2272 2333 2463 2502 2550 2553 2615 2473 2506 2470 2486 2393 2422 2344 2316 2205 2044 1939 1792 1899 1821 1716 1658 1646 1573 1546 1433 1378 1448 1384 1346 1378 1291 1323 1400 1340 1335 1275 1329 1369 1391 1512 1530 1539 1530 1633 1623 1696 1699 1815 1853 1846 1979 1991 2113 2173 2135 2327 2357 2383 2454 2412 2647 2512 2514 2635 2601 2554 2471 2466 2426 2351 2191 2045 2148 1989 1962 1907 1840 1693 1645 1603 1406 1473 1378 1377 1236 1209 1187 1100 1055 1101 1077 1018 947 999 945 999 917 883 872 903 959 895 888 870 861 848 888 882 897 880 882 895 901 884 886 907 860 904 874 889 896 883 877 887 935 904 870 866 872 892 854 834 786 874 854 826 855 830 835 880 886 859 840 812 826 792 797 839 815 766 800 825 888 832 794 784 839 813 810 790 793 813 836 792 816 808 800 807 787 772 777 755 813 773 814 800 795 774 799 760 717 792 754 844 774 727 737 785 782 787 808 749 796 749 753 805 851 776 779 785 835 751 806 818 748 831 814 827 857 791 786 744 745 802 766 784 779 784 752 781 810 752 777 773 834 854 736 767 816 801 773 812 787 824 884 800 812 792 814 772 788 831 799 786 786 777 825 816 817 771 841 809 853 844 820 814 818 855 828 837 865 861 897 876 918 887 899 962 949 999 989 1019 993 1106 1025 1068 1116 1097 1190 1135 1087 1234 1210 1217 1198 1262 1222 1198 1263 1180 1176 1179 1188 1120 1205 1135 1109 1129 1068 1087 980 1069 1078 1085 1000 961 1024 1073 976 1058 1001 1018 977 1001 955 979 949 984 969 997 966 973 949 921 866 906 900 941 806 894 821 885 872 851 819 802 813 780 816 816 802 821 787 830 817 853 825 811 744 808 790 805 790 820 842 866 801 840 805 878 827 939 945 888 939 936 936 1043 972 1015 1007 1046 1021 1014 1064 1092 1047 1024 1040 1028 1032 1030 991 1007 1042 949 891 962 906 940 851 886 967 885 885 836 814 864 805 822 815 782 802 819 836 824 771 765 772 784 802 779 798 806 768 808 813 805 824 865 814 782 764 876 876 860 887 892 865 914 970 899 1015 986 1003 1048 1031 1103 1144 1167 1158 1222 1169 1271 1307 1368 1375 1380 1417 1433 1435 1455 1426 1495 1387 1453 1370 1395 1355 1291 1222 1246 1164 1180 1236 1097 1085 1088 1060 989 995 969 897 871 945 923 904 877 870 821 806 799 713 762 795 741 725 717 746 737 756 727 776 725 738 673 777 763 688 733 724 707 731 728 768 636 751 753 726 752 647 699 738 718 746 703 680 654 741 695 740 697 709 708 720 751 736 752 754 737 750 677 712 743 762 726 767 758 696 766 741 713 766 751 747 802 796 799 759 788 822 821 778 852 806 857 816 887 862 862 851 890 838 901 817 870 818 823 805 789 797 821 837 719 772 734 784 739 748 772 804 733 693 711 728 697 740 782 644 662 672 705 722 709 682 722 681 661 692 708 648 717 736 667 700 716 657 656 726 654 687 673 716 663 658 644 710 617 720 667 692 711 699 667 722 695 675 691 700 726 652 693 656 690 668 667 709 705 680 716 678 706 732 656 688 702 634 683 710 708 670 681 694 701 717 724 729 730 660 679 711 714 689 686 714 651 731 720 686 651 717 685 688 696 731 649 666 713 691 721 718 714 686 766 675 745 730 640 715 720 688 664 663 689 720 639 676 684 686 706 698 720 665 644 672 689 657 676 741 706 677 732 640 714 665 675 620 677 664 599 676 725 665 671 707 726 657 711 657 626 724 715 700 666 690 672 705 657 679 686 693 668 687 699 707 748 708 677 707 721 707 704 719 688 697 714 687 733 680 734 747 778 733 756 746 689 750 722 817 765 810 722 749 795 735 819 797 766 803 819 777 798 746 783 769 754 779 767 756 805 785 758 750 768 775 755 744 744 739 696 699 724 746 742 741 704 748 730 732 759 724 739 713 715 703 745 717 710 724 686 729 704 682 674 720 698 671 688 703 737 734 679 749 727 712 729 698 754 729 786 759 772 760 776 713 794 766 768 725 781 730 748 757 820 796 740 824 792 798 832 796 790 781 833 827 786 815 764 816 744 741 766 810 769 816 784 793 795 752 764 800 768 777 758 742 755 744 761 738 793 800 758 806 843 872 873 855 794 919 885 952 959 969 931 1023 1000 1047 993 1031 1098 1105 1066 1056 1106 1154 1208 1280 1183 1171 1139 1193 1131 1196 1123 1165 1087 1104 1140 1062 1121 1115 1065 1057 1041 1082 1068 1071 1033 1025 992 935 1011 981 1022 1020 1084 1030 1059 1014 1110 1073 1136 1162 1079 1128 1129 1190 1163 1169 1195 1195 1124 1153 1103 1178 1124 1090 1070 1041 1079 1020 1008 978 1024 1017 1010 952 912 920 889 940 880 908 940 955 890 903 894 849 862 886 834 885 867 830 876 853 867 870 813 860 859 886 835 893 856 876 878 797 811 823 822 880 847 819 847 830 855 824 794 832 785 767 780 771 752 807 787 797 807 786 779 829 830 802 826 839 793 882 834 783 724 774 790 802 753 717 743 769 766 739 755 738 744 698 693 675 735 656 645 684 669 745 658 717 673 662 648 682 680 661 693 681 633 749 652 662 667 685 673 694 684 693 675 662 676 693 687 681 683 639 662 652 720 702 674 675 638 632 632 653 638 663 649 608 648 627 647 712 716 671 674 645 700 696 665 644 688 681 703 631 665 677 711 716 733 674 677 705 708 674 692 708 701 675 716 679 734 681 723 665 712 716 683 711 776 700 786 777 778 794 781 816 780 838 805 861 846 861 904 929 914 973 971 1068 986 966 969 1077 1059 1093 1153 1118 1120 1129 1133 1158 1090 1209 1162 1086 1112 1246 1250 1216 1204 1210 1150 1189 1097 1104 1121 1029 1052 1050 1056 1009 1021 973 907 966 923 1012 890 956 848 836 813 800 767 825 760 801 725 780 733 740 716 730 730 697 751 712 772 722 707 700 725 745 706 696 704 754 716 753 722 663 657 698 683 710 735 743 701 725 676 668 659 698 692 646 734 713 664 709 686 723 690 719 689 676 649 679 703 656 739 649 690 601 619 646 728 662 645 701 662 669 662 659 678 691 608 624 626 613 642 620 606 660 594 654 667 629 672 645 670 698 688 619 675 665 682 656 652 610 707 642 652 676 663 640 654 654 698 677 632 640 591 655 641 660 649 665 615 636 661 685 660 693 689 617 698 690 670 655 693 624 696 626 622 695 676 668 699 668 647 611 652 651 672 658 702 675 713 672 638 633 692 688 729 705 730 660 713 713 700 733 690 758 737 704 712 681 699 726 747 763 802 797 745 747 706 775 819 741 757 727 779 792 783 738 746 780 739 754 741 765 790 719 752 687 713 671 659 706 663 677 691 679 753 688 653 685 640 703 695 657 629 618 681 655 681 659 691 689 709 655 671 634 644 634 632 658 643 608 568 646 605 614 620 603 607 588 611 644 654 649 614 628 623 630 656 616 623 558 619 634 672 617 622 634 644 624 681 647 634 573 619 663 707 658 614 659 657 646 677 671 682 631 627 654 653 694 708 726 684 713 608 606 672 607 682 700 661 692 656 684 662 683 635 708 613 690 696 729 640 704 740 696 713 696 715 739 706 766 709 753 742 805 785 772 784 750 807 820 819 833 907 871 879 944 871 929 966 934 1026 1085 980 1033 1042 1017 1042 1028 1030 1012 1044 921 952 963 972 1002 911 852 886 852 935 913 866 799 790 799 800 757 800 806 747 748 705 688 700 714 692 619 609 669 668 665 662 638 664 631 619 613 645 662 669 612 574 597 580 633 584 642 602 534 583 541 604 607 646 658 625 638 596 602 632 584 653 620 585 575 530 608 610 618 608 589 545 594 612 645 595 611 604 622 571 590 594 571 596 594 617 646 621 631 636 589 556 602 593 585 601 589 628 596 613 622 650 640 660 583 577 647 596 594 660 714 667 639 611 615 650 567 642 650 644 644 581 652 676 678 676 607 669 687 641 644 656 653 671 653 703 690 669 656 606 611 671 640 609 629 654 609 623 634 621 597 618 596 655 594 636 632 653 624 602 599 619 599 618 588 589 590 628 631 677 581 591 611 644 575 617 622 650 627 614 581 577 644 614 598 598 640 583 640 690 665 612 658 685 691 686 656 690 668 701 690 707 706 720 725 813 703 731 765 742 714 703 721 724 783 737 720 765 782 756 738 683 755 717 708 678 701 665 713 660 695 704 677 660 666 696 663 630 625 667 605 593 625 610 583 593 632 668 568 606 579 577 610 618 603 589 569 593 577 581 570 569 605 608 559 592 607 617 572 619 558 652 597 611 606 612 612 600 573 639 626 604 613 634 610 627 609 681 659 610 622 595 619 604 673 622 605 631 574 577 655 608 608 581 590 636 592 627 598 607 618 649 621 627 658 636 684 680 625 660 658 619 641 676 645 674 645 660 657 646 641 684 694 700 636 703 667 635 628 670 655 683 711 688 671 651 673 635 624 670 633 676 670 690 667 664 653 654 680 638 659 682 684 643 703 666 705 724 684 675 717 711 700 660 672 667 704 682 701 608 625 697 652 658 655 602 641 639 659 647 614 654 633 663 594 619 611 592 664 583 609 633 601 581 613 598 589 577 602 588 558 556 580 612 563 570 566 599 527 561 606 607 575 585 553 612 553 543 556 559 585 609 561 548 602 585 569 570 572 580 590 609 572 612 594 589 623 555 594 564 585 607 560 577 600 594 601 584 573 609 594 606 606 567 593 594 592 575 571 660 524 614 577 623 574 575 589 587 588 594 627 638 624 648 614 675 609 612 641 582 704 644 594 624 630 629 633 678 610 668 619 634 661 666 650 650 631 665 619 616 626 643 654 625 614 597 622 570 614 556 643 552 533 598 630 568 577 559 589 622 596 652 597 629 609 601 601 586 608 580 630 589 615 572 609 615 595 590 596 618 613 660 625 615 605 695 601 625 643 611 648 647 649 601 637 609 612 642 607 707 626 623 623 681 657 583 635 658 653 666 620 609 643 669 656 687 617 641 623 602 622 630 614 614 628 595 589 568 603 598 634 586 620 579 596 599 619 591 637 611 639 645 650 646 620 641 624 613 654 664 617 636 668 673 698 667 680 707 683 743 679 697 681 750 694 697 713 691 710 746 680 731 761 714 720 708 717 727 748 692 702 673 674 670 673 656 615 682 662 634 685 665 641 673 677 627 605 623 672 646 650 612 623 635 561 594 585 622 596 575 584 507 614 599 616 553 605 610 547 598 581 613 586 664 542 595 564 589 555 586 595 598 604 611 580 568 569 577 610 559 622 577 598 650 563 591 561 604 574 543 594 522 551 556 636 616 550 617 586 622 605 635 604 622 631 578 590 629 616 608 591 681 665 617 640 614 638 598 624 622 615 602 642 629 640 636 637 614 625 612 630 623 634 632 622 653 611 633 621 649 569 578 604 585 627 638 604 640 637 586 605 602 616 632 567 576 589 618 623 596 592 594 556 606 592 591 566 547 575 566 622 608 604 552 621 540 570 563 607 592 560 594 562 623 598 631 591 639 595 604 634 604 617 629 608 631 598 600 588 595 593 626 627 623 603 598 675 655 586 609 599 640 603 637 614 640 621 653 631 615 601 636 584 603 640 572 605 639 628 586 610 627 643 591 639 577 607 630 627 611 621 586 594 620 602 596 582 646 600 634 557 652 560 593 629 640 644 652 667 644 647 645 649 709 688 695 686 682 703 673 707 747 675 682 726 662 741 706 670 718 721 738 693 658 667 713 690 690 739 708 721 660 678 633 648 638 656 636 664 633 624 650 641 605 629 615 609 672 645 659 611 581 609 621 589 618 629 630 589 623 559 592 595 609 591 652 603 573 629 620 587 629 617 616 598 606 594 633 616 606 634 587 586 620 651 650 596 577 633 587 630 654 613 605 596 595 600 627 586 645 606 599 571 638 634 653 586 588 589 576 624 544 583 671 582 602 600 576 536 600 541 578 573 567 599 598 560 593 566 548 560 586 569 568 547 582 572 583 573 581 593 560 590 604 539 558 572 582 576 570 591 576 569 542 574 529 553 580 580 540 569 576 543 578 628 560 588 552 595 565 567 538 570 557 558 574 594 590 570 604 568 621 557 639 623 575 581 594 527 613 612 577 607 579 605 572 621 609 592 574 619 583 627 583 587 666 627 615 592 627 680 658 633 597 634 638 614 630 616 591 672 660 715 606 638 654 663 580 644 674 589 611 627 600 627 659 618 636 643 612 606 643 655 579 617 632 642 644 635 618 614 590 625 601 663 574 587 615 547 632 603 618 588 622 582 602 588 593 599 625 558 577 546 585 543 600 590 555 597 573 553 591 539 626 558 576 583 603 609 545 594 571 572 589 604 566 585 559 543 585 546 613 613 563 631 566 600 605 605 590 574 591 621 652 601 585 639 621 662 562 651 602 590 600 592 615 651 597 625 607 548 583 591 587 625 602 580 594 598 588 573 622 527 613 561 576 609 559 643 576 638 558 639 594 555 577 594 560 589 586 566 564 525 577 638 559 590 565 615 617 611 623 543 592 575 605 597 602 583 606 588 628 591 652 605 628 619 575 593 641 669 661 581 644 631 659 627 626 636 730 678 641 610 621 620 675 637 692 686 678 681 692 706 669 715 669 673 644 688 667 648 686 670 708 650 707 764 754 778 718 847 769 821 797 792 842 895 819 858 857 843 925 926 896 913 902 985 881 977 982 967 919 930 932 916 930 955 880 963 970 990 934 922 932 966 828 844 852 873 842 872 852 898 862 842 808 791 801 763 798 724 800 735 756 750 759 758 690 704 705 770 680 757 736 690 660 692 697 657 688 675 643 681 652 709 709 692 645 679 668 651 678 686 722 672 663 635 685 612 643 614 614 661 642 651 621 620 592 647 638 654 678 707 656 624 594 616 628 642 636 618 639 641 643 651 638 619 641 600 661 668 658 600 611 633 624 636 642 634 626 640 658 666 677 640 647 620 691 659 697 618 673 615 643 659 657 678 637 658 670 654 622 664 666 658 639 636 618 647 602 632 649 644 621 655 665 636 662 626 697 713 651 670 664 668 687 682 675 767 609 706 709 708 747 739 792 741 748 707 730 756 782 779 829 782 836 848 913 878 852 895 835 868 857 913 928 816 843 846 874 862 892 880 830 834 863 824 877 863 806 800 831 824 730 859 818 798 827 781 824 798 808 838 818 821 783 808 812 847 814 842 828 769 779 861 780 825 839 777 815 875 790 811 893 869 831 816 871 871 895 896 907 929 892 832 888 870 912 870 913 866 859 838 858 886 796 866 847 880 808 770 803 808 799 813 812 809 795 745 769 723 693 698 700 778 790 776 756 707 738 685 655 650 699 710 658 631 591 662 626 655 630 668 617 618 629 600 608 576 561 623 617 613 585 580 587 646 589 594 610 609 593 588 554 542 550 636 583 616 585 555 625 535 594 549 599 598 642 621 578 557 583 578 626 587 587 590 585 582 575 656 593 629 608 664 598 558 558 563 571 574 571 565 581 593 594 609 573 590 560 574 549 617 596 603 592 568 594 647 601 631 601 582 586 608 568 622 634 616 612 564 598 621 587 606 645 570 619 579 598 563 543 594 573 612 611 580 642 598 632 619 592 587 581 616 600 650 589 634 649 605 631 626 612 646 639 620 553 655 572 633 582 597 624 602 621 682 581 583 619 576 584 655 624 600 612 638 591 653 630 660 606 686 634 651 604 618 622 612 618 636 616 572 630 567 593 686 602 607 624 594 570 585 597 619 581 642 632 588 618 603 627 651 591 654 667 633 571 631 636 563 609 617 617 614 607 587 609 636 607 614 688 619 674 630 665 695 752 725 746 769 794 710 763 752 778 790 759 743 825 787 791 744 792 820 827 834 818 808 785 837 804 876 799 855 807 825 820 800 799 879 841 757 821 786 780 833 830 780 779 757 748 794 801 775 682 708 678 726 706 699 708 699 671 711 682 678 715 653 640 641 687 657 615 626 650 593 621 572 626 567 617 645 673 576 600 569 571 562 618 589 602 549 575 599 623 574 562 616 581 595 585 526 558 559 564 575 577 567 591 553 593 539 581 601 583 561 615 610 683 560 636 621 637 624 605 561 572 578 585 580 588 612 614 595 584 598 630 588 618 592 615 573 600 590 572 592 617 622 632 655 588 661 596 592 634 645 618 590 608 656 603 672 655 599 602 575 596 639 593 625 615 570 640 577 610 680 679 667 648 619 585 634 571 563 556 561 590 614 605 594 617 587 571 608 537 582 512 598 603 567 565 607 554 584 530 549 583 534 579 611 567 563 543 593 516 547 595 553 586 558 500 587 534 516 532 569 604 556 498 543 534 514 527 551 559 517 565 560 523 579 572 551 530 578 522 609 547 548 562 518 545 521 518 563 571 581 572 549 550 531 543 553 586 566 548 573 522 556 600 564 521 554 537 549 577 516 557 512 534 537 528 560 514 594 539 543 592 566 539 550 557 577 566 556 604 558 524 558 555 569 553 612 582 535 568 616 561 536 600 582 577 610 596 609 615 586 554 538 610 545 564 559 560 580 578 588 563 627 559 533 551 556 631 573 634 538 585 547 552 560 569 596 533 581 593 574 589 578 523 557 540 540 539 595 541 535 551 618 596 562 566 579 547 578 630 614 601 593 593 552 612 599 586 584 634 572 603 609 568 601 562 591 617 602 642 660 585 607 586 581 615 566 579 569 560 586 596 580 608 578 572 589 576 622 589 581 595 555 590 567 568 592 567 565 565 576 565 551 542 572 566 578 580 593 577 561 520 540 556 509 566 551 603 572 591 606 519 553 542 582 537 567 546 533 577 556 577 529 587 525 568 573 543 575 548 538 547 552 565 562 568 593 569 561 587 588 586 588 571 580 586 615 570 567 582 531 621 608 550 498 568 528 579 565 582 612 572 592 592 618 595 588 567 589 582 610 604 618 557 631 565 617 565 614 589 588 620 584 619 611 595 622 590 609 522 647 632 616 644 629 629 624 665 667 641 609 623 672 652 598 639 635 662 636 660 697 613 626 639 604 699 560 656 671 629 639 610 601 598 630 595 645 616 660 608 619 582 612 579 614 567 617 594 647 579 581 616 600 644 600 622 617 582 558 582 580 630 601 623 536 609 586 529 594 552 577 582 532 543 531 534 580 555 574 557 534 577 575 534 533 513 586 530 596 633 551 637 586 567 543 564 517 532 544 567 549 604 562 555 529 554 547 596 543 571 558 526 614 557 586 548 566 592 591 585 621 547 567 555 602 599 602 583 641 584 634 593 641 676 605 629 650 646 645 715 606 619 632 678 647 677 651 706 681 625 731 691 723 734 748 715 760 782 699 780 728 745 737 735 779 709 758 746 643 754 715 691 765 724 710 703 711 740 638 727 711 783 700 701 750 686 750 675 716 662 666 709 666 681 780 690 706 648 683 705 638 644 608 647 620 614 661 618 597 614 554 609 570 622 663 604 643 601 614 633 621 599 576 604 633 599 565 591 566 609 592 628 561 591 565 531 589 604 573 610 592 574 545 611 565 626 618 603 604 597 548 583 596 589 577 570 563 582 526 561 578 523 587 565 551 568 568 544 545 575 543 565 529 547 531 576 538 581 554 536 596 525 557 547 535 575 618 564 510 565 546 553 591 523 595 585 573 542 568 528 618 559 599 575 597 595 568 529 570 555 606 551 551 531 541 518 540 520 605 548 592 583 542 567 547 563 580 560 571 608 581 534 531 604 538 539 508 555 611 577 578 587 561 562 629 560 595 600 602 527 578 553 546 598 541 566 590 592 598 649 585 656 625 598 572 614 587 623 600 631 589 600 647 641 603 614 585 644 628 647 623 601 607 597 588 594 562 552 597 577 600 644 585 573 624 608 611 563 604 567 578 605 573 589 533 534 590 595 574 545 554 569 602 564 569 553 575 555 577 566 562 577 585 552 538 499 498 522 560 498 595 542 527 508 532 517 522 505 538 558 511 533 510 522 556 556 540 509 584 518 568 507 535 549 510 564 518 539 507 496 541 524 528 545 536 498 507 578 525 574 547 495 551 558 560 500 541 488 565 521 549 547 555 512 524 485 502 486 502 503 494 493 483 510 532 523 523 525 523 526 537 538 508 512 519 541 510 516 507 502 564 513 507 525 510 508 493 504 497 492 514 491 537 530 503 502 495 532 530 551 499 514 487 500 476 569 497 536 516 538 509 532 531 492 490 542 496 563 481 557 521 546 536 531 511 592 534 481 554 509 506 485 533 545 522 517 509 555 527 537 578 556 551 543 494 539 526 519 541 485 529 554 511 589 546 555 537 528 549 547 576 594 520 565 519 534 512 567 554 568 524 557 523 529 548 545 545 530 519 498 513 561 544 504 507 480 467 569 447 539 559 495 499 547 528 514 517 449 530 523 502 515 560 533 539 560 550 515 544 576 500 561 536 547 528 517 544 516 495 530 491 514 551 573 494 540 517 509 563 537 519 498 504 543 508 498 501 520 554 512 511 516 528 509 530 525 543 527 554 553 506 546 495 505 540 539 526 531 559 516 533 524 557 572 562 493 526 497 545 520 503 541 542 546 526 526 508 521 547 510 502 569 553 500 510 527 554 538 551 546 504 530 543 491 492 595 518 566 529 532 499 540 510 524 528 563 510 557 550 599 550 578 568 520 542 514 521 530 524 539 511 590 571 544 539 521 539 524 576 541 590 588 514 593 512 625 506 543 527 570 529 568 541 542 590 567 605 515 562 545 583 583 531 557 546 599 542 559 581 590 554 522 617 564 600 664 603 628 597 558 586 591 588 624 644 593 594 581 580 595 621 581 665 608 579 560</counts>
			</dataPoints>
		</scan>
	</xrdMeasurement>
</xrdMeasurements>
