<?xml version="1.0"?>
<xrdMeasurements xmlns="http://www.xrdml.com/XRDMeasurement/2.3" xmlns:xsi="http://www.w3.org/2001/XMLSchema-instance" xsi:schemaLocation="http://www.xrdml.com/XRDMeasurement/2.3 http://www.xrdml.com/XRDMeasurement/2.3/XRDMeasurement.xsd" status="Completed" recordIdentifier="{3118ECA3-0297-4105-8AAD-DBC179BC29FF}">
	<comment>
		<entry/>
	</comment>
	<sample type="To be analyzed">
		<id>GPSS_Li1p9Cr0p1Mg0p9Cl4_110325_69093a3ff040177efa2b52dd</id>
		<name></name>
		<preparedBy></preparedBy>
	</sample>
	<xrdMeasurement measurementType="Scan" status="Completed" sampleMode="Reflection">
		<usedWavelength intended="K-Alpha 1">
			<kAlpha1 unit="Angstrom">1.5405980</kAlpha1>
			<kAlpha2 unit="Angstrom">1.5444260</kAlpha2>
			<kBeta unit="Angstrom">1.3922500</kBeta>
			<ratioKAlpha2KAlpha1>0.5000</ratioKAlpha2KAlpha1>
		</usedWavelength>
		<incidentBeamPath>
			<radius unit="mm">145.00</radius>
			<xRayTube id="1010048" name="Empyrean Cu LFF HR (9430 033 7310x)">
				<tension unit="kV">40.0</tension>
				<current unit="mA">15.0</current>
				<anodeMaterial>Cu</anodeMaterial>
				<focus type="Line">
					<length unit="mm">12.0</length>
					<width unit="mm">0.4</width>
					<takeOffAngle unit="deg">6.0</takeOffAngle>
				</focus>
			</xRayTube>
			<sollerSlit id="21010002" name="Soller slits 0.04 rad.">
				<opening unit="rad">0.0400</opening>
			</sollerSlit>
			<mask id="22031000" name="Fixed mask 13 mm">
				<width unit="mm">9.00</width>
			</mask>
			<divergenceSlit id="22120001" name="Divergence slit 1°" xsi:type="fixedDivergenceSlitType">
				<distanceToSample unit="mm">50.00</distanceToSample>
				<height unit="mm">1.52</height>
			</divergenceSlit>
		</incidentBeamPath>
		<sampleMovement xsi:type="spinningSampleMovementType">
			<spinnerRevolutionTime unit="seconds">1.0</spinnerRevolutionTime>
		</sampleMovement>
		<diffractedBeamPath>
			<radius unit="mm">145.00</radius>
			<antiScatterSlit id="22090040" name="AS slit 9 mm (PIXcel)" xsi:type="fixedAntiScatterSlitType">
				<height unit="mm">9.00</height>
			</antiScatterSlit>
			<sollerSlit id="21020003" name="Large Soller slits 0.04 rad.">
				<opening unit="rad">0.0400</opening>
			</sollerSlit>
			<filter id="20030001" name="Large beta-filter Nickel">
				<material>Ni</material>
				<thickness unit="mm">0.020</thickness>
			</filter>
			<detector id="7010019" name="PIXcel1D-Medipix3 detector" xsi:type="rtmsDetectorType">
				<phd unit="keV">
					<lowerLevel>4.02</lowerLevel>
					<upperLevel>11.27</upperLevel>
				</phd>
				<mode>Scanning</mode>
				<activeLength unit="deg">5.542</activeLength>
			</detector>
		</diffractedBeamPath>
		<scan appendNumber="0" mode="Continuous" scanAxis="Gonio" status="Completed">
			<header>
				<startTimeStamp>2025-11-05T12:44:30-08:00</startTimeStamp>
				<endTimeStamp>2025-11-05T12:52:37-08:00</endTimeStamp>
				<author>
					<name>AutomatedUser</name>
				</author>
				<source>
					<applicationSoftware version="1.7b (136)">PANalytical Aeris Instrument Suite</applicationSoftware>
					<instrumentControlSoftware version="3.2.00000000 20240306">AERIS</instrumentControlSoftware>
					<instrumentID>950485</instrumentID>
				</source>
			</header>
			<dataPoints>
				<positions axis="2Theta" unit="deg">
					<startPosition>10.00943322</startPosition>
					<endPosition>99.99442286</endPosition>
				</positions>
				<positions axis="Omega" unit="deg">
					<startPosition>5.00471661</startPosition>
					<endPosition>49.99721143</endPosition>
				</positions>
				<commonCountingTime unit="seconds">12.495</commonCountingTime>
				<counts unit="counts">2645 2695 2672 2701 2597 2815 2730 2751 2624 2568 2684 2631 2736 2628 2716 2654 2614 2641 2675 2714 2747 2697 2642 2590 2590 2674 2633 2665 2622 2623 2654 2717 2612 2647 2669 2679 2637 2635 2667 2550 2701 2660 2551 2653 2600 2710 2653 2629 2675 2634 2592 2621 2586 2708 2652 2651 2584 2501 2573 2609 2585 2605 2551 2663 2575 2550 2648 2639 2703 2637 2697 2580 2619 2664 2650 2644 2572 2662 2630 2648 2671 2717 2558 2698 2716 2737 2631 2647 2694 2650 2670 2696 2621 2631 2576 2631 2686 2600 2652 2639 2582 2706 2665 2536 2522 2557 2612 2625 2787 2606 2583 2589 2627 2588 2547 2726 2650 2653 2690 2676 2588 2781 2649 2642 2626 2541 2628 2601 2677 2642 2630 2659 2749 2625 2663 2618 2675 2637 2664 2592 2722 2459 2624 2610 2625 2592 2597 2550 2642 2654 2697 2652 2618 2592 2585 2595 2651 2659 2655 2709 2710 2609 2628 2578 2613 2785 2603 2662 2625 2626 2662 2545 2749 2582 2688 2642 2764 2618 2579 2713 2594 2598 2579 2729 2675 2731 2622 2601 2664 2571 2710 2610 2605 2712 2567 2592 2605 2621 2591 2586 2512 2587 2643 2699 2664 2620 2513 2596 2599 2582 2624 2605 2629 2594 2602 2592 2515 2562 2572 2585 2521 2492 2492 2613 2572 2649 2620 2571 2658 2578 2547 2542 2563 2579 2551 2587 2605 2593 2616 2622 2581 2643 2573 2555 2619 2643 2643 2620 2615 2605 2510 2531 2513 2593 2589 2658 2558 2557 2517 2673 2559 2711 2544 2616 2549 2687 2534 2594 2608 2566 2595 2610 2577 2651 2476 2575 2538 2550 2515 2553 2675 2637 2503 2569 2593 2554 2608 2601 2536 2709 2618 2603 2619 2633 2574 2586 2641 2607 2593 2571 2639 2638 2690 2643 2614 2699 2572 2663 2667 2601 2588 2700 2696 2690 2689 2694 2755 2697 2745 2669 2642 2650 2614 2687 2664 2657 2718 2798 2659 2609 2720 2795 2800 2821 2667 2874 2727 2835 2747 2733 2810 2711 2817 2692 2794 2768 2721 2850 2830 2785 2838 2843 2848 2841 2880 2814 2800 2919 2809 2871 2878 2884 2861 2937 2854 2922 2788 2842 2831 2900 2888 2864 2877 2950 2833 2988 2933 2908 2961 2963 2958 2917 2963 2951 2967 2944 2975 3061 3013 3027 3062 3043 3065 2918 3049 3049 3041 3123 3094 3111 3043 3016 3041 3070 2990 3010 3055 3185 3154 3130 3214 3167 3257 3201 3237 3256 3275 3398 3316 3317 3499 3304 3386 3508 3537 3603 3539 3597 3640 3632 3750 3819 3876 3878 3983 3907 3968 4157 4124 4057 4250 4122 4202 4193 4238 4271 4250 4402 4359 4399 4359 4360 4505 4469 4450 4479 4503 4596 4518 4625 4578 4526 4579 4523 4732 4552 4647 4579 4525 4459 4550 4460 4373 4367 4351 4339 4386 4395 4304 4337 4135 4273 4287 4252 4226 4193 4142 4208 4026 4241 3967 4113 4030 3871 4042 3987 3868 3816 3811 3706 3810 3709 3607 3561 3585 3639 3477 3451 3406 3396 3444 3445 3359 3390 3298 3244 3214 3178 3198 3121 3096 3169 3068 3032 2970 3043 2937 3006 3005 2948 2960 2813 2983 2906 2962 2887 2950 2910 2944 2880 2784 2880 2860 2841 2864 2919 2764 2905 2963 2878 2913 2843 2857 2789 2862 2839 2860 2879 2776 2846 2700 2819 2878 2788 2768 2733 2877 2745 2808 2742 2739 2753 2685 2852 2696 2770 2688 2701 2803 2741 2717 2766 2751 2707 2685 2726 2741 2656 2794 2680 2766 2765 2619 2672 2683 2666 2732 2629 2714 2673 2644 2568 2720 2744 2658 2734 2634 2680 2614 2710 2667 2568 2706 2688 2746 2653 2577 2748 2503 2657 2566 2581 2649 2623 2747 2612 2663 2653 2756 2657 2559 2577 2628 2669 2648 2656 2677 2648 2650 2603 2583 2604 2588 2590 2580 2678 2638 2539 2508 2645 2633 2599 2614 2615 2721 2599 2635 2631 2666 2634 2548 2638 2491 2651 2570 2531 2569 2508 2634 2672 2610 2624 2471 2544 2567 2527 2554 2514 2530 2532 2578 2617 2498 2551 2440 2609 2631 2509 2555 2562 2608 2505 2507 2630 2609 2619 2585 2495 2573 2534 2528 2651 2584 2614 2502 2644 2510 2541 2672 2543 2557 2534 2538 2521 2556 2539 2568 2556 2580 2505 2584 2515 2513 2471 2507 2586 2554 2535 2568 2463 2511 2548 2475 2567 2581 2510 2497 2531 2567 2507 2469 2541 2525 2520 2554 2469 2498 2452 2531 2611 2508 2477 2545 2460 2416 2482 2373 2518 2468 2455 2536 2519 2478 2565 2464 2546 2414 2542 2528 2525 2436 2567 2405 2431 2446 2394 2385 2556 2474 2466 2510 2470 2501 2486 2462 2502 2464 2471 2527 2465 2450 2419 2490 2436 2378 2362 2527 2474 2587 2451 2395 2464 2441 2456 2424 2381 2409 2465 2489 2349 2491 2452 2443 2459 2436 2474 2452 2388 2491 2407 2452 2381 2460 2475 2362 2377 2373 2408 2369 2357 2386 2439 2418 2473 2420 2401 2374 2327 2388 2521 2456 2357 2368 2406 2409 2463 2331 2447 2404 2438 2325 2353 2308 2365 2479 2372 2466 2392 2409 2288 2341 2392 2278 2309 2297 2376 2423 2279 2460 2453 2316 2248 2422 2313 2361 2332 2301 2357 2381 2352 2368 2257 2350 2340 2336 2231 2308 2322 2293 2353 2269 2350 2332 2190 2415 2323 2319 2399 2298 2370 2338 2345 2330 2279 2286 2342 2299 2319 2329 2288 2263 2430 2366 2292 2265 2264 2277 2303 2234 2238 2384 2236 2269 2252 2282 2279 2312 2277 2296 2284 2306 2260 2251 2296 2294 2286 2363 2269 2290 2291 2204 2196 2274 2282 2266 2258 2160 2185 2353 2169 2225 2272 2303 2229 2303 2265 2346 2206 2206 2243 2259 2267 2236 2282 2224 2237 2264 2224 2229 2148 2239 2092 2246 2197 2258 2233 2327 2201 2247 2207 2272 2188 2231 2303 2258 2167 2241 2236 2191 2136 2197 2270 2250 2196 2303 2264 2152 2288 2225 2195 2289 2147 2180 2249 2122 2176 2249 2231 2357 2214 2199 2179 2211 2243 2217 2106 2135 2213 2221 2325 2206 2211 2238 2217 2155 2238 2149 2243 2205 2174 2267 2222 2359 2120 2229 2143 2223 2201 2214 2159 2226 2262 2276 2241 2201 2302 2238 2150 2221 2171 2318 2273 2272 2267 2194 2295 2272 2264 2195 2270 2236 2190 2223 2193 2281 2235 2236 2127 2212 2326 2217 2135 2278 2239 2211 2250 2269 2257 2183 2196 2291 2188 2265 2257 2170 2216 2188 2243 2235 2209 2268 2211 2160 2192 2219 2263 2236 2148 2242 2179 2247 2231 2235 2260 2220 2178 2219 2209 2246 2163 2209 2159 2248 2269 2237 2298 2235 2225 2262 2159 2180 2127 2268 2155 2208 2173 2222 2072 2196 2099 2106 2127 2252 2162 2200 2154 2165 2161 2032 2124 2147 2165 2152 2155 2139 2151 2206 2113 2210 2131 2128 2122 2165 2159 2151 2194 2149 2115 1986 2154 2216 2043 2171 2080 2059 2150 2032 2113 2079 2003 2028 2004 2194 2062 1962 2098 2126 2047 2002 2020 1981 2001 1985 2018 2060 1987 1985 1981 2013 1915 1946 2005 1975 1973 1936 2027 1909 1961 1913 1926 1954 1895 1940 1936 1912 1926 1852 1920 1904 1913 1955 1897 1978 1929 1866 1834 1863 1905 1819 1896 1774 1871 1901 1856 1794 1835 1867 1811 1874 1874 1800 1759 1682 1775 1768 1776 1826 1789 1782 1748 1864 1789 1837 1797 1783 1758 1817 1752 1844 1778 1793 1836 1655 1773 1679 1785 1749 1743 1727 1681 1683 1812 1731 1719 1736 1742 1684 1716 1706 1684 1612 1707 1742 1741 1677 1756 1665 1642 1635 1686 1626 1739 1592 1659 1689 1595 1662 1641 1668 1584 1706 1612 1601 1619 1677 1728 1581 1624 1625 1614 1614 1669 1594 1604 1650 1651 1583 1616 1659 1525 1642 1641 1594 1647 1690 1612 1651 1592 1644 1653 1654 1626 1571 1567 1594 1592 1624 1606 1586 1603 1539 1636 1612 1601 1584 1583 1604 1494 1522 1577 1554 1546 1488 1666 1536 1576 1525 1534 1540 1570 1542 1532 1633 1526 1616 1523 1488 1581 1598 1542 1585 1574 1543 1555 1541 1557 1497 1550 1444 1565 1526 1565 1519 1458 1553 1570 1550 1540 1527 1515 1485 1550 1478 1557 1532 1563 1558 1480 1507 1495 1476 1557 1512 1550 1540 1500 1514 1513 1469 1536 1523 1526 1562 1519 1532 1589 1520 1482 1549 1551 1478 1519 1564 1545 1531 1499 1582 1480 1587 1533 1591 1505 1538 1535 1544 1534 1548 1554 1563 1517 1495 1509 1558 1590 1539 1503 1532 1445 1565 1515 1568 1613 1524 1590 1526 1535 1577 1528 1544 1527 1596 1499 1512 1528 1552 1485 1548 1566 1530 1591 1599 1554 1553 1564 1540 1538 1463 1520 1590 1527 1518 1566 1522 1543 1524 1502 1554 1537 1522 1569 1433 1513 1462 1593 1496 1525 1531 1515 1511 1483 1509 1519 1543 1503 1493 1554 1553 1562 1501 1495 1462 1520 1504 1494 1526 1598 1438 1483 1500 1517 1562 1526 1572 1452 1524 1513 1456 1461 1505 1470 1552 1526 1490 1586 1540 1548 1462 1484 1501 1526 1479 1490 1441 1490 1429 1592 1534 1497 1468 1487 1534 1535 1547 1515 1459 1485 1448 1414 1415 1469 1494 1452 1451 1459 1475 1464 1394 1494 1479 1433 1444 1403 1447 1395 1399 1467 1394 1474 1416 1334 1347 1377 1425 1456 1460 1325 1369 1375 1436 1363 1426 1441 1397 1418 1381 1334 1375 1398 1360 1408 1283 1403 1286 1282 1344 1302 1394 1289 1341 1306 1340 1289 1252 1360 1285 1305 1332 1285 1320 1300 1287 1294 1276 1274 1275 1312 1275 1308 1276 1314 1269 1320 1294 1310 1284 1226 1298 1258 1265 1278 1257 1265 1250 1256 1262 1260 1213 1230 1238 1245 1219 1215 1182 1253 1260 1243 1245 1260 1182 1242 1214 1308 1200 1228 1201 1201 1229 1169 1226 1204 1186 1181 1173 1225 1149 1146 1213 1230 1204 1174 1228 1171 1256 1229 1247 1188 1273 1262 1263 1240 1319 1300 1265 1261 1305 1295 1340 1434 1392 1331 1372 1372 1460 1374 1448 1440 1393 1331 1463 1403 1460 1494 1456 1484 1446 1464 1403 1488 1536 1475 1462 1476 1423 1491 1465 1430 1475 1466 1383 1458 1442 1429 1378 1430 1313 1440 1377 1342 1306 1315 1242 1253 1245 1240 1241 1219 1173 1220 1232 1198 1179 1188 1236 1151 1199 1167 1187 1150 1168 1205 1136 1138 1104 1188 1184 1204 1134 1176 1152 1217 1171 1151 1125 1181 1164 1194 1211 1114 1216 1161 1191 1281 1183 1204 1217 1202 1229 1288 1242 1245 1236 1210 1277 1354 1338 1389 1354 1465 1507 1501 1676 1765 1821 1928 2061 2227 2257 2535 2772 2961 3142 3246 3506 3718 4086 4202 4632 4878 5093 5328 5580 6062 6377 6426 6549 6905 7098 7313 7393 7544 7706 7604 7710 7575 7549 7631 7601 7531 7479 7568 7592 7287 7393 7499 7192 7326 7193 7280 7160 6871 6897 6655 6594 6353 5879 5695 5459 5018 4874 4568 4365 4126 3864 3705 3565 3377 3304 3221 3033 3066 2937 2801 2787 2572 2761 2509 2501 2566 2533 2445 2524 2294 2388 2248 2215 2176 2038 1898 1898 1885 1820 1697 1744 1598 1613 1499 1492 1383 1447 1370 1372 1388 1324 1241 1351 1264 1217 1205 1166 1288 1167 1148 1192 1087 1149 1191 1095 1152 1059 1111 1078 1085 1068 1081 1019 1015 1015 1010 1044 1035 1043 987 1097 1010 1051 1055 981 994 977 1021 1048 1025 1091 995 980 1044 1021 1006 1022 940 1028 1007 985 1032 992 941 1001 1004 926 989 917 985 858 896 917 904 862 916 894 847 866 870 831 906 881 883 892 905 906 937 864 832 844 829 884 886 831 907 904 871 887 863 863 889 861 886 864 921 863 874 896 909 864 869 843 788 846 882 819 850 883 851 784 819 845 827 827 832 865 839 821 884 831 800 906 846 863 820 858 856 922 815 832 823 827 867 871 869 826 882 838 819 838 804 834 816 825 852 821 826 793 887 832 823 818 860 813 792 812 809 860 786 849 812 787 811 804 783 753 782 780 754 795 797 846 846 777 763 835 843 782 796 857 792 792 852 789 825 824 827 814 763 791 795 814 812 790 758 828 750 788 791 755 809 783 772 797 777 770 773 771 768 805 748 791 750 797 801 786 790 755 800 725 776 821 724 777 792 750 745 762 736 713 764 755 702 775 805 766 731 789 787 729 744 715 702 746 776 740 769 776 764 773 732 732 806 767 808 827 772 795 811 800 833 767 790 859 802 828 832 832 770 772 853 782 777 812 794 802 809 823 849 826 762 824 857 792 773 837 794 741 800 803 800 835 776 844 882 833 834 835 829 819 828 848 845 852 868 794 911 903 882 948 894 956 911 943 891 986 920 971 975 968 971 1095 1024 1034 1085 1133 1148 1252 1214 1316 1317 1446 1549 1673 1733 1976 2018 2276 2468 2730 2893 3328 3381 3631 3740 4255 4289 4891 4848 5197 5093 5514 5589 5934 5911 6191 6041 6329 6302 6487 6541 6563 6701 6694 6800 6707 6788 6990 6719 7017 6960 7190 7140 7009 7113 7085 7063 6839 6711 6543 6538 6446 6297 6045 5804 5344 5210 4845 4527 4428 4129 3997 3771 3656 3464 3356 3146 3172 2940 2854 2823 2799 2751 2655 2694 2668 2599 2582 2636 2576 2531 2553 2519 2502 2381 2394 2270 2264 2203 2012 2098 2067 2015 1892 1859 1808 1690 1685 1587 1542 1515 1505 1398 1329 1348 1209 1190 1120 1010 1030 967 947 965 896 970 833 944 900 892 898 877 844 874 781 808 819 806 744 784 791 791 723 757 756 756 748 693 709 741 699 728 712 820 753 728 745 712 716 762 748 723 713 729 707 694 773 791 738 713 691 663 739 689 731 707 753 699 687 742 672 714 738 693 751 744 665 731 735 713 740 686 742 694 737 722 737 705 713 736 739 744 748 671 674 718 686 733 722 714 702 771 741 708 695 744 737 778 699 749 789 758 726 755 747 685 824 737 798 769 768 783 763 751 727 787 732 729 770 713 723 703 694 694 723 726 709 719 702 719 669 743 687 734 688 665 710 729 738 689 679 645 657 702 667 657 675 706 647 659 661 622 696 634 715 632 625 665 672 619 647 691 644 661 651 666 614 611 642 643 607 627 636 622 624 642 623 635 654 653 622 627 634 615 679 632 643 619 627 644 620 617 643 596 597 626 651 612 603 667 592 581 571 594 609 632 638 626 605 627 620 622 607 614 615 613 623 546 658 662 645 600 635 576 605 614 633 597 575 579 551 587 617 569 636 549 608 622 586 610 569 545 566 585 584 599 563 573 581 599 608 618 569 588 631 611 600 600 624 583 604 591 545 558 600 619 589 601 560 603 591 621 598 557 608 590 576 544 594 537 583 580 575 592 545 569 555 537 597 577 539 557 621 562 604 584 557 587 592 542 552 567 551 539 549 579 566 537 567 583 550 553 586 563 560 569 580 517 577 544 578 550 568 569 530 564 561 525 605 513 575 521 541 519 563 537 551 551 554 529 563 492 577 563 535 545 574 534 576 591 596 555 574 523 569 524 549 566 516 504 561 534 527 533 536 535 504 535 545 522 520 594 531 489 581 537 532 547 528 561 495 498 525 521 549 491 518 508 496 568 549 524 500 527 517 499 522 480 549 526 525 545 540 506 556 551 497 551 496 540 487 528 566 549 555 515 508 558 554 495 514 476 544 503 480 505 518 574 495 539 522 504 518 509 511 533 576 576 534 557 547 497 560 498 537 526 542 509 537 523 527 518 516 504 521 514 483 539 581 491 491 466 539 497 495 523 511 525 516 495 551 569 539 503 512 499 536 487 504 538 545 479 500 541 522 510 523 487 549 500 510 546 512 498 526 511 532 496 509 526 524 524 524 508 575 524 547 491 554 541 497 495 500 515 499 533 525 565 523 562 550 528 494 536 496 540 578 510 509 495 497 558 500 523 519 500 518 498 484 499 502 504 483 489 474 531 511 473 498 459 512 482 521 516 499 518 490 453 507 498 524 462 480 499 543 519 551 467 449 472 443 505 498 492 529 501 492 485 465 529 488 487 493 510 478 509 460 509 463 508 466 499 460 517 438 479 480 524 485 512 508 501 487 499 503 470 512 491 524 483 497 512 480 453 482 524 501 506 497 497 514 483 510 526 458 450 478 479 493 455 478 498 481 455 468 472 495 484 506 454 478 486 494 488 480 443 471 483 469 443 499 503 530 507 495 503 490 460 479 481 491 458 446 456 447 516 452 502 481 493 503 501 487 496 506 470 471 514 490 485 497 468 451 496 506 500 447 517 456 504 503 468 545 524 482 459 481 498 470 481 483 467 478 504 480 459 487 485 472 474 454 455 529 463 456 449 487 441 464 495 482 470 477 443 440 446 450 468 493 469 487 491 450 508 458 507 467 503 462 441 485 502 470 456 484 455 459 459 417 479 494 483 490 452 481 419 460 435 475 465 475 474 491 501 461 464 480 474 470 493 469 469 461 461 452 473 474 457 437 479 445 475 501 467 456 480 426 459 490 412 462 466 490 490 487 451 479 452 466 491 443 451 474 472 433 464 457 467 459 458 457 438 447 452 479 460 447 457 474 445 454 488 464 405 433 519 471 471 442 487 477 447 470 485 476 448 454 475 453 470 501 453 484 480 451 450 517 480 493 439 421 443 443 500 516 515 503 458 461 469 493 465 449 410 455 488 478 479 480 461 481 452 455 440 501 451 506 459 448 496 484 503 485 484 515 500 541 517 504 545 565 578 567 565 628 633 635 690 726 682 786 776 765 816 825 804 873 900 907 924 917 958 947 977 999 985 1036 970 956 1067 1008 1046 986 947 985 1052 1004 995 929 1028 942 1026 926 925 899 893 873 830 807 750 740 722 743 728 699 664 626 611 630 616 553 607 542 512 517 521 488 518 515 505 503 479 497 482 504 468 500 472 455 497 520 482 436 504 482 437 542 483 515 474 471 521 514 510 538 471 510 510 512 531 495 551 450 561 472 521 507 529 478 514 534 516 511 503 494 524 528 498 493 468 529 482 479 444 487 464 473 455 459 466 497 474 443 438 488 445 444 462 410 411 426 451 431 472 419 435 460 442 420 444 421 435 451 432 444 443 416 490 437 440 443 425 477 448 498 439 445 476 428 466 413 442 453 446 430 443 414 428 432 412 402 443 424 481 415 418 433 453 458 469 436 446 455 434 465 425 436 479 399 457 438 436 450 439 469 404 447 471 441 468 442 435 418 431 465 453 397 433 406 462 443 440 436 466 465 446 447 444 451 406 432 421 444 460 442 441 409 417 498 476 434 467 443 470 450 483 447 452 424 448 489 464 452 422 426 418 419 478 455 503 467 422 441 471 463 474 490 449 431 445 469 451 463 470 434 452 446 453 463 442 422 452 414 454 462 450 478 447 457 485 490 494 454 494 449 481 429 450 450 501 456 448 474 448 446 448 451 459 459 457 467 456 481 472 410 441 447 443 462 475 460 472 439 460 438 480 430 486 441 454 477 463 436 473 422 452 443 477 458 476 433 473 442 467 464 470 496 488 497 475 488 511 452 478 462 448 487 524 464 442 463 510 497 485 529 551 518 526 531 554 518 560 544 559 572 550 606 571 621 644 642 678 682 722 703 717 740 827 820 915 929 1061 1104 1326 1377 1558 1661 1821 1947 2129 2200 2397 2512 2720 2726 2954 3035 3173 3268 3421 3635 3602 3633 3604 3790 3873 3845 3824 3846 3817 3971 4166 4011 3951 3903 3913 3924 3760 3956 4010 3828 3845 3828 3677 3557 3518 3373 3313 3188 2999 2934 2612 2648 2382 2386 2237 2144 1977 1926 1855 1688 1648 1573 1453 1455 1425 1410 1289 1317 1276 1340 1272 1291 1286 1298 1283 1279 1295 1308 1290 1307 1312 1290 1305 1298 1370 1371 1398 1367 1306 1330 1393 1424 1403 1372 1354 1387 1300 1282 1253 1365 1301 1282 1316 1209 1255 1158 1079 1135 1087 1066 998 998 1018 888 954 925 873 877 841 813 801 766 756 681 679 688 648 641 627 697 613 612 617 608 578 583 561 551 544 542 498 505 542 570 485 555 502 508 460 476 474 497 494 446 446 445 456 473 452 423 474 455 467 445 442 413 440 439 421 448 424 418 440 412 406 424 439 442 435 406 437 403 454 391 452 413 448 415 426 431 378 399 428 423 466 430 399 448 399 444 460 452 443 462 435 432 429 412 422 407 436 409 447 452 411 434 415 424 421 419 433 439 439 445 435 454 431 475 463 505 476 479 501 483 492 469 518 540 596 546 556 540 563 591 566 531 645 621 633 624 608 653 640 625 640 595 640 639 598 599 609 641 660 616 615 624 653 645 618 608 587 590 581 528 548 588 525 554 568 535 487 522 508 499 440 482 484 455 492 505 480 509 460 496 499 475 458 465 436 468 454 496 422 486 436 492 467 483 466 452 455 482 432 420 472 447 447 450 469 425 462 430 421 443 423 401 430 411 407 396 433 418 416 434 367 426 430 425 391 419 384 448 405 410 414 407 440 439 437 376 403 402 398 414 386 391 466 407 420 384 388 442 382 436 367 407 399 372 434 407 383 407 397 377 388 417 382 391 417 423 364 416 439 421 379 413 431 380 419 386 414 396 426 379 373 395 412 379 348 371 414 384 364 398 381 384 353 381 365 366 371 354 369 380 372 360 370 355 357 380 355 358 389 358 362 345 359 383 366 385 389 373 368 358 372 376 386 346 393 370 351 366 356 348 352 354 366 383 366 371 378 354 354 353 367 376 343 388 354 380 335 355 393 400 319 353 336 345 392 349 383 389 344 363 378 352 354 374 388 342 357 332 361 350 349 339 314 336 387 385 390 327 365 333 342 376 355 351 363 340 347 370 356 395 368 350 388 361 371 373 351 356 341 339 383 363 354 351 321 321 356 360 362 311 339 346 401 361 395 349 340 362 347 353 354 345 315 355 315 361 363 332 332 340 334 371 359 349 339 372 330 339 370 353 325 347 348 325 340 325 338 305 355 366 371 353 362 397 350 346 358 370 330 364 342 397 313 316 351 359 352 356 341 334 342 349 306 367 364 337 324 388 327 367 410 325 340 384 323 361 357 315 401 378 334 370 348 365 319 340 343 342 359 342 354 356 371 354 373 380 375 306 354 308 364 357 344 307 348 336 335 336 359 357 332 331 329 351 303 349 330 346 358 355 337 328 364 338 343 337 358 342 341 345 342 339 311 337 324 320 351 348 343 318 293 322 349 354 359 333 356 371 347 363 339 318 329 337 367 351 343 344 314 338 321 337 360 328 320 348 340 333 348 339 334 329 344 361 347 339 339 340 367 318 372 350 343 331 363 375 315 353 364 340 312 328 350 306 302 315 364 335 357 325 315 327 329 350 343 376 332 345 323 320 361 335 357 340 341 345 351 307 346 294 357 334 322 358 313 362 345 288 363 335 319 323 363 346 343 349 308 355 338 328 340 321 338 330 320 376 310 352 354 343 337 330 330 375 340 377 354 360 309 318 360 333 331 374 323 342 321 314 323 366 351 349 332 357 367 359 391 356 366 354 360 311 393 389 360 396 355 411 365 397 346 424 367 363 361 386 408 373 410 377 396 431 401 431 434 422 381 391 345 378 429 409 413 393 413 389 388 412 437 423 395 395 382 447 431 437 451 443 500 532 519 553 557 623 592 660 716 746 806 777 800 959 879 1070 1068 1143 1173 1185 1213 1257 1280 1343 1341 1434 1387 1420 1448 1393 1446 1512 1539 1465 1519 1477 1559 1600 1527 1658 1561 1575 1638 1555 1569 1504 1487 1502 1317 1349 1261 1140 1101 1068 1033 1089 1004 1044 994 953 916 849 823 759 756 685 641 644 593 587 596 576 604 563 532 566 560 516 594 565 531 580 573 550 560 586 635 636 641 655 611 656 634 641 641 655 735 701 655 645 675 714 695 682 679 684 659 684 706 688 670 656 677 670 631 666 650 651 560 554 608 613 545 597 563 588 513 524 546 469 474 531 472 457 466 498 440 450 423 420 436 410 400 424 388 398 353 353 391 370 373 372 389 366 374 350 391 349 361 398 324 337 339 355 364 379 366 345 337 364 347 341 346 334 340 318 359 342 345 336 335 310 354 363 297 316 331 337 338 311 332 347 346 369 331 315 314 351 361 353 305 329 337 356 315 341 320 325 343 345 339 349 354 349 323 339 345 337 320 358 330 355 326 339 316 345 307 362 317 336 363 316 309 323 310 348 341 299 324 339 342 358 336 309 321 351 343 385 357 390 359 334 330 331 327 336 342 395 314 395 381 400 391 414 421 416 412 427 398 464 485 503 494 567 573 594 606 639 697 708 766 792 828 847 916 890 927 961 994 1042 1066 1133 1133 1140 1171 1170 1192 1174 1198 1265 1240 1269 1272 1306 1291 1293 1357 1277 1281 1337 1288 1318 1256 1253 1134 1165 1136 1096 1104 1034 985 942 935 878 858 811 767 774 723 743 663 672 671 632 635 611 528 520 482 484 454 464 432 418 446 437 474 408 432 441 479 452 449 398 428 506 489 455 490 463 485 481 473 489 508 496 484 529 543 521 493 495 516 444 528 546 546 513 507 544 516 512 526 548 534 489 515 512 483 499 501 506 448 436 437 455 446 404 433 409 450 430 476 435 442 397 407 397 429 439 482 419 378 409 361 383 376 377 379 370 324 370 371 346 380 393 401 384 381 375 416 382 390 378 367 355 379 392 364 362 376 345 365 340 356 342 363 389 351 369 350 341 345 343 369 315 302 352 314 340 326 316 318 341 332 376 315 351 332 349 346 337 380 373 383 428 388 443 399 431 434 445 426 444 501 486 472 522 484 445 459 484 488 463 472 465 460 483 507 527 485 522 470 511 484 520 490 512 476 456 474 466 518 463 453 493 440 470 430 469 425 354 420 400 440 413 431 386 432 373 409 381 399 355 375 367 391 384 337 362 367 382 373 398 360 352 356 349 360 359 345 339 310 326 381 318 307 330 320 326 342 330 323 320 304 302 307 315 306 295 282 318 309 307 298 264 287 342 316 310 277 295 316 257 322 302 290 343 309 304 282 296 300 308 296 297 316 288 312 282 311 331 295 315 321 306 304 327 305 318 298 360 323 304 300 311 303 312 292 305 307 300 327 300 327 314 331 287 330 316 329 323 279 311 318 326 328 293 309 266 306 292 306 323 267 281 274 295 295 312 269 291 278 260 262 273 290 281 287 269 282 286 283 283 276 304 262 270 237 299 279 249 269 289 261 279 283 272 276 276 271 286 290 281 291 257 264 266 263 281 279 242 316 244 282 272 273 302 259 301 261 307 275 289 260 268 258 263 262 297 285 288 239 263 275 263 256 271 290 274 243 282 292 264 291 265 277 266 297 244 274 260 267 262 258 265 275 267 291 271 272 297 261 291 259 279 263 274 267 266 276 247 269 276 316 263 233 306 279 286 266 298 274 292 288 258 269 244 276 238 303 292 287 283 273 245 324 265 264 280 262 276 288 294 280 284 306 282 307 267 231 297 292 265 274 293 283 280 287 301 249 295 270 287 317 263 296 259 276 272 258 292 268 308 268 261 262 267 278 263 286 283 280 264 274 266 303 267 238 265 247 292 264 281 268 230 283 272 250 246 261 228 236 290 276 281 249 246 241 276 276 263 264 239 270 263 263 270 223 288 238 244 257 266 250 259 260 277 279 276 256 263 301 287 260 225 268 262 256 283 300 226 271 265 236 237 266 232 242 214 249 267 233 281 257 237 258 236 276 240 275 281 246 231 247 228 285 261 273 244 281 245 246 273 265 258 271 264 257 250 267 266 279 258 237 268 257 234 246 229 240 256 216 279 258 228 246 228 266 231 264 235 266 244 278 267 284 232 247 229 225 249 283 261 270 231 284 277 266 270 286 266 248 276 280 262 292 267 281 289 266 264 274 305 273 304 285 279 331 303 346 325 357 336 298 352 338 325 342 360 326 398 328 371 343 387 355 384 356 386 343 363 372 411 416 376 324 377 345 367 332 341 369 355 359 363 323 326 341 355 283 303 353 322 323 330 279 302 322 283 289 282 273 280 256 285 278 282 288 278 259 269 273 257 248 258 246 228 276 246 259 248 265 242 282 278 295 265 215 259 260 287 262 242 250 270 262 240 236 261 281 243 274 247 249 264 245 249 241 262 256 228 241 291 280 271 262 263 280 257 262 236 266 225 235 239 249 221 265 233 240 248 250 278 241 267 248 272 241 266 258 249 222 239 220 273 257 244 262 256 260 228 262 285 241 248 266 241 242 249 256 237 264 242 248 234 268 233 240 281 237 238 228 262 235 239 215 246 247 245 268 242 234 239 262 266 258 222 236 234 219 256 256 234 274 229 298 281 211 264 239 212 275 228 223 219 259 235 224 272 235 220 274 219 263 266 277 249 261 224 237 219 250 228 245 235 282 263 222 243 223 262 257 249 248 232 240 286 271 248 244 216 264 215 234 244 240 265 275 222 242 260 244 218 240 258 235 270 246 238 268 223 234 273 240 263 225 265 239 256 228 235 261 229 227 249 248 276 235 229 286 239 257 258 293 261 239 264 272 273 247 268 264 292 293 300 293 279 287 279 320 276 334 341 329 318 326 332 340 366 395 376 451 406 443 483 452 476 486 519 515 528 507 530 508 559 544 636 560 575 552 583 691 631 666 636 600 606 660 641 597 600 561 596 577 605 584 630 553 538 522 507 516 509 481 463 468 470 444 438 460 404 411 398 369 390 369 392 381 331 316 302 379 325 315 356 326 323 300 270 324 277 304 290 272 299 230 283 290 277 289 286 269 284 287 280 243 270 290 349 283 291 302 272 284 277 303 294 327 338 283 316 303 304 345 282 334 321 340 283 341 296 289 329 304 321 323 324 358 339 342 323 333 335 344 306 324 365 299 334 293 336 330 368 288 338 347 323 303 296 314 314 307 277 296 294 317 291 291 280 272 274 269 318 261 319 303 294 295 246 247 281 244 281 241 262 238 287 250 267 240 211 262 274 238 261 242 223 258 241 271 270 245 262 247 222 273 279 260 235 277 247 239 250 266 237 241 282 247 265 292 245 281 291 278 295 265 271 259 276 284 245 258 274 256 270 284 258 273 231 256 258 277 288 231 262 284 245 232 258 282 247 244 219 259 241 262 273 258 257 226 269 228 250 238 246 246 248 219 242 264 234 215 237 240 196 256 251 237 241 230 237 221 261 230 223 230 205 235 239 228 216 223 218 242 229 213 219 237 211 211 242 208 234 218 236 213 215 222 222 224 218 249 240 229 258 239 233 209 224 201 229 221 230 250 216 230 220 230 245 207 231 250 220 236 218 233 220 227 226 196 265 204 215 241 225 240 219 222 228 211 240 246 241 233 266 235 248 203 221 239 218 243 219 261 226 241 233 242 219 234 217 218 214 230 192 246 238 211 232 245 221 214 270 222 257 211 223 214 222 214 221 233 220 234 214 213 256 223 232 233 230 263 266 227 199 243 227 201 239 257 237 234 220 223 211 231 218 227 234 226 239 233 212 235 272 213 213 216 239 236 226 211 277 226 276 228 232 214 243 223 206 214 218 215 227 240 199 214 225 219 216 235 235 228 265 212 270 244 220 249 240 250 201 206 235 231 279 239 222 225 210 231 218 219 231 238 247 219 245 224 218 227 214 241 236 226 241 217 229 218 231 248 232 230 264 278 249 203 241 247 241 221 228 242 230 225 207 226 215 270 242 227 236 236 246 219 246 212 227 266 233 250 222 267 233 235 249 263 208 279 224 225 235 264 260 261 235 244 243 228 240 207 232 224 231 231 189 239 223 231 269 219 236 244 229 215 238 262 239 227 213 218 237 229 261 266 269 230 219 247 211 233 293 243 266 229 207 258 236 225 228 271 206 216 200 229 270 239 259 239 228 234 221 226 243 235 224 247 240 257 234 213 227 249 212 232 200 238 269 228 211 214 211 217 236 218 229 239 249 239 245 230 244 222 249 247 233 218 257 226 240 264 246 227 200 285 238 226 218 242 249 228 221 246 271 214 242 229 257 222 268 268 256 270 233 229 261 256 294 247 268 245 243 257 228 247 231 241 273 249 248 256 258 265 281 295 261 295 273 311 275 268 300 327 271 310 342 302 330 316 277 318 339 309 321 315 305 346 350 329 332 332 321 325 317 343 334 333 321 362 325 313 320 339 340 351 322 341 352 350 333 324 340 348 340 382 377 368 360 390 434 402 414 429 426 458 420 494 441 504 540 476 553 525 555 552 528 580 532 527 575 568 582 620 586 577 553 622 585 592 644 605 559 562 589 572 572 549 531 535 511 465 525 517 485 445 501 426 462 432 453 443 442 397 427 368 377 353 357 367 340 346 356 337 331 346 302 316 297 305 314 293 307 287 273 297 311 280 285 274 292 297 287 277 274 281 284 275 294 276 292 303 276 277 295 285 267 286 270 283 337 302 300 327 269 272 307 324 326 321 288 323 314 305 329 348 325 364 312 344 352 358 342 384 390 345 360 393 378 368 374 339 350 359 378 370 357 388 398 364 364 350 361 420 377 380 359 349 360 389 366 364 357 354 298 362 338 346 342 332 327 314 344 337 292 304 308 322 317 322 308 322 301 314 326 275 313 294 288 262 288 258 316 275 262 261 271 306 278 307 278 243 292 266 281 279 296 307 313 312 296 307 319 299 295 289 282 297 281 341 323 314 310 307 291 335 336 343 314 333 340 356 356 373 392 394 406 414 377 423 466 444 504 533 566 591 601 603 619 671 697 719 712 802 760 842 859 857 854 878 888 934 880 954 1021 929 967 915 962 930 1032 1038 1024 984 996 967 906 944 1005 950 930 925 894 920 817 857 803 806 780 782 763 742 717 730 685 662 624 667 623 571 572 577 570 562 530 476 584 489 459 457 458 414 442 408 422 446 396 377 341 362 376 355 333 348 354 354 306 318 297 285 296 349 317 326 297 345 321 339 310 310 315 331 316 317 294 329 320 303 319 348 325 315 351 306 356 366 330 358 324 389 354 370 393 374 413 385 376 391 383 356 395 420 396 417 458 383 402 390 401 425 395 424 434 403 439 433 393 399 435 395 424 404 437 394 462 421 394 412 386 409 430 368 403 377 383 392 374 396 369 373 376 382 387 392 348 359 355 384 347 374 366 397 378 374 402 365 340 359 311 366 372 351 331 398 342 323 362 393 340 336 350 352 365 325 338 366 347 329 328 327 340 331 333 337 336 326 282 302 320 308 313 282 303 316 314 277 291 265 315 288 306 262 280 240 266 271 292 289 243 287 249 262 256 278 283 234 242 249 239 235 239 298 277 274 249 289 241 238 233 262 285 241 229 245 244 287 283 194 270 266 266 243 247 247 244 261 257 260 238 230 259 245 233 270 242 231 280 261 267 229 239 222 228 237 218 209 236 226 258 267 239 224 239 218 247 239 213 218 222 228 217 265 264 257 202 226 217 242 234 236 211 263 239 203 227 233 257 216 259 226 249 233 233 281 226 268 225 238 259 236 278 237 237 235 266 262 258 235 244 269 280 262 247 241 246 236 228 245 258 270 233 236 217 239 217 244 221 214 247 245 234 249 239 216 223 270 240 233 260 242 237 224 249 240 243 228 246 207 241 206 232 221 242 250 256 224 277 242 238 241 228 214 262 224 225 215 207 229 228 224 229 209 264 232 267 236 227 237 231 223 248 231 225 223 261 198 222 215 244 245 224 233 212 214 212 231 265 247 262 232 237 212 257 245 256 219 248 217 256 205 228 228 221 270 248 226 233 217 213 241 244 224 243 259 250 242 223 240 212 231 228 234 241 259 248 235 243 242 231 237 269 230 230 259 244 245 222 236 243 224 237 229 244 244 278 226 271 210 244 271 220 273 267 249 237 220 220 262 259 228 277 258 275 236 248 242 249 234 257 245 257 243 239 225 245 249 261 278 282 242 241 227 267 238 230 258 235 238 256 212 213 235 240 210 248 257 232 239 256 243 218 200 235 256 249 248 239 247 242 214 236 234 240 239 243 221 229 228 249 266 242 247 226 224 220 218 239 196 256 225 216 232 220 233 244 266 215 211 227 224 256 240 246 250 224 210 222 233 264 259 228 246 222 242 223 238 214 214 234 232 272 243 223 214 200 205 221 225 239 237 247 263 246 250 218 223 263 274 266 280 247 242 234 250 270 265 283 262 245 231 284 274 288 256 262 279 295 302 240 287 305 287 306 317 328 311 316 278 288 321 329 324 299 305 308 307 316 306 313 334 248 265 308 318 335 305 287 332 318 324 308 247 286 278 260 256 286 293 277 263 305 241 285 269 261 281 280 245 327 273 277 238 249 245 278 229 279 223 241 245 269 242 264 226 271 220 281 264 243 264 238 239 210 240 228 217 235 221 234 223 234 260 234 248 214 235 230 221 257 205 217 217 251 214 256 212 240 238 239 234 189 187 257 222 214 229 243 246 223 246 225 205 216 233 224 261 236 222 230 214 250 237 236 226 233 198 260 249 259 234 226 263 238 257 249 212 242 242 248 261 244 257 218 218 264 233 233 236 250 237 233 222 233 201 215 215 243 229 245 271 239 266 259 225 232 243 216 237 209 204 224 224 232 235 234 248 220 231 219 259 236 286 240 246 220 222 256 261 228 240 237 226 206 246 236 222 227 256 216 285 237 273 235 203 237 236 214 227 257 224 231 236 244 256 259 274 223 235 220 231 218 219 229 212 270 221 212 249 247 250 225 251 277 231 270 261 267 279 263 209 282 237 258 294 263 245 250 249 280 274 303 281 295 248 301 297 286 260 282 287 318 281 311 301 345 342 334 349 338 357 389 369 428 370 418 415 428 464 453 481 486 506 513 576 531 591 636 610 632 621 736 671 722 699 760 786 736 749 735 744 812 763 835 748 782 841 774 842 780 781 741 757 762 740 781 728 689 713 698 649 663 655 648 597 644 636 637 591 621 600 577 577 589 569 540 509 470 512 479 479 460 488 398 428 400 411 393 404 369 377 329 336 324 345 350 366 316 320 310 291 306 291 310 293 282 310 313 279 275 287 278 297 279 269 283 310 289 305 285 285 272 290 290 290 269 256 263 261 246 278 266 268 287 308 300 287 283 250 303 291 289 289 277 262 292 310 269 343 296 284 309 285 283 326 318 329 343 330 331 349 354 377 341 375 341 357 344 337 355 360 362 366 351 380 379 376 370 379 337 363 341 363 381 374 390 377 369 371 401 418 393 363 340 367 385 371 337 356 339 371 358 374 336 390 329 334 359 324 339 373 340 337 337 345 286 318 351 393 348 341 295 293 328 325 318 308 323 317 318 295 289 294 296 336 303 303 297 278 283 301 292 261 311 278 284 302 302 306 279 275 269 293 298 281 275 245 269 246 276 276 259 235 222 243 270 222 296 277 277 232 279 226 264 243 234 257 271 236 274 248 266 266 230 273 246 235 222 281 228 224 245 241 247 289 264 223 237 233 213 242 216 214 247 230 240 242 221 245 226 240 229 268 240 265 221 241 276 224 222 220 237 238 244 248 239 233 225 231 223 218 218 225 231 223 237 233 219 236 214 212 227 218 249 217 219 237 256 239 226 229 258 222 250 231 216 221 221 210 242 269 214 256 229 226 206 219 232 232 237 231 231 226 237 233 226 230 235 221 267 210 233 207 204 206 231 211 229 248 216 236 216 224 216 215 214 248 222 225 202 233 214 231 231 223 216 246 224 205 223 218 291 214 244 211 224 208 224 234 226 226 220 217 214 226 209 199 235 220 221 246 224 227 195 249 232 218 227 228 241 234 225 242 209 207 218 257 226 241 258 234 225 257 217 229 240 227 240 210 234 203 190 219 216 221 200 280 231 209 238 215 205 231 243 229 238 241 240 236 223 281 250 235 283 258 222 289 237 242 261 216 247 225 261 265 230 240 218 227 241 239 225 263 230 239 232 267 220 234 232 270 211 228 260 244 248 217 222 274 236 205 230 248 223 269 221 223 222 257 217 239 202 217 228 245 229 245 204 247 196 196 232 182 246 213 260 245 196 208 240 215 214 246 236 267 189 237 226 234 227 232 226 207 230 244 230 219 239 226 201 243 227 238 246 250 245 230 234 188 215 221 235 212 226 225 213 234 246 217 213 225 204 217 241 225 241 206 235 241 235 222 229 263 219 235 209 226 245 213 227 203 250 229 230 250 222 265 239 222 224 264 234 212 245 240 220 242 278 223 287 247 220 220 242 261 251 245 269 277 270 245 272 256 250 240 273 267 256 284 257 273 294 290 284 278 299 292 327 326 298 324 318 339 316 355 327 359 334 342 366 386 371 366 429 370 405 370 403 394 368 377 391 380 407 389 392 373</counts>
			</dataPoints>
		</scan>
	</xrdMeasurement>
</xrdMeasurements>
