<?xml version="1.0"?>
<xrdMeasurements xmlns="http://www.xrdml.com/XRDMeasurement/2.3" xmlns:xsi="http://www.w3.org/2001/XMLSchema-instance" xsi:schemaLocation="http://www.xrdml.com/XRDMeasurement/2.3 http://www.xrdml.com/XRDMeasurement/2.3/XRDMeasurement.xsd" status="Completed" recordIdentifier="{1A727279-FE2E-4B64-BD17-D03E3AEE9889}">
	<comment>
		<entry/>
	</comment>
	<sample type="To be analyzed">
		<id>GPSS_Li1p75Mg0p7Y0p2Nb0p05Cl4_112625_69278cb0f4e53d1f7239ae51</id>
		<name></name>
		<preparedBy></preparedBy>
	</sample>
	<xrdMeasurement measurementType="Scan" status="Completed" sampleMode="Reflection">
		<usedWavelength intended="K-Alpha 1">
			<kAlpha1 unit="Angstrom">1.5405980</kAlpha1>
			<kAlpha2 unit="Angstrom">1.5444260</kAlpha2>
			<kBeta unit="Angstrom">1.3922500</kBeta>
			<ratioKAlpha2KAlpha1>0.5000</ratioKAlpha2KAlpha1>
		</usedWavelength>
		<incidentBeamPath>
			<radius unit="mm">145.00</radius>
			<xRayTube id="1010048" name="Empyrean Cu LFF HR (9430 033 7310x)">
				<tension unit="kV">40.0</tension>
				<current unit="mA">15.0</current>
				<anodeMaterial>Cu</anodeMaterial>
				<focus type="Line">
					<length unit="mm">12.0</length>
					<width unit="mm">0.4</width>
					<takeOffAngle unit="deg">6.0</takeOffAngle>
				</focus>
			</xRayTube>
			<sollerSlit id="21010002" name="Soller slits 0.04 rad.">
				<opening unit="rad">0.0400</opening>
			</sollerSlit>
			<mask id="22031000" name="Fixed mask 13 mm">
				<width unit="mm">9.00</width>
			</mask>
			<divergenceSlit id="22120001" name="Divergence slit 1°" xsi:type="fixedDivergenceSlitType">
				<distanceToSample unit="mm">50.00</distanceToSample>
				<height unit="mm">1.52</height>
			</divergenceSlit>
		</incidentBeamPath>
		<sampleMovement xsi:type="spinningSampleMovementType">
			<spinnerRevolutionTime unit="seconds">1.0</spinnerRevolutionTime>
		</sampleMovement>
		<diffractedBeamPath>
			<radius unit="mm">145.00</radius>
			<antiScatterSlit id="22090040" name="AS slit 9 mm (PIXcel)" xsi:type="fixedAntiScatterSlitType">
				<height unit="mm">9.00</height>
			</antiScatterSlit>
			<sollerSlit id="21020003" name="Large Soller slits 0.04 rad.">
				<opening unit="rad">0.0400</opening>
			</sollerSlit>
			<filter id="20030001" name="Large beta-filter Nickel">
				<material>Ni</material>
				<thickness unit="mm">0.020</thickness>
			</filter>
			<detector id="7010019" name="PIXcel1D-Medipix3 detector" xsi:type="rtmsDetectorType">
				<phd unit="keV">
					<lowerLevel>4.02</lowerLevel>
					<upperLevel>11.27</upperLevel>
				</phd>
				<mode>Scanning</mode>
				<activeLength unit="deg">5.542</activeLength>
			</detector>
		</diffractedBeamPath>
		<scan appendNumber="0" mode="Continuous" scanAxis="Gonio" status="Completed">
			<header>
				<startTimeStamp>2025-12-01T18:23:26-08:00</startTimeStamp>
				<endTimeStamp>2025-12-01T18:31:33-08:00</endTimeStamp>
				<author>
					<name>AutomatedUser</name>
				</author>
				<source>
					<applicationSoftware version="1.7b (136)">PANalytical Aeris Instrument Suite</applicationSoftware>
					<instrumentControlSoftware version="3.2.00000000 20240306">AERIS</instrumentControlSoftware>
					<instrumentID>950485</instrumentID>
				</source>
			</header>
			<dataPoints>
				<positions axis="2Theta" unit="deg">
					<startPosition>10.00943322</startPosition>
					<endPosition>99.99442286</endPosition>
				</positions>
				<positions axis="Omega" unit="deg">
					<startPosition>5.00471661</startPosition>
					<endPosition>49.99721143</endPosition>
				</positions>
				<commonCountingTime unit="seconds">12.495</commonCountingTime>
				<counts unit="counts">2805 2849 2817 2895 2892 2914 2840 2824 2811 2945 2835 2845 2946 2846 2838 2856 2948 2862 2896 2916 2927 2840 2835 2810 2821 2873 2756 2858 2864 2934 2833 2949 2863 2907 2885 2860 2887 2826 2851 2951 2975 2949 2880 2847 2879 2842 2844 2908 2862 2841 2807 2932 2878 2897 2814 2904 2902 2863 2891 2829 2961 2978 2932 2854 2763 2922 2825 2910 2909 2869 2933 2917 2893 2994 2847 2883 2903 2899 2897 2913 2808 2931 2932 2892 2975 2896 2879 2845 2942 2956 2835 3015 2992 2857 2887 3010 3079 3018 2869 2911 2884 3035 2880 2870 3034 2962 3045 2975 2957 3034 2928 3021 2987 2852 3023 2954 2949 2903 2906 2962 3004 3037 2933 3011 2888 3006 2901 3011 2924 2896 2944 2971 3063 3026 2884 2981 2919 3025 2979 2956 2907 3022 3016 3064 3018 2969 3084 3046 2981 2966 2956 3138 3031 2985 2978 3020 3072 3025 3031 2966 2965 2964 2961 3006 3080 3021 2971 3064 2995 3000 3017 3031 2903 2873 3014 3063 3057 2988 3011 2993 3035 2995 2971 3050 2950 2999 3053 2918 2925 3043 2881 2867 2966 2945 2939 2991 2938 3074 2895 2971 3016 2937 2905 2968 3059 2886 2957 2980 2925 3029 3026 2905 2947 2890 2843 3017 2893 2919 3013 2938 2959 2926 2988 2963 2921 2986 3068 2983 2928 3080 2939 2946 2987 2955 2977 2910 2877 3004 2972 2944 2945 2906 3019 2937 2834 2955 2818 2955 2950 2917 3018 2860 2879 2866 2935 2983 2962 2957 3069 3020 2971 2894 2863 2972 2879 3048 3008 2849 2923 3009 2941 3087 2912 2929 2968 3048 2987 2997 2833 2874 2915 3005 2992 3004 3110 3110 2874 2976 2925 2934 2945 2882 3005 2984 2875 2914 2976 2935 3039 2953 2973 3028 3029 2948 2961 3056 3104 3006 3089 3027 3027 3107 3059 3066 3079 3039 3081 3059 3133 3127 3124 3045 3155 3148 3115 3051 3032 3163 3201 3134 3089 3059 2993 3103 3085 3135 3161 3149 3245 3220 3232 3158 3246 2976 3212 3199 3200 3083 3248 3242 3322 3282 3210 3251 3381 3250 3228 3251 3314 3288 3240 3236 3335 3233 3310 3255 3344 3290 3230 3197 3338 3343 3379 3328 3380 3432 3375 3347 3399 3383 3295 3380 3484 3340 3316 3454 3376 3411 3413 3365 3538 3463 3414 3504 3501 3466 3411 3515 3549 3603 3686 3680 3741 3647 3626 3790 3778 3873 3864 3872 4040 3998 4149 4206 4359 4431 4531 4631 4811 4833 5018 5028 5160 5349 5315 5496 5398 5782 5531 5688 5398 5378 5232 4819 4765 4464 4365 4258 4141 3934 3757 3653 3531 3692 3609 3536 3494 3457 3338 3431 3369 3390 3307 3422 3341 3358 3223 3383 3271 3332 3292 3385 3289 3245 3176 3219 3221 3242 3373 3282 3299 3355 3193 3272 3338 3268 3315 3145 3246 3312 3203 3193 3202 3256 3281 3283 3246 3221 3138 3319 3164 3258 3228 3271 3116 3282 3167 3129 3194 3185 3182 3239 3151 3211 3227 3291 3336 3394 3338 3354 3389 3365 3466 3491 3470 3415 3530 3579 3625 3715 3817 3818 3891 3851 3827 3995 3970 4103 4097 4083 4124 4213 4177 4166 4017 3974 3859 3699 3586 3461 3479 3282 3354 3230 3128 3090 3115 3057 3082 3157 2933 3040 2962 3032 2927 2981 2955 3044 2969 3050 2895 2983 2882 2976 2912 2870 2973 2953 2939 2999 2829 2927 2853 2853 2910 2834 2933 2903 2921 2861 2875 2819 2852 2844 2820 2862 2831 2943 2859 2895 2828 2840 2887 2932 2809 2814 2848 2770 2821 2821 2873 2782 2762 2867 2779 2792 2700 2786 2873 2802 2701 2765 2828 2795 2701 2800 2778 2790 2745 2833 2848 2748 2749 2740 2747 2795 2774 2761 2863 2843 2816 2849 2843 2785 2841 2813 2859 2839 2795 2856 2768 2917 2843 2888 2930 2965 3046 2998 3072 3075 3145 3166 3345 3316 3448 3414 3455 3538 3654 3664 3592 3809 3803 3890 4031 3851 3839 3921 4059 4095 3832 3787 3687 3626 3519 3325 3387 3273 3047 3078 3065 2994 3000 2836 2830 2782 2802 2752 2715 2711 2749 2756 2736 2725 2698 2704 2690 2567 2637 2653 2689 2807 2676 2751 2668 2678 2760 2658 2631 2706 2606 2618 2707 2578 2672 2670 2742 2689 2608 2635 2588 2579 2676 2580 2724 2665 2684 2673 2671 2560 2651 2641 2586 2527 2687 2649 2589 2621 2564 2641 2568 2491 2587 2555 2663 2630 2606 2567 2629 2649 2614 2617 2575 2555 2627 2612 2600 2550 2592 2617 2574 2643 2559 2667 2565 2540 2633 2496 2515 2619 2539 2597 2483 2524 2654 2582 2587 2545 2591 2540 2516 2501 2527 2519 2415 2511 2564 2551 2476 2450 2463 2587 2480 2511 2527 2507 2481 2532 2525 2539 2491 2471 2540 2503 2467 2514 2419 2580 2416 2350 2418 2466 2465 2396 2410 2496 2501 2458 2523 2444 2403 2384 2488 2485 2528 2392 2477 2421 2373 2409 2491 2388 2398 2275 2516 2368 2463 2433 2431 2405 2501 2479 2436 2476 2351 2369 2508 2519 2385 2399 2388 2411 2409 2426 2357 2404 2429 2291 2348 2378 2437 2432 2293 2316 2249 2378 2394 2296 2382 2402 2419 2338 2289 2416 2319 2290 2371 2240 2356 2296 2316 2278 2371 2330 2380 2280 2371 2310 2252 2427 2327 2282 2379 2229 2364 2339 2281 2221 2233 2285 2313 2286 2326 2288 2288 2162 2294 2381 2325 2303 2275 2257 2358 2253 2266 2251 2269 2305 2264 2242 2351 2292 2265 2207 2232 2336 2279 2335 2182 2257 2242 2220 2278 2283 2280 2291 2254 2306 2325 2328 2283 2268 2265 2329 2238 2312 2222 2293 2251 2237 2257 2306 2280 2240 2157 2247 2200 2243 2245 2209 2193 2187 2180 2237 2193 2214 2241 2259 2178 2270 2142 2284 2226 2171 2301 2260 2204 2266 2320 2206 2250 2200 2243 2227 2174 2236 2271 2227 2319 2262 2202 2268 2289 2309 2249 2295 2204 2273 2233 2102 2228 2207 2198 2235 2254 2222 2273 2266 2304 2192 2250 2259 2198 2212 2230 2190 2266 2213 2254 2217 2262 2224 2251 2182 2212 2170 2274 2197 2285 2312 2285 2308 2258 2378 2146 2220 2302 2280 2291 2239 2280 2256 2395 2366 2324 2205 2454 2272 2374 2397 2296 2282 2356 2298 2367 2372 2348 2273 2388 2378 2370 2334 2467 2319 2319 2364 2325 2432 2402 2397 2449 2295 2361 2246 2332 2283 2312 2361 2303 2255 2309 2293 2356 2267 2307 2241 2235 2134 2152 2284 2199 2296 2235 2344 2224 2218 2268 2230 2112 2137 2200 2181 2212 2147 2172 2149 2140 2201 2245 2163 2140 2240 2131 2180 2149 2215 2231 2129 2133 2209 2076 2125 2128 2164 2240 2175 2159 2172 2161 2041 2177 2082 2137 2086 2158 2102 2090 2163 2053 2090 2165 2106 2182 2015 2100 2067 2073 2058 2080 2009 2041 2000 2081 2092 1964 2122 2020 2115 2087 2122 2032 2054 2085 1927 2020 2107 1998 2047 2094 2018 2028 1972 1991 1965 2032 2035 2063 1945 1955 1955 1979 2058 1942 1986 1940 1947 1923 1952 2007 2053 1981 1935 1902 1921 1981 1854 2001 1933 1854 1849 1806 1900 1914 1825 1817 1863 1909 1915 1924 1920 1923 1847 1831 1820 1916 1861 1870 1873 1942 1825 1867 2035 1977 1919 2012 2014 2124 2118 2103 2257 2185 2237 2266 2213 2225 2263 2267 2313 2267 2323 2404 2307 2310 2223 2216 2130 2123 2052 2010 1940 1911 1916 1830 1791 1828 1771 1765 1715 1702 1684 1656 1602 1709 1656 1716 1733 1749 1642 1723 1719 1616 1628 1698 1651 1573 1614 1658 1685 1624 1637 1615 1619 1700 1672 1649 1622 1698 1647 1697 1595 1672 1651 1653 1575 1674 1576 1614 1661 1648 1656 1621 1579 1674 1591 1640 1583 1603 1550 1578 1590 1535 1621 1618 1564 1523 1600 1518 1567 1586 1515 1541 1574 1614 1657 1593 1583 1525 1604 1582 1528 1546 1587 1519 1605 1554 1585 1509 1540 1529 1586 1557 1584 1520 1550 1548 1510 1560 1561 1501 1563 1475 1614 1522 1537 1583 1522 1570 1529 1565 1585 1502 1521 1546 1587 1579 1589 1502 1602 1576 1525 1631 1564 1512 1571 1552 1654 1565 1588 1495 1541 1532 1504 1624 1588 1459 1545 1566 1563 1557 1614 1555 1530 1549 1538 1511 1509 1540 1530 1613 1600 1574 1588 1513 1548 1509 1569 1460 1553 1500 1534 1536 1599 1529 1608 1575 1552 1611 1534 1518 1540 1569 1561 1585 1403 1578 1596 1572 1557 1539 1648 1516 1613 1613 1569 1615 1496 1615 1568 1596 1532 1541 1549 1583 1517 1529 1470 1502 1611 1611 1559 1515 1572 1488 1561 1566 1591 1544 1572 1543 1570 1505 1590 1640 1502 1546 1481 1593 1523 1616 1497 1516 1520 1516 1486 1542 1600 1471 1479 1519 1531 1459 1557 1575 1483 1548 1584 1528 1590 1497 1641 1448 1472 1577 1549 1581 1506 1537 1532 1570 1500 1499 1477 1518 1469 1463 1510 1483 1529 1521 1471 1503 1579 1510 1495 1481 1489 1493 1501 1462 1467 1603 1539 1470 1524 1388 1451 1462 1488 1497 1451 1488 1420 1480 1565 1482 1461 1399 1315 1487 1439 1437 1473 1510 1388 1385 1394 1397 1366 1433 1377 1353 1390 1415 1439 1364 1374 1353 1377 1368 1342 1406 1375 1357 1403 1416 1317 1400 1308 1370 1305 1437 1381 1347 1338 1423 1360 1405 1355 1342 1386 1268 1353 1390 1342 1317 1337 1361 1431 1347 1318 1303 1325 1332 1310 1317 1256 1350 1281 1333 1315 1293 1259 1219 1293 1322 1336 1285 1293 1292 1246 1314 1295 1308 1306 1278 1291 1245 1325 1311 1255 1249 1302 1251 1323 1227 1284 1239 1194 1225 1237 1259 1263 1234 1245 1240 1239 1222 1170 1224 1230 1224 1238 1263 1165 1244 1225 1206 1232 1219 1207 1207 1181 1209 1181 1270 1177 1179 1262 1223 1252 1237 1277 1320 1273 1277 1367 1317 1384 1361 1442 1486 1512 1517 1542 1655 1726 1789 1753 1838 1874 1863 1931 1921 2052 2144 2010 1988 2039 2033 2034 1885 1913 1925 1893 1821 1765 1790 1766 1707 1573 1605 1658 1577 1521 1480 1419 1401 1307 1326 1374 1413 1303 1296 1298 1282 1240 1202 1261 1283 1232 1279 1235 1261 1276 1193 1296 1297 1233 1188 1246 1243 1272 1202 1211 1233 1256 1243 1222 1210 1213 1242 1183 1200 1238 1222 1179 1257 1237 1251 1146 1214 1160 1223 1184 1183 1287 1217 1259 1323 1277 1244 1218 1241 1278 1291 1266 1312 1314 1395 1369 1383 1402 1465 1484 1587 1616 1613 1816 1832 2032 2083 2415 2501 2858 3040 3356 3715 4156 4510 5242 5625 6345 6691 7211 7694 8230 8622 9241 9474 10488 10586 11258 11227 11002 10610 10073 9429 8594 7910 7094 6342 5769 4972 4271 3630 3211 2659 2275 2007 1821 1616 1593 1557 1415 1376 1372 1328 1331 1295 1209 1249 1205 1228 1207 1200 1219 1206 1205 1229 1139 1094 1173 1119 1103 1076 1155 1123 1065 1076 1079 1030 1067 1100 1086 1018 1101 1053 1070 1062 1079 1027 1018 1016 1003 1025 1068 1003 1061 1036 1049 1006 1011 1016 1027 1041 956 1012 974 960 1030 992 939 1025 949 980 952 971 1038 963 958 973 1031 980 992 987 942 945 1023 923 922 970 981 994 969 946 1018 1003 975 941 907 955 1057 995 981 884 1056 976 1058 991 899 1070 964 1007 1036 1003 987 1092 1020 976 1039 1054 1038 989 1068 1144 1170 1181 1236 1254 1357 1423 1393 1478 1576 1648 1852 1922 2228 2281 2504 2740 2987 3236 3384 3552 3796 3888 4111 4199 4268 4401 4456 4475 4335 4206 4134 3982 3708 3389 3289 3038 2729 2468 2290 2020 1811 1670 1505 1436 1349 1307 1173 1135 1098 1047 1114 1039 984 1015 1009 974 992 1022 942 963 1019 948 1004 954 989 1085 1091 1103 1050 1073 1097 1140 1143 1134 1177 1198 1208 1224 1163 1258 1200 1197 1129 1102 1173 1163 1166 1109 1038 1018 1026 977 948 969 907 936 913 948 894 844 856 841 836 843 792 869 889 795 846 807 832 831 833 872 864 873 838 820 858 836 837 853 811 817 838 854 853 842 870 862 846 791 784 814 831 832 801 861 846 886 887 889 754 812 855 803 834 832 854 835 797 881 831 863 899 874 828 819 856 808 772 855 856 855 851 849 868 860 897 779 835 815 832 796 816 847 839 818 846 783 804 833 855 858 843 855 870 860 818 886 841 859 854 846 874 884 870 880 843 892 915 898 821 887 902 924 925 878 854 881 870 906 908 950 937 961 969 894 964 977 1045 1019 1039 1050 991 1091 1081 1077 1153 1180 1216 1235 1268 1331 1417 1337 1421 1446 1420 1445 1468 1563 1496 1469 1528 1565 1511 1457 1469 1457 1343 1318 1297 1302 1260 1237 1169 1118 1163 1096 1118 1118 1027 1095 1085 1002 1025 1094 1110 1098 1095 1227 1176 1305 1276 1284 1409 1535 1649 1776 1981 2094 2421 2693 3015 3309 3854 4216 4659 5226 5783 6275 6850 7249 7547 8206 8473 8938 9328 9402 9613 10007 9769 9223 8908 8149 7566 7123 6508 5863 5389 4821 4248 3755 3252 2873 2439 2070 1923 1659 1528 1499 1362 1222 1191 1204 1112 1036 1009 1034 944 1005 983 1004 980 863 957 888 908 894 859 955 924 889 812 798 865 875 772 876 875 807 857 851 856 856 795 833 805 811 769 837 870 836 800 750 773 795 827 768 780 816 785 778 774 793 780 778 800 798 805 819 861 833 795 775 838 859 800 766 852 802 798 790 773 800 740 771 702 839 736 832 748 775 774 767 732 778 723 766 752 736 756 732 798 760 720 707 733 722 719 772 751 715 731 752 762 729 708 777 751 716 710 711 765 722 769 755 765 745 728 736 748 762 775 746 724 738 732 726 710 710 730 704 738 719 736 708 747 699 683 727 742 732 776 742 676 755 743 737 700 700 722 738 758 692 758 741 725 727 760 757 732 787 782 836 781 806 798 847 903 937 935 867 920 936 950 1003 1002 938 1063 1017 1041 1049 993 1039 992 1014 950 1005 948 909 911 850 875 848 862 813 751 787 759 793 724 736 710 697 732 714 729 722 713 732 676 686 706 692 676 653 700 684 714 680 683 657 691 710 654 712 657 653 626 695 720 670 646 648 734 649 665 692 630 695 648 675 664 671 652 650 647 687 639 656 658 660 681 700 636 623 624 616 647 627 614 641 652 638 652 620 699 644 610 630 647 639 707 660 654 646 650 681 733 683 678 634 682 654 618 701 638 634 661 680 679 638 635 645 649 637 653 652 618 612 614 646 587 596 635 673 656 611 609 615 623 621 620 618 581 641 609 640 660 597 626 632 625 620 681 575 629 609 663 639 668 642 652 606 617 585 592 596 617 672 595 621 624 569 680 595 582 586 612 636 625 629 638 644 588 576 634 608 600 624 640 646 631 611 581 600 598 617 611 584 578 585 590 614 529 658 593 618 581 611 611 622 620 643 647 637 599 610 650 659 624 633 628 630 618 643 617 633 585 581 575 607 584 553 567 615 567 623 592 625 624 622 577 591 593 578 581 561 623 570 618 621 581 604 629 577 604 624 604 582 599 616 572 572 619 586 558 610 650 581 626 576 638 591 630 571 554 573 585 580 586 611 590 599 574 599 550 566 669 641 561 586 662 651 577 593 559 539 563 624 583 567 559 592 583 613 640 580 613 595 677 591 620 578 587 620 642 654 650 622 624 615 578 609 665 634 605 615 671 651 643 650 669 663 672 653 640 670 620 663 657 649 620 618 645 611 622 640 632 588 649 592 570 658 586 519 616 577 598 576 624 599 624 591 617 603 633 666 567 657 577 601 608 618 688 612 634 639 689 680 652 634 631 716 703 742 765 762 779 817 860 888 889 969 966 1064 1152 1202 1335 1492 1485 1605 1748 1737 1877 1927 1965 2085 2187 2120 2226 2142 2176 2236 2132 2075 1882 1819 1782 1655 1528 1434 1322 1256 1273 1135 1047 1019 956 899 750 773 707 720 722 654 688 693 654 673 631 659 588 648 569 616 611 609 617 544 567 604 601 591 600 591 602 567 594 585 607 522 576 578 577 575 639 548 567 556 565 584 613 546 578 582 567 559 554 575 576 553 563 543 570 586 563 541 548 577 553 564 545 560 560 519 611 518 557 582 577 531 537 593 558 555 549 521 600 551 591 564 530 551 539 516 570 609 541 566 535 516 564 562 554 523 544 588 563 569 532 512 532 554 603 582 548 584 562 561 531 571 569 550 592 554 603 555 551 587 573 596 538 585 588 606 555 579 600 561 604 626 606 688 649 676 652 700 727 746 751 703 722 781 771 791 720 773 815 780 808 805 746 778 709 745 691 683 687 630 635 653 619 633 658 585 538 595 590 573 548 579 606 555 543 541 571 556 579 617 626 558 574 597 623 567 640 610 609 654 634 669 684 734 678 732 691 742 742 776 781 814 777 794 740 836 788 738 788 755 731 708 701 677 666 708 612 645 658 602 591 585 614 608 543 571 593 533 560 544 549 574 526 512 593 583 553 584 569 535 555 556 524 543 583 552 519 598 525 569 534 554 567 542 546 588 609 561 608 593 587 598 643 564 598 632 648 611 631 635 675 658 680 635 676 703 656 723 671 697 674 715 610 651 653 658 676 608 637 639 597 585 621 568 554 554 590 588 548 527 589 509 543 528 557 559 555 542 560 557 504 575 591 523 543 553 550 520 523 535 517 540 593 559 539 521 559 554 511 532 513 561 548 538 498 534 572 562 548 522 554 525 569 541 548 544 593 626 593 595 653 674 673 678 728 784 870 861 958 987 1014 1071 1110 1183 1226 1167 1245 1294 1264 1215 1346 1241 1212 1147 1081 1114 1041 1034 953 934 842 800 864 834 773 697 748 683 699 700 642 591 583 574 568 618 564 600 571 547 533 576 517 569 525 554 577 528 569 515 499 577 488 558 501 517 525 480 554 511 476 499 505 563 541 527 497 500 522 496 568 471 522 560 511 511 515 510 526 538 528 522 533 489 524 514 581 550 570 541 560 535 560 531 543 540 553 556 600 506 574 543 547 530 563 562 549 546 541 552 555 511 539 546 546 507 526 483 515 507 498 528 527 524 544 516 516 469 496 495 513 483 524 499 500 503 485 485 469 480 485 471 486 501 471 478 489 500 496 530 490 489 521 536 494 494 503 536 500 474 509 521 495 492 494 445 497 476 553 505 503 455 514 495 504 489 471 494 505 473 508 533 520 457 477 499 508 493 508 512 478 504 527 458 487 539 461 501 474 526 478 539 466 493 480 480 475 524 491 464 496 463 484 524 502 481 499 493 491 505 510 469 496 472 456 529 503 547 513 497 534 581 529 599 486 544 490 541 541 500 555 543 560 601 577 548 510 561 514 551 537 521 563 544 518 542 520 540 523 568 539 596 575 567 563 530 597 586 562 599 591 551 558 565 578 552 548 552 572 577 599 542 579 550 608 585 591 562 575 580 562 571 557 554 548 577 546 587 563 568 600 587 568 565 552 601 572 590 592 593 548 519 563 608 630 636 614 651 625 678 660 672 699 763 730 723 755 813 807 875 865 950 1050 1003 1083 1199 1210 1322 1264 1273 1452 1408 1414 1451 1498 1474 1519 1490 1436 1398 1408 1327 1274 1224 1248 1210 1090 1097 1093 1029 1034 939 967 989 912 900 900 863 812 864 811 836 810 867 874 839 893 893 1000 986 1079 1061 1257 1376 1515 1755 1896 2195 2445 2782 3150 3388 3548 3910 4268 4472 4599 4722 4936 4987 5023 4907 4855 4804 4545 4454 4107 3864 3624 3380 3182 3105 2926 2743 2522 2309 2082 1950 1741 1528 1370 1213 1083 972 985 849 804 734 759 705 720 687 674 682 635 567 642 573 579 579 529 591 595 551 580 550 526 553 543 511 566 524 469 541 524 528 484 532 514 501 519 494 520 491 483 530 474 511 541 502 478 505 520 502 504 512 520 501 530 500 477 466 506 478 517 529 486 516 505 487 510 441 462 485 471 532 504 498 507 507 533 466 515 457 491 519 480 476 484 475 465 482 439 496 455 471 453 478 479 450 464 493 482 485 428 487 455 506 505 450 480 519 472 472 469 472 504 457 519 458 445 474 454 508 471 491 483 427 486 484 451 474 481 443 516 483 473 463 511 484 455 447 515 451 481 482 478 518 484 493 479 484 494 484 467 469 486 482 494 478 475 461 531 491 501 494 519 461 510 464 493 504 507 504 496 489 475 491 447 487 483 529 526 491 559 510 544 545 578 576 603 630 679 705 735 763 737 795 729 753 813 856 822 837 822 829 794 862 850 856 845 779 782 723 764 745 725 698 722 673 710 665 608 608 620 615 630 588 592 596 580 637 591 560 584 531 568 546 576 556 535 502 523 553 515 501 486 472 481 474 483 483 482 485 468 516 448 480 455 450 469 489 471 477 484 418 502 448 468 436 445 448 433 470 530 480 506 465 445 498 446 490 477 501 547 526 534 546 570 616 596 575 613 602 598 662 603 591 582 596 577 629 573 621 573 596 565 569 520 557 534 550 475 487 473 500 517 480 505 475 513 473 474 447 478 481 451 477 446 479 445 483 438 413 466 483 470 492 426 468 452 458 399 438 475 449 464 451 490 491 467 488 473 512 498 512 479 537 536 567 555 564 622 588 633 643 658 702 747 737 729 780 719 761 755 752 746 793 748 741 752 731 720 686 660 639 609 602 620 600 571 567 532 597 535 509 506 459 462 485 472 422 475 418 408 420 444 413 448 408 436 456 453 441 427 424 461 385 453 449 433 394 455 389 403 440 379 397 405 423 400 462 388 429 408 405 417 404 436 433 398 434 405 450 410 460 412 431 403 423 443 360 413 390 401 409 408 391 429 417 453 388 389 449 419 439 437 423 402 435 439 417 464 452 445 535 509 478 502 501 490 461 448 417 467 482 441 441 488 479 482 446 446 453 486 501 463 429 425 465 448 424 413 401 435 405 435 379 407 384 440 376 410 403 426 359 382 408 410 398 401 416 430 378 405 403 413 414 372 426 387 394 370 432 370 402 388 411 352 408 406 414 380 412 412 381 377 387 393 414 435 413 374 405 453 366 391 410 416 393 362 365 410 404 407 407 410 391 429 401 418 384 383 396 418 461 414 400 418 420 413 370 382 404 372 400 369 457 409 431 391 404 425 390 386 405 413 418 400 415 363 388 398 413 434 420 424 430 385 426 396 411 391 358 348 401 388 424 389 397 408 413 397 398 402 401 415 391 442 439 390 432 414 407 394 455 423 385 436 425 381 404 392 413 403 393 389 416 404 439 388 412 380 385 391 405 407 404 374 402 412 448 430 394 390 419 391 399 387 377 446 358 463 424 414 372 415 390 413 417 434 369 406 389 387 411 431 410 396 363 384 434 442 461 434 418 437 426 451 463 473 461 401 410 415 421 435 392 410 411 403 427 418 447 423 430 412 414 396 398 395 407 357 366 370 381 399 377 396 380 408 394 392 384 367 391 399 354 415 385 368 399 381 409 407 358 412 416 400 419 401 457 365 448 415 455 422 466 446 424 464 440 430 440 446 440 450 453 478 495 460 467 489 467 474 525 454 478 506 532 479 525 485 509 492 468 480 473 483 459 480 468 485 525 462 462 471 470 482 466 463 459 473 477 443 443 490 501 530 514 482 483 563 564 609 659 640 658 810 873 930 972 1067 1197 1220 1335 1455 1459 1563 1545 1628 1635 1682 1644 1665 1665 1658 1611 1543 1520 1462 1433 1274 1293 1292 1206 1159 1210 1107 1035 1088 943 903 865 804 769 757 717 655 665 630 621 592 561 613 559 601 592 596 621 651 649 599 630 649 605 659 646 666 611 687 623 610 615 633 556 629 574 612 607 592 551 569 581 560 499 523 507 476 507 492 503 449 453 442 500 458 490 414 477 473 439 491 467 463 471 425 433 474 452 428 493 445 536 408 439 435 455 466 492 505 441 472 467 464 458 406 435 458 419 385 419 407 433 436 424 458 444 457 436 464 447 465 505 436 416 425 426 498 433 441 437 401 412 419 406 406 440 392 415 382 393 418 399 396 419 370 427 390 388 394 351 411 391 330 405 410 357 380 385 392 345 406 370 359 385 365 396 332 391 361 373 410 366 407 358 386 415 416 375 372 376 365 387 335 367 391 414 403 361 378 400 373 392 360 407 369 399 380 385 360 345 362 385 383 387 363 386 352 360 391 403 338 370 390 419 385 384 389 402 391 412 376 411 393 409 414 377 404 397 401 422 425 421 399 380 419 432 437 431 467 446 480 490 476 469 524 507 549 554 565 614 623 730 737 825 873 1016 1089 1088 1177 1259 1313 1434 1404 1457 1547 1502 1480 1567 1479 1489 1474 1481 1450 1327 1265 1218 1286 1182 1131 1039 1097 1107 979 1073 869 907 889 782 720 740 639 642 619 533 566 464 449 441 474 496 427 436 396 425 427 428 421 381 400 393 392 396 430 412 433 389 379 381 406 376 424 392 389 400 395 388 417 388 408 416 366 382 376 387 396 387 408 406 397 376 411 365 335 379 428 386 375 399 382 363 375 374 331 360 376 364 385 331 346 367 337 351 360 360 355 316 332 355 364 351 352 363 370 314 322 349 388 355 335 348 345 343 351 347 323 342 331 372 373 332 325 334 354 402 304 377 346 379 356 338 386 336 337 342 285 353 372 329 386 358 323 346 383 334 397 353 333 328 352 365 351 362 322 364 355 333 330 349 322 356 363 400 326 391 335 371 378 353 371 338 357 364 402 370 380 403 426 413 419 464 407 494 454 482 515 480 468 534 518 550 550 550 543 542 540 502 531 484 478 521 490 490 493 488 471 459 461 487 446 478 442 507 463 431 416 444 442 442 379 409 428 370 367 360 381 380 373 367 368 386 392 350 370 340 350 368 375 410 353 379 338 346 322 321 343 349 398 330 316 346 346 328 352 352 339 344 332 347 334 330 367 352 348 332 347 315 311 358 335 303 317 316 286 346 335 326 314 358 330 337 353 336 335 332 347 322 339 325 346 331 326 353 328 348 349 354 337 332 360 333 354 376 354 383 333 365 350 325 357 361 337 336 323 340 388 366 378 344 359 330 356 364 349 365 365 321 352 356 317 356 356 383 358 361 318 344 369 369 382 335 409 359 370 371 381 420 430 424 383 419 406 466 481 484 504 504 512 482 548 542 516 488 516 489 476 485 490 529 535 483 483 510 474 489 456 449 445 466 437 434 417 387 421 388 384 368 371 378 374 380 341 377 337 341 335 342 301 338 367 388 338 354 347 365 306 331 293 329 331 342 326 333 322 323 304 304 332 318 334 328 324 327 326 347 317 322 308 288 299 336 319 325 299 306 336 292 325 344 330 340 296 295 317 286 323 309 321 329 332 334 337 342 305 335 290 294 306 319 339 332 313 348 312 315 326 315 322 331 312 305 342 343 347 336 349 317 323 344 318 343 355 363 327 363 357 353 345 343 331 355 343 340 356 316 351 320 335 366 363 374 366 379 333 344 353 376 335 343 341 313 365 350 332 331 351 305 342 320 350 332 348 333 348 322 332 352 302 349 297 307 327 306 320 318 347 319 327 331 306 373 356 308 357 296 347 353 315 336 316 354 319 356 371 311 333 311 351 324 345 323 345 323 328 346 344 315 398 341 373 348 375 398 390 396 375 386 382 384 381 392 386 400 385 363 387 384 400 351 358 373 395 376 360 349 333 385 371 332 353 363 320 319 345 364 366 312 342 329 312 300 304 329 321 325 352 275 327 342 307 316 340 313 301 341 310 293 306 288 305 292 338 289 310 323 308 305 320 310 314 319 348 301 308 325 335 291 325 283 334 311 327 329 313 303 316 347 296 336 326 325 343 334 338 312 322 303 342 314 345 334 325 321 294 296 360 379 341 392 322 380 351 372 360 397 403 440 449 414 430 420 385 403 396 416 388 446 372 409 407 399 428 390 388 385 403 373 412 384 427 360 399 398 391 344 365 386 368 355 364 358 373 355 327 368 332 341 340 380 366 333 367 381 398 336 381 355 362 363 340 363 312 345 356 310 346 340 337 348 341 341 375 329 362 346 349 321 299 325 349 320 369 319 320 313 279 304 288 308 354 284 319 309 296 322 301 310 305 308 319 269 302 316 285 359 280 281 311 295 318 296 260 308 297 289 297 300 288 317 296 289 328 304 312 279 300 292 310 299 309 322 331 291 332 306 280 304 311 286 307 311 330 313 337 323 304 334 290 286 328 359 296 323 313 315 309 327 305 299 316 323 323 323 322 311 299 292 333 280 334 309 314 338 330 302 322 308 362 314 339 327 349 363 298 314 337 313 333 343 341 313 301 365 333 312 313 357 321 343 323 297 360 329 318 324 326 335 340 301 333 289 267 337 303 343 313 316 329 285 293 320 325 334 279 305 304 309 294 314 329 316 321 287 312 329 322 321 313 333 305 306 315 331 296 325 306 321 326 311 342 306 329 311 309 319 355 336 316 323 307 328 346 323 304 350 321 308 335 350 320 316 322 299 330 342 349 335 321 334 305 329 326 350 392 323 326 325 322 324 314 333 343 322 372 346 360 396 353 395 401 408 362 392 415 437 462 537 518 496 542 578 609 544 603 647 634 642 635 652 606 632 574 595 634 558 567 567 604 550 600 555 538 532 531 517 556 469 537 519 480 449 434 436 418 418 423 397 375 379 395 348 330 348 367 337 357 340 313 330 311 338 325 351 326 321 300 323 298 320 282 319 316 290 256 292 320 295 309 282 303 317 334 297 323 298 302 288 356 301 310 261 305 313 320 291 327 295 284 280 311 323 298 326 309 343 261 317 280 291 301 320 326 318 300 270 278 307 305 332 294 327 332 287 291 314 358 300 337 312 287 312 304 295 325 316 310 311 304 337 332 347 312 337 306 320 328 336 314 304 309 287 327 289 298 314 265 312 297 303 336 341 319 277 286 302 299 327 303 290 299 298 266 318 273 294 314 313 322 312 292 353 277 273 303 299 333 332 317 335 341 329 332 310 311 299 339 338 324 331 331 334 311 314 303 309 298 322 343 311 284 311 310 334 314 351 321 302 311 330 318 335 324 303 308 329 340 314 296 312 328 293 292 323 281 332 329 379 322 321 352 320 300 316 303 329 288 312 327 325 319 351 317 304 308 341 327 278 306 308 308 304 325 346 337 360 303 326 315 340 266 302 272 322 313 280 290 331 329 326 349 318 316 353 356 349 351 299 330 346 338 349 386 328 382 374 359 389 418 376 370 362 367 359 384 373 396 353 346 368 336 367 359 345 339 351 354 348 314 325 317 330 300 357 316 315 311 332 304 297 318 308 281 310 309 321 305 336 286 272 316 310 289 346 289 286 315 302 329 319 339 334 293 288 347 307 312 296 295 284 306 319 290 283 292 285 310 293 314 296 322 320 332 293 325 271 308 290 301 301 296 296 283 272 312 288 297 317 299 332 278 310 269 319 280 285 301 302 301 279 301 271 291 321 328 295 301 275 306 289 293 306 278 347 291 309 315 289 285 311 283 306 296 289 292 281 275 309 299 335 321 299 305 282 273 295 304 278 309 319 299 298 291 301 308 324 328 291 297 274 277 329 265 305 267 309 279 280 281 314 292 313 289 324 267 312 334 276 286 303 317 307 314 295 300 282 307 297 306 298 310 307 304 314 302 324 285 299 297 289 299 298 319 315 315 293 328 291 322 297 317 344 311 304 333 345 351 345 305 358 347 353 333 334 285 361 298 352 348 318 335 380 352 348 345 309 347 338 346 308 318 301 326 293 298 337 307 312 320 312 315 326 328 326 250 301 313 339 298 280 318 321 295 327 311 288 301 305 315 296 295 283 322 323 285 292 317 312 295 320 291 271 272 326 299 300 297 290 315 275 339 286 313 281 338 312 296 316 318 298 347 294 314 322 307 340 330 339 351 320 318 316 292 303 297 325 361 335 334 304 289 337 319 268 299 317 287 328 317 291 316 298 327 300 293 308 332 318 301 326 314 333 327 320 307 308 279 310 333 313 348 303 296 327 343 308 333 291 309 299 316 311 331 327 277 357 329 348 366 353 353 333 321 349 397 393 386 393 344 388 361 405 370 396 395 364 393 354 397 397 378 384 360 364 360 345 380 324 370 386 372 376 395 382 355 396 374 352 376 375 370 361 386 380 390 420 376 413 377 440 442 483 480 461 531 523 570 528 571 588 650 598 705 713 719 701 722 729 796 742 708 733 678 663 630 687 618 660 640 644 631 618 541 629 575 580 565 557 574 570 576 541 559 567 546 500 506 487 473 490 437 395 470 432 398 404 413 403 418 408 355 393 357 379 357 355 356 371 389 348 352 325 320 336 348 332 356 321 339 335 340 303 330 376 359 340 344 359 381 339 364 307 321 317 295 347 342 348 296 324 308 335 353 367 327 335 356 337 316 313 326 328 318 316 363 311 360 351 327 336 345 367 323 311 316 347 345 327 348 323 334 342 357 345 339 362 356 357 363 345 346 343 335 328 337 337 344 381 333 307 351 327 370 349 361 344 298 335 352 346 368 343 350 375 353 328 384 341 329 318 335 347 335 324 331 333 345 362 318 392 362 354 402 373 346 333 368 390 392 396 432 358 451 428 438 418 452 411 447 467 431 475 496 519 475 434 500 467 473 466 448 463 478 494 472 458 430 464 427 431 503 444 507 473 471 484 537 504 559 494 530 537 553 537 623 603 651 662 650 721 734 766 815 856 878 998 915 942 951 1009 961 991 963 1047 951 918 912 899 879 823 828 785 766 801 793 799 729 763 763 760 778 776 741 681 661 734 675 701 648 588 570 570 603 547 580 578 476 491 443 445 435 391 380 384 423 391 358 394 404 386 319 353 373 342 351 296 347 323 334 287 385 310 371 348 350 330 333 330 314 331 341 324 302 343 313 299 358 339 332 279 311 314 315 300 324 336 335 330 334 314 305 309 348 312 323 308 293 289 324 292 298 294 312 297 334 304 305 288 308 310 335 321 322 319 294 327 314 296 330 302 293 282 307 328 311 300 305 350 300 301 311 326 330 298 332 317 322 246 312 318 261 287 311 324 274 296 327 293 326 289 279 301 306 296 333 313 276 319 313 350 351 323 347 307 322 348 340 336 310 321 341 335 392 348 351 374 345 344 368 339 349 360 370 356 347 335 346 346 354 358 338 347 359 358 350 342 333 353 350 319 333 344 322 317 323 359 328 326 325 318 326 326 319 321 345 336 294 327 320 346 321 274 313 317 307 320 325 290 340 308 290 323 292 315 322 315 301 331 294 280 313 327 318 296 290 272 317 336 330 285 282 332 294 306 322 331 336 346 323 351 297 321 283 307 319 307 355 332 337 364 352 326 346 379 334 361 348 395 339 377 375 416 379 385 385 359 405 371 411 432 386 392 454 403 422 430 372 401 374 430 395 435 426 425 392 387 362 373 428 389 377 383 383 361 382 378 381 371 360 316 362 334 364 328 326 326 336 346 334 392 315 324 305 331 328 324 300 317 308 316 322 282 316 289 287 324 281 295 299 323 321 291 336 299 293 284 304 288 295 297 310 283 306 285 304 287 291 294 281 285 307 301 264 314 289 288 307 296 304 313 307 277 299 289 299 297 304 329 282 314 300 277 281 315 293 280 305 322 297 288 298 295 316 312 289 313 291 314 329 300 324 291 326 295 305 292 310 306 289 319 313 294 309 328 303 338 333 282 297 319 343 316 299 336 333 305 273 290 277 289 333 280 288 302 285 335 315 311 275 281 312 307 342 295 302 292 305 314 280 301 318 299 294 277 269 272 291 264 287 292 285 307 277 297 272 279 292 303 268 291 302 303 275 302 291 261 306 241 300 294 267 294 297 286 279 256 256 270 293 276 315 299 306 282 265 301 260 267 284 299 296 268 275 290 271 274 298 270 264 301 282 317 276 326 295 288 275 283 296 268 307 269 315 313 304 294 261 264 284 306 268 296 244 321 260 323 298 297 280 291 279 299 276 293 290 288 277 279 279 314 269 296 285 237 288 339 264 316 283 295 269 281 288 299 317 273 311 280 318 296 312 292 276 300 262 307 246 298 318 300 292 310 290 325 281 312 307 288 263 293 317 279 275 322 281 311 305 286 331 312 338 309 306 347 323 299 294 332 302 288 296 323 314 327 312 322 327 348 360 335 328 354 321 367 340 394 362 359 365 407 349 346 329 351 357 342 339 320 328 311 315 344 315 319 332 338 337 299 319 328 322 336 331 295 304 296 326 313 317 328 326 309 308 307 327 296 289 291 299 275 326 289 308 280 284 276 290 298 314 299 292 273 300 308 283 280 287 272 265 259 266 304 272 289 275 306 282 277 314 299 269 265 288 294 281 300 246 272 290 291 315 297 304 309 279 277 269 269 279 303 323 271 320 286 292 279 293 285 295 290 312 272 331 261 319 311 284 278 322 280 271 283 308 303 305 294 304 301 306 324 296 330 267 303 280 307 281 306 288 318 291 324 331 290 310 297 288 300 305 316 353 323 299 314 347 286 318 295 316 319 300 324 322 349 328 312 338 300 341 341 352 358 332 334 329 320 332 321 316 315 334 291 310 302 285 298 316 300 307 310 292 291 295 284 330 287 317 305 280 312 294 291 293 285 306 326 281 318 298 302 289 265 297 308 293 301 266 273 246 292 276 280 312 287 317 276 289 300 316 295 281 308 331 305 293 288 298 336 280 304 312 318 291 303 304 293 268 285 295 306 289 313 328 303 315 321 345 300 308 305 303 313 340 343 301 332 348 359 369 393 399 432 383 418 458 437 452 476 544 515 567 542 570 644 670 688 638 706 709 780 735 767 766 740 727 729 674 699 658 632 636 643 663 587 594 600 549 552 567 501 607 571 567 573 568 539 569 536 564 568 514 537 515 541 540 505 471 469 516 497 452 431 448 402 406 418 387 374 372 401 352 358 341 323 371 352 338 331 338 309 317 306 310 299 346 326 325 285 316 311 310 323 306 304 316 308 318 291 268 299 294 308 309 298 325 304 328 322 314 319 324 319 272 326 308 298 301 288 288 361 314 318 296 277 279 284 274 302 281 301 293 297 289 349 314 318 316 287 288 299 301 290 260 273 293 275 310 288 283 291 313 267 295 302 270 288 284 281 281 266 244 293 269 309 317 281 280 294 302 279 309 299 289 279 268 288 266 300 294 286 269 302 306 315 292 324 278 314 303 315 306 300 294 329 308 306 296 295 318 307 271 299 306 316 299 300 292 292 261 294 309 325 295 314 313 306 277 300 309 303 304 325 307 284 326 308 325 305 314 299 300 328 296 275 327 330 303 310 353 308 322 313 339 283 301 298 285 306 339 308 327 340 314 335 309 293 313 302 344 348 317 326 336 295 269 302 304 280 299 307 297 274 320 277 267 305 297 294 273 294 299 308 321 277 286 282 282 300 315 294 280 293 283 316 289 324 285 280 273 319 278 268 271 273 289 273 272 275 289 305 244 248 281 270 265 242 319 249 286 276 297 271 272 261 237 280 249 262 261 271 264 257 260 248 263 273 229 279 247 284 251 272 270 285 298 285 248 297 296 244 261 293 266 277 250 257 264 226 265 287 256 259 263 249 285 281 293 273 279 276 242 286 315 244 245 293 248 298 256 236 261 234 265 264 306 245 264 235 267 278 267 238 279 238 244 233 280 257 282 257 268 265 273 297 268 292 258 258 290 239 278 290 267 263 290 265 262 244 261 243 245 278 262 257 227 258 290 291 244 282 274 274 274 265 276 266 270 292 269 243 242 256 271 258 317 274 286 290 277 271 292 266 277 247 279 261 273 276 289 276 290 273 295 225 262 284 290 235 274 298 286 306 247 260 264 288 284 281 280 283 276 259 241 288 285 258 282 280 269 273 262 279 240 289 246 291 264 265 287 289 256 242 262 244 292 244 290 261 245 267 288 292 276 246 287 236 292 286 273 284 259 280 260 266 271 267 286 268 285 219 280 251 229 270 275 243 290 256 266 309 294 273 257 271 266 268 278 248 296 284 272 244 259 250 264 259 272 266 235 286 256 249 237 230 265 265 288 241 290 232 243 275 258 274 270 287 241 232 284 282 285 266 282 241 290 250 271 260 296 257 290 262 287 268 238 284 270 276 285 281 284 302 307 269 277 247 274 270 283 341 275 265 277 264 279 263 292 268 274 242 249 318 295 283 305 277 245 284 235 281 285 286 304 281 297 302 299 316 303 309 303 320 305 333 293 330 344 342 348 335 370 390 361 351 384 333 398 384 376 373 386 394 357 381 398 391 351 350 363 365 374 370 351 342 346 346 326 352 345 321 376 366 333 392 361 354 390 334 407 406 341 420 355 391 348 402 336 385 409 381 366 445 335 384 392</counts>
			</dataPoints>
		</scan>
	</xrdMeasurement>
</xrdMeasurements>
