<?xml version="1.0"?>
<xrdMeasurements xmlns="http://www.xrdml.com/XRDMeasurement/2.3" xmlns:xsi="http://www.w3.org/2001/XMLSchema-instance" xsi:schemaLocation="http://www.xrdml.com/XRDMeasurement/2.3 http://www.xrdml.com/XRDMeasurement/2.3/XRDMeasurement.xsd" status="Completed" recordIdentifier="{0883F314-8832-4466-BF1A-D44B9A87BAF7}">
	<comment>
		<entry/>
	</comment>
	<sample type="To be analyzed">
		<id>GPSS_Li1p4Zn0p8Nb0p2Cl4_100825_68e6fdc007cf888582f941b3</id>
		<name></name>
		<preparedBy></preparedBy>
	</sample>
	<xrdMeasurement measurementType="Scan" status="Completed" sampleMode="Reflection">
		<usedWavelength intended="K-Alpha 1">
			<kAlpha1 unit="Angstrom">1.5405980</kAlpha1>
			<kAlpha2 unit="Angstrom">1.5444260</kAlpha2>
			<kBeta unit="Angstrom">1.3922500</kBeta>
			<ratioKAlpha2KAlpha1>0.5000</ratioKAlpha2KAlpha1>
		</usedWavelength>
		<incidentBeamPath>
			<radius unit="mm">145.00</radius>
			<xRayTube id="1010048" name="Empyrean Cu LFF HR (9430 033 7310x)">
				<tension unit="kV">40.0</tension>
				<current unit="mA">15.0</current>
				<anodeMaterial>Cu</anodeMaterial>
				<focus type="Line">
					<length unit="mm">12.0</length>
					<width unit="mm">0.4</width>
					<takeOffAngle unit="deg">6.0</takeOffAngle>
				</focus>
			</xRayTube>
			<sollerSlit id="21010002" name="Soller slits 0.04 rad.">
				<opening unit="rad">0.0400</opening>
			</sollerSlit>
			<mask id="22031000" name="Fixed mask 13 mm">
				<width unit="mm">9.00</width>
			</mask>
			<divergenceSlit id="22120001" name="Divergence slit 1°" xsi:type="fixedDivergenceSlitType">
				<distanceToSample unit="mm">50.00</distanceToSample>
				<height unit="mm">1.52</height>
			</divergenceSlit>
		</incidentBeamPath>
		<sampleMovement xsi:type="spinningSampleMovementType">
			<spinnerRevolutionTime unit="seconds">1.0</spinnerRevolutionTime>
		</sampleMovement>
		<diffractedBeamPath>
			<radius unit="mm">145.00</radius>
			<antiScatterSlit id="22090040" name="AS slit 9 mm (PIXcel)" xsi:type="fixedAntiScatterSlitType">
				<height unit="mm">9.00</height>
			</antiScatterSlit>
			<sollerSlit id="21020003" name="Large Soller slits 0.04 rad.">
				<opening unit="rad">0.0400</opening>
			</sollerSlit>
			<filter id="20030001" name="Large beta-filter Nickel">
				<material>Ni</material>
				<thickness unit="mm">0.020</thickness>
			</filter>
			<detector id="7010019" name="PIXcel1D-Medipix3 detector" xsi:type="rtmsDetectorType">
				<phd unit="keV">
					<lowerLevel>4.02</lowerLevel>
					<upperLevel>11.27</upperLevel>
				</phd>
				<mode>Scanning</mode>
				<activeLength unit="deg">5.542</activeLength>
			</detector>
		</diffractedBeamPath>
		<scan appendNumber="0" mode="Continuous" scanAxis="Gonio" status="Completed">
			<header>
				<startTimeStamp>2025-10-17T14:08:02-07:00</startTimeStamp>
				<endTimeStamp>2025-10-17T14:16:09-07:00</endTimeStamp>
				<author>
					<name>AutomatedUser</name>
				</author>
				<source>
					<applicationSoftware version="1.7b (136)">PANalytical Aeris Instrument Suite</applicationSoftware>
					<instrumentControlSoftware version="3.2.00000000 20240306">AERIS</instrumentControlSoftware>
					<instrumentID>950485</instrumentID>
				</source>
			</header>
			<dataPoints>
				<positions axis="2Theta" unit="deg">
					<startPosition>10.00943322</startPosition>
					<endPosition>99.99442286</endPosition>
				</positions>
				<positions axis="Omega" unit="deg">
					<startPosition>5.00471661</startPosition>
					<endPosition>49.99721143</endPosition>
				</positions>
				<commonCountingTime unit="seconds">12.495</commonCountingTime>
				<counts unit="counts">2706 2771 2736 2723 2825 2777 2702 2705 2761 2758 2759 2713 2707 2678 2718 2767 2751 2765 2756 2818 2582 2751 2721 2852 2775 2760 2754 2780 2659 2803 2687 2676 2754 2686 2777 2806 2791 2765 2657 2790 2718 2705 2699 2766 2693 2681 2627 2821 2822 2850 2721 2704 2800 2708 2713 2936 2720 2874 2785 2757 2750 2691 2765 2716 2769 2725 2677 2713 2765 2766 2683 2745 2687 2790 2831 2689 2772 2776 2741 2853 2717 2811 2672 2808 2766 2761 2724 2781 2805 2751 2802 2828 2780 2755 2753 2839 2787 2825 2778 2732 2808 2702 2663 2793 2795 2816 2710 2732 2844 2748 2744 2790 2785 2773 2769 2858 2832 2731 2864 2805 2753 2785 2684 2895 2815 2806 2897 2780 2877 2777 2749 2890 2808 2863 2885 2802 2734 2926 2757 2872 2818 2869 2826 2800 2851 2799 2931 2858 2907 2827 2812 2810 2750 2836 2809 2751 2837 2906 2811 2788 2903 2779 2879 2729 2785 2870 2834 2832 2825 2877 2804 2881 2791 2697 2755 2641 2812 2789 2857 2735 2742 2817 2813 2849 2873 2701 2815 2800 2799 2860 2790 2703 2693 2775 2834 2767 2741 2724 2664 2726 2760 2777 2753 2835 2757 2787 2836 2737 2835 2707 2814 2717 2730 2765 2747 2820 2714 2735 2604 2699 2665 2752 2718 2752 2728 2748 2644 2738 2765 2785 2787 2803 2658 2680 2776 2597 2720 2647 2739 2780 2721 2758 2729 2712 2671 2664 2685 2763 2606 2731 2676 2717 2725 2801 2658 2621 2801 2739 2740 2757 2767 2680 2701 2680 2791 2793 2710 2807 2818 2765 2681 2788 2689 2692 2750 2758 2752 2718 2697 2732 2705 2665 2753 2816 2654 2632 2694 2668 2745 2724 2738 2697 2715 2746 2818 2775 2719 2729 2740 2717 2666 2829 2810 2820 2797 2802 2845 2799 2673 2816 2809 2777 2831 2776 2819 2859 2814 2854 2870 2819 2821 2821 2939 2858 2953 2969 2848 2976 2972 2984 2958 3003 2884 2989 2950 3037 2949 2896 3108 3151 2996 3088 3098 3129 3063 3070 3029 3224 3295 3220 3227 3299 3382 3311 3430 3404 3433 3269 3443 3537 3374 3395 3377 3341 3393 3326 3253 3256 3345 3330 3316 3212 3169 3270 3155 3179 3281 3253 3069 3319 3284 3194 3122 3151 3215 3172 3106 3137 3146 3206 3117 3238 3166 3233 3198 3232 3158 3243 3226 3196 3244 3237 3100 3196 3194 3203 3237 3139 3121 3269 3286 3180 3266 3127 3319 3169 3278 3310 3173 3133 3155 3266 3173 3199 3219 3221 3247 3244 3287 3294 3200 3192 3226 3331 3235 3197 3254 3205 3091 3171 3175 3178 3258 3254 3208 3199 3217 3299 3293 3161 3280 3189 3217 3178 3148 3224 3175 3134 3225 3046 3283 3201 3205 3130 3125 3135 3162 3079 3113 3126 3019 3027 2992 3054 2946 2978 3090 3055 2977 2970 2974 3041 3034 3046 3038 2931 3048 3122 3142 3147 3086 3028 3046 3046 2990 3039 3028 2981 2958 2992 3094 2968 3016 3002 2943 2904 2994 3063 2952 2955 2869 2945 3010 3016 2986 3014 2925 2968 2983 2971 2908 2928 2848 2887 2925 2926 2893 2962 2916 2966 2959 2976 2930 2912 2889 2965 2976 2880 2964 2994 3005 2963 2977 3117 3023 3029 3172 3160 3105 3223 3195 3117 3121 3355 3241 3296 3333 3336 3489 3337 3613 3550 3555 3748 3634 3614 3611 3414 3510 3354 3408 3379 3252 3314 3286 3291 3240 3140 3115 3150 3163 3075 2998 3053 2962 3081 3088 3007 2980 3113 2941 3037 2949 2762 2867 2747 2714 2847 2881 2825 2849 2768 2634 2730 2665 2808 2708 2728 2743 2758 2716 2730 2537 2692 2660 2637 2663 2609 2619 2552 2698 2654 2647 2509 2599 2624 2665 2538 2564 2559 2636 2663 2711 2638 2620 2687 2642 2724 2636 2754 2675 2714 2695 2622 2725 2658 2743 2723 2774 2781 2844 2823 2859 2808 2946 2945 2993 2937 2951 2942 2988 3078 3100 3137 2973 3143 2968 3006 3204 3088 3233 3126 3295 3230 3155 3147 3105 3135 3008 3077 2961 3046 3020 2995 2856 2820 2770 2837 2742 2772 2703 2755 2785 2809 2705 2733 2582 2731 2678 2698 2645 2707 2666 2588 2706 2573 2668 2649 2594 2587 2548 2579 2504 2591 2515 2553 2673 2546 2641 2631 2608 2588 2604 2567 2566 2698 2557 2674 2616 2650 2672 2617 2680 2572 2727 2689 2654 2709 2569 2751 2713 2665 2692 2719 2690 2797 2753 2811 2913 2941 2964 2907 3184 3004 3050 3070 3202 3211 3245 3373 3375 3524 3573 3649 3729 3638 3719 3800 3919 4146 4035 4217 3927 3993 3822 3855 3649 3695 3487 3551 3332 3242 3259 3194 3161 3050 3026 3051 3111 3028 2987 3038 2909 3062 2986 2956 2872 2950 2901 2826 2808 2722 2828 2755 2781 2769 2731 2849 2771 2898 2817 2835 2914 2874 2820 2867 2836 2960 2823 2852 2774 2813 2771 2680 2727 2676 2700 2583 2670 2510 2658 2507 2499 2627 2675 2591 2504 2516 2699 2442 2472 2377 2482 2505 2477 2537 2439 2561 2389 2412 2340 2388 2400 2478 2353 2359 2425 2432 2307 2366 2413 2436 2379 2395 2402 2355 2294 2289 2289 2412 2443 2362 2409 2380 2392 2298 2490 2351 2332 2408 2374 2418 2378 2276 2312 2233 2299 2394 2424 2340 2376 2341 2345 2400 2431 2395 2226 2304 2410 2279 2411 2309 2267 2319 2358 2351 2426 2447 2323 2453 2441 2492 2483 2371 2464 2382 2450 2480 2441 2579 2516 2549 2640 2529 2651 2648 2698 2819 2724 2801 2790 2809 2779 2819 2731 2722 2830 2609 2733 2634 2674 2764 2580 2606 2582 2598 2629 2480 2519 2484 2469 2520 2435 2491 2370 2388 2431 2453 2413 2350 2315 2294 2384 2299 2345 2306 2219 2277 2241 2241 2249 2416 2400 2297 2255 2186 2303 2211 2230 2205 2233 2294 2200 2337 2237 2334 2247 2251 2210 2199 2120 2215 2129 2216 2242 2175 2230 2193 2254 2192 2218 2268 2252 2206 2265 2198 2263 2161 2119 2269 2319 2301 2219 2225 2200 2125 2297 2140 2223 2275 2234 2207 2323 2228 2204 2289 2298 2288 2204 2330 2202 2312 2250 2271 2213 2257 2186 2361 2263 2374 2271 2319 2281 2204 2277 2319 2294 2295 2391 2290 2278 2252 2280 2346 2286 2253 2385 2420 2292 2376 2373 2223 2258 2295 2296 2306 2242 2329 2248 2301 2362 2306 2350 2311 2308 2241 2310 2291 2312 2241 2310 2254 2388 2296 2288 2272 2332 2320 2305 2322 2273 2304 2406 2343 2516 2423 2316 2415 2363 2418 2417 2484 2461 2513 2418 2493 2488 2584 2473 2424 2478 2500 2359 2438 2448 2481 2427 2413 2474 2415 2384 2394 2324 2353 2386 2276 2404 2239 2325 2197 2252 2224 2200 2297 2273 2267 2258 2249 2140 2182 2139 2135 2176 2189 2069 2121 2166 2148 2144 2150 2059 2111 2134 2039 2136 2167 2119 2073 2077 2115 2125 2118 2101 2035 2129 2123 2108 2083 2134 2093 2113 2089 2078 2198 2133 2029 2139 2083 2184 2011 2163 2107 2045 2111 2079 2065 2005 1989 2182 2086 2093 1990 2009 2012 2041 2049 1922 1995 2016 2017 1995 2036 1982 2054 1989 1996 1976 2027 2037 2006 1965 2070 1998 1992 2004 2101 1962 2115 2033 2052 2136 2059 2177 2162 2124 2183 2128 2149 2108 2187 2183 2141 2173 2014 2104 2067 2057 2169 2168 2083 2016 2023 2170 1993 2043 2067 2062 1955 1990 1947 1930 1859 1867 1892 1823 1824 1902 1839 1812 1799 1809 1828 1826 1835 1875 1871 1766 1830 1866 1839 1807 1873 1857 1805 1764 1877 1849 1902 1879 1887 1939 1903 1832 1970 2023 1939 2132 2066 2096 2134 2028 2133 2098 2029 2070 2024 2098 2020 2016 1956 1968 1943 1893 1839 1920 1919 1838 1869 1794 1820 1810 1875 1741 1804 1759 1770 1742 1705 1746 1703 1759 1701 1679 1639 1677 1616 1687 1661 1612 1644 1705 1621 1665 1670 1621 1627 1629 1639 1646 1662 1671 1642 1677 1597 1654 1655 1570 1585 1589 1634 1587 1569 1640 1625 1569 1611 1636 1630 1595 1647 1665 1543 1557 1705 1616 1601 1566 1654 1638 1593 1615 1479 1503 1586 1530 1498 1583 1607 1613 1566 1509 1662 1584 1602 1537 1567 1583 1579 1518 1561 1520 1553 1596 1606 1588 1550 1663 1598 1632 1588 1574 1559 1530 1627 1659 1610 1654 1618 1563 1621 1646 1630 1634 1663 1717 1715 1701 1629 1719 1734 1692 1685 1742 1674 1789 1765 1802 1641 1664 1784 1738 1666 1721 1759 1650 1746 1709 1724 1661 1618 1749 1641 1617 1632 1680 1612 1590 1683 1622 1563 1571 1628 1574 1543 1648 1570 1573 1590 1608 1578 1654 1620 1596 1528 1553 1621 1554 1560 1578 1645 1567 1621 1497 1611 1621 1602 1650 1553 1566 1569 1567 1610 1656 1596 1662 1580 1651 1581 1591 1619 1548 1597 1653 1527 1577 1557 1555 1540 1571 1615 1537 1536 1518 1533 1574 1531 1496 1569 1550 1530 1567 1492 1532 1509 1550 1578 1483 1555 1515 1564 1522 1508 1492 1450 1537 1608 1495 1590 1489 1521 1526 1452 1520 1448 1537 1493 1530 1509 1435 1469 1450 1495 1454 1483 1542 1514 1535 1538 1487 1473 1417 1423 1453 1445 1416 1488 1525 1513 1590 1485 1494 1521 1506 1471 1585 1596 1569 1608 1583 1606 1644 1559 1681 1593 1672 1663 1664 1773 1782 1729 1744 1737 1787 1811 1844 1818 1890 1823 1840 1891 1934 1893 1898 1945 1916 2057 2005 2044 2044 2002 2018 2020 1923 1955 1876 1900 1780 1778 1740 1724 1765 1766 1677 1711 1691 1634 1727 1760 1697 1762 1731 1752 1806 1938 1962 2027 2011 2098 2128 2285 2355 2462 2575 2575 2654 2806 2933 3010 3154 3287 3388 3499 3651 3723 3879 3892 4126 4303 4203 4200 4005 3922 3888 3808 3701 3481 3344 3190 3135 2879 2859 2841 2774 2571 2579 2509 2479 2500 2476 2347 2406 2363 2347 2308 2309 2293 2389 2413 2256 2310 2273 2222 2237 2291 2220 2154 2035 1951 1981 1870 1802 1843 1712 1756 1666 1693 1635 1603 1551 1623 1580 1574 1531 1582 1576 1538 1552 1502 1488 1456 1451 1469 1564 1430 1523 1508 1547 1458 1508 1452 1421 1456 1397 1491 1436 1407 1459 1394 1498 1432 1460 1468 1444 1446 1451 1542 1445 1495 1511 1494 1541 1571 1556 1555 1618 1658 1691 1721 1683 1777 1879 2027 1972 1993 1852 1921 1994 2029 2104 2078 2089 2028 2061 2004 2133 2145 2107 2118 2078 2145 2164 2124 2095 2160 2225 2156 2145 2191 2185 2090 2020 2040 2063 1958 1969 1928 1825 1837 1720 1657 1623 1650 1560 1561 1464 1459 1371 1417 1287 1279 1267 1258 1262 1246 1256 1230 1266 1215 1198 1168 1165 1187 1145 1135 1226 1221 1166 1180 1207 1203 1178 1250 1228 1368 1265 1386 1416 1468 1504 1570 1539 1656 1635 1753 1798 1755 1804 1868 1841 1859 1883 1927 1942 1979 1925 2126 2029 1992 1969 2041 2094 2195 2110 2141 2164 2063 1976 1956 1926 1880 1770 1755 1797 1735 1651 1631 1552 1535 1530 1519 1486 1502 1472 1506 1492 1457 1555 1537 1494 1591 1579 1513 1484 1696 1562 1528 1652 1463 1616 1522 1541 1465 1363 1314 1350 1331 1316 1225 1229 1230 1189 1172 1154 1111 1169 1104 1181 1134 1114 1067 1102 1034 1092 1059 1111 994 1141 1092 1044 1021 1077 1036 1046 1119 1075 1041 1071 1104 1054 1124 1085 1074 1123 1117 1106 1146 1112 1136 1141 1150 1157 1219 1210 1261 1272 1280 1258 1307 1313 1281 1322 1362 1345 1368 1243 1439 1507 1445 1507 1601 1560 1688 1806 2004 1959 1993 2048 2150 2228 2328 2521 2641 2866 2978 3225 3179 3235 3365 3442 3720 3844 4003 3979 3999 4130 4081 4068 4011 4070 4110 3944 3958 3877 3627 3509 3282 3106 3026 2897 2774 2524 2341 2268 2145 2104 1949 1852 1851 1756 1656 1664 1525 1425 1436 1421 1305 1302 1265 1226 1189 1100 1093 1105 1056 1067 1004 963 1005 1035 979 996 990 955 940 961 937 962 970 922 947 932 956 960 935 1005 1041 953 1043 1106 1088 1041 1154 1077 1128 1244 1155 1210 1234 1282 1301 1369 1352 1401 1423 1506 1509 1598 1565 1664 1613 1724 1713 1713 1721 1688 1518 1665 1494 1486 1486 1422 1318 1253 1258 1184 1218 1166 1178 1095 1079 1106 1164 1064 1051 1067 1053 954 961 1022 891 943 903 895 848 865 877 855 864 861 853 879 840 839 860 858 832 874 813 815 882 813 792 824 861 899 849 873 878 905 959 877 874 890 871 847 931 871 914 843 839 817 881 825 841 826 793 889 823 804 849 810 766 830 806 766 844 786 779 809 746 794 763 783 761 751 780 759 763 803 840 815 758 730 785 781 787 793 794 780 725 762 743 754 729 795 732 736 751 727 752 728 734 736 729 730 729 706 725 725 716 744 707 770 758 724 757 709 740 753 703 686 723 713 704 709 745 735 698 707 727 757 796 726 802 717 750 784 714 758 764 729 787 798 750 721 762 758 790 779 759 774 700 726 774 741 798 753 796 759 761 791 818 785 773 811 775 811 792 839 868 903 921 916 936 923 1015 979 983 1004 1021 1077 1104 1068 1159 1185 1225 1212 1276 1304 1297 1267 1331 1430 1398 1442 1480 1550 1633 1669 1694 1695 1840 1803 1814 1822 1811 1772 1860 1772 1934 1635 1624 1548 1426 1369 1362 1298 1206 1175 1142 1029 1108 943 1013 868 900 855 890 843 854 914 849 812 754 833 784 786 749 794 807 737 801 776 721 779 718 788 755 770 781 680 761 681 817 762 679 709 730 675 690 695 673 725 761 699 697 690 744 662 727 637 671 685 738 700 678 675 707 657 647 707 653 725 734 696 712 733 707 718 761 696 682 736 716 732 783 770 758 780 785 754 789 842 817 863 877 891 893 887 956 962 975 984 946 997 959 999 947 1035 1055 1024 1119 1051 1101 1128 1096 1114 1066 996 988 975 922 973 946 877 802 831 857 845 774 826 797 772 693 727 775 714 703 673 640 686 681 698 689 676 691 677 628 643 633 660 665 671 665 584 660 629 655 626 629 662 667 636 624 652 633 643 605 725 643 634 694 697 687 678 634 645 601 709 639 663 616 637 669 711 680 741 606 680 695 686 767 691 710 696 739 717 708 681 697 765 745 755 721 708 709 709 682 709 699 660 694 642 700 660 612 645 665 641 624 619 710 624 648 692 613 619 636 627 686 636 663 600 669 676 689 612 638 661 666 659 676 676 668 714 646 719 636 710 696 716 744 727 700 735 689 703 723 673 713 694 733 730 758 696 668 688 695 667 663 682 700 743 738 692 739 743 779 756 779 762 763 743 795 810 840 830 871 802 867 848 834 898 910 863 909 857 839 902 877 873 856 800 775 856 798 775 717 784 753 730 726 668 741 684 712 728 668 649 634 706 694 630 659 635 599 676 703 683 633 658 627 662 651 622 668 697 635 647 707 639 669 670 671 672 693 632 676 743 726 728 737 747 761 732 781 764 750 775 739 783 772 754 742 733 673 728 695 743 763 737 784 788 777 772 794 812 779 752 709 756 780 726 732 725 661 664 698 706 691 632 645 648 679 674 604 644 597 582 640 636 584 638 640 542 604 629 601 626 566 606 632 595 552 538 591 604 600 606 555 561 538 615 552 609 599 583 533 587 612 582 567 591 568 582 547 554 619 573 641 648 556 570 617 581 618 599 601 581 651 637 609 602 674 574 622 650 602 610 624 678 722 752 695 672 692 681 736 719 657 703 651 668 666 633 681 636 658 639 644 647 624 657 642 602 630 603 618 625 607 590 671 594 661 617 601 670 677 630 661 648 654 607 640 674 647 656 675 689 688 692 691 711 718 748 684 770 779 771 800 832 863 823 935 892 891 880 972 962 1000 1052 1075 1039 1133 1125 1071 1081 1057 1092 1105 1068 971 1035 980 993 970 929 946 865 869 892 782 806 798 775 824 726 736 703 671 663 688 694 640 649 693 630 645 616 638 647 587 581 582 635 578 565 576 611 585 559 604 607 561 595 603 609 576 616 586 574 576 578 571 525 544 571 547 594 532 567 520 552 525 552 542 511 504 591 550 494 565 532 509 560 559 538 553 534 506 530 564 587 548 536 597 551 556 568 610 564 598 622 623 582 563 583 577 599 576 575 568 604 616 570 587 579 526 541 524 537 531 545 592 527 575 543 598 538 552 565 536 594 591 595 611 582 569 572 597 606 623 628 612 584 671 616 650 676 715 707 804 722 737 696 744 719 670 733 700 762 759 696 749 701 754 763 665 700 752 691 726 693 722 692 674 692 700 752 743 708 748 703 753 726 771 742 725 724 746 699 720 733 712 716 722 673 688 705 693 703 652 726 654 712 685 672 687 637 639 673 649 631 639 618 613 590 578 588 612 572 584 555 540 594 539 589 544 550 524 537 580 554 508 520 549 528 513 488 517 550 528 508 528 527 527 523 522 519 538 516 511 485 545 480 567 521 531 520 521 547 552 565 591 595 579 588 596 609 646 605 629 596 691 639 640 656 679 741 727 728 727 745 777 765 799 785 782 785 847 848 798 786 805 713 828 799 789 715 774 729 707 703 688 734 672 696 716 637 649 641 636 602 638 664 694 611 640 675 669 700 706 706 649 638 638 674 629 632 637 666 649 586 598 588 553 555 585 565 568 535 514 554 569 562 553 580 534 577 534 520 561 498 562 562 543 541 586 574 604 563 588 565 602 602 609 618 643 601 642 637 654 582 619 674 637 647 674 732 684 718 688 633 739 784 691 647 697 648 650 680 615 683 706 613 621 636 602 615 589 589 604 595 616 576 549 566 505 527 510 520 500 519 532 564 513 496 510 480 474 507 548 500 526 527 541 552 511 504 575 549 526 472 549 516 559 534 583 572 594 573 569 564 598 623 609 618 589 625 584 610 597 616 602 546 564 607 603 629 591 573 572 553 587 590 561 579 599 539 548 529 556 565 640 603 553 541 552 547 560 536 551 529 519 551 551 611 564 618 573 550 567 557 561 546 571 560 571 581 560 585 580 574 587 563 586 585 608 606 591 620 645 622 586 615 670 629 690 637 677 613 627 622 656 650 641 585 619 657 635 583 633 569 560 577 645 619 602 609 638 629 580 578 580 575 570 601 638 581 612 643 612 639 608 654 656 633 621 644 602 617 592 579 587 630 541 596 552 577 547 574 514 535 540 542 497 536 514 524 551 540 475 514 484 490 528 474 530 457 460 511 482 484 470 501 480 477 510 440 509 495 467 474 455 474 473 517 449 496 500 446 514 490 492 496 480 484 516 517 522 510 546 505 500 529 501 499 536 539 516 527 564 565 563 567 566 598 633 619 631 572 690 689 714 749 761 730 803 796 835 831 862 862 850 847 850 839 921 856 902 913 976 974 1023 964 959 980 947 1001 966 904 921 938 938 991 997 989 987 1005 881 958 936 867 897 906 917 962 942 922 914 937 967 942 930 900 964 936 852 880 874 900 801 790 814 780 713 784 779 787 756 706 739 701 676 661 702 666 647 664 605 629 606 592 589 637 606 587 564 591 604 591 560 596 546 553 575 514 544 606 554 579 558 559 600 606 568 587 565 625 608 636 689 721 662 715 707 719 760 755 756 803 831 873 907 878 981 998 1048 1019 1032 1114 1208 1192 1282 1295 1352 1409 1350 1420 1375 1467 1515 1602 1678 1749 1765 1775 1840 1815 1885 1738 1828 1724 1709 1539 1517 1498 1420 1445 1431 1332 1357 1318 1321 1246 1145 1166 1194 1097 1001 1058 913 876 833 904 808 928 823 812 777 779 760 742 731 747 757 656 740 688 686 715 663 661 659 633 648 602 715 714 689 653 645 684 681 681 713 705 669 695 703 729 717 773 764 716 783 740 829 831 814 816 760 765 764 806 830 801 767 745 776 779 721 838 792 764 751 772 780 704 717 678 660 632 608 607 581 614 609 607 586 590 496 549 580 522 541 568 555 502 500 479 480 519 499 451 488 471 486 484 484 490 519 501 474 493 548 499 474 493 474 461 516 464 512 513 445 481 449 428 482 495 475 458 472 434 415 448 461 460 493 471 452 473 455 448 450 458 456 488 471 450 472 491 498 487 513 504 521 515 538 511 531 517 557 562 560 521 509 535 508 483 554 511 533 519 582 527 502 532 427 487 499 518 550 463 508 481 510 492 446 453 507 462 486 483 498 474 519 494 456 502 458 451 461 457 467 445 474 464 502 473 468 473 501 476 502 487 468 514 488 504 493 479 465 490 484 517 472 483 560 462 517 498 486 460 535 483 565 490 533 498 488 508 547 517 523 546 549 580 540 573 548 551 558 593 608 577 588 577 595 591 564 541 620 573 558 566 571 595 567 607 543 527 523 570 586 547 531 533 570 506 534 514 520 483 524 467 525 476 483 484 457 516 502 508 507 518 515 497 526 500 511 560 558 516 537 537 539 523 549 550 556 567 574 615 583 589 589 647 615 644 609 666 689 707 721 760 789 835 875 917 902 994 1088 1168 1179 1153 1239 1331 1320 1347 1544 1498 1684 1658 1738 1800 1928 1890 2018 1986 1983 2005 2021 2039 2015 1814 1921 1779 1752 1756 1695 1682 1654 1566 1574 1470 1433 1387 1370 1260 1123 1133 1055 998 974 934 888 912 813 789 822 752 738 699 689 702 709 644 622 564 632 543 597 583 553 553 502 545 560 522 532 516 515 531 519 509 500 541 492 474 521 487 499 511 475 518 532 480 465 469 429 502 466 471 440 462 446 443 448 462 459 450 467 476 412 455 433 478 448 398 419 440 405 388 404 434 432 439 448 396 410 458 408 394 439 391 419 363 445 437 399 413 443 405 408 428 439 411 425 437 375 425 435 423 402 451 440 438 433 478 410 429 420 480 428 438 455 392 416 444 418 462 476 498 425 504 514 510 501 467 483 470 496 427 471 460 486 458 524 450 480 459 465 426 445 454 428 477 472 462 442 427 437 447 405 422 477 405 442 434 451 435 425 380 427 462 433 459 430 413 410 433 418 426 430 416 453 430 453 442 428 428 448 438 431 406 437 448 403 440 437 438 481 439 440 403 447 452 424 404 424 422 421 432 405 416 428 434 422 429 402 440 390 417 463 464 447 446 415 413 404 364 407 378 366 401 396 382 366 417 395 375 403 374 397 371 408 340 405 395 412 422 414 417 395 425 441 421 427 381 431 433 437 457 427 455 458 451 395 455 457 466 479 443 442 450 464 502 462 444 420 422 451 488 445 433 459 476 442 396 405 403 417 408 391 400 402 361 395 415 419 389 349 387 376 395 407 395 383 389 363 369 366 384 367 386 372 396 372 382 380 373 382 420 378 364 381 403 400 387 381 404 394 418 373 383 390 413 412 448 409 424 422 403 409 394 400 392 416 427 420 404 447 413 448 495 426 473 455 465 508 505 453 488 502 511 501 490 561 507 506 538 591 545 534 575 577 581 611 545 587 575 545 575 621 574 618 590 568 593 610 601 631 576 625 592 563 578 544 546 617 550 536 533 537 517 509 548 527 509 511 460 463 473 520 453 463 424 463 470 453 441 469 510 462 451 445 480 484 453 444 520 464 503 521 506 514 536 516 559 532 574 582 555 578 571 586 590 539 597 619 613 633 650 633 675 638 689 674 650 677 636 654 658 595 597 599 573 560 559 541 612 592 576 587 593 546 585 534 543 529 498 522 515 526 522 529 514 510 483 526 515 476 527 493 491 482 478 484 464 464 510 473 516 473 467 515 456 511 477 459 473 477 467 501 487 506 509 452 514 511 484 487 485 539 548 552 600 529 546 547 592 580 565 568 567 556 588 599 579 572 623 618 630 572 602 649 623 622 618 648 576 590 597 617 643 627 643 641 632 615 695 706 657 694 663 754 732 731 707 708 745 807 733 768 767 688 746 685 691 722 699 658 690 683 720 703 699 696 700 666 648 666 661 603 582 631 632 555 536 565 518 558 536 492 509 471 475 489 513 478 469 456 472 470 457 470 478 451 469 446 454 490 455 458 463 479 459 522 452 500 455 477 481 504 491 471 473 540 464 472 457 462 481 503 486 473 477 455 482 434 496 485 454 443 479 463 448 496 415 445 417 438 465 437 436 451 451 457 447 437 459 440 472 397 415 408 369 404 392 378 416 382 381 402 405 376 368 409 379 366 322 357 356 371 372 366 357 367 341 336 352 341 322 348 348 352 340 362 367 376 343 336 362 336 346 364 341 357 354 345 391 389 387 398 388 367 391 377 404 345 351 351 371 329 361 370 358 357 323 322 360 309 350 354 346 307 337 356 333 367 328 334 327 356 337 362 323 322 330 344 339 308 307 318 307 311 320 323 346 363 329 310 313 340 311 340 347 321 324 326 324 328 316 345 333 353 330 315 354 337 335 368 279 373 355 362 329 313 327 332 344 390 377 337 355 360 331 387 363 367 337 368 356 403 384 379 365 359 375 406 402 407 397 407 438 449 495 488 478 456 505 545 487 513 521 533 458 461 458 473 486 499 467 463 482 489 513 474 489 446 438 451 455 439 416 400 448 415 381 402 425 362 366 350 381 362 380 360 343 361 338 351 333 372 339 338 329 318 344 348 346 318 339 320 331 317 349 331 313 346 355 313 353 364 334 360 338 356 312 318 349 318 336 309 340 337 319 350 313 299 303 315 320 310 342 328 329 330 312 298 311 330 311 298 298 352 337 335 317 304 354 329 278 331 316 283 342 313 327 349 302 330 326 324 339 359 328 339 340 352 338 329 376 364 362 362 338 388 391 343 353 386 395 397 369 359 374 350 380 345 330 352 360 344 313 329 358 355 326 364 352 324 315 325 372 360 334 313 324 349 321 361 359 337 313 355 327 319 382 372 333 303 366 352 413 391 394 364 375 395 382 392 407 414 390 431 416 424 428 480 430 426 471 459 498 442 458 467 481 444 489 413 473 418 439 427 415 458 457 472 450 388 408 422 395 420 383 388 412 328 390 383 343 362 369 339 378 368 340 362 357 336 343 354 357 324 356 345 346 392 313 350 359 330 325 343 341 316 310 339 310 322 315 328 322 339 323 316 324 339 313 322 344 354 375 304 334 394 354 370 335 367 320 352 374 369 362 324 370 361 345 343 308 350 316 345 349 336 327 348 309 345 304 369 302 311 324 335 332 313 321 322 346 329 351 331 354 374 340 344 383 373 335 350 376 367 380 355 368 400 345 365 345 348 389 334 381 379 393 389 404 358 331 351 322 373 364 368 369 374 351 357 360 336 337 347 378 373 388 352 323 344 360 330 335 357 352 344 358 347 361 328 354 298 321 333 330 326 312 306 327 333 294 325 308 331 360 318 320 294 335 299 304 344 306 312 292 335 333 320 327 321 292 280 293 295 313 287 309 315 327 309 312 329 294 275 313 340 322 306 309 319 317 286 286 296 306 308 295 291 290 302 281 281 279 307 296 298 279 311 313 276 293 311 266 307 285 299 304 306 301 266 310 282 273 276 286 295 302 297 342 294 293 282 266 278 275 268 283 268 298 293 296 284 285 320 286 276 267 292 277 310 294 311 310 272 249 286 290 281 269 290 287 272 299 288 298 286 308 293 303 309 288 305 299 282 306 314 294 286 293 304 284 307 281 325 296 296 326 310 311 308 311 307 274 299 251 317 265 240 283 322 304 314 287 272 307 286 275 295 299 275 269 292 293 307 297 282 291 279 293 279 290 286 288 295 279 309 283 285 266 296 296 277 279 292 281 275 305 296 289 301 279 276 289 306 297 286 296 339 297 305 324 311 284 347 292 310 299 281 307 314 318 327 334 309 330 328 340 273 312 274 315 301 298 291 291 298 307 339 321 301 281 310 323 303 316 315 342 340 331 323 325 323 334 345 314 301 308 319 285 318 297 295 290 324 314 318 332 327 315 326 306 357 334 296 284 327 299 286 304 300 304 275 333 259 288 293 290 297 315 302 278 287 267 275 302 270 298 289 280 264 274 287 289 308 290 319 314 278 249 288 289 292 286 278 313 287 312 281 292 297 281 308 304 279 297 300 299 304 309 314 334 324 300 320 300 324 359 362 355 353 325 377 331 321 344 349 354 357 336 398 350 364 364 348 363 368 340 333 362 340 347 340 338 337 343 297 303 319 301 304 299 300 294 316 305 327 301 283 284 308 289 284 295 300 276 313 247 287 317 288 322 302 332 260 319 271 273 259 285 315 292 264 298 267 295 289 293 275 264 295 286 306 307 270 278 293 293 299 270 293 285 292 281 302 328 312 316 320 341 290 316 282 299 285 318 289 353 315 332 312 306 331 344 335 308 318 305 343 291 296 301 312 308 325 290 304 284 296 308 297 300 274 291 293 291 279 292 280 299 338 265 296 260 297 246 256 285 295 274 274 273 250 249 302 259 248 269 236 250 287 274 289 278 247 278 249 311 268 298 257 268 282 278 278 280 247 282 278 291 231 273 261 257 283 299 256 266 267 257 273 273 285 262 278 288 274 289 267 285 276 256 276 273 307 298 275 276 267 277 271 319 271 282 273 267 236 266 286 288 288 304 274 275 249 271 270 277 232 287 274 295 268 239 261 251 272 294 263 288 264 246 293 293 244 265 258 271 285 258 308 258 270 260 245 258 297 249 280 292 300 274 268 271 267 286 285 265 259 278 289 271 282 240 270 285 248 244 244 274 272 282 238 291 281 277 278 280 318 305 310 272 325 287 286 299 262 300 280 327 271 299 317 308 308 295 314 330 312 325 365 321 304 339 331 351 329 328 343 326 316 357 354 353 342 298 337 360 361 335 349 315 336 334 331 334 344 338 339 364 349 316 316 314 350 376 288 344 338 331 350 354 330 350 338 319 313 290 292 300 311 296 334 317 308 335 318 332 271 293 291 319 304 298 336 300 317 292 295 265 281 302 323 256 290 287 313 297 328 298 275 325 282 271 299 319 272 303 305 283 309 294 310 340 324 348 317 292 315 333 316 341 302 339 315 357 317 297 297 294 317 354 289 332 318 311 294 325 241 308 322 288 348 321 313 312 351 324 340 362 336 281 342 306 329 330 322 358 341 319 302 344 307 303 338 306 317 298 299 367 345 313 323 336 332 324 301 335 340 329 345 343 338 326 337 351 323 347 328 326 329 343 363 347 322 318 372 380 337 380 424 388 364 389 400 434 402 362 390 403 401 426 457 434 435 440 464 447 444 403 467 446 436 470 508 471 444 431 424 485 531 469 500 498 468 474 487 435 480 462 436 420 422 429 419 388 372 378 425 370 358 354 391 378 353 368 346 362 346 320 309 336 312 286 325 289 307 301 298 302 274 333 292 271 292 295 282 299 309 285 311 266 290 304 264 292 270 298 296 288 297 268 280 265 268 277 290 298 267 281 299 281 289 284 260 286 275 286 282 282 298 303 290 262 318 284 278 263 271 285 256 292 280 260 265 299 275 249 287 263 281 293 246 279 276 285 292 274 243 299 321 293 296 250 315 296 328 283 270 263 268 280 287 288 244 268 246 285 301 278 289 300 285 292 288 300 280 263 267 288 288 277 282 284 307 295 280 272 292 336 307 298 294 285 273 301 319 250 290 279 287 294 305 296 300 263 314 314 262 305 266 309 276 324 303 309 287 275 282 260 327 246 292 276 299 266 267 262 294 243 282 284 271 270 284 232 256 281 284 244 302 290 269 306 265 283 289 262 248 273 263 290 282 286 278 262 273 275 289 293 281 276 271 284 287 289 267 269 285 274 267 230 263 260 284 263 265 293 279 286 285 258 278 240 264 298 304 273 301 257 262 266 282 303 291 306 275 293 283 284 276 296 316 306 314 291 316 306 300 304 284 306 329 352 373 317 354 360 338 324 351 337 343 365 356 338 332 336 334 357 301 330 313 357 302 330 333 339 339 346 338 304 309 314 331 299 317 296 334 336 343 303 310 352 305 342 332 306 290 305 335 349 349 338 354 342 339 296 319 331 330 388 320 361 326 323 356 344 351 326 371 329 313 334 319 317 349 321 350 355 336 337 312 343 332 350 345 331 329 342 342 325 293 324 337 294 285 331 309 291 329 299 292 308 298 296 303 289 321 341 278 310 288 304 313 320 309 317 324 299 352 301 331 306 297 316 334 333 334 280 317 313 303 288 313 303 315 290 316 296 330 305 308 316 312 335 320 271 270 280 300 293 313 301 337 320 285 297 248 275 339 273 301 319 303 285 311 302 281 296 267 289 307 275 278 274 291 281 331 325 332 319 315 288 316 315 311 295 367 337 337 320 320 335 331 320 316 335 337 350 343 357 331 365 331 312 353 350 323 336 343 327 352 330 351 362 354 349 366 359 381 354 349 371 362 339 366 393 376 409 386 350 391 378 366 364 424 373 358 393 378 367 361 337 372 364 378 344 389 345 361 369 365 393 348 350 365 336 361 366 360 336 393 362 344 353 375 346 351 371 375 355 346 400 384 340 327 381 350 364 360 367 362 395 386 394 353 389 401 361 392 412 390 438 416 378 399 379 368 379 350 372 360 331 360 410 374 371 363 346 353 346 318 338 335 352 322 312 320 345 322 317 324 334 326 345 332 301 327 309 312 299 293 310 282 292 300 280 274 287 292 333 294 282 277 290 269 308 276 294 286 279 296 290 277 302 303 259 304 287 275 262 248 260 277 277 259 323 259 291 283 282 269 280 257 248 296 250 278 271 285 284 262 269 287 306 319 297 288 288 303 290 322 281 244 283 292 292 281 302 286 303 308 246 289 285 296 309 287 314 306 317 283 332 339 302 304 280 334 268 292 327 301 342 306 335 331 308 302 347 312 338 303 300 307 328 287 340 314 294 326 315 314 311 307 286 289 339 314 301 322 325 342 328 286 306 315 318 320 312 343 309 308 278 294 320 346 314 313 327 322 304 324 298 321 323 304 329 299 279 294 325 316 290 285 299 322 322 310 345 312 338 286 292 300 324 296 317 293 311 313 339 296 331 347 295 320 291 357 345 300 345 318 312 318 319 349 349 340 310 320 316 314 307 315 300 322 324 316 323 338 342 311 290 341 299 344 339 317 296 311 287 329 300 300 279 298 305 258 291 299 262 277 282 282 265 297 282 293 297 291 304 299 311 300 299 327 316 297 339 292 306 281 335 297 340 310 342 351 348 346 330 382 332 366 349 333 330 355 352 354 363 382 354 336 312 340 330 343 326 330 318 340 336 359 320 356 353 367 349 358 343 321 322 286 354 285 303 283 307 312 301 296 292 315 320 340 317 294 289 303 277 265 280 302 307 287 297 289 278 280 303 270 241 311 265 260 268 243 280 277 314 246 239 269 283 245 231 309 301 265 265 285 270 266 267 280 263 291 259 261 263 280 220 268 267 306 243 304 264 258 243 247 229 281 289 268 274 271 273 266 271 249 307 288 286 277 243 281 299 264 335 305 299 267 266 270 288 300 282 272 268 280 260 285 292 288 283 331 249 300 284 282 302 293 282 272 266 307 274 237 289 301 275 293 301 294 292 264 306 290 273 283 259 303 283 293 257 298 258 294 260 295 271 269 275 241 286 279 318 290 282 290 266 275 262 279 266 266 259 266 297 267 286 276 277 282 261 240 262 265 245 262 248 259 224 237 293 267 226 282 258 260 257 264 222 250 222 264 267 229 258 263 282 249 234 248 274 257 238 245 237 233 224 237 277 270 250 228 221 265 270 235 260 262 268 261 237 261 237 249 203 233 229 236 287 295 246 262 238 267 256 260 238 257 228 265 248 250 239 260 238 246 266 281 232 223 278 244 262 267 245 244 262 248 286 261 245 246 271 310 235 243 264 250 270 270 259 278 296 257 267 241 245 262 268 272 280 258 268 249 248 242 270 283 278 266 268 285 246 275 293 281 273 289 269 273 293 278 270 260 260 267 317 285 264 262 281 284 275 275 303 286 294 304 270 290 295 271 333 276 282 282 267 265 279 257 290 292 233 244 248 243 272 273 245 207 239 250 240 259 247 287 281 284 307 239 244 276 260 275 259 241 242 237 261 240 238 263 233 248 247 283 241 261 275 270 268 246 238 263 249 214 246 288 235 297 273 274 259 228 263 278 288 315 232 276 286 250 268 263 280 240 270 270 286 273 267 288 294 297 268 247 272 269 272 258 260 232 283 241 239 266 280 278 245 287 292 290 273 274 328 285 265 279 315 299 262 302 295 297 323 289 294 290 296 304 288 326 259 259 281 267 267 279 281 278 265 278 282 293 288 328 286 280 305 314 288 275 269 320 302 260 275 250 300 287 286 280 299 291 308 269 306 283 286 283 249 243 244 293 251 286 277 262 284 289 244 240 244 322 271 256 266 263 261 259 242 243 234 263 283 262 260 218 266 259 242 269 268 237 250 264 273 244 287 256 235 284 259 259 258 230 286 274 266 247 244 243 270 250 222 264 271 237 286 240 293 274 274 242 271 265 264 230 241 261 288 236 276 269 284 273 245 235 242 279 280 263 273 259 275 268 262 245 289 272 287 267 296 280 293 272 272 297 280 319 277 285 243 247 293 268 279 279 258 291 286 264 270 267 304 245 264 285 289 303 247 283 304 277 266 299 304 277 263 267 265 287 288 266 260 258 294 286 265 274 268 273 312 302 316 265 334 279 300 307 320 298 328 316 326 301 317 339 319 338 337 318 300 328 335 350 365 327 303 308 319 317 335 306 346 344 307 317 298 316 320 336 322 296 288 295 310 317 330 271 305 313 298 288 311 319 300 296 318 302 320 336 308 301 303 326 293 314 328 315 350 355 337 311 304 376 344 334 306 327 340 307 322 319 301 319 329 302 284 292 290 282 299 326 286 314 298 301 334 317 357 317 332 296 321 307 344 318 316 299 286 307 304 317 315 282 276 287 292 308 286 288 286 297 281 265 297 293 270 307 268 299 260 324 301 305 317 294 286 292 296 286 304 312 267 339 348 297 310 307 305 315 343 288 322 311 308 321 303 315 286 292 313 325 325 311 299 335 285 327 287 290 296 325 287 278 318 322 300 328 320 310 313 300 330 299 332 335 338 310 349 288 317 298 298 325 318 312 337 343 324 316 331 304 319 325 298 341 319 301 281 298 312 287 287 316 302 320 340 348 309 332 304 323 286 312 314 328 338 320 323 342 283 331 334 307 339 306 331 289 318 321 321 309 296 313 320 343 328 289 300 305 295 318 298 293 295 305 306 298 296 268 297 279 278 347 278 270 319 279 313 271 298 287 278 310 271 309 295 284 293 313 295 289 280 307 285 311 291 307 295 340 283 290 310 280 326 304 285 286 307 314 318 334 325 325 359 332 359 329 319 312 355 324 315 348 354 366 318 371 325 404 384 341 368 333 348 362 382 389 354 424 362 417 385 403 400 419 421 415 414 439 374 387 413 399 445 394 416 378 423 381 374 379 388 360 390 348 428 335 360 364 342 368 380 347 328 396 329 345 342 348 310 374 337 340 333 303 310 309 301 291 304 331 350 333 346 290 320 299 298 296 306 297 307 294 291 282 246 274 257 268 275 266 290 283 247 266 261 257 271 272 246 268 263 238 265 246 264 245 259 270 241 226 275 223 283 260 239 270 242 268 247 261 265 280 239 249 235 248 247 256 266 242 238 264 268 269 240 276 238 243 239 262 243 245 235 230 257 232 284 249 265 267 246 263 284 257 229 248 279 236 233 262 239 270 231 281 261 261 242 239 274 228 275 243 260 282 237 225 239 262 235 290 274 278 265 292 246 260 236 234 269 224 242 262 257 266 248 244 226 279 228 244 267 266 283 250 258 261 259 241 243 277 283 239 263 236 231 288 239 273 242 265 243 236 237 260 266 243 257 278 232 297 289 287 226 259 230 279 250 270 251 228 263 237 275 243 265 223 271 260 240 268 258 275 227 238 259 297 258 216 285 278 248 222 274 250 289 267 272 267 266 306 249 261 270 301 299 265 291 291 287 271 284 291 271 263 290 251 266 242 275 293 273 289 287 282 249 270 285 295 286 261 271 269 272 294 294 265 289 304 263 273 298 283 273 279 286 304 290 295 274 268 281 273 247 257 268 238 270 260 279 230 235 248 219 276 266 294 258 251 242 234 249 275 284 244 270 242 245 273 244 270 282 283 268 226 264 279 274 245 250 266 258 293 260 284 246 266 278 293 287 291 310 256 284 243 271 295 263 263 265 293 286 302 266 268 282 271 259 287 247 313 278 292 265 275 259 269 273 284 278 291 269 291 275 310 275 267 265 293 336 280 293 281 283 271 273 273 274 274 283 267 298 246 296 273 284 308 303 301 328 322 294 292 268 296 302 289 298 244</counts>
			</dataPoints>
		</scan>
	</xrdMeasurement>
</xrdMeasurements>
