<?xml version="1.0"?>
<xrdMeasurements xmlns="http://www.xrdml.com/XRDMeasurement/2.3" xmlns:xsi="http://www.w3.org/2001/XMLSchema-instance" xsi:schemaLocation="http://www.xrdml.com/XRDMeasurement/2.3 http://www.xrdml.com/XRDMeasurement/2.3/XRDMeasurement.xsd" status="Completed" recordIdentifier="{AC90C6EC-AF60-49A7-8756-8EF8AE3B35BB}">
	<comment>
		<entry/>
	</comment>
	<sample type="To be analyzed">
		<id>GPSS_Li1p4Fe0p65Mn0p45Zr0p1Cl4_122625_694efed0ae15af25ac374c56</id>
		<name></name>
		<preparedBy></preparedBy>
	</sample>
	<xrdMeasurement measurementType="Scan" status="Completed" sampleMode="Reflection">
		<usedWavelength intended="K-Alpha 1">
			<kAlpha1 unit="Angstrom">1.5405980</kAlpha1>
			<kAlpha2 unit="Angstrom">1.5444260</kAlpha2>
			<kBeta unit="Angstrom">1.3922500</kBeta>
			<ratioKAlpha2KAlpha1>0.5000</ratioKAlpha2KAlpha1>
		</usedWavelength>
		<incidentBeamPath>
			<radius unit="mm">145.00</radius>
			<xRayTube id="1010048" name="Empyrean Cu LFF HR (9430 033 7310x)">
				<tension unit="kV">40.0</tension>
				<current unit="mA">15.0</current>
				<anodeMaterial>Cu</anodeMaterial>
				<focus type="Line">
					<length unit="mm">12.0</length>
					<width unit="mm">0.4</width>
					<takeOffAngle unit="deg">6.0</takeOffAngle>
				</focus>
			</xRayTube>
			<sollerSlit id="21010002" name="Soller slits 0.04 rad.">
				<opening unit="rad">0.0400</opening>
			</sollerSlit>
			<mask id="22031000" name="Fixed mask 13 mm">
				<width unit="mm">9.00</width>
			</mask>
			<divergenceSlit id="22120001" name="Divergence slit 1°" xsi:type="fixedDivergenceSlitType">
				<distanceToSample unit="mm">50.00</distanceToSample>
				<height unit="mm">1.52</height>
			</divergenceSlit>
		</incidentBeamPath>
		<sampleMovement xsi:type="spinningSampleMovementType">
			<spinnerRevolutionTime unit="seconds">1.0</spinnerRevolutionTime>
		</sampleMovement>
		<diffractedBeamPath>
			<radius unit="mm">145.00</radius>
			<antiScatterSlit id="22090040" name="AS slit 9 mm (PIXcel)" xsi:type="fixedAntiScatterSlitType">
				<height unit="mm">9.00</height>
			</antiScatterSlit>
			<sollerSlit id="21020003" name="Large Soller slits 0.04 rad.">
				<opening unit="rad">0.0400</opening>
			</sollerSlit>
			<filter id="20030001" name="Large beta-filter Nickel">
				<material>Ni</material>
				<thickness unit="mm">0.020</thickness>
			</filter>
			<detector id="7010019" name="PIXcel1D-Medipix3 detector" xsi:type="rtmsDetectorType">
				<phd unit="keV">
					<lowerLevel>4.02</lowerLevel>
					<upperLevel>11.27</upperLevel>
				</phd>
				<mode>Scanning</mode>
				<activeLength unit="deg">5.542</activeLength>
			</detector>
		</diffractedBeamPath>
		<scan appendNumber="0" mode="Continuous" scanAxis="Gonio" status="Completed">
			<header>
				<startTimeStamp>2025-12-28T11:29:36-08:00</startTimeStamp>
				<endTimeStamp>2025-12-28T11:37:43-08:00</endTimeStamp>
				<author>
					<name>AutomatedUser</name>
				</author>
				<source>
					<applicationSoftware version="1.7b (136)">PANalytical Aeris Instrument Suite</applicationSoftware>
					<instrumentControlSoftware version="3.2.00000000 20240306">AERIS</instrumentControlSoftware>
					<instrumentID>950485</instrumentID>
				</source>
			</header>
			<dataPoints>
				<positions axis="2Theta" unit="deg">
					<startPosition>10.00943322</startPosition>
					<endPosition>99.99442286</endPosition>
				</positions>
				<positions axis="Omega" unit="deg">
					<startPosition>5.00471661</startPosition>
					<endPosition>49.99721143</endPosition>
				</positions>
				<commonCountingTime unit="seconds">12.495</commonCountingTime>
				<counts unit="counts">3160 3145 3158 3236 3273 3184 3252 3203 3264 3328 3174 3285 3229 3349 3295 3131 3170 3183 3339 3233 3201 3105 3369 3174 3314 3279 3273 3310 3290 3293 3197 3260 3208 3134 3320 3177 3287 3278 3239 3256 3292 3240 3181 3282 3322 3223 3256 3194 3272 3226 3354 3306 3269 3338 3388 3368 3315 3271 3254 3335 3328 3291 3464 3335 3439 3460 3357 3457 3373 3359 3405 3356 3431 3419 3491 3299 3440 3432 3498 3506 3527 3534 3420 3468 3400 3602 3554 3559 3666 3617 3626 3587 3519 3407 3645 3623 3575 3493 3562 3544 3385 3515 3362 3445 3477 3534 3436 3413 3405 3399 3374 3419 3417 3282 3400 3413 3489 3501 3363 3389 3336 3567 3292 3428 3400 3352 3347 3331 3350 3324 3444 3348 3479 3445 3386 3275 3400 3192 3444 3393 3320 3285 3402 3290 3262 3388 3364 3415 3264 3346 3296 3373 3382 3459 3338 3338 3333 3419 3278 3382 3419 3322 3366 3296 3287 3287 3352 3253 3301 3407 3396 3311 3301 3343 3254 3331 3261 3384 3314 3366 3320 3336 3298 3397 3374 3446 3196 3358 3328 3355 3395 3180 3252 3379 3298 3268 3253 3261 3276 3214 3304 3366 3251 3329 3336 3313 3313 3377 3341 3271 3248 3202 3237 3155 3304 3144 3206 3309 3332 3323 3193 3339 3221 3206 3295 3261 3222 3280 3242 3182 3305 3236 3299 3220 3252 3262 3231 3238 3219 3215 3120 3207 3192 3251 3246 3165 3258 3155 3207 3122 3199 3252 3226 3261 3162 3218 3117 3250 3316 3236 3213 3194 3177 3135 3215 3222 3174 3219 3249 3079 3222 3192 3172 3079 3191 3156 3144 3149 3158 3167 3153 3294 3303 3232 3152 3231 3169 3224 3089 3231 3108 3225 3090 3176 3279 3281 3170 3241 3177 3207 3229 3192 3200 3318 3143 3257 3305 3214 3258 3274 3132 3212 3189 3178 3288 3142 3264 3179 3320 3223 3218 3151 3281 3285 3370 3259 3292 3234 3216 3371 3271 3312 3357 3250 3257 3424 3323 3222 3310 3367 3398 3392 3269 3415 3405 3420 3275 3301 3263 3401 3315 3367 3454 3323 3408 3386 3330 3430 3385 3382 3428 3314 3498 3342 3622 3513 3452 3455 3370 3455 3472 3436 3479 3453 3540 3490 3543 3532 3563 3490 3588 3519 3518 3479 3542 3511 3564 3598 3501 3616 3504 3545 3574 3534 3570 3558 3625 3577 3603 3628 3680 3669 3617 3607 3539 3522 3665 3759 3609 3675 3669 3679 3743 3671 3718 3657 3786 3757 3782 3776 3811 3902 4059 3807 3907 3915 3977 3849 3793 3838 3933 3998 3921 3821 4018 3910 3815 3923 3966 4012 4075 4041 4068 4082 4159 4058 4053 4039 4077 4116 4060 4304 4413 4381 4285 4374 4208 4168 4165 4167 4177 4038 4077 3877 3921 3831 3793 3787 3730 3617 3634 3647 3566 3642 3706 3722 3590 3470 3620 3636 3583 3551 3505 3596 3472 3618 3611 3671 3570 3591 3680 3520 3638 3612 3598 3640 3490 3546 3468 3578 3527 3459 3473 3420 3464 3355 3454 3406 3457 3513 3495 3486 3485 3281 3378 3350 3585 3428 3379 3405 3375 3447 3266 3416 3332 3250 3382 3352 3324 3191 3307 3220 3243 3281 3381 3298 3304 3258 3233 3280 3294 3273 3263 3251 3243 3292 3265 3111 3299 3177 3314 3211 3210 3286 3174 3297 3241 3247 3288 3176 3171 3064 3184 3237 3132 3282 3143 3219 3174 3086 3104 3135 3169 3137 3082 3133 3170 3125 3229 3069 3071 3087 3072 3116 3106 2975 3065 3093 3076 3042 3014 3002 3063 2995 2942 3119 3018 3003 3115 2974 3023 3045 2957 3080 3105 3072 2959 2975 3091 2983 2993 2976 3026 2976 2906 3056 2921 2983 2994 2955 2940 2995 2972 3011 3083 2937 2992 2979 3123 2962 3011 3027 2993 2870 3019 3046 2979 3011 2917 3042 2975 2906 2993 2920 2920 2960 2997 2951 2871 2890 2895 2919 2840 2929 2984 2934 2955 2960 2875 2889 2929 2941 2970 3000 2853 2952 2849 3038 2922 2790 2907 2884 2979 2764 2905 2814 2959 2867 2851 2915 2966 2852 2812 2794 2991 2869 2941 2819 2944 2907 2828 2923 2943 2794 2909 2893 2986 2892 2899 2816 2934 2817 2903 2785 2843 2874 2987 2901 2823 2825 2895 2943 2789 2784 2817 2777 2895 2964 2881 2952 2879 2790 2844 2766 2913 2864 2815 2833 2801 2872 2865 2828 2779 2732 2948 2795 2809 2839 2824 2881 2811 2816 2829 2811 2868 2893 2848 2791 2848 2769 2903 2925 2820 2875 2815 2914 2834 2798 2880 2785 2750 2817 2879 2790 2855 2817 2778 2811 2826 2815 2936 2906 2813 2839 2824 2813 2890 2890 2853 2851 2845 2824 2875 2901 2823 2812 2817 2902 2828 2830 2753 2831 2785 2734 2772 2887 2645 2684 2769 2811 2801 2716 2865 2740 2815 2770 2839 2695 2771 2741 2724 2777 2818 2768 2755 2711 2792 2810 2743 2792 2847 2867 2720 2810 2747 2740 2761 2772 2714 2726 2733 2769 2817 2774 2724 2849 2797 2741 2755 2796 2766 2750 2719 2666 2742 2729 2703 2757 2728 2656 2726 2641 2765 2707 2719 2697 2752 2658 2707 2735 2676 2696 2662 2753 2673 2697 2685 2758 2666 2771 2704 2667 2761 2797 2708 2740 2642 2659 2712 2794 2767 2721 2615 2724 2639 2657 2720 2687 2770 2662 2642 2723 2756 2624 2775 2701 2717 2631 2676 2663 2595 2673 2592 2728 2731 2689 2591 2693 2728 2668 2665 2649 2650 2659 2592 2593 2716 2660 2474 2725 2635 2623 2553 2656 2626 2558 2631 2647 2631 2660 2718 2562 2529 2560 2654 2605 2649 2599 2535 2610 2611 2523 2653 2613 2623 2582 2557 2515 2573 2642 2545 2634 2572 2578 2554 2653 2593 2589 2615 2489 2590 2619 2580 2488 2513 2586 2590 2533 2588 2667 2591 2610 2663 2544 2638 2701 2524 2648 2583 2622 2539 2573 2616 2656 2599 2508 2524 2565 2553 2681 2610 2548 2626 2570 2551 2481 2589 2588 2586 2580 2619 2527 2585 2503 2580 2509 2488 2632 2623 2489 2613 2514 2586 2489 2608 2535 2588 2604 2519 2602 2572 2659 2505 2499 2520 2666 2640 2566 2673 2537 2630 2679 2616 2589 2660 2498 2621 2570 2593 2572 2520 2764 2489 2568 2534 2628 2560 2590 2528 2694 2540 2554 2639 2585 2613 2585 2666 2606 2563 2591 2637 2600 2590 2625 2624 2635 2695 2654 2589 2569 2635 2621 2607 2562 2623 2560 2599 2549 2583 2598 2528 2658 2695 2560 2617 2543 2664 2516 2633 2580 2580 2617 2563 2637 2626 2626 2616 2594 2536 2587 2549 2427 2616 2593 2542 2500 2655 2646 2529 2551 2477 2480 2587 2614 2503 2581 2497 2452 2649 2562 2589 2618 2564 2539 2558 2515 2534 2465 2506 2546 2480 2541 2534 2582 2528 2545 2525 2524 2467 2620 2469 2428 2533 2455 2552 2511 2519 2474 2518 2482 2400 2534 2452 2460 2436 2455 2396 2476 2466 2454 2406 2485 2462 2417 2470 2536 2317 2408 2439 2383 2333 2427 2392 2356 2315 2416 2356 2429 2512 2297 2389 2403 2339 2327 2354 2346 2369 2373 2352 2339 2348 2405 2325 2318 2310 2191 2324 2325 2311 2307 2243 2229 2310 2315 2293 2210 2251 2181 2205 2268 2259 2347 2323 2234 2316 2282 2148 2290 2258 2271 2223 2161 2217 2253 2139 2155 2240 2229 2199 2238 2197 2299 2051 2224 2125 2098 2212 2217 2205 2131 2200 2077 2151 2192 2172 2180 2180 2213 2088 2147 2110 2072 2118 2135 2143 2174 2061 2035 2054 2074 2142 2081 2083 2140 2131 2173 2114 2063 2112 2131 2164 2095 2051 2010 2066 2062 2117 2067 2025 2054 1995 2043 2093 2039 1996 2033 2041 2015 2071 2034 1987 2082 2003 2051 1950 2015 2063 1999 2030 2084 2017 1973 2049 2002 2008 2022 1987 2064 2114 1996 2046 2045 1953 2041 2028 2001 2077 2011 2044 2063 1984 1979 1987 1974 2022 1978 1957 2056 1949 2000 1941 2042 1951 1960 1981 1899 1989 1983 1943 1959 1946 1981 2038 1985 1946 1919 2054 1893 2006 1982 1969 1925 1973 2057 1881 1924 1920 1957 1950 1979 1879 1883 1837 1949 1937 1943 2043 1911 1887 1978 2057 2019 1951 1971 1918 2051 1900 1937 1982 2016 1961 1951 1872 1962 1882 1946 1998 2000 1947 2026 1951 1984 1987 1924 1984 1918 1917 2032 1942 2002 1965 1981 2065 1973 1988 2006 1947 2007 1945 1913 1981 1908 1901 1971 1937 2009 1982 1965 1995 1883 1910 2042 1975 1972 1981 1977 1924 1929 1990 1963 1928 1925 1964 1980 1940 2018 1959 1966 2046 1960 2025 2018 1996 2010 2038 1964 2029 2030 1930 1959 1937 1995 2013 1974 1985 2010 1956 1968 2003 1981 2012 1989 2054 1980 2070 1949 1950 2001 2080 2016 1988 2006 1856 1921 1937 1955 1868 2022 1926 1949 1984 1945 1959 1969 1935 1881 1982 1874 2029 1976 1887 2011 2042 2007 1925 1977 2123 1962 1923 1984 1960 1975 1940 2056 1964 2013 1982 1957 1907 1935 1938 1946 1903 1945 1958 1960 1974 1956 1890 1919 1981 1882 1984 1916 1930 1932 1967 1982 1955 1886 1929 1858 1895 1955 1964 1912 1920 1865 1961 1934 1913 1872 1966 1923 1834 1850 1883 1848 1921 1831 1953 1958 1892 1948 1936 1847 1872 1843 1828 1893 1845 1872 1922 1775 1767 1876 1842 1847 1836 1849 1809 1793 1864 1782 1821 1815 1784 1799 1779 1830 1859 1789 1836 1829 1821 1843 1773 1796 1791 1700 1768 1729 1820 1770 1764 1781 1768 1741 1799 1674 1807 1767 1812 1750 1774 1767 1706 1814 1711 1774 1813 1763 1734 1753 1740 1745 1774 1737 1692 1708 1767 1734 1748 1712 1742 1735 1660 1716 1665 1712 1760 1738 1701 1734 1675 1665 1697 1723 1645 1689 1675 1685 1784 1596 1705 1713 1618 1646 1669 1692 1758 1688 1645 1620 1689 1703 1644 1666 1654 1696 1622 1579 1708 1604 1728 1747 1707 1703 1766 1705 1686 1800 1684 1733 1766 1741 1697 1784 1836 1812 1809 1849 1876 1859 1838 1849 1899 1784 1848 1777 1862 1785 1820 1811 1787 1837 1790 1927 1928 1821 1882 1924 1896 1953 1938 2034 1882 2061 2026 2074 2044 2086 2042 2101 2112 1915 2018 2053 1960 1927 1854 1951 1870 1843 1749 1762 1770 1676 1701 1628 1648 1683 1675 1621 1618 1653 1683 1655 1658 1626 1620 1575 1554 1578 1585 1633 1634 1679 1596 1581 1563 1613 1571 1633 1598 1556 1559 1542 1500 1572 1558 1487 1494 1549 1553 1575 1520 1521 1567 1562 1591 1531 1515 1470 1496 1511 1589 1483 1548 1509 1513 1460 1599 1484 1501 1572 1519 1526 1556 1560 1665 1601 1652 1624 1619 1615 1749 1694 1752 1804 1872 1857 1722 1900 1755 1848 1792 1786 1831 1791 1740 1821 1795 1933 1914 1709 1940 1930 1908 1952 1902 2035 1976 2057 2037 2130 2212 2175 2266 2304 2303 2245 2280 2199 2369 2299 2277 2153 2090 1995 2016 1885 1856 1838 1828 1710 1642 1706 1623 1638 1578 1659 1597 1641 1597 1569 1599 1593 1522 1588 1575 1589 1584 1508 1579 1611 1509 1601 1617 1602 1561 1621 1581 1600 1642 1596 1549 1587 1590 1632 1614 1575 1531 1535 1587 1465 1516 1459 1575 1607 1531 1581 1469 1515 1458 1522 1488 1528 1514 1490 1545 1516 1500 1499 1517 1538 1446 1496 1516 1487 1495 1474 1491 1500 1395 1493 1502 1457 1469 1530 1498 1508 1470 1370 1455 1406 1464 1498 1398 1468 1408 1473 1453 1445 1405 1500 1494 1466 1386 1409 1340 1489 1343 1443 1401 1389 1427 1320 1482 1339 1365 1303 1407 1437 1321 1416 1410 1394 1362 1359 1309 1296 1363 1331 1368 1329 1418 1314 1361 1367 1356 1394 1329 1351 1365 1296 1348 1405 1346 1365 1349 1347 1344 1294 1314 1375 1406 1281 1237 1282 1259 1297 1298 1318 1370 1380 1350 1309 1288 1341 1324 1292 1288 1332 1311 1280 1302 1374 1296 1291 1308 1311 1293 1312 1330 1353 1386 1293 1299 1249 1308 1283 1331 1308 1342 1316 1329 1254 1318 1377 1383 1314 1360 1309 1368 1352 1349 1372 1336 1303 1322 1369 1319 1366 1401 1359 1378 1316 1321 1355 1407 1352 1354 1409 1397 1364 1394 1403 1333 1426 1451 1403 1441 1386 1435 1424 1496 1467 1483 1441 1543 1562 1491 1519 1489 1535 1472 1548 1483 1577 1540 1476 1550 1485 1534 1456 1506 1514 1505 1545 1491 1439 1441 1498 1459 1475 1471 1453 1513 1408 1450 1438 1385 1347 1385 1391 1436 1441 1403 1441 1350 1441 1417 1335 1397 1379 1397 1365 1414 1345 1383 1339 1377 1379 1390 1418 1359 1357 1296 1381 1357 1371 1413 1357 1417 1306 1332 1337 1325 1238 1318 1344 1300 1292 1368 1350 1335 1351 1385 1373 1341 1298 1335 1334 1323 1338 1343 1343 1394 1355 1377 1337 1328 1402 1308 1391 1333 1338 1352 1306 1374 1265 1312 1288 1340 1388 1329 1312 1279 1301 1320 1296 1332 1322 1301 1267 1333 1351 1365 1292 1383 1330 1352 1314 1275 1367 1316 1307 1322 1271 1294 1330 1303 1303 1335 1298 1331 1314 1322 1308 1335 1312 1342 1300 1345 1357 1349 1388 1413 1455 1461 1450 1521 1555 1516 1644 1675 1745 1898 1952 1892 2096 2118 2352 2285 2404 2388 2296 2340 2515 2387 2489 2475 2476 2460 2519 2500 2589 2453 2544 2515 2691 2863 2800 2870 3143 3249 3270 3332 3593 3720 3943 3990 4086 4303 4442 4245 4166 4289 4021 3762 3727 3547 3375 3256 3042 2806 2515 2461 2213 2055 2070 1938 1841 1664 1668 1601 1574 1523 1520 1505 1482 1421 1431 1468 1456 1389 1440 1535 1409 1445 1475 1396 1475 1465 1468 1466 1393 1481 1414 1474 1513 1436 1416 1478 1448 1487 1486 1418 1418 1467 1482 1473 1455 1359 1461 1448 1441 1431 1377 1432 1403 1374 1376 1465 1377 1352 1366 1409 1360 1381 1360 1398 1380 1332 1381 1336 1375 1373 1361 1363 1296 1335 1359 1334 1323 1339 1231 1303 1287 1364 1297 1323 1414 1330 1318 1342 1299 1286 1311 1300 1213 1308 1341 1334 1267 1310 1276 1266 1313 1359 1240 1248 1320 1258 1247 1279 1258 1286 1247 1263 1276 1288 1255 1206 1238 1267 1254 1254 1212 1272 1273 1227 1210 1227 1315 1240 1285 1326 1233 1256 1208 1237 1230 1223 1251 1254 1279 1260 1243 1273 1236 1205 1291 1216 1231 1205 1221 1252 1237 1254 1234 1197 1196 1265 1170 1232 1243 1230 1259 1170 1295 1162 1275 1230 1249 1188 1235 1172 1182 1193 1220 1262 1223 1254 1222 1257 1195 1246 1137 1236 1184 1195 1164 1231 1133 1226 1195 1221 1231 1197 1283 1118 1193 1177 1232 1183 1201 1181 1207 1166 1173 1219 1169 1212 1225 1233 1186 1282 1237 1237 1231 1236 1191 1222 1128 1158 1203 1164 1232 1274 1207 1230 1228 1197 1130 1263 1239 1209 1217 1215 1258 1161 1235 1205 1177 1211 1251 1193 1194 1180 1183 1208 1286 1191 1264 1192 1276 1228 1210 1268 1270 1241 1195 1201 1190 1246 1160 1208 1227 1147 1232 1189 1192 1259 1194 1161 1338 1203 1239 1195 1231 1157 1171 1245 1194 1283 1249 1266 1261 1200 1228 1174 1156 1238 1184 1217 1291 1217 1231 1182 1205 1277 1220 1250 1171 1178 1140 1103 1177 1161 1133 1200 1191 1190 1156 1148 1146 1136 1153 1168 1124 1142 1220 1263 1173 1183 1094 1137 1247 1240 1199 1197 1205 1126 1137 1199 1175 1104 1252 1135 1236 1257 1200 1220 1287 1225 1203 1148 1195 1206 1182 1156 1256 1191 1167 1140 1189 1172 1189 1247 1219 1196 1215 1197 1164 1213 1184 1221 1114 1242 1206 1205 1149 1222 1186 1171 1214 1182 1183 1170 1191 1142 1180 1200 1225 1154 1214 1179 1213 1147 1166 1179 1173 1148 1250 1172 1203 1113 1173 1150 1198 1183 1158 1146 1129 1129 1105 1204 1138 1189 1148 1202 1202 1155 1095 1133 1094 1177 1108 1185 1146 1164 1173 1115 1127 1107 1092 1085 1232 1174 1124 1133 1162 1130 1199 1209 1149 1151 1129 1051 1158 1122 1119 1133 1156 1160 1122 1119 1141 1160 1098 1122 1128 1149 1089 1166 1194 1185 1155 1166 1110 1109 1160 1163 1175 1154 1234 1168 1195 1201 1127 1202 1121 1182 1139 1184 1168 1199 1168 1141 1160 1166 1149 1147 1180 1096 1125 1103 1171 1112 1195 1190 1161 1205 1139 1113 1100 1174 1153 1154 1159 1171 1164 1080 1143 1142 1123 1131 1126 1154 1092 1166 1093 1113 1153 1134 1118 1154 1056 1091 1095 1124 1164 1154 1148 1149 1090 1175 1163 1155 1150 1087 1068 1121 1159 1104 1159 1095 1136 1110 1115 1092 1123 1122 1145 1126 1121 1064 1115 1143 1141 1204 1157 1102 1134 1174 1119 1089 1153 1159 1161 1121 1072 1189 1107 1187 1139 1120 1143 1138 1153 1108 1120 1147 1134 1144 1138 1130 1190 1089 1085 1173 1168 1162 1142 1114 1115 1137 1150 1217 1121 1156 1154 1166 1080 1074 1163 1132 1119 1175 1168 1145 1175 1161 1075 1114 1178 1117 1103 1103 1122 1145 1128 1058 1136 1129 1129 1118 1143 1157 1061 1112 1123 1095 1122 1065 1152 1035 1183 1085 1120 1124 1121 1064 1160 1048 1104 1226 1191 1230 1138 1142 1132 1168 1175 1050 1140 1139 1084 1201 1060 1153 1107 1144 1073 1107 1160 1089 1114 1147 1163 1081 1140 1148 1149 1143 1120 1136 1044 1084 1207 1110 1121 1073 1148 1159 1115 1067 1083 1128 1112 1174 1172 1055 1120 1100 1169 1110 1155 1188 1138 1135 1131 1176 1140 1091 1144 1065 1133 1197 1147 1173 1129 1114 1158 1113 1151 1119 1098 1125 1157 1106 1155 1125 1123 1122 1150 1144 1175 1113 1203 1153 1205 1065 1083 1157 1087 1119 1131 1088 1123 1107 1140 1158 1097 1133 1104 1107 1156 1119 1145 1212 1065 1049 1102 1079 1160 1101 1133 1138 1145 1121 1146 1158 1107 1154 1175 1211 1117 1118 1131 1132 1126 1133 1123 1167 1133 1150 1160 1095 1140 1171 1101 1138 1173 1148 1136 1130 1127 1121 1101 1117 1127 1071 1125 1188 1081 1141 1072 1125 1158 1158 1130 1129 1129 1158 1096 1145 1110 1152 1143 1112 1118 1155 1164 1083 1110 1069 1129 1110 1159 1138 1074 1117 1089 1103 1167 1102 1117 1153 1136 1183 1093 1108 1125 1173 1124 1173 1152 1097 1137 1092 1186 1034 1194 1156 1122 1103 1198 1142 1139 1144 1083 1126 1145 1170 1144 1155 1185 1165 1148 1192 1101 1098 1119 1161 1142 1144 1190 1121 1136 1123 1137 1150 1165 1138 1098 1148 1091 1151 1141 1122 1122 1147 1164 1181 1056 1139 1097 1137 1134 1150 1141 1077 1088 1093 1182 1149 1107 1137 1097 1112 1078 1115 1048 1185 1121 1116 1109 1154 1225 1139 1144 1164 1160 1135 1120 1100 1179 1131 1064 1202 1141 1153 1153 1102 1103 1067 1089 1134 1181 1159 1112 1128 1165 1085 1115 1126 1160 1109 1098 1132 1104 1093 1163 1177 1158 1121 1104 1097 1077 1137 1128 1108 1111 1120 1102 1146 1117 1233 1178 1202 1161 1208 1277 1230 1251 1248 1270 1231 1303 1263 1392 1315 1317 1390 1355 1309 1306 1297 1360 1345 1339 1380 1371 1394 1420 1339 1437 1424 1472 1484 1517 1576 1512 1505 1479 1423 1507 1472 1399 1442 1399 1333 1422 1354 1378 1335 1341 1290 1253 1254 1266 1297 1207 1213 1238 1212 1074 1163 1096 1091 1071 1151 1144 1140 1110 1119 1106 1036 1147 1148 1077 1098 1099 1132 1149 1126 1078 1089 1122 1085 1122 1108 1045 1145 1072 1146 1083 1141 1160 1125 1104 1079 1112 1162 1127 1107 1113 1026 1095 1101 1163 1184 1054 1131 1048 1151 1122 1146 1113 1135 1103 1101 1098 1119 1085 1144 1093 1135 1090 1123 1146 1147 1113 1108 1106 1108 1102 1109 1104 1142 1120 1175 1177 1171 1082 1115 1164 1114 1076 1165 1119 1101 1112 1098 1123 1083 1120 1094 1092 1054 1102 1096 1146 1087 1057 1194 1070 1111 1110 1088 1098 1100 1063 1114 1075 1067 1100 1111 1121 1132 1034 1158 1111 1075 1152 1066 1058 1158 1165 1131 1072 1134 1058 1144 1053 1104 1079 1069 1109 1092 1104 1122 1089 1140 1112 1096 1101 1085 1125 1062 1107 1092 1066 1114 1138 1097 1155 1082 1106 1102 1117 1071 1101 1107 1095 1111 1090 1153 1068 1099 1149 1113 1159 1093 1082 1112 1078 1051 1116 1087 1061 1105 1123 1086 1095 1053 1110 1138 1145 1047 1120 1160 1087 1104 1121 1119 1102 1086 1117 1158 1118 1141 1130 1099 1125 1094 1114 1087 1127 1118 1096 1141 1060 1150 1122 1121 1140 1076 1094 1065 1156 1106 1092 1141 1176 1070 1114 1079 1114 1176 1163 1162 1166 1149 1111 1099 1127 1118 1081 1111 1082 1097 1142 1144 1146 1095 1123 1170 1111 1074 1115 1113 1129 1168 1048 1062 1093 1129 1080 1069 1122 1102 1112 1132 1141 1068 1105 1178 1093 1070 1169 1100 1164 1080 1145 1074 1155 1158 1088 1172 1105 1098 1149 1133 1133 1086 1078 1085 1131 1168 1068 1101 1088 1079 1162 1086 1131 1086 1112 1101 1139 1048 1170 1162 1098 1129 1131 1096 1105 1148 1145 1172 1093 1158 1119 1164 1064 1169 1084 1134 1117 1198 1103 1118 1165 1117 1152 1143 1184 1256 1206 1191 1201 1258 1257 1161 1345 1268 1410 1444 1486 1531 1539 1585 1702 1814 1775 1770 1798 1845 1985 1898 1967 2045 2122 2156 2163 2158 2203 2141 2262 2217 2294 2295 2439 2417 2478 2641 2595 2629 2627 2798 2823 2881 2914 3030 3075 3119 3055 2874 2891 2719 2653 2647 2546 2403 2287 2193 2189 2127 2100 1904 1950 1797 1761 1672 1595 1491 1491 1448 1406 1418 1362 1295 1350 1332 1315 1256 1316 1345 1250 1276 1222 1299 1267 1291 1254 1304 1226 1262 1220 1250 1283 1290 1269 1246 1190 1270 1303 1246 1289 1321 1329 1241 1237 1185 1213 1249 1203 1228 1258 1267 1226 1232 1247 1264 1236 1237 1248 1241 1213 1245 1217 1186 1266 1261 1164 1246 1213 1243 1215 1223 1279 1193 1250 1228 1162 1230 1121 1178 1230 1163 1247 1276 1192 1211 1203 1276 1269 1262 1219 1305 1221 1248 1272 1174 1207 1234 1228 1295 1261 1229 1299 1214 1190 1179 1212 1226 1148 1185 1162 1195 1167 1193 1218 1146 1192 1167 1164 1101 1156 1169 1233 1134 1120 1166 1109 1157 1148 1137 1149 1153 1121 1062 1163 1121 1134 1175 1091 1162 1083 1108 1142 1111 1116 1151 1096 1120 1082 1108 1115 1136 1127 1110 1134 1089 1077 1071 1132 1089 1102 1098 1111 1116 1131 1116 1103 1157 1091 1145 1179 1104 1139 1075 1085 1130 1119 1125 1142 1147 1186 1219 1159 1220 1220 1204 1184 1131 1189 1193 1203 1207 1210 1169 1175 1236 1244 1235 1192 1260 1187 1244 1307 1353 1301 1298 1280 1282 1289 1282 1337 1332 1297 1291 1280 1326 1259 1249 1200 1310 1157 1221 1251 1272 1157 1201 1155 1161 1175 1170 1178 1107 1097 1146 1096 1126 1142 1120 1102 1037 1069 1026 1104 1088 1110 1134 1044 1135 1053 1122 1076 1138 1135 1125 1123 1084 1115 1116 1128 1100 1101 1092 1036 1112 1073 1107 1059 1083 1068 1143 1042 1114 1051 1104 1150 1085 1127 1149 1081 1115 1109 1117 1050 1043 1066 1064 1099 1052 1086 1074 1127 1023 1088 1059 1105 1052 1071 1071 1100 1068 1112 1145 1088 1113 1107 1055 1060 1078 1027 1102 1108 1106 1045 1013 1110 1050 1105 1060 1095 1084 1050 1073 1042 1043 1042 1041 1104 1059 1057 1068 1115 1050 1060 1086 1019 1041 1074 1041 1072 1032 1046 1096 1061 1103 1053 1041 1127 1044 1048 1044 1051 1089 1142 1053 1081 1044 1091 985 1083 1123 1040 1054 1050 1084 1047 1062 1126 1060 1040 1093 1022 1049 1040 1056 1077 1118 1033 1069 1085 1093 1060 1085 1102 1069 1009 1000 1071 1069 1070 1121 1064 1075 1043 1008 1034 1038 1076 1046 1061 1002 1097 1036 1090 1085 964 1023 1028 1082 1090 1073 1091 1024 1081 1051 1026 1038 1006 1105 1019 1115 1088 1012 1040 1048 1033 1063 1121 1053 1008 1073 1067 1062 1034 1045 1083 1031 1025 1060 1059 1045 1080 1020 1037 1038 1089 1079 1110 1026 1037 1116 1052 1040 1072 1043 1055 1001 1087 1037 1027 995 1008 1029 1100 1041 1150 1026 1043 1055 1046 1037 1017 1080 999 1050 1027 1073 1101 1108 1048 1088 1070 1061 1088 1061 1023 1003 1009 1072 1006 1071 1024 1053 1084 1044 1076 1034 1036 1037 1100 1111 1043 1032 1065 1022 1025 1006 1060 1045 1102 1025 1040 1022 987 1071 1092 1064 1029 1091 1034 1035 1041 1060 1054 1052 1026 1018 1066 1093 1035 1024 1083 1024 1018 1072 1022 1038 1080 1072 1026 1060 1014 1020 1016 1034 980 1050 1079 1040 1060 1085 1074 1041 1055 1021 1015 1013 1031 1037 1062 1081 1083 1052 1045 1040 1035 1062 1069 1048 994 1114 1078 1098 1057 1081 1042 971 1037 987 1082 972 1090 1034 1069 1025 1017 1006 1002 1030 1027 1025 1036 1018 1056 1095 1004 1098 938 1050 1038 1023 1124 1046 1037 1011 1053 1048 1108 1002 1009 1024 1100 1066 1056 1051 1005 1111 1050 1068 1016 1107 1007 1029 1039 1016 1070 1037 1049 1080 1095 1075 1060 978 1116 1004 1064 1020 1048 1070 1051 1056 1037 1080 1038 1114 1061 1057 1064 1004 1013 1059 1053 1065 1054 1076 1013 1041 1031 1074 998 1011 1049 1072 1058 1065 1029 1057 1080 989 1020 969 1027 1027 1018 1037 1091 1030 996 1070 1023 1130 970 1036 1014 1107 1069 1085 1028 1042 1041 1056 1058 1051 1067 1110 1037 1051 1085 951 1065 1027 1077 1050 971 1071 1041 994 949 1064 1029 1038 1065 1018 1034 1035 1067 1048 1089 1015 1046 1070 1038 1121 1042 1062 1020 1055 1008 1019 1026 1020 1064 1069 1039 1075 1055 1012 1043 1070 1008 1056 1072 1060 1008 1074 1106 1057 1002 1003 1037 1093 1082 1021 1016 1033 1073 1065 1054 1063 1090 1078 1123 1067 1088 1119 1043 1083 1126 1126 1131 1117 1079 1075 1097 1138 1133 1060 1140 1100 1134 1078 1115 1085 1055 1135 1129 1057 1096 1120 1083 1076 1136 1056 1154 981 1093 1034 1020 1075 1085 1098 1076 1057 1085 1056 1135 1063 1141 1100 1029 1168 1077 1118 1073 1083 1146 1086 1137 1115 1088 1113 1189 1154 1108 1166 1178 1198 1259 1208 1266 1162 1150 1214 1226 1236 1264 1212 1202 1221 1267 1203 1215 1282 1228 1270 1179 1172 1211 1147 1167 1209 1207 1121 1220 1198 1163 1118 1131 1137 1155 1083 1128 1142 1077 1107 1119 1082 1086 1124 1133 1075 1065 1062 1065 1079 1120 1104 1083 1056 1056 1072 1135 1057 1077 1084 1059 981 1041 1060 1090 1099 1083 1054 1066 1099 1088 1041 1046 1069 1064 1133 1076 1083 1067 1060 1026 1079 1099 1087 1026 1040 1058 1051 1012 1062 1099 1007 1063 1064 1043 1055 1027 1067 1013 1018 1033 1061 1085 1083 1063 1060 1060 1113 1088 1090 1011 1040 1113 1067 1039 1025 1085 1070 1049 1051 1046 1078 1067 1052 1057 1027 1019 1123 1046 1089 1052 1063 1112 1086 1153 1089 1118 1130 1077 1082 1097 1049 1055 1062 1145 1016 1075 1080 1096 1046 1002 1127 1054 1075 1102 1088 1075 1061 1073 1093 1075 1089 1059 1096 1113 1140 1091 1059 1022 1096 1071 1083 1072 1057 1068 1058 1041 1025 1017 1063 1167 1073 1040 1083 1073 1021 1169 1103 1093 1083 1080 1054 1107 1087 1063 1101 1003 1069 1101 1071 1033 1029 1057 1069 1070 1075 1078 1048 1049 1046 1051 1022 1079 1005 1044 1010 1096 1053 1097 1014 1022 1065 1030 985 1053 1007 1070 1043 1044 1099 1031 1095 1021 1066 1028 1062 1049 1118 1052 1062 1042 1098 1090 1103 1099 1063 1089 1150 1127 1177 1140 1115 1190 1192 1175 1235 1177 1189 1237 1207 1263 1209 1219 1274 1263 1291 1236 1289 1331 1323 1370 1447 1456 1418 1465 1381 1451 1478 1482 1475 1463 1528 1444 1471 1477 1425 1426 1432 1384 1372 1330 1339 1329 1346 1325 1334 1239 1255 1296 1220 1218 1233 1211 1174 1115 1137 1194 1071 1083 1086 1086 1068 1093 1113 1042 1046 1064 1059 1025 1084 1078 1036 1037 1055 1071 1070 1117 1115 1030 1037 1046 1066 1071 1031 1054 1030 1031 1039 1057 1069 1075 1056 1085 1119 1119 1007 1022 1077 1028 1067 1075 987 1070 1018 1075 1042 1058 1090 1068 1021 1030 1062 1125 1079 1048 1045 1035 1020 1059 1005 1070 1081 1074 1094 1043 1054 1023 1022 1074 1019 1057 1023 1107 1036 1003 1011 1062 993 1077 1034 1044 1044 1064 1057 1111 1038 1066 1061 1006 1074 1048 997 1005 1003 1057 1035 1051 1064 1105 983 1057 1024 1048 1030 1069 1057 1008 1034 1071 1047 1092 1054 1041 1015 990 1002 1074 999 1030 1004 1027 1004 1034 1050 999 1016 1031 1007 1083 1085 1060 1078 1120 1074 1106 1118 1096 1100 1117 1080 1041 1038 1094 1122 1123 1109 1066 1208 1079 1099 1077 1045 1091 1072 1144 1163 1135 1076 1138 1167 1164 1144 1171 1162 1155 1125 1098 1187 1182 1171 1095 1174 1168 1175 1091 1098 1140 1106 1122 1076 1057 1071 1075 1076 1119 1078 1115 1087 1077 1022 1093 1005 1017 1065 1073 1050 1074 1016 995 1017 1049 1042 1009 1009 1047 1049 1039 1009 1014 1042 1062 980 1027 1027 1073 997 1025 1020 1016 1052 1072 1017 1061 1071 1011 1112 1064 990 958 1030 1033 999 975 1031 992 994 1067 1049 1020 1053 1012 1052 1088 1057 1083 996 1039 1084 1065 1055 1019 1029 1051 1056 1017 1001 1045 1011 990 962 1081 1071 979 1021 1005 1015 1021 1022 1019 1037 1004 1058 1025 1021 947 1060 990 1025 1035 1021 996 965 1047 1012 1010 1071 971 991 1023 1018 1036 983 1011 993 1003 1071 1013 1018 997 1054 1043 1009 981 1031 967 1003 1056 972 1064 983 1023 991 1003 1010 998 1043 1025 1033 1082 1046 1031 1037 1019 1084 975 1036 1047 1007 1028 1002 1048 1034 1015 991 1011 1044 1004 969 1039 1014 1009 1019 998 1033 1028 1006 1030 986 1004 1006 1035 982 1028 1072 1010 1036 1032 1049 1004 1042 1021 1008 989 1072 1016 1017 1066 1035 1046 1021 1038 1019 1024 1064 1042 1016 1012 1064 1025 1033 1037 1004 973 1044 1031 1065 1020 1039 1076 961 1084 979 1040 1014 986 1015 1059 1033 1028 1058 1036 969 979 1018 1033 977 987 1048 1065 1048 1021 1029 1041 971 1035 1025 999 1000 1020 993 1056 999 989 1034 960 1038 1087 962 1038 1006 1042 1017 1058 947 1031 993 1064 980 1019 1016 1011 1003 1042 1063 1034 986 1005 974 1068 1014 1036 1021 994 1065 1037 986 1069 1028 965 980 982 1025 977 1053 1043 1010 1020 972 966 1015 1084 1049 983 980 1006 980 973 1024 1046 1018 1032 1060 975 1028 1027 1031 1062 1063 988 1028 1057 973 1009 1076 1027 1033 991 977 937 1019 1002 946 1059 1011 1039 1000 1049 960 1037 974 1049 1082 1051 1050 1047 1022 1061 1030 1030 1030 1003 1028 955 1027 1023 1036 1079 997 946 1028 982 961 1061 1025 1018 1067 1081 1032 1099 985 1014 1000 1035 1010 1044 1068 1041 1079 1021 1024 1048 1029 1008 1022 1013 1017 1055 1079 993 1052 978 1035 1000 1091 1007 1037 996 985 990 1015 963 1006 1062 967 1002 1032 1027 1003 1012 975 1024 1056 1020 987 1023 1044 969 973 1040 1031 1030 1002 1024 994 1032 1053 978 1027 1026 1005 1023 994 1013 989 967 972 1054 1040 1031 1034 1061 992 1003 952 1037 1072 1035 1040 987 1029 1026 985 961 981 1066 966 1021 1040 1087 1026 1019 994 1007 1026 1056 1002 1040 1075 1084 1044 1058 1030 999 1022 1073 1073 1031 1029 1073 1031 1074 1094 1029 1012 1101 1080 1096 1045 1081 1058 1032 1057 1147 1075 1124 1055 1150 1138 1134 1049 1106 1086 1111 1102 1088 1020 1095 1039 1073 1106 1043 1019 1064 1064 1102 1095 1078 1046 1045 1064 1070 980 1043 1068 1069 1071 984 1036 1034 1065 1083 1023 996 1023 994 1023 1061 1012 1025 986 1000 1020 1069 1009 1050 1014 996 1029 972 961 1034 1031 1032 1085 1037 1029 1025 1017 1006 984 985 1019 945 999 955 1000 1020 1020 1009 1018 982 998 1009 1019 1060 1035 1069 1056 1034 1070 1047 1041 997 1028 997 1000 984 989 1062 997 973 1038 1064 1056 996 1047 1009 1030 1061 1002 1032 1005 1017 1032 1015 1009 1043 1006 963 1013 1015 955 970 1003 1054 1028 971 976 1027 1009 1029 1055 1060 1030 1026 1050 988 1081 1004 1032 1017 1014 1028 1010 1008 991 975 1043 1002 1068 1018 1075 1022 1023 1064 1033 994 1017 1011 959 1004 980 982 1067 1002 1082 1091 1090 1027 1025 999 1006 981 1010 1071 1016 952 1003 980 1053 1025 1006 1027 1039 1026 985 982 1013 1034 1019 1048 1052 1000 1004 993 987 939 1018 990 999 998 961 1036 1008 985 1060 1077 994 1004 1044 1016 980 1012 1021 952 1042 1044 1031 998 966 999 1036 1041 1052 968 1017 987 985 1071 972 1028 1054 1106 1045 996 1025 1078 1037 1054 983 1046 1068 1015 973 976 986 1002 1066 1042 1005 1034 1080 998 991 1006 984 1046 1026 1036 1026 1019 1065 1054 1025 1004 1021 1022 1040 1046 1065 1080 1055 1019 974 1042 1033 1032 987 1051 1017 1079 984 1091 1046 1067 1104 1053 1146 1064 1098 1066 1115 1109 1107 1122 1104 1145 1098 1131 1166 1181 1103 1130 1080 1181 1211 1197 1238 1218 1267 1235 1233 1225 1234 1308 1117 1184 1172 1244 1144 1117 1159 1188 1183 1143 1163 1171 1112 1148 1143 1130 1183 1076 1105 1107 1073 1077 1045 1098 1060 1050 1043 997 1158 1033 1063 998 1062 1025 1059 1073 997 983 1009 1031 984 1042 1056 1017 1112 1005 1078 984 1068 1002 1057 985 1065 1023 1044 998 1067 985 996 1007 1045 1016 1071 1066 1007 986 1047 987 1043 1025 1003 1026 989 1046 1021 1000 1041 1085 1071 1013 1049 1014 1041 1001 1041 1060 986 1043 994 1005 1038 998 993 1038 1070 1008 1012 1028 1016 1023 1056 1038 1002 1046 1014 1005 1056 989 1050 1015 1043 1042 1091 1047 982 1023 1071 983 930 1068 1044 1014 1045 997 1066 1051 1042 1009 1039 989 1013 1024 1054 1023 1002 1011 1063 1000 1028 972 1038 1000 1037 989 1020 1013 989 1029 982 1039 1006 1070 987 994 1053 982 1013 1015 1068 981 1030 1109 1014 1107 1017 1032 1054 1010 991 1074 1085 977 1055 1068 980 1007 997 1009 1093 990 1039 1000 1040 1064 1068 1030 1006 1013 1052 1064 979 1013 1036 1035 1033 1048 1031 1081 1034 1065 1003 1060 1038 1068 1014 1062 981 998 1034 1015 1078 1024 1021 1041 1114 990 999 1049 957 995 969 989 977 1075 1049 1060 964 1025 1059 1034 1025 1036 999 973 968 1028 1024 1034 1036 1044 1063 1011 1005 1080 962 1059 1057 1046 996 1020 1016 1046 1050 1049 1021 988 1024 1000 1042 1017 1055 1017 1051 1035 1008 997 1052 1038 962 1019 1070 1019 976 1046 1010 976 1017 1043 1056 1022 1017 1019 1070 992 1029 993 1043 1039 1021 1000 1022 1025 1000 999 1031 982 1033 1027 980 1018 1040 1010 1067 1009 977 1024 1034 1001 1040 1035 1056 1036 975 1052 1032 997 1067 1057 1036 1035 1041 1091 1040 1067 1030 991 1034 1064 1014 990 1066 1049 1039 1077 1008 1008 1022 1033 1038 1029 1029 1016 1039 1054 1029 1018 1057 1059 1050 1034 988 1018 1057 1074 1051 1004 1026 978 1097 1114 1017 1058 982 1067 1059 1012 1012 1067 1054 993 1107 993 1037 1069 1074 1008 1019 946 1066 1024 1003 1019 1056 964 1091 993 1039 1052 997 1053 1031 1016 1060 984 1052 1008 1005 1058 1007 1037 1057 969 1032 1078 1066 1016 1005 1081 983 993 995 997 1043 973 1060 1032 1020 1046 1088 1018 995 1030 1022 1032 1061 1090 1006 1013 1030 1055 1056 1044 1074 1078 1057 1019 1046 1049 971 1032 999 1081 1030 969 1053 1032 1019 1005 1015 1022 1083 1027 1002 973 1073 1046 1035 1034 969 995 1078 1062 1023 1045 1041 1014 1029 1055 1048 1002 1052 1045 1060 1005 1005 1012 1031 1006 1073 996 1060 1031 1092 1086 1061 1060 1014 985 1099 1013 1067 1050 963 1047 973 925 1032 1015 1044 1004 1030 1081 1019 1019 1021 1040 1059 1098 1118 1052 1025 1008 1024 996 1046 1051 1063 1003 1081 1048 1012 1009 1001 1031 1022 1034 1000 1095 1010 1018 999 1056 1084 1021 1073 1114 1011 1016 1032 989 1068 1068 1058 995 1017 1049 1052 1014 1054 1026 1002 1059 1025 1057 984 1019 996 1038 1012 1032 1025 1091 973 1065 1113 1024 1060 1041 1023 1046 961 1019 1068 1116 1050 1048 994 1072 991 963 1014 984 1041 1007 995 1008 1099 1104 1000 1019 1090 1119 1043 1009 1016 1064 1045 1066 1044 1049 1044 1101 1017 1090 1051 1011 1044 1040 1063 1085 1040 1036 1094 1038 1022 1100 1025 1054 1007 1035 1033 1028 1069 1039 1098 1108 1035 1083 1032 981 1011 1037 1096 1055 1047 1041 1097 1053 1075 1063 1069 1074 1108 1090 1061 1070 1123 1103 1116 1121 1147 1081 1049 1044 1080 1059 1062 1136 1096 1052 1091 1104 1040 1168 1080 1091 1064 1131 1049 1046 1091 1130 1063 1077 1095 1116 1114 1061 1152 1017 1043 1074 1091 1029 1054 1044 1106 1087 1113 1056 1090 1104 1060 1105 1100 1114 1073 1136 1135 1097 1068 1116 1119 1034 1074 1206 1144 1125 1107 1134 1160 1102 1140 1063 1137 1102 1132 1097 1111 1067 1128 1095 1119 1052 1188 1076 1063 1041 1088 1107 984 1109 1141 1083 1110 1156 1090 1096 1074 1123 1053 1026 1107 1037 1058 1070 1056 1088 1059 1016 1005 1019 1053 1055 1053 1016 1079 1028 974 1015 1082 1079 1020 1039 1059 1039 1075 983 1069 973 1073 1112 992 1077 1042 1063 1029 1064 1038 1005 1040 1081 1063 1090 1011 1066 1048 1102 1046 1077 1093 1039 1099 1100 1091 1007 1081 1042 1042 1020 1102 1066 1063 1067 1034 1065 1089 1058 1055 1081 1143 1032 1021 1013 1048 1084 1060 1011 1045 1074 1044 1098 1043 1071 1091 1089 1074 1060 1006 1043 1120 1156 1020 1011 1083 1017 1026 1074 1056 1063 1032 1065 1070 1062 1050 1050 1063 1054 1084 1065 1106 1060 1120 1074 1079 1069 1079 1085 1126 1059 1051 1093 1027 1054 1070 1069 1042 1029 1091 1047 1028 1077 1106 1082 1109 1086 1086 1032 1087 1082 1079 1072 1059 1072 1065 1114 1013 1134 1069 1110 1106 1134 1118 1109 1052 1083 1099 1073 1084 1135 1089 1102 1130 1159 1059 1169 1082 1110 1090 1084 1167 1119 1188 1180 1195 1216 1216 1202 1223 1194 1211 1194 1297 1252 1273 1280 1359 1312 1366 1319 1298 1344 1406 1366 1405 1453 1502 1398 1444 1470 1516 1484 1545 1569 1528 1501 1438 1432 1485 1438 1377 1328 1328 1412 1352 1356 1354 1243 1372 1314 1287 1324 1274 1256 1340 1281 1216 1194 1289 1226 1235 1211 1210 1125 1230 1251 1114 1166 1148 1125 1094 1105 1151 1018 1127 1116 1105 1169 1166 1119 1158 1097 1124 1109 1116 1115 1069 1085 1108 1063 1114 1068 1075 1042 1051 1079 1069 1056 1053 1108 1058 1016 1113 1118 1049 1064 1057 1066 1022 1111 1112 1121 1116 1097 1082 1105 1053 1095 1114 1105 1102 1052 1048 1060 1079 1061 1000 1091 1059 1099 1077 1123 1029 1114 981 1013 1047 1075 1053 1077 1048 1113 1054 1028 1048 1086 1078 1101 1157 1028 1089 1093 1099 1098 1080 1065 1080 1124 1092 1036 1092 1076 1045 1043 1057 1097 1133 1010 1063 1052 1057 1071 976 1115 1068 1127 1115 1108 1077 1077 1060 1045 1046 1159 1097 1089 1076 1041 1078 1057 1075 1028 1096 1075 1123 1110 1112 1120 1103 1089 1143 1132 1076 1098 1118 1162 1089 1122 1155 1090 1120 1129 1151 1104 1103 1164 1122 1063 1048 1136 1087 1120 1095 1120 1132 1129 1123 1081 1116 1087 1067 1078 1030 1152 1042 1097 1124 1075 1029 1098 1086 1097 1131 1024 1050 1066 1106 1077 1020 1067 1046 1066 1019 1096 1001 1087 1043 996 1026 1137 1048 1047 1156 1078 1026 1106 1055 1036 1127 1046 1061 1073 1027 1022 1073 1046 992 1077 1047 1117 1098 1078 1069 1082 1056 1103 1065 1041 1028 1071 1054 1088 1069 1058 1091 1055 1033 1048 1049 1042 1017 1032 1031 1101 1025 1032 1015 982 1036 1055 1090 1072 1038 1057 1070 1053 1058 998 1077 1036 1057 1053 1044 1070 1023 1086 1087 1118 1055 977 1075 1060 1079 1080 1033 1045 1013 1052 1022 1043 1022 981 1090 1020 1025 1123 1019 1062 1026 1113 1108 1028 1046 1005 1057 1081 1064 1036 1042 1026 1092 1063 1045 1014 1082 1059 1025 1003 1111 1051 1068 1016 1032 1014 1097 1053 1020 1055 1057 1026 1061 1054 1031 1130 1056 1018 1060 992 1036 982 1083 1056 1072 1092 1025 1081 1073 1050 1067 991 1023 1086 1012 1066 1036 1010 1021 1066 1048 998 994 1001 1007 1074 1084 1024 1014 1063 1001 1065 1012 1033 1012 961 1057 1062 1060 1095 1037 1078 1083 1064 1043 1004 994 1071 1136 1020 1020 1016 1016 1081 1046 1040 1032 1086 1039 1064 1008 1013 1020 1044 1097 1037 1029 1024 996 1061 972 1034 1049 1081 1055 1021 1057 1078 1046 1063 993 1068 1004 1103 1087 1069 988 1056 1060 1101 1015 1063 1013 981 1017 1071 1002 1086 1065 1025 1046 1012 1030 946 1035 1088 1065 1045 1068 1041 1070 1034 984 1037 1033 1093 994 1070 1123 1054 978 1073 1043 1051 1021 1063 1081 1035 1033 1047 972 1065 1057 1124 1036 1035 1004 994 1063 1054 1024 1027 1042 1019 1053 1034 1041 1016 1039 1045 1063 1049 1020 1088 1027 1007 1075 1106 1097 1034 1044 1030 1044 1061 1104 1052 1059 1055 1057 997 985 1027 1058 1050 1030 1080 1043 1095 1011 1089 1056 1032 1071 998 1006 1057 992 1014 1091 1077 1060 1080 1068 1128 1075 1072 1061 1105 1051 969 1023 1071 1055 1072 1073 1060 1040 1047 1046 1045 1053 1060 1049 1030 1079 1028 1026 1067 1047 1052 1026 1083 1066 1081 1074 1031 1092 1062 1096 1032 1013 1065 1027 1104 1034 1041 1095 1080 1050 1038 1081 1010 1033 1062 1092 992 1048 1090 1087 1063 1072 1038 1074 1058 1071 994 1104 1061 1044 1074 1071 1025 1071 1087 1132 1094 1062 1094 1091 1149 1091 1065 1064 1107 1055 1114 1062 1056 1091 1085 1115 1079 1077 1065 1073 1106 1116 1076 1142 1131 1089 1089 1037 1108 1091 1078 1080 1109 1013 1031 1142 1063 1108 1094 1092 1019 1088 1056 1128 1087 1129 1040 1050 1055 1057 1037 1097 1079 1094 1092 1069 1048 1023 1092 1066 1095 1074 1103 1090 1044 1018 1048 1072 1023 1083 1059 1009 1106 1089 1099 1011 996 1106 1036 1098 1098 1030 1097 1052 1084 1024 1013 1086 1047 1055 1047 1049 1016 1108 1024 1076 1031 1036 1060 1016 969 1027 1043 1016 1107 1060 1081 1052 1052 971 1018 1062 1020 1073 1044 1057 1074 1065 1095 1014 1035 1050 1081 1013 1041 1041 1088 1050 1096 987 1052 1038 1067 1034 1071 1042 1077 1016 1025 1049 1085 996 1057 1058 1013 1107 1027 1039 1047 1011 1060 1085 1045 1059 1042 1113 1077 1005 1044 1012 1104 1010 1044 1054 1125 1037 1054 1070 1089 1087 1074 1081 1030 1010 1037 1053 1074 1054 933 1062 1095 1051 1013 1014 1054 1050 1053 1067 1048 1049 1020 1076 1063 1048 1055 1059 1089 1099 1049 1088 1097 1023 1071 1057 1019 1055 1065 1065 1053 1047 1054 1075 1094 1038 1090 1049 1069 1092 1024 1032 1041 996 1034 1043 1049 1033 1079 1032 1074 1097 1097 1066 1077 1044 1075 982 1071 1085 1038 1044 1044 1036 1109 1071 1073 1052 1112 1104 1114 1071 1102 997 1083 1101 1049 1035 1020 1104 1135 1153 1006 1143 1099 1105 1065 1060 1154 1056 1047 1130 1139 1095 1178 1104 1092 1132 1157 1152 1132 1219 1162 1163 1166 1175 1264 1217 1249 1236 1224 1198 1221 1299 1331 1300 1264 1272 1347 1321 1357 1317 1360 1390 1376 1293 1259 1319 1339 1328 1326 1325 1276 1215 1253 1217 1181 1277 1267 1228 1314 1227 1264 1252 1223 1239 1214 1215 1223 1182 1210 1257 1209 1208 1168 1204 1151 1145 1113 1175 1105 1172 1127 1143 1079 1123 1107 1113 1112 1135 1088 1083 1073 1087 1072 1055 1053 1143 1153 1079 1048 1118 1049 1087 1096 1078 1038 1033 1111 1033 1056 1021 1052 1062 1118 1058 1079 1066 1037 1135 1102 1123 1098 1121 1045 1076 1031 1000 1075 1064 1015 1023 1022 1091 1066 1091 1026 1038 1032 1101 1004 1070 1042 1093 1050 1105 1002 1078 1101 1006 1109 1124 1118 1017 1079 1114 1058 1049 994 1086 1040 1040 1099 1093 1094 991 1082 1091 1030 1014 1100 1125 1028 1105 1053 1078 1028 1034 1020 1049 1064 1061 1102 1092 1107 1077 1095 1115 1057 1068 1095 1089 1031 1078 1104 1100 1097 1066 1086 1034 1050 1095 1041 1134 1030 1101 1069 1065 1082 1093 1097 1175 1053 1107 1154 1070 1059 1092 991 1026 1108 1090 1125 1102 1118 1045 1121 1090 1195 1038 1090 1102 1111 1031 1063 1080 1048 1073 1004 1121 1046 1065 1061 1080 1079 1040 1062 1128 1127 1049 1097 1131 1045 1048 1014 1135 1066 1110 1065 1074 1117 1057 1060 1041 1065 1122 1074 1056 1076 1039 1067 1079 1043 1065 1063 1097 1002 1099 1077 1111 1035 1075 1127 1124 1050 1104 1099 1074 1044 1079 1022 1055 1041 1034 1064 1074 1062 1028 1073 1023 1035 1108 1077 1045 1074 1012 1057 1060 1006 1120 1055 1095 1083 1060 1037 1111 987 1123 1050 1093 1049 1081 1058 1133 1067 1086 1113 1033 1050 1126 1075 1065 1148 1075 1068 1084 1012 1082 970 1033 1027 1029 1022 1000 1006 1079 1051 1109 996 1039 1042 1104 1075 1064 1109 1074 1078 1116 1013 1071 1083 1088 1021 1066 1026 1065 1053 1022 1048 1025 1021 1070 1035 1030 1035 1066 996 1027 1107 1019 1078 1024 1047 1064 1020 1036 1065 1033 1085 1002 1031 1057 1042 1090 1088 1083 1032 1074 1056 1120 1015 995 1071 1099 1004 1032 1056 1063 1047 1089 1061 1044 1073 1053 1038 1061 1095 1032 1024 1016 986 1041 1057 1036 1001 1116 1113 1037 1048 1030 1098 1066 1053 1063 1055 1027 1012 1009 1009 985 1067 1076 1083 997 1026 1054 1076 1043 1031 1063 1019 1081 1060 1005 1048 1044 1011 1121 1031 1064 1029 1044 1067 1038 1086 1053 1090 1068 1075 1068 1035 1076 1066 1079 1049 1042 1030 1051 1092 1010 986 1038 992 1032 1112 1023 1089 1069 1020 1068 1010 1110 1049 1020 1050 1073 1088 1084 1037 1055 1019 987 1104 1073 1076 1014 1042 1032 1068 1081 1052 1016 1015 1058 1051 1160 1084 1044 1069 1040 1017 1081 1054 1033 1031 1031 1071 1064 970 1000 1044 1017 1019 1090 1028 1051 1064 1079 1034 1088 1083 1038 1053 1039 1094 1040 1097 1001 1045 1080 1043 1069 1041 1034 1033 986 1102 1069 1048 1015 1067 1058 1012 1048 983 1085 990 1063 1076 1111 1109 1084 1055 1024 1006 1052 1076 1013 1054 1036 1003 1035 976 1013 1040 1015 1027 999 1021 1061 1055 1091 1087 1114 1076 1039 1044 1014 1067 1077 1071 1046 1052 1075 1106 1114 1049 1051 1045 1054 1060 1074 1042 1089 997 1087 1066 1002 1054 1032 1086 1131 1064 1114 1067 1104 1020 1034 1121 1099 1027 1014 1168 1054 1033 1077 1022 1095 1110 1058 1053 1049 993 1048 1089 1072 1120 1055 1015 1089 1060 1061 1043 1078 1084 1041 1064 1122 1098 1059 1120 1060 1106 1056 1134 1100 1124 1154 1101 1096 1083 1129 1084 1157 1076 1017 1139 1109 1123 1128 1143 1177 1089 1194 1140 1087 1161 1030 1087</counts>
			</dataPoints>
		</scan>
	</xrdMeasurement>
</xrdMeasurements>
