<?xml version="1.0"?>
<xrdMeasurements xmlns="http://www.xrdml.com/XRDMeasurement/2.3" xmlns:xsi="http://www.w3.org/2001/XMLSchema-instance" xsi:schemaLocation="http://www.xrdml.com/XRDMeasurement/2.3 http://www.xrdml.com/XRDMeasurement/2.3/XRDMeasurement.xsd" status="Completed" recordIdentifier="{FE7BFB7A-A20C-47F3-BCF0-43790627DA1A}">
	<comment>
		<entry/>
	</comment>
	<sample type="To be analyzed">
		<id>GPSS_Li1p5Mg1p25Cl4_112725_69279e65f4e53d1f7239af1b</id>
		<name></name>
		<preparedBy></preparedBy>
	</sample>
	<xrdMeasurement measurementType="Scan" status="Completed" sampleMode="Reflection">
		<usedWavelength intended="K-Alpha 1">
			<kAlpha1 unit="Angstrom">1.5405980</kAlpha1>
			<kAlpha2 unit="Angstrom">1.5444260</kAlpha2>
			<kBeta unit="Angstrom">1.3922500</kBeta>
			<ratioKAlpha2KAlpha1>0.5000</ratioKAlpha2KAlpha1>
		</usedWavelength>
		<incidentBeamPath>
			<radius unit="mm">145.00</radius>
			<xRayTube id="1010048" name="Empyrean Cu LFF HR (9430 033 7310x)">
				<tension unit="kV">40.0</tension>
				<current unit="mA">15.0</current>
				<anodeMaterial>Cu</anodeMaterial>
				<focus type="Line">
					<length unit="mm">12.0</length>
					<width unit="mm">0.4</width>
					<takeOffAngle unit="deg">6.0</takeOffAngle>
				</focus>
			</xRayTube>
			<sollerSlit id="21010002" name="Soller slits 0.04 rad.">
				<opening unit="rad">0.0400</opening>
			</sollerSlit>
			<mask id="22031000" name="Fixed mask 13 mm">
				<width unit="mm">9.00</width>
			</mask>
			<divergenceSlit id="22120001" name="Divergence slit 1°" xsi:type="fixedDivergenceSlitType">
				<distanceToSample unit="mm">50.00</distanceToSample>
				<height unit="mm">1.52</height>
			</divergenceSlit>
		</incidentBeamPath>
		<sampleMovement xsi:type="spinningSampleMovementType">
			<spinnerRevolutionTime unit="seconds">1.0</spinnerRevolutionTime>
		</sampleMovement>
		<diffractedBeamPath>
			<radius unit="mm">145.00</radius>
			<antiScatterSlit id="22090040" name="AS slit 9 mm (PIXcel)" xsi:type="fixedAntiScatterSlitType">
				<height unit="mm">9.00</height>
			</antiScatterSlit>
			<sollerSlit id="21020003" name="Large Soller slits 0.04 rad.">
				<opening unit="rad">0.0400</opening>
			</sollerSlit>
			<filter id="20030001" name="Large beta-filter Nickel">
				<material>Ni</material>
				<thickness unit="mm">0.020</thickness>
			</filter>
			<detector id="7010019" name="PIXcel1D-Medipix3 detector" xsi:type="rtmsDetectorType">
				<phd unit="keV">
					<lowerLevel>4.02</lowerLevel>
					<upperLevel>11.27</upperLevel>
				</phd>
				<mode>Scanning</mode>
				<activeLength unit="deg">5.542</activeLength>
			</detector>
		</diffractedBeamPath>
		<scan appendNumber="0" mode="Continuous" scanAxis="Gonio" status="Completed">
			<header>
				<startTimeStamp>2025-12-06T12:17:32-08:00</startTimeStamp>
				<endTimeStamp>2025-12-06T12:25:39-08:00</endTimeStamp>
				<author>
					<name>AutomatedUser</name>
				</author>
				<source>
					<applicationSoftware version="1.7b (136)">PANalytical Aeris Instrument Suite</applicationSoftware>
					<instrumentControlSoftware version="3.2.00000000 20240306">AERIS</instrumentControlSoftware>
					<instrumentID>950485</instrumentID>
				</source>
			</header>
			<dataPoints>
				<positions axis="2Theta" unit="deg">
					<startPosition>10.00943322</startPosition>
					<endPosition>99.99442286</endPosition>
				</positions>
				<positions axis="Omega" unit="deg">
					<startPosition>5.00471661</startPosition>
					<endPosition>49.99721143</endPosition>
				</positions>
				<commonCountingTime unit="seconds">12.495</commonCountingTime>
				<counts unit="counts">2546 2454 2517 2497 2453 2501 2515 2463 2481 2549 2620 2552 2519 2478 2408 2517 2514 2489 2481 2446 2497 2476 2556 2531 2478 2520 2493 2434 2476 2586 2515 2514 2455 2638 2556 2527 2441 2490 2541 2552 2526 2601 2580 2568 2522 2495 2501 2541 2541 2452 2496 2549 2396 2518 2602 2533 2557 2642 2491 2549 2612 2520 2610 2576 2497 2576 2583 2589 2522 2536 2549 2577 2571 2559 2535 2594 2446 2562 2517 2515 2480 2588 2504 2561 2611 2567 2495 2477 2537 2628 2510 2545 2636 2552 2559 2522 2518 2580 2522 2655 2512 2537 2559 2582 2534 2622 2434 2461 2596 2525 2663 2575 2630 2685 2550 2625 2623 2559 2607 2571 2601 2483 2528 2568 2601 2574 2568 2523 2643 2560 2597 2546 2560 2641 2565 2608 2573 2525 2562 2578 2589 2591 2537 2454 2664 2579 2665 2640 2586 2597 2570 2617 2611 2629 2525 2640 2670 2595 2596 2686 2629 2546 2558 2582 2560 2585 2591 2624 2657 2611 2555 2476 2597 2590 2593 2642 2541 2659 2460 2682 2534 2542 2594 2708 2557 2634 2562 2761 2577 2586 2624 2589 2498 2625 2513 2584 2568 2574 2529 2490 2626 2591 2595 2512 2459 2543 2459 2508 2558 2442 2524 2523 2525 2505 2551 2501 2490 2510 2501 2463 2510 2597 2575 2548 2525 2519 2531 2458 2491 2556 2555 2511 2553 2560 2544 2518 2529 2559 2567 2496 2499 2599 2603 2478 2461 2560 2414 2383 2373 2564 2437 2403 2511 2504 2478 2457 2489 2359 2496 2333 2413 2446 2398 2435 2336 2505 2522 2519 2384 2481 2394 2503 2496 2409 2537 2476 2381 2347 2408 2398 2443 2360 2360 2427 2335 2434 2418 2401 2347 2417 2454 2387 2404 2432 2313 2451 2395 2391 2394 2421 2465 2473 2362 2409 2461 2466 2445 2500 2375 2418 2389 2419 2465 2393 2493 2369 2351 2430 2440 2365 2408 2336 2410 2530 2446 2441 2388 2488 2376 2368 2487 2387 2467 2351 2558 2450 2531 2426 2548 2386 2537 2492 2387 2474 2485 2448 2539 2419 2470 2502 2480 2480 2542 2424 2617 2521 2479 2567 2508 2430 2547 2486 2501 2476 2512 2510 2489 2550 2462 2495 2590 2424 2574 2633 2625 2606 2550 2503 2587 2537 2607 2641 2595 2652 2541 2632 2646 2605 2541 2659 2584 2602 2694 2600 2639 2608 2657 2696 2700 2593 2683 2683 2618 2734 2609 2672 2637 2631 2691 2690 2747 2720 2751 2786 2754 2739 2941 2821 2852 2816 2794 2928 2888 2892 2863 2844 2915 2897 3053 3044 2906 2930 3031 2979 3141 3109 3184 3145 3225 3129 3328 3214 3347 3269 3330 3347 3318 3385 3498 3404 3406 3493 3562 3576 3602 3634 3685 3680 3825 3785 3917 3811 3869 3897 3962 3892 3955 4023 4032 4065 4104 4080 4162 4163 4133 4168 4155 4078 4083 4183 4143 4078 4321 4335 4195 4271 4333 4220 4353 4382 4280 4334 4570 4472 4368 4315 4301 4279 4300 4209 4237 4368 4168 4306 4149 4282 4169 4219 4120 4055 4165 4085 4042 4109 4121 4130 4096 4199 4089 4010 4044 3954 4061 4019 3906 3864 3835 3812 3791 3732 3732 3623 3557 3532 3506 3517 3439 3404 3413 3309 3288 3184 3212 3188 3137 3148 3078 3085 3040 2982 2941 2868 3003 2932 2910 2837 2797 2794 2749 2742 2806 2668 2645 2677 2607 2628 2661 2635 2626 2545 2571 2632 2537 2504 2575 2482 2513 2609 2598 2512 2442 2480 2428 2514 2529 2452 2483 2543 2516 2498 2531 2475 2530 2543 2471 2431 2532 2550 2407 2477 2406 2401 2523 2480 2441 2411 2405 2538 2434 2407 2407 2364 2460 2429 2490 2444 2419 2467 2469 2385 2457 2442 2369 2425 2376 2485 2349 2482 2372 2441 2453 2406 2407 2426 2385 2399 2456 2377 2489 2241 2339 2314 2367 2319 2418 2394 2261 2309 2341 2371 2363 2403 2323 2352 2320 2422 2407 2303 2337 2347 2387 2368 2347 2432 2326 2406 2306 2346 2315 2374 2439 2288 2311 2389 2416 2300 2256 2363 2279 2268 2323 2247 2330 2303 2381 2286 2323 2302 2261 2287 2222 2310 2301 2292 2202 2278 2288 2275 2304 2254 2238 2265 2253 2271 2201 2261 2339 2300 2249 2195 2272 2248 2242 2362 2339 2206 2343 2214 2279 2337 2210 2287 2284 2313 2298 2249 2208 2162 2268 2286 2306 2345 2292 2303 2198 2327 2298 2216 2300 2324 2250 2285 2315 2265 2167 2204 2259 2235 2321 2292 2220 2215 2268 2194 2287 2209 2269 2255 2238 2272 2312 2300 2291 2230 2254 2283 2236 2239 2210 2260 2309 2242 2203 2285 2193 2187 2220 2186 2300 2191 2212 2176 2208 2238 2184 2243 2271 2192 2245 2234 2253 2255 2216 2161 2244 2207 2154 2241 2147 2269 2151 2270 2184 2195 2160 2162 2162 2095 2290 2137 2203 2189 2216 2135 2142 2208 2206 2194 2129 2122 2289 2150 2212 2127 2239 2126 2213 2207 2159 2176 2164 2270 2184 2107 2202 2106 2176 2212 2146 2150 2107 2199 2136 2259 2121 2093 2074 2199 2162 2212 2164 2168 2140 2155 2148 2097 2208 2130 2106 2103 2186 2150 2161 2185 2099 2106 2083 2175 2206 2026 2137 2078 2116 2132 2162 2045 2133 2043 2192 2168 2081 2081 2141 2125 2077 2086 2207 2103 2099 2087 2082 2143 2053 2126 2129 2131 2073 2037 2136 2062 2088 2074 2119 2053 2156 2002 2071 2067 2055 2073 2054 2085 2102 2112 2178 2100 1990 2104 2091 2098 2066 2044 2124 2012 2035 2004 2049 2056 1992 2036 2026 2116 2010 2134 2010 2054 2087 2074 2092 2012 2041 1995 1993 2054 2086 2061 2077 2006 1996 2006 2027 2089 2031 1920 2065 2047 2039 1963 1970 1961 2061 1997 2032 2040 1989 1972 2075 2004 2044 2025 2072 2012 2002 1901 2031 2083 2017 1956 1994 1987 1982 1998 2055 1998 1918 1957 1988 2013 2052 2006 2009 1983 2050 1961 2052 1987 2034 1993 2038 1966 1983 2067 1985 1959 1947 1957 1995 1942 1983 1986 1928 2021 1962 1999 2008 1987 1937 2030 2048 2035 1923 1876 1980 1968 2032 2002 2004 2035 1981 1941 1920 1943 2017 1912 2035 1987 1998 2097 2080 2007 2005 2049 1930 2027 2051 2045 1889 1908 1960 1928 2025 1967 2084 1858 2007 1903 1991 1964 1984 1925 1951 1999 1972 1989 2019 1992 1985 2027 2064 2084 1926 2005 1940 2033 1942 2016 1965 1997 1955 1996 1945 1957 2003 1909 2004 1951 1951 1986 1900 1961 1927 1951 1974 1987 1999 1991 2013 1892 2008 1952 1880 2021 2049 1996 1967 1991 1936 1922 1950 1886 1948 1944 1938 1904 1969 1987 1975 1906 1978 1923 1915 1935 1919 1987 1965 1991 1944 1962 1905 1920 1982 1966 2001 1938 1892 1971 1969 1997 2006 1862 1954 1864 1903 1955 2058 1955 1970 2005 1902 1944 1886 1977 1929 1831 2009 1869 1945 1832 1826 1930 1945 1883 1913 1877 1880 1930 1881 1848 1969 1925 1950 1885 1895 1872 1883 1930 1886 1907 1814 1883 1903 1796 1873 1904 1858 1921 1936 1890 1889 1838 1875 1813 1904 1850 1851 1802 1751 1818 1865 1880 1826 1767 1786 1843 1795 1791 1799 1764 1742 1806 1771 1819 1795 1732 1721 1813 1704 1710 1769 1721 1783 1786 1756 1766 1739 1787 1750 1759 1825 1710 1782 1627 1671 1727 1634 1643 1649 1724 1693 1709 1663 1699 1692 1638 1611 1720 1669 1782 1659 1576 1689 1667 1664 1635 1676 1696 1684 1580 1689 1634 1559 1566 1590 1627 1627 1652 1633 1613 1591 1577 1595 1701 1640 1630 1584 1575 1652 1597 1595 1551 1582 1578 1638 1623 1540 1580 1543 1523 1480 1597 1541 1556 1549 1567 1592 1592 1525 1530 1449 1504 1534 1560 1570 1570 1478 1565 1530 1503 1489 1506 1476 1469 1501 1414 1494 1535 1492 1539 1489 1454 1563 1510 1546 1586 1453 1497 1489 1536 1511 1526 1519 1454 1583 1381 1489 1508 1504 1529 1460 1402 1491 1435 1434 1467 1403 1441 1473 1456 1547 1424 1414 1359 1453 1410 1422 1428 1424 1403 1452 1440 1433 1450 1451 1443 1408 1513 1462 1478 1395 1399 1456 1391 1494 1394 1376 1441 1450 1455 1390 1440 1444 1401 1408 1370 1403 1404 1369 1406 1436 1346 1354 1406 1429 1423 1456 1342 1354 1452 1382 1430 1329 1390 1460 1419 1332 1402 1417 1482 1372 1457 1395 1355 1417 1349 1462 1446 1383 1431 1434 1338 1451 1352 1423 1352 1456 1444 1423 1347 1365 1443 1444 1424 1425 1402 1422 1396 1403 1426 1457 1362 1393 1361 1416 1392 1440 1405 1396 1386 1442 1431 1329 1393 1433 1368 1327 1388 1404 1382 1358 1393 1366 1420 1398 1418 1340 1418 1384 1410 1364 1371 1438 1379 1448 1413 1391 1390 1349 1425 1436 1360 1363 1417 1411 1434 1360 1371 1428 1408 1374 1442 1443 1417 1315 1449 1351 1385 1356 1405 1411 1420 1524 1445 1417 1377 1451 1415 1434 1406 1380 1306 1417 1404 1411 1353 1367 1396 1472 1391 1371 1387 1310 1368 1436 1451 1401 1360 1438 1379 1459 1353 1386 1374 1362 1422 1396 1339 1401 1417 1384 1345 1402 1373 1370 1358 1520 1420 1382 1437 1395 1432 1326 1439 1365 1300 1383 1319 1375 1275 1397 1401 1425 1291 1358 1390 1389 1375 1315 1367 1371 1363 1306 1368 1354 1314 1316 1393 1337 1285 1356 1385 1364 1303 1340 1279 1397 1323 1292 1277 1320 1272 1365 1357 1254 1250 1275 1293 1331 1340 1313 1255 1240 1289 1309 1292 1329 1301 1267 1231 1236 1248 1232 1232 1315 1238 1177 1206 1218 1298 1251 1265 1203 1221 1245 1201 1240 1252 1197 1209 1242 1169 1240 1214 1211 1194 1242 1245 1216 1220 1228 1229 1165 1204 1225 1215 1140 1206 1231 1224 1210 1202 1211 1174 1190 1174 1195 1149 1176 1135 1151 1129 1167 1155 1160 1159 1159 1110 1146 1110 1151 1108 1159 1119 1096 1121 1140 1174 1181 1177 1118 1116 1122 1186 1132 1177 1129 1128 1250 1172 1184 1107 1192 1213 1221 1237 1216 1260 1119 1146 1123 1182 1216 1160 1212 1172 1207 1186 1238 1191 1183 1239 1183 1257 1233 1244 1198 1242 1201 1263 1280 1264 1242 1306 1251 1232 1197 1274 1250 1277 1235 1210 1275 1255 1245 1274 1300 1283 1283 1240 1369 1302 1307 1280 1219 1391 1338 1357 1388 1280 1333 1332 1303 1354 1259 1337 1325 1292 1285 1329 1267 1252 1235 1266 1147 1311 1304 1350 1281 1206 1299 1221 1278 1247 1223 1222 1256 1242 1258 1179 1159 1197 1181 1233 1148 1233 1215 1206 1228 1259 1243 1232 1243 1353 1361 1313 1408 1409 1429 1473 1523 1547 1656 1761 1789 1855 1918 2067 2182 2187 2252 2390 2433 2565 2709 2780 2884 2943 3103 3123 3237 3163 3380 3435 3693 3927 3967 3954 4012 3905 4055 4114 4149 4213 4453 4445 4507 4466 4489 4576 4720 4835 5076 5195 5124 4909 4889 5083 4968 5145 5091 5165 5181 5125 5149 5132 5184 5248 5246 5335 5355 5580 5596 5747 5860 5943 6045 6114 6338 6172 6437 6136 6203 6062 6082 5883 5787 5594 5384 5296 5123 5087 4837 4673 4470 4437 4381 4243 4196 3969 4005 3931 3744 3655 3631 3595 3546 3509 3312 3347 3150 3087 3012 2885 2855 2715 2653 2493 2510 2374 2318 2162 2241 2194 2141 2074 2180 1999 2006 1995 1953 1950 1867 1857 1902 1801 1790 1787 1786 1737 1734 1719 1686 1663 1571 1636 1567 1573 1463 1488 1415 1394 1362 1355 1353 1323 1299 1205 1200 1245 1130 1143 1117 1146 1107 1159 1150 1051 1040 1065 954 1007 1001 1011 973 984 917 911 882 905 888 912 855 901 802 905 857 840 820 851 837 884 852 849 881 833 830 836 826 845 865 845 751 853 841 814 798 851 881 834 831 874 779 824 819 862 799 755 806 819 792 770 782 793 818 818 812 761 793 780 835 794 793 772 807 772 798 762 788 797 826 806 795 805 724 841 779 802 770 770 794 782 769 813 794 745 736 745 796 806 755 768 798 772 779 786 759 725 799 769 730 755 781 719 745 745 736 707 761 747 754 785 775 726 744 787 831 721 729 801 775 757 788 708 765 791 711 759 753 729 734 758 750 727 760 713 776 765 749 751 746 719 692 700 775 736 729 726 754 652 775 753 764 708 709 774 731 761 766 760 680 717 720 722 702 755 739 709 760 684 742 741 682 719 710 688 727 722 711 748 736 755 772 748 748 748 727 748 692 690 744 735 715 716 725 759 686 747 771 685 730 706 729 753 733 766 729 729 747 744 696 741 721 752 763 728 739 718 771 743 727 690 714 691 779 784 747 771 746 742 715 739 744 728 721 777 713 752 729 748 740 729 741 753 778 730 776 720 730 777 750 813 725 803 783 800 858 756 809 837 858 809 847 855 830 823 912 876 927 921 996 991 1058 1076 1131 1124 1179 1251 1373 1364 1442 1498 1562 1639 1762 1794 1835 1949 2113 2061 2384 2275 2416 2619 2690 2694 2691 2921 2875 2971 3028 2989 3185 3306 3247 3498 3590 3811 3736 3986 3975 3985 4034 4209 4303 4423 4230 4322 4322 4379 4366 4461 4402 4522 4548 4510 4567 4729 4540 4696 4745 4748 4694 4820 4644 4846 4810 4888 4871 4889 4815 5037 4869 4916 4776 4855 4754 4750 4567 4672 4596 4690 4724 4605 4501 4380 4443 4336 4334 4055 4127 4044 3981 3937 3728 3688 3599 3459 3395 3396 3226 3225 3119 3048 2999 2906 2896 2743 2695 2697 2567 2549 2440 2403 2320 2282 2205 2253 2138 2135 2022 1944 1994 1920 1887 1858 1848 1725 1705 1711 1652 1607 1606 1525 1521 1399 1369 1334 1397 1281 1253 1301 1210 1173 1192 1087 1116 1071 1060 1048 984 928 885 931 919 846 860 811 856 821 769 790 728 685 728 793 701 748 750 732 671 696 708 674 713 695 680 711 692 674 683 703 686 708 644 640 661 709 629 653 645 643 636 660 717 710 661 667 659 625 613 644 633 675 662 632 687 622 655 647 684 641 646 644 647 612 610 647 623 622 644 648 628 609 600 628 632 649 600 607 631 601 656 614 619 597 634 578 637 636 650 641 625 631 642 636 632 648 595 628 625 629 600 598 608 646 607 596 583 609 642 624 606 630 628 587 609 618 625 571 576 627 593 583 611 552 612 590 623 616 590 582 601 618 595 577 575 597 596 619 578 613 568 584 592 580 609 575 638 577 612 593 619 617 585 609 581 615 553 605 563 585 566 525 574 582 588 601 585 617 597 569 578 617 569 577 569 569 600 605 590 556 554 573 587 560 553 551 595 542 560 577 536 571 517 585 533 559 563 518 531 561 508 565 569 543 590 562 582 546 569 541 572 562 546 565 593 579 523 550 531 537 556 562 535 600 568 570 563 545 570 578 556 563 535 572 550 562 536 495 487 553 510 554 594 559 551 569 556 549 560 525 572 542 537 551 500 562 515 516 546 554 555 585 498 603 583 596 561 583 540 545 547 526 537 541 560 563 536 531 530 534 529 549 499 542 554 498 511 523 520 537 515 502 498 550 470 483 532 544 524 514 516 572 502 520 550 538 532 518 489 488 497 484 528 534 514 562 490 509 513 480 521 495 486 548 472 550 466 469 525 513 477 515 488 525 522 467 499 489 525 520 518 504 504 471 473 554 455 478 480 488 523 477 478 474 463 501 483 498 512 504 489 504 509 497 482 476 481 501 511 489 544 483 491 507 498 509 472 517 463 520 476 503 493 476 528 482 502 474 487 435 459 478 475 506 502 433 502 465 480 510 479 482 493 466 433 529 496 453 454 505 483 478 442 485 449 507 464 494 466 465 450 452 483 467 473 493 507 448 473 508 499 504 488 492 503 499 492 482 439 463 437 485 462 451 459 478 408 470 473 493 458 484 491 476 466 463 448 465 450 476 469 474 484 476 516 474 467 457 488 433 459 486 485 480 448 430 465 438 463 459 474 503 467 460 465 484 407 482 439 451 483 448 507 465 499 454 489 487 489 499 467 483 442 468 418 462 498 472 460 470 470 452 477 465 491 460 477 523 464 438 473 445 496 481 486 493 459 478 443 480 470 529 424 471 445 476 522 477 435 456 424 474 451 479 453 459 441 420 426 478 466 449 468 467 444 418 444 503 464 444 457 457 429 435 435 424 468 411 454 488 450 437 498 418 461 427 440 457 448 453 434 495 447 451 479 426 453 434 431 479 443 466 411 439 439 480 468 448 434 436 403 399 440 467 432 480 445 460 468 480 456 447 451 480 454 472 477 437 448 460 480 458 443 433 461 436 497 433 446 443 464 465 444 442 484 457 491 423 474 446 474 438 447 469 457 477 472 458 454 467 447 476 446 453 451 454 442 452 420 450 453 461 436 440 532 466 453 470 454 495 471 464 472 504 438 458 441 468 444 487 488 495 448 422 462 428 413 453 484 444 495 441 488 462 466 486 486 456 477 470 458 447 430 464 465 448 480 421 455 501 444 442 457 469 448 499 471 418 481 456 452 430 435 450 463 428 434 448 433 441 461 444 433 428 409 473 428 425 448 419 398 435 440 408 474 425 405 438 421 429 406 418 418 404 416 459 431 400 412 452 424 420 429 427 425 437 430 411 390 453 429 441 423 398 432 435 378 431 427 407 390 422 414 438 425 440 422 413 435 413 454 427 453 427 421 432 382 441 408 421 415 424 431 411 450 446 421 449 411 433 447 423 429 397 476 386 436 422 398 434 453 412 419 419 422 406 405 454 441 468 405 459 403 460 425 475 433 434 428 465 484 476 445 462 472 473 443 458 489 475 484 521 515 494 477 563 551 536 536 583 557 555 547 610 634 603 638 673 610 655 615 696 652 677 733 703 664 691 727 773 718 745 735 805 754 757 783 777 695 751 730 757 736 792 769 759 818 769 873 779 814 730 761 791 820 823 775 774 809 781 842 789 852 845 788 817 829 813 699 783 798 791 793 817 695 765 726 728 713 790 700 694 668 639 655 570 622 615 581 600 604 634 642 568 615 605 598 573 561 572 599 570 624 562 592 570 522 606 542 567 544 564 572 598 575 590 600 606 572 584 569 579 531 559 592 588 531 534 607 606 566 523 577 544 550 565 520 501 532 540 566 525 484 520 549 498 501 498 490 519 491 500 451 504 463 491 467 469 418 436 466 442 418 398 457 380 399 398 425 410 391 391 441 428 398 403 393 437 380 411 418 383 431 393 365 386 381 380 391 407 403 406 413 398 405 402 417 415 420 425 374 451 398 403 442 392 381 391 416 409 408 384 443 416 389 433 390 407 381 384 383 379 392 378 404 381 384 381 443 406 392 446 391 376 378 388 356 365 385 389 406 421 366 420 392 404 423 402 404 395 420 391 391 387 393 441 381 393 389 401 414 384 410 426 447 408 424 430 379 362 422 402 424 379 389 393 406 405 400 415 388 414 396 427 411 396 443 406 417 379 415 373 431 423 429 422 463 401 392 435 440 420 401 460 408 391 425 435 416 408 435 442 409 403 437 422 418 461 413 420 434 448 422 407 426 435 399 441 420 411 389 427 405 432 430 439 464 419 436 436 439 439 454 422 431 427 429 416 398 463 427 462 420 456 434 460 448 415 460 425 468 440 419 464 446 450 451 473 516 480 451 480 449 499 419 491 492 490 511 466 518 520 554 551 504 569 594 618 598 643 692 728 746 804 835 824 913 874 933 1054 996 1129 1146 1273 1240 1331 1401 1514 1564 1677 1619 1734 1798 1844 1846 1949 1936 2002 2094 2093 2134 2214 2291 2379 2389 2478 2594 2599 2650 2729 2697 2718 2752 2764 2754 2697 2865 2774 2830 2962 2974 3074 3040 2942 3062 2943 2972 3055 2892 2873 2905 3033 2910 2926 3001 3003 2913 2969 2877 2708 2702 2608 2646 2508 2400 2491 2372 2353 2171 2265 2162 2045 2031 1903 1916 1778 1836 1777 1757 1704 1651 1560 1558 1510 1445 1420 1487 1430 1308 1391 1368 1478 1353 1363 1377 1304 1295 1369 1349 1457 1321 1336 1280 1362 1357 1349 1328 1383 1407 1323 1295 1303 1333 1285 1305 1341 1343 1225 1240 1303 1237 1226 1326 1261 1169 1182 1222 1141 1145 1115 1114 1070 1062 1021 1096 1083 979 978 967 945 930 927 920 860 873 814 810 833 789 775 775 744 709 661 679 622 645 616 602 557 625 529 618 587 578 540 543 548 525 459 480 467 484 451 440 458 454 446 452 450 435 457 442 419 416 405 402 423 400 442 384 400 427 406 414 374 411 424 430 413 407 409 410 373 429 404 412 412 389 372 391 392 435 423 375 408 389 405 402 384 407 436 401 438 414 439 414 465 441 437 418 438 395 476 430 453 450 494 445 498 512 508 504 470 491 464 483 483 496 465 537 486 567 510 497 509 473 585 536 543 524 527 512 530 507 537 532 530 542 509 581 572 540 544 506 554 544 541 528 533 560 540 511 488 524 537 511 495 524 525 523 461 512 481 500 492 501 465 470 487 426 461 485 454 484 456 449 447 420 465 443 453 462 464 448 397 455 424 435 432 453 428 459 425 422 426 402 462 458 418 449 441 440 455 438 445 413 391 413 411 423 432 420 372 467 394 387 426 416 397 382 375 374 401 398 379 361 370 370 387 358 386 348 345 354 375 347 327 346 349 350 369 318 328 343 335 365 381 320 329 352 331 347 331 369 375 347 347 311 329 368 328 351 351 328 361 360 327 327 354 315 354 346 362 317 347 359 344 331 362 305 364 304 370 356 369 310 344 340 326 355 346 344 376 325 345 319 339 337 328 340 313 299 369 327 329 336 341 357 339 315 302 311 324 341 325 285 299 330 305 355 324 310 316 347 331 334 388 329 342 310 321 342 315 337 348 315 318 340 334 328 315 316 335 325 335 345 311 320 322 352 312 337 306 333 319 319 364 336 312 379 372 332 322 266 342 316 342 321 302 279 315 310 339 340 317 331 335 316 310 318 327 308 319 368 314 313 305 334 329 319 308 292 268 333 289 341 301 309 308 308 305 304 330 346 309 330 346 289 309 289 322 333 349 267 353 290 331 304 296 335 283 299 310 344 322 309 322 321 312 309 348 307 339 322 311 327 318 294 333 305 343 329 324 304 313 271 293 306 307 284 304 292 336 315 314 297 314 319 301 296 282 269 291 317 281 321 320 320 315 345 315 311 312 368 308 309 300 302 309 332 321 318 311 303 318 292 310 315 326 306 312 273 315 336 287 305 337 277 295 322 290 291 316 322 282 312 283 296 329 289 297 298 305 299 299 277 317 278 296 309 300 287 304 282 303 338 320 293 315 290 325 331 316 321 303 300 281 291 300 304 292 297 313 300 301 323 300 328 307 304 336 282 290 329 302 270 302 295 306 328 303 326 306 313 331 307 288 296 304 293 328 317 285 312 339 325 307 304 296 304 318 299 310 315 292 308 346 302 284 315 310 307 315 316 313 300 306 309 296 306 299 301 343 305 308 304 321 307 291 301 343 272 333 287 311 301 298 320 329 288 286 315 269 288 327 314 292 336 302 297 286 327 321 297 302 312 301 297 304 336 313 316 320 304 279 297 297 284 316 300 330 292 293 332 299 314 298 316 308 316 316 306 307 315 329 326 340 313 328 297 305 302 324 350 319 322 320 356 347 345 371 334 328 355 369 365 312 346 358 378 387 323 335 342 394 372 330 367 375 368 363 392 389 396 410 378 423 416 385 373 408 420 408 444 456 443 442 454 468 455 523 551 514 572 549 539 531 602 610 643 689 751 748 755 762 770 806 823 828 907 960 893 938 983 955 1017 992 995 1055 1075 1091 1017 1113 1162 1123 1155 1140 1164 1175 1172 1195 1273 1207 1254 1350 1287 1296 1285 1305 1370 1313 1297 1386 1275 1307 1252 1294 1208 1241 1255 1171 1148 1133 1139 1091 1113 1046 1018 934 899 1017 934 895 852 834 767 811 733 688 724 670 712 617 632 598 563 538 590 543 597 559 526 537 562 536 546 529 521 537 570 513 553 512 532 529 518 515 533 552 501 543 537 526 552 583 558 565 579 577 561 532 581 569 563 598 572 577 551 546 576 526 552 517 585 529 543 577 508 558 521 510 498 499 484 462 531 492 461 431 428 462 471 452 419 400 505 398 431 428 384 425 424 380 398 387 374 350 373 358 316 381 367 333 328 330 313 342 353 327 337 318 340 334 322 319 340 329 278 318 346 303 287 285 303 318 313 312 312 308 312 283 326 283 300 314 292 301 309 280 291 306 260 296 321 311 301 300 286 309 312 308 330 286 312 303 305 315 316 288 304 296 282 314 326 331 336 331 315 300 314 324 302 328 313 289 332 342 339 334 367 322 337 339 335 328 346 373 362 362 359 403 409 415 406 428 456 434 485 495 489 518 527 607 587 587 565 663 591 679 691 715 763 887 850 947 932 885 886 902 884 881 954 957 1003 987 1021 1104 1167 1303 1318 1320 1310 1309 1265 1240 1216 1201 1285 1258 1262 1217 1261 1347 1415 1465 1550 1531 1557 1577 1633 1569 1612 1538 1401 1485 1316 1324 1350 1221 1221 1211 1192 1122 1109 1132 1109 1080 1031 1008 934 893 871 880 758 794 720 694 689 666 660 611 647 593 594 528 585 571 583 583 528 493 547 572 496 575 511 527 544 524 503 501 529 470 542 564 529 548 529 538 495 528 486 518 565 598 561 599 572 529 554 558 548 593 533 543 574 578 540 538 560 572 505 564 555 569 578 556 585 621 558 578 534 524 592 581 583 593 599 577 579 579 601 591 567 576 571 552 557 588 544 603 580 533 595 589 590 538 554 588 574 577 520 542 481 561 553 533 513 496 498 513 487 524 496 488 471 490 443 483 465 464 439 480 458 436 423 433 451 454 416 447 453 430 411 442 379 433 397 397 362 412 417 403 408 416 371 451 406 378 436 390 455 422 459 432 468 470 427 443 461 464 415 438 410 444 412 455 408 407 465 429 454 471 465 433 459 451 441 403 425 417 423 419 443 404 405 388 403 346 348 338 341 351 369 308 337 384 333 343 353 352 325 286 331 285 293 300 295 316 294 273 281 312 280 305 285 310 288 294 277 301 322 286 260 311 295 288 292 247 277 306 297 282 270 294 311 293 319 291 306 284 267 302 326 324 301 296 291 312 329 312 328 311 352 347 326 327 401 330 324 332 339 340 353 358 326 331 344 369 327 348 338 371 314 360 361 353 333 367 352 350 363 364 363 359 380 369 336 343 375 332 369 355 371 349 368 375 341 345 353 334 355 322 320 327 323 332 304 317 306 300 277 319 290 319 294 297 279 265 297 260 279 273 291 280 247 261 234 287 216 262 261 234 269 240 248 258 274 235 209 240 270 272 245 230 269 215 284 270 273 271 263 233 220 261 223 220 237 247 239 214 231 272 233 231 217 237 232 243 241 233 242 261 226 230 219 226 226 235 209 228 259 224 217 264 219 218 229 228 215 248 228 225 240 226 235 222 262 227 233 220 210 220 231 229 227 210 248 230 243 229 212 231 246 203 239 210 208 204 237 214 228 222 214 240 224 274 221 235 240 239 218 205 250 225 211 217 205 216 208 223 220 200 230 218 249 260 222 240 227 241 264 224 212 206 219 225 240 256 230 227 227 236 259 235 232 236 206 235 234 211 224 273 229 226 227 236 219 193 200 197 216 213 231 248 235 231 209 240 208 225 261 216 243 205 247 217 201 209 214 228 184 216 203 238 211 205 232 231 207 202 231 236 207 205 195 197 235 218 217 233 235 206 219 203 206 211 210 228 212 208 215 229 202 204 213 226 222 225 227 208 193 235 239 197 208 202 186 231 218 219 206 195 216 207 223 226 246 268 221 232 212 226 218 217 237 218 198 234 221 210 182 237 245 192 240 230 258 203 214 219 192 216 206 226 226 217 188 222 246 217 217 204 234 230 228 219 235 249 238 221 214 187 233 227 200 238 210 229 234 220 202 212 219 246 213 245 236 236 229 233 236 224 237 266 228 234 274 229 238 259 246 231 247 269 244 222 257 238 259 301 310 295 271 283 282 292 290 321 322 308 304 321 312 321 354 354 340 334 356 333 339 351 349 324 353 369 327 359 343 352 389 338 306 334 340 313 340 346 336 310 304 305 314 289 291 293 317 330 301 264 298 279 281 266 283 281 266 257 295 238 258 305 231 243 227 264 236 211 275 224 230 241 216 233 235 213 232 220 261 218 238 229 218 229 222 220 225 205 224 227 243 236 228 257 221 209 272 232 227 241 228 249 258 223 221 237 261 246 238 208 231 227 237 277 259 221 223 242 228 225 269 213 244 241 262 235 223 221 228 246 190 230 230 243 214 215 214 225 210 260 230 225 212 204 234 225 200 234 221 225 223 210 241 237 203 238 205 221 205 198 217 185 226 226 222 223 223 240 239 204 205 182 207 217 235 235 239 201 221 216 219 199 204 193 224 218 197 207 214 200 217 204 217 205 189 183 188 223 202 224 200 219 216 203 223 219 190 210 195 212 193 227 212 214 214 193 205 201 185 201 201 210 194 194 189 186 191 207 208 188 234 218 194 203 218 220 210 213 209 195 205 203 233 196 228 193 228 206 214 212 234 212 197 189 198 185 202 198 206 203 221 220 223 231 205 195 219 195 223 211 210 211 224 227 247 233 219 221 233 258 217 228 236 238 272 269 243 274 293 264 290 297 326 310 300 297 309 301 346 330 350 361 378 386 391 391 391 414 419 454 427 426 414 452 409 475 465 499 531 523 484 519 517 498 497 538 496 517 474 527 529 552 531 543 529 516 548 535 558 514 522 506 515 469 528 452 482 474 432 445 450 442 424 430 392 428 388 387 407 364 350 344 348 349 318 333 324 312 348 321 299 302 303 292 264 249 267 287 291 294 272 234 256 245 260 272 259 258 245 267 265 297 274 263 239 272 283 267 256 290 284 289 265 279 299 302 304 298 278 284 338 315 294 307 287 307 352 322 331 332 293 356 316 354 332 341 335 345 350 368 342 347 322 348 334 360 360 355 334 351 307 337 308 337 334 320 381 332 297 336 348 288 278 277 289 318 293 311 296 247 304 284 234 297 256 277 283 274 275 300 242 271 263 265 260 266 242 224 284 243 278 277 249 238 221 206 246 219 213 226 257 209 237 222 231 265 246 230 229 221 249 238 222 210 233 235 222 240 270 210 239 206 236 221 281 241 258 260 241 256 262 244 260 231 242 218 225 241 194 195 224 233 211 232 204 258 224 227 208 191 209 181 230 214 218 241 211 183 181 236 243 180 214 203 194 192 178 173 207 178 182 218 204 218 228 200 213 212 205 186 222 203 196 165 204 187 221 226 210 188 233 210 201 204 222 199 204 203 167 209 196 192 189 170 219 182 203 187 169 196 203 197 204 169 172 190 218 194 205 188 217 194 179 179 216 210 185 171 177 171 178 204 185 189 213 195 213 169 221 168 203 199 208 204 204 221 197 204 186 198 168 204 195 200 200 172 193 212 201 200 206 178 207 192 225 209 176 202 180 191 185 200 213 195 198 210 214 246 203 217 189 209 185 204 220 214 192 207 177 161 190 206 203 205 211 184 195 188 190 221 194 189 179 195 201 218 170 187 186 187 202 202 209 169 167 201 194 203 200 206 166 205 217 194 203 216 179 188 181 187 180 192 190 195 194 184 173 179 189 188 209 188 182 217 180 179 213 193 191 188 205 185 174 186 224 210 191 201 190 191 195 208 192 195 206 211 185 192 214 197 194 197 225 180 195 183 190 202 179 186 199 204 223 192 185 213 212 207 195 197 185 206 200 195 180 189 195 183 198 192 196 217 202 195 177 193 195 204 181 185 199 218 215 210 242 209 182 225 184 207 212 221 195 197 205 189 205 196 176 200 187 186 181 181 174 176 204 199 199 191 222 193 210 218 198 172 178 178 192 204 199 206 211 218 182 191 192 206 203 209 183 218 233 208 187 200 181 197 201 179 206 179 205 197 220 218 194 218 193 245 206 194 194 211 192 178 189 214 189 208 192 210 207 201 196 199 191 195 198 201 203 214 194 222 230 220 196 199 201 206 188 206 197 186 211 204 188 212 211 201 202 200 246 211 205 204 222 197 178 197 202 229 194 195 191 206 195 220 235 198 239 228 202 207 229 196 196 194 226 216 218 212 216 210 212 214 232 208 235 212 209 201 221 234 243 261 262 232 260 260 232 323 266 246 276 268 261 286 272 292 295 250 299 317 292 319 308 315 313 278 312 313 323 314 311 315 307 296 321 351 313 319 311 306 339 362 362 301 348 355 351 338 324 307 406 341 348 357 361 384 421 423 407 396 433 450 466 505 443 458 451 486 466 448 467 506 506 504 507 530 538 506 477 527 529 520 571 542 574 542 545 568 565 583 602 563 611 587 577 555 565 620 589 524 527 543 521 490 452 475 495 525 495 484 475 452 440 452 422 438 389 390 405 394 428 376 380 336 320 372 362 350 341 315 288 299 304 301 310 292 272 282 260 249 272 275 240 261 292 226 270 270 276 223 258 283 268 269 271 246 270 258 288 284 240 279 258 287 258 269 277 295 282 286 322 325 278 304 269 290 286 272 290 307 342 317 322 324 346 321 348 306 356 312 303 334 326 362 352 325 323 341 373 348 345 341 316 381 355 330 365 349 345 366 363 317 340 343 360 378 332 324 322 336 342 327 305 302 312 311 292 332 308 285 296 306 311 330 304 322 276 294 302 290 281 300 304 273 277 304 304 301 292 295 284 302 305 329 301 295 294 307 311 310 297 295 276 313 314 303 261 289 316 291 342 340 332 330 338 343 351 365 432 354 396 422 399 457 445 441 502 462 519 523 474 519 520 542 533 566 578 638 662 688 685 707 727 788 783 850 822 844 906 886 897 909 928 979 1002 1001 982 995 942 929 981 1007 1032 1082 1073 1063 1010 1052 1098 1045 1058 990 1009 996 942 1001 986 999 928 919 849 857 830 808 714 730 700 720 699 684 663 598 599 623 572 558 528 546 545 489 527 480 470 438 433 425 407 417 390 397 406 349 360 344 345 360 333 351 340 339 328 327 340 314 338 334 327 280 281 288 318 310 335 312 301 345 323 347 362 353 344 343 345 379 334 402 350 355 364 354 360 339 405 410 412 408 425 388 401 411 388 355 418 416 441 403 399 456 439 450 448 430 447 436 437 431 441 451 427 485 430 459 436 467 456 431 411 416 447 412 434 458 425 431 483 446 432 441 449 444 460 420 446 384 480 442 476 488 480 423 463 450 454 464 433 486 409 442 469 399 413 433 439 407 422 400 410 409 395 370 400 394 429 402 408 391 383 387 415 395 388 355 342 345 364 380 362 336 368 310 347 320 339 321 318 360 313 275 325 290 312 287 265 283 274 268 287 293 276 247 261 232 256 244 265 243 248 218 246 239 235 217 228 231 247 214 209 217 202 191 210 230 209 239 257 229 208 196 221 240 220 222 233 227 233 209 218 238 217 188 231 185 226 201 248 218 193 227 195 202 212 188 211 215 232 228 217 211 199 214 195 225 239 259 227 229 219 214 226 233 228 211 217 208 247 238 201 236 214 210 203 241 193 274 219 217 196 234 211 233 211 243 217 213 227 206 232 198 225 240 222 243 241 242 226 217 246 227 218 226 240 215 258 221 240 194 225 230 227 220 224 233 232 236 227 216 238 217 221 208 238 217 240 221 204 192 226 222 219 194 215 195 223 222 228 216 195 204 203 219 202 185 204 219 200 200 194 195 225 195 227 185 213 223 194 188 197 227 196 222 200 224 179 193 200 217 238 189 213 183 199 187 204 178 216 193 209 227 210 214 191 228 182 218 210 188 199 191 200 219 204 185 203 183 220 181 208 196 191 180 207 176 168 207 208 214 210 200 218 197 204 224 208 182 203 238 184 195 182 237 200 204 206 194 213 203 193 200 207 203 221 180 208 191 182 185 238 190 184 196 184 184 198 192 217 178 205 220 213 202 223 209 169 180 204 199 187 188 216 189 211 198 194 210 227 223 195 175 204 190 200 173 204 191 212 195 171 186 192 194 182 181 206 214 189 205 193 226 209 197 204 203 202 199 198 213 222 185 202 220 219 221 189 202 197 182 214 198 191 198 205 195 232 216 188 181 182 201 200 198 193 180 218 192 203 215 180 211 201 220 202 204 194 211 224 201 201 187 215 197 208 196 194 195 208 206 224 191 195 236 225 155 216 182 175 217 183 189 191 219 164 215 226 194 173 185 220 197 208 207 233 203 217 198 188 203 204 222 227 212 229 212 227 236 218 230 189 218 237 259 278 243 228 238 244 262 245 230 268 236 241 262 226 279 217 279 268 281 274 292 284 291 280 246 331 265 292 290 294 288 289 265 283 271 271 268 288 294 263 278 285 288 261 269 261 274 248 272 260 274 261 230 237 228 266 256 212 264 224 257 257 227 236 238 229 217 238 226 210 205 197 238 221 215 205 187 208 230 194 196 211 186 207 212 214 196 215 197 226 195 191 214 206 198 198 191 199 198 224 228 237 223 204 197 199 211 206 222 204 197 224 228 214 193 215 199 224 213 211 210 210 234 186 216 190 229 190 234 202 217 208 230 235 204 216 212 221 206 218 232 208 224 228 224 224 206 211 221 214 214 238 221 219 232 217 244 210 229 244 210 229 190 270 191 232 209 224 226 222 214 236 239 238 196 221 218 218 218 216 226 209 229 234 218 213 213 198 182 215 233 215 215 215 212 209 203 197 209 196 201 226 247 202 227 219 183 219 241 192 202 210 209 217 213 204 218 198 205 184 206 216 238 192 220 223 229 215 174 240 256 185 232 217 227 198 208 218 201 233 221 213 247 266 242 261 234 210 247 224 248 234 236 257 240 229 215 250 273 219 238 265 249 288 295 268 307 316 297 307 313 355 334 317 362 368 386 417 387 447 419 431 450 472 469 484 513 525 594 550 596 601 614 637 628 655 690 617 673 691 722 772 714 772 848 853 840 868 836 823 867 839 893 852 845 813 876 845 821 836 791 814 880 760 846 774 799 702 766 741 799 739 772 675 684 773 668 661 670 649 611 632 584 524 587 516 537 519 502 496 476 456 464 447 466 433 407 402 422 393 400 385 347 367 339 360 331 318 307 335 313 303 329 278 288 265 270 264 278 244 268 259 246 275 279 269 233 238 236 268 221 271 272 261 298 280 235 276 279 285 289 249 262 251 290 289 265 268 293 311 302 310 291 290 299 338 304 311 288 298 282 322 309 309 321 362 328 314 365 338 371 371 364 377 390 340 346 369 386 342 417 340 372 360 362 338 382 364 357 374 426 373 407 383 405 394 392 369 384 383 374 364 370 380 384 375 390 370 370 358 362 340 359 350 326 299 353 361 371 344 338 337 382 366 349 352 326 332 327 359 334 348 326 324 362 352 307 354 340 360 343 334 334 370 288 334 297 344 288 355 322 315 268 284 340 332 307 335 305 308 310 312 304 286 313 288 311 317 292 291 294 306 295 303 271 276 272 283 288 279 285 266 238 244 257 278 268 308 273 250 276 242 232 275 249 237 218 249 236 267 230 242 215 265 239 243 229 232 236 239 220 243 197 210 215 229 258 230 225 201 224 238 234 201 209 214 243 219 227 227 221 223 224 227 208 211 210 227 231 204 219 217 214 195 208 225 209 223 215 226 180 218 228 216 216 235 208 219 219 221 203 217 192 219 192 199 213 221 226 214 198 198 201 218 191 219 189 220 204 190 213 228 220 209 207 216 180 201 242 223 217 194 199 174 208 209 217 201 208 202 211 197 212 188 203 223 210 208 213 196 177 212 197 213 205 189 196 169 212 200 179 182 194 190 204 214 182 209 197 201 201 203 213 226 199 209 192 199 184 173 204 184 191 202 218 213 193 167 210 187 181 213 195 196 192 167 161 219 206 206 206 191 176 222 212 195 176 191 203 208 152 234 212 170 210 210 205 159 184 198 197 195 207 210 192 209 201 218 196 203 177 188 195 196 191 174 228 188 192 187 196 191 204 228 192 217 187 186 220 199 224 199 185 211 195 187 229 194 202 177 228 179 209 237 191 214 206 196 233 215 202 212 206 201 191 188 210 174 212 208 211 198 199 180 210 200 198 198 223 201 208 202 196 231 230 205 207 199 195 209 187 202 220 195 212 211 186 214 182 189 201 179 201 220 192 200 193 192 193 209 186 178 181 237 185 217 192 210 197 178 196 214 206 182 199 211 206 192 192 201 191 186 206 190 222 209 227 195 196 212 203 182 200 203 173 217 203 225 201 217 188 201 173 205 213 233 216 231 231 229 197 239 186 207 233 226 217 197 216 212 201 229 208 223 205 241 239 243 210 225 239 214 215 237 274 258 292 256 279 271 276 262 273 275 310 266 285 290 284 275 313 289 282 350 298 283 349</counts>
			</dataPoints>
		</scan>
	</xrdMeasurement>
</xrdMeasurements>
