<?xml version="1.0"?>
<xrdMeasurements xmlns="http://www.xrdml.com/XRDMeasurement/2.3" xmlns:xsi="http://www.w3.org/2001/XMLSchema-instance" xsi:schemaLocation="http://www.xrdml.com/XRDMeasurement/2.3 http://www.xrdml.com/XRDMeasurement/2.3/XRDMeasurement.xsd" status="Completed" recordIdentifier="{6F303ADE-B07C-489B-8E06-FAE62F383E3A}">
	<comment>
		<entry/>
	</comment>
	<sample type="To be analyzed">
		<id>GPSS_Li1p4Zn0p8Ta0p2Cl4_101325_68ed636b07cf888582f978e0</id>
		<name></name>
		<preparedBy></preparedBy>
	</sample>
	<xrdMeasurement measurementType="Scan" status="Completed" sampleMode="Reflection">
		<usedWavelength intended="K-Alpha 1">
			<kAlpha1 unit="Angstrom">1.5405980</kAlpha1>
			<kAlpha2 unit="Angstrom">1.5444260</kAlpha2>
			<kBeta unit="Angstrom">1.3922500</kBeta>
			<ratioKAlpha2KAlpha1>0.5000</ratioKAlpha2KAlpha1>
		</usedWavelength>
		<incidentBeamPath>
			<radius unit="mm">145.00</radius>
			<xRayTube id="1010048" name="Empyrean Cu LFF HR (9430 033 7310x)">
				<tension unit="kV">40.0</tension>
				<current unit="mA">15.0</current>
				<anodeMaterial>Cu</anodeMaterial>
				<focus type="Line">
					<length unit="mm">12.0</length>
					<width unit="mm">0.4</width>
					<takeOffAngle unit="deg">6.0</takeOffAngle>
				</focus>
			</xRayTube>
			<sollerSlit id="21010002" name="Soller slits 0.04 rad.">
				<opening unit="rad">0.0400</opening>
			</sollerSlit>
			<mask id="22031000" name="Fixed mask 13 mm">
				<width unit="mm">9.00</width>
			</mask>
			<divergenceSlit id="22120001" name="Divergence slit 1°" xsi:type="fixedDivergenceSlitType">
				<distanceToSample unit="mm">50.00</distanceToSample>
				<height unit="mm">1.52</height>
			</divergenceSlit>
		</incidentBeamPath>
		<sampleMovement xsi:type="spinningSampleMovementType">
			<spinnerRevolutionTime unit="seconds">1.0</spinnerRevolutionTime>
		</sampleMovement>
		<diffractedBeamPath>
			<radius unit="mm">145.00</radius>
			<antiScatterSlit id="22090040" name="AS slit 9 mm (PIXcel)" xsi:type="fixedAntiScatterSlitType">
				<height unit="mm">9.00</height>
			</antiScatterSlit>
			<sollerSlit id="21020003" name="Large Soller slits 0.04 rad.">
				<opening unit="rad">0.0400</opening>
			</sollerSlit>
			<filter id="20030001" name="Large beta-filter Nickel">
				<material>Ni</material>
				<thickness unit="mm">0.020</thickness>
			</filter>
			<detector id="7010019" name="PIXcel1D-Medipix3 detector" xsi:type="rtmsDetectorType">
				<phd unit="keV">
					<lowerLevel>4.02</lowerLevel>
					<upperLevel>11.27</upperLevel>
				</phd>
				<mode>Scanning</mode>
				<activeLength unit="deg">5.542</activeLength>
			</detector>
		</diffractedBeamPath>
		<scan appendNumber="0" mode="Continuous" scanAxis="Gonio" status="Completed">
			<header>
				<startTimeStamp>2025-10-17T15:30:00-07:00</startTimeStamp>
				<endTimeStamp>2025-10-17T15:38:07-07:00</endTimeStamp>
				<author>
					<name>AutomatedUser</name>
				</author>
				<source>
					<applicationSoftware version="1.7b (136)">PANalytical Aeris Instrument Suite</applicationSoftware>
					<instrumentControlSoftware version="3.2.00000000 20240306">AERIS</instrumentControlSoftware>
					<instrumentID>950485</instrumentID>
				</source>
			</header>
			<dataPoints>
				<positions axis="2Theta" unit="deg">
					<startPosition>10.00943322</startPosition>
					<endPosition>99.99442286</endPosition>
				</positions>
				<positions axis="Omega" unit="deg">
					<startPosition>5.00471661</startPosition>
					<endPosition>49.99721143</endPosition>
				</positions>
				<commonCountingTime unit="seconds">12.495</commonCountingTime>
				<counts unit="counts">2848 2867 2862 2788 2938 2875 2901 2868 2876 2900 2764 2842 2836 2776 2857 2942 2967 2921 2851 2827 2864 2798 2859 2858 2966 2904 2926 2877 2975 2865 2893 2952 2953 2765 2809 2894 2904 3018 2825 2956 2814 2944 2791 2846 2963 2973 2931 2853 2896 2847 2935 2941 2940 2960 2889 2831 3005 2903 2909 2864 2878 2876 3017 3010 2906 2955 3018 2939 3044 2978 2928 3034 2941 2927 2924 3094 2937 2938 2950 2818 2947 3105 2938 2975 3063 2979 3009 3110 2932 2981 3021 2968 3032 3005 2945 2914 2970 2927 2941 3031 3077 2996 3048 2943 3051 3030 2916 3027 3099 3061 3037 3090 3078 3052 3057 3095 2993 3008 3096 3109 3104 3098 2983 3032 2962 3023 3073 2986 3038 2946 3058 3025 3044 3051 3161 2998 3131 3113 3043 3054 3036 3162 2932 3107 2993 3201 3104 3037 3058 2962 3058 3141 3115 3091 3076 3087 2982 3028 3049 3088 3048 3034 3112 2912 3106 3006 3160 2980 3031 3161 3068 3102 3027 3024 3059 2955 3037 3025 2956 2961 2981 2993 3054 3043 3109 3048 3095 3113 3045 2932 3047 3062 3083 2989 3086 2957 2813 2974 2941 2881 3032 2963 3040 3027 3029 3073 3020 2956 3007 3006 2944 2930 2994 3023 3033 2953 3071 2898 3002 2964 3027 2995 2891 2979 3082 2963 2958 2884 2892 3024 2946 2890 2981 2908 2913 3022 3020 2962 2915 2941 2993 3032 2883 2937 3043 3047 2896 2901 2923 2830 3046 2912 2931 2918 2974 2825 2936 2931 2904 3016 2938 2955 2944 2906 3020 2944 2973 2894 2922 2970 2807 2943 2962 2971 2902 2942 3039 2872 2915 2907 2949 2921 2964 2961 2939 2912 3052 2930 2981 3052 2964 2917 2926 2964 3034 2930 3007 2984 2927 2944 2946 2993 3091 3054 2975 3114 3025 2937 3068 3090 3068 3049 2995 2923 3173 3085 2952 3076 3070 2995 3068 3086 2973 3164 3152 3073 3041 3240 3146 3152 3222 3198 3327 3152 3356 3264 3224 3264 3173 3301 3345 3381 3420 3347 3324 3541 3487 3408 3422 3497 3478 3398 3445 3359 3534 3436 3579 3578 3515 3480 3361 3376 3511 3312 3418 3380 3489 3328 3294 3348 3335 3452 3293 3396 3388 3328 3314 3368 3329 3382 3348 3220 3351 3265 3405 3386 3256 3373 3348 3287 3302 3274 3413 3246 3322 3433 3301 3325 3451 3464 3344 3389 3242 3275 3276 3339 3304 3251 3446 3336 3383 3361 3434 3414 3360 3237 3402 3268 3215 3414 3351 3307 3425 3426 3283 3307 3398 3283 3297 3288 3404 3344 3415 3393 3410 3491 3360 3390 3257 3383 3305 3430 3266 3300 3315 3402 3248 3271 3326 3310 3335 3266 3209 3364 3237 3273 3308 3314 3333 3275 3234 3183 3179 3161 3132 3207 3186 3186 3239 3215 3259 3097 3263 3174 3072 3071 3150 3282 3120 3170 3111 3086 3105 3155 3147 3155 3070 3147 2982 3102 3048 3097 3079 3122 3067 3004 3191 3065 3051 3105 3082 3136 3016 2998 3092 3015 3086 3050 3011 2959 2985 3016 3002 2902 3004 2941 2960 2996 2991 3031 3131 3021 2985 3011 3082 2986 3017 2966 2954 3031 3043 2987 2992 2939 3074 3045 3080 3014 3126 3069 3174 3152 3271 3273 3312 3317 3291 3470 3399 3586 3327 3445 3402 3490 3370 3434 3574 3516 3687 3529 3600 3691 3667 3540 3587 3553 3347 3424 3364 3367 3313 3153 3048 3181 3080 3067 3134 3033 2946 3050 2984 2928 2911 2826 2947 2904 2864 2900 2813 2888 2867 2779 2770 2702 2785 2851 2819 2836 2785 2762 2732 2780 2890 2726 2750 2781 2707 2743 2802 2773 2706 2722 2748 2726 2662 2733 2793 2723 2685 2799 2854 2733 2757 2735 2745 2699 2762 2725 2706 2707 2725 2730 2738 2772 2687 2768 2660 2714 2730 2786 2699 2732 2723 2816 2872 2810 2850 2853 2926 2910 2977 2990 2978 2944 3022 3148 2930 3004 2993 2948 2970 2906 3050 2920 2936 2810 2896 2820 2867 2806 2888 2805 2816 2730 2725 2751 2795 2756 2714 2710 2743 2754 2771 2722 2661 2677 2717 2813 2733 2699 2667 2634 2617 2662 2651 2679 2617 2622 2648 2650 2693 2607 2638 2718 2724 2588 2675 2706 2646 2566 2731 2691 2700 2610 2725 2707 2616 2649 2721 2672 2689 2657 2707 2571 2650 2687 2617 2707 2664 2651 2718 2658 2718 2626 2679 2761 2759 2775 2855 2774 2787 2946 2891 3015 3011 3052 3062 3257 3121 3278 3355 3463 3692 3713 3653 3669 3698 3832 3590 3729 3819 3923 3905 3893 3690 3803 3792 3706 3578 3574 3558 3485 3397 3368 3323 3313 3146 3204 3118 3063 3009 2998 3039 2897 2967 2910 2971 2926 2890 2864 2745 2839 2796 2983 2865 2918 2955 2842 2942 2859 2901 2923 2988 2929 2985 2946 2955 2948 2830 2817 2865 2831 2831 2832 2798 2792 2731 2795 2681 2722 2674 2620 2637 2597 2603 2604 2696 2521 2606 2516 2662 2603 2555 2564 2564 2479 2540 2549 2521 2432 2420 2477 2489 2496 2417 2473 2401 2510 2454 2444 2557 2435 2532 2465 2543 2454 2436 2425 2392 2400 2521 2502 2427 2446 2484 2399 2435 2354 2457 2375 2474 2421 2453 2393 2377 2375 2464 2402 2446 2349 2360 2404 2407 2443 2287 2390 2405 2424 2450 2441 2489 2435 2500 2424 2397 2336 2412 2387 2470 2435 2462 2323 2442 2439 2560 2539 2537 2477 2693 2540 2727 2638 2693 2699 2809 2710 2771 2667 2755 2768 2733 2764 2779 2801 2842 2757 2680 2846 2668 2692 2696 2680 2612 2616 2628 2606 2628 2544 2518 2521 2542 2524 2581 2396 2436 2492 2453 2433 2393 2346 2404 2393 2333 2409 2363 2344 2365 2299 2363 2381 2260 2327 2282 2324 2350 2342 2219 2366 2389 2354 2393 2244 2249 2296 2406 2283 2303 2319 2296 2394 2299 2235 2385 2277 2313 2256 2308 2344 2364 2335 2337 2279 2321 2240 2306 2298 2212 2401 2330 2263 2316 2215 2310 2254 2250 2319 2409 2226 2325 2318 2294 2326 2330 2301 2300 2317 2267 2275 2333 2360 2351 2280 2393 2356 2299 2299 2255 2325 2319 2314 2220 2313 2145 2302 2283 2306 2274 2314 2343 2319 2326 2398 2245 2299 2264 2378 2332 2378 2321 2389 2274 2444 2377 2416 2330 2392 2319 2305 2273 2339 2471 2349 2320 2415 2259 2323 2346 2320 2372 2392 2333 2414 2243 2306 2262 2292 2314 2349 2235 2488 2352 2375 2308 2220 2375 2278 2307 2456 2434 2317 2551 2385 2422 2419 2451 2407 2536 2538 2519 2672 2500 2562 2583 2494 2488 2502 2369 2415 2455 2557 2377 2536 2359 2286 2403 2345 2384 2324 2356 2299 2206 2378 2265 2342 2224 2248 2229 2248 2271 2232 2185 2184 2218 2256 2232 2180 2195 2202 2195 2238 2208 2205 2232 2139 2165 2160 2157 2174 2163 2145 2179 2195 2114 2186 2104 2167 2179 2096 2208 2162 2159 2136 2183 2167 2180 2174 2177 2156 2282 2160 2201 2202 2138 2251 2318 2157 2227 2167 2213 2158 2143 2178 2189 2140 2099 1976 2001 2045 2113 2046 2035 2047 2004 2055 1992 2059 2069 2105 2000 1936 2075 1978 2013 1993 2022 2014 2076 2057 1978 1998 2008 2070 2054 2105 2123 2053 2081 2151 2042 2130 2100 2149 2163 2109 2107 2071 2090 2082 2011 2102 2087 2059 2112 2054 2035 1988 2056 2008 1960 1956 1917 1920 1876 1842 1886 1866 1882 1847 1824 1901 1837 1910 1899 1832 1841 1769 1828 1874 1887 1828 1874 1850 1881 1898 1894 1870 1884 2000 1921 1973 1989 2080 2033 2030 2035 1926 2058 2064 2050 2053 2045 2138 1979 2045 1995 2058 2051 1987 1853 1927 1933 1904 1941 1921 1911 1884 1855 1874 1876 1836 1925 1787 1806 1843 1882 1859 1813 1770 1844 1780 1765 1804 1791 1797 1812 1825 1794 1732 1821 1763 1763 1775 1698 1738 1739 1734 1714 1804 1683 1743 1707 1719 1674 1678 1657 1692 1612 1606 1729 1666 1691 1674 1704 1634 1629 1661 1651 1641 1660 1642 1714 1721 1606 1657 1632 1615 1618 1638 1572 1703 1650 1662 1617 1630 1671 1647 1685 1588 1763 1642 1692 1595 1687 1654 1687 1616 1668 1714 1570 1587 1670 1627 1709 1724 1681 1619 1681 1673 1684 1673 1647 1676 1566 1685 1689 1686 1644 1609 1639 1633 1649 1673 1677 1689 1702 1733 1691 1715 1696 1609 1754 1682 1641 1705 1706 1603 1734 1762 1657 1751 1746 1656 1708 1751 1681 1682 1664 1703 1717 1722 1721 1695 1751 1611 1654 1720 1595 1614 1617 1624 1559 1707 1692 1689 1618 1690 1617 1578 1646 1699 1681 1636 1665 1684 1581 1630 1564 1638 1710 1637 1672 1626 1594 1678 1641 1564 1615 1636 1685 1632 1702 1613 1639 1638 1704 1643 1635 1586 1614 1617 1628 1618 1606 1641 1630 1703 1619 1682 1541 1569 1604 1605 1642 1548 1555 1663 1616 1623 1579 1621 1565 1609 1646 1640 1630 1555 1636 1589 1665 1616 1578 1583 1539 1569 1699 1596 1639 1571 1671 1549 1549 1641 1489 1569 1648 1587 1582 1548 1610 1540 1585 1540 1499 1578 1505 1549 1544 1581 1591 1558 1613 1487 1425 1544 1475 1511 1532 1606 1523 1507 1521 1550 1546 1602 1572 1572 1612 1610 1538 1551 1563 1601 1522 1634 1616 1632 1611 1581 1580 1618 1643 1591 1603 1536 1570 1659 1573 1537 1603 1502 1565 1526 1576 1620 1539 1533 1557 1525 1548 1507 1588 1458 1519 1437 1522 1427 1461 1448 1450 1445 1514 1497 1546 1468 1472 1477 1490 1467 1513 1509 1612 1528 1489 1529 1667 1641 1567 1683 1827 1775 1902 1888 2021 2142 2157 2211 2244 2331 2480 2508 2546 2542 2724 2678 2750 2682 2785 2714 2717 2736 2675 2671 2592 2562 2601 2525 2494 2385 2335 2282 2379 2226 2260 2177 2151 2097 2065 2024 2001 2002 1996 2064 2075 1944 1955 1986 1994 1974 1902 1970 1888 1979 1907 1846 1850 1840 1687 1753 1661 1699 1604 1602 1586 1615 1497 1569 1496 1480 1445 1344 1339 1468 1417 1435 1412 1395 1343 1350 1354 1367 1403 1398 1381 1406 1385 1464 1535 1598 1562 1641 1663 1528 1615 1516 1587 1608 1528 1427 1445 1436 1396 1390 1404 1303 1323 1385 1303 1322 1428 1393 1421 1391 1456 1494 1542 1528 1598 1586 1546 1596 1563 1658 1621 1611 1691 1704 1667 1684 1686 1683 1730 1748 1657 1684 1685 1749 1721 1791 1742 1787 1629 1829 1734 1740 1739 1722 1666 1698 1759 1637 1598 1591 1517 1461 1484 1399 1364 1342 1248 1287 1272 1279 1163 1252 1237 1253 1134 1161 1190 1159 1149 1102 1176 1067 1074 1114 1073 1122 1035 1117 1033 1121 1103 1144 1121 1077 1065 1113 1105 1138 1162 1160 1189 1174 1144 1210 1262 1290 1279 1303 1355 1363 1314 1405 1434 1472 1424 1489 1562 1607 1558 1611 1639 1610 1637 1599 1654 1553 1631 1547 1500 1496 1583 1393 1435 1457 1295 1340 1291 1285 1251 1255 1188 1177 1189 1169 1092 1065 1112 1131 1093 1099 1164 1147 1122 1161 1185 1173 1194 1193 1186 1217 1238 1239 1269 1341 1275 1301 1326 1284 1280 1279 1284 1210 1231 1226 1220 1157 1166 1100 1159 1093 1103 1083 1009 1095 1052 1060 1012 1037 1004 1008 1010 991 1036 1048 992 993 998 988 987 974 1079 918 979 964 1003 1030 980 1051 1044 1045 988 1018 1004 1006 990 1013 957 1028 995 1004 1026 992 1047 1056 1136 1142 1122 1186 1216 1207 1241 1321 1309 1284 1395 1306 1334 1275 1366 1347 1404 1377 1391 1472 1484 1574 1558 1753 1832 2001 2029 2064 2200 2244 2324 2388 2593 2532 2720 2656 2702 2690 2801 2566 2686 2528 2658 2581 2523 2498 2306 2342 2210 2125 2017 1923 1941 1831 1793 1660 1623 1551 1501 1399 1354 1324 1219 1150 1145 1138 1075 1049 1087 1020 965 982 996 940 933 961 925 958 857 954 902 901 897 910 896 857 898 844 830 866 888 840 840 877 864 819 859 866 909 865 870 879 886 883 885 851 968 937 985 923 1004 1049 1110 1126 1113 1219 1179 1259 1298 1321 1334 1297 1373 1363 1307 1404 1326 1255 1291 1305 1230 1106 1161 1154 1060 1039 1036 1022 995 984 937 916 942 952 911 915 863 920 898 911 916 917 953 927 950 910 940 975 875 897 910 887 829 825 801 851 865 807 771 845 796 798 779 865 826 876 795 794 831 820 804 794 837 859 867 811 878 842 853 880 854 890 900 880 919 837 828 865 848 876 836 808 849 861 827 821 767 804 767 800 761 815 695 768 746 735 734 748 774 742 757 714 767 737 749 790 774 753 756 726 748 756 752 805 769 726 746 798 758 741 691 728 767 748 754 730 746 730 772 694 723 729 693 785 692 770 673 688 724 716 687 699 689 703 752 686 680 741 761 742 687 714 691 746 686 710 742 691 773 721 761 738 779 747 759 710 805 735 755 758 778 756 735 741 737 749 746 766 721 743 801 719 776 757 747 772 748 778 755 765 810 745 750 786 778 739 795 783 808 798 811 814 883 846 889 919 928 920 955 916 930 936 983 924 915 966 933 926 985 952 932 963 909 887 922 920 915 922 912 927 837 856 884 901 864 846 831 835 799 760 787 782 789 714 765 783 732 770 689 754 722 736 673 708 703 693 679 663 654 700 714 707 662 690 678 682 694 666 677 685 694 704 673 699 639 643 648 658 656 688 673 661 641 680 658 618 673 703 633 659 678 672 641 690 648 638 660 642 667 682 717 694 737 675 685 673 648 699 693 646 674 676 722 728 737 716 700 689 720 695 644 693 668 741 743 732 686 719 757 677 713 683 781 761 724 722 809 790 788 848 864 847 877 806 790 840 798 877 830 836 876 855 851 844 762 777 822 783 741 744 744 706 729 718 684 719 665 684 640 623 661 660 650 648 691 671 586 624 660 626 692 660 613 651 635 619 629 618 627 658 604 641 600 611 632 627 660 612 592 636 662 653 622 655 605 636 644 582 658 668 635 614 670 663 706 679 629 701 694 682 678 661 706 639 684 694 703 641 663 667 620 646 671 647 668 713 650 654 666 699 658 633 627 669 616 644 616 674 640 620 689 617 629 597 648 639 635 632 586 644 616 677 619 672 647 590 610 608 629 586 662 598 624 648 606 629 622 645 648 604 573 642 622 638 608 607 610 651 622 640 606 602 641 628 597 629 581 595 599 682 612 594 609 538 621 570 615 625 615 597 616 622 617 642 602 647 673 708 667 690 644 713 683 767 725 698 723 750 725 745 702 727 701 731 676 712 690 655 678 645 677 674 679 637 654 612 581 597 575 633 644 614 667 630 668 658 621 624 660 673 581 638 604 581 608 654 604 634 620 646 581 598 584 588 644 624 615 603 632 633 634 643 583 607 635 640 661 568 657 600 668 637 606 639 595 628 669 618 614 678 689 653 691 665 684 631 667 605 665 648 653 620 659 653 704 727 642 637 678 617 589 624 595 609 684 607 559 600 619 592 557 599 596 562 548 586 567 583 607 548 593 558 589 575 530 517 572 515 489 552 504 495 570 578 529 550 539 534 512 571 559 587 536 543 568 534 585 555 567 546 579 515 565 579 560 556 562 576 540 550 531 593 555 552 547 560 589 573 576 591 607 558 585 581 613 591 581 631 606 633 577 679 648 605 602 613 667 579 638 567 573 580 571 568 575 562 581 562 562 593 532 545 554 570 511 527 538 582 552 531 528 528 525 526 532 546 528 544 528 549 525 556 533 555 517 562 506 574 548 535 581 568 547 618 609 592 660 601 660 679 680 674 729 750 802 783 803 728 840 750 848 825 782 755 800 788 717 770 785 720 631 670 654 647 674 628 660 597 593 554 587 552 521 557 542 540 575 507 518 535 541 503 560 554 506 536 545 493 468 564 556 547 482 500 581 515 588 575 529 512 551 527 554 549 523 518 505 465 505 463 531 505 464 518 512 453 488 500 463 541 555 492 502 509 483 483 513 521 479 505 466 484 468 495 477 509 509 536 506 565 513 500 567 518 564 559 559 576 559 548 574 487 522 499 520 594 514 549 518 482 496 485 513 539 488 478 504 554 505 532 535 498 527 511 557 500 496 527 538 544 567 536 540 463 548 526 519 520 518 564 514 537 499 564 573 512 535 543 540 544 495 502 556 501 564 541 535 544 534 546 542 536 605 540 548 569 557 572 549 581 576 566 577 613 582 574 616 561 541 561 552 580 593 528 586 599 548 549 557 518 495 544 538 520 541 518 527 516 539 507 531 489 552 486 519 515 531 472 531 490 469 526 490 503 476 489 463 493 466 468 474 488 496 472 459 487 479 481 462 501 415 502 444 450 457 464 475 484 486 476 499 470 441 487 442 471 479 436 477 496 487 465 490 447 505 464 425 477 484 483 544 477 502 469 531 464 555 566 488 569 538 541 559 602 598 613 653 674 683 641 655 653 610 614 629 585 625 595 640 640 613 537 536 523 515 567 513 507 567 531 530 493 489 467 470 484 492 552 461 490 504 528 539 527 501 534 491 503 532 499 523 475 500 487 464 497 475 532 499 470 470 434 467 460 444 486 476 453 457 448 443 466 416 499 450 417 460 458 432 499 419 505 475 438 410 454 446 498 455 493 490 495 497 524 483 516 526 562 524 609 589 620 591 590 576 611 554 596 594 622 615 593 576 546 533 543 554 493 490 491 471 478 503 468 495 506 460 467 500 446 460 464 451 452 464 471 411 471 453 399 480 437 467 484 455 457 468 467 456 473 420 477 420 450 455 449 435 450 450 480 474 482 517 490 478 529 517 467 511 510 509 546 541 513 531 476 514 524 499 496 507 502 528 527 552 479 516 545 539 510 483 480 543 497 470 494 484 480 513 456 489 479 426 446 460 474 446 456 433 486 463 465 459 429 438 456 485 440 472 446 490 472 481 502 539 499 508 503 493 517 513 532 498 506 497 538 548 536 535 527 513 526 519 541 498 521 527 570 548 521 500 539 538 521 533 492 484 512 535 461 509 503 484 497 507 481 450 464 474 482 478 527 486 528 505 507 475 484 512 490 583 530 529 552 499 518 470 534 487 451 497 489 477 442 443 487 448 482 486 457 459 493 426 428 472 437 462 466 431 434 446 428 432 430 392 445 447 429 426 422 454 461 486 459 436 435 414 451 408 462 435 437 437 452 491 457 419 440 430 476 462 443 432 457 416 416 455 436 431 417 411 425 465 474 416 447 461 419 487 444 459 504 513 462 477 476 521 505 517 543 533 559 575 579 596 564 580 599 592 639 637 612 666 664 630 654 664 675 626 677 627 669 610 636 656 629 630 640 632 591 601 549 550 549 537 517 536 533 514 534 518 499 549 551 500 497 516 514 559 525 527 538 528 551 538 538 508 511 575 566 539 518 542 549 532 508 508 541 513 514 504 515 494 483 475 503 523 554 511 541 530 488 494 521 515 507 449 490 480 498 510 485 472 495 501 431 463 497 471 504 505 479 475 467 499 502 495 519 537 501 535 541 589 599 664 689 671 729 704 730 742 729 670 755 748 748 766 774 788 773 778 796 861 922 930 1013 1008 1095 1096 1023 1022 983 973 970 973 1010 906 979 999 977 988 920 924 845 898 830 792 780 732 732 714 692 708 669 685 661 596 580 608 569 575 545 549 558 526 531 520 518 501 486 520 547 515 504 534 526 547 569 594 580 539 561 545 633 570 593 612 593 570 642 598 591 607 548 558 572 569 554 558 554 591 630 634 547 574 567 580 584 585 576 559 515 558 545 537 480 499 485 500 512 506 514 470 451 458 467 431 469 440 458 464 440 477 411 436 421 452 434 406 413 413 429 411 416 432 431 416 408 415 415 418 389 370 416 423 412 433 388 402 401 393 423 385 424 400 427 384 425 423 407 448 418 420 429 447 406 394 377 414 438 405 407 420 439 401 402 395 409 365 379 397 386 383 418 400 391 411 429 379 383 426 406 416 420 416 482 422 458 435 467 429 440 453 479 432 458 461 447 501 456 425 444 419 426 412 431 418 425 421 433 421 442 425 407 395 376 414 445 403 454 397 420 388 398 407 409 391 408 402 440 400 422 422 395 406 444 393 377 352 420 440 390 377 427 397 364 442 406 377 374 442 369 383 407 381 404 411 409 413 433 395 435 415 412 420 426 445 415 427 407 460 427 396 440 412 390 436 392 449 401 423 417 420 447 421 438 434 462 464 440 475 453 424 461 469 454 437 458 458 446 433 459 442 428 479 444 425 448 429 416 400 450 459 432 413 412 419 416 432 425 427 389 399 401 440 435 457 411 430 428 410 398 420 414 424 383 462 432 424 435 450 453 433 424 439 455 459 450 407 450 425 472 454 456 430 493 484 483 504 516 547 573 595 635 641 682 715 719 832 864 868 905 915 934 976 938 993 1035 1003 1036 984 996 1072 952 928 856 886 865 843 788 781 731 724 747 704 706 633 645 595 576 551 542 519 545 533 477 498 470 462 448 475 405 437 430 432 388 464 439 431 412 379 425 408 394 428 425 392 405 402 390 402 400 412 400 435 397 401 411 374 355 387 395 366 396 376 366 390 407 370 383 387 386 376 419 438 322 377 410 353 374 411 386 408 356 340 353 361 365 383 321 331 368 412 343 376 337 388 353 382 363 352 415 366 345 411 332 381 355 376 346 383 331 366 329 361 387 338 348 358 317 379 339 388 362 351 344 385 334 356 389 395 371 336 381 400 384 410 421 383 381 373 414 418 397 411 419 427 397 361 361 421 369 390 413 387 434 365 392 376 413 384 401 414 388 377 382 380 365 375 343 382 425 388 415 392 375 389 406 372 320 379 386 380 373 388 356 392 348 379 342 358 381 337 370 319 354 336 352 386 356 351 322 382 379 363 385 351 382 382 384 376 322 336 354 357 340 387 386 382 320 382 357 368 394 392 373 354 398 350 344 346 358 381 347 362 360 371 368 349 357 396 347 330 389 374 341 366 356 355 338 340 332 347 324 366 375 326 337 328 376 340 357 342 338 357 363 380 375 373 333 378 391 380 378 331 354 367 396 352 387 358 371 405 361 396 338 393 391 357 361 407 373 381 363 343 355 348 345 359 346 346 359 381 352 401 359 337 335 378 324 358 354 336 325 320 359 333 351 322 308 350 340 336 345 339 321 345 337 324 356 362 358 335 344 363 295 374 337 363 330 358 350 365 355 384 340 337 337 319 311 355 345 338 338 334 344 349 338 343 347 327 356 319 327 357 343 341 340 357 335 381 373 353 344 356 397 374 362 345 389 376 378 384 353 377 382 344 382 380 351 383 398 345 372 381 391 378 396 372 408 356 377 394 371 361 367 351 354 388 360 355 344 363 362 384 356 355 376 352 352 366 352 354 355 347 367 333 321 355 328 364 364 336 371 349 335 326 372 372 349 385 395 349 408 398 383 364 416 410 394 414 369 387 426 375 409 403 446 417 426 394 427 444 469 433 416 433 432 400 410 450 422 423 422 403 402 410 402 410 392 424 379 391 387 406 402 413 388 432 378 402 378 385 407 385 372 392 394 393 353 360 341 332 399 403 394 343 391 360 346 338 334 349 366 384 388 359 366 397 330 350 388 339 375 357 366 377 369 365 351 354 395 340 404 374 412 392 395 379 418 383 407 386 414 389 401 412 446 432 420 366 373 410 381 383 419 389 412 359 385 401 412 410 401 419 410 399 403 437 411 429 431 460 434 411 400 420 473 429 424 442 431 405 439 432 413 405 358 409 385 385 400 392 380 362 432 393 376 403 355 421 371 417 361 369 376 362 331 372 374 312 350 361 348 346 323 348 332 319 328 356 356 348 326 354 372 350 347 341 362 350 369 354 340 369 372 351 375 353 370 353 367 362 345 369 333 373 358 337 337 343 320 309 307 338 342 356 344 363 330 355 345 347 341 315 350 330 366 310 337 278 304 319 333 336 301 340 332 304 322 284 345 305 305 318 308 308 314 336 364 337 313 304 306 273 284 316 303 299 346 276 305 312 314 327 309 281 283 299 309 303 263 319 289 297 261 306 300 275 305 274 308 309 287 289 283 323 283 281 316 291 303 317 305 282 314 326 310 324 270 306 282 302 315 290 305 323 286 276 287 298 296 309 266 289 275 297 312 261 295 287 249 309 278 264 249 277 297 285 302 297 290 283 276 282 262 277 284 262 293 272 313 279 306 334 288 271 288 273 319 267 279 290 297 272 297 324 271 312 279 268 321 285 298 289 267 282 306 300 286 279 289 292 309 308 222 294 298 294 325 286 281 302 286 305 271 319 293 287 301 324 327 299 345 302 335 330 339 320 357 340 342 362 337 305 352 349 332 298 324 322 323 339 338 336 317 299 308 266 306 312 296 318 305 322 293 278 309 275 277 301 306 287 303 261 315 271 287 300 308 275 268 276 282 284 286 319 276 259 281 264 279 284 271 303 240 270 298 292 272 276 284 278 271 275 240 256 280 297 282 297 270 293 272 236 280 242 277 272 280 250 279 288 273 265 269 287 317 295 269 302 270 268 264 263 296 248 268 249 284 310 248 293 294 266 280 271 232 269 298 272 280 282 250 306 289 299 266 280 291 301 279 308 316 309 283 304 312 293 299 302 291 302 269 286 270 265 280 271 298 283 305 303 288 296 329 264 321 268 309 266 257 289 297 265 279 278 288 284 298 291 288 276 280 287 261 285 292 291 275 292 291 290 272 286 276 303 288 324 276 299 288 327 301 307 319 323 321 334 349 310 340 291 329 321 303 310 306 257 330 300 317 299 324 314 279 289 319 329 320 332 290 314 268 289 300 304 275 272 288 262 275 301 295 300 300 271 308 269 286 235 270 261 290 258 277 265 266 290 264 242 277 267 231 257 279 270 301 278 264 265 240 283 258 268 279 248 272 266 279 268 245 282 292 303 296 264 282 275 296 263 262 285 273 257 269 282 292 274 288 246 289 269 279 282 285 290 301 262 237 286 233 298 256 260 274 270 273 237 278 249 278 293 294 279 282 318 236 266 266 278 290 248 301 262 259 281 271 277 261 284 305 278 273 280 274 297 289 281 292 279 269 291 262 294 232 260 276 276 285 308 297 263 288 280 290 267 276 274 282 274 310 244 280 264 243 270 271 245 259 298 272 246 264 277 256 277 265 247 223 238 228 263 280 292 239 239 231 260 244 285 242 263 235 248 267 222 239 267 233 231 240 237 276 230 281 242 274 256 272 279 284 277 257 267 265 278 262 240 248 250 241 250 247 278 265 274 261 251 270 274 248 280 233 258 269 267 274 237 231 242 250 230 235 257 241 236 273 293 258 224 240 240 201 282 243 266 277 267 249 224 257 235 259 269 266 267 274 265 231 265 244 241 228 250 240 268 229 271 246 263 268 246 236 272 276 246 234 256 228 271 240 250 245 243 219 249 222 261 233 302 227 211 251 241 281 221 247 277 263 275 237 261 263 250 246 265 267 279 260 277 243 225 267 241 238 274 280 230 244 258 280 220 241 258 277 214 256 259 231 238 242 258 245 212 268 227 244 256 259 270 248 242 259 230 257 225 269 223 245 258 236 257 247 232 218 249 234 215 243 277 222 231 238 223 258 268 234 279 249 268 249 276 274 248 236 283 260 291 238 251 258 294 267 260 242 236 226 268 270 259 246 246 261 246 261 228 242 243 233 227 261 262 241 256 241 260 225 235 266 249 278 270 240 239 230 276 224 272 269 243 249 240 263 259 279 245 287 257 277 246 238 248 264 233 224 272 220 259 267 236 248 241 235 237 250 214 227 237 234 240 228 225 238 228 262 244 221 219 245 243 245 254 240 273 225 246 265 225 235 248 240 238 248 225 227 226 219 235 231 226 242 230 230 250 233 214 246 212 242 231 267 251 270 270 291 261 278 273 269 293 292 250 286 262 299 311 281 280 300 246 258 240 288 289 256 259 271 275 263 271 247 291 260 263 236 277 262 228 275 284 275 261 266 222 238 279 249 267 247 249 261 238 226 231 225 261 235 258 268 215 231 248 242 235 233 250 247 219 235 244 278 235 244 218 250 221 213 259 218 244 238 230 256 218 230 278 273 289 242 269 269 202 285 232 256 250 247 271 261 236 280 234 244 269 245 273 237 267 235 282 231 283 243 247 271 216 277 260 239 223 227 283 269 250 257 281 241 228 244 237 259 231 232 239 241 230 227 216 240 230 294 263 220 236 221 237 229 256 225 242 240 228 222 245 264 270 245 259 257 214 222 234 207 243 261 231 266 202 211 221 239 267 246 204 213 218 218 221 228 232 240 241 218 228 264 244 239 234 229 241 214 223 241 218 244 222 220 240 283 229 246 232 228 231 238 226 212 225 242 202 223 272 271 242 218 239 261 245 265 221 227 270 227 256 234 216 239 223 247 235 228 265 240 249 214 264 270 208 220 219 262 260 228 238 230 221 236 236 231 249 232 240 266 264 214 235 266 230 229 212 237 243 244 258 230 264 241 247 235 244 258 216 258 268 265 262 229 226 275 284 223 259 248 257 222 232 237 263 304 237 241 236 228 262 243 247 239 247 223 265 259 262 238 244 216 276 241 263 258 239 278 238 240 247 247 233 258 260 276 264 234 262 261 237 239 237 248 268 264 262 244 242 256 248 243 256 275 267 244 249 245 268 235 207 256 269 234 249 248 256 224 220 216 225 243 237 264 237 240 219 235 230 265 240 238 225 235 220 221 241 247 240 256 269 250 234 237 233 246 234 226 222 279 236 239 250 250 230 224 248 238 236 232 274 247 250 239 273 257 228 242 246 230 234 244 214 256 220 240 277 243 258 242 274 283 236 266 249 225 257 269 217 260 262 243 275 226 302 235 234 264 268 264 298 236 245 273 269 246 227 260 259 264 237 260 258 234 247 221 235 257 257 238 237 239 237 256 250 273 277 234 269 248 242 245 263 274 274 265 258 262 245 285 261 285 285 293 269 264 286 259 275 267 273 269 274 276 297 295 302 269 299 298 309 319 324 284 318 307 337 347 330 325 301 309 353 325 299 333 326 366 320 345 334 327 339 341 345 385 366 325 382 370 350 324 364 249 297 329 299 303 313 294 291 347 299 278 298 321 269 280 272 295 307 284 296 264 273 270 266 229 271 266 272 281 250 261 237 245 257 265 237 235 227 262 237 275 241 223 238 240 246 257 244 262 240 245 262 231 235 270 229 215 242 230 239 257 227 280 225 222 263 235 244 270 239 240 239 259 220 243 232 227 234 225 221 230 241 236 247 246 210 203 242 240 214 213 214 212 239 267 270 266 216 213 235 266 264 246 233 241 250 238 259 237 234 232 238 246 261 239 227 260 258 247 221 234 242 250 239 229 233 237 261 245 258 240 273 239 230 249 234 266 240 247 282 233 278 270 238 261 271 225 224 274 263 247 267 224 259 238 264 260 274 273 222 268 229 243 244 233 240 234 245 256 232 249 250 262 243 263 211 268 237 261 259 236 220 243 261 227 225 202 242 258 266 229 243 265 234 257 239 219 242 226 238 222 247 221 283 240 241 279 272 263 248 232 243 239 235 225 268 244 232 266 266 249 270 222 248 241 220 225 245 237 271 262 259 263 264 249 267 243 231 225 242 265 270 220 265 233 257 257 246 241 262 229 227 259 246 250 257 269 257 249 242 247 227 231 228 271 238 257 240 235 278 290 269 289 282 268 258 245 275 272 233 289 261 287 289 281 292 271 264 273 263 245 282 269 256 251 262 260 290 264 274 227 271 275 264 274 286 269 266 272 208 258 279 272 267 259 290 257 206 292 239 262 288 274 293 235 279 272 235 265 287 249 263 246 258 274 309 275 271 290 282 272 262 241 283 269 270 305 273 275 269 244 272 276 229 263 246 302 276 257 257 286 268 224 248 265 244 246 296 257 261 289 242 282 264 261 235 225 229 282 277 258 265 260 262 257 235 289 260 263 263 273 247 256 240 298 273 240 242 249 221 282 247 222 264 269 298 265 246 259 257 275 283 270 258 257 281 239 275 296 226 280 278 268 243 290 263 281 267 247 282 280 246 262 262 271 276 268 282 277 250 246 222 286 256 229 292 270 276 278 238 227 287 259 260 289 322 312 278 280 319 277 283 284 267 262 244 275 302 292 244 288 284 281 295 306 325 294 289 291 283 294 294 276 280 256 307 318 294 322 264 248 286 249 281 267 295 271 307 272 289 277 315 286 269 319 280 300 274 291 271 305 318 307 271 273 323 288 295 287 291 277 296 263 264 260 269 300 265 286 265 278 295 260 305 304 312 262 244 307 279 268 279 283 299 275 266 297 290 289 301 292 292 312 280 300 298 329 312 316 285 292 288 284 295 283 305 273 287 225 332 304 298 263 300 276 302 271 274 285 259 249 291 238 280 238 290 263 287 287 237 280 260 266 268 230 288 279 266 264 264 264 239 263 271 221 260 231 244 240 230 256 251 259 246 264 262 227 246 289 272 285 291 241 235 273 257 263 225 237 265 249 221 256 263 283 245 239 220 248 273 224 240 226 265 242 247 249 232 261 240 259 263 289 281 242 242 230 269 259 219 245 269 273 260 232 260 265 276 262 280 243 282 262 249 253 242 250 256 239 274 240 238 275 277 261 263 259 288 243 296 258 291 274 237 258 297 237 288 270 256 265 249 266 277 226 226 284 246 283 267 249 267 246 242 257 263 274 233 301 257 282 273 267 279 281 298 238 264 273 263 281 274 270 312 228 239 274 281 244 282 278 242 281 274 276 244 259 267 273 244 284 247 234 248 223 217 245 258 266 258 247 256 268 250 222 244 237 240 265 226 273 243 256 233 268 237 247 225 269 259 270 264 271 269 245 248 260 228 266 284 257 267 235 262 237 265 257 267 246 248 263 234 256 241 247 258 261 260 247 199 244 242 235 241 223 235 244 222 240 236 216 234 231 191 232 230 228 234 263 231 224 275 244 256 250 258 245 256 235 262 241 257 260 234 269 272 237 278 274 257 244 271 234 220 257 237 232 250 260 265 246 264 247 262 233 245 260 272 241 283 235 245 247 284 239 246 236 257 237 261 260 233 273 232 232 222 236 221 230 265 283 234 240 232 243 235 222 228 218 217 256 222 218 217 238 220 214 225 238 220 223 224 213 270 235 230 241 221 216 238 203 244 236 251 224 214 249 256 264 235 241 244 261 226 229 247 209 243 232 288 232 227 233 223 233 228 229 226 220 220 231 225 239 237 228 233 220 232 226 258 216 237 213 256 260 214 241 226 231 229 232 222 243 233 203 236 246 262 271 236 225 246 221 269 244 284 244 237 230 261 229 221 244 239 258 257 201 210 218 237 247 195 220 249 243 261 257 225 238 246 236 232 232 230 245 223 233 241 225 212 232 245 237 221 250 212 233 220 259 229 241 257 243 235 207 249 241 244 235 256 226 219 212 213 218 210 203 235 243 226 231 235 227 219 257 213 211 248 228 223 212 231 224 222 235 243 231 227 223 234 242 205 232 248 204 230 227 219 214 226 201 207 224 208 198 222 211 207 226 204 224 247 231 205 227 230 221 196 200 230 227 205 242 227 271 203 218 218 231 210 210 240 226 237 243 242 229 247 208 210 195 212 236 207 202 223 203 226 213 221 232 225 236 195 247 219 235 235 220 247 200 203 238 210 222 222 229 226 227 219 212 235 221 260 171 227 220 208 211 216 233 230 241 233 247 236 257 233 212 231 248 211 192 243 232 231 208 234 241 217 237 211 229 214 232 230 224 226 236 241 234 197 234 216 214 202 219 238 215 231 224 210 230 247 245 217 231 235 198 213 247 211 237 235 202 195 246 258 187 230 213 221 218 196 228 232 213 235 222 198 265 198 225 230 242 270 183 227 203 200 205 239 203 200 210 230 217 199 172 232 217 231 233 211 235 237 241 260 261 224 217 256 229 213 246 204 231 228 202 242 259 227 224 191 203 203 212 190 236 205 234 232 227 209 239 221 212 212 210 223 215 205 207 231 208 242 238 222 225 229 225 215 232 216 241 217 218 223 211 240 217 232 221 215 207 219 230 214 229 175 240 198 223 215 218 239 220 231 222 216 218 221 237 233 202 236 207 228 211 224 228 209 227 219 220 221 222 217 209 209 202 218 230 248 199 201 206 218 207 205 195 240 219 208 188 210 193 219 209 197 207 227 207 203 223 228 218 192 240 196 256 230 220 201 219 228 197 224 233 208 222 229 204 199 199 219 228 202 219 259 210 202 195 207 238 235 223 201 215 193 205 207 199 239 211 228 199 203 202 227 214 264 206 193 215 212 214 208 208 207 220 209 233 212 230 227 214 205 237 191 214 226 212 216 232 215 222 241 213 229 218 224 219 213 221 228 220 199 223 235 216 224 196 208 195 219 231 240 243 209 232 210 219 208 225 226 223 212 230 229 216 230 259 218 201 236 225 218 231 225 213 243 214 247 237 212 232 210 276 209 226 228 260 220 206 234 211 235 218 231 237 256 262 243 238 215 247 210 219 247 224 224 238 241 216 248 226 262 204 228 211 233 264 228 269 227 276 238 273 213 234 234 230 236 220 227 245 232 220 233 227 280 248 239 241 230 234 227 220 240 248 236 239 206 223 225 222 202 265 226 239 227 246 238 246 224 233 233 238 212 240 227 238 245 198 232 212 221 231 228 270 227 196 231 232 216 249 216 238 235 247 226 236 241 211 212 212 227 237 245 233 234 220 212 231 221 258 231 249 221 235 222 238 210 227 201 245 236 201 234 229 204 204 211 205 208 220 236 224 204 216 220 204 244 234 212 261 222 218 219 248 227 226 206 228 212 246 238 233 241 216 239 222 233 246 247 226 264 233 231 218 218 288 217 265 229 203 228 223 267 240 245 243 220 223 227 244 218 240 190 242 226 231 244 272 225 233 259 246 240 260 239 230 247 242 234 232 239 280 249 232 234 245 260 230 242 263 242 240 268 234 257 264 207 206 246 241 251 241 221 222 239 257 242 242 241 215 225 225 232 212 229 230 244 231 258 218 226 226 247 220 233 207 233 228 222 207 217 201 223 208 248 225 221 211 196 242 242 246 196 241 247 237 235 207 222 234 235 191 198 220 196 224 226 221 264 250 213 226 228 214 241 206 233 216 237 222 249 235 248 273 317 235 236 235 256 239 245 225 246 258 208 267 237 260 223 216 249 213 240 242 259 261 248 232 270 268 264 273 257 281 267 265 261 301 280 284 273 275 246 282 249 277 330 279 272 249 264 272 244 238 273 238 240 276 282 257 242 266 259 272 290 239 265 219 259 265 221 224 232 234 232 232 220 268 212 228 242 239 234 216 267 222 215 240 227 209 239 218 238 245 276 210 219 239 204 211 211 200 196 218 196 222 184 233 221 226 221 222 228 227 215 208 228 208 215 225 230 195 232 202 194 201 214 222 229 237 231 228 222 202 225 201 205 213 187 198 236 222 197 184 230 204 210 204 203 208 221 201 226 230 215 191 225 215 229 219 221 219 222 202 195 212 200 203 214 198 211 196 247 235 201 219 174 194 186 201 228 223 224 206 190 210 216 230 214 211 223 225 242 206 217 215 219 197 210 212 214 194 216 206 216 195 231 198 229 213 181 241 193 201 175 218 185 212 226 198 204 212 187 223 229 224 226 228 225 206 190 195 180 223 196 194 230 210 231 203 242 220 198 216 222 206 243 228 201 222 203 204 180 233 205 207 218 235 250 200 223 220 229 226 215 233 203 214 207 214 203 203 205 219 228 224 241 216 186 217 197 229 209 218 212 209 209 197 224 224 218 171 224 238 233 234 257 211 237 222 207 235 216 211 205 212 222 214 221 206 212 223 203 227 213 237 259 200 218 208 198 214 225 213 233 211 185 222 216 221 231 209 198 200 213 241 236 222 215 210 197 203 188 245 197 221 215 215 238 180 209 225 179 225 215 202 193 224 217 235 202 197 204 216 210 240 197 220 209 238 219 185 225 207 216 220 217 233 206 208 213 217 230 226 206 207 214 202 224 248 238 188 232 218 219 208 225 207 196 217 224 209 248 246 210 229 204 208 221 225 229 229 211 204 228 228 258 203 220 205 256 262 206 220 239 213 200 227 220 225 225 204 221 206 219 206 227 239 234 231 224 211 221 226 229 235 219 244 216 194 214 232</counts>
			</dataPoints>
		</scan>
	</xrdMeasurement>
</xrdMeasurements>
