<?xml version="1.0"?>
<xrdMeasurements xmlns="http://www.xrdml.com/XRDMeasurement/2.3" xmlns:xsi="http://www.w3.org/2001/XMLSchema-instance" xsi:schemaLocation="http://www.xrdml.com/XRDMeasurement/2.3 http://www.xrdml.com/XRDMeasurement/2.3/XRDMeasurement.xsd" status="Completed" recordIdentifier="{0C45520B-3D67-48CD-B629-7FA6E768BE84}">
	<comment>
		<entry/>
	</comment>
	<sample type="To be analyzed">
		<id>GPSS_Li1p7Fe0p7Y0p3Cl4_121825_6943d914f4d05ae3d69790af</id>
		<name></name>
		<preparedBy></preparedBy>
	</sample>
	<xrdMeasurement measurementType="Scan" status="Completed" sampleMode="Reflection">
		<usedWavelength intended="K-Alpha 1">
			<kAlpha1 unit="Angstrom">1.5405980</kAlpha1>
			<kAlpha2 unit="Angstrom">1.5444260</kAlpha2>
			<kBeta unit="Angstrom">1.3922500</kBeta>
			<ratioKAlpha2KAlpha1>0.5000</ratioKAlpha2KAlpha1>
		</usedWavelength>
		<incidentBeamPath>
			<radius unit="mm">145.00</radius>
			<xRayTube id="1010048" name="Empyrean Cu LFF HR (9430 033 7310x)">
				<tension unit="kV">40.0</tension>
				<current unit="mA">15.0</current>
				<anodeMaterial>Cu</anodeMaterial>
				<focus type="Line">
					<length unit="mm">12.0</length>
					<width unit="mm">0.4</width>
					<takeOffAngle unit="deg">6.0</takeOffAngle>
				</focus>
			</xRayTube>
			<sollerSlit id="21010002" name="Soller slits 0.04 rad.">
				<opening unit="rad">0.0400</opening>
			</sollerSlit>
			<mask id="22031000" name="Fixed mask 13 mm">
				<width unit="mm">9.00</width>
			</mask>
			<divergenceSlit id="22120001" name="Divergence slit 1°" xsi:type="fixedDivergenceSlitType">
				<distanceToSample unit="mm">50.00</distanceToSample>
				<height unit="mm">1.52</height>
			</divergenceSlit>
		</incidentBeamPath>
		<sampleMovement xsi:type="spinningSampleMovementType">
			<spinnerRevolutionTime unit="seconds">1.0</spinnerRevolutionTime>
		</sampleMovement>
		<diffractedBeamPath>
			<radius unit="mm">145.00</radius>
			<antiScatterSlit id="22090040" name="AS slit 9 mm (PIXcel)" xsi:type="fixedAntiScatterSlitType">
				<height unit="mm">9.00</height>
			</antiScatterSlit>
			<sollerSlit id="21020003" name="Large Soller slits 0.04 rad.">
				<opening unit="rad">0.0400</opening>
			</sollerSlit>
			<filter id="20030001" name="Large beta-filter Nickel">
				<material>Ni</material>
				<thickness unit="mm">0.020</thickness>
			</filter>
			<detector id="7010019" name="PIXcel1D-Medipix3 detector" xsi:type="rtmsDetectorType">
				<phd unit="keV">
					<lowerLevel>4.02</lowerLevel>
					<upperLevel>11.27</upperLevel>
				</phd>
				<mode>Scanning</mode>
				<activeLength unit="deg">5.542</activeLength>
			</detector>
		</diffractedBeamPath>
		<scan appendNumber="0" mode="Continuous" scanAxis="Gonio" status="Completed">
			<header>
				<startTimeStamp>2025-12-22T13:52:41-08:00</startTimeStamp>
				<endTimeStamp>2025-12-22T14:00:48-08:00</endTimeStamp>
				<author>
					<name>AutomatedUser</name>
				</author>
				<source>
					<applicationSoftware version="1.7b (136)">PANalytical Aeris Instrument Suite</applicationSoftware>
					<instrumentControlSoftware version="3.2.00000000 20240306">AERIS</instrumentControlSoftware>
					<instrumentID>950485</instrumentID>
				</source>
			</header>
			<dataPoints>
				<positions axis="2Theta" unit="deg">
					<startPosition>10.00943322</startPosition>
					<endPosition>99.99442286</endPosition>
				</positions>
				<positions axis="Omega" unit="deg">
					<startPosition>5.00471661</startPosition>
					<endPosition>49.99721143</endPosition>
				</positions>
				<commonCountingTime unit="seconds">12.495</commonCountingTime>
				<counts unit="counts">3125 3025 2982 3004 2899 3003 2967 3042 2963 3104 2939 3100 2987 3050 2949 2987 3030 3081 3029 3024 3111 2985 2930 3133 3107 2979 2993 3060 3022 2968 3111 3015 2941 2973 3019 3164 2987 3042 3097 3075 3095 3022 3072 3126 3064 3062 3068 3085 3163 3300 3014 3146 3080 3097 3188 3107 3136 3151 3142 3038 3122 3145 3179 3109 3151 3307 3121 3211 3153 3277 3253 3240 3226 3291 3270 3311 3139 3338 3183 3338 3290 3214 3348 3280 3386 3212 3287 3250 3277 3309 3264 3295 3307 3290 3342 3253 3354 3272 3291 3194 3310 3263 3331 3219 3250 3257 3260 3170 3357 3218 3206 3138 3348 3307 3260 3353 3280 3355 3402 3299 3339 3280 3298 3375 3300 3412 3234 3243 3402 3347 3343 3257 3281 3263 3251 3353 3352 3306 3331 3280 3297 3293 3189 3272 3234 3328 3300 3456 3331 3362 3247 3283 3311 3399 3319 3290 3294 3361 3353 3362 3332 3381 3295 3341 3369 3295 3240 3238 3324 3336 3313 3325 3496 3349 3225 3314 3359 3277 3330 3273 3287 3305 3403 3364 3411 3145 3306 3458 3369 3361 3488 3361 3298 3356 3412 3314 3246 3359 3231 3205 3262 3323 3342 3141 3307 3156 3313 3403 3271 3233 3381 3216 3342 3272 3265 3307 3234 3307 3289 3332 3212 3166 3254 3258 3337 3233 3208 3299 3377 3300 3189 3205 3162 3114 3301 3268 3235 3268 3261 3190 3318 3165 3238 3251 3134 3163 3139 3230 3230 3234 3159 3146 3266 3283 3214 3153 3216 3213 3215 3220 3182 3221 3280 3228 3227 3204 3184 3222 3267 3236 3272 3228 3230 3098 3228 3220 3271 3250 3243 3164 3264 3253 3236 3256 3150 3133 3289 3260 3291 3234 3228 3136 3208 3330 3270 3250 3193 3264 3173 3239 3363 3337 3283 3284 3258 3312 3264 3227 3331 3201 3286 3422 3278 3251 3199 3312 3320 3416 3347 3317 3238 3282 3295 3412 3343 3287 3452 3347 3385 3323 3284 3387 3326 3356 3392 3435 3370 3346 3401 3387 3492 3462 3403 3422 3544 3400 3478 3384 3495 3544 3452 3484 3484 3475 3447 3522 3429 3479 3498 3586 3501 3528 3573 3458 3587 3514 3521 3509 3562 3491 3468 3601 3618 3562 3526 3549 3578 3597 3592 3661 3506 3628 3569 3620 3672 3691 3517 3584 3673 3607 3728 3667 3633 3631 3660 3790 3599 3639 3745 3669 3646 3675 3686 3639 3695 3642 3713 3755 3654 3697 3763 3760 3705 3721 3654 3820 3762 3757 3847 3746 3805 3742 3790 3843 3875 3912 3823 3869 4042 3848 3858 3932 3928 3979 4018 4050 4077 4069 4068 4008 4119 4108 4252 4285 4365 4337 4385 4306 4448 4432 4558 4547 4410 4644 4608 4732 4600 4692 4722 4485 4554 4561 4554 4448 4250 4136 4097 4011 3928 3768 3784 3760 3803 3623 3796 3688 3583 3671 3785 3629 3678 3572 3619 3669 3641 3545 3557 3555 3543 3566 3567 3516 3580 3579 3515 3398 3463 3566 3335 3465 3437 3435 3398 3516 3475 3556 3501 3502 3409 3406 3339 3457 3293 3407 3437 3301 3360 3344 3535 3403 3387 3355 3408 3591 3336 3505 3445 3431 3444 3371 3411 3382 3409 3370 3267 3302 3409 3479 3388 3419 3379 3396 3475 3552 3439 3538 3537 3510 3448 3512 3595 3577 3451 3511 3410 3518 3395 3434 3392 3410 3314 3299 3433 3221 3166 3262 3243 3232 3240 3231 3252 3196 3189 3294 3205 3202 3229 3155 3156 3142 3172 3247 3126 3260 3159 3171 3235 3203 3094 3170 3131 3194 3161 3185 3233 3147 3117 3129 3209 3152 3117 3036 3117 3166 3099 3247 3153 3144 3126 3070 3218 3076 3112 3098 3141 3069 3063 3134 3190 3060 3149 3079 3191 3064 3062 3049 3120 3065 3072 3080 3115 3163 3007 3050 3054 2954 3053 3058 3033 3145 3027 3064 3099 3009 3072 3034 3244 3054 3062 3024 3139 3034 3010 3034 3141 3066 3174 3106 3038 3054 3121 2994 3178 2960 3071 3109 3041 3095 2995 3100 3153 3139 2994 3082 3122 3220 3178 3240 3096 3102 3230 3267 3298 3264 3339 3365 3256 3236 3245 3273 3261 3263 3294 3244 3139 3248 3285 3178 3169 3153 3160 3172 3062 3061 3089 3049 3104 2990 3019 3036 3055 2977 2960 3021 2984 3050 3020 2980 3153 2976 2921 2955 2982 3091 3050 2957 2980 2968 2986 3020 3054 3001 3019 2891 3002 2930 3020 2923 3044 2971 3029 2938 2900 2861 2919 2947 3011 2906 2899 2965 2938 2975 3065 2948 2908 2921 2880 2968 2901 2908 2896 2895 3040 3076 3030 2978 2805 2914 2899 2922 2848 2924 2925 2937 2884 2998 2963 2903 2958 2985 2876 2932 2905 2941 2969 2926 2899 2952 2881 2943 2923 2897 2939 3017 2955 2850 2921 2846 2869 3014 2955 2889 2886 2931 2754 2808 2905 2930 2892 2894 2959 2952 2952 2806 2856 2838 2892 2867 2907 3001 2818 2867 2938 2812 2894 2764 2752 2809 2924 2799 2878 2871 2919 2928 2833 2906 2948 2908 2874 2817 2812 2837 2868 2878 2802 2913 2764 2801 2878 2909 2854 2833 2876 2868 2750 2883 2842 2837 2836 2831 2810 2795 2773 2829 2767 2778 2853 2894 2811 2836 2779 2768 2859 2772 2854 2812 2823 2739 2816 2727 2810 2800 2838 2753 2779 2807 2850 2797 2706 2714 2680 2707 2776 2667 2732 2744 2726 2789 2746 2801 2779 2816 2787 2834 2761 2772 2691 2736 2742 2753 2706 2755 2848 2767 2705 2771 2769 2802 2815 2721 2729 2761 2736 2670 2722 2752 2759 2696 2745 2685 2773 2663 2852 2738 2837 2785 2669 2734 2693 2635 2732 2743 2791 2661 2676 2804 2662 2755 2771 2705 2829 2786 2708 2715 2761 2755 2686 2708 2731 2770 2755 2777 2697 2701 2787 2720 2785 2679 2718 2774 2686 2782 2716 2709 2768 2817 2725 2682 2818 2759 2747 2617 2680 2731 2841 2778 2756 2693 2693 2674 2669 2624 2761 2779 2647 2670 2820 2762 2740 2797 2704 2626 2781 2647 2696 2618 2721 2704 2588 2606 2751 2712 2702 2640 2622 2725 2703 2770 2735 2727 2656 2688 2734 2689 2720 2745 2634 2756 2675 2676 2699 2736 2618 2715 2720 2675 2760 2744 2664 2691 2566 2685 2717 2737 2659 2641 2684 2720 2696 2653 2618 2642 2681 2701 2808 2798 2848 2607 2758 2733 2768 2750 2742 2652 2699 2690 2762 2699 2638 2773 2780 2672 2810 2739 2698 2727 2742 2755 2739 2791 2799 2847 2711 2791 2770 2720 2871 2705 2818 2816 2826 2813 2789 2823 2717 2684 2703 2767 2685 2709 2797 2780 2654 2714 2803 2728 2714 2711 2816 2652 2730 2638 2668 2622 2691 2642 2847 2677 2625 2723 2783 2646 2659 2644 2733 2626 2711 2727 2676 2659 2625 2753 2616 2677 2599 2704 2534 2626 2679 2626 2665 2606 2766 2738 2647 2560 2636 2727 2655 2687 2694 2677 2614 2669 2687 2702 2726 2580 2545 2636 2557 2553 2502 2575 2553 2658 2622 2629 2525 2576 2583 2570 2568 2568 2631 2570 2564 2508 2574 2603 2562 2444 2588 2566 2518 2555 2521 2609 2439 2495 2513 2546 2561 2454 2513 2498 2440 2561 2461 2438 2524 2390 2447 2497 2412 2542 2409 2467 2438 2467 2474 2420 2378 2437 2442 2441 2461 2366 2434 2367 2414 2390 2415 2360 2377 2389 2396 2415 2380 2373 2434 2424 2392 2507 2430 2404 2329 2351 2394 2295 2389 2300 2422 2407 2306 2346 2371 2352 2486 2395 2325 2463 2411 2507 2454 2462 2410 2489 2491 2411 2353 2403 2473 2440 2392 2520 2435 2308 2297 2386 2345 2320 2261 2340 2320 2190 2253 2222 2238 2310 2244 2191 2188 2175 2250 2213 2209 2310 2211 2220 2201 2230 2243 2237 2207 2256 2183 2134 2218 2155 2169 2160 2164 2228 2213 2165 2205 2234 2246 2173 2121 2180 2139 2175 2152 2112 2176 2142 2142 2090 2140 2149 2186 2208 2110 2245 2163 2167 2184 2139 2153 2176 2143 2200 2205 2257 2093 2099 2131 2173 2170 2187 2211 2159 2179 2128 2174 2212 2125 2108 2154 2174 2102 2087 2102 2162 2157 2155 2210 2115 2123 2127 2225 2115 2181 2203 2205 2140 2173 2215 2196 2155 2177 2258 2278 2145 2254 2212 2245 2160 2111 2258 2234 2266 2235 2245 2098 2175 2203 2163 2184 2224 2215 2198 2172 2124 2205 2303 2239 2299 2213 2142 2204 2215 2193 2260 2256 2151 2185 2197 2287 2166 2170 2284 2218 2231 2203 2197 2208 2240 2271 2094 2147 2193 2244 2167 2172 2132 2200 2231 2238 2248 2188 2134 2224 2128 2202 2231 2211 2196 2189 2148 2226 2221 2174 2156 2256 2183 2170 2211 2208 2171 2288 2184 2303 2187 2215 2218 2240 2278 2086 2122 2189 2128 2173 2156 2227 2205 2203 2238 2249 2177 2135 2182 2184 2185 2175 2252 2102 2258 2257 2154 2164 2200 2304 2142 2206 2199 2269 2188 2302 2254 2227 2185 2225 2124 2123 2186 2182 2171 2299 2250 2241 2242 2187 2253 2254 2237 2209 2110 2131 2129 2235 2215 2152 2215 2244 2200 2337 2114 2242 2290 2240 2125 2255 2172 2242 2256 2170 2172 2181 2206 2132 2230 2188 2185 2190 2220 2131 2233 2225 2194 2219 2119 2042 2090 2160 2123 2062 2060 2026 2101 2118 2177 2052 2089 2109 2086 2086 2119 2130 2144 2105 2078 2074 2069 2112 1934 2185 1962 2061 2048 2016 1962 2089 2077 2008 2064 1992 2035 2016 2033 1975 1954 2027 2081 2091 2061 2019 1996 2021 1947 2003 1949 2036 1969 1862 1861 2011 2000 1967 2010 1940 1988 2006 2010 1986 2050 1900 2018 2000 1986 2016 1857 1923 1933 1912 1931 1912 1937 1979 1985 1891 1919 1911 1930 1917 1940 1934 1931 1905 1886 1942 1947 1922 1884 1990 1954 2023 1860 1956 1854 2011 1888 1948 1933 1893 1903 1875 1989 1929 1910 1951 1894 1862 1860 1862 1985 1908 1920 1919 1901 1828 1860 1897 1933 1828 1884 1913 1919 1816 1937 1812 1971 1836 1982 1932 1976 1909 1928 1941 1907 1868 1961 1853 1932 1904 1975 1902 2049 1972 2052 1952 2041 1990 2047 2137 2068 2025 2135 2044 2193 2141 2294 2214 2356 2297 2343 2379 2509 2498 2443 2546 2490 2548 2591 2565 2663 2726 2627 2567 2623 2586 2512 2529 2375 2266 2247 2221 2262 2176 2089 2042 2091 2008 1914 1938 1950 1907 1982 1878 1897 1867 1792 1883 1807 1968 1812 1777 1924 1783 1783 1800 1764 1816 1809 1819 1785 1926 1857 1859 1769 1893 1847 1822 1784 1756 1788 1851 1708 1856 1790 1784 1878 1778 1866 1795 1701 1727 1807 1811 1787 1856 1805 1756 1790 1759 1717 1705 1785 1773 1799 1781 1824 1827 1842 1839 1761 1831 1863 1877 1893 1912 1923 1890 1867 1926 1954 1925 1987 2099 2056 2029 2092 2086 2081 2155 2212 2167 2182 2200 2331 2343 2436 2372 2491 2466 2499 2517 2583 2625 2557 2688 2750 2641 2872 2785 2798 2848 2962 2798 2790 2816 2758 2760 2616 2545 2487 2384 2305 2277 2249 2237 2204 2142 1997 1945 1934 1920 1849 1878 1874 1841 1838 1755 1815 1778 1828 1781 1943 1779 1884 1838 1830 1724 1741 1807 1844 1749 1767 1743 1727 1754 1717 1795 1717 1639 1698 1703 1729 1713 1674 1702 1703 1706 1727 1613 1727 1689 1602 1691 1642 1724 1718 1715 1628 1727 1673 1680 1711 1686 1656 1612 1680 1640 1661 1604 1685 1604 1665 1663 1716 1642 1708 1645 1701 1636 1645 1638 1681 1700 1722 1732 1748 1637 1724 1606 1680 1773 1607 1703 1644 1757 1744 1720 1680 1797 1858 1788 1830 1771 1809 1824 1790 1876 1871 1953 1880 1962 1910 1977 1947 2031 2088 2093 2084 2103 2155 2182 2231 2361 2331 2391 2618 2558 2710 2775 2759 2750 2852 2804 2997 3024 3035 3051 2977 2894 2850 2793 2611 2548 2475 2344 2293 2098 2199 1963 1951 1907 1832 1727 1742 1756 1718 1671 1664 1665 1669 1654 1656 1652 1685 1627 1665 1661 1635 1650 1705 1702 1712 1675 1668 1634 1699 1660 1675 1704 1667 1803 1747 1681 1654 1718 1664 1718 1783 1781 1730 1731 1793 1733 1755 1729 1708 1740 1703 1713 1698 1622 1656 1676 1639 1630 1635 1631 1622 1638 1664 1661 1608 1621 1646 1653 1704 1618 1643 1671 1718 1663 1737 1685 1706 1636 1723 1742 1756 1749 1720 1798 1749 1696 1701 1790 1755 1813 1838 1772 1761 1777 1871 1778 1748 1785 1850 1812 1758 1672 1748 1737 1756 1805 1805 1795 1743 1696 1719 1654 1749 1720 1686 1698 1714 1727 1706 1719 1679 1677 1743 1666 1601 1646 1569 1656 1599 1670 1623 1599 1642 1689 1568 1649 1639 1616 1595 1563 1550 1605 1678 1657 1630 1601 1664 1573 1515 1552 1632 1581 1658 1601 1550 1621 1607 1686 1644 1585 1631 1638 1613 1567 1612 1547 1608 1626 1616 1560 1662 1629 1646 1572 1628 1603 1594 1633 1638 1671 1704 1699 1668 1649 1632 1591 1722 1731 1733 1741 1781 1826 1731 1763 1829 1754 1794 1739 1766 1807 1909 1821 1843 1863 1795 1884 1841 1963 1838 1850 1796 1827 1847 1796 1818 1752 1765 1728 1746 1642 1688 1673 1693 1674 1669 1673 1687 1688 1623 1729 1685 1724 1739 1644 1734 1706 1715 1780 1774 1760 1741 1853 1847 1897 1902 2075 2105 2162 2191 2229 2295 2316 2449 2476 2556 2545 2688 2796 2839 2928 2981 3085 3280 3429 3512 3626 3834 3935 4108 4367 4531 4819 4920 5016 5213 5327 5682 5801 5708 5641 5988 5581 5629 5288 5494 5074 5000 4693 4554 4215 4096 3726 3737 3340 3190 3086 2935 2707 2683 2394 2408 2376 2338 2226 2213 2187 2074 2055 2005 1980 1905 1855 1991 1906 1847 1833 1893 1730 1774 1757 1866 1782 1790 1772 1742 1751 1718 1740 1724 1752 1682 1689 1685 1707 1733 1680 1679 1724 1636 1744 1602 1719 1664 1638 1700 1622 1691 1636 1720 1710 1708 1776 1751 1658 1696 1702 1737 1620 1626 1768 1675 1745 1631 1748 1694 1774 1756 1694 1737 1708 1707 1697 1753 1721 1760 1658 1716 1651 1672 1670 1723 1671 1626 1744 1661 1647 1649 1619 1656 1618 1690 1588 1630 1571 1621 1597 1636 1611 1625 1594 1600 1608 1667 1626 1562 1583 1580 1612 1600 1640 1576 1630 1616 1597 1509 1564 1550 1584 1540 1510 1645 1603 1569 1579 1520 1519 1542 1553 1653 1623 1636 1547 1543 1618 1530 1550 1633 1551 1615 1505 1605 1542 1585 1568 1629 1607 1596 1627 1603 1590 1679 1670 1608 1634 1636 1642 1658 1710 1702 1640 1715 1698 1565 1662 1715 1703 1704 1689 1632 1723 1637 1686 1610 1607 1630 1603 1599 1593 1570 1576 1629 1563 1627 1543 1575 1524 1523 1501 1569 1518 1552 1494 1513 1513 1448 1578 1440 1572 1563 1611 1437 1517 1486 1547 1459 1559 1517 1531 1505 1554 1477 1476 1508 1532 1520 1587 1562 1528 1478 1576 1557 1461 1459 1484 1493 1480 1485 1497 1542 1550 1556 1504 1602 1590 1568 1571 1503 1572 1532 1486 1547 1590 1494 1588 1545 1610 1608 1540 1564 1515 1550 1555 1477 1540 1504 1567 1551 1578 1566 1578 1575 1659 1630 1534 1597 1568 1607 1639 1631 1581 1581 1602 1591 1643 1601 1632 1620 1526 1609 1577 1702 1560 1546 1551 1631 1561 1463 1483 1562 1537 1536 1489 1560 1529 1477 1499 1444 1524 1536 1482 1482 1526 1512 1478 1506 1397 1507 1476 1536 1537 1422 1482 1575 1451 1555 1536 1403 1451 1511 1537 1560 1414 1539 1438 1561 1433 1561 1509 1445 1510 1469 1510 1419 1483 1562 1492 1445 1464 1485 1507 1501 1524 1572 1532 1545 1494 1527 1513 1518 1534 1473 1582 1557 1505 1476 1578 1553 1443 1492 1484 1653 1581 1502 1533 1578 1515 1490 1506 1550 1469 1433 1532 1523 1499 1505 1471 1565 1467 1421 1487 1457 1467 1544 1519 1527 1513 1494 1534 1521 1533 1497 1492 1494 1488 1576 1484 1520 1532 1552 1462 1532 1501 1561 1537 1543 1496 1524 1557 1553 1505 1469 1565 1524 1511 1535 1575 1607 1511 1501 1538 1504 1540 1554 1530 1490 1511 1488 1522 1501 1469 1508 1468 1450 1535 1497 1534 1439 1502 1537 1531 1577 1550 1568 1459 1482 1458 1511 1486 1552 1473 1443 1497 1545 1470 1456 1447 1525 1522 1486 1559 1477 1519 1508 1508 1486 1451 1507 1498 1526 1495 1534 1540 1519 1482 1499 1510 1495 1477 1512 1498 1502 1546 1501 1520 1511 1512 1490 1518 1514 1498 1588 1541 1439 1534 1409 1596 1495 1447 1426 1445 1517 1468 1515 1501 1514 1464 1589 1495 1556 1463 1496 1534 1524 1502 1516 1522 1472 1495 1519 1544 1560 1512 1509 1495 1526 1569 1588 1581 1635 1583 1663 1571 1665 1601 1627 1579 1582 1658 1628 1704 1725 1731 1743 1766 1772 1801 1759 1835 1853 1930 1885 2011 1969 2048 2038 2095 2084 2204 2215 2237 2189 2255 2371 2282 2319 2274 2229 2220 2270 2159 2138 2096 2038 2004 1964 1857 1837 1825 1795 1745 1725 1706 1613 1655 1603 1536 1603 1551 1495 1518 1512 1519 1562 1530 1474 1516 1510 1512 1464 1450 1522 1477 1413 1544 1481 1531 1520 1447 1538 1422 1493 1464 1504 1526 1490 1468 1410 1503 1492 1428 1375 1469 1557 1544 1521 1457 1522 1527 1557 1451 1376 1519 1492 1481 1436 1434 1520 1474 1527 1487 1386 1424 1505 1475 1530 1438 1462 1483 1486 1389 1396 1493 1450 1493 1464 1518 1463 1422 1455 1481 1429 1412 1467 1430 1537 1517 1545 1448 1458 1495 1456 1515 1492 1536 1459 1507 1485 1455 1483 1514 1497 1456 1463 1550 1479 1499 1461 1439 1497 1435 1523 1454 1538 1486 1487 1563 1493 1567 1535 1559 1492 1559 1514 1443 1553 1550 1571 1539 1509 1591 1474 1515 1516 1615 1609 1513 1507 1633 1540 1527 1628 1617 1602 1696 1681 1573 1663 1623 1662 1722 1614 1639 1644 1707 1671 1627 1717 1683 1613 1550 1601 1506 1630 1521 1576 1503 1520 1590 1525 1530 1564 1492 1631 1510 1520 1524 1552 1561 1494 1509 1477 1492 1493 1553 1552 1581 1520 1548 1531 1490 1548 1534 1564 1516 1534 1500 1548 1505 1509 1508 1636 1574 1635 1555 1533 1553 1663 1608 1599 1624 1577 1585 1573 1530 1556 1631 1563 1555 1555 1548 1501 1552 1563 1531 1533 1541 1443 1463 1506 1500 1543 1488 1485 1518 1522 1591 1552 1497 1554 1475 1488 1460 1496 1470 1469 1463 1551 1458 1506 1502 1603 1549 1485 1509 1460 1567 1453 1538 1515 1595 1554 1572 1480 1526 1513 1583 1546 1515 1550 1542 1639 1514 1604 1591 1539 1611 1570 1634 1617 1576 1602 1731 1561 1628 1500 1615 1567 1584 1548 1544 1511 1449 1537 1537 1507 1542 1600 1522 1549 1465 1532 1514 1495 1510 1460 1519 1488 1496 1450 1445 1503 1556 1571 1474 1545 1491 1487 1450 1538 1478 1550 1456 1454 1466 1460 1499 1441 1447 1434 1507 1453 1452 1447 1452 1545 1529 1473 1440 1479 1492 1464 1437 1503 1530 1475 1506 1529 1544 1520 1522 1483 1508 1545 1463 1503 1493 1514 1510 1563 1555 1512 1513 1565 1654 1548 1583 1580 1570 1581 1571 1584 1611 1627 1559 1646 1667 1685 1721 1700 1898 1718 1679 1764 1688 1835 1743 1812 1834 1923 1906 1913 1976 2056 1930 2093 2113 1951 2051 1933 1895 1971 1982 1947 1941 1867 1887 1900 1747 1819 1774 1807 1741 1780 1666 1704 1617 1554 1634 1641 1581 1573 1602 1537 1607 1524 1548 1520 1550 1531 1554 1474 1545 1537 1418 1551 1490 1473 1507 1494 1518 1505 1483 1508 1409 1523 1454 1509 1453 1491 1496 1509 1515 1463 1509 1596 1483 1469 1528 1534 1544 1507 1500 1544 1481 1532 1490 1479 1455 1530 1525 1523 1513 1514 1448 1509 1488 1507 1440 1572 1466 1517 1460 1490 1506 1486 1423 1412 1537 1518 1532 1469 1476 1472 1437 1383 1485 1432 1473 1468 1463 1512 1445 1508 1465 1518 1531 1470 1514 1518 1585 1528 1518 1419 1480 1530 1553 1515 1560 1497 1543 1491 1461 1538 1529 1426 1477 1509 1502 1507 1493 1553 1515 1506 1453 1519 1426 1450 1462 1419 1463 1379 1371 1487 1470 1432 1464 1411 1495 1513 1479 1432 1510 1436 1459 1431 1570 1457 1462 1406 1477 1472 1455 1418 1460 1470 1470 1440 1450 1486 1438 1470 1489 1473 1488 1494 1465 1431 1467 1469 1418 1452 1422 1510 1494 1520 1400 1423 1531 1465 1471 1454 1473 1447 1474 1464 1456 1511 1450 1535 1389 1429 1445 1454 1364 1464 1490 1450 1405 1449 1489 1507 1420 1438 1458 1445 1584 1488 1394 1456 1470 1451 1443 1535 1470 1526 1519 1539 1501 1529 1460 1507 1548 1453 1540 1532 1595 1516 1521 1577 1527 1529 1482 1503 1511 1536 1535 1519 1504 1540 1435 1465 1458 1505 1542 1517 1510 1563 1535 1565 1421 1523 1496 1485 1509 1455 1573 1513 1462 1477 1529 1513 1493 1549 1466 1507 1459 1539 1474 1536 1496 1557 1645 1593 1610 1612 1613 1606 1637 1658 1671 1658 1660 1670 1687 1735 1783 1816 1835 1861 1931 2011 1947 2017 1995 2048 2023 2073 2026 2076 2051 2047 2007 2052 1939 1929 1856 1886 1796 1780 1817 1828 1777 1773 1670 1656 1787 1654 1694 1660 1610 1629 1608 1509 1549 1561 1611 1532 1577 1526 1580 1614 1645 1719 1663 1545 1576 1649 1589 1598 1604 1645 1671 1679 1622 1638 1675 1715 1744 1805 1707 1838 1768 1870 1896 1910 2002 2015 2073 2067 2214 2198 2347 2352 2460 2515 2649 2768 2894 3070 3259 3434 3453 3691 3683 3757 3886 4032 4153 3990 3981 3983 3994 3878 3811 3779 3772 3649 3574 3530 3368 3295 3188 3092 2961 2912 2673 2608 2552 2340 2336 2298 2192 2107 2011 2024 1964 1869 1898 1886 1829 1771 1796 1709 1709 1734 1751 1698 1731 1685 1676 1681 1557 1692 1637 1637 1668 1634 1603 1615 1586 1525 1614 1589 1496 1537 1518 1622 1529 1548 1600 1523 1601 1597 1528 1568 1570 1505 1523 1531 1595 1541 1471 1539 1491 1441 1591 1561 1535 1419 1490 1482 1537 1570 1500 1524 1515 1513 1509 1485 1474 1494 1547 1545 1478 1509 1469 1540 1500 1490 1508 1523 1437 1448 1504 1460 1479 1550 1436 1437 1476 1485 1461 1510 1496 1523 1485 1394 1512 1419 1449 1535 1481 1498 1484 1586 1481 1528 1465 1430 1503 1487 1559 1436 1504 1501 1516 1447 1402 1497 1499 1418 1544 1500 1428 1429 1442 1463 1398 1452 1491 1499 1532 1485 1463 1475 1457 1427 1436 1485 1535 1579 1479 1469 1441 1489 1495 1439 1421 1395 1494 1456 1561 1512 1508 1492 1534 1506 1520 1530 1548 1550 1485 1540 1565 1542 1482 1609 1530 1548 1580 1472 1553 1535 1684 1571 1559 1545 1579 1643 1582 1695 1579 1644 1631 1611 1687 1666 1672 1689 1737 1805 1735 1715 1751 1705 1757 1765 1805 1792 1847 1771 1872 1890 1937 1818 1876 1781 1702 1840 1819 1758 1771 1823 1695 1810 1701 1677 1606 1693 1644 1599 1618 1613 1561 1556 1627 1580 1563 1574 1521 1568 1551 1495 1517 1586 1543 1536 1530 1576 1480 1512 1496 1487 1516 1466 1488 1523 1503 1574 1422 1428 1480 1487 1449 1480 1562 1496 1538 1533 1540 1481 1530 1551 1573 1500 1508 1564 1549 1576 1539 1628 1546 1548 1559 1552 1568 1495 1481 1576 1522 1531 1502 1489 1533 1558 1501 1533 1463 1540 1483 1523 1450 1523 1473 1539 1477 1399 1513 1437 1481 1463 1409 1494 1462 1496 1469 1489 1464 1455 1494 1489 1500 1554 1557 1450 1546 1509 1519 1460 1536 1586 1511 1525 1496 1513 1448 1571 1550 1531 1514 1520 1571 1590 1513 1545 1557 1575 1607 1627 1585 1635 1645 1561 1628 1612 1673 1655 1691 1569 1596 1676 1634 1572 1556 1563 1579 1587 1552 1528 1516 1468 1578 1506 1528 1478 1523 1487 1527 1440 1475 1478 1440 1454 1463 1450 1482 1533 1438 1430 1446 1436 1378 1393 1404 1407 1470 1464 1384 1468 1441 1491 1348 1427 1465 1393 1453 1435 1475 1405 1486 1373 1490 1411 1374 1431 1432 1511 1416 1471 1450 1436 1481 1407 1471 1422 1527 1542 1439 1544 1421 1424 1403 1373 1445 1393 1414 1431 1492 1452 1447 1464 1434 1441 1554 1437 1480 1493 1469 1551 1418 1452 1439 1460 1386 1450 1444 1468 1484 1511 1451 1498 1478 1434 1497 1516 1491 1417 1485 1436 1526 1474 1466 1474 1489 1432 1424 1423 1532 1459 1457 1436 1446 1431 1491 1433 1440 1434 1494 1428 1343 1375 1362 1446 1400 1501 1405 1482 1345 1474 1400 1346 1399 1390 1383 1425 1390 1462 1371 1441 1412 1414 1383 1417 1415 1462 1431 1444 1440 1418 1432 1470 1314 1462 1393 1341 1422 1364 1407 1410 1454 1501 1343 1489 1436 1428 1413 1402 1457 1395 1414 1487 1540 1439 1460 1431 1420 1445 1450 1418 1380 1401 1442 1391 1422 1392 1433 1451 1434 1434 1438 1451 1407 1366 1463 1441 1500 1371 1454 1444 1420 1403 1369 1395 1407 1410 1386 1444 1446 1388 1398 1392 1391 1382 1422 1339 1371 1390 1409 1385 1411 1448 1398 1402 1431 1427 1487 1437 1447 1445 1380 1396 1418 1399 1384 1431 1470 1428 1423 1439 1421 1468 1361 1462 1387 1444 1483 1420 1438 1451 1372 1404 1431 1439 1419 1442 1537 1419 1412 1458 1440 1382 1491 1511 1447 1456 1495 1467 1395 1387 1437 1345 1430 1451 1422 1456 1387 1493 1440 1404 1431 1479 1489 1496 1447 1394 1470 1445 1439 1463 1421 1482 1416 1430 1431 1427 1506 1417 1429 1398 1422 1468 1417 1453 1393 1451 1435 1469 1396 1438 1361 1526 1502 1422 1369 1505 1484 1428 1376 1386 1433 1370 1357 1457 1455 1362 1433 1414 1425 1381 1451 1404 1483 1493 1398 1454 1392 1443 1458 1431 1405 1405 1393 1370 1392 1345 1451 1395 1396 1417 1414 1513 1398 1377 1416 1392 1419 1373 1392 1416 1366 1389 1442 1413 1415 1407 1431 1432 1414 1449 1491 1412 1445 1384 1439 1416 1424 1496 1408 1469 1434 1426 1452 1483 1434 1465 1516 1457 1474 1465 1605 1468 1574 1463 1567 1536 1421 1582 1494 1465 1554 1479 1551 1530 1647 1470 1510 1497 1553 1523 1463 1468 1488 1467 1546 1493 1560 1541 1542 1480 1491 1487 1530 1459 1439 1489 1471 1470 1535 1410 1447 1525 1503 1501 1379 1433 1474 1407 1492 1381 1500 1485 1405 1423 1435 1497 1478 1423 1480 1447 1421 1498 1402 1408 1464 1470 1475 1522 1480 1494 1557 1493 1567 1578 1521 1582 1584 1615 1610 1645 1579 1649 1649 1708 1700 1683 1693 1745 1727 1718 1708 1714 1673 1705 1744 1677 1722 1745 1701 1736 1768 1792 1702 1761 1715 1715 1673 1675 1622 1727 1619 1644 1613 1553 1586 1590 1628 1619 1536 1642 1526 1521 1535 1477 1532 1542 1586 1562 1448 1552 1508 1602 1548 1480 1455 1556 1479 1544 1520 1436 1453 1515 1456 1511 1452 1501 1487 1443 1518 1495 1476 1530 1511 1522 1452 1489 1453 1473 1397 1457 1515 1491 1502 1472 1548 1434 1519 1453 1451 1498 1540 1492 1516 1458 1510 1475 1552 1566 1492 1559 1488 1534 1577 1588 1584 1544 1456 1457 1497 1495 1525 1462 1500 1505 1467 1439 1457 1442 1396 1397 1492 1455 1462 1417 1468 1370 1442 1450 1354 1518 1469 1447 1404 1440 1467 1400 1446 1376 1387 1345 1421 1386 1467 1429 1419 1402 1384 1429 1441 1464 1396 1454 1498 1491 1358 1406 1492 1505 1547 1406 1455 1465 1417 1372 1473 1488 1461 1420 1380 1449 1408 1436 1408 1476 1449 1386 1448 1429 1369 1415 1402 1423 1394 1444 1453 1412 1422 1498 1447 1477 1471 1488 1464 1468 1410 1434 1408 1412 1478 1451 1368 1483 1511 1470 1504 1401 1480 1507 1488 1470 1477 1539 1443 1438 1482 1451 1522 1429 1471 1447 1547 1429 1437 1458 1472 1434 1491 1488 1548 1491 1530 1558 1500 1462 1519 1530 1523 1603 1453 1528 1497 1496 1476 1506 1498 1526 1519 1592 1595 1659 1588 1582 1540 1527 1646 1642 1700 1634 1673 1684 1659 1739 1733 1723 1793 1756 1821 1843 1884 1898 1887 1917 2000 1931 2068 1929 1901 1972 2063 2004 1977 1904 1984 2020 1955 1912 1864 1922 1843 1850 1896 1869 1843 1805 1812 1733 1774 1735 1707 1672 1701 1639 1672 1673 1590 1553 1565 1527 1515 1502 1526 1528 1488 1540 1480 1434 1478 1461 1475 1461 1471 1417 1480 1415 1486 1481 1380 1494 1444 1445 1430 1441 1416 1502 1463 1507 1398 1422 1556 1424 1425 1394 1385 1464 1433 1468 1476 1420 1403 1439 1466 1383 1435 1354 1489 1362 1470 1360 1471 1397 1335 1465 1398 1469 1440 1423 1433 1400 1414 1458 1431 1436 1426 1477 1469 1496 1389 1418 1433 1445 1395 1463 1422 1353 1386 1456 1341 1431 1383 1409 1417 1437 1466 1401 1448 1461 1356 1429 1476 1419 1406 1346 1429 1448 1421 1426 1357 1452 1432 1438 1393 1465 1423 1440 1393 1519 1459 1457 1474 1444 1388 1385 1422 1413 1426 1319 1450 1425 1448 1425 1412 1417 1419 1442 1435 1489 1492 1456 1567 1486 1441 1421 1422 1479 1472 1513 1477 1474 1475 1438 1454 1441 1428 1538 1522 1482 1464 1567 1504 1585 1472 1519 1598 1515 1577 1548 1538 1516 1628 1516 1601 1607 1596 1524 1589 1568 1566 1565 1578 1546 1538 1474 1582 1496 1479 1511 1542 1421 1525 1490 1497 1459 1482 1424 1425 1501 1460 1429 1504 1403 1435 1408 1410 1376 1403 1457 1391 1405 1455 1467 1491 1347 1397 1432 1400 1451 1378 1416 1341 1376 1407 1385 1439 1391 1410 1401 1474 1432 1436 1474 1349 1505 1451 1426 1490 1366 1456 1404 1403 1432 1479 1468 1433 1415 1445 1461 1395 1375 1394 1412 1471 1512 1481 1344 1497 1418 1382 1420 1411 1375 1347 1363 1419 1472 1429 1385 1440 1428 1435 1447 1323 1445 1452 1410 1406 1383 1481 1365 1478 1499 1389 1428 1431 1490 1437 1423 1434 1542 1483 1427 1494 1517 1445 1506 1540 1462 1495 1563 1497 1426 1583 1566 1602 1531 1554 1525 1536 1512 1553 1501 1510 1564 1498 1480 1460 1483 1548 1404 1441 1521 1469 1467 1488 1491 1458 1494 1488 1439 1532 1435 1426 1431 1482 1443 1399 1384 1363 1391 1358 1363 1410 1398 1448 1356 1415 1407 1390 1390 1348 1425 1411 1417 1400 1472 1414 1349 1375 1398 1441 1389 1417 1435 1435 1361 1489 1416 1451 1360 1378 1425 1355 1469 1402 1393 1398 1441 1424 1306 1383 1358 1351 1400 1451 1402 1440 1502 1445 1381 1385 1326 1380 1386 1371 1409 1369 1366 1440 1487 1407 1342 1377 1445 1360 1383 1406 1397 1400 1376 1377 1441 1428 1443 1450 1334 1351 1392 1377 1456 1343 1353 1401 1417 1455 1366 1388 1418 1390 1381 1353 1393 1445 1422 1414 1388 1461 1466 1351 1372 1389 1428 1421 1386 1376 1418 1439 1434 1378 1432 1453 1463 1469 1406 1430 1352 1399 1434 1389 1373 1466 1439 1430 1430 1435 1447 1456 1410 1341 1475 1388 1451 1407 1403 1387 1333 1423 1392 1396 1340 1376 1352 1411 1376 1374 1369 1356 1397 1325 1416 1421 1390 1448 1373 1393 1470 1336 1410 1408 1360 1477 1350 1405 1404 1435 1422 1442 1387 1371 1387 1478 1467 1431 1374 1385 1483 1436 1423 1466 1366 1392 1415 1517 1472 1434 1398 1377 1479 1450 1475 1514 1372 1489 1469 1524 1436 1434 1411 1477 1470 1407 1488 1397 1496 1349 1493 1478 1419 1418 1476 1409 1446 1383 1397 1372 1412 1354 1432 1438 1437 1428 1428 1396 1379 1375 1376 1335 1335 1407 1445 1460 1338 1407 1367 1345 1453 1442 1406 1463 1348 1357 1414 1397 1453 1343 1359 1337 1407 1360 1405 1453 1410 1392 1369 1417 1331 1373 1332 1379 1432 1499 1398 1418 1413 1358 1369 1334 1385 1407 1391 1379 1372 1392 1426 1447 1432 1448 1348 1371 1354 1431 1395 1424 1369 1336 1402 1412 1413 1428 1362 1379 1397 1387 1361 1390 1367 1455 1361 1468 1434 1425 1455 1428 1399 1451 1356 1440 1416 1410 1394 1378 1391 1395 1504 1329 1456 1501 1455 1432 1392 1457 1487 1445 1489 1408 1523 1439 1474 1428 1524 1490 1490 1530 1522 1442 1472 1464 1512 1473 1562 1646 1533 1533 1498 1530 1502 1550 1554 1561 1579 1531 1584 1505 1493 1389 1486 1459 1474 1440 1464 1505 1416 1457 1431 1449 1457 1353 1435 1474 1508 1356 1443 1364 1468 1375 1427 1472 1457 1363 1376 1450 1405 1423 1380 1452 1409 1409 1428 1333 1445 1369 1384 1410 1386 1423 1349 1315 1407 1390 1439 1384 1455 1454 1433 1338 1367 1413 1427 1388 1365 1421 1376 1340 1365 1360 1362 1308 1362 1383 1425 1395 1385 1381 1380 1445 1319 1429 1398 1419 1441 1388 1425 1340 1413 1443 1371 1494 1377 1444 1351 1365 1367 1348 1332 1407 1363 1448 1432 1433 1427 1415 1422 1380 1463 1416 1415 1482 1479 1316 1423 1373 1424 1344 1369 1379 1439 1449 1408 1351 1411 1345 1415 1414 1444 1406 1421 1378 1384 1322 1439 1464 1369 1434 1404 1397 1424 1431 1342 1409 1430 1390 1352 1359 1433 1323 1386 1350 1352 1363 1396 1424 1398 1443 1331 1322 1391 1359 1487 1365 1381 1386 1320 1470 1397 1405 1469 1446 1334 1416 1379 1412 1332 1447 1329 1359 1374 1390 1410 1414 1397 1386 1379 1485 1413 1345 1376 1391 1392 1455 1492 1423 1378 1387 1416 1414 1392 1357 1354 1422 1437 1382 1394 1383 1471 1399 1411 1383 1427 1484 1439 1370 1357 1417 1393 1460 1379 1442 1358 1363 1415 1370 1355 1417 1427 1420 1377 1429 1355 1420 1430 1436 1390 1399 1409 1439 1342 1423 1374 1453 1425 1403 1463 1363 1315 1434 1439 1430 1397 1431 1451 1483 1418 1457 1414 1407 1361 1343 1405 1422 1444 1417 1403 1409 1419 1466 1475 1457 1445 1502 1406 1446 1467 1487 1498 1492 1516 1555 1489 1504 1508 1568 1558 1601 1583 1575 1575 1542 1572 1597 1555 1645 1620 1656 1593 1564 1616 1612 1518 1673 1563 1668 1586 1639 1568 1599 1649 1591 1584 1565 1533 1643 1530 1613 1502 1542 1492 1523 1503 1584 1517 1519 1432 1512 1497 1524 1435 1504 1459 1450 1515 1395 1455 1424 1398 1533 1465 1430 1401 1454 1381 1456 1478 1368 1400 1421 1390 1504 1392 1441 1475 1387 1435 1435 1417 1358 1493 1404 1467 1415 1444 1466 1457 1451 1417 1451 1455 1457 1488 1371 1433 1451 1504 1386 1378 1403 1486 1431 1465 1351 1452 1424 1483 1372 1457 1372 1419 1454 1407 1384 1392 1419 1424 1383 1357 1388 1476 1384 1406 1423 1376 1445 1410 1395 1382 1448 1406 1439 1409 1434 1438 1429 1441 1415 1440 1411 1432 1390 1453 1454 1447 1407 1437 1415 1417 1480 1418 1405 1386 1400 1394 1370 1434 1443 1378 1498 1393 1411 1378 1389 1399 1418 1458 1355 1404 1421 1398 1387 1373 1462 1424 1400 1443 1532 1473 1418 1422 1400 1465 1409 1343 1390 1425 1435 1416 1405 1361 1426 1473 1504 1462 1349 1449 1439 1472 1436 1419 1410 1409 1431 1377 1416 1457 1487 1391 1372 1383 1437 1372 1454 1466 1468 1415 1420 1392 1458 1372 1453 1428 1388 1450 1397 1367 1420 1414 1432 1364 1360 1420 1376 1395 1439 1370 1442 1420 1457 1374 1444 1438 1471 1469 1482 1466 1466 1391 1469 1446 1451 1446 1469 1436 1488 1323 1388 1475 1446 1473 1414 1439 1376 1466 1442 1440 1434 1429 1454 1455 1437 1449 1376 1464 1347 1424 1439 1371 1424 1419 1463 1469 1435 1445 1471 1400 1372 1468 1421 1378 1377 1376 1395 1325 1404 1434 1397 1422 1358 1441 1359 1441 1366 1375 1473 1450 1400 1515 1385 1472 1426 1385 1393 1386 1481 1388 1364 1477 1353 1465 1416 1385 1445 1444 1422 1425 1421 1417 1406 1475 1457 1393 1392 1446 1479 1431 1385 1318 1395 1383 1403 1516 1441 1416 1442 1479 1408 1400 1343 1361 1417 1369 1400 1450 1363 1489 1418 1419 1539 1359 1417 1415 1340 1408 1383 1463 1403 1401 1429 1335 1443 1371 1395 1431 1403 1377 1382 1397 1395 1429 1419 1478 1351 1360 1422 1384 1470 1379 1430 1346 1504 1440 1454 1423 1388 1410 1430 1348 1371 1451 1435 1387 1466 1381 1361 1365 1456 1357 1332 1390 1403 1411 1422 1371 1418 1370 1337 1425 1470 1422 1320 1507 1449 1391 1406 1379 1443 1422 1425 1449 1442 1513 1358 1371 1437 1340 1440 1454 1493 1373 1477 1334 1412 1442 1467 1359 1368 1465 1430 1458 1410 1363 1379 1357 1447 1455 1459 1454 1463 1455 1419 1386 1417 1453 1468 1366 1469 1421 1435 1478 1427 1428 1459 1457 1394 1461 1430 1420 1412 1419 1456 1390 1370 1369 1426 1431 1422 1446 1404 1386 1417 1434 1410 1420 1419 1400 1379 1345 1381 1394 1425 1416 1397 1399 1335 1342 1413 1402 1445 1421 1401 1382 1392 1422 1437 1420 1483 1417 1395 1446 1456 1449 1466 1374 1461 1407 1397 1373 1391 1357 1370 1446 1406 1457 1429 1428 1434 1418 1429 1444 1405 1399 1476 1418 1366 1469 1360 1380 1445 1400 1418 1433 1432 1362 1406 1459 1397 1508 1453 1403 1437 1433 1480 1429 1358 1416 1387 1442 1327 1391 1379 1460 1453 1443 1342 1458 1425 1416 1418 1422 1411 1371 1371 1364 1414 1466 1465 1388 1480 1426 1411 1414 1375 1477 1416 1436 1458 1386 1407 1394 1445 1409 1442 1412 1414 1330 1389 1442 1386 1361 1424 1417 1464 1391 1396 1433 1434 1442 1441 1384 1363 1465 1362 1470 1423 1388 1471 1392 1430 1430 1377 1454 1425 1400 1447 1437 1473 1493 1447 1416 1447 1473 1441 1479 1362 1523 1380 1476 1369 1460 1489 1381 1463 1501 1465 1436 1374 1487 1503 1437 1478 1544 1525 1479 1556 1529 1557 1477 1566 1559 1471 1534 1536 1633 1529 1600 1672 1581 1629 1535 1637 1589 1574 1566 1604 1505 1601 1550 1519 1628 1557 1634 1562 1684 1546 1482 1631 1491 1517 1481 1527 1515 1534 1559 1590 1551 1566 1524 1582 1573 1388 1487 1467 1484 1476 1450 1481 1508 1463 1476 1475 1516 1458 1540 1473 1464 1539 1487 1554 1527 1537 1514 1529 1443 1539 1493 1501 1470 1475 1510 1572 1509 1498 1531 1467 1508 1486 1528 1510 1461 1483 1463 1488 1424 1548 1465 1449 1492 1439 1461 1429 1454 1527 1430 1413 1481 1512 1483 1450 1412 1495 1473 1488 1397 1445 1491 1414 1440 1450 1430 1467 1490 1473 1488 1436 1509 1482 1473 1433 1513 1441 1359 1432 1499 1463 1441 1451 1413 1444 1446 1485 1441 1456 1504 1404 1399 1461 1513 1401 1468 1375 1457 1467 1421 1377 1420 1507 1503 1429 1427 1441 1503 1403 1452 1451 1397 1414 1474 1498 1471 1404 1423 1432 1467 1543 1402 1435 1418 1487 1495 1466 1406 1504 1507 1460 1534 1503 1521 1564 1482 1458 1484 1457 1523 1456 1531 1503 1596 1480 1534 1511 1525 1547 1544 1579 1620 1567 1491 1532 1545 1500 1622 1540 1567 1576 1582 1508 1542 1497 1575 1523 1530 1478 1544 1516 1558 1520 1532 1496 1531 1532 1557 1468 1443 1541 1495 1548 1472 1399 1471 1463 1459 1482 1509 1456 1434 1445 1450 1532 1461 1431 1377 1541 1436 1471 1410 1440 1425 1494 1514 1491 1484 1487 1371 1448 1517 1505 1454 1505 1437 1477 1488 1535 1459 1515 1562 1546 1512 1495 1469 1562 1583 1479 1515 1605 1653 1647 1536 1609 1656 1643 1602 1665 1679 1701 1762 1722 1759 1799 1774 1761 1859 1799 1787 1812 1795 1867 1815 1861 1853 1784 1853 1857 1824 1832 1788 1900 1747 1763 1774 1735 1770 1752 1800 1832 1799 1685 1806 1764 1723 1703 1763 1672 1698 1693 1619 1659 1643 1688 1661 1649 1645 1694 1642 1646 1560 1540 1598 1616 1624 1581 1614 1520 1595 1446 1539 1548 1553 1584 1560 1509 1428 1577 1455 1541 1404 1461 1499 1485 1501 1412 1434 1543 1484 1467 1475 1485 1441 1515 1558 1480 1391 1420 1465 1447 1447 1507 1427 1402 1478 1454 1457 1470 1446 1490 1478 1362 1474 1452 1406 1415 1512 1459 1474 1497 1415 1473 1349 1440 1505 1437 1478 1401 1424 1461 1430 1454 1481 1470 1384 1471 1469 1454 1505 1450 1456 1486 1486 1427 1523 1489 1432 1418 1450 1476 1459 1409 1354 1365 1372 1433 1409 1480 1452 1465 1453 1444 1389 1463 1471 1482 1393 1356 1378 1439 1400 1421 1412 1386 1501 1437 1408 1428 1497 1467 1458 1538 1484 1477 1463 1469 1486 1553 1467 1507 1434 1441 1507 1548 1467 1501 1505 1486 1554 1494 1518 1480 1511 1509 1520 1535 1482 1498 1436 1537 1435 1478 1485 1415 1474 1470 1554 1505 1489 1455 1553 1418 1432 1439 1479 1459 1483 1496 1476 1554 1532 1464 1561 1387 1494 1440 1517 1442 1473 1438 1497 1539 1471 1491 1431 1522 1461 1504 1575 1520 1495 1503 1519 1564 1596 1535 1524 1548 1593 1484 1517 1600 1542 1508 1464 1518 1510 1520 1493 1503 1527 1551 1493 1587 1555 1558 1500 1522 1439 1590 1524 1450 1547 1488 1542 1510 1515 1477 1523 1492 1571 1460 1469 1519 1461 1471 1436 1393 1564 1453 1448 1475 1419 1517 1483 1496 1416 1392 1464 1478 1394 1426 1517 1340 1358 1391 1419 1512 1505 1466 1459 1465 1430 1473 1449 1441 1415 1370 1478 1514 1437 1437 1465 1434 1350 1448 1331 1391 1466 1332 1499 1429 1433 1501 1500 1467 1446 1400 1440 1413 1325 1484 1412 1430 1406 1415 1380 1424 1471 1408 1332 1405 1388 1441 1406 1419 1424 1511 1432 1511 1389 1426 1480 1492 1407 1471 1455 1544 1452 1448 1445 1416 1475 1496 1423 1452 1446 1460 1426 1502 1396 1404 1389 1417 1428 1452 1459 1410 1440 1365 1398 1465 1427 1387 1401 1453 1461 1510 1461 1413 1405 1373 1437 1367 1428 1444 1362 1491 1477 1468 1439 1411 1416 1512 1419 1454 1411 1473 1394 1476 1492 1332 1372 1442 1397 1486 1397 1439 1429 1450 1408 1429 1508 1437 1476 1366 1448 1418 1460 1463 1359 1449 1420 1434 1400 1449 1352 1378 1415 1417 1394 1416 1470 1454 1396 1431 1407 1370 1442 1413 1462 1372 1529 1377 1464 1386 1466 1402 1425 1424 1469 1347 1444 1436 1460 1337 1413 1377 1423 1420 1405 1495 1427 1490 1420 1426 1386 1352 1397 1478 1372 1429 1448 1439 1460 1407 1492 1406 1423 1393 1397 1372 1475 1423 1425 1410 1448 1417 1371 1401 1394 1424 1448 1465 1459 1438 1416 1359 1412 1481 1394 1407 1413 1453 1383 1368 1347 1422 1440 1438 1407 1407 1394 1424 1390 1482 1390 1451 1473 1411 1417 1447 1414 1478 1467 1354 1474 1442 1438 1399 1454 1461 1471 1402 1485 1518 1407 1516 1485 1394 1391 1466 1439 1438 1349 1458 1432 1479 1399 1427 1423 1410 1425 1454 1455 1434 1361 1404 1430 1452 1425 1426 1478 1461 1385 1335 1445 1489 1408 1373 1417 1386 1422 1491 1422 1439 1444 1456 1453 1496 1465 1507 1528 1490 1449 1478 1473 1302 1512 1435 1498 1409 1402 1436 1458 1446 1431 1431 1419 1426 1444 1416 1491 1498 1428 1422 1425 1483 1400 1517 1510 1431 1529 1504 1408 1437 1441 1482 1458 1508 1387 1459 1475 1446 1463 1475 1463 1446 1483 1378 1481 1470 1479 1517 1545 1453 1482 1588 1484 1443 1590 1503 1493 1514 1461 1506 1497 1468 1466 1495 1512 1436 1452 1469 1468 1462 1519 1469 1453 1453 1466 1536 1493 1536 1467 1498 1462 1431 1466 1416 1428 1455 1391 1424 1495 1456 1469 1402 1492 1431 1427 1407 1433 1431 1490 1498 1446 1466 1397 1500 1443 1505 1484 1436 1455 1453 1393 1384 1434 1520 1384 1400 1457 1494 1436 1445 1559 1487 1410 1364 1410 1380 1453 1455 1470 1462 1507 1471 1502 1498 1421 1423 1393 1461 1432 1456 1486 1548 1468 1535 1528 1428 1512 1526 1474 1474 1455 1465 1462 1497 1502 1461 1503 1467 1506 1452 1456 1507 1439 1501 1509 1492 1421 1386 1446 1504 1458 1443 1451 1538 1481 1497 1492 1470 1475 1480 1461 1496 1472 1491 1478 1480 1408 1430 1527 1507 1470 1448 1410 1470 1434 1479 1488 1402 1474 1442 1510 1466 1386 1415 1386 1426 1441 1432 1437 1424 1487 1493 1380 1423 1440 1462 1458 1436 1441 1525 1469 1409 1445 1389 1393 1424 1365 1463 1446 1432 1428 1490 1467 1465 1493 1416 1440 1490 1494 1449 1437 1454 1477 1492 1457 1490 1456 1501 1478 1436 1440 1372 1408 1444 1364 1487 1528 1470 1462 1439 1395 1480 1445 1444 1439 1490 1487 1443 1519 1450 1476 1431 1481 1422 1500 1461 1500 1462 1449 1439 1416 1414 1397 1419 1453 1507 1502 1463 1484 1459 1397 1478 1480 1433 1464 1436 1531 1452 1404 1494 1521 1510 1573 1552 1577 1515 1520 1601 1583 1583 1489 1582 1594 1559 1591 1580 1642 1646 1551 1686 1733 1636 1607 1695 1714 1630 1826 1811 1794 1805 1777 1790 1873 1801 1813 1885 1811 1852 1832 1786 1804 1791 1848 1731 1818 1843 1785 1780 1766 1800 1721 1784 1790 1703 1800 1781 1739 1727 1710 1751 1780 1770 1662 1636 1703 1631 1730 1767 1662 1662 1616 1577 1734 1576 1603 1614 1569 1619 1592 1610 1659 1507 1580 1579 1547 1512 1461 1595 1494 1488 1506 1514 1576 1461 1530 1549 1588 1556 1479 1488 1473 1482 1491 1472 1469 1517 1468 1478 1502 1474 1472 1529 1425 1395 1469 1476 1485 1459 1497 1489 1484 1494 1465 1458 1523 1445 1509 1545 1522 1451 1435 1469 1495 1480 1418 1467 1455 1409 1356 1479 1430 1461 1434 1460 1455 1505 1394 1445 1424 1532 1413 1459 1522 1462 1486 1515 1413 1416 1525 1477 1448 1440 1486 1492 1399 1501 1413 1483 1441 1463 1531 1424 1462 1386 1427 1456 1403 1488 1497 1540 1442 1436 1439 1424 1399 1475 1505 1455 1511 1507 1371 1462 1524 1485 1562 1437 1459 1503 1627 1475 1542 1540 1517 1460 1422 1512 1531 1491 1498 1491 1489 1465 1523 1451 1470 1445 1466 1448 1418 1505 1460 1435 1426 1539 1446 1421 1495 1533 1541 1497 1413 1476 1429 1498 1450 1425 1550 1415 1451 1568 1429 1431 1522 1458 1400 1372 1424 1436 1486 1454 1442 1383 1460 1392 1440 1438 1445 1403 1441 1453 1431 1446 1400 1538 1520 1483 1414 1498 1370 1478 1446 1434 1383 1364 1396 1377 1439 1376 1459 1466 1452 1429 1475 1432 1413 1401 1380 1449 1439 1486 1453 1376 1490 1378 1471 1479 1377 1499 1369 1454 1406 1381 1472 1416 1404 1462 1451 1409 1393 1386 1428 1381 1411 1499 1447 1446 1463 1412 1431 1422 1395 1417 1396 1421 1377 1450 1346 1484 1395 1487 1424 1437 1421 1409 1452 1421 1387 1404 1409 1441 1331 1410 1413 1360 1406 1420 1427 1433 1393 1393 1390 1498 1438 1459 1401 1490 1509 1453 1432 1350 1435 1434 1406 1473 1321 1453 1462 1422 1491 1533 1451 1484 1423 1473 1460 1530 1418 1417 1432 1453 1461 1440 1476 1431 1458 1400 1363 1499 1428 1433 1501 1475 1393 1412 1413 1504 1454 1414 1421 1452 1469 1435 1403 1445 1365 1426 1414 1419 1454 1474 1321 1426 1410 1497 1494 1428 1431 1458 1401 1500 1434 1431 1394 1454 1461 1391 1417 1464 1411 1450 1457 1456 1453 1462 1409 1460 1464 1464 1444 1426 1439 1385 1473 1429 1447 1400 1404 1393 1458 1488 1376 1483 1371 1387 1434 1400 1364 1401 1381 1462 1468 1394 1413 1472 1385 1456 1457 1438 1396 1421 1480 1413 1523 1443 1394 1373 1448 1373 1457 1383 1423 1432 1438 1465 1433 1482 1460 1457 1458 1436 1406 1439 1457 1427 1500 1402 1459 1445 1459 1469 1388 1489 1425 1431 1386 1431 1415 1468 1373 1412 1437 1393 1404 1508 1439 1375 1401 1403 1453 1349 1427 1373 1378 1477 1474 1469 1431 1390 1459 1399 1503 1389 1455 1387 1471 1400 1441 1460 1437 1551 1390 1424 1340 1462 1495 1418 1430 1423 1371 1408 1371 1434 1441 1489 1350 1425 1398 1433 1443 1473 1384 1386 1446 1445 1447 1438 1464 1494 1440 1389 1398 1461 1448 1373 1415 1378 1494 1474 1488 1428 1373 1446 1353 1437 1420 1405 1471 1345 1418 1381 1357 1420 1387 1434 1411 1389 1391 1400 1436 1424 1443 1422 1463 1463 1387 1398 1484 1444 1465 1426 1419 1475 1408 1454 1485 1516 1425 1395 1448 1454 1491 1442 1383 1360 1373 1415 1418 1470 1417 1457 1390 1471 1435 1450 1463 1511 1549 1523 1469 1488 1475 1428 1441</counts>
			</dataPoints>
		</scan>
	</xrdMeasurement>
</xrdMeasurements>
