<?xml version="1.0"?>
<xrdMeasurements xmlns="http://www.xrdml.com/XRDMeasurement/2.3" xmlns:xsi="http://www.w3.org/2001/XMLSchema-instance" xsi:schemaLocation="http://www.xrdml.com/XRDMeasurement/2.3 http://www.xrdml.com/XRDMeasurement/2.3/XRDMeasurement.xsd" status="Completed" recordIdentifier="{3AE2967A-E68C-431C-8C7B-FCEE07205B05}">
	<comment>
		<entry/>
	</comment>
	<sample type="To be analyzed">
		<id>GPSS_Li2Co0p5Zn0p5Cl4_121225_693c5ab8f4d05ae3d6974f1e</id>
		<name></name>
		<preparedBy></preparedBy>
	</sample>
	<xrdMeasurement measurementType="Scan" status="Completed" sampleMode="Reflection">
		<usedWavelength intended="K-Alpha 1">
			<kAlpha1 unit="Angstrom">1.5405980</kAlpha1>
			<kAlpha2 unit="Angstrom">1.5444260</kAlpha2>
			<kBeta unit="Angstrom">1.3922500</kBeta>
			<ratioKAlpha2KAlpha1>0.5000</ratioKAlpha2KAlpha1>
		</usedWavelength>
		<incidentBeamPath>
			<radius unit="mm">145.00</radius>
			<xRayTube id="1010048" name="Empyrean Cu LFF HR (9430 033 7310x)">
				<tension unit="kV">40.0</tension>
				<current unit="mA">15.0</current>
				<anodeMaterial>Cu</anodeMaterial>
				<focus type="Line">
					<length unit="mm">12.0</length>
					<width unit="mm">0.4</width>
					<takeOffAngle unit="deg">6.0</takeOffAngle>
				</focus>
			</xRayTube>
			<sollerSlit id="21010002" name="Soller slits 0.04 rad.">
				<opening unit="rad">0.0400</opening>
			</sollerSlit>
			<mask id="22031000" name="Fixed mask 13 mm">
				<width unit="mm">9.00</width>
			</mask>
			<divergenceSlit id="22120001" name="Divergence slit 1°" xsi:type="fixedDivergenceSlitType">
				<distanceToSample unit="mm">50.00</distanceToSample>
				<height unit="mm">1.52</height>
			</divergenceSlit>
		</incidentBeamPath>
		<sampleMovement xsi:type="spinningSampleMovementType">
			<spinnerRevolutionTime unit="seconds">1.0</spinnerRevolutionTime>
		</sampleMovement>
		<diffractedBeamPath>
			<radius unit="mm">145.00</radius>
			<antiScatterSlit id="22090040" name="AS slit 9 mm (PIXcel)" xsi:type="fixedAntiScatterSlitType">
				<height unit="mm">9.00</height>
			</antiScatterSlit>
			<sollerSlit id="21020003" name="Large Soller slits 0.04 rad.">
				<opening unit="rad">0.0400</opening>
			</sollerSlit>
			<filter id="20030001" name="Large beta-filter Nickel">
				<material>Ni</material>
				<thickness unit="mm">0.020</thickness>
			</filter>
			<detector id="7010019" name="PIXcel1D-Medipix3 detector" xsi:type="rtmsDetectorType">
				<phd unit="keV">
					<lowerLevel>4.02</lowerLevel>
					<upperLevel>11.27</upperLevel>
				</phd>
				<mode>Scanning</mode>
				<activeLength unit="deg">5.542</activeLength>
			</detector>
		</diffractedBeamPath>
		<scan appendNumber="0" mode="Continuous" scanAxis="Gonio" status="Completed">
			<header>
				<startTimeStamp>2025-12-16T15:08:44-08:00</startTimeStamp>
				<endTimeStamp>2025-12-16T15:16:51-08:00</endTimeStamp>
				<author>
					<name>AutomatedUser</name>
				</author>
				<source>
					<applicationSoftware version="1.7b (136)">PANalytical Aeris Instrument Suite</applicationSoftware>
					<instrumentControlSoftware version="3.2.00000000 20240306">AERIS</instrumentControlSoftware>
					<instrumentID>950485</instrumentID>
				</source>
			</header>
			<dataPoints>
				<positions axis="2Theta" unit="deg">
					<startPosition>10.00943322</startPosition>
					<endPosition>99.99442286</endPosition>
				</positions>
				<positions axis="Omega" unit="deg">
					<startPosition>5.00471661</startPosition>
					<endPosition>49.99721143</endPosition>
				</positions>
				<commonCountingTime unit="seconds">12.495</commonCountingTime>
				<counts unit="counts">3044 3093 3069 2880 3022 2842 2924 2959 2979 2982 2966 2900 3008 2973 2973 3058 3010 3014 3022 3016 2927 3020 2996 2989 2958 2940 2947 2896 2975 2925 2937 2969 2930 3007 3014 2959 3023 2993 2896 2965 2851 2947 2964 2957 3034 3012 2893 3014 2939 2931 3007 3027 2983 2942 2995 3052 3070 2904 3018 2924 3033 2936 3031 2953 3006 3010 2931 3028 3057 3030 3084 3100 3036 3067 3052 3134 2902 3036 2985 3076 3053 3098 3160 3002 3049 3050 3011 3177 3090 3200 3097 3026 2966 3180 3087 3221 3040 3113 3006 3164 3088 3074 3167 3115 3118 3117 3025 3015 3104 3134 3109 2977 3079 3143 3095 3055 3164 3053 3037 2979 3040 3071 3011 3056 3085 2997 3032 3020 3095 3045 3014 3109 3095 3004 2970 2946 3003 3126 2959 3079 2995 3057 2942 3028 3077 2984 3078 2987 2992 2954 2997 2938 3002 3051 2961 3054 3050 3004 2988 3064 3009 2984 3060 2925 2991 2998 3025 3042 3167 2975 2888 2942 2953 2993 2978 2956 2943 3093 3040 2979 3048 2897 2961 3015 3056 2942 2873 2946 2968 2915 2962 2941 2898 2918 2962 3010 2994 3023 3016 2922 3025 3005 2979 2990 2938 2951 3000 2921 2983 2967 3081 2955 3004 2870 2950 2963 2904 2994 3041 3054 3042 3011 2949 2951 2891 2821 2896 2813 2897 2956 2955 2857 2933 2853 2775 2869 2938 2846 2970 2837 2847 2941 2843 2974 2980 2963 2888 2932 2806 2898 2915 2951 2854 3046 2879 2840 2840 2770 2816 2951 2908 2936 2929 2892 2959 2842 2884 2848 2852 2907 2785 2889 2887 2829 2909 2932 2932 2845 2877 2931 2851 2921 2890 2876 2922 2863 2819 2816 2878 2886 2891 2898 2906 2887 2884 2997 2841 2820 2849 2808 2918 2965 2866 2919 2904 2787 2814 2869 2925 2878 2980 2946 2901 2906 2886 2855 3017 2973 2935 2980 2847 2992 2896 2893 2982 2951 2874 3023 2834 2945 2977 3033 2961 2978 2986 3135 2945 2912 2909 3086 2976 3132 2919 3023 2967 2996 3120 2955 3097 3038 3136 3060 3052 2990 3054 3072 3155 3169 2982 2917 3051 3257 3095 3128 3206 3178 3188 3207 3153 3174 3122 3203 3195 3147 3191 3207 3148 3270 3210 3232 3196 3342 3217 3132 3180 3154 3324 3137 3240 3182 3317 3235 3300 3254 3301 3268 3252 3225 3366 3257 3315 3266 3324 3339 3406 3258 3305 3287 3348 3304 3287 3282 3437 3331 3385 3348 3238 3381 3426 3243 3317 3243 3345 3345 3287 3368 3399 3325 3453 3410 3348 3247 3242 3388 3340 3438 3462 3366 3449 3349 3389 3389 3377 3487 3365 3402 3573 3426 3452 3525 3397 3610 3588 3638 3491 3672 3577 3572 3503 3632 3510 3609 3495 3503 3439 3374 3508 3517 3498 3519 3463 3363 3442 3433 3419 3513 3502 3530 3470 3608 3543 3562 3499 3488 3439 3579 3480 3418 3397 3447 3395 3386 3363 3497 3339 3405 3235 3283 3297 3265 3270 3152 3288 3336 3355 3300 3211 3146 3256 3181 3194 3175 3111 3188 3228 3259 3213 3154 3106 3044 3130 3169 3170 3150 3183 3059 3133 3100 3115 3127 3105 3095 3172 3132 3073 3054 2994 2893 2979 3063 3038 3059 3031 3020 3046 3016 3073 3093 3050 2995 2963 3030 3007 3027 2958 2918 2920 3008 2894 2914 2910 2998 3034 2973 2934 2818 2925 2981 3011 2947 2945 2975 2910 2984 2811 2920 2979 2878 2906 2846 2970 2871 2889 2959 2864 2857 2821 2756 2839 2792 2800 2898 2813 2880 2624 2766 2711 2778 2752 2781 2808 2772 2722 2825 2821 2844 2724 2776 2714 2762 2755 2722 2751 2771 2746 2806 2625 2739 2811 2711 2685 2719 2705 2753 2729 2812 2680 2604 2755 2770 2761 2689 2732 2839 2728 2711 2613 2746 2661 2652 2706 2715 2693 2746 2600 2626 2692 2697 2681 2706 2755 2704 2730 2716 2640 2601 2705 2756 2589 2688 2631 2632 2706 2667 2690 2772 2635 2604 2583 2568 2618 2807 2684 2660 2660 2724 2683 2603 2590 2586 2635 2607 2606 2595 2619 2709 2633 2704 2579 2664 2564 2583 2517 2511 2595 2541 2559 2567 2519 2652 2548 2477 2503 2478 2568 2662 2637 2630 2570 2438 2472 2613 2513 2553 2556 2484 2463 2509 2524 2547 2500 2469 2521 2493 2430 2457 2422 2557 2424 2532 2466 2471 2577 2529 2579 2469 2594 2473 2437 2410 2475 2512 2426 2582 2460 2418 2507 2435 2509 2499 2530 2376 2436 2494 2527 2440 2413 2449 2415 2479 2489 2523 2465 2514 2407 2468 2510 2434 2446 2432 2530 2583 2369 2512 2476 2434 2407 2527 2380 2482 2449 2564 2460 2477 2595 2426 2425 2579 2538 2503 2438 2709 2560 2650 2590 2602 2667 2641 2635 2630 2676 2641 2649 2651 2800 2740 2752 2637 2636 2607 2605 2486 2566 2492 2474 2525 2489 2486 2450 2514 2556 2572 2518 2570 2435 2492 2510 2439 2397 2355 2466 2519 2387 2403 2492 2442 2391 2350 2472 2363 2474 2346 2381 2366 2339 2394 2374 2323 2319 2343 2327 2384 2359 2300 2326 2335 2380 2362 2338 2351 2336 2232 2217 2272 2332 2382 2294 2282 2358 2310 2364 2251 2380 2210 2343 2340 2269 2310 2366 2253 2213 2283 2218 2285 2186 2234 2301 2247 2393 2380 2301 2301 2286 2235 2346 2272 2189 2257 2256 2291 2279 2312 2363 2264 2310 2323 2329 2308 2208 2237 2221 2225 2288 2273 2330 2179 2246 2275 2159 2284 2230 2300 2230 2229 2343 2334 2210 2335 2249 2198 2220 2246 2227 2364 2253 2203 2183 2233 2176 2207 2238 2167 2232 2154 2264 2280 2182 2234 2159 2214 2241 2223 2275 2237 2130 2097 2203 2234 2088 2202 2252 2188 2169 2239 2167 2111 2285 2226 2169 2213 2267 2144 2260 2157 2163 2178 2228 2153 2201 2158 2261 2188 2072 2172 2140 2151 2200 2186 2157 2217 2102 2145 2177 2176 2204 2170 2159 2233 2150 2214 2220 2181 2157 2120 2086 2154 2137 2194 2162 2181 2132 2110 2216 2167 2226 2115 2086 2229 2156 2150 2165 2145 2164 2185 2133 2213 2099 2099 2160 2207 2181 2185 2135 2222 2175 2089 2135 2157 2089 2132 2191 2107 2099 2152 2208 2102 2156 2160 2160 2143 2101 2100 2090 2169 2169 2161 2111 2073 2175 2122 2095 2194 2111 2100 2128 2189 2074 2060 2131 2105 2123 2079 2145 2117 2154 2147 2121 2138 2117 2095 2195 2148 2260 2171 2186 2139 2153 2157 2146 2137 2173 2166 2151 2123 2157 2114 2151 2144 2190 2181 2078 2185 2073 2134 2152 2168 2091 2191 2100 2189 2128 2176 2193 2235 2200 2189 2233 2129 2206 2026 2166 2153 2121 2150 2213 2168 2160 2248 2169 2159 2111 2231 2132 2124 2164 2079 2031 2039 2108 2147 2185 2131 2148 2179 2184 2157 2101 2180 2129 2110 2196 2148 2091 2167 2030 2189 2132 2060 2153 2129 2137 2120 2172 2131 2079 2096 2049 2121 2073 2074 2090 2003 2097 2122 2056 2190 2116 2051 2136 2067 2073 2048 2165 2156 2077 2104 2098 2046 2025 2025 2036 1958 2058 2065 2053 2016 2033 1973 2060 2000 2042 2122 2028 2078 2014 2001 2032 2066 2046 1992 1996 2032 2040 2042 2028 2081 2000 1950 2018 1960 2022 1972 2059 2001 2030 2042 1935 1914 1967 2008 1961 2054 1918 1930 2037 1972 1934 1953 1965 1931 1966 1967 1916 1967 1932 1928 1929 1910 1873 1932 1860 2037 1924 1905 1906 1931 1946 1848 1840 1889 1881 1897 1917 1894 1907 1951 1918 1907 1891 1865 1836 1844 1895 1926 1845 1902 1845 1855 1952 1782 1895 1869 1872 1867 1796 1844 1848 1783 1900 1841 1916 1783 1928 1895 1825 1885 1930 1926 1813 1894 1803 1844 1761 1900 1930 1900 1843 1977 1941 1931 2013 1972 2010 1956 1913 1943 1975 1901 1952 1899 1867 1905 1907 1940 1860 1874 1865 1863 1925 1914 1955 1880 1868 1917 1864 1996 1912 1919 1931 1969 1887 1910 1876 1888 1871 1880 1892 1932 1842 1883 1772 1821 1864 1900 1780 1790 1808 1749 1815 1791 1806 1694 1727 1764 1732 1717 1758 1800 1763 1768 1740 1756 1617 1790 1699 1653 1762 1741 1665 1739 1665 1747 1670 1707 1750 1768 1651 1739 1696 1697 1726 1675 1707 1737 1731 1700 1642 1732 1731 1675 1693 1656 1649 1743 1687 1692 1786 1701 1775 1723 1747 1691 1754 1764 1789 1730 1804 1723 1729 1769 1778 1759 1762 1781 1808 1823 1700 1766 1630 1703 1721 1702 1698 1799 1678 1778 1699 1756 1685 1759 1766 1692 1702 1731 1630 1737 1711 1680 1673 1799 1740 1786 1713 1711 1737 1619 1696 1704 1774 1662 1716 1662 1752 1714 1691 1728 1653 1730 1667 1741 1719 1643 1723 1684 1702 1690 1695 1714 1814 1749 1662 1674 1639 1688 1631 1629 1630 1671 1673 1662 1779 1654 1749 1668 1665 1749 1638 1730 1763 1673 1706 1689 1720 1704 1673 1731 1716 1682 1689 1796 1685 1688 1682 1713 1694 1672 1718 1682 1622 1749 1747 1628 1648 1728 1716 1700 1693 1706 1735 1658 1652 1693 1739 1747 1708 1682 1701 1708 1736 1743 1760 1712 1636 1671 1726 1677 1690 1780 1744 1651 1765 1728 1664 1695 1643 1805 1715 1640 1689 1628 1593 1694 1782 1573 1711 1791 1735 1739 1709 1751 1774 1753 1652 1660 1615 1642 1595 1748 1679 1734 1646 1697 1610 1625 1598 1698 1674 1609 1659 1613 1641 1622 1671 1674 1677 1589 1645 1671 1700 1611 1698 1677 1588 1604 1565 1588 1611 1599 1592 1572 1646 1636 1598 1670 1479 1575 1539 1640 1625 1559 1562 1591 1647 1662 1561 1544 1647 1631 1557 1644 1674 1587 1553 1599 1586 1562 1668 1583 1635 1513 1535 1532 1562 1506 1631 1606 1592 1660 1560 1558 1607 1556 1596 1505 1537 1675 1524 1521 1602 1574 1510 1558 1524 1533 1534 1535 1547 1513 1509 1516 1581 1557 1601 1527 1542 1597 1596 1564 1500 1504 1565 1539 1576 1600 1511 1576 1504 1528 1558 1518 1509 1517 1460 1600 1636 1518 1638 1597 1586 1606 1640 1591 1677 1611 1815 1658 1738 1676 1825 1761 1921 1786 1900 1936 1979 1862 1855 1885 1816 1833 1947 1801 1909 1879 1832 1711 1803 1783 1659 1724 1754 1722 1635 1626 1630 1692 1607 1636 1616 1589 1632 1675 1601 1677 1639 1558 1638 1615 1582 1538 1626 1626 1645 1587 1526 1601 1659 1571 1739 1652 1591 1653 1552 1569 1547 1533 1510 1574 1481 1534 1494 1551 1412 1589 1496 1603 1561 1628 1573 1535 1641 1681 1590 1641 1628 1611 1562 1538 1540 1575 1537 1517 1569 1533 1519 1517 1536 1464 1546 1436 1521 1503 1448 1465 1501 1529 1586 1517 1460 1496 1546 1586 1465 1589 1572 1652 1590 1628 1642 1690 1840 1852 1918 1895 2153 2107 2203 2147 2286 2232 2171 2308 2402 2337 2351 2291 2290 2334 2561 2690 2723 2828 3098 3006 3172 2989 2958 2819 2752 2746 2722 2693 2522 2438 2330 2189 2031 1981 1946 1906 1820 1802 1810 1787 1709 1710 1645 1665 1702 1679 1684 1736 1616 1694 1675 1618 1630 1651 1534 1552 1606 1570 1496 1448 1538 1477 1441 1510 1454 1487 1424 1430 1348 1481 1365 1436 1428 1353 1402 1397 1381 1317 1467 1380 1344 1406 1334 1467 1421 1438 1389 1392 1451 1343 1389 1439 1416 1436 1479 1460 1455 1414 1519 1466 1468 1467 1446 1409 1474 1456 1496 1526 1459 1493 1414 1510 1535 1491 1518 1542 1508 1534 1527 1509 1495 1511 1521 1521 1389 1489 1476 1511 1481 1444 1466 1496 1438 1477 1390 1432 1410 1394 1412 1334 1375 1355 1334 1295 1309 1332 1386 1310 1326 1320 1278 1352 1361 1360 1342 1339 1265 1293 1355 1298 1287 1324 1236 1286 1291 1303 1306 1288 1312 1263 1259 1326 1210 1243 1233 1223 1244 1163 1220 1200 1228 1249 1280 1218 1227 1270 1232 1196 1223 1267 1290 1218 1274 1274 1260 1252 1274 1229 1275 1188 1229 1262 1226 1142 1243 1332 1226 1231 1256 1252 1265 1165 1130 1115 1257 1192 1250 1191 1177 1239 1236 1236 1185 1224 1173 1252 1216 1255 1213 1202 1261 1139 1212 1198 1260 1185 1250 1187 1221 1201 1203 1189 1239 1167 1198 1159 1239 1155 1221 1270 1245 1215 1176 1221 1198 1260 1198 1178 1205 1223 1218 1173 1251 1167 1190 1212 1247 1220 1246 1254 1285 1194 1220 1223 1283 1271 1279 1228 1181 1206 1196 1221 1259 1227 1265 1274 1232 1277 1254 1258 1232 1212 1204 1299 1254 1245 1255 1251 1278 1294 1193 1264 1257 1211 1204 1205 1199 1248 1282 1231 1211 1202 1217 1173 1255 1194 1263 1166 1183 1270 1240 1206 1141 1180 1223 1126 1178 1198 1155 1186 1159 1191 1170 1148 1228 1154 1094 1137 1227 1149 1187 1123 1166 1147 1117 1132 1179 1200 1167 1235 1188 1177 1147 1146 1228 1193 1139 1150 1139 1173 1199 1153 1185 1175 1192 1129 1155 1158 1145 1119 1169 1171 1204 1158 1129 1181 1229 1193 1194 1213 1129 1162 1173 1134 1112 1169 1170 1133 1163 1198 1175 1139 1168 1107 1145 1174 1145 1173 1172 1162 1145 1176 1169 1168 1117 1155 1226 1144 1106 1112 1181 1122 1125 1137 1150 1221 1173 1206 1133 1160 1213 1146 1186 1177 1187 1229 1188 1218 1190 1309 1265 1209 1309 1203 1284 1274 1330 1310 1478 1363 1415 1379 1481 1407 1482 1463 1445 1414 1411 1414 1468 1384 1425 1404 1429 1437 1447 1470 1445 1452 1440 1357 1422 1419 1413 1466 1410 1426 1455 1499 1502 1534 1565 1624 1631 1636 1632 1714 1693 1653 1679 1657 1628 1673 1670 1549 1465 1501 1456 1519 1451 1491 1394 1357 1341 1361 1410 1267 1233 1308 1254 1245 1222 1239 1274 1268 1333 1253 1244 1248 1290 1223 1295 1262 1292 1228 1348 1271 1285 1285 1244 1288 1270 1265 1339 1269 1275 1277 1274 1287 1224 1315 1282 1194 1278 1290 1281 1248 1335 1293 1257 1288 1264 1265 1278 1296 1367 1307 1304 1304 1320 1290 1325 1323 1277 1342 1303 1353 1266 1371 1252 1441 1325 1375 1379 1368 1291 1436 1352 1341 1261 1303 1311 1327 1306 1241 1242 1224 1165 1276 1198 1191 1224 1204 1152 1175 1145 1256 1140 1216 1174 1125 1137 1110 1162 1227 1139 1215 1135 1116 1149 1131 1217 1128 1124 1183 1066 1146 1131 1130 1133 1106 1112 1119 1109 1126 1071 1165 1072 1098 991 1106 1155 1076 1088 1121 1097 1021 1088 1070 1084 1087 1109 1152 1135 1116 1030 1035 1106 1052 1030 1081 1100 1104 1110 1094 1128 1108 1089 1072 1027 1075 1019 1062 1029 1045 1043 1103 1113 1082 1130 1099 1090 1092 1132 1036 1059 1076 1101 1093 1077 1116 1061 1068 1102 1042 1035 1056 1129 1121 1039 1052 1067 1020 1004 1058 1032 1047 1078 1053 1028 1049 1029 1067 1070 1036 1000 1052 1150 1062 1099 1038 1108 1041 1088 1037 1050 1082 1086 1096 1146 1025 1106 1105 1027 989 1116 1026 1024 1067 1035 1104 1046 1069 1108 1097 1105 1067 1073 1063 1079 1041 1060 1051 1122 1079 1064 1047 1057 1010 1136 1133 1097 1125 1139 1134 1150 1077 1120 1114 1152 1128 1184 1115 1037 1133 1044 1091 1060 1096 1166 1090 1092 1067 1092 1126 1054 994 1062 1052 1077 1049 1072 1046 1048 1005 1031 1086 1086 999 1069 1106 1060 1006 1101 1160 1039 1081 995 1004 1019 1039 1054 1087 1012 1047 1098 1008 1034 1037 1032 1072 1083 1074 1028 1079 974 1039 981 991 1060 1031 1003 1011 1001 1045 994 1021 1057 1015 1045 1022 1035 1038 1038 1016 1042 1065 1018 1019 1032 1047 963 1057 1042 1078 995 1079 1016 1055 1054 1110 1088 1029 1039 1032 1039 1061 1000 1051 1060 1060 1042 998 1045 1038 1016 1087 1050 1030 1036 954 1051 1067 999 992 1039 1067 1080 1021 981 1060 1075 976 966 1004 981 982 1002 1031 990 996 1028 1066 1009 1039 973 1007 1028 1003 1005 1011 998 1012 973 993 1000 1030 1037 1069 1024 1043 1085 1143 1065 1086 1111 1118 1087 1088 1060 1116 1128 1133 1113 1100 1128 1127 1070 1156 1066 1144 1123 1065 1129 1133 1060 1142 1077 1027 1016 1089 1072 1109 1011 1077 1028 1092 1082 1036 1073 1060 1128 1045 994 1013 1091 969 1032 1081 1040 1011 960 1023 1012 1017 1030 1015 1027 1030 1019 987 979 946 990 1066 1001 1001 987 1015 1033 967 1055 1029 987 886 1011 1021 1003 983 969 965 1003 995 972 977 953 989 982 978 1017 928 932 1037 985 995 990 974 960 1033 1033 976 969 978 949 991 926 974 946 1013 991 966 1013 954 959 1009 915 942 998 1000 954 964 1012 959 1031 971 948 1001 931 960 958 971 966 938 962 970 979 988 1021 974 940 999 974 945 987 957 984 1011 970 1034 990 943 981 1010 951 937 936 1005 1016 998 959 979 946 969 999 957 935 1015 961 954 989 948 943 981 958 1034 985 933 976 962 975 958 945 982 919 933 956 929 950 941 978 905 938 989 975 905 994 1013 938 935 981 981 984 937 994 940 922 936 992 971 929 990 1021 930 963 942 964 950 967 970 979 962 969 1016 945 989 975 980 928 976 950 931 955 937 963 962 983 951 918 948 974 933 979 904 950 977 990 1003 938 918 1008 945 958 1003 995 974 928 977 966 963 928 1004 947 1010 989 1018 937 936 930 967 956 1002 939 953 982 920 947 964 957 961 946 983 999 973 944 959 1029 946 948 1028 987 936 1004 1023 1045 977 1067 1053 1036 1045 1002 1022 1004 1078 992 1056 988 1087 1020 1015 1091 1049 1106 1025 1058 1055 1124 1035 1072 1067 1024 1100 1076 1088 1055 1054 1012 1007 1022 953 983 986 952 1000 991 1019 989 991 937 989 970 985 968 995 1008 984 993 918 940 991 974 963 894 948 979 1015 948 1005 978 962 967 984 988 993 943 973 951 979 964 957 872 1017 959 937 983 979 943 941 952 963 926 969 1012 988 912 946 1004 905 960 956 960 958 929 925 978 921 930 983 903 992 868 948 934 944 929 952 1018 896 968 944 962 916 1006 988 952 945 881 949 996 910 947 991 906 909 923 888 960 1007 1025 911 887 951 960 957 939 925 987 925 944 904 962 946 973 937 922 938 924 937 980 961 971 950 916 917 971 979 974 963 971 984 910 934 871 851 922 935 920 910 938 966 913 950 930 929 964 985 898 975 941 891 913 955 960 940 953 918 903 954 934 932 893 974 1006 926 897 922 891 940 932 950 969 893 890 924 864 927 897 913 899 893 897 908 938 937 879 942 935 978 950 974 880 926 941 924 958 914 1001 966 935 972 939 1017 974 929 963 989 1045 964 1005 1025 1058 1060 1077 1050 1017 1097 1014 1037 1101 1083 1139 1046 1036 1145 1099 1099 1156 1154 1066 1042 1131 1044 1054 1088 995 1085 974 1025 1059 1057 936 979 1082 1001 992 993 1008 1033 1009 1008 1017 964 1039 993 1036 1012 1000 927 1028 1005 948 941 964 935 959 947 911 887 932 928 955 972 923 928 900 942 849 938 909 896 901 937 943 898 943 923 904 948 965 978 954 881 934 932 856 933 973 931 924 921 921 948 938 961 916 894 907 966 948 924 883 910 943 916 923 910 904 965 969 912 914 931 942 865 892 938 939 935 925 914 929 961 941 950 1024 972 979 964 941 866 963 935 956 1002 894 951 926 942 939 1023 917 945 901 892 984 975 886 932 945 1001 924 969 987 969 984 970 969 969 969 973 998 943 933 921 929 916 982 984 990 937 983 937 1004 896 952 968 901 904 952 954 964 930 870 863 938 907 977 896 925 939 904 904 952 881 892 889 862 881 879 873 977 888 908 917 912 922 912 924 900 896 870 937 886 896 951 865 897 915 867 867 948 838 900 919 896 861 910 912 904 941 880 879 873 851 892 848 873 848 927 939 921 902 909 924 902 866 898 875 914 885 882 958 921 874 856 883 913 950 904 895 889 921 898 897 853 889 890 894 900 878 918 918 921 957 909 872 895 898 961 912 886 955 913 940 911 902 938 845 863 933 952 883 901 889 924 893 934 917 879 900 902 925 873 880 897 875 866 874 914 929 918 868 917 939 914 914 900 900 900 933 911 940 923 942 894 954 900 942 912 890 909 891 912 867 901 929 884 886 913 884 862 885 927 867 923 922 922 871 877 934 874 858 930 855 834 900 923 950 943 931 924 887 919 981 887 910 900 978 923 921 921 957 899 886 952 939 915 906 877 935 949 882 984 1005 944 1017 995 991 1066 1030 1082 1102 1128 1132 1191 1207 1243 1258 1246 1270 1230 1252 1249 1253 1209 1280 1332 1384 1349 1338 1353 1357 1332 1384 1332 1350 1356 1395 1475 1376 1442 1351 1406 1416 1408 1302 1405 1384 1321 1371 1414 1433 1423 1334 1415 1245 1240 1280 1362 1305 1323 1322 1323 1251 1311 1342 1268 1290 1246 1249 1186 1153 1131 1133 1157 1184 1100 1059 1017 1083 1122 1047 1038 1045 1044 1049 950 988 1037 1022 1034 988 1054 1020 981 957 1030 969 964 926 958 1001 943 975 978 945 925 924 982 940 926 1006 989 960 943 933 930 986 988 997 963 941 964 989 958 943 928 958 927 967 898 969 967 993 952 942 1016 953 999 1002 929 966 991 1004 1017 1033 963 1017 943 958 993 962 987 945 1035 1026 1062 918 1001 1020 986 957 977 1006 946 931 989 975 998 960 995 951 942 949 925 972 906 962 925 992 930 930 915 950 932 974 950 925 968 888 942 932 967 967 952 884 923 928 968 948 915 918 903 893 886 941 903 877 975 887 866 945 914 894 875 906 919 885 922 858 894 814 917 861 839 866 876 889 935 890 962 933 858 919 900 889 873 878 910 929 902 932 950 908 921 994 946 987 973 989 894 921 949 903 949 957 988 964 927 1007 928 991 949 923 899 938 942 975 936 893 907 877 875 884 933 905 869 922 962 906 881 893 933 942 909 875 900 883 911 880 869 885 856 896 1000 872 916 900 892 915 887 883 890 898 874 881 893 807 896 842 870 846 851 871 893 917 906 914 873 896 905 850 884 877 866 872 911 843 924 901 923 905 932 914 945 927 884 890 955 910 890 934 937 907 885 899 930 866 889 880 926 923 889 893 861 852 902 850 877 846 802 882 945 922 906 896 880 843 925 906 898 888 912 858 885 883 933 883 938 938 950 1009 945 873 881 945 950 942 925 925 953 962 954 894 972 988 879 892 904 905 898 919 928 882 889 916 946 888 921 908 944 948 892 874 906 874 836 871 818 925 890 836 886 875 854 958 885 891 851 826 824 901 792 863 835 928 853 820 847 860 859 877 891 838 870 790 822 807 867 895 911 851 799 862 878 877 830 870 839 789 838 784 863 857 796 825 792 876 849 906 874 888 820 833 827 842 810 843 830 874 865 802 834 831 831 870 898 837 846 847 894 870 874 853 828 792 821 822 858 857 854 845 853 859 784 853 821 828 833 874 767 848 826 891 872 851 808 853 910 732 875 825 816 840 835 847 845 823 842 848 849 863 833 861 873 792 819 811 834 812 866 805 856 839 803 855 901 820 819 859 819 787 828 883 843 888 800 825 756 890 794 866 846 817 834 856 836 836 815 828 794 847 822 836 805 803 817 873 871 781 795 827 904 876 831 831 754 798 842 786 918 846 854 816 836 814 870 877 823 798 846 819 835 806 877 840 875 864 862 861 864 837 845 892 813 846 846 914 888 857 790 887 840 890 844 857 869 876 889 908 889 946 903 870 918 966 917 905 920 872 844 856 839 880 840 891 810 863 862 828 848 859 847 888 858 849 878 851 840 882 826 855 836 849 824 834 843 809 845 832 832 842 826 798 886 777 826 854 840 845 863 864 844 865 801 877 827 833 855 818 852 829 797 806 819 848 849 842 795 843 850 847 817 847 827 846 834 895 816 785 849 805 800 830 853 794 815 789 790 794 825 868 790 839 789 852 771 872 820 838 801 851 819 809 863 850 870 826 890 811 793 818 791 832 810 817 834 858 851 796 785 782 793 855 833 856 859 825 852 868 825 796 909 863 844 815 841 853 852 799 833 794 816 852 825 875 784 798 817 828 890 837 772 832 832 862 851 836 815 835 799 846 812 789 896 892 831 860 854 821 856 799 814 804 836 842 890 855 842 886 820 886 872 846 817 874 869 911 834 830 922 865 881 845 844 802 818 881 886 818 854 853 850 839 890 865 857 871 917 901 899 873 863 843 892 863 908 836 949 899 842 890 821 843 915 854 909 864 841 897 843 854 841 826 897 889 840 919 898 878 829 889 839 848 863 911 922 906 984 967 916 943 955 1006 996 1053 1018 1036 1082 1124 1123 1170 1170 1204 1192 1241 1207 1172 1141 1211 1252 1231 1217 1164 1147 1166 1205 1243 1181 1180 1155 1237 1107 1118 1127 1042 1098 1021 1047 1034 979 1028 983 1014 1018 995 888 1000 908 950 919 845 894 940 907 914 912 878 923 910 858 885 910 897 882 867 895 900 918 890 908 895 886 889 844 844 796 902 842 843 874 919 891 837 910 869 833 884 865 866 919 871 881 839 808 836 880 848 864 857 864 892 850 846 883 863 819 841 886 862 825 783 862 855 818 881 820 863 838 858 813 808 856 797 844 875 833 811 838 821 833 884 812 798 788 888 760 798 842 852 852 849 780 804 777 849 754 790 879 837 818 839 807 804 824 858 840 792 852 797 809 809 786 809 861 836 805 845 782 810 844 882 799 801 803 830 819 829 800 858 783 880 817 819 785 842 794 830 833 769 837 798 790 799 829 805 797 790 862 757 851 847 818 844 787 805 791 788 853 844 813 808 799 800 781 774 788 792 851 800 813 750 846 804 782 821 803 814 775 844 747 844 797 834 786 806 804 805 838 848 826 777 821 770 798 745 822 784 816 835 831 795 823 751 819 815 789 814 859 748 812 805 826 804 880 841 840 844 825 861 903 914 913 877 976 900 918 894 1007 973 941 942 960 975 1008 1002 1008 1008 1052 1044 1046 1036 1043 1052 997 1057 993 996 1008 1004 956 976 1003 1021 1065 1056 998 1047 1072 1002 1118 1041 1017 1006 1005 1006 960 928 1000 927 906 909 971 917 929 971 900 938 922 978 952 909 850 846 894 858 843 838 913 874 812 862 859 856 813 809 801 813 878 833 824 808 837 837 845 846 861 859 898 854 861 892 846 872 852 799 878 823 862 877 867 855 944 850 881 770 802 810 780 857 858 868 799 821 907 850 868 826 829 822 839 834 798 832 825 829 828 819 840 844 806 815 788 843 784 800 798 840 795 764 815 823 765 782 805 799 804 827 778 797 848 832 775 789 734 816 821 858 823 802 806 822 813 861 829 827 792 830 800 889 881 837 874 877 862 906 848 852 855 884 872 885 845 895 919 866 816 860 845 838 894 884 900 927 863 928 850 890 886 909 873 856 897 876 869 837 911 848 813 889 839 860 798 841 862 860 852 811 848 835 838 776 811 821 832 858 793 833 808 824 836 824 837 834 809 782 825 836 839 764 810 812 816 814 779 828 821 787 778 798 801 804 877 823 833 865 836 824 815 805 824 805 799 780 799 840 789 773 781 772 785 826 782 774 811 798 802 840 780 783 844 813 797 788 850 815 765 814 836 793 794 758 820 769 791 830 815 800 832 826 776 798 768 801 822 817 783 818 802 822 782 766 824 804 782 833 760 788 745 762 786 766 781 838 808 852 837 740 854 770 805 771 827 788 822 802 754 780 824 794 742 796 812 850 833 804 831 811 840 828 787 775 856 787 777 793 796 819 793 815 791 779 797 775 825 781 786 742 763 776 817 768 809 876 821 795 785 803 786 787 798 781 772 840 783 830 824 770 818 790 775 779 802 756 821 748 772 805 803 802 831 780 786 753 787 810 784 729 769 713 759 740 780 747 760 759 759 815 739 841 770 790 805 803 780 773 807 774 736 752 799 732 764 819 705 776 832 816 761 770 739 801 762 733 814 767 762 830 818 739 795 791 769 737 724 763 814 748 763 795 763 767 743 772 796 786 776 826 767 800 765 734 786 786 799 786 795 786 746 770 786 783 788 790 783 770 739 806 763 769 795 747 741 825 728 762 755 790 748 764 754 777 809 792 732 776 753 806 763 768 778 753 770 763 773 782 742 819 765 803 799 775 743 811 737 815 847 759 762 769 806 843 772 823 822 807 768 760 785 807 798 790 801 788 757 821 769 775 754 776 789 785 747 770 797 816 782 809 783 790 875 809 774 758 835 786 804 785 823 832 766 767 775 791 754 880 782 758 792 788 778 802 767 829 766 754 729 756 794 785 762 742 797 804 808 800 776 791 769 804 730 731 759 802 740 716 805 727 778 745 771 763 756 870 751 827 738 751 768 793 792 734 745 732 747 787 790 763 720 811 803 786 710 742 763 802 775 771 794 747 807 732 788 771 750 762 770 750 781 783 749 768 737 758 775 801 741 747 821 753 775 798 797 739 780 764 756 769 799 789 740 746 751 776 813 783 742 752 796 811 789 767 729 786 711 781 775 760 739 765 748 787 744 768 844 768 798 764 806 766 812 785 748 762 768 775 803 828 797 815 808 818 801 866 827 814 847 758 855 878 821 801 847 817 801 809 765 821 844 799 830 748 810 827 836 803 798 789 803 778 830 807 836 843 804 849 853 817 813 811 754 785 816 733 751 820 763 805 742 825 755 780 817 792 803 792 782 785 828 762 764 768 770 763 816 736 824 797 771 803 797 819 796 795 754 750 787 780 816 796 753 803 805 728 768 806 767 783 767 740 722 735 788 793 779 761 825 798 769 800 787 742 785 736 831 780 811 829 777 765 807 775 763 767 773 786 790 828 758 811 800 802 819 762 814 805 753 770 780 769 827 791 814 787 727 781 810 803 797 753 727 765 794 765 777 816 809 872 776 811 789 820 796 783 754 789 771 787 772 799 788 764 777 793 752 762 802 754 757 789 765 809 785 771 812 743 835 758 752 749 783 748 804 804 759 772 755 759 759 776 806 855 770 791 733 786 757 764 790 753 753 746 768 747 741 815 787 790 726 740 749 787 773 768 796 806 722 778 748 731 770 715 802 821 782 790 816 770 781 773 758 715 739 761 751 741 819 752 810 755 780 780 746 802 816 753 818 760 751 813 782 785 803 734 817 805 742 755 740 783 842 772 741 762 788 798 746 768 802 746 734 810 804 773 777 801 796 784 844 778 747 835 765 729 796 751 750 822 726 771 749 810 773 737 795 775 770 763 752 765 750 812 730 740 785 764 771 805 767 794 780 780 787 807 805 889 809 735 811 774 780 777 769 789 710 770 782 809 768 748 777 782 821 769 811 787 789 710 829 791 786 858 794 841 829 789 811 807 784 772 797 831 775 783 821 788 792 841 831 786 803 869 804 775 778 810 786 775 798 777 866 797 746 776 765 775 799 797 766 717 829 771 839 845 778 777 808 775 794 797 812 770 800 801 744 765 729 777 756 746 753 758 767 762 772 764 781 787 777 752 788 773 784 812 770 821 745 776 768 752 785 825 801 778 795 751 735 777 749 787 799 779 773 772 754 770 792 755 804 815 842 838 775 752 743 812 732 790 725 764 780 811 788 783 763 803 728 732 809 739 762 778 768 840 719 713 752 774 757 821 762 761 754 788 767 780 741 779 712 767 743 778 763 795 746 836 808 793 822 750 795 771 806 781 790 752 823 747 844 771 824 774 736 746 758 790 786 770 785 742 791 744 800 796 741 788 758 813 762 765 784 776 782 777 786 845 771 789 839 794 781 779 759 766 780 761 760 748 776 773 763 785 777 758 791 776 717 803 741 774 746 743 804 770 795 770 786 781 765 756 759 769 761 745 792 718 772 756 779 771 805 761 758 780 793 831 736 775 779 779 764 799 814 778 804 756 767 757 745 746 749 817 786 796 767 763 806 846 763 803 765 786 809 776 810 777 762 777 785 768 762 743 816 800 766 784 790 740 783 753 777 735 774 779 730 802 776 808 835 791 744 771 766 763 753 764 751 718 780 803 774 772 792 768 767 777 719 760 718 766 769 801 833 825 843 766 730 787 802 767 801 762 767 825 805 759 751 743 798 806 784 780 764 754 746 740 746 756 703 778 786 802 761 769 794 789 844 798 778 780 798 762 777 774 784 756 768 723 814 750 751 762 734 760 763 758 769 760 706 757 728 771 753 782 807 847 777 798 781 773 801 739 811 777 772 704 773 704 750 737 793 781 720 744 736 812 711 758 766 760 755 790 762 763 832 753 736 776 802 794 763 703 744 769 785 758 757 827 790 777 804 805 821 765 740 809 773 763 754 740 755 772 814 826 810 743 794 787 759 763 785 769 781 819 780 757 770 760 749 742 754 796 762 790 803 746 779 756 751 838 773 786 781 771 806 812 813 775 787 802 762 753 743 784 775 794 785 825 797 759 770 767 777 802 787 803 818 794 790 788 793 785 802 728 755 753 786 781 773 779 776 779 814 720 779 813 801 749 802 855 813 808 789 780 791 794 763 799 765 821 767 773 814 787 725 766 756 759 838 744 827 828 825 781 733 807 781 738 772 782 793 752 855 763 784 796 775 739 780 751 740 772 786 776 839 784 752 781 828 802 800 752 785 745 834 819 769 791 748 803 734 758 845 793 751 787 818 830 801 799 741 767 812 735 800 769 779 781 811 768 736 806 783 818 771 776 745 778 739 742 785 760 709 781 853 776 798 746 779 790 820 778 855 777 743 797 857 838 784 748 756 760 752 784 831 764 772 796 748 785 793 813 813 805 785 814 835 776 836 771 804 830 818 787 788 836 795 784 798 865 849 808 810 847 763 815 811 824 844 807 814 813 788 779 835 803 777 823 799 830 798 818 847 853 853 822 820 777 768 809 900 841 857 792 797 796 812 804 837 861 813 889 860 872 865 861 855 883 837 841 843 872 809 871 877 778 892 898 761 826 839 849 844 864 798 876 780 804 836 838 836 837 838 867 824 882 858 849 871 864 813 865 839 913 845 861 856 793 868 838 822 779 845 796 773 816 810 790 840 769 746 825 841 850 781 867 780 850 782 817 762 832 804 847 833 832 809 861 808 799 751 783 825 800 785 813 800 770 789 784 814 764 800 767 779 798 793 820 794 798 772 776 800 741 831 769 755 796 769 808 742 823 794 788 790 804 802 739 806 760 764 785 801 791 777 817 858 766 767 741 757 787 787 794 796 815 775 749 772 777 768 766 831 804 830 723 755 755 840 796 800 770 770 771 802 800 764 808 784 769 784 841 749 790 775 780 728 728 811 793 781 825 749 796 774 836 786 791 800 750 751 777 825 833 780 768 811 870 732 794 774 806 833 770 786 800 786 805 837 791 713 782 816 796 847 799 742 773 787 827 741 818 801 777 779 838 780 799 752 787 836 762 817 793 771 839 783 885 779 815 768 806 758 874 774 777 755 781 883 817 775 783 859 771 804 801 842 801 766 810 788 790 849 841 819 796 824 805 825 812 855 788 850 856 834 806 845 819 873 810 812 875 890 838 836 884 882 871 824 833 869 878 856 848 891 842 848 884 841 821 922 798 870 860 841 824 824 858 841 829 810 826 905 836 837 818 793 862 859 884 800 824 777 859 810 788 762 852 819 872 837 760 786 798 831 813 780 804 836 767 817 781 749 791 816 802 784 798 808 801 795 800 783 835 780 792 775 852 822 761 794 823 779 785 777 809 834 773 746 753 831 837 789 783 766 839 795 781 778 799 799 808 845 747 775 744 766 761 762 816 770 795 752 768 807 760 792 771 760 805 810 790 796 794 785 788 830 775 817 776 850 772 807 767 792 757 762 796 777 746 747 795 772 791 790 732 783 761 789 758 784 836 769 764 763 764 826 788 845 722 757 765 795 806 849 762 773 795 735 801 807 775 803 810 790 802 738 743 817 821 763 769 751 792 802 761 765 787 796 740 755 814 739 808 744 789 779 776 758 764 823 775 787 763 773 812 806 851 795 793 807 802 810 766 773 773 712 776 864 766 800 799 779 816 824 759 777 782 797 780 805 810 777 789 784 773 867 791 766 790 787 772 774 775 846 814 767 778 863 792 781 874 813 772 828 784 782 795 794 770 858 796 792 810 835 750 833 799 765 797 827 823 792 793 816 787 755 764 787 809 722 810 769 747 792 759 763 779 801 822 757 839 787 752 794 818 777 746 790 834 775 799 725 735 738 753 769 774 774 729 749 759 755 793 750 800 775 796 797 742 805 753 801 784 787 788 751 794 783 745 751 727 739 796 732 711 720 768 773 803 742 758 812 731 766 796 789 709 774 758 757 749 784 786 767 784 818 842 793 833 767 756 743 798 778 788 749 740 736 745 750 807 798 766 757 732 754 744 757 770 772 779 779 768 795 781 753 774 782 761 778 728 807 754 798 749 751 808 772 736 765 741 790 760 775 800 743 782 770 771 755 754 767 789 792 726 734 789 816 777 773 764 769 790 767 753 772 800 764 780 789 778 756 728 758 753 792 777 757 721 754 716 768 794 783 741 763 767 814 813 754 754 776 787 758 755 791 729 778 807 771 712 746 750 732 818 804 770 767 763 809 767 739 743 779 798 779 750 788 821 763 841 779 761 756 774 775 768 771 755 751 735 762 736 788 800 766 737 739 774 768 760 781 758 784 756 707 782 789 738 759 742 771 809 757 843 820 760 765 754 780 761 822 788 767 818 810 792 724 713 728 740 749 748 758 768 767 752 757 812 716 757 799 736 796 805 716 767 779 793 770 788 722 770 792 742 734 821 734 768 754 727 751 761 792 730 767 848 734 798 722 776 799 783 766 767 721 757 690 817 777 735 785 755 758 721 782 738 751 724 773 798 791 774 773 728 788 754 753 779 801 790 756 723 737 805 721 790 780 765 727 758 771 799 746 795 791 762 794 771 747 788 768 767 755 827 736 800 751 839 775 745 782 804 747 792 774 726 776 768 804 754 782 796 750 804 747 829 761 794 760 775 755 756 799 779 801 783 797 784 767 761 755 817 797 779 779 839 733 813 780 761 763 740 726 781 809 773 795 782 791 790 801 788 825 805 793 766 741 812 748 829 779 721 739 760 745 761 771 731 814 777 762 731 732 739 769 835 719 758 796 788 814 743 790 760 868 781 714 784 752 713 742 780 744 731 752 802 782 777 749 782 775 780 776 798 790 750 793 779 867 797 751 723 788 773 772 817 782 785 796 820 780 735 791 769 724 790 762 781 781 768 819 775 775 784 772 792 820 759 811 781 747 754 803 759 739 821 799 804 738 801 751 792 763 760 807 768 815 790 755 797 748 744 772 742 750 790 742 773 779 704 773 746 714 797 762 772 774 751 780 747 750 781 759 722 755 762 744 773 741 769 715 813 760 766 718 815 769 769 785 784 758 736 690 741 791 767 762 776 768 798 741 781 707 778 727 759 817 721 730 819 752 828 795 801 775 801 733 755 780 823 750 779 802 721 762 766 783 765 772 721 792 763 746 759 785 781 794 772 779 783 694 737 759 787 766 761 815 777 791 753 749 767 760 767 774 793 807 826 796 771 803 804 811 828 825 821 887 813 832 803 803 850 834 895 877 934 824 875 873 880 899 887 853 906 898 871 802 859 853 878 878 859 896 833 940 941 852 863 853 916 848 855 885 887 861 854 891 882 893 926 924 881 951 912 916 965 926 915 899 874 873 913 868 832 842 822 834 851 821 805 850 853 846 815 831 782 838 876 893 864 864 878 813 850 811 822 857 817 830 752 785 847 825 826 817 758 778 803 835 825 779 816 792 808 789 749 778 758 779 783 810 797 779 821 818 811 721 770 797 785 785 794 782 789 736 780 832 799 756 734 802 777 781 773 719 769 769 756 808 773 774 810 780 759 775 782 772 809 820 828 799 769 755 762 774 805 738 771 783 763 821 795 771 800 799 709 760 760 765 796 771 811 805 769 818 753 761 721 753 812 776 820 791 842 775 729 804 743 829 762 782 786 788 771 805 810 800 768 788 714 750 748 772 795 835 779 762 775 794 789 803 784 805 794 806 804 815 726 818 799 812 792 818 738 809 733 805 795 774 830 755 787 822 779 733 775 748 776 719 774 774 749 783 768 780 767 727 731 794 753 722 792 768 736 770 751 800 780 768 787 811 817 772 745 810 805 750 759 804 756 717 754 769 777 755 751 793 776 781 733 773 776 792 739 750 775 769 783 762 826 761 793 798 762 746 754 742 786 780 736 793 810 817 799 800 776 736 745 783 827 762 765 823 794 844 767 792 804 789 780 785 796 806 803 827 789 763 785 764 838 808 776 837 813 729 762 767 852 812 771 784 703 767 784 833 763 805 732 724 810 780 796 740 761 808 809 773 784 809 731 731 803 771 756 784 796 797 733 772 817 763 779 809 776 751 784 765 760 766 730 774 750 793 778 756 824 789 820 756 737 745 810 790 817 789 765 741 775 776 791 744 780 806 745 759 740 742 795 754 770 771 760 774 704 793 766 817 849 768 818 811 758 764 785 756 753 736 724 762 790 772 772 733 766 785 768 758 763 745 767 740 784 834 714 729 797 739 737 753 736 784 740 810 729 754 768 778 765 774 762 766 804 754 783 738 799 748 756 788 762 781 845 764 794 728 782 733 791 784 773 743 730 797 758 766 797 755 723 755 750 746 793 762 771 747 788 813 739 802 732 724 824 795 807 789 764 772 787 746 777 788 780 825 728 767 771 797 797 785 824 801 776 783 783 780 805 788 848 759 812 783 805 752 766 791 796 774 725 791 756 783 816 784 811 782 779 789 786 801 770 775 765 714 786 806 746 743 742 790 778 787 792 759 786 727 758 741 830 749 738 694 735 749 734 732 773</counts>
			</dataPoints>
		</scan>
	</xrdMeasurement>
</xrdMeasurements>
