<?xml version="1.0"?>
<xrdMeasurements xmlns="http://www.xrdml.com/XRDMeasurement/2.3" xmlns:xsi="http://www.w3.org/2001/XMLSchema-instance" xsi:schemaLocation="http://www.xrdml.com/XRDMeasurement/2.3 http://www.xrdml.com/XRDMeasurement/2.3/XRDMeasurement.xsd" status="Completed" recordIdentifier="{3BF2A035-044B-4131-86DB-677886CFD957}">
	<comment>
		<entry/>
	</comment>
	<sample type="To be analyzed">
		<id>GPSS_Li1p5Co0p2Nb0p1Mn0p4Cu0p1Y0p2Cl4_122325_694ae824ae15af25ac372789</id>
		<name></name>
		<preparedBy></preparedBy>
	</sample>
	<xrdMeasurement measurementType="Scan" status="Completed" sampleMode="Reflection">
		<usedWavelength intended="K-Alpha 1">
			<kAlpha1 unit="Angstrom">1.5405980</kAlpha1>
			<kAlpha2 unit="Angstrom">1.5444260</kAlpha2>
			<kBeta unit="Angstrom">1.3922500</kBeta>
			<ratioKAlpha2KAlpha1>0.5000</ratioKAlpha2KAlpha1>
		</usedWavelength>
		<incidentBeamPath>
			<radius unit="mm">145.00</radius>
			<xRayTube id="1010048" name="Empyrean Cu LFF HR (9430 033 7310x)">
				<tension unit="kV">40.0</tension>
				<current unit="mA">15.0</current>
				<anodeMaterial>Cu</anodeMaterial>
				<focus type="Line">
					<length unit="mm">12.0</length>
					<width unit="mm">0.4</width>
					<takeOffAngle unit="deg">6.0</takeOffAngle>
				</focus>
			</xRayTube>
			<sollerSlit id="21010002" name="Soller slits 0.04 rad.">
				<opening unit="rad">0.0400</opening>
			</sollerSlit>
			<mask id="22031000" name="Fixed mask 13 mm">
				<width unit="mm">9.00</width>
			</mask>
			<divergenceSlit id="22120001" name="Divergence slit 1°" xsi:type="fixedDivergenceSlitType">
				<distanceToSample unit="mm">50.00</distanceToSample>
				<height unit="mm">1.52</height>
			</divergenceSlit>
		</incidentBeamPath>
		<sampleMovement xsi:type="spinningSampleMovementType">
			<spinnerRevolutionTime unit="seconds">1.0</spinnerRevolutionTime>
		</sampleMovement>
		<diffractedBeamPath>
			<radius unit="mm">145.00</radius>
			<antiScatterSlit id="22090040" name="AS slit 9 mm (PIXcel)" xsi:type="fixedAntiScatterSlitType">
				<height unit="mm">9.00</height>
			</antiScatterSlit>
			<sollerSlit id="21020003" name="Large Soller slits 0.04 rad.">
				<opening unit="rad">0.0400</opening>
			</sollerSlit>
			<filter id="20030001" name="Large beta-filter Nickel">
				<material>Ni</material>
				<thickness unit="mm">0.020</thickness>
			</filter>
			<detector id="7010019" name="PIXcel1D-Medipix3 detector" xsi:type="rtmsDetectorType">
				<phd unit="keV">
					<lowerLevel>4.02</lowerLevel>
					<upperLevel>11.27</upperLevel>
				</phd>
				<mode>Scanning</mode>
				<activeLength unit="deg">5.542</activeLength>
			</detector>
		</diffractedBeamPath>
		<scan appendNumber="0" mode="Continuous" scanAxis="Gonio" status="Completed">
			<header>
				<startTimeStamp>2025-12-24T15:09:01-08:00</startTimeStamp>
				<endTimeStamp>2025-12-24T15:17:08-08:00</endTimeStamp>
				<author>
					<name>AutomatedUser</name>
				</author>
				<source>
					<applicationSoftware version="1.7b (136)">PANalytical Aeris Instrument Suite</applicationSoftware>
					<instrumentControlSoftware version="3.2.00000000 20240306">AERIS</instrumentControlSoftware>
					<instrumentID>950485</instrumentID>
				</source>
			</header>
			<dataPoints>
				<positions axis="2Theta" unit="deg">
					<startPosition>10.00943322</startPosition>
					<endPosition>99.99442286</endPosition>
				</positions>
				<positions axis="Omega" unit="deg">
					<startPosition>5.00471661</startPosition>
					<endPosition>49.99721143</endPosition>
				</positions>
				<commonCountingTime unit="seconds">12.495</commonCountingTime>
				<counts unit="counts">3060 3104 3098 3074 3154 3120 3031 3129 3223 3145 3204 3133 3077 3083 3106 3053 3149 3106 3088 3158 3074 3185 3176 3069 3184 3225 3062 3369 3222 3226 3164 3138 3094 3256 3151 3278 3224 3218 3287 3229 3194 3203 3415 3249 3238 3190 3208 3314 3132 3142 3269 3230 3264 3264 3328 3282 3311 3252 3204 3240 3362 3326 3333 3210 3354 3297 3333 3433 3307 3354 3375 3290 3286 3212 3281 3244 3295 3266 3294 3390 3364 3404 3356 3323 3518 3392 3469 3360 3455 3366 3427 3411 3512 3421 3494 3443 3333 3498 3385 3546 3413 3528 3437 3460 3529 3566 3503 3490 3420 3383 3450 3635 3527 3570 3426 3520 3495 3537 3506 3498 3531 3495 3422 3499 3557 3579 3613 3689 3516 3598 3613 3616 3524 3496 3489 3540 3495 3574 3537 3589 3548 3476 3685 3605 3601 3616 3540 3599 3696 3607 3588 3578 3558 3696 3660 3521 3631 3569 3699 3618 3610 3614 3667 3707 3585 3551 3574 3598 3587 3691 3550 3756 3563 3611 3547 3592 3689 3491 3681 3609 3522 3701 3634 3709 3746 3678 3627 3679 3536 3694 3611 3630 3669 3638 3580 3649 3612 3633 3619 3797 3488 3765 3532 3630 3623 3701 3615 3560 3602 3735 3628 3597 3573 3639 3527 3700 3567 3596 3569 3782 3619 3568 3542 3705 3568 3621 3608 3476 3586 3524 3507 3574 3673 3587 3587 3502 3618 3645 3586 3638 3595 3634 3580 3508 3544 3575 3573 3479 3495 3553 3484 3516 3484 3591 3443 3520 3596 3570 3534 3510 3516 3573 3553 3522 3513 3588 3506 3501 3553 3694 3591 3490 3567 3532 3580 3512 3468 3491 3618 3633 3519 3463 3637 3568 3574 3524 3611 3543 3565 3593 3619 3543 3627 3374 3559 3491 3549 3491 3632 3539 3524 3612 3545 3617 3551 3566 3668 3632 3593 3598 3573 3583 3610 3555 3581 3576 3647 3529 3682 3650 3646 3680 3633 3627 3725 3556 3583 3688 3553 3686 3719 3560 3684 3622 3666 3662 3563 3624 3559 3696 3657 3690 3741 3659 3647 3763 3806 3863 3640 3830 3789 3901 3758 3709 3742 3754 3754 3741 3731 3783 3780 3839 3768 3781 3699 3837 3721 3838 3749 3847 3811 3868 3887 3926 3857 3857 3800 3790 4017 3853 3820 3927 3800 4051 3842 3824 3944 3815 3981 3961 3753 3948 3829 3959 3901 3906 3786 4002 3951 4021 4006 3964 3907 4079 3991 3912 4001 4117 3954 4087 4058 4122 4056 4011 3975 4020 4077 4179 4143 4140 4052 4191 4200 4270 4206 4235 4189 4262 4197 4223 4185 4297 4293 4326 4238 4328 4390 4289 4210 4355 4448 4390 4424 4513 4462 4592 4476 4597 4678 4823 4706 4491 4726 4621 4464 4544 4527 4474 4397 4425 4326 4371 4224 4266 4192 4179 4228 4012 4038 3938 3944 4091 3956 4008 3975 3976 3837 3875 3940 4017 4013 3930 3824 3902 3940 3901 3861 3980 3941 3904 3950 3768 3810 3788 3754 3857 3843 3777 3819 3793 3824 3757 3855 3773 3815 3868 3696 3765 3766 3727 3789 3795 3768 3848 3700 3729 3625 3705 3588 3827 3703 3816 3856 3937 3633 3692 3700 3668 3679 3699 3682 3715 3682 3696 3631 3676 3791 3747 3775 3655 3657 3781 3688 3767 3775 3807 3737 3685 3817 3703 3707 3817 3777 3786 3812 3816 3823 3865 3808 3768 3921 3691 3896 3748 3755 3760 3598 3562 3522 3615 3487 3502 3528 3436 3447 3417 3471 3447 3473 3493 3329 3532 3491 3441 3496 3376 3486 3433 3474 3405 3390 3521 3402 3394 3298 3443 3456 3479 3370 3477 3296 3357 3368 3432 3420 3309 3320 3453 3361 3394 3399 3258 3334 3308 3270 3351 3378 3352 3361 3323 3304 3384 3292 3270 3373 3418 3373 3256 3364 3284 3292 3321 3358 3389 3315 3396 3354 3438 3353 3220 3322 3293 3354 3225 3199 3196 3259 3270 3236 3353 3288 3293 3215 3277 3300 3184 3279 3189 3377 3230 3235 3189 3360 3251 3333 3225 3265 3214 3245 3289 3217 3360 3139 3241 3159 3239 3268 3269 3118 3157 3274 3168 3196 3235 3182 3268 3281 3160 3228 3252 3166 3308 3277 3206 3197 3294 3122 3232 3179 3177 3249 3205 3199 3128 3207 3222 3261 3101 3208 3150 3130 3172 3156 3237 3163 3257 3138 3263 3265 3125 3327 3152 3181 3218 3246 3104 3345 3163 3261 3119 3239 3282 3196 3284 3270 3238 3264 3160 3158 3228 3114 3206 3203 3218 3232 3238 3149 3180 3230 3142 3225 3277 3146 3208 3109 3243 3219 3173 3192 3171 3189 3204 3121 3240 3094 3081 3083 3145 3201 3167 3173 3130 3133 3180 3085 3040 3060 3120 3173 3027 3181 3101 3080 3172 3083 3075 3143 3036 3091 3058 3113 3193 3142 3105 2995 3029 3077 3073 2979 2982 3148 3058 3058 3209 3061 2954 3126 2951 3068 3057 3077 3056 2978 3078 3000 2869 2982 3018 3017 3074 2968 2984 2942 3061 3041 3031 3082 2956 2982 3028 2957 2889 2936 2988 2975 2994 3006 2914 2957 2817 3006 2893 3064 2990 2954 3056 2990 2889 2978 2932 2893 2992 2945 2986 2837 2919 2978 2996 2952 2892 2944 2849 2908 2926 2965 2972 3015 2990 2985 2990 2964 2921 2899 2976 2909 2961 2946 2823 2881 2901 2956 2949 2832 2949 2798 2844 2942 2913 2830 2916 2946 2846 2839 2920 2967 2803 2820 2860 2835 2848 2824 2873 2818 2860 2897 2876 2940 2858 2858 2926 2763 2843 2881 2835 2851 2915 2914 2873 2755 2848 2793 2783 2869 2773 2871 2905 2812 2768 2897 2923 2806 2764 2843 2822 2744 2797 2818 2887 2808 2730 2685 2773 2800 2786 2863 2805 2832 2802 2754 2812 2842 2736 2866 2743 2822 2773 2832 2878 2779 2658 2757 2885 2786 2727 2818 2643 2746 2728 2847 2725 2924 2766 2712 2785 2815 2624 2741 2827 2727 2802 2742 2743 2786 2763 2768 2766 2773 2763 2833 2753 2665 2749 2769 2744 2693 2716 2842 2752 2903 2767 2846 2732 2798 2733 2785 2721 2765 2706 2726 2764 2793 2727 2729 2776 2814 2824 2744 2705 2760 2834 2756 2724 2785 2629 2793 2750 2843 2821 2795 2713 2852 2732 2656 2761 2806 2876 2751 2891 2789 2842 2765 2805 2703 2791 2823 2776 2895 2759 2806 2794 2670 2756 2882 2828 2785 2832 2778 2850 2744 2856 2730 2756 2805 2800 2837 2821 2746 2711 2792 2827 2807 2811 2777 2786 2850 2734 2706 2885 2750 2800 2813 2784 2741 2790 2916 2838 2759 2744 2739 2853 2862 2811 2827 2736 2760 2716 2810 2667 2796 2832 2861 2762 2720 2821 2757 2786 2825 2727 2835 2785 2798 2730 2780 2666 2770 2691 2799 2694 2748 2839 2876 2670 2789 2802 2751 2787 2723 2738 2680 2765 2701 2772 2684 2784 2756 2730 2789 2693 2739 2820 2685 2733 2681 2832 2792 2654 2728 2728 2602 2718 2649 2826 2693 2683 2637 2777 2741 2704 2775 2821 2754 2670 2787 2750 2689 2692 2680 2626 2677 2726 2676 2729 2737 2707 2607 2654 2607 2636 2776 2743 2581 2722 2674 2556 2603 2694 2657 2532 2680 2613 2631 2580 2603 2681 2583 2534 2606 2518 2560 2676 2510 2569 2614 2537 2557 2566 2485 2527 2544 2609 2393 2488 2586 2492 2507 2471 2469 2536 2462 2399 2526 2440 2583 2454 2419 2408 2442 2537 2456 2407 2377 2459 2491 2441 2435 2421 2444 2364 2366 2431 2441 2420 2387 2299 2393 2356 2475 2327 2316 2261 2398 2369 2342 2398 2387 2327 2424 2389 2321 2302 2320 2345 2228 2360 2334 2355 2355 2279 2410 2179 2320 2210 2380 2364 2277 2301 2228 2276 2238 2243 2229 2267 2332 2323 2213 2196 2325 2327 2292 2338 2256 2297 2318 2345 2192 2381 2246 2201 2283 2326 2258 2248 2321 2267 2259 2214 2367 2310 2272 2198 2326 2180 2270 2315 2192 2258 2339 2209 2277 2249 2318 2211 2260 2293 2313 2234 2275 2240 2186 2223 2230 2190 2179 2298 2222 2211 2160 2223 2203 2294 2230 2081 2182 2142 2199 2151 2181 2187 2188 2232 2265 2235 2089 2185 2160 2141 2204 2199 2168 2185 2252 2254 2199 2244 2089 2170 2197 2230 2167 2189 2154 2172 2095 2252 2225 2169 2226 2161 2210 2280 2295 2186 2141 2127 2178 2233 2248 2188 2190 2202 2170 2180 2165 2195 2219 2248 2235 2127 2223 2198 2220 2240 2137 2150 2248 2229 2220 2232 2151 2147 2166 2285 2147 2164 2258 2192 2199 2207 2206 2203 2194 2192 2163 2257 2219 2201 2204 2191 2184 2176 2214 2180 2153 2101 2120 2187 2133 2154 2197 2141 2228 2129 2204 2261 2252 2116 2151 2146 2237 2215 2132 2184 2137 2243 2247 2252 2150 2264 2189 2273 2180 2194 2193 2287 2194 2193 2182 2192 2150 2172 2289 2183 2206 2168 2148 2161 2217 2145 2136 2177 2133 2258 2157 2166 2244 2229 2194 2144 2112 2286 2126 2260 2198 2276 2284 2132 2252 2128 2271 2222 2264 2204 2195 2154 2154 2197 2073 2093 2114 2167 2148 2192 2208 2124 2227 2125 2197 2152 2116 2126 2231 2217 2094 2237 2164 2126 2128 2108 2188 2181 2187 2164 2249 2077 2207 2135 2144 2095 2128 2030 2061 2151 2162 2127 2133 2097 2138 2177 2125 2091 2160 2127 2148 2248 2108 2162 2093 2111 2103 2092 2008 2173 2147 2045 2144 1992 2155 2085 2106 2073 2008 2088 2111 2072 2092 2085 2075 2071 2110 2084 2090 2076 2051 2035 2085 2005 2000 2067 2016 2041 1986 2050 1974 1997 2045 2077 2095 2035 1960 1965 1963 1998 1956 1980 1958 1959 1988 1967 1994 2004 1913 2032 2062 1995 1943 1909 1898 2004 1965 1882 1925 1950 1971 1940 1935 1959 1991 2036 2000 1952 1871 1869 2005 1895 2014 1893 1929 1907 1871 1843 1998 1893 1990 1810 1909 1998 1931 1940 1916 1893 1897 1879 1925 1903 1943 1971 1955 1979 1858 1927 1968 1834 1968 1957 1986 1971 1988 2045 2083 2038 2037 2088 2073 2112 2088 2055 2092 2125 2121 2123 2114 2198 2129 2198 2182 2128 2255 2173 2263 2208 2265 2368 2345 2294 2372 2345 2338 2424 2403 2439 2493 2605 2575 2611 2578 2630 2611 2527 2632 2647 2523 2630 2685 2595 2395 2390 2395 2352 2303 2218 2255 2134 2004 2095 2094 1957 1969 1925 1904 1910 1857 1922 1952 1875 1857 1820 1827 1854 1778 1872 1820 1819 1728 1799 1774 1843 1831 1766 1834 1744 1732 1773 1872 1837 1798 1793 1837 1852 1712 1824 1833 1796 1774 1820 1806 1859 1835 1786 1834 1787 1799 1782 1848 1755 1921 1803 1819 1872 1854 1846 1819 1921 1879 1943 1967 1957 2086 2071 2042 2021 2120 2063 2187 2187 2225 2239 2243 2176 2237 2233 2216 2278 2469 2317 2324 2353 2431 2393 2396 2376 2445 2590 2582 2648 2622 2584 2700 2772 2806 2860 2911 3003 3099 3012 2964 3107 3010 3079 2979 2947 2918 2875 2749 2696 2695 2558 2468 2438 2315 2257 2249 2117 2120 2025 2007 2012 1886 1889 1870 1921 1825 1910 1790 1852 1842 1846 1832 1801 1771 1836 1860 1809 1891 1814 1767 1758 1834 1763 1763 1786 1737 1800 1717 1741 1724 1771 1738 1676 1726 1706 1755 1781 1733 1699 1654 1665 1638 1604 1597 1722 1657 1695 1648 1656 1688 1665 1639 1646 1726 1682 1658 1650 1690 1718 1684 1743 1692 1717 1606 1651 1662 1703 1682 1681 1600 1617 1615 1618 1625 1640 1654 1723 1585 1610 1674 1651 1684 1739 1705 1560 1658 1658 1642 1635 1685 1619 1655 1613 1648 1605 1692 1692 1740 1652 1755 1702 1705 1797 1762 1795 1820 1793 1933 1895 1961 2065 2009 1927 2031 2091 1995 2112 1980 2079 1991 2045 2040 1986 2139 2174 2163 2242 2142 2172 2201 2321 2320 2424 2435 2601 2641 2684 2758 2846 2871 2826 2926 2919 3079 2998 3083 2844 2950 2785 2692 2576 2468 2357 2401 2218 2075 2038 1944 1899 1883 1785 1757 1704 1668 1720 1696 1681 1653 1617 1694 1618 1631 1652 1626 1656 1649 1621 1612 1645 1624 1566 1552 1615 1678 1614 1652 1654 1673 1656 1713 1681 1682 1646 1703 1735 1666 1708 1673 1673 1642 1663 1673 1613 1646 1623 1607 1544 1584 1613 1607 1643 1523 1535 1572 1525 1535 1532 1516 1575 1508 1556 1521 1573 1534 1564 1491 1485 1593 1575 1593 1521 1576 1509 1555 1562 1561 1534 1645 1486 1594 1567 1500 1576 1535 1496 1543 1516 1470 1593 1495 1494 1507 1615 1571 1606 1557 1547 1505 1535 1486 1490 1508 1519 1564 1517 1500 1495 1503 1624 1481 1455 1474 1534 1439 1488 1481 1527 1523 1564 1567 1522 1468 1563 1505 1484 1570 1488 1593 1576 1524 1597 1516 1510 1526 1610 1504 1546 1564 1540 1486 1587 1599 1536 1533 1573 1580 1577 1608 1512 1578 1628 1607 1590 1602 1595 1590 1570 1666 1592 1638 1546 1601 1664 1561 1639 1622 1651 1607 1589 1638 1587 1692 1628 1571 1702 1693 1648 1711 1684 1767 1681 1703 1696 1704 1788 1765 1761 1742 1792 1815 1890 1795 1801 1841 1858 1784 1877 1863 1821 1874 1878 1868 1910 1911 1993 1922 1980 2006 1929 1961 2096 2017 2112 2181 2136 2199 2346 2323 2388 2394 2428 2587 2592 2609 2721 2629 2770 2887 2865 2879 3000 3091 3123 3145 3217 3280 3396 3400 3552 3497 3741 3858 3999 4033 4217 4362 4348 4593 4472 4514 4717 4706 4939 4884 4895 4806 4735 4884 4735 4573 4459 4322 4251 4016 3952 3807 3534 3347 3324 3037 2856 2719 2711 2453 2318 2295 2216 2073 2037 2003 1943 1890 1849 1872 1717 1759 1751 1769 1706 1718 1727 1655 1726 1760 1693 1654 1697 1696 1706 1664 1722 1665 1612 1670 1720 1690 1681 1636 1617 1556 1670 1589 1627 1600 1569 1535 1563 1620 1587 1544 1597 1530 1574 1570 1555 1553 1522 1560 1523 1517 1572 1559 1576 1527 1512 1571 1634 1554 1561 1557 1492 1608 1541 1545 1554 1537 1616 1511 1533 1503 1416 1478 1571 1447 1536 1579 1613 1555 1521 1554 1542 1530 1546 1516 1578 1551 1554 1559 1482 1579 1517 1485 1528 1566 1527 1491 1585 1485 1536 1467 1481 1516 1549 1564 1489 1571 1493 1534 1519 1534 1468 1553 1523 1535 1549 1493 1496 1532 1453 1523 1495 1502 1533 1518 1474 1474 1453 1513 1403 1489 1540 1511 1540 1544 1493 1471 1462 1453 1484 1562 1538 1517 1476 1515 1450 1583 1491 1526 1450 1475 1488 1505 1497 1467 1498 1546 1495 1500 1428 1492 1553 1483 1469 1400 1500 1491 1489 1519 1467 1544 1535 1536 1473 1497 1468 1455 1536 1554 1434 1462 1431 1484 1525 1484 1564 1447 1514 1362 1466 1465 1502 1483 1467 1488 1481 1419 1516 1426 1480 1490 1445 1424 1465 1446 1506 1439 1409 1453 1466 1515 1534 1425 1418 1472 1365 1526 1424 1421 1475 1451 1503 1484 1384 1427 1526 1431 1525 1425 1448 1456 1492 1446 1428 1401 1527 1413 1486 1420 1455 1463 1443 1438 1461 1480 1526 1450 1499 1426 1474 1436 1457 1424 1412 1457 1489 1489 1443 1444 1519 1461 1478 1355 1474 1418 1550 1489 1497 1488 1451 1489 1509 1500 1425 1490 1421 1571 1474 1423 1470 1465 1388 1430 1422 1538 1382 1499 1434 1442 1426 1460 1499 1465 1490 1461 1473 1449 1404 1419 1414 1410 1449 1468 1471 1384 1491 1486 1396 1448 1442 1432 1424 1358 1427 1383 1445 1467 1419 1428 1448 1485 1431 1374 1482 1422 1403 1416 1467 1456 1403 1498 1439 1432 1345 1406 1545 1377 1515 1389 1327 1505 1414 1518 1455 1386 1502 1442 1414 1460 1421 1456 1404 1332 1439 1369 1420 1348 1487 1430 1451 1425 1445 1477 1423 1391 1459 1448 1358 1438 1384 1435 1391 1374 1399 1365 1409 1408 1396 1379 1379 1420 1364 1422 1383 1333 1470 1401 1370 1448 1428 1431 1345 1410 1407 1398 1426 1420 1417 1402 1427 1380 1400 1386 1395 1420 1449 1421 1414 1402 1369 1392 1345 1389 1388 1527 1455 1463 1463 1384 1474 1449 1443 1369 1506 1439 1452 1432 1401 1475 1409 1397 1422 1460 1448 1358 1436 1361 1388 1398 1406 1460 1376 1439 1448 1391 1469 1334 1424 1472 1388 1412 1406 1388 1401 1439 1426 1350 1477 1334 1348 1321 1413 1439 1392 1406 1430 1422 1485 1425 1420 1415 1388 1480 1351 1395 1322 1376 1408 1391 1383 1392 1469 1451 1455 1431 1331 1383 1397 1392 1317 1392 1322 1374 1399 1386 1417 1395 1439 1376 1378 1391 1409 1396 1399 1412 1360 1358 1430 1398 1368 1418 1422 1476 1392 1442 1392 1441 1446 1355 1461 1381 1435 1450 1405 1443 1435 1490 1422 1390 1408 1486 1463 1460 1458 1469 1439 1509 1532 1513 1458 1534 1574 1603 1545 1593 1661 1587 1576 1669 1645 1570 1662 1626 1729 1728 1755 1751 1698 1708 1796 1675 1731 1839 1839 1920 1982 1926 1975 1968 2009 2089 2047 2097 2073 2043 2190 2209 2243 2104 2160 2187 2164 2177 2115 2125 2046 2050 1997 1927 1863 1819 1798 1773 1707 1657 1728 1615 1621 1527 1583 1515 1507 1481 1499 1467 1446 1467 1417 1432 1421 1353 1445 1401 1501 1416 1462 1395 1423 1409 1481 1428 1381 1427 1458 1383 1461 1421 1456 1417 1379 1413 1495 1412 1381 1385 1357 1441 1415 1346 1487 1411 1459 1449 1425 1401 1457 1392 1403 1430 1431 1506 1404 1292 1463 1395 1414 1376 1402 1398 1367 1434 1387 1422 1350 1316 1417 1421 1425 1383 1447 1394 1362 1423 1305 1420 1441 1489 1406 1476 1369 1375 1443 1441 1462 1417 1382 1417 1438 1430 1475 1502 1442 1489 1448 1409 1494 1394 1369 1484 1427 1435 1484 1482 1395 1414 1493 1397 1483 1445 1446 1434 1481 1530 1494 1530 1413 1477 1575 1494 1519 1515 1431 1490 1542 1524 1446 1461 1481 1493 1406 1500 1447 1435 1504 1496 1514 1463 1549 1485 1498 1516 1513 1523 1478 1501 1513 1539 1470 1558 1520 1537 1507 1501 1533 1451 1415 1411 1459 1389 1567 1380 1455 1376 1351 1421 1484 1390 1360 1439 1399 1311 1403 1416 1440 1444 1365 1462 1377 1419 1366 1321 1367 1392 1397 1384 1452 1409 1340 1402 1444 1414 1392 1390 1387 1477 1399 1430 1441 1418 1454 1421 1432 1320 1453 1387 1409 1386 1484 1388 1502 1388 1446 1394 1420 1389 1381 1402 1436 1451 1417 1401 1451 1400 1375 1347 1428 1476 1482 1360 1461 1404 1432 1412 1396 1401 1482 1422 1444 1421 1455 1415 1428 1458 1433 1431 1480 1455 1490 1476 1398 1417 1439 1432 1469 1425 1482 1462 1412 1466 1418 1442 1471 1365 1477 1505 1485 1460 1498 1473 1475 1502 1514 1441 1466 1537 1536 1448 1523 1435 1459 1410 1436 1618 1491 1412 1411 1391 1409 1395 1421 1460 1391 1397 1428 1414 1426 1419 1423 1358 1430 1366 1334 1461 1454 1371 1398 1370 1386 1371 1393 1394 1400 1411 1364 1369 1430 1341 1398 1384 1416 1467 1522 1439 1535 1451 1496 1420 1495 1577 1504 1525 1551 1517 1568 1578 1624 1649 1617 1569 1679 1613 1661 1656 1656 1654 1660 1604 1760 1773 1744 1664 1780 1860 1888 1790 1906 1894 1862 1890 1927 1844 1847 1938 1923 1907 1921 1942 1879 1963 1931 1860 1889 1855 1839 1764 1836 1743 1660 1775 1709 1613 1596 1612 1592 1576 1574 1594 1605 1517 1531 1459 1511 1496 1442 1435 1436 1479 1433 1376 1432 1440 1387 1422 1398 1384 1371 1379 1405 1408 1382 1397 1355 1379 1347 1499 1323 1403 1426 1404 1387 1350 1376 1404 1321 1391 1366 1344 1365 1435 1427 1428 1444 1384 1428 1404 1463 1353 1409 1362 1326 1371 1426 1382 1340 1370 1345 1432 1430 1417 1347 1330 1337 1456 1405 1316 1429 1395 1430 1428 1379 1328 1439 1415 1288 1412 1416 1389 1395 1318 1390 1439 1371 1457 1443 1310 1348 1408 1403 1424 1434 1396 1370 1367 1348 1396 1302 1403 1391 1311 1418 1420 1454 1372 1351 1420 1421 1389 1397 1400 1371 1363 1373 1435 1342 1363 1389 1349 1445 1387 1412 1415 1309 1381 1352 1371 1343 1333 1426 1424 1351 1366 1333 1371 1288 1336 1393 1337 1360 1364 1393 1384 1383 1369 1352 1392 1456 1370 1398 1405 1383 1295 1422 1357 1388 1393 1411 1320 1355 1326 1339 1436 1439 1360 1406 1422 1364 1350 1404 1390 1362 1386 1363 1401 1382 1382 1403 1341 1425 1388 1313 1385 1347 1454 1373 1316 1370 1407 1412 1347 1401 1346 1320 1351 1349 1365 1382 1392 1365 1413 1362 1340 1372 1333 1336 1422 1443 1415 1355 1341 1366 1374 1423 1321 1361 1401 1386 1319 1452 1405 1401 1408 1414 1417 1436 1402 1469 1335 1457 1318 1334 1368 1478 1352 1342 1323 1457 1385 1404 1417 1390 1327 1455 1355 1388 1430 1419 1383 1404 1412 1345 1453 1470 1396 1424 1427 1425 1372 1455 1468 1357 1446 1414 1476 1505 1418 1425 1422 1401 1430 1414 1466 1439 1474 1475 1505 1413 1519 1449 1591 1517 1483 1539 1564 1618 1589 1532 1621 1578 1600 1515 1594 1646 1589 1658 1731 1708 1644 1795 1752 1812 1686 1825 1710 1748 1829 1861 1955 1897 1949 1928 2027 1958 2072 2041 1971 2067 2055 2054 2003 2095 2002 2076 2040 2030 2054 2077 2012 2073 2105 2144 2049 2068 2129 2139 2088 2175 2259 2260 2219 2342 2404 2404 2557 2510 2718 2606 2800 2744 2819 2840 2986 2996 3066 3141 3133 3297 3251 3510 3405 3539 3485 3522 3516 3531 3501 3576 3464 3521 3547 3436 3371 3333 3374 3164 3085 3081 2940 2921 2867 2757 2650 2456 2553 2346 2286 2069 2161 2133 2002 1991 1862 1868 1845 1835 1801 1688 1744 1663 1628 1561 1492 1557 1432 1538 1569 1451 1506 1517 1591 1538 1508 1577 1481 1435 1509 1484 1461 1441 1520 1465 1530 1369 1401 1461 1469 1388 1416 1441 1452 1457 1494 1435 1507 1410 1441 1438 1403 1483 1428 1480 1397 1406 1398 1449 1368 1494 1379 1489 1427 1465 1301 1446 1453 1423 1365 1423 1368 1428 1409 1372 1457 1399 1331 1393 1449 1375 1366 1494 1410 1503 1408 1406 1407 1391 1422 1413 1437 1391 1357 1402 1306 1380 1424 1341 1421 1385 1373 1357 1417 1413 1439 1413 1453 1331 1476 1368 1365 1410 1368 1435 1368 1402 1399 1318 1346 1355 1398 1404 1329 1419 1259 1375 1336 1371 1306 1408 1341 1394 1335 1352 1310 1396 1392 1367 1428 1360 1374 1378 1416 1378 1372 1294 1450 1354 1321 1377 1385 1377 1372 1347 1330 1354 1350 1376 1373 1360 1351 1433 1334 1369 1406 1438 1351 1385 1378 1398 1459 1471 1414 1393 1368 1390 1470 1474 1498 1381 1383 1449 1437 1530 1462 1594 1427 1473 1423 1548 1484 1558 1500 1475 1522 1526 1462 1579 1564 1462 1570 1554 1648 1573 1512 1496 1537 1521 1581 1524 1553 1496 1495 1492 1492 1524 1503 1469 1449 1456 1429 1435 1446 1405 1426 1406 1415 1359 1385 1368 1393 1444 1406 1433 1362 1371 1332 1389 1388 1407 1383 1352 1392 1453 1324 1347 1351 1413 1360 1375 1383 1378 1409 1371 1421 1487 1331 1432 1419 1351 1380 1384 1375 1315 1383 1364 1383 1383 1360 1379 1446 1393 1365 1398 1364 1334 1364 1404 1431 1434 1448 1379 1440 1339 1429 1376 1368 1465 1435 1453 1439 1473 1480 1438 1460 1448 1465 1441 1438 1446 1416 1478 1467 1429 1438 1389 1516 1429 1431 1412 1525 1390 1447 1488 1427 1294 1415 1397 1353 1385 1329 1383 1415 1355 1407 1378 1305 1434 1427 1389 1391 1386 1394 1404 1415 1404 1409 1412 1332 1354 1394 1404 1412 1442 1462 1364 1384 1434 1412 1415 1436 1427 1440 1443 1499 1451 1466 1381 1438 1454 1539 1469 1498 1523 1541 1489 1498 1438 1496 1445 1520 1467 1448 1539 1495 1451 1486 1462 1466 1479 1493 1492 1470 1457 1419 1488 1419 1433 1398 1461 1411 1471 1468 1371 1361 1423 1341 1344 1360 1298 1356 1333 1336 1359 1311 1413 1290 1343 1305 1305 1260 1371 1300 1383 1331 1285 1302 1354 1307 1304 1348 1331 1313 1313 1342 1308 1286 1337 1352 1376 1302 1366 1342 1298 1379 1283 1325 1352 1322 1305 1357 1314 1311 1341 1315 1304 1258 1309 1318 1269 1310 1358 1334 1352 1371 1320 1303 1305 1289 1285 1305 1280 1278 1398 1301 1348 1301 1303 1338 1274 1317 1263 1291 1306 1272 1308 1353 1301 1358 1320 1308 1344 1284 1334 1260 1328 1363 1417 1291 1346 1293 1302 1377 1271 1321 1322 1321 1321 1379 1328 1337 1270 1333 1294 1300 1299 1325 1325 1302 1275 1272 1324 1377 1342 1321 1355 1336 1283 1285 1351 1309 1356 1343 1315 1287 1330 1281 1264 1275 1274 1328 1335 1330 1326 1289 1305 1311 1381 1241 1349 1295 1302 1386 1255 1253 1332 1329 1311 1359 1279 1250 1289 1288 1312 1337 1361 1315 1400 1297 1312 1298 1292 1337 1311 1300 1322 1254 1266 1245 1362 1282 1349 1316 1291 1318 1282 1358 1349 1287 1276 1240 1312 1279 1286 1328 1332 1271 1328 1345 1344 1372 1337 1391 1282 1317 1349 1292 1316 1332 1346 1302 1297 1310 1351 1358 1338 1336 1304 1313 1274 1344 1263 1296 1350 1332 1301 1322 1299 1280 1280 1292 1211 1331 1273 1413 1378 1312 1335 1256 1299 1272 1363 1295 1313 1276 1302 1325 1281 1333 1314 1331 1327 1333 1268 1328 1309 1301 1321 1367 1245 1311 1287 1313 1336 1334 1283 1339 1270 1296 1292 1300 1301 1316 1360 1303 1308 1325 1296 1326 1297 1279 1260 1355 1283 1371 1359 1345 1254 1374 1329 1328 1342 1242 1327 1310 1302 1293 1295 1298 1268 1341 1278 1272 1292 1328 1286 1328 1338 1283 1308 1280 1253 1320 1338 1289 1329 1311 1310 1323 1296 1371 1325 1278 1276 1300 1258 1296 1326 1271 1288 1308 1352 1343 1364 1319 1326 1296 1317 1269 1307 1291 1307 1254 1304 1347 1329 1351 1359 1396 1402 1416 1338 1410 1360 1401 1373 1356 1340 1349 1335 1381 1431 1447 1374 1394 1289 1357 1416 1422 1365 1414 1446 1408 1434 1371 1369 1406 1354 1381 1487 1417 1456 1377 1443 1386 1408 1417 1437 1344 1428 1397 1409 1407 1316 1374 1399 1332 1372 1377 1400 1384 1401 1390 1411 1409 1380 1444 1396 1370 1395 1434 1398 1467 1437 1487 1362 1413 1466 1486 1441 1486 1467 1547 1464 1441 1487 1515 1516 1532 1547 1599 1484 1556 1626 1552 1570 1586 1530 1503 1563 1545 1609 1517 1588 1556 1564 1556 1552 1487 1576 1501 1563 1473 1509 1496 1493 1470 1439 1531 1485 1456 1397 1374 1505 1444 1493 1444 1446 1453 1418 1453 1399 1474 1477 1417 1456 1477 1505 1483 1452 1384 1418 1415 1448 1455 1398 1516 1524 1470 1505 1373 1483 1585 1445 1458 1424 1476 1443 1453 1453 1454 1435 1522 1397 1484 1377 1457 1442 1406 1393 1519 1409 1341 1362 1359 1372 1325 1370 1319 1379 1428 1333 1419 1447 1363 1368 1334 1335 1403 1362 1337 1398 1361 1359 1330 1359 1305 1229 1292 1300 1330 1321 1311 1358 1349 1383 1371 1322 1374 1401 1315 1402 1336 1408 1408 1356 1343 1344 1304 1317 1320 1331 1287 1314 1312 1322 1383 1330 1338 1288 1287 1353 1325 1411 1348 1322 1362 1348 1340 1301 1348 1287 1296 1380 1277 1357 1326 1353 1312 1278 1236 1353 1345 1325 1308 1325 1256 1278 1331 1329 1202 1283 1328 1281 1262 1277 1312 1330 1348 1296 1332 1316 1350 1234 1323 1321 1292 1365 1272 1303 1260 1320 1288 1305 1326 1342 1252 1325 1392 1333 1341 1370 1295 1365 1328 1306 1333 1330 1330 1344 1239 1376 1385 1314 1408 1347 1309 1348 1356 1336 1239 1361 1325 1341 1323 1368 1314 1406 1367 1458 1342 1329 1347 1330 1491 1395 1385 1402 1482 1446 1454 1431 1530 1480 1406 1522 1455 1572 1501 1443 1562 1483 1603 1537 1610 1636 1594 1581 1643 1684 1731 1672 1685 1784 1665 1669 1792 1705 1795 1817 1815 1811 1804 1783 1842 1843 1692 1704 1792 1782 1741 1744 1665 1740 1749 1674 1791 1729 1690 1659 1730 1613 1483 1594 1568 1506 1542 1453 1483 1484 1487 1482 1454 1426 1449 1375 1364 1421 1398 1423 1396 1386 1349 1346 1397 1409 1324 1377 1340 1314 1351 1340 1429 1369 1312 1370 1279 1317 1382 1333 1289 1317 1396 1258 1329 1353 1346 1352 1309 1343 1313 1340 1280 1382 1318 1278 1299 1329 1398 1313 1325 1304 1336 1357 1389 1357 1332 1317 1265 1301 1337 1338 1356 1318 1343 1327 1333 1318 1287 1377 1268 1284 1314 1279 1325 1342 1307 1315 1257 1279 1299 1328 1304 1294 1270 1370 1249 1285 1260 1321 1317 1282 1290 1367 1256 1295 1331 1276 1301 1240 1347 1335 1320 1387 1284 1333 1327 1325 1336 1346 1333 1315 1260 1306 1273 1293 1320 1288 1344 1259 1359 1336 1313 1266 1326 1312 1346 1350 1384 1333 1279 1304 1338 1315 1311 1349 1268 1290 1363 1269 1359 1286 1363 1355 1367 1314 1282 1335 1347 1286 1386 1311 1380 1338 1395 1383 1395 1319 1348 1394 1413 1373 1360 1432 1379 1392 1398 1375 1362 1409 1392 1402 1419 1417 1350 1337 1428 1440 1388 1392 1418 1425 1361 1361 1342 1465 1407 1382 1397 1449 1381 1384 1354 1375 1360 1292 1325 1402 1359 1379 1342 1285 1368 1323 1278 1351 1315 1332 1286 1278 1398 1230 1275 1263 1299 1258 1273 1321 1347 1321 1319 1300 1337 1332 1212 1263 1306 1300 1249 1265 1248 1286 1284 1267 1360 1311 1302 1265 1280 1283 1292 1283 1295 1302 1340 1315 1291 1288 1253 1276 1247 1236 1273 1273 1300 1284 1277 1343 1317 1345 1283 1304 1302 1354 1243 1287 1286 1265 1256 1250 1235 1286 1269 1276 1275 1324 1316 1303 1387 1302 1287 1311 1319 1321 1274 1310 1266 1276 1241 1281 1255 1215 1361 1245 1216 1322 1214 1251 1289 1266 1254 1309 1309 1293 1264 1285 1323 1326 1287 1322 1289 1353 1298 1346 1298 1314 1333 1341 1286 1348 1323 1357 1389 1375 1365 1366 1355 1337 1386 1417 1377 1365 1450 1388 1418 1392 1427 1411 1391 1406 1429 1457 1339 1370 1467 1404 1478 1379 1471 1399 1431 1373 1392 1413 1360 1314 1332 1321 1402 1348 1338 1385 1353 1291 1296 1326 1293 1267 1327 1304 1295 1332 1275 1225 1245 1292 1363 1309 1272 1277 1294 1300 1281 1289 1215 1322 1263 1367 1231 1221 1358 1271 1261 1245 1321 1341 1293 1318 1320 1277 1329 1333 1326 1306 1226 1232 1281 1306 1241 1274 1362 1242 1308 1245 1289 1355 1250 1267 1317 1288 1262 1367 1362 1306 1239 1400 1276 1276 1271 1256 1195 1335 1255 1315 1353 1221 1314 1251 1305 1346 1328 1259 1355 1265 1321 1274 1308 1294 1245 1285 1308 1311 1279 1285 1278 1213 1240 1286 1278 1305 1297 1287 1323 1317 1226 1270 1296 1368 1292 1354 1263 1326 1355 1391 1321 1300 1272 1212 1273 1270 1266 1322 1255 1212 1343 1232 1291 1194 1245 1330 1268 1319 1288 1311 1338 1246 1322 1365 1271 1236 1298 1199 1328 1280 1326 1282 1298 1292 1262 1287 1244 1245 1361 1287 1262 1274 1297 1246 1258 1342 1287 1213 1250 1370 1348 1274 1287 1271 1273 1291 1331 1266 1286 1360 1285 1380 1315 1359 1324 1254 1290 1372 1413 1278 1328 1304 1331 1331 1302 1311 1347 1334 1387 1319 1293 1415 1290 1300 1373 1328 1338 1355 1299 1292 1337 1318 1380 1312 1425 1309 1387 1280 1269 1320 1330 1390 1331 1329 1274 1279 1297 1313 1334 1244 1241 1313 1357 1315 1296 1314 1231 1287 1314 1269 1261 1318 1375 1289 1262 1343 1315 1252 1288 1188 1268 1336 1233 1347 1258 1232 1265 1280 1261 1294 1276 1339 1331 1364 1247 1264 1407 1266 1369 1368 1337 1309 1324 1307 1232 1256 1301 1274 1309 1268 1241 1270 1317 1326 1345 1278 1335 1305 1321 1315 1298 1354 1285 1254 1307 1326 1305 1341 1325 1327 1331 1329 1393 1355 1372 1367 1336 1316 1326 1345 1365 1371 1399 1371 1400 1331 1357 1411 1293 1329 1354 1383 1364 1319 1379 1372 1409 1355 1355 1364 1295 1348 1305 1299 1352 1327 1391 1329 1273 1351 1332 1379 1322 1318 1263 1335 1317 1302 1338 1230 1284 1311 1363 1237 1306 1312 1324 1349 1281 1331 1295 1312 1250 1257 1302 1306 1253 1249 1276 1301 1275 1316 1235 1250 1213 1231 1257 1262 1301 1266 1253 1291 1328 1268 1370 1303 1287 1338 1252 1250 1252 1329 1243 1299 1306 1288 1286 1334 1294 1250 1293 1318 1271 1305 1325 1294 1239 1307 1262 1276 1219 1285 1347 1300 1269 1285 1302 1222 1263 1389 1364 1314 1285 1276 1316 1252 1310 1302 1307 1264 1256 1275 1281 1215 1262 1250 1302 1281 1248 1296 1248 1235 1263 1300 1206 1247 1240 1260 1268 1259 1319 1334 1261 1193 1240 1250 1248 1300 1221 1279 1277 1336 1297 1279 1258 1260 1304 1330 1284 1295 1254 1308 1337 1316 1225 1280 1319 1269 1301 1274 1344 1324 1279 1245 1349 1294 1392 1369 1252 1297 1317 1343 1229 1277 1287 1294 1263 1318 1280 1278 1303 1248 1233 1340 1280 1289 1326 1294 1254 1327 1245 1273 1302 1288 1327 1303 1327 1249 1303 1243 1255 1260 1255 1243 1288 1293 1302 1291 1271 1344 1229 1293 1292 1319 1215 1298 1268 1253 1272 1270 1224 1318 1303 1270 1263 1266 1281 1264 1301 1249 1283 1275 1271 1299 1281 1297 1253 1363 1279 1310 1269 1292 1330 1271 1326 1272 1229 1294 1301 1326 1313 1343 1345 1286 1329 1357 1328 1325 1330 1307 1295 1320 1370 1344 1331 1376 1322 1351 1289 1372 1338 1363 1411 1395 1438 1398 1397 1402 1427 1335 1417 1389 1402 1393 1453 1472 1453 1461 1472 1482 1576 1478 1544 1532 1431 1500 1501 1542 1525 1519 1463 1458 1490 1496 1497 1522 1452 1503 1513 1482 1461 1463 1452 1414 1493 1444 1514 1454 1481 1458 1441 1476 1403 1453 1447 1385 1388 1350 1433 1307 1434 1351 1385 1425 1298 1293 1388 1291 1390 1360 1334 1323 1304 1286 1339 1239 1324 1292 1326 1296 1359 1276 1321 1338 1311 1253 1253 1330 1318 1255 1373 1283 1240 1305 1336 1283 1365 1276 1362 1233 1301 1314 1270 1285 1270 1281 1342 1283 1262 1309 1294 1291 1247 1310 1269 1283 1315 1321 1334 1208 1250 1263 1281 1330 1333 1320 1312 1276 1282 1323 1283 1268 1295 1284 1302 1224 1344 1275 1311 1317 1296 1277 1300 1289 1268 1333 1340 1345 1297 1329 1334 1283 1262 1245 1356 1246 1268 1280 1357 1323 1260 1267 1289 1339 1311 1309 1321 1396 1256 1316 1282 1207 1260 1261 1297 1246 1341 1253 1303 1252 1239 1266 1286 1287 1289 1320 1268 1266 1279 1289 1336 1194 1289 1228 1295 1331 1275 1250 1373 1317 1295 1202 1247 1331 1268 1362 1269 1289 1195 1277 1316 1300 1289 1348 1287 1337 1217 1288 1277 1302 1268 1265 1291 1193 1288 1271 1318 1173 1340 1308 1320 1261 1333 1290 1321 1309 1288 1275 1327 1262 1266 1277 1331 1307 1321 1367 1299 1374 1386 1327 1286 1299 1294 1291 1327 1297 1288 1291 1292 1277 1322 1245 1329 1232 1270 1264 1262 1295 1362 1299 1235 1301 1291 1380 1302 1279 1274 1257 1302 1308 1350 1337 1322 1350 1294 1345 1279 1289 1284 1242 1260 1415 1288 1295 1311 1353 1315 1318 1248 1315 1309 1381 1327 1339 1323 1255 1324 1360 1354 1325 1304 1336 1342 1276 1312 1309 1257 1390 1356 1330 1287 1328 1294 1280 1299 1338 1228 1272 1298 1323 1278 1285 1318 1246 1296 1261 1358 1361 1315 1327 1254 1332 1303 1264 1272 1307 1269 1250 1297 1242 1246 1261 1222 1287 1237 1305 1255 1234 1270 1244 1285 1262 1284 1229 1318 1276 1282 1270 1326 1359 1292 1305 1284 1329 1259 1282 1290 1268 1258 1336 1271 1241 1314 1328 1267 1227 1257 1247 1266 1276 1281 1218 1283 1291 1252 1332 1214 1327 1276 1218 1303 1291 1237 1271 1229 1320 1234 1258 1274 1252 1266 1211 1233 1292 1318 1322 1268 1313 1269 1283 1282 1286 1267 1314 1268 1252 1309 1302 1301 1176 1350 1282 1272 1293 1244 1270 1259 1206 1290 1269 1316 1313 1326 1270 1344 1233 1348 1316 1241 1260 1321 1331 1294 1248 1308 1271 1301 1310 1288 1252 1273 1318 1230 1320 1240 1244 1290 1349 1246 1249 1224 1354 1299 1235 1252 1288 1294 1331 1258 1297 1294 1305 1330 1218 1307 1284 1270 1265 1372 1304 1317 1285 1297 1300 1329 1288 1297 1280 1318 1279 1299 1307 1300 1348 1337 1283 1331 1297 1303 1325 1313 1327 1295 1296 1359 1321 1268 1293 1344 1305 1332 1357 1307 1380 1268 1314 1246 1324 1280 1286 1264 1319 1291 1316 1254 1314 1327 1358 1297 1312 1326 1254 1295 1253 1271 1271 1338 1238 1358 1311 1324 1239 1286 1316 1313 1249 1312 1294 1353 1271 1330 1274 1284 1291 1318 1277 1220 1337 1285 1298 1252 1269 1277 1264 1317 1312 1266 1231 1271 1268 1233 1350 1226 1270 1306 1343 1259 1240 1261 1268 1289 1315 1296 1268 1267 1236 1346 1220 1329 1311 1339 1275 1309 1253 1314 1355 1295 1272 1238 1307 1237 1223 1238 1332 1237 1296 1288 1240 1234 1308 1308 1261 1304 1314 1325 1251 1318 1340 1279 1246 1262 1335 1239 1303 1297 1286 1352 1263 1261 1352 1302 1349 1317 1348 1381 1278 1340 1326 1367 1322 1365 1327 1399 1351 1313 1261 1348 1371 1302 1327 1301 1359 1342 1389 1312 1314 1297 1325 1365 1284 1318 1368 1352 1361 1398 1422 1359 1294 1342 1373 1341 1325 1368 1353 1337 1296 1408 1399 1333 1396 1351 1386 1346 1361 1372 1361 1315 1358 1371 1388 1319 1363 1376 1390 1369 1405 1335 1381 1395 1310 1337 1389 1336 1362 1359 1381 1335 1390 1337 1411 1385 1422 1330 1438 1426 1421 1417 1369 1356 1391 1426 1472 1412 1410 1450 1384 1462 1457 1481 1429 1445 1446 1438 1455 1448 1443 1412 1430 1445 1432 1375 1453 1400 1457 1421 1440 1414 1437 1428 1465 1440 1329 1409 1372 1396 1385 1374 1325 1273 1351 1342 1382 1375 1401 1339 1322 1235 1328 1290 1348 1365 1353 1301 1373 1299 1314 1359 1309 1341 1329 1332 1357 1303 1399 1298 1310 1337 1264 1403 1291 1334 1324 1311 1319 1349 1296 1284 1352 1330 1306 1284 1359 1350 1311 1279 1296 1319 1284 1309 1282 1303 1338 1298 1301 1347 1328 1335 1257 1302 1331 1258 1306 1337 1322 1352 1323 1271 1331 1326 1315 1336 1315 1323 1374 1284 1258 1283 1262 1325 1302 1297 1287 1304 1382 1294 1296 1346 1363 1323 1388 1335 1318 1410 1370 1289 1327 1344 1263 1331 1339 1360 1316 1313 1296 1255 1345 1289 1444 1393 1305 1271 1387 1360 1328 1364 1360 1386 1332 1271 1336 1355 1335 1387 1361 1353 1294 1397 1387 1380 1340 1322 1327 1356 1381 1316 1452 1399 1424 1387 1424 1497 1365 1392 1427 1440 1494 1439 1437 1416 1393 1412 1448 1501 1489 1453 1532 1529 1505 1458 1477 1421 1475 1571 1472 1420 1576 1532 1509 1627 1558 1612 1590 1625 1533 1625 1578 1557 1588 1544 1638 1570 1607 1533 1596 1619 1588 1679 1622 1502 1658 1615 1619 1638 1671 1638 1738 1651 1703 1689 1768 1679 1714 1599 1678 1605 1690 1611 1646 1707 1601 1652 1655 1663 1625 1623 1555 1528 1641 1558 1587 1549 1510 1617 1541 1546 1511 1495 1481 1459 1503 1483 1551 1391 1475 1539 1481 1462 1521 1445 1379 1416 1479 1391 1352 1496 1418 1361 1363 1391 1411 1319 1347 1390 1390 1327 1358 1359 1338 1281 1351 1347 1346 1422 1357 1340 1365 1352 1322 1315 1310 1305 1358 1349 1340 1282 1313 1338 1337 1245 1306 1317 1294 1345 1367 1265 1244 1291 1283 1254 1349 1353 1327 1219 1299 1269 1292 1252 1274 1343 1314 1344 1329 1333 1316 1320 1331 1275 1356 1270 1357 1242 1284 1285 1301 1314 1393 1355 1269 1350 1299 1289 1288 1317 1367 1314 1322 1340 1339 1333 1347 1304 1335 1294 1282 1321 1360 1277 1288 1308 1301 1336 1315 1324 1347 1279 1364 1296 1362 1305 1410 1312 1377 1321 1351 1403 1301 1332 1341 1245 1283 1295 1320 1345 1373 1351 1360 1300 1314 1339 1291 1364 1357 1435 1421 1369 1325 1323 1366 1341 1343 1355 1301 1305 1410 1381 1350 1338 1259 1298 1366 1348 1345 1287 1295 1293 1328 1316 1314 1276 1309 1307 1355 1366 1327 1324 1340 1240 1273 1399 1364 1324 1236 1280 1249 1324 1324 1261 1271 1349 1304 1295 1324 1338 1262 1277 1276 1329 1282 1357 1264 1280 1243 1280 1311 1316 1310 1291 1282 1334 1291 1334 1384 1336 1272 1295 1345 1307 1340 1314 1253 1296 1325 1300 1345 1322 1360 1320 1327 1360 1388 1319 1378 1288 1318 1344 1304 1359 1308 1311 1425 1277 1329 1373 1305 1288 1342 1380 1459 1354 1417 1359 1334 1353 1390 1355 1315 1390 1372 1430 1357 1453 1440 1369 1429 1361 1368 1359 1396 1405 1391 1373 1357 1321 1410 1352 1397 1327 1362 1312 1298 1332 1361 1298 1390 1385 1380 1366 1365 1352 1353 1404 1348 1354 1310 1356 1366 1300 1311 1331 1371 1234 1345 1353 1335 1291 1207 1323 1312 1316 1331 1361 1344 1316 1270 1244 1249 1264 1340 1328 1358 1324 1323 1263 1330 1297 1256 1328 1336 1275 1324 1294 1315 1282 1227 1286 1303 1251 1327 1325 1219 1263 1288 1279 1291 1304 1319 1327 1348 1363 1349 1273 1310 1343 1375 1264 1275 1279 1273 1310 1290 1327 1320 1296 1311 1305 1323 1315 1314 1311 1337 1250 1223 1284 1310 1322 1285 1321 1289 1307 1311 1263 1260 1320 1240 1298 1289 1326 1302 1301 1340 1315 1341 1306 1305 1274 1347 1273 1257 1328 1306 1298 1271 1315 1253 1255 1287 1352 1303 1311 1295 1288 1328 1310 1263 1325 1280 1315 1270 1345 1271 1319 1321 1230 1288 1327 1351 1302 1279 1328 1299 1325 1286 1332 1292 1305 1326 1287 1208 1290 1219 1261 1289 1273 1272 1305 1367 1237 1328 1253 1275 1267 1265 1292 1295 1299 1311 1263 1269 1231 1272 1248 1312 1294 1265 1308 1228 1319 1304 1386 1368 1286 1256 1246 1320 1337 1352 1329 1306 1293 1285 1304 1232 1286 1318 1313 1275 1264 1292 1303 1266 1295 1261 1303 1314 1312 1320 1314 1277 1289 1313 1311 1304 1312 1357 1318 1269 1342 1319 1300 1309 1319 1283 1316 1250 1226 1262 1354 1240 1324 1324 1308 1297 1287 1354 1350 1321 1197 1233 1329 1315 1278 1322 1335 1343 1276 1339 1291 1351 1338 1300 1286 1346 1289 1279 1309 1263 1397 1287 1304 1224 1280 1319 1342 1343 1341 1338 1293 1294 1316 1273 1298 1345 1360 1304 1305 1293 1323 1278 1263 1305 1330 1281 1293 1359 1313 1314 1350 1346 1321 1247 1302 1352 1317 1325 1349 1303 1284 1326 1304 1326 1381 1312 1357 1393 1347 1355 1312 1313 1380 1359 1351 1353 1359 1362 1376 1310 1356 1369 1268 1373 1337 1356 1335 1368 1291 1302 1321 1381 1278 1277 1322 1286 1332 1296 1368 1312 1308 1383 1341 1331 1333 1304 1423 1379 1354 1341 1340 1295 1362 1257 1285 1350 1311 1374 1304 1328 1332 1322 1316 1273 1345 1337 1311 1251 1322 1309 1283 1264 1327 1280 1309 1312 1261 1346 1339 1308 1341 1244 1380 1341 1314 1360 1302 1322 1251 1287 1292 1282 1250 1388 1264 1236 1305 1310 1335 1294 1328 1324 1279 1309 1232 1344 1236 1253 1336 1263 1296 1257 1326 1315 1262 1339 1342 1331 1342 1292 1281 1310 1288 1292 1275 1292 1264 1315 1281 1322 1341 1266 1288 1325 1247 1359 1292 1261 1255 1291 1286 1367 1306 1320 1328 1282 1302 1327 1303 1328 1285 1373 1333 1336 1318 1389 1330 1288 1355 1436 1320 1349 1289 1352 1354 1364 1318 1339 1337 1363 1357 1318 1383 1352 1385 1285 1305 1313 1274 1373 1311 1310 1278 1383 1330 1340 1363 1344 1291 1357 1369 1356 1349 1267 1338 1362 1316 1334 1343 1258 1342 1312 1304 1323 1363 1385 1252 1313 1295 1275 1287 1302 1338 1350 1325 1292 1313 1295 1300 1273 1272 1256 1313 1258 1290 1347 1296 1355 1309 1295 1313 1276 1334 1279 1304 1306 1379 1278 1313 1276 1271 1327 1270 1361 1297 1278 1319 1387 1349 1299 1332 1305 1425 1381 1335 1418 1396 1381 1371 1459 1343 1374 1438 1335 1395 1366 1442 1416 1440 1455 1468 1491 1391 1430 1419 1367 1478 1412 1487 1513 1427 1548 1458 1499 1491 1519 1479 1551 1537 1593 1592 1563 1556 1463 1561 1630 1593 1571 1615 1529 1581 1546 1540 1572 1570 1459 1479 1551 1537 1577 1561 1626 1586 1524 1504 1557 1537 1569 1491 1531 1518 1515 1554 1504 1541 1548 1495 1500 1497 1545 1523 1442 1482 1447 1489 1443 1418 1462 1448 1454 1481 1376 1390 1395 1352 1443 1384 1416 1485 1353 1424 1364 1459 1321 1364 1378 1431 1408 1333 1327 1376 1326 1363 1327 1376 1325 1339 1297 1348 1334 1326 1332 1327 1304 1364 1295 1304 1336 1326 1278 1280 1338 1263 1327 1284 1329 1342 1264 1344 1334 1270 1331 1314 1312 1361 1299 1375 1346 1368 1305 1320 1305 1300 1332 1238 1384 1309 1317 1303 1367 1375 1285 1279 1288 1323 1260 1365 1269 1365 1303 1280 1382 1345 1343 1292 1356 1335 1353 1289 1333 1408 1272 1312 1368 1377 1313 1326 1324 1299 1337 1322 1282 1285 1373 1274 1338 1341 1332 1309 1308 1407 1315 1291 1365 1310 1424 1360 1291 1313 1385 1254 1327 1383 1397 1389 1299 1338 1363 1303 1335 1345 1245 1363 1233 1343 1265 1338 1307 1303 1346 1276 1391 1307 1338 1351 1294 1285 1269 1337 1358 1311 1287 1327 1334 1303 1293 1262 1326 1304 1314 1401 1276 1266 1316 1319 1349 1298 1276 1343 1294 1359 1322 1321 1327 1351 1325 1364 1322 1322 1302 1254 1356 1385 1347 1334 1331 1352 1304 1327 1366 1304 1345 1373 1309 1366 1346 1360 1371 1320 1298 1301 1298 1316 1326 1337 1394 1292 1315 1312 1282 1352 1346 1320 1321 1378 1339 1302 1342 1351 1298 1319 1316 1310 1306 1322 1291 1324 1294 1311 1280 1273 1299 1264 1368 1316 1372 1337 1281 1333 1201 1272 1296 1319 1325 1315 1260 1280 1295 1270 1337 1346 1262 1300 1289 1315 1322 1316 1225 1221 1245 1244 1293 1302 1355 1346 1281 1321 1264 1338 1282 1278 1243 1368 1272 1337 1273 1225 1228 1326 1267 1287 1368 1270 1278 1289 1279 1360 1294 1239 1331 1238 1290 1315 1227 1296 1269 1255 1259 1340 1319 1309 1312 1268 1254 1280 1285 1300 1332 1370 1324 1256 1199 1332 1249 1303 1266 1218 1330 1272 1237 1284 1263 1314 1302 1335 1233 1336 1270 1337 1276 1317 1319 1338 1287 1262 1273 1298 1213 1250 1318 1322 1329 1287 1326 1282 1318 1287 1358 1305 1293 1271 1237 1286 1301 1275 1276 1299 1297 1311 1300 1259 1312 1296 1357 1267 1219 1296 1277 1295 1255 1340 1325 1309 1246 1305 1272 1295 1272 1265 1325 1330 1302 1319 1301 1295 1234 1333 1320 1273 1294 1239 1306 1279 1292 1326 1286 1300 1277 1291 1333 1290 1286 1284 1272 1311 1218 1266 1345 1298 1294 1271 1291 1320 1333 1394 1284 1304 1336 1309 1293 1323 1311 1262 1361 1327 1295 1325 1389 1346 1317 1289 1313 1301 1233 1280 1285 1235 1311 1294 1309 1310 1319 1239 1321 1251 1402 1267 1326 1252 1265 1259 1273 1328 1289 1288 1273 1334 1215 1306 1229 1291 1331 1273 1288 1257 1362 1340 1282 1292 1272 1306 1259 1322 1337 1263 1311 1329 1302 1248 1303 1297 1269 1288 1242 1327 1320 1281 1274 1304 1294 1240 1273 1350 1298 1335 1263 1276 1357 1326 1245 1325 1376 1321 1313 1308 1379 1265 1335 1260 1265 1282 1320 1268 1309 1270 1230 1313 1308 1317 1386 1334 1261 1260 1352 1312 1331 1288 1344 1352 1246 1269 1261 1326 1287 1295 1311 1333 1350 1283 1283 1385 1283 1369 1292 1352 1321 1320 1286 1311 1431 1333 1396 1305 1341 1319 1268 1310 1361 1333 1410 1277 1320 1390 1386 1338 1361 1367 1352 1370 1376 1358 1347 1345 1405 1310 1306 1349 1342 1344 1359 1357 1388 1449 1322 1319 1331 1322 1315 1378 1386 1395 1348 1401 1462 1417 1356 1416 1417 1365 1375 1374 1409 1358 1392 1385 1333 1413 1356 1357 1374 1338 1366 1376 1407 1390 1390 1420 1341 1356 1379 1392 1345 1293 1366 1361 1415 1435 1371 1319 1399 1343 1360</counts>
			</dataPoints>
		</scan>
	</xrdMeasurement>
</xrdMeasurements>
