<?xml version="1.0"?>
<xrdMeasurements xmlns="http://www.xrdml.com/XRDMeasurement/2.3" xmlns:xsi="http://www.w3.org/2001/XMLSchema-instance" xsi:schemaLocation="http://www.xrdml.com/XRDMeasurement/2.3 http://www.xrdml.com/XRDMeasurement/2.3/XRDMeasurement.xsd" status="Completed" recordIdentifier="{3ABE3A0E-A0C6-45B7-B0BE-BD4527205750}">
	<comment>
		<entry/>
	</comment>
	<sample type="To be analyzed">
		<id>GPSS_Li1p5Mg0p7Zr0p2Sc0p1Cl4_111725_691b7e20f3837ac4a0a99376</id>
		<name></name>
		<preparedBy></preparedBy>
	</sample>
	<xrdMeasurement measurementType="Scan" status="Completed" sampleMode="Reflection">
		<usedWavelength intended="K-Alpha 1">
			<kAlpha1 unit="Angstrom">1.5405980</kAlpha1>
			<kAlpha2 unit="Angstrom">1.5444260</kAlpha2>
			<kBeta unit="Angstrom">1.3922500</kBeta>
			<ratioKAlpha2KAlpha1>0.5000</ratioKAlpha2KAlpha1>
		</usedWavelength>
		<incidentBeamPath>
			<radius unit="mm">145.00</radius>
			<xRayTube id="1010048" name="Empyrean Cu LFF HR (9430 033 7310x)">
				<tension unit="kV">40.0</tension>
				<current unit="mA">15.0</current>
				<anodeMaterial>Cu</anodeMaterial>
				<focus type="Line">
					<length unit="mm">12.0</length>
					<width unit="mm">0.4</width>
					<takeOffAngle unit="deg">6.0</takeOffAngle>
				</focus>
			</xRayTube>
			<sollerSlit id="21010002" name="Soller slits 0.04 rad.">
				<opening unit="rad">0.0400</opening>
			</sollerSlit>
			<mask id="22031000" name="Fixed mask 13 mm">
				<width unit="mm">9.00</width>
			</mask>
			<divergenceSlit id="22120001" name="Divergence slit 1°" xsi:type="fixedDivergenceSlitType">
				<distanceToSample unit="mm">50.00</distanceToSample>
				<height unit="mm">1.52</height>
			</divergenceSlit>
		</incidentBeamPath>
		<sampleMovement xsi:type="spinningSampleMovementType">
			<spinnerRevolutionTime unit="seconds">1.0</spinnerRevolutionTime>
		</sampleMovement>
		<diffractedBeamPath>
			<radius unit="mm">145.00</radius>
			<antiScatterSlit id="22090040" name="AS slit 9 mm (PIXcel)" xsi:type="fixedAntiScatterSlitType">
				<height unit="mm">9.00</height>
			</antiScatterSlit>
			<sollerSlit id="21020003" name="Large Soller slits 0.04 rad.">
				<opening unit="rad">0.0400</opening>
			</sollerSlit>
			<filter id="20030001" name="Large beta-filter Nickel">
				<material>Ni</material>
				<thickness unit="mm">0.020</thickness>
			</filter>
			<detector id="7010019" name="PIXcel1D-Medipix3 detector" xsi:type="rtmsDetectorType">
				<phd unit="keV">
					<lowerLevel>4.02</lowerLevel>
					<upperLevel>11.27</upperLevel>
				</phd>
				<mode>Scanning</mode>
				<activeLength unit="deg">5.542</activeLength>
			</detector>
		</diffractedBeamPath>
		<scan appendNumber="0" mode="Continuous" scanAxis="Gonio" status="Completed">
			<header>
				<startTimeStamp>2025-11-20T19:55:24-08:00</startTimeStamp>
				<endTimeStamp>2025-11-20T20:03:32-08:00</endTimeStamp>
				<author>
					<name>AutomatedUser</name>
				</author>
				<source>
					<applicationSoftware version="1.7b (136)">PANalytical Aeris Instrument Suite</applicationSoftware>
					<instrumentControlSoftware version="3.2.00000000 20240306">AERIS</instrumentControlSoftware>
					<instrumentID>950485</instrumentID>
				</source>
			</header>
			<dataPoints>
				<positions axis="2Theta" unit="deg">
					<startPosition>10.00943322</startPosition>
					<endPosition>99.99442286</endPosition>
				</positions>
				<positions axis="Omega" unit="deg">
					<startPosition>5.00471661</startPosition>
					<endPosition>49.99721143</endPosition>
				</positions>
				<commonCountingTime unit="seconds">12.495</commonCountingTime>
				<counts unit="counts">2763 2698 2838 2773 2804 2749 2771 2812 2838 2757 2867 2678 2756 2742 2828 2720 2734 2854 2764 2739 2771 2768 2800 2732 2731 2684 2755 2761 2722 2653 2690 2788 2792 2607 2711 2731 2797 2751 2682 2846 2768 2840 2800 2774 2836 2750 2763 2792 2850 2821 2771 2841 2773 2789 2813 2773 2815 2793 2891 2777 2792 2852 2653 2823 2795 2786 2842 2760 2742 2895 2576 2727 2812 2681 2812 2777 2730 2812 2676 2766 2719 2749 2752 2825 2749 2815 2759 2769 2805 2733 2713 2767 2844 2706 2861 2754 2736 2757 2819 2854 2809 2808 2717 2849 2845 2791 2831 2774 2828 2728 2748 2817 2778 2868 2696 2845 2726 2737 2871 2784 2774 2748 2820 2794 2812 2764 2787 2740 2793 2804 2741 2765 2736 2808 2809 2875 2855 2865 2897 2851 2776 2855 2808 2832 2787 2807 2884 2780 2823 2826 2875 2808 2857 2908 2894 2843 2876 2758 2808 2822 2824 2816 2723 2797 2956 2822 2812 2892 2867 2819 2776 2792 2879 2860 2759 2935 2746 2824 2824 2709 2733 2742 2804 2939 2820 2910 2748 2753 2782 2801 2726 2699 2799 2804 2831 2743 2775 2853 2747 2816 2670 2716 2841 2837 2738 2751 2749 2763 2787 2754 2800 2774 2825 2638 2710 2703 2741 2687 2753 2752 2708 2804 2651 2670 2803 2820 2804 2756 2739 2791 2671 2740 2759 2776 2766 2775 2713 2806 2696 2699 2677 2767 2739 2754 2784 2683 2782 2802 2703 2818 2681 2632 2655 2775 2777 2696 2779 2756 2834 2704 2843 2615 2867 2597 2751 2736 2651 2677 2669 2696 2743 2620 2707 2678 2652 2812 2716 2804 2647 2761 2816 2711 2758 2773 2786 2760 2759 2715 2704 2751 2799 2712 2781 2793 2826 2734 2705 2757 2765 2752 2719 2767 2795 2780 2700 2906 2785 2821 2828 2844 2835 2728 2733 2928 2963 2857 2814 2828 2760 2830 2839 2826 2834 2871 2864 2727 2861 2931 2967 2864 2829 2935 2897 2973 2826 2951 2857 2894 2969 2924 3090 2921 3034 2924 2965 3008 3051 2933 3023 2983 2972 3005 2945 2971 3033 3085 3031 2940 3048 2930 3059 3101 2945 3005 3080 2938 3002 3081 3071 3057 3157 3112 3129 3142 3032 3216 3149 3094 3088 3095 3128 3120 3131 3190 3148 3215 3152 3175 3168 3216 3248 3260 3286 3255 3359 3222 3239 3289 3236 3271 3159 3364 3280 3351 3309 3214 3374 3306 3276 3282 3545 3508 3480 3521 3419 3543 3646 3591 3581 3653 3636 3693 3799 3876 3797 3800 3790 3892 4052 3969 4025 4030 4052 3991 4117 4121 4149 4125 4143 4142 4303 4190 4394 4260 4425 4306 4438 4634 4542 4844 4743 4706 4827 4764 4902 4891 4860 4949 4916 5006 4863 4872 4841 4740 4506 4544 4245 4210 4078 4104 3738 3730 3741 3682 3619 3622 3597 3635 3519 3663 3563 3613 3473 3649 3559 3372 3434 3331 3440 3284 3317 3303 3247 3206 3120 3223 3135 3141 3291 3102 3119 3160 3133 3088 3149 2962 3132 3181 2990 3097 3151 3110 3118 3175 2960 3078 3032 2986 3025 2939 3032 3066 3096 3066 2968 2933 3063 2999 3036 3055 2923 2988 2898 2843 2914 2932 2930 2947 2965 2874 2939 2885 2883 2929 2891 2873 2861 2871 2826 2908 2916 2887 2906 2884 2833 2828 2828 2921 2929 2881 2927 2901 2799 2846 2913 2843 2903 2875 2835 2802 2826 2813 2817 2723 2861 2845 2798 2756 2777 2764 2816 2830 2781 2811 2791 2714 2789 2754 2807 2687 2785 2861 2793 2720 2774 2663 2804 2758 2884 2741 2813 2695 2721 2690 2810 2690 2771 2782 2796 2809 2759 2790 2657 2572 2654 2786 2624 2648 2752 2704 2658 2669 2673 2676 2626 2768 2664 2572 2702 2649 2582 2662 2753 2676 2643 2627 2665 2642 2674 2620 2726 2704 2700 2709 2736 2669 2621 2685 2669 2737 2650 2690 2587 2661 2659 2664 2649 2608 2611 2656 2781 2624 2791 2561 2600 2617 2555 2569 2631 2629 2622 2564 2659 2679 2619 2629 2707 2571 2666 2633 2607 2595 2562 2608 2496 2547 2655 2531 2627 2556 2572 2543 2603 2589 2563 2636 2578 2564 2535 2585 2532 2590 2594 2548 2661 2609 2644 2586 2536 2548 2420 2564 2479 2546 2560 2537 2524 2543 2674 2483 2534 2594 2529 2505 2578 2562 2463 2451 2556 2475 2523 2438 2590 2524 2578 2592 2633 2655 2503 2441 2408 2509 2466 2571 2482 2532 2517 2535 2449 2530 2437 2498 2591 2515 2581 2460 2494 2429 2502 2509 2523 2468 2438 2463 2436 2570 2531 2446 2553 2498 2618 2464 2464 2569 2518 2522 2560 2496 2541 2554 2422 2548 2511 2382 2447 2487 2517 2502 2434 2464 2432 2564 2445 2472 2510 2445 2534 2467 2438 2475 2525 2449 2402 2518 2561 2390 2445 2458 2504 2374 2451 2438 2525 2336 2519 2424 2472 2337 2420 2495 2474 2528 2452 2363 2349 2459 2490 2526 2467 2389 2522 2404 2472 2435 2458 2368 2412 2394 2412 2349 2412 2447 2414 2416 2350 2384 2386 2438 2324 2380 2471 2294 2316 2382 2339 2366 2478 2339 2417 2323 2321 2380 2315 2347 2397 2369 2334 2376 2394 2312 2376 2347 2446 2332 2434 2284 2360 2340 2429 2334 2307 2376 2368 2322 2361 2335 2291 2274 2378 2356 2379 2334 2378 2351 2373 2329 2302 2355 2249 2305 2289 2231 2322 2308 2390 2312 2322 2228 2235 2293 2269 2228 2333 2321 2308 2291 2297 2289 2324 2252 2162 2291 2305 2264 2289 2325 2255 2270 2245 2240 2269 2237 2242 2259 2225 2245 2146 2231 2261 2230 2177 2210 2252 2247 2300 2248 2125 2315 2219 2236 2238 2254 2256 2275 2287 2252 2273 2222 2144 2160 2234 2226 2237 2308 2260 2256 2171 2131 2178 2169 2285 2260 2184 2219 2214 2199 2156 2147 2166 2228 2222 2224 2173 2218 2151 2225 2136 2193 2136 2232 2208 2182 2152 2210 2259 2226 2217 2144 2220 2124 2232 2216 2214 2163 2293 2220 2195 2167 2187 2241 2212 2205 2183 2191 2170 2137 2229 2212 2197 2177 2228 2190 2185 2221 2187 2281 2231 2248 2197 2145 2131 2227 2246 2113 2104 2184 2138 2184 2207 2219 2234 2197 2298 2171 2250 2221 2133 2247 2081 2222 2215 2168 2195 2199 2228 2261 2264 2215 2180 2308 2232 2263 2213 2159 2152 2146 2133 2259 2184 2176 2187 2276 2185 2190 2246 2297 2144 2228 2194 2106 2158 2202 2164 2247 2201 2129 2216 2095 2184 2210 2238 2192 2223 2111 2102 2112 2210 2286 2157 2228 2215 2105 2161 2186 2331 2078 2212 2206 2194 2094 2255 2182 2134 2232 2151 2194 2100 2188 2143 2246 2138 2127 2172 2223 2110 2078 2234 2210 2135 2104 2097 2104 2180 2061 2061 2170 2060 2219 2201 2131 2129 2141 2186 2135 2104 2062 2070 2146 2153 2024 2000 2136 1991 2127 2029 2051 2062 2095 2052 2123 2082 2074 2060 2038 1983 2104 2009 2034 2007 1975 2008 2107 2020 2069 2012 1990 1839 1996 2026 1895 1981 1943 1886 1946 1940 1919 1972 2009 1911 1918 1956 1885 1930 2009 1953 1950 1873 1964 1939 1918 1938 1926 1796 1942 1932 1895 1857 1881 1846 1898 1855 1854 1864 1890 1838 1835 1864 1826 1807 1823 1849 1843 1813 1771 1806 1814 1782 1827 1795 1815 1777 1822 1778 1799 1732 1831 1844 1748 1815 1799 1825 1777 1698 1816 1760 1692 1726 1678 1765 1715 1760 1752 1752 1753 1739 1674 1724 1656 1650 1752 1611 1660 1689 1604 1723 1666 1668 1669 1610 1719 1706 1674 1747 1665 1645 1685 1707 1667 1679 1563 1671 1679 1646 1657 1687 1652 1611 1607 1669 1653 1662 1608 1562 1638 1637 1641 1622 1568 1564 1667 1628 1604 1602 1660 1523 1616 1592 1659 1597 1610 1588 1596 1571 1562 1612 1599 1626 1645 1541 1542 1574 1588 1563 1568 1662 1584 1661 1603 1576 1572 1588 1610 1574 1506 1578 1565 1559 1506 1561 1631 1567 1560 1521 1581 1534 1570 1504 1532 1503 1579 1485 1539 1517 1605 1592 1552 1509 1510 1533 1546 1488 1476 1500 1558 1493 1467 1464 1504 1552 1501 1572 1460 1497 1548 1506 1517 1456 1510 1582 1442 1543 1502 1464 1504 1526 1508 1517 1529 1515 1491 1584 1427 1531 1479 1518 1586 1648 1449 1567 1542 1481 1512 1494 1539 1562 1566 1513 1515 1506 1437 1541 1496 1519 1482 1535 1488 1470 1532 1533 1498 1558 1532 1452 1480 1513 1525 1545 1507 1527 1529 1571 1449 1488 1438 1481 1550 1491 1528 1526 1554 1516 1555 1537 1521 1533 1589 1571 1510 1480 1486 1529 1561 1557 1550 1575 1472 1511 1559 1573 1484 1493 1514 1490 1499 1650 1595 1587 1529 1552 1549 1550 1529 1538 1594 1486 1539 1511 1502 1446 1527 1509 1498 1527 1495 1515 1531 1519 1513 1538 1523 1466 1472 1557 1493 1494 1525 1608 1450 1536 1512 1461 1528 1475 1466 1509 1619 1483 1491 1436 1464 1542 1506 1473 1501 1533 1571 1533 1524 1501 1431 1519 1511 1474 1460 1474 1483 1432 1518 1533 1445 1427 1524 1509 1465 1431 1409 1503 1512 1494 1501 1557 1488 1511 1437 1420 1517 1411 1486 1440 1497 1436 1428 1458 1502 1477 1471 1430 1408 1477 1394 1403 1389 1420 1421 1434 1475 1452 1405 1443 1414 1353 1415 1384 1389 1403 1402 1391 1391 1371 1355 1346 1366 1352 1379 1404 1315 1403 1350 1375 1357 1352 1357 1315 1398 1366 1341 1305 1355 1343 1335 1279 1323 1350 1290 1341 1281 1285 1303 1267 1346 1320 1353 1286 1252 1281 1273 1346 1281 1354 1316 1321 1298 1319 1303 1233 1222 1225 1233 1373 1253 1283 1275 1210 1197 1249 1256 1239 1285 1259 1224 1210 1218 1169 1237 1225 1258 1202 1282 1276 1265 1177 1221 1188 1217 1207 1218 1219 1166 1256 1263 1222 1233 1256 1186 1164 1244 1253 1237 1279 1205 1228 1186 1200 1255 1205 1285 1283 1278 1267 1380 1273 1248 1365 1357 1352 1328 1436 1391 1363 1367 1437 1324 1409 1335 1349 1373 1403 1469 1453 1444 1457 1460 1549 1449 1499 1502 1592 1590 1663 1620 1663 1633 1653 1688 1582 1716 1681 1649 1655 1617 1580 1536 1476 1501 1496 1458 1290 1357 1353 1347 1242 1270 1159 1202 1166 1151 1206 1210 1250 1113 1229 1211 1158 1200 1183 1245 1140 1174 1122 1163 1173 1212 1228 1195 1268 1205 1188 1178 1264 1184 1168 1179 1181 1214 1179 1191 1162 1211 1226 1244 1278 1305 1251 1312 1235 1270 1307 1296 1319 1354 1406 1452 1443 1430 1563 1547 1705 1710 1861 1962 2089 2148 2247 2564 2600 2773 2961 3119 3341 3416 3641 3847 3919 4120 4294 4396 4470 4398 4622 4583 4686 4921 5024 5201 5130 5442 5699 5783 6223 6409 6802 7210 7903 8176 8625 8953 9458 9787 10347 10924 11200 11669 11844 12006 12021 11980 11923 11608 11105 10600 9828 9301 8472 7615 6950 6196 5457 4915 4354 3902 3516 3101 2914 2724 2493 2414 2390 2307 2235 2238 2179 2221 2221 2212 2220 2099 2128 2131 2058 2118 2049 2121 2149 1999 2129 2031 1991 1964 1990 1944 1872 1984 1869 1922 1819 1756 1751 1802 1787 1748 1752 1691 1671 1634 1599 1597 1570 1470 1529 1463 1527 1439 1364 1388 1322 1272 1202 1299 1262 1199 1196 1188 1315 1205 1229 1216 1172 1179 1159 1118 1095 1092 1180 1037 1064 1067 1110 1072 1043 1104 1097 1069 1061 1068 1042 1041 1010 1031 1022 1004 1018 976 962 890 982 1039 1041 1023 1010 1020 1017 990 1017 1003 978 933 965 938 985 947 933 898 961 925 981 909 906 962 925 942 966 921 975 879 921 970 936 949 944 929 879 966 884 888 921 961 920 969 952 882 949 861 872 897 881 915 921 923 945 908 881 862 871 909 895 912 888 867 915 997 914 900 908 909 857 930 872 927 878 888 880 823 872 879 958 906 920 918 932 937 903 921 881 884 956 962 916 918 853 893 899 878 909 862 902 797 934 827 902 882 832 869 824 862 829 781 867 854 912 882 860 792 876 830 866 810 822 834 851 773 805 861 841 818 833 791 801 788 828 816 860 823 857 848 798 822 788 837 829 823 805 831 841 805 807 809 807 867 831 829 854 838 777 842 833 809 809 851 753 848 818 753 833 833 765 770 831 803 765 845 806 797 820 831 794 871 838 802 833 867 840 774 801 803 797 754 828 813 799 829 772 824 804 830 792 821 782 834 829 827 866 852 793 833 864 810 814 864 881 804 839 884 885 894 889 841 819 845 843 858 795 885 880 840 833 831 852 870 870 844 889 862 821 925 811 895 871 848 916 867 876 854 952 892 866 887 853 887 950 940 951 962 940 881 938 956 979 1018 920 967 977 1019 1099 1121 1033 1089 1135 1148 1225 1321 1319 1392 1487 1468 1671 1702 1820 1917 1968 2215 2266 2515 2637 2919 3019 3174 3292 3425 3592 3725 3838 3934 3983 4158 4255 4361 4420 4628 4653 5001 5171 5466 5712 5936 6267 6710 6982 7546 7993 8579 9045 9360 9932 10604 11144 11461 11569 11759 11760 11620 11246 11038 10365 10095 9306 8833 8080 7521 6726 6075 5486 4959 4322 3894 3370 3137 2728 2616 2388 2237 1996 1922 1850 1812 1722 1673 1580 1640 1502 1676 1512 1609 1489 1557 1428 1483 1494 1486 1416 1400 1396 1338 1304 1227 1201 1215 1257 1209 1260 1131 1136 1078 1119 1024 1098 1056 1009 1008 1041 1065 1006 1000 952 955 950 936 1008 928 964 892 893 922 847 873 898 878 879 866 902 824 860 918 825 871 832 834 826 784 812 768 750 834 763 829 764 761 745 743 821 792 806 751 790 767 836 763 762 796 779 785 718 760 772 775 740 772 741 756 769 775 766 728 745 740 779 732 722 738 774 692 697 671 737 752 763 718 756 750 751 729 757 747 744 728 701 719 755 730 750 711 745 712 723 747 738 684 737 676 719 686 699 695 711 666 700 705 709 707 744 638 647 702 667 702 619 706 667 735 710 681 700 685 710 728 733 709 650 698 673 709 711 725 714 706 677 717 711 658 690 647 654 643 638 642 682 714 632 707 674 669 654 687 709 655 643 698 655 639 636 704 662 662 646 647 634 654 693 669 676 715 681 677 693 688 685 711 655 646 689 643 712 703 697 681 651 663 700 644 658 668 659 688 624 637 649 730 593 636 653 653 654 659 638 639 617 652 643 640 667 641 631 632 624 582 607 593 661 687 670 669 638 647 624 671 632 699 661 649 658 634 653 591 619 647 649 634 623 636 626 647 636 600 595 603 636 652 634 650 622 657 643 623 607 631 641 621 640 629 617 636 671 613 629 662 555 619 606 647 612 630 654 568 606 607 581 638 602 633 568 570 599 583 623 609 629 598 597 614 600 650 592 605 624 618 593 614 595 564 589 581 604 544 619 585 623 573 623 621 579 565 585 599 558 611 610 590 587 620 592 543 596 628 606 548 618 586 587 542 542 571 604 555 603 571 549 511 574 580 570 584 584 591 587 598 615 614 578 580 567 593 585 573 620 626 541 562 569 562 594 579 557 572 618 561 559 576 558 593 559 613 542 592 561 578 600 573 581 587 560 590 581 566 590 592 602 539 629 582 556 598 548 615 543 578 569 566 574 522 591 575 542 622 615 562 567 565 536 560 543 564 563 552 564 563 564 557 581 565 534 561 518 573 585 570 538 557 539 552 562 574 576 579 576 583 591 563 615 578 567 557 583 536 570 584 583 547 553 587 520 581 520 528 572 575 533 517 544 549 551 548 546 560 576 550 537 572 528 593 524 586 584 590 543 563 592 548 540 522 551 527 551 604 554 551 570 547 557 523 605 576 548 557 541 534 533 526 584 546 564 511 535 537 543 544 497 573 592 557 561 543 521 520 562 509 554 521 575 544 539 583 549 581 510 547 476 568 475 574 536 528 602 567 592 521 541 504 564 598 539 557 559 549 563 557 573 544 550 549 534 581 565 499 552 565 548 560 572 562 565 542 537 548 542 562 596 583 546 601 554 550 535 550 487 595 554 600 516 551 567 596 539 565 537 552 609 595 592 613 591 587 621 668 610 596 607 573 618 570 576 545 593 612 630 606 599 597 596 579 573 596 546 569 539 536 536 536 546 557 538 569 510 556 524 551 522 523 531 509 550 541 528 532 546 572 562 549 528 502 533 525 536 524 536 531 542 470 522 515 517 542 523 518 556 570 583 526 544 504 547 565 492 525 532 544 524 533 534 546 533 542 515 537 504 573 494 545 531 558 569 578 539 530 559 561 540 502 521 511 538 554 545 559 501 514 493 535 507 480 562 567 543 567 540 508 523 516 466 524 499 536 548 500 514 519 522 535 509 483 524 542 512 528 533 553 495 532 502 560 545 525 533 532 548 554 496 507 504 550 526 537 544 509 561 473 509 534 527 491 535 513 506 530 514 560 507 540 496 469 530 536 474 528 506 505 502 531 520 481 495 521 516 511 518 488 530 489 536 545 547 520 468 505 522 548 513 504 515 471 503 509 504 557 479 495 484 505 539 499 479 485 511 538 504 486 509 508 548 504 544 531 516 528 506 475 505 510 501 538 489 526 543 491 480 512 520 509 493 487 541 495 562 516 522 464 500 536 467 489 507 528 483 501 568 508 513 513 530 515 534 530 510 552 528 482 525 501 581 537 474 496 499 465 530 500 524 527 555 502 537 522 507 540 501 525 501 562 523 515 534 520 543 583 565 588 584 560 592 575 573 586 575 604 630 607 632 618 630 690 679 688 704 738 725 709 779 766 844 857 854 838 864 915 959 943 1029 1017 1042 1082 1108 1120 1200 1255 1301 1379 1308 1357 1396 1455 1344 1414 1380 1416 1415 1324 1388 1284 1205 1179 1085 1104 1037 1000 907 857 898 838 785 819 663 703 650 649 644 601 583 609 529 542 585 546 550 587 536 581 503 536 526 527 502 516 483 526 511 481 519 540 509 528 468 527 514 511 507 519 506 524 485 496 484 524 457 534 468 451 533 483 529 508 465 557 494 501 491 472 515 474 494 517 502 501 488 488 538 461 494 470 508 481 492 492 506 450 502 489 453 456 519 461 512 517 511 480 512 482 471 439 475 514 510 461 478 477 436 497 467 493 463 514 477 456 471 452 480 492 488 464 450 520 467 474 519 508 471 453 423 492 483 454 482 441 485 460 467 477 478 437 469 507 458 495 490 472 517 465 489 488 482 480 467 471 474 475 442 480 447 486 455 482 515 485 525 511 482 506 464 513 438 477 511 474 510 508 493 504 476 491 446 510 473 467 472 472 504 455 471 458 474 512 483 478 460 480 513 502 481 480 451 498 494 537 458 536 499 489 498 494 483 498 457 500 506 520 513 501 496 518 508 546 540 481 539 490 514 492 520 530 515 527 495 518 491 546 486 493 539 512 524 520 526 475 492 477 516 509 492 505 519 535 477 517 466 521 496 523 514 517 565 529 551 491 536 516 489 572 508 537 506 545 537 510 533 525 501 498 492 514 525 533 523 518 540 534 492 529 520 525 526 545 550 556 520 550 558 541 564 526 545 534 560 484 564 558 564 567 545 545 519 566 538 589 541 598 549 611 565 597 579 598 550 585 653 606 653 592 611 641 647 628 669 683 658 725 697 765 785 725 837 823 861 885 932 1049 1086 1172 1181 1253 1451 1388 1487 1635 1712 1826 1933 1996 2099 2067 2151 2299 2361 2589 2591 2724 2806 2988 3308 3422 3654 3925 4089 4346 4675 4958 5273 5555 5923 6162 6476 6644 6869 6808 6797 6790 6815 6624 6449 6244 6029 5880 5468 5250 5107 4617 4444 4171 3818 3680 3391 3108 2778 2680 2347 2137 1923 1776 1648 1505 1322 1351 1219 1227 1103 1143 1052 1041 967 1019 960 922 920 908 866 883 921 866 854 860 893 860 852 855 897 814 860 805 887 862 872 891 938 894 915 887 850 900 856 902 937 855 869 830 879 813 851 877 840 817 832 838 844 801 826 835 856 782 833 832 830 843 815 808 817 799 788 825 840 813 791 826 832 742 768 756 800 764 750 772 793 764 706 742 750 744 719 709 692 656 661 642 675 619 682 637 623 632 627 689 610 592 551 554 573 546 598 589 536 555 520 548 539 533 536 515 508 580 550 521 502 547 529 536 517 524 522 550 492 521 514 511 536 520 525 537 489 514 528 484 474 495 513 496 525 514 464 493 502 469 474 476 506 487 503 471 465 533 515 554 501 500 499 526 554 554 551 567 546 564 569 559 551 529 564 617 606 607 599 604 571 650 631 643 677 642 658 664 721 738 798 701 800 704 814 815 825 797 865 831 827 795 767 795 820 718 789 724 742 692 664 692 631 632 611 592 578 580 558 526 548 519 519 502 478 486 490 447 452 475 505 467 467 436 434 456 439 476 440 466 428 433 470 495 443 430 424 428 437 465 437 420 447 450 427 451 450 430 437 428 412 453 437 460 463 409 467 428 406 423 392 496 378 435 429 401 472 441 488 441 472 414 398 414 423 427 384 412 429 456 397 430 434 405 440 442 465 443 444 408 409 414 408 405 427 398 405 389 422 433 418 399 424 419 411 433 432 411 435 448 405 456 430 434 451 413 421 355 435 407 420 431 404 378 392 417 430 415 429 418 364 455 438 431 423 439 405 427 452 390 428 427 405 449 401 437 447 419 397 428 401 385 439 448 366 403 412 406 418 418 400 444 421 392 435 415 423 417 390 407 427 419 434 421 417 415 369 408 400 397 409 429 408 406 414 389 396 403 422 399 445 445 374 407 423 374 400 415 440 381 427 416 418 399 353 459 396 424 376 405 432 429 425 375 418 426 422 458 390 412 390 432 380 403 408 426 410 431 403 462 415 438 429 426 413 387 476 446 402 458 406 419 435 419 420 401 416 421 460 409 433 384 405 405 379 415 425 409 406 453 358 420 420 401 443 420 386 364 394 433 433 395 371 373 415 389 403 355 334 380 376 366 388 429 405 330 434 400 409 402 399 394 371 366 372 386 382 384 391 424 365 367 392 381 378 409 387 415 402 381 383 389 373 390 380 364 391 369 379 407 360 422 391 393 380 408 370 425 401 372 407 364 389 370 407 380 401 414 398 375 359 365 380 378 400 403 401 354 417 357 384 368 393 369 390 402 367 400 378 380 360 382 383 381 387 369 394 349 376 380 365 383 348 403 377 358 362 418 364 385 395 366 402 384 374 352 406 371 393 378 359 379 383 373 401 380 347 377 398 407 384 372 397 360 404 391 415 331 405 358 433 399 412 376 402 427 371 351 367 344 398 347 360 339 348 369 367 397 371 378 349 427 349 444 386 378 397 366 359 394 337 376 390 359 361 322 403 365 372 390 345 387 355 381 379 362 432 363 365 379 374 393 386 378 386 395 347 378 346 361 342 347 373 384 398 391 365 364 403 351 385 403 393 397 373 372 387 407 347 406 374 398 401 356 401 380 380 427 407 406 424 392 383 370 405 402 438 370 379 410 388 426 384 366 373 402 403 349 417 394 406 354 395 394 412 394 429 447 451 411 441 430 423 409 430 404 458 427 439 458 461 445 462 444 456 455 483 480 448 485 448 454 462 496 468 481 480 490 478 525 476 447 464 459 468 495 484 493 445 461 493 481 491 523 486 546 525 561 523 564 545 575 624 635 635 686 721 749 753 769 805 873 841 956 973 1018 1065 1119 1111 1237 1249 1280 1382 1496 1514 1577 1634 1653 1875 1949 2026 2056 2148 2234 2189 2415 2328 2328 2310 2383 2307 2286 2292 2162 2179 2042 1975 1843 1925 1747 1760 1590 1647 1461 1470 1430 1328 1244 1186 1131 1073 969 929 917 808 782 736 670 653 638 613 653 597 595 597 610 560 568 554 566 523 566 475 577 559 510 534 586 513 528 487 560 529 535 534 565 586 550 506 549 531 487 540 532 550 533 554 550 577 540 526 532 537 556 560 566 587 554 562 568 558 566 524 509 604 556 532 555 557 510 539 511 505 510 493 547 500 537 529 580 530 536 545 586 562 527 517 544 558 588 577 555 572 563 581 639 545 595 534 578 535 562 531 556 566 550 568 532 567 551 531 540 568 522 537 529 523 521 573 535 514 486 503 500 482 491 475 507 462 454 470 486 467 462 415 467 469 455 431 430 463 398 415 468 433 434 415 414 449 467 435 463 433 394 429 384 430 393 419 378 456 425 369 437 447 367 415 382 434 386 403 440 446 402 396 406 408 396 408 433 393 392 383 406 415 444 401 412 475 405 426 454 418 393 412 456 441 417 437 439 441 444 509 505 454 520 540 572 497 574 583 666 679 711 698 736 752 788 791 834 887 883 969 987 974 1090 1073 1149 1185 1263 1474 1403 1526 1611 1788 1809 1986 1974 2102 2100 2198 1994 2225 2168 2189 2263 2076 2031 1993 2035 2028 2044 1831 1888 1751 1774 1641 1640 1539 1460 1345 1250 1224 1195 1110 1005 1018 963 883 818 805 736 746 688 638 604 641 589 554 516 508 480 518 455 500 447 536 473 447 445 421 443 465 437 439 457 459 460 445 445 403 464 449 451 429 435 443 455 448 469 458 455 479 434 469 442 457 381 447 455 482 452 444 486 491 497 496 459 473 467 443 487 484 490 495 479 515 522 448 451 463 416 443 461 447 407 419 437 401 429 446 422 441 436 451 429 408 387 422 327 392 385 416 423 430 425 410 390 407 427 414 382 394 390 399 433 388 383 382 376 382 384 362 400 368 363 359 388 366 383 405 383 374 402 349 357 393 363 383 391 387 394 359 398 386 394 418 390 409 448 427 448 418 425 447 449 470 499 441 467 496 469 514 520 493 572 571 523 580 589 585 604 623 587 693 662 642 618 676 649 652 578 603 603 578 602 579 577 578 621 576 570 531 528 511 525 509 485 479 516 442 456 399 409 365 393 373 358 378 390 371 384 373 378 389 348 389 350 359 371 376 351 341 374 351 340 346 362 327 329 327 334 341 340 360 337 327 317 353 341 327 345 368 337 347 349 361 335 362 352 330 343 333 332 325 318 335 333 329 352 314 346 349 337 346 352 313 328 320 343 336 340 346 329 330 300 314 315 312 353 294 347 319 337 325 296 303 312 307 363 331 321 333 294 310 350 318 321 304 333 320 338 310 341 316 341 287 313 325 319 316 334 287 284 309 275 334 358 292 327 349 330 323 302 343 315 330 311 326 348 337 283 327 323 331 299 363 286 301 303 311 329 304 295 331 305 305 287 332 306 316 338 281 328 290 314 301 270 318 264 301 289 325 322 312 291 325 311 283 292 327 300 308 275 306 331 305 313 296 325 294 313 326 292 331 291 270 309 297 312 319 340 319 281 322 317 304 313 290 305 293 283 284 309 277 271 312 293 281 288 322 315 300 281 310 319 344 322 297 315 306 324 331 328 279 319 345 299 338 322 285 269 287 303 330 319 349 268 327 308 284 337 301 279 290 329 306 286 292 321 338 311 314 315 293 274 302 329 329 329 305 328 317 306 275 306 295 271 328 329 319 279 293 298 281 291 309 328 334 319 316 314 304 281 296 336 320 319 307 297 308 331 336 290 300 310 331 319 308 313 316 305 314 294 334 330 334 318 327 284 315 324 310 289 293 299 278 334 308 327 314 290 279 290 287 330 322 292 293 292 281 326 268 293 271 309 308 320 303 292 321 358 288 286 265 297 282 271 276 288 265 322 278 359 289 321 295 271 301 297 326 304 299 275 299 321 274 299 285 315 294 309 290 317 306 303 309 304 319 269 283 270 286 294 299 296 284 339 305 335 291 281 300 274 287 262 301 281 293 249 328 263 289 262 256 258 294 300 295 260 301 276 283 287 289 259 260 270 299 270 296 296 331 316 306 284 278 293 302 319 286 312 301 280 295 287 290 288 298 323 301 319 311 284 265 321 314 308 336 332 342 300 321 305 304 344 341 356 341 326 310 309 353 359 374 376 353 402 426 445 467 438 460 482 497 483 432 445 478 496 447 469 509 488 490 443 443 460 428 458 467 455 387 395 455 384 384 341 380 373 392 346 375 359 356 357 328 337 303 327 345 322 331 275 303 326 337 321 273 294 311 311 316 305 281 288 293 321 292 320 284 307 281 308 300 278 297 304 289 244 281 262 261 279 269 288 275 308 301 281 314 300 293 271 250 285 287 275 265 320 297 293 272 251 271 325 292 279 274 271 277 288 295 304 281 289 279 270 296 282 284 323 276 265 268 248 261 322 247 298 330 294 225 282 286 289 304 306 273 261 280 260 289 303 274 246 289 273 274 241 295 272 272 265 272 290 269 274 281 257 301 282 269 273 293 284 275 272 241 288 301 308 283 290 289 275 302 301 297 296 283 296 265 249 301 271 290 319 269 288 293 300 293 295 276 257 274 291 298 319 296 261 311 270 279 281 296 228 284 269 260 268 261 282 277 288 265 285 313 257 273 275 262 256 298 296 276 300 282 285 285 283 278 275 296 274 284 288 263 271 271 265 273 282 290 270 264 277 300 291 300 293 308 269 283 282 319 292 273 262 288 259 295 279 288 249 278 315 292 306 283 294 284 298 303 292 282 299 301 328 336 310 325 353 314 310 351 352 352 360 363 411 358 391 405 443 411 393 433 437 441 460 479 429 487 467 521 541 594 587 596 647 661 659 777 771 785 807 884 876 873 863 899 885 879 925 928 951 872 898 844 817 797 794 744 721 746 718 725 695 675 676 675 643 604 646 629 640 596 565 551 581 459 515 442 439 410 446 372 393 376 364 359 358 350 326 348 355 321 336 333 326 326 319 313 341 340 308 339 308 317 325 305 300 319 325 335 379 336 285 310 294 286 326 310 302 280 277 309 266 310 310 291 290 306 313 342 316 284 283 296 301 294 287 306 311 310 336 274 306 278 284 291 277 296 291 298 268 313 306 304 270 272 278 295 290 280 313 312 286 314 291 276 324 311 309 300 294 300 319 291 292 302 295 299 250 303 294 292 296 295 299 272 294 326 314 330 314 298 284 326 314 261 294 308 316 312 321 294 338 326 314 303 317 322 315 311 302 316 331 347 348 309 341 334 318 344 320 352 332 336 352 347 329 359 355 334 385 365 326 329 331 340 351 313 322 322 305 324 326 328 311 286 323 288 297 302 329 294 263 294 281 286 314 321 303 301 326 280 269 279 298 307 282 268 266 294 262 282 265 332 249 270 282 287 268 270 270 281 263 273 267 266 275 286 286 274 290 279 288 312 284 274 303 265 281 267 256 291 231 297 260 291 277 284 264 259 293 248 280 266 301 278 275 248 260 264 246 283 240 263 264 238 285 259 281 239 288 273 276 246 272 302 274 289 230 276 247 292 230 263 238 229 237 264 237 296 244 271 247 248 272 262 209 271 272 234 259 265 246 265 257 274 274 242 238 263 233 274 273 273 280 257 276 261 301 286 260 270 267 271 244 247 262 246 265 258 279 248 296 279 257 269 294 279 263 266 262 263 247 281 266 279 287 295 288 277 286 266 285 274 307 278 260 273 281 235 274 240 262 284 247 288 240 262 229 292 227 277 279 249 282 256 296 234 282 295 269 240 249 241 261 244 245 307 278 283 244 260 249 263 283 292 249 272 263 274 259 292 267 228 289 270 292 263 273 280 273 240 262 247 269 274 292 232 268 256 273 268 278 257 229 257 250 285 239 239 248 246 269 259 240 243 284 228 249 257 293 262 247 269 259 265 265 274 300 293 298 297 260 294 292 270 265 280 270 271 302 290 282 289 269 283 284 241 261 272 233 289 285 272 309 308 278 260 243 247 262 247 285 272 274 279 262 267 301 295 304 276 292 306 271 289 283 256 245 297 273 237 282 230 264 288 303 258 268 248 299 299 264 283 257 295 312 277 284 274 248 261 274 216 273 260 296 281 297 286 263 286 276 276 292 285 288 278 315 290 281 273 258 280 229 247 265 272 278 286 243 271 298 323 286 275 246 311 275 276 261 243 298 293 314 234 304 270 312 246 312 265 280 297 272 297 285 266 275 298 293 291 263 304 277 280 272 283 273 286 272 289 241 306 290 264 295 278 308 283 281 299 263 274 303 267 314 297 302 324 289 279 296 308 313 322 319 293 301 341 316 317 324 367 339 376 344 355 376 381 370 406 413 376 395 428 395 425 421 384 392 387 372 378 429 382 363 377 400 400 375 390 422 378 435 387 386 434 428 416 426 414 420 406 399 401 430 401 455 463 402 422 461 456 501 469 488 513 560 503 568 536 583 597 606 667 648 688 717 736 785 818 772 863 809 819 857 842 824 734 770 795 712 731 753 715 661 680 716 737 683 657 690 671 660 670 609 611 597 613 588 597 541 533 495 486 505 498 498 448 467 421 426 407 447 400 405 396 381 363 350 382 367 331 348 330 365 326 324 330 276 333 318 331 308 316 290 342 322 326 331 319 281 316 341 333 338 323 279 333 305 360 342 314 343 286 309 332 304 344 318 301 308 273 335 308 318 300 333 316 338 358 350 320 322 321 336 329 348 318 341 365 331 349 336 350 347 300 349 349 336 351 348 325 372 319 388 339 326 352 317 358 356 341 320 352 349 327 356 353 359 355 348 371 369 361 348 356 316 347 317 359 327 335 296 337 327 350 331 347 327 315 341 359 343 348 368 359 356 348 364 353 359 374 340 351 397 366 390 376 380 397 444 383 353 420 391 402 402 390 429 380 402 384 449 418 437 432 488 460 431 427 470 458 506 474 497 498 531 546 540 587 591 638 604 660 697 694 725 750 836 759 876 848 912 992 1043 1066 1110 1145 1148 1301 1307 1335 1419 1434 1381 1522 1425 1495 1425 1399 1447 1422 1344 1347 1353 1350 1325 1251 1330 1235 1204 1220 1215 1094 1185 1131 1159 1105 1080 1030 1047 1007 996 919 877 873 841 836 836 708 758 753 755 636 651 614 608 567 575 613 490 503 523 493 431 486 423 434 440 419 402 400 363 377 393 398 390 423 360 387 338 355 338 382 376 394 353 361 320 333 318 338 318 348 326 333 360 344 328 342 353 327 348 362 393 319 319 347 343 376 321 381 357 325 332 384 373 343 380 335 319 336 340 323 333 360 382 369 356 387 353 356 390 339 376 344 347 318 346 371 377 380 351 366 340 358 352 364 321 341 361 347 406 398 362 340 344 339 340 367 367 335 381 360 356 350 358 392 355 340 386 354 341 338 346 368 366 363 379 363 379 405 375 399 396 411 385 405 386 397 430 398 410 379 408 362 388 414 375 352 403 356 386 414 372 400 389 377 355 395 341 397 372 377 375 354 407 350 374 335 363 347 389 322 350 330 321 377 305 358 339 311 364 333 345 335 301 333 319 313 307 269 318 289 320 319 324 337 313 316 309 314 337 288 307 282 292 305 310 332 268 295 290 271 300 292 269 293 319 301 265 309 320 266 327 287 271 317 262 293 282 311 285 297 282 315 301 257 271 275 276 292 294 291 274 308 299 291 286 298 286 293 299 288 245 269 269 303 287 276 307 311 289 289 280 286 278 260 280 261 297 264 266 290 242 275 293 272 303 287 266 260 259 274 289 285 279 296 303 272 262 261 256 262 271 272 263 266 240 260 266 272 282 281 288 292 283 290 249 276 269 279 290 286 261 258 265 264 250 256 279 273 314 250 262 238 274 265 266 245 281 257 283 273 269 314 285 276 294 262 265 269 246 260 258 282 284 246 276 268 258 239 263 265 259 290 280 271 228 264 248 248 265 273 258 245 286 289 283 280 269 241 289 285 305 282 283 278 273 315 262 267 278 265 284 259 307 293 301 281 281 282 281 220 265 258 261 257 285 259 268 261 285 281 248 271 249 261 287 287 271 265 308 281 277 246 294 267 250 284 280 263 273 299 286 243 273 294 257 259 273 269 282 250 276 269 242 249 283 237 286 236 282 234 242 250 284 265 273 259 247 327 245 301 284 289 294 285 277 221 273 249 244 277 247 260 279 244 256 269 260 265 271 283 277 247 290 263 279 272 262 284 242 281 261 234 263 237 256 236 261 245 266 274 278 259 244 285 292 265 248 273 292 236 260 303 268 280 263 281 245 287 245 292 291 295 289 206 271 259 243 260 240 246 267 248 278 286 244 271 273 277 268 281 261 273 248 278 280 246 247 256 249 269 261 272 232 271 271 266 267 290 245 247 256 260 288 273 249 228 273 267 306 272 288 243 292 282 269 291 309 279 302 273 274 250 329 274 288 313 297 311 306 310 310 326 357 340 339 338 345 349 369 331 386 383 381 351 357 361 398 357 330 326 357 385 352 399 384 347 320 361 337 353 365 353 325 360 333 322 360 326 361 304 317 357 343 327 329 308 307 288 325 303 305 288 335 301 337 280 304 260 310 302 320 297 270 315 294 262 294 293 265 266 282 257 261 285 286 232 281 292 262 263 273 245 267 278 292 286 259 297 263 280 289 274 267 276 263 263 303 269 270 274 296 290 274 268 273 244 301 285 269 278 280 268 293 258 272 284 245 292 269 248 278 247 270 305 308 278 268 259 268 270 219 243 245 314 289 250 294 258 244 276 241 260 281 262 263 300 256 247 274 298 274 285 293 296 266 276 290 280 260 257 245 261 302 261 280 288 278 278 305 265 288 234 301 272 271 267 295 273 257 263 248 290 242 297 235 282 271 248 267 296 282 310 292 281 281 269 267 268 261 314 278 279 285 237 294 283 274 274 299 247 269 263 282 268 280 300 267 260 272 262 294 280 290 264 286 293 291 256 287 268 273 277 263 285 277 275 305 303 293 297 298 278 281 296 245 282 281 322 288 349 317 314 353 330 307 303 363 311 349 297 323 311 334 317 345 342 323 358 360 362 368 385 409 410 413 419 493 445 468 476 482 510 540 560 586 665 617 657 675 775 712 790 835 787 769 915 965 948 967 1011 1050 1089 1037 1057 1097 1100 1047 1075 1055 1010 1013 998 994 996 953 935 1004 900 884 891 895 901 895 896 853 856 889 820 815 801 784 808 831 771 781 741 687 660 651 657 633 637 600 613 520 597 535 515 504 497 499 449 452 431 404 464 440 414 379 419 368 354 350 389 352 354 350 313 328 337 320 308 325 309 328 341 303 306 301 304 317 335 334 330 303 296 285 345 325 288 321 271 293 300 296 300 311 317 311 318 331 324 312 320 323 325 296 327 290 320 272 325 288 293 280 299 311 321 276 292 289 297 297 315 301 286 328 317 286 299 321 280 333 299 270 310 328 304 319 296 310 330 347 342 318 324 340 314 316 347 316 338 280 305 309 339 334 382 329 302 330 371 332 354 313 323 349 336 337 356 331 354 312 363 344 319 334 362 361 328 391 340 343 332 340 329 366 356 340 343 309 336 307 348 344 299 319 361 331 326 344 304 320 336 336 316 289 329 344 304 342 362 300 328 292 343 304 317 311 320 322 356 312 327 337 313 311 356 316 322 310 329 312 284 349 265 312 306 333 323 336 332 305 291 317 304 322 325 291 342 275 276 302 312 296 300 306 323 325 275 310 292 270 278 268 286 306 301 289 289 311 313 267 294 292 299 257 271 287 296 301 265 288 256 282 242 284 313 284 276 267 298 281 293 271 286 280 273 279 264 278 256 281 290 260 280 304 243 295 232 275 258 246 281 263 294 303 258 279 239 278 277 248 270 262 263 290 280 275 257 236 237 274 258 275 278 264 276 236 271 278 259 264 279 262 245 257 272 249 285 273 291 261 238 269 281 261 238 273 260 242 290 243 235 262 238 244 246 280 276 223 296 265 290 257 272 281 258 233 256 286 218 239 304 259 264 225 242 266 238 276 299 247 282 260 264 229 269 257 295 263 278 270 270 287 267 260 248 237 261 279 241 244 237 227 240 251 257 276 259 274 272 245 268 235 256 223 239 231 264 269 291 267 258 249 247 286 273 264 278 264 238 294 267 233 275 264 261 292 280 269 274 237 247 241 229 281 274 257 255 266 247 265 279 246 272 234 266 278 261 240 242 239 267 216 250 277 234 285 283 296 263 303 281 268 265 272 256 247 234 220 261 233 272 256 277 282 240 276 249 263 284 270 259 244 265 272 281 279 281 245 260 247 266 270 269 269 284 276 284 272 237 227 288 223 259 248 229 272 222 272 270 283 243 239 266 244 264 262 229 258 288 256 259 235 274 264 259 265 290 249 285 239 265 283 242 269 265 239 263 261 257 240 237 288 300 243 288 250 259 248 251 275 239 263 296 264 264 249 282 277 297 249 259 243 281 263 288 275 272 275 234 275 276 286 266 290 265 264 246 282 294 249 283 250 296 321 306 313 310 316 309 306 302 345 320 323 316 350 325 375 377 380 339 366 397 417 399 405 383 424 415 417 450 432 501 471 505 472 520 445 487 455 480 453 488 495 467 514 431 503 414 419</counts>
			</dataPoints>
		</scan>
	</xrdMeasurement>
</xrdMeasurements>
