<?xml version="1.0"?>
<xrdMeasurements xmlns="http://www.xrdml.com/XRDMeasurement/2.3" xmlns:xsi="http://www.w3.org/2001/XMLSchema-instance" xsi:schemaLocation="http://www.xrdml.com/XRDMeasurement/2.3 http://www.xrdml.com/XRDMeasurement/2.3/XRDMeasurement.xsd" status="Completed" recordIdentifier="{F58C7FAD-8DA9-461D-BD1D-C066D2ABB3AD}">
	<comment>
		<entry/>
	</comment>
	<sample type="To be analyzed">
		<id>GPSS_Li1p5Mn0p5Sc0p5Cl4_110125_69065e22e3432ed06b655fa6</id>
		<name></name>
		<preparedBy></preparedBy>
	</sample>
	<xrdMeasurement measurementType="Scan" status="Completed" sampleMode="Reflection">
		<usedWavelength intended="K-Alpha 1">
			<kAlpha1 unit="Angstrom">1.5405980</kAlpha1>
			<kAlpha2 unit="Angstrom">1.5444260</kAlpha2>
			<kBeta unit="Angstrom">1.3922500</kBeta>
			<ratioKAlpha2KAlpha1>0.5000</ratioKAlpha2KAlpha1>
		</usedWavelength>
		<incidentBeamPath>
			<radius unit="mm">145.00</radius>
			<xRayTube id="1010048" name="Empyrean Cu LFF HR (9430 033 7310x)">
				<tension unit="kV">40.0</tension>
				<current unit="mA">15.0</current>
				<anodeMaterial>Cu</anodeMaterial>
				<focus type="Line">
					<length unit="mm">12.0</length>
					<width unit="mm">0.4</width>
					<takeOffAngle unit="deg">6.0</takeOffAngle>
				</focus>
			</xRayTube>
			<sollerSlit id="21010002" name="Soller slits 0.04 rad.">
				<opening unit="rad">0.0400</opening>
			</sollerSlit>
			<mask id="22031000" name="Fixed mask 13 mm">
				<width unit="mm">9.00</width>
			</mask>
			<divergenceSlit id="22120001" name="Divergence slit 1°" xsi:type="fixedDivergenceSlitType">
				<distanceToSample unit="mm">50.00</distanceToSample>
				<height unit="mm">1.52</height>
			</divergenceSlit>
		</incidentBeamPath>
		<sampleMovement xsi:type="spinningSampleMovementType">
			<spinnerRevolutionTime unit="seconds">1.0</spinnerRevolutionTime>
		</sampleMovement>
		<diffractedBeamPath>
			<radius unit="mm">145.00</radius>
			<antiScatterSlit id="22090040" name="AS slit 9 mm (PIXcel)" xsi:type="fixedAntiScatterSlitType">
				<height unit="mm">9.00</height>
			</antiScatterSlit>
			<sollerSlit id="21020003" name="Large Soller slits 0.04 rad.">
				<opening unit="rad">0.0400</opening>
			</sollerSlit>
			<filter id="20030001" name="Large beta-filter Nickel">
				<material>Ni</material>
				<thickness unit="mm">0.020</thickness>
			</filter>
			<detector id="7010019" name="PIXcel1D-Medipix3 detector" xsi:type="rtmsDetectorType">
				<phd unit="keV">
					<lowerLevel>4.02</lowerLevel>
					<upperLevel>11.27</upperLevel>
				</phd>
				<mode>Scanning</mode>
				<activeLength unit="deg">5.542</activeLength>
			</detector>
		</diffractedBeamPath>
		<scan appendNumber="0" mode="Continuous" scanAxis="Gonio" status="Completed">
			<header>
				<startTimeStamp>2025-11-03T15:02:04-08:00</startTimeStamp>
				<endTimeStamp>2025-11-03T15:10:12-08:00</endTimeStamp>
				<author>
					<name>AutomatedUser</name>
				</author>
				<source>
					<applicationSoftware version="1.7b (136)">PANalytical Aeris Instrument Suite</applicationSoftware>
					<instrumentControlSoftware version="3.2.00000000 20240306">AERIS</instrumentControlSoftware>
					<instrumentID>950485</instrumentID>
				</source>
			</header>
			<dataPoints>
				<positions axis="2Theta" unit="deg">
					<startPosition>10.00943322</startPosition>
					<endPosition>99.99442286</endPosition>
				</positions>
				<positions axis="Omega" unit="deg">
					<startPosition>5.00471661</startPosition>
					<endPosition>49.99721143</endPosition>
				</positions>
				<commonCountingTime unit="seconds">12.495</commonCountingTime>
				<counts unit="counts">2982 2852 2938 2897 2906 2853 3018 2959 2923 2947 3039 2972 2882 3030 2983 3012 2925 3031 2991 2992 2987 2985 3050 3033 2991 2984 2865 2929 3036 3019 2936 3021 2959 3102 3030 2974 3087 3079 2970 2985 3135 3057 3182 3126 3106 3097 3063 3011 3169 3114 3052 3053 3097 3087 3152 3129 3108 3103 3088 3125 3097 3186 3060 3184 3083 3073 3064 3081 3261 3141 3092 3084 3074 3126 3154 3163 3179 3095 3148 3070 3052 3122 3078 3113 3203 3028 3116 3068 3114 3017 3062 2980 2973 3090 3107 3133 2983 3072 3092 3073 3012 3009 2971 3074 3133 3071 3038 2998 3044 3026 3086 3054 3053 3101 3073 2946 3088 3006 3030 3016 2872 3075 3044 2979 3017 2951 3013 2945 3091 3005 2992 3104 3055 3016 3034 2910 3008 3032 3040 2971 2916 2991 2994 3112 2905 3032 3074 2890 2982 2938 2959 3021 3108 3064 2933 3151 2960 3083 2951 2983 2976 2904 2897 3055 2967 2878 3048 2908 2988 2949 2994 2991 2956 2950 2968 2947 2965 2923 2902 2960 2949 2906 2895 2980 2961 2954 3016 2991 2936 2935 3030 2973 3036 2990 3064 2958 2992 3035 2925 2892 2892 2829 2960 2829 2927 2852 2820 2969 2906 2896 2932 2842 2918 2908 2844 2943 2865 2906 2792 2947 2937 2950 2851 2954 2847 2966 2950 2872 2851 2960 2890 2884 3003 2921 2870 2902 2967 2914 2943 2843 2860 2936 2810 2849 3001 2889 2883 2721 2964 2950 2746 2748 2890 2821 2983 2911 2888 2942 2862 2814 2919 2816 2787 2913 2943 2790 2785 2747 2810 2812 2900 2990 2998 2960 2845 2901 2825 2839 2916 2870 2824 2847 2921 2926 2937 2952 2863 2950 2982 3030 2842 2891 2952 2981 2953 2941 2960 3005 2873 2985 2975 3047 2981 2920 2896 3035 2938 2934 2964 2999 3059 3033 3094 2895 2975 2916 3034 2988 3123 3034 3179 2991 3101 3032 3046 3067 3033 3057 3190 3048 3139 3111 3064 3113 3097 3086 3051 3055 3115 3153 3150 3203 3206 3149 3189 3134 3227 3146 3119 3162 3207 3224 3229 3315 3352 3135 3302 3272 3214 3218 3272 3282 3161 3255 3207 3278 3313 3240 3399 3246 3309 3388 3341 3371 3316 3284 3341 3353 3412 3440 3397 3403 3481 3338 3440 3354 3361 3353 3476 3462 3463 3328 3329 3526 3612 3437 3539 3511 3579 3465 3569 3553 3549 3614 3621 3640 3753 3679 3716 3696 3741 3793 3746 3972 3897 3984 3977 4160 4066 4141 4227 4321 4242 4371 4464 4408 4559 4593 4567 4720 4800 4926 4883 4857 4994 5034 4934 5164 5145 4994 5117 5031 5175 5095 5122 5174 5029 5101 5033 5011 4996 4889 4932 4806 4812 4673 4662 4623 4431 4392 4404 4341 4305 4153 4142 3952 3922 4057 3764 3849 3663 3664 3630 3598 3529 3609 3511 3486 3520 3499 3356 3369 3353 3480 3331 3300 3426 3389 3326 3319 3298 3319 3318 3260 3286 3332 3327 3376 3226 3343 3247 3210 3407 3220 3306 3261 3359 3097 3152 3198 3191 3214 3185 3151 3062 3272 3118 3178 3103 3089 3128 3237 3118 3261 3111 3087 3159 3226 3203 3226 3103 3070 3028 3166 3145 3002 3121 3267 3109 3137 3055 3129 3055 3107 3198 3153 3255 3178 3123 3034 3087 3145 3126 3128 3188 3136 3113 3144 3063 3174 3174 3172 3204 3159 3164 3105 3045 3142 3204 2932 3056 3064 3053 3044 3018 3001 3027 3070 2988 2912 2964 2915 2854 2950 3010 2916 2891 3009 2927 2960 2946 2935 2854 2921 2771 2864 2920 2834 2930 2894 2952 3005 2908 2949 2872 2905 2997 2883 2873 2959 2906 2835 2862 3030 2896 2976 2813 2858 2937 2870 2852 3015 2923 2961 3032 2975 2916 2916 2894 2903 2887 2864 2860 2923 2990 2926 2917 2867 2785 2896 2893 2797 2922 2767 2745 2794 2829 2919 2900 2940 2871 2877 2879 2863 2917 2885 2804 2871 2826 2814 2794 2765 2812 2787 2806 2739 2847 2791 2841 2741 2797 2758 2827 2771 2786 2734 2753 2662 2693 2772 2895 2755 2858 2810 2801 2702 2742 2722 2791 2800 2824 2719 2804 2818 2726 2749 2840 2794 2775 2786 2815 2684 2756 2757 2732 2724 2766 2838 2748 2719 2770 2791 2745 2746 2721 2750 2749 2790 2778 2758 2766 2712 2709 2791 2709 2750 2748 2762 2757 2807 2749 2806 2797 2855 2699 2724 2751 2741 2735 2648 2757 2716 2747 2638 2708 2737 2662 2708 2690 2669 2628 2637 2735 2753 2714 2650 2743 2637 2715 2661 2601 2748 2681 2697 2673 2685 2571 2689 2697 2679 2669 2620 2609 2785 2602 2550 2658 2702 2648 2679 2639 2643 2713 2677 2528 2615 2722 2681 2599 2664 2527 2574 2709 2618 2645 2669 2568 2653 2658 2601 2596 2671 2647 2633 2618 2684 2717 2692 2617 2639 2594 2727 2632 2647 2701 2579 2578 2679 2647 2675 2696 2649 2657 2581 2640 2510 2671 2548 2604 2583 2632 2590 2636 2559 2568 2550 2590 2507 2559 2704 2598 2576 2498 2606 2556 2598 2420 2526 2543 2602 2610 2599 2537 2488 2539 2527 2621 2506 2635 2594 2529 2540 2457 2585 2541 2515 2537 2569 2413 2489 2561 2454 2505 2488 2539 2582 2475 2513 2519 2444 2481 2465 2535 2521 2527 2421 2469 2564 2487 2433 2397 2493 2445 2454 2441 2535 2613 2483 2463 2451 2500 2382 2476 2450 2524 2423 2473 2480 2551 2472 2356 2449 2506 2476 2543 2525 2495 2539 2480 2446 2459 2485 2389 2563 2466 2453 2502 2453 2449 2504 2485 2478 2496 2495 2512 2482 2494 2510 2426 2500 2442 2517 2504 2409 2404 2440 2334 2538 2332 2332 2315 2516 2360 2362 2408 2442 2410 2484 2344 2436 2415 2432 2417 2394 2447 2441 2435 2350 2376 2486 2468 2423 2436 2397 2404 2425 2438 2425 2455 2409 2320 2373 2420 2419 2408 2400 2417 2380 2450 2492 2429 2424 2442 2377 2449 2410 2470 2444 2376 2393 2430 2354 2508 2360 2341 2406 2404 2357 2399 2360 2411 2411 2368 2393 2345 2461 2366 2374 2325 2477 2370 2393 2368 2332 2417 2343 2397 2390 2377 2380 2369 2463 2419 2432 2467 2454 2459 2416 2426 2432 2431 2535 2362 2475 2412 2340 2531 2452 2330 2411 2429 2384 2400 2419 2340 2353 2433 2415 2452 2406 2402 2387 2387 2430 2332 2447 2405 2400 2328 2422 2367 2423 2417 2440 2457 2371 2445 2440 2429 2431 2416 2410 2351 2391 2390 2410 2470 2364 2454 2445 2441 2434 2451 2455 2487 2387 2437 2464 2439 2398 2444 2432 2376 2423 2301 2441 2376 2424 2386 2393 2368 2356 2331 2452 2351 2430 2301 2338 2379 2408 2279 2325 2377 2394 2358 2257 2358 2328 2376 2360 2283 2324 2316 2238 2248 2289 2393 2286 2322 2311 2287 2297 2318 2215 2267 2263 2285 2264 2230 2242 2195 2231 2252 2225 2261 2244 2229 2170 2212 2257 2226 2279 2246 2307 2119 2251 2187 2235 2225 2187 2127 2182 2161 2104 2139 2163 2206 2221 2159 2162 2149 2025 2111 2083 2135 2124 2188 2202 2144 2102 2066 2145 2046 2090 2070 2112 2074 2032 2127 2108 2042 1970 2047 2074 1977 2028 2025 2088 2108 1950 2047 1977 2068 1980 1971 2041 1976 1922 2037 1956 1911 1984 1974 2038 1971 2000 2030 2016 2026 1903 2024 1957 1983 1935 1978 1967 1894 1975 2006 1955 2040 1844 1892 1963 2003 1848 1946 1918 1788 1915 1935 1945 1862 1916 1863 1937 1902 1835 1809 1932 1825 1895 1796 1897 1855 1806 1776 1876 1868 1867 1834 1846 1853 1752 1879 1851 1858 1837 1842 1878 1859 1833 1828 1882 1818 1888 1766 1784 1856 1678 1809 1874 1904 1773 1792 1783 1783 1724 1848 1724 1791 1809 1734 1722 1834 1768 1792 1808 1843 1753 1793 1727 1775 1741 1762 1791 1750 1705 1792 1722 1758 1813 1747 1704 1722 1756 1775 1766 1745 1756 1724 1688 1731 1727 1690 1737 1780 1797 1742 1776 1716 1710 1667 1681 1709 1781 1722 1750 1651 1666 1670 1707 1697 1709 1654 1746 1696 1752 1704 1749 1764 1702 1710 1723 1692 1709 1751 1645 1725 1651 1720 1655 1786 1720 1793 1704 1721 1653 1742 1684 1745 1792 1744 1711 1665 1669 1712 1724 1684 1701 1734 1706 1694 1726 1714 1692 1663 1713 1699 1669 1693 1596 1670 1657 1714 1696 1736 1773 1718 1731 1744 1782 1692 1663 1752 1675 1670 1694 1724 1741 1668 1713 1773 1720 1696 1703 1748 1798 1743 1736 1783 1711 1669 1696 1769 1756 1776 1672 1707 1697 1805 1744 1771 1723 1661 1706 1680 1767 1688 1768 1663 1705 1730 1666 1783 1734 1689 1683 1722 1720 1620 1775 1714 1698 1654 1743 1662 1694 1649 1648 1662 1674 1661 1710 1693 1790 1724 1738 1740 1743 1687 1652 1687 1737 1683 1747 1656 1726 1795 1712 1709 1699 1728 1666 1710 1737 1682 1747 1778 1762 1734 1626 1690 1693 1759 1687 1730 1679 1709 1606 1664 1664 1663 1627 1662 1674 1722 1648 1595 1691 1701 1684 1665 1664 1623 1674 1640 1632 1679 1640 1582 1672 1619 1643 1689 1703 1670 1676 1658 1633 1622 1569 1663 1610 1656 1688 1574 1619 1573 1595 1675 1524 1619 1615 1610 1599 1578 1525 1560 1574 1512 1587 1587 1513 1589 1577 1587 1587 1570 1561 1567 1579 1522 1527 1524 1536 1569 1584 1556 1518 1472 1538 1502 1478 1640 1533 1494 1501 1474 1531 1501 1547 1524 1498 1575 1488 1442 1516 1446 1489 1481 1463 1433 1430 1453 1434 1478 1419 1467 1429 1516 1457 1467 1404 1430 1441 1401 1539 1460 1432 1488 1453 1392 1448 1510 1464 1363 1458 1393 1387 1465 1401 1379 1446 1376 1416 1452 1369 1458 1435 1406 1457 1448 1447 1459 1404 1470 1404 1430 1411 1396 1484 1446 1447 1399 1472 1435 1403 1515 1436 1492 1527 1546 1538 1607 1565 1627 1671 1696 1746 1781 1926 1864 1938 1925 2066 2049 2043 2018 2088 2141 2126 2175 2104 2155 2184 2063 2075 2132 1969 1989 1924 1947 1904 1870 1819 1794 1719 1683 1651 1551 1641 1579 1560 1548 1469 1434 1457 1398 1457 1419 1405 1378 1345 1339 1323 1384 1427 1375 1375 1317 1311 1280 1305 1301 1352 1307 1234 1293 1283 1281 1355 1243 1323 1339 1207 1288 1364 1296 1336 1268 1292 1271 1240 1301 1356 1258 1282 1325 1329 1360 1329 1312 1304 1236 1241 1252 1334 1266 1348 1330 1281 1326 1259 1319 1327 1299 1303 1361 1362 1403 1422 1437 1507 1397 1505 1575 1635 1636 1702 1631 1795 1812 2088 1955 2133 2247 2375 2502 2668 2720 2845 2900 3088 3298 3429 3638 3634 3788 3861 3847 3911 4121 4124 4303 4221 4074 4115 4033 3996 3985 3915 3887 3725 3645 3613 3439 3236 3256 3144 2961 2854 2843 2731 2595 2618 2451 2391 2249 2271 2135 2055 2016 2004 1914 1919 1849 1818 1709 1786 1712 1623 1632 1621 1583 1550 1509 1481 1498 1494 1493 1442 1412 1419 1405 1421 1396 1395 1393 1356 1382 1400 1348 1336 1273 1246 1306 1297 1278 1231 1246 1195 1164 1221 1153 1186 1173 1122 1139 1136 1132 1158 1103 1121 1124 1089 1175 1117 1122 1173 1116 1147 1075 1128 1101 1118 1153 1042 1094 1057 1102 1087 1152 1110 1101 1134 1146 1076 1079 1111 1079 1077 1093 1085 1113 1133 1056 1177 1085 1086 1098 1135 1066 1122 1086 1137 1080 1146 1067 1091 1095 1089 1087 1131 976 1091 1084 1092 1052 1115 1071 1082 1087 1128 1074 1118 1072 1029 1088 1112 1054 1051 1109 1072 1106 1053 1085 1089 1044 1039 1081 1082 1038 1087 1026 1079 1125 1079 1061 1087 1016 1052 1020 1112 1095 1080 1110 1052 1043 1027 1028 1047 1097 1010 1081 1068 1090 1098 1111 1135 1080 1076 1127 1123 1058 1073 1078 1077 1131 1186 1163 1182 1231 1212 1307 1239 1304 1342 1400 1398 1355 1379 1352 1313 1350 1299 1310 1322 1260 1231 1287 1175 1276 1110 1225 1160 1163 1125 1147 1123 1158 1056 1101 1063 1035 1023 1061 1034 1031 1034 1032 1021 1041 1019 1024 955 1039 993 1042 995 986 1057 985 943 1011 1061 1036 1033 1035 955 1031 1046 982 1064 1045 1046 991 973 999 971 974 1024 987 974 974 1019 1064 974 981 978 947 952 994 1000 1001 1001 953 991 987 1037 1016 1013 1066 986 942 980 953 979 976 986 957 1010 947 921 988 968 1002 920 980 1012 979 1011 917 1054 949 950 1012 1035 1017 988 1020 1031 1009 1014 1010 989 1059 1010 1061 1008 1047 1003 1116 1066 1032 1024 1075 1039 1052 1007 948 1033 1088 1007 1154 1126 1104 1067 1051 1003 1016 1067 1103 1050 1081 1055 1002 1118 1009 1095 1101 1082 1085 1115 1049 1160 1098 1094 1072 1081 1180 1039 1106 1136 1101 1103 1064 1169 1109 1153 1105 1127 1144 1180 1173 1281 1157 1213 1226 1219 1289 1274 1278 1198 1277 1294 1265 1310 1333 1383 1384 1484 1466 1547 1543 1499 1633 1691 1749 1831 1981 2022 2148 2400 2447 2590 2890 3068 3268 3504 3735 3916 4168 4280 4917 5101 5340 5477 5844 6035 6175 6279 6395 6693 6654 6812 7142 7123 7122 7158 7288 7289 7341 7105 7158 6985 6749 6592 6463 6191 6322 5890 5780 5317 5174 4891 4717 4552 4190 3973 3783 3564 3273 3130 2775 2736 2487 2359 2204 2089 1967 1893 1753 1757 1562 1543 1461 1473 1419 1278 1318 1314 1272 1241 1283 1226 1178 1183 1139 1116 1107 1147 1076 1080 1083 996 1049 1027 1037 1020 1055 1036 1111 1072 991 988 1004 985 984 1003 922 989 1018 1007 970 941 1008 971 964 948 939 922 981 948 987 964 914 938 953 934 882 996 924 961 947 963 939 960 943 971 903 1006 942 967 944 1002 935 914 921 925 898 923 918 967 925 936 916 916 901 870 913 922 923 951 898 897 971 962 922 861 901 922 906 923 935 897 891 973 946 905 917 875 933 874 920 881 879 910 927 901 863 875 898 852 867 890 917 916 937 894 881 924 879 898 968 877 909 833 915 922 892 861 954 895 859 898 859 812 887 920 886 904 889 872 795 922 848 894 815 899 864 939 847 875 807 875 887 889 844 845 800 867 843 838 870 837 833 864 856 893 867 853 836 886 869 865 828 840 880 897 911 823 846 822 864 849 820 895 903 847 847 811 871 822 845 853 921 827 881 861 860 857 869 870 811 821 895 916 865 863 885 842 828 831 885 817 840 827 849 853 851 848 854 855 819 855 823 856 845 804 885 811 833 794 877 866 919 786 909 902 877 859 855 879 872 886 913 858 889 865 868 881 923 876 926 882 863 884 917 878 956 912 897 909 896 911 913 896 809 844 862 910 836 833 851 859 839 904 856 878 804 881 818 787 842 819 812 805 834 792 807 875 839 832 842 851 899 844 848 793 786 855 814 852 816 829 816 844 820 764 811 788 797 823 775 788 784 795 807 810 762 796 796 793 753 818 766 785 782 765 768 756 773 695 801 730 776 752 803 813 813 779 792 801 784 760 808 783 781 819 729 779 767 793 725 816 749 775 822 781 717 774 781 757 777 797 783 774 730 737 749 790 789 766 725 752 751 774 816 778 779 796 747 786 734 769 698 806 747 822 786 755 763 766 806 763 756 793 823 812 791 780 728 786 799 811 831 782 780 729 764 746 807 739 703 732 801 765 814 712 784 722 804 798 833 728 766 736 736 775 751 765 754 715 737 765 744 728 796 759 716 810 771 711 730 755 753 756 712 771 799 713 740 725 706 810 778 752 722 716 728 752 778 710 756 741 779 720 754 794 743 752 759 692 765 722 739 735 765 741 762 759 815 725 792 725 795 738 761 767 800 795 778 755 750 752 745 713 708 783 781 694 688 777 725 760 717 779 801 733 753 711 746 725 754 746 733 723 770 724 728 705 786 810 718 770 757 794 721 770 750 756 749 728 789 735 756 772 747 771 741 727 759 763 795 734 789 743 770 750 743 742 736 737 749 761 750 762 780 753 722 730 743 739 779 750 798 788 752 750 730 728 779 715 728 739 785 736 716 758 829 770 796 746 790 712 792 744 724 777 739 724 766 765 756 795 757 755 765 734 767 706 763 754 798 825 789 747 799 782 799 744 813 802 810 849 812 849 785 852 872 911 864 914 849 898 868 856 920 896 881 888 878 884 873 881 854 827 826 795 818 828 798 799 780 805 788 734 758 709 820 823 705 701 740 738 738 717 750 771 744 713 734 743 758 769 727 729 681 652 743 741 723 686 726 714 739 683 713 697 720 706 771 778 697 762 730 691 701 746 725 691 763 735 731 702 732 732 741 765 720 689 706 687 700 691 713 679 737 719 723 750 719 736 683 730 741 690 764 711 741 754 735 705 691 709 720 742 718 796 696 719 704 716 720 723 721 697 716 740 729 723 749 689 764 697 694 771 794 737 777 787 753 748 792 739 715 747 719 758 770 751 763 739 743 725 675 698 719 714 696 756 742 716 752 743 683 734 742 716 734 720 737 774 720 765 733 762 723 697 707 708 746 750 783 717 699 734 752 730 692 754 783 709 728 750 716 717 727 701 708 732 728 721 716 697 738 747 757 790 729 732 817 764 683 765 738 720 728 683 733 762 771 693 767 719 749 728 752 738 778 769 753 772 741 689 751 708 717 725 779 781 742 699 772 722 705 711 713 750 736 741 735 757 759 727 769 741 728 728 719 721 682 768 723 778 751 738 696 750 701 731 723 758 760 755 725 765 734 729 754 730 693 720 745 761 741 771 721 753 762 778 767 784 719 788 781 742 735 739 776 816 777 818 823 810 774 780 794 828 849 911 909 897 958 938 969 979 954 995 1089 990 1021 1029 995 1045 1043 1054 1037 1089 1054 1080 1018 1040 994 1065 1030 1091 999 995 1002 986 1003 1083 1005 1043 1024 995 964 1012 1034 965 969 990 1007 1053 1050 1002 987 924 975 975 1027 980 971 1039 964 980 875 959 898 931 908 876 884 888 866 850 829 815 757 821 773 785 782 726 801 774 723 749 733 807 725 723 730 761 757 794 749 738 732 753 744 711 726 772 703 758 756 799 784 741 747 743 740 722 756 754 731 727 795 663 720 726 698 711 733 727 735 663 701 711 705 688 826 742 722 713 706 713 683 712 715 720 751 686 665 701 734 703 680 718 660 670 694 701 697 713 688 683 647 679 733 728 776 699 756 706 715 749 750 711 714 699 701 764 728 705 661 732 744 688 717 729 687 668 671 726 702 710 727 666 668 725 680 744 671 652 692 706 720 659 703 704 720 725 663 690 696 729 675 672 696 710 716 663 724 656 702 635 720 666 668 700 688 678 725 683 734 665 685 706 685 691 719 691 673 663 708 704 743 676 653 704 640 679 689 673 733 695 758 687 684 679 769 680 731 676 710 657 678 711 696 674 749 706 773 667 722 731 689 735 695 720 658 709 722 678 703 724 712 647 741 746 735 710 697 660 734 710 730 684 732 734 736 778 717 750 686 710 738 735 701 703 708 716 750 722 742 703 732 685 738 701 742 784 716 795 753 727 698 730 749 737 747 717 678 693 767 716 695 674 662 750 728 760 737 684 752 704 710 674 714 740 808 741 741 756 746 726 795 745 732 740 760 746 784 761 711 746 742 762 782 745 791 706 757 805 771 723 780 771 799 823 777 756 802 786 793 860 865 815 846 856 890 898 899 915 911 914 972 989 969 1038 1140 1190 1269 1344 1385 1545 1578 1676 1719 1866 1949 2116 2184 2224 2405 2605 2646 2969 2969 3099 3166 3187 3402 3462 3521 3555 3510 3695 3679 3621 3633 3490 3617 3447 3614 3412 3490 3295 3275 3180 3259 3107 2999 3018 2940 2968 2855 2877 2764 2670 2648 2586 2594 2546 2459 2457 2300 2260 2186 2195 2135 2062 1965 1933 1898 1898 1837 1720 1683 1657 1525 1503 1495 1509 1247 1377 1308 1287 1212 1123 1153 1109 1091 1089 1043 990 1018 1007 969 959 926 900 888 903 873 857 882 874 823 849 812 740 797 810 779 810 834 774 768 798 701 757 746 754 746 788 755 721 714 737 732 703 746 713 738 732 732 704 720 692 705 699 745 742 687 687 703 720 665 699 735 724 721 680 705 736 689 728 660 707 687 700 636 703 672 704 699 656 681 665 688 697 717 729 693 684 696 671 690 727 673 670 673 691 682 756 686 680 690 747 729 673 721 692 653 754 661 643 712 683 643 621 747 676 713 699 680 682 694 698 671 716 651 721 687 614 728 674 643 689 679 650 686 706 698 688 707 696 704 722 757 712 685 769 729 754 713 695 714 775 773 795 785 800 861 822 839 812 868 896 863 905 890 959 999 1013 923 942 933 1016 954 947 943 985 976 929 1011 1013 986 1003 929 940 1004 994 935 899 924 948 810 896 789 817 815 814 866 763 774 795 749 737 759 714 786 719 759 715 719 666 689 671 717 698 683 687 703 655 673 614 663 596 637 691 643 684 652 693 651 632 622 678 648 701 694 611 648 646 655 624 621 591 616 665 597 661 626 678 588 643 647 639 670 616 647 641 617 629 648 646 637 615 667 614 646 618 693 642 636 608 586 608 603 636 625 654 613 593 639 604 622 609 624 579 649 569 620 629 633 664 694 659 601 660 577 618 612 660 631 618 641 642 633 591 597 629 627 561 656 602 636 611 614 595 602 656 637 636 626 638 661 638 601 609 648 608 596 644 658 626 694 687 605 650 613 617 629 618 640 635 624 645 571 611 647 616 643 606 638 619 646 657 631 611 643 610 677 618 619 613 598 623 587 605 593 620 602 625 672 673 649 628 606 566 658 623 624 664 631 663 647 618 605 644 622 576 586 600 560 612 595 605 637 615 624 605 614 603 602 651 652 633 620 626 597 629 599 656 588 614 641 640 589 613 602 628 631 630 631 613 588 663 620 603 631 667 618 660 632 699 669 648 701 640 665 691 733 687 672 691 712 663 694 750 650 708 731 684 684 681 674 668 612 641 673 672 667 641 636 673 584 646 622 645 670 652 620 621 558 612 641 625 606 651 623 590 600 584 596 615 603 580 560 603 577 621 597 576 561 618 608 630 573 590 619 600 612 583 596 629 623 592 662 583 630 559 614 597 598 629 612 579 588 618 591 618 592 582 619 595 595 568 609 634 559 617 620 600 609 582 585 622 593 621 571 583 585 594 570 572 618 616 572 620 604 569 566 626 590 548 548 572 566 621 574 570 573 515 595 554 596 560 611 543 577 628 595 580 641 591 607 574 598 599 571 567 594 555 593 609 605 508 584 584 585 609 593 605 600 574 585 565 601 593 570 590 596 566 612 564 585 611 654 558 606 645 600 557 632 556 561 565 572 576 601 576 625 560 623 573 592 568 616 643 563 586 641 622 613 586 615 570 638 571 588 560 610 559 609 625 605 598 582 572 624 554 584 559 620 596 583 586 608 606 635 598 602 602 563 590 543 578 596 572 578 562 644 581 600 638 648 612 580 600 559 581 574 619 551 590 583 620 569 604 584 598 595 597 563 595 559 537 536 589 569 570 629 588 581 564 589 595 589 589 587 554 585 594 622 608 630 630 617 681 584 598 590 640 615 648 653 619 630 667 640 600 633 680 592 672 678 651 682 671 639 672 630 669 603 655 675 631 676 612 642 650 599 639 598 660 635 598 610 647 619 631 655 636 665 594 639 639 595 636 651 617 622 654 632 680 642 636 700 712 684 659 721 723 730 764 798 784 766 837 756 905 854 885 875 878 891 884 923 900 985 994 968 975 984 955 998 948 956 972 1042 978 1031 954 963 987 1008 1022 1045 937 1022 1020 998 997 964 992 911 909 958 959 990 953 953 911 914 927 907 924 960 949 826 920 805 907 848 844 802 822 738 806 733 755 826 769 768 775 742 753 676 686 683 712 675 682 697 661 696 710 620 675 642 670 698 634 688 646 640 634 655 601 575 584 565 608 578 643 622 652 607 618 617 623 597 619 589 650 597 628 593 610 549 606 590 616 626 590 610 589 568 581 569 617 573 619 571 616 594 600 616 597 602 586 565 583 568 626 570 621 548 645 578 618 585 631 608 561 645 634 652 585 589 617 580 614 641 612 605 599 624 669 664 594 594 587 626 591 595 624 620 629 602 609 590 604 576 633 586 604 594 619 628 612 597 618 633 580 572 601 585 629 568 590 648 582 636 608 596 612 621 571 614 607 603 587 653 608 595 611 602 621 630 608 581 604 590 601 579 583 593 614 594 593 550 644 609 642 596 609 632 579 642 561 621 663 662 653 631 664 651 644 650 696 635 649 676 677 636 655 735 657 709 681 703 766 733 759 763 853 854 842 982 925 1029 940 1037 1018 1015 1016 1114 1090 1104 1118 1143 1110 1088 1159 1211 1174 1167 1175 1148 1313 1216 1254 1205 1288 1301 1290 1362 1274 1251 1215 1258 1264 1245 1140 1232 1179 1169 1166 1133 1132 1093 1044 1080 1058 1023 1012 923 1022 929 863 876 905 933 863 847 844 862 807 873 888 861 796 800 781 821 778 730 755 795 759 778 747 755 777 726 766 718 732 701 747 664 733 685 710 697 685 736 679 662 701 699 652 682 644 621 601 620 626 644 657 650 595 590 614 594 623 565 617 587 614 632 568 648 600 582 586 662 600 613 646 630 586 613 593 606 661 649 668 618 631 610 611 649 673 584 635 607 665 617 609 654 636 653 634 615 657 649 603 600 639 636 619 615 579 638 572 584 586 583 579 570 609 555 599 584 620 561 575 572 588 578 549 559 590 571 558 542 617 562 586 547 560 565 579 589 597 635 623 579 630 669 636 647 630 637 680 684 666 647 699 633 670 680 660 639 684 695 610 647 653 654 673 640 682 651 659 657 584 616 642 613 565 641 608 592 605 613 612 613 612 605 609 590 574 561 627 623 617 625 611 607 635 681 610 634 672 673 656 639 650 650 631 610 629 646 664 633 692 623 608 630 632 578 573 616 643 599 615 619 636 613 622 614 610 638 581 570 601 622 562 605 565 624 593 650 613 563 603 545 535 588 551 562 579 590 560 550 595 592 587 568 563 541 591 583 603 541 554 569 578 531 540 543 560 522 540 556 523 572 549 549 552 541 551 534 564 541 509 514 554 549 474 546 559 566 507 572 559 555 540 546 567 521 517 538 543 551 524 580 531 570 533 518 556 492 500 517 530 566 520 536 540 500 567 541 571 611 534 563 552 515 557 519 539 547 570 550 520 552 547 538 555 530 551 546 548 519 557 566 510 541 503 545 566 536 545 518 512 553 517 541 532 538 538 517 555 556 524 516 548 547 505 568 519 515 515 557 522 568 528 501 542 499 537 539 514 515 512 527 526 486 562 525 554 507 549 543 535 540 521 549 554 514 495 572 565 536 558 523 542 514 543 494 522 514 531 510 525 488 497 524 482 529 559 513 577 522 510 571 513 533 523 569 514 532 544 543 533 536 558 493 545 507 505 509 534 533 531 490 517 546 573 521 524 558 539 523 565 561 537 504 546 586 511 574 539 516 504 518 558 529 556 550 568 544 536 526 547 531 552 518 539 546 487 524 515 549 519 555 540 534 510 514 532 543 553 531 524 546 535 497 503 537 501 542 496 513 557 537 512 534 505 531 546 556 536 544 475 506 531 516 496 520 526 542 527 539 505 487 554 519 526 565 493 526 524 472 564 607 506 513 545 532 504 534 543 507 481 566 547 525 515 587 531 519 499 561 532 531 550 600 537 545 512 570 537 520 561 486 549 519 468 517 508 596 550 541 532 522 558 546 505 518 510 544 519 531 536 535 534 539 496 554 513 565 559 549 550 574 519 567 560 543 530 591 545 519 480 526 538 521 576 573 531 535 531 509 565 500 557 462 563 528 500 511 526 530 559 508 529 519 544 521 538 523 567 563 508 572 509 550 544 548 533 535 551 545 519 544 584 635 546 571 566 556 543 594 583 556 581 575 591 583 578 600 596 586 572 614 568 549 552 564 617 579 587 595 619 556 566 565 568 555 587 630 571 586 589 565 578 576 616 566 573 596 574 558 591 605 593 523 617 527 597 542 520 568 552 597 525 565 558 572 566 524 534 499 520 552 502 566 551 561 525 545 504 553 561 524 528 564 544 539 524 507 528 503 538 518 514 515 529 450 527 512 504 539 518 498 508 583 515 490 517 557 537 529 485 509 505 583 506 561 465 559 529 558 519 483 495 559 525 540 528 543 509 523 533 527 484 535 508 506 536 553 519 531 536 499 536 523 514 520 509 494 532 504 496 516 526 481 483 530 567 541 509 538 504 518 522 479 540 494 450 565 496 499 514 507 499 486 526 529 482 492 484 536 535 499 532 486 557 479 522 521 492 485 545 520 486 546 485 519 515 522 528 532 535 530 499 521 532 541 505 518 498 460 551 496 529 501 508 521 495 544 497 534 507 473 520 512 480 539 469 492 499 570 539 519 477 540 516 505 545 518 523 534 482 472 522 527 532 466 475 525 513 543 480 487 521 553 526 559 521 495 493 536 533 470 512 535 514 511 495 488 514 510 500 523 513 533 515 540 482 519 548 504 556 475 543 492 519 496 553 556 542 589 562 556 557 559 532 539 530 581 519 554 607 568 584 606 631 601 687 699 672 654 717 694 673 697 734 727 688 680 721 663 715 706 681 678 666 725 767 666 725 663 700 716 634 680 697 695 680 678 675 699 730 703 729 722 743 711 725 711 711 690 751 712 716 714 693 717 737 727 718 705 690 734 703 725 704 744 676 724 724 675 624 688 669 659 662 663 647 627 647 615 621 643 600 634 614 587 586 622 592 553 584 543 527 527 577 527 543 614 609 587 546 586 573 587 585 533 499 528 571 501 553 526 594 510 482 504 502 549 524 538 555 505 515 557 520 551 528 554 543 500 536 550 523 503 559 510 511 539 527 537 503 505 543 508 513 478 533 512 556 524 556 548 494 478 525 518 512 522 545 514 520 567 521 522 472 513 514 513 533 509 503 531 552 537 530 517 510 504 477 527 536 493 486 558 490 507 520 516 510 469 500 512 515 504 488 516 509 548 535 487 493 492 460 561 556 512 521 498 478 483 540 486 520 467 490 491 485 496 469 556 565 516 549 462 523 505 467 549 497 480 470 503 530 525 499 516 499 572 520 527 487 529 522 532 498 500 494 515 512 482 519 518 495 559 557 543 469 508 521 524 496 519 472 521 535 532 498 533 499 485 545 510 512 506 524 519 505 511 530 500 519 518 543 507 477 521 485 523 494 494 503 507 493 483 522 535 484 511 470 504 509 484 518 505 493 486 518 505 499 498 519 487 503 573 471 505 507 497 500 529 525 528 504 497 485 494 457 500 485 538 496 496 514 493 522 518 505 517 473 519 517 513 499 519 512 495 470 517 505 492 498 494 527 496 484 527 543 491 477 482 501 476 454 507 529 533 545 509 488 521 532 496 524 549 529 487 506 521 498 509 486 496 541 478 523 506 497 491 507 483 514 465 538 486 536 535 508 490 539 510 504 502 498 521 550 500 533 476 537 465 497 493 514 474 535 523 492 531 512 516 497 507 527 484 484 519 505 500 512 512 486 493 498 482 570 510 524 536 528 491 532 481 531 504 523 535 513 564 540 563 519 554 503 548 516 517 551 513 514 504 494 524 540 525 519 562 493 509 519 476 517 513 535 505 487 549 542 497 535 512 500 516 544 536 533 516 505 514 533 501 531 488 530 517 530 514 510 521 527 506 465 523 496 527 476 473 500 498 518 507 498 492 552 527 526 505 494 500 530 504 521 490 521 522 550 502 503 509 534 508 520 490 508 501 505 499 464 522 551 503 509 500 535 555 515 507 527 498 534 520 509 494 488 481 493 499 539 511 511 484 470 510 508 519 515 525 472 543 499 499 475 532 514 491 555 480 505 471 507 512 475 530 518 497 518 542 499 493 463 500 493 518 534 524 527 543 522 463 527 514 514 490 562 490 499 559 531 544 513 475 494 527 534 517 561 519 501 553 516 493 546 498 546 528 530 517 500 510 535 541 583 489 509 501 472 560 489 556 498 519 516 529 544 500 527 533 530 513 541 555 533 563 585 596 565 508 552 536 559 554 580 566 571 595 584 570 572 502 582 551 573 566 554 557 587 555 532 557 553 577 577 567 558 541 543 556 601 535 567 550 502 510 556 584 555 509 555 593 593 556 595 540 591 567 584 568 564 601 529 595 588 569 590 609 582 595 598 594 622 594 628 617 588 629 558 644 643 573 625 624 635 562 627 585 631 649 632 598 632 617 636 646 633 631 631 654 600 674 667 662 629 626 637 615 633 583 643 606 599 665 595 604 619 615 625 613 616 595 552 548 619 584 586 604 607 595 627 579 582 550 594 574 607 608 666 580 591 585 617 590 565 588 557 606 569 609 593 621 582 570 553 521 537 552 560 585 603 548 536 574 591 522 555 534 531 549 566 526 503 532 584 548 517 570 530 525 540 530 528 557 539 575 544 573 546 545 522 577 526 577 514 531 549 514 521 524 504 592 495 554 520 590 538 553 546 516 542 549 593 530 513 564 552 583 543 565 576 550 575 530 544 531 563 513 541 502 526 541 536 534 552 524 548 551 540 572 535 556 518 562 524 568 536 561 546 575 542 574 521 562 569 564 559 580 532 565 544 567 539 545 553 555 502 591 544 510 531 565 583 551 619 533 579 603 624 599 570 597 584 621 577 628 650 657 677 648 668 649 688 749 733 820 744 819 880 866 834 840 858 948 951 906 932 949 939 1002 898 877 893 887 897 894 905 936 903 937 940 983 901 958 931 1002 988 979 977 963 1046 956 1033 916 867 931 884 988 905 900 893 924 909 893 896 877 864 869 778 885 840 873 857 860 828 926 898 828 873 890 868 854 839 832 884 805 860 825 738 855 782 746 754 774 814 827 804 760 724 745 765 725 760 749 740 744 745 712 715 675 709 675 661 689 683 678 710 650 676 667 672 634 647 657 635 683 650 638 639 584 626 603 652 592 595 593 635 619 589 583 588 593 581 609 593 605 576 588 601 555 614 576 605 615 591 539 561 618 604 582 562 521 583 590 570 575 514 592 622 587 592 601 534 575 574 526 591 557 628 594 598 596 588 597 553 533 597 566 570 528 536 556 542 568 583 552 584 593 575 545 572 610 592 547 574 545 562 520 543 538 538 602 547 552 543 511 664 558 551 554 570 531 591 595 579 524 533 587 549 564 536 524 588 586 532 525 591 510 575 509 528 536 528 555 541 535 542 524 533 584 525 607 541 527 548 540 542 573 562 545 570 531 526 558 599 556 565 538 546 566 520 542 562 526 579 482 540 528 545 568 544 513 520 532 525 555 566 546 547 519 550 508 540 528 525 546 536 571 525 546 533 484 517 549 534 531 535 533 531 502 532 550 552 513 539 519 478 562 538 561 527 480 546 527 490 502 518 538 523 544 534 547 486 546 491 506 508 496 542 483 560 488 511 554 530 501 535 518 570 498 511 493 522 503 569 516 541 518 486 505 552 509 557 542 514 468 518 504 502 531 541 494 520 508 548 539 524 551 555 506 510 507 515 511 552 491 506 528 467 529 531 547 489 549 561 543 515 545 517 507 521 491 526 523 492 531 520 498 584 523 494 504 546 487 510 535 510 527 542 477 515 513 525 517 557 529 545 512 503 548 497 515 514 487 531 496 572 523 516 526 517 535 564 472 521 502 503 520 516 510 486 508 493 535 515 509 512 512 553 510 520 544 514 526 515 525 581 536 526 547 543 515 553 512 497 504 515 527 491 509 506 518 540 505 521 506 520 501 521 523 525 523 535 545 484 524 523 510 564 543 465 571 578 529 520 595 533 498 508 530 503 549 494 546 546 523 489 526 515 550 506 513 509 539 489 555 504 465 528 525 548 538 525 494 519 548 524 569 530 517 522 497 482 525 523 521 500 499 493 506 544 515 552 521 531 482 494 531 529 475 485 540 552 539 550 509 519 531 495 513 508 504 510 485 535 469 536 498 491 569 527 499 524 526 554 458 494 519 503 518 535 511 525 528 511 506 524 503 513 500 556 498 511 462 506 505 498 479 479 497 532 525 541 517 534 462 457 505 483 502 522 504 499 533 531 522 511 547 588 519 481 543 536 568 535 512 540 541 537 529 519 539 551 526 535 551 527 552 545 574 502 555 551 542 547 575 557 562 496 566 523 549 521 518 555 528 563 584 511 529 549 540 524 544 560 557 526 573 558 573 562 575 551 560 583 590 575 553 562 511 519 532 513 540 563 588 551 567 526 553 584 543 554 539 599 574 539 551 560 571 538 553 536 552 522 533 484 549 559 542 547 555 527 507 565 523 575 509 519 492 499 507 525 506 566 496 522 581 519 520 522 516 526 488 558 543 538 537 558 536 495 552 466 490 514 517 529 503 481 530 483 556 527 536 502 530 510 508 511 535 514 492 524 524 555 475 516 541 495 516 516 505 527 527 572 523 534 549 511 493 511 515 573 501 504 513 487 545 519 507 537 510 514 459 509 510 482 539 527 529 497 512 520 527 506 524 533 515 525 550 510 470 509 535 562 535 554 469 535 523 510 519 498 518 481 559 489 507 505 499 498 485 508 514 556 509 490 550 532 494 520 552 555 533 514 465 485 545 485 556 555 535 492 506 518 501 496 525 562 521 545 494 484 550 513 498 512 543 503 505 565 493 609 538 552 516 515 555 566 541 562 562 486 564 526 512 553 555 507 534 538 553 571 551 563 546 570 529 575 584 538 545 573 576 552 594 543 600 622 568 590 590 623 617 654 613 604 644 666 714 674 737 733 705 769 789 774 809 820 770 784 759 787 741 775 781 733 742 699 696 744 776 690 694 710 709 738 780 776 810 743 814 784 786 783 830 818 823 746 791 781 788 849 805 838 787 793 731 770 724 782 769 757 754 760 774 756 741 756 747 747 726 761 703 761 736 750 689 715 716 698 739 653 694 682 737 735 714 729 700 690 703 708 678 667 620 665 652 665 663 658 660 676 644 664 656 673 722 667 655 591 594 634 627 589 628 598 636 605 600 597 597 599 591 565 607 590 547 595 591 573 601 596 577 631 592 609 572 537 607 570 569 553 591 542 555 553 578 565 599 554 549 557 552 546 551 522 543 579 483 587 563 573 563 502 547 524 550 554 532 551 546 556 555 538 605 518 531 547 558 514 514 475 571 520 532 524 525 575 571 565 564 527 548 559 548 539 553 515 529 501 554 478 566 496 517 542 535 543 540 559 539 555 555 565 540 564 522 502 539 554 548 541 556 551 540 527 509 496 582 495 565 557 487 540 556 533 521 521 550 544 551 538 555 522 496 519 546 516 596 511 532 525 581 496 528 515 538 499 550 512 526 512 543 528 538 521 518 545 507 526 509 524 555 501 574 542 517 486 502 556 542 505 480 475 500 539 501 516 518 534 482 521 482 485 519 484 521 515 515 515 469 511 501 551 513 522 500 522 516 514 500 486 513 502 486 525 514 503 467 552 526 488 541 481 549 508 534 506 461 533 522 508 481 502 510 499 556 499 532 538 542 517 515 589 547 505 481 535 525 544 498 555 494 517 520 513 527 526 496 509 481 509 501 514 507 531 521 492 492 520 519 504 520 525 533 554 495 512 515 525 494 527 499 537 479 528 497 536 467 505 514 477 508 503 525 498 507 515 536 513 480 509 505 486 553 525 519 499 490 492 494 526 497 488 487 495 490 480 502 482 498 536 518 544 508 489 489 473 474 537 524 504 481 501 507 480 518 499 503 519 515 516 511 545 504 542 512 504 478 550 539 518 506 546 471 532 529 555 531 553 510 515 509 506 522 531 509 508 513 546 534 505 510 523 511 479 562 502 513 520 519 525 518 496 535 498 528 499 500 498 514 509 491 529 516 457 498 492 489 487 523 503 564 505 492 523 537 498 514 519 495 490 520 536 511 514 500 491 514 482 508 506 487 475 509 526 503 487 512 491 517 524 516 509 513 509 525 534 500 550 537 512 536 547 517 503 524 538 504 473 525 530 464 495 498 513 524 544 568 530 529 484 502 489 434 483 493 492 514 482 516 541 530 510 575 487 524 531 524 526 521 516 503 546 498 502 529 501 563 503 491 531 508 523 516 517 515 515 532 519 519 492 518 510 461 512 497 537 526 511 489 496 531 503 496 513 534 514 558 545 560 525 557 508 500 516 570 524 524 558 507 584 525 520 530 545 563 528 552 595 520 574 564 520 537 531 551 559 560 563 550 578 554 509 574 584 536 555 562 539 525 527 553 514 537 515 546 532 566 576 542 566 545 517 514 536 536 540 550 516 572 568 540 521 514 549 546 575 529 532 559 524 546 585 574 537 559 556 551 550 587 513 528 568 584 562 541 524 549 567 552 584 542 551 549 552 587 554 534 610 576 549 556 604 550 632 593 581 525 549 532 572 572 565 590 552 571 579 557 584</counts>
			</dataPoints>
		</scan>
	</xrdMeasurement>
</xrdMeasurements>
