<?xml version="1.0"?>
<xrdMeasurements xmlns="http://www.xrdml.com/XRDMeasurement/2.3" xmlns:xsi="http://www.w3.org/2001/XMLSchema-instance" xsi:schemaLocation="http://www.xrdml.com/XRDMeasurement/2.3 http://www.xrdml.com/XRDMeasurement/2.3/XRDMeasurement.xsd" status="Completed" recordIdentifier="{4591FABB-E56D-44BE-AE0E-72C8CCADD65D}">
	<comment>
		<entry/>
	</comment>
	<sample type="To be analyzed">
		<id>GPSS_Li1p6Mg0p8Zr0p2Cl4_100825_68e6fdc007cf888582f941b0</id>
		<name></name>
		<preparedBy></preparedBy>
	</sample>
	<xrdMeasurement measurementType="Scan" status="Completed" sampleMode="Reflection">
		<usedWavelength intended="K-Alpha 1">
			<kAlpha1 unit="Angstrom">1.5405980</kAlpha1>
			<kAlpha2 unit="Angstrom">1.5444260</kAlpha2>
			<kBeta unit="Angstrom">1.3922500</kBeta>
			<ratioKAlpha2KAlpha1>0.5000</ratioKAlpha2KAlpha1>
		</usedWavelength>
		<incidentBeamPath>
			<radius unit="mm">145.00</radius>
			<xRayTube id="1010048" name="Empyrean Cu LFF HR (9430 033 7310x)">
				<tension unit="kV">40.0</tension>
				<current unit="mA">15.0</current>
				<anodeMaterial>Cu</anodeMaterial>
				<focus type="Line">
					<length unit="mm">12.0</length>
					<width unit="mm">0.4</width>
					<takeOffAngle unit="deg">6.0</takeOffAngle>
				</focus>
			</xRayTube>
			<sollerSlit id="21010002" name="Soller slits 0.04 rad.">
				<opening unit="rad">0.0400</opening>
			</sollerSlit>
			<mask id="22031000" name="Fixed mask 13 mm">
				<width unit="mm">9.00</width>
			</mask>
			<divergenceSlit id="22120001" name="Divergence slit 1°" xsi:type="fixedDivergenceSlitType">
				<distanceToSample unit="mm">50.00</distanceToSample>
				<height unit="mm">1.52</height>
			</divergenceSlit>
		</incidentBeamPath>
		<sampleMovement xsi:type="spinningSampleMovementType">
			<spinnerRevolutionTime unit="seconds">1.0</spinnerRevolutionTime>
		</sampleMovement>
		<diffractedBeamPath>
			<radius unit="mm">145.00</radius>
			<antiScatterSlit id="22090040" name="AS slit 9 mm (PIXcel)" xsi:type="fixedAntiScatterSlitType">
				<height unit="mm">9.00</height>
			</antiScatterSlit>
			<sollerSlit id="21020003" name="Large Soller slits 0.04 rad.">
				<opening unit="rad">0.0400</opening>
			</sollerSlit>
			<filter id="20030001" name="Large beta-filter Nickel">
				<material>Ni</material>
				<thickness unit="mm">0.020</thickness>
			</filter>
			<detector id="7010019" name="PIXcel1D-Medipix3 detector" xsi:type="rtmsDetectorType">
				<phd unit="keV">
					<lowerLevel>4.02</lowerLevel>
					<upperLevel>11.27</upperLevel>
				</phd>
				<mode>Scanning</mode>
				<activeLength unit="deg">5.542</activeLength>
			</detector>
		</diffractedBeamPath>
		<scan appendNumber="0" mode="Continuous" scanAxis="Gonio" status="Completed">
			<header>
				<startTimeStamp>2025-10-17T13:42:30-07:00</startTimeStamp>
				<endTimeStamp>2025-10-17T13:50:37-07:00</endTimeStamp>
				<author>
					<name>AutomatedUser</name>
				</author>
				<source>
					<applicationSoftware version="1.7b (136)">PANalytical Aeris Instrument Suite</applicationSoftware>
					<instrumentControlSoftware version="3.2.00000000 20240306">AERIS</instrumentControlSoftware>
					<instrumentID>950485</instrumentID>
				</source>
			</header>
			<dataPoints>
				<positions axis="2Theta" unit="deg">
					<startPosition>10.00943322</startPosition>
					<endPosition>99.99442286</endPosition>
				</positions>
				<positions axis="Omega" unit="deg">
					<startPosition>5.00471661</startPosition>
					<endPosition>49.99721143</endPosition>
				</positions>
				<commonCountingTime unit="seconds">12.495</commonCountingTime>
				<counts unit="counts">2759 2668 2790 2695 2687 2695 2599 2807 2744 2715 2728 2694 2659 2729 2795 2641 2665 2662 2777 2749 2729 2784 2754 2839 2803 2661 2690 2636 2765 2662 2711 2730 2755 2690 2648 2682 2623 2638 2588 2688 2659 2682 2614 2612 2684 2712 2634 2713 2762 2684 2642 2600 2764 2630 2724 2578 2623 2663 2753 2646 2674 2525 2705 2637 2692 2535 2732 2612 2647 2592 2609 2619 2612 2594 2715 2571 2612 2666 2721 2594 2621 2610 2701 2493 2641 2565 2547 2658 2614 2669 2562 2605 2586 2598 2583 2578 2633 2668 2583 2704 2595 2693 2595 2621 2517 2553 2678 2597 2614 2539 2592 2557 2546 2554 2580 2617 2579 2620 2553 2576 2618 2635 2631 2472 2621 2602 2598 2529 2567 2609 2653 2603 2587 2540 2613 2612 2523 2550 2516 2584 2557 2676 2532 2584 2618 2544 2563 2594 2551 2543 2493 2579 2577 2513 2552 2643 2496 2652 2540 2563 2468 2488 2452 2525 2470 2489 2514 2465 2581 2535 2531 2514 2503 2533 2544 2514 2514 2518 2575 2598 2455 2412 2544 2524 2555 2576 2478 2485 2594 2486 2564 2539 2529 2446 2498 2450 2485 2495 2584 2456 2550 2569 2452 2418 2459 2626 2493 2528 2555 2436 2546 2452 2516 2545 2542 2419 2466 2411 2437 2487 2439 2436 2539 2579 2434 2460 2548 2491 2475 2546 2460 2527 2475 2510 2464 2457 2405 2425 2500 2548 2470 2536 2536 2494 2592 2591 2463 2524 2521 2490 2462 2434 2567 2517 2493 2502 2401 2521 2517 2403 2487 2505 2467 2486 2512 2466 2558 2443 2439 2398 2536 2531 2549 2532 2558 2619 2517 2581 2525 2505 2442 2461 2557 2541 2566 2503 2505 2511 2656 2555 2556 2552 2594 2557 2601 2548 2525 2640 2630 2575 2559 2533 2614 2607 2583 2678 2606 2632 2618 2661 2563 2604 2644 2629 2691 2673 2677 2672 2672 2678 2677 2660 2733 2755 2717 2700 2662 2739 2758 2747 2679 2771 2710 2740 2724 2756 2808 2735 2727 2783 2775 2768 2791 2899 2793 2927 2795 2865 2764 2804 2837 2833 2920 2898 2856 2924 2826 2817 2799 3000 2952 2988 2853 2867 2880 2845 2985 2999 2946 2796 2943 3047 3003 2867 3043 2819 3046 3001 2995 2956 3037 3080 3075 3110 2986 3050 3113 3090 3094 3057 3057 3120 3044 3040 3198 3170 3035 3084 3102 3190 3213 3141 3203 3209 3264 3220 3182 3243 3237 3331 3209 3329 3282 3344 3537 3351 3562 3439 3485 3556 3482 3755 3668 3790 3819 3841 4003 3992 4049 4294 4440 4439 4852 4773 4907 4988 5082 5080 5164 5234 5087 4999 5118 5081 5034 4997 5064 5119 5034 5035 5000 5037 5081 5056 5304 5418 5323 5305 5525 5612 5697 5740 5878 5940 6067 6010 5904 6015 5844 5781 5917 5643 5590 5470 5387 5331 5240 5176 5055 4849 4769 4782 4639 4639 4476 4363 4315 4279 4387 4238 4340 4218 4158 4160 4026 3952 3849 3852 3734 3770 3739 3486 3657 3527 3461 3459 3374 3328 3301 3305 3244 3190 3155 2988 3113 3089 3002 3052 3060 3065 3123 3013 3094 2951 2957 2936 3016 3043 2970 3105 2967 2956 2978 2916 2935 2970 2948 2974 2993 3003 2957 2960 2886 3019 2861 2885 2946 2978 3003 2863 2951 2884 2926 2895 2801 3019 2915 2884 2798 2896 2817 2846 2813 2835 2788 2883 2806 2793 2933 2781 2774 2862 2776 2812 2779 2821 2779 2903 2737 2713 2770 2774 2870 2783 2815 2793 2809 2855 2793 2855 2784 2787 2857 2697 2739 2844 2787 2745 2746 2735 2715 2704 2757 2739 2696 2820 2770 2754 2745 2732 2733 2739 2723 2714 2856 2807 2626 2707 2730 2784 2795 2638 2719 2727 2727 2738 2680 2656 2647 2675 2681 2749 2585 2760 2696 2763 2642 2752 2687 2711 2678 2625 2715 2645 2612 2632 2716 2619 2742 2622 2660 2728 2595 2594 2701 2688 2576 2653 2708 2589 2652 2545 2645 2597 2621 2620 2585 2602 2664 2695 2643 2670 2629 2552 2667 2628 2488 2593 2536 2606 2521 2678 2661 2676 2679 2639 2577 2680 2728 2556 2726 2538 2521 2570 2580 2634 2629 2622 2630 2563 2654 2600 2490 2538 2598 2648 2610 2624 2520 2492 2513 2605 2640 2573 2519 2622 2452 2542 2494 2590 2551 2575 2610 2582 2481 2474 2576 2448 2608 2504 2545 2645 2525 2563 2552 2572 2651 2577 2573 2563 2545 2532 2528 2519 2498 2539 2598 2543 2581 2645 2465 2535 2511 2517 2560 2532 2567 2577 2542 2608 2446 2505 2515 2564 2455 2450 2553 2580 2468 2500 2433 2543 2555 2596 2468 2438 2554 2619 2538 2662 2468 2559 2532 2509 2498 2615 2560 2606 2593 2589 2563 2420 2493 2448 2400 2437 2505 2488 2458 2483 2516 2564 2484 2430 2414 2273 2428 2475 2469 2554 2430 2454 2346 2470 2445 2565 2471 2483 2526 2443 2351 2359 2480 2508 2441 2441 2355 2426 2507 2479 2460 2392 2474 2391 2433 2449 2394 2406 2357 2444 2489 2421 2505 2435 2422 2367 2421 2397 2345 2391 2314 2326 2450 2403 2361 2430 2404 2386 2442 2387 2290 2441 2335 2471 2480 2467 2472 2460 2336 2377 2448 2422 2364 2407 2361 2358 2331 2293 2236 2333 2355 2391 2330 2431 2364 2310 2400 2358 2359 2300 2332 2380 2429 2327 2465 2286 2339 2447 2336 2367 2381 2395 2306 2259 2282 2351 2404 2239 2380 2398 2256 2403 2403 2349 2315 2281 2347 2284 2407 2358 2317 2391 2331 2290 2310 2393 2295 2254 2314 2304 2424 2317 2345 2264 2310 2221 2284 2288 2279 2352 2293 2365 2296 2239 2273 2292 2357 2256 2386 2307 2305 2254 2258 2267 2260 2255 2307 2293 2223 2238 2287 2290 2363 2345 2317 2213 2383 2263 2192 2323 2269 2362 2258 2235 2325 2131 2342 2284 2261 2203 2340 2259 2212 2256 2129 2174 2344 2188 2170 2276 2188 2353 2120 2339 2250 2328 2247 2205 2278 2183 2283 2241 2125 2261 2176 2266 2239 2175 2240 2350 2274 2193 2229 2198 2385 2309 2250 2226 2220 2178 2275 2229 2220 2347 2265 2314 2246 2358 2280 2275 2245 2283 2163 2346 2273 2260 2177 2221 2241 2258 2248 2198 2254 2294 2235 2197 2324 2293 2243 2280 2269 2125 2185 2187 2240 2289 2217 2238 2333 2306 2308 2242 2279 2225 2287 2328 2284 2321 2277 2255 2209 2315 2303 2215 2265 2216 2242 2240 2260 2262 2306 2258 2317 2306 2318 2287 2278 2329 2345 2185 2187 2287 2202 2237 2347 2255 2308 2214 2172 2265 2222 2315 2259 2174 2217 2153 2231 2187 2277 2219 2248 2155 2235 2244 2248 2234 2175 2258 2220 2283 2205 2241 2213 2184 2225 2214 2164 2228 2255 2246 2190 2206 2188 2236 2181 2114 2184 2248 2237 2119 2090 2187 2205 2206 2177 2230 2155 2045 2076 2114 2176 2179 2204 2080 2138 2086 2127 2237 2175 2115 2022 2172 2160 2161 2079 2133 2122 2099 2121 2129 2117 2146 2124 2138 2012 2062 2006 2130 2124 1960 1932 2064 2055 2125 1980 2100 2050 2108 1999 2014 1991 1989 1946 2058 2038 1920 1998 2016 1891 1958 1943 2030 1996 2010 1975 1990 1992 1956 2072 1943 1952 1916 1875 1964 1937 2009 1901 1885 1851 1916 1945 1821 1932 1844 1812 1824 1786 1882 1910 1887 1913 1859 1744 1868 1864 1860 1826 1814 1804 1778 1839 1813 1729 1831 1855 1827 1824 1852 1863 1794 1798 1800 1729 1716 1771 1763 1789 1812 1752 1797 1744 1861 1770 1837 1805 1753 1787 1756 1703 1665 1650 1743 1716 1740 1769 1776 1690 1688 1658 1653 1745 1770 1687 1670 1747 1698 1668 1665 1690 1662 1750 1705 1697 1631 1606 1742 1725 1735 1609 1775 1653 1644 1670 1646 1732 1589 1701 1626 1691 1721 1723 1663 1660 1640 1527 1728 1619 1696 1639 1607 1744 1614 1655 1630 1663 1613 1608 1710 1592 1643 1609 1574 1666 1674 1705 1632 1635 1667 1649 1647 1614 1599 1673 1661 1531 1586 1588 1580 1583 1608 1567 1591 1659 1609 1629 1637 1628 1544 1657 1550 1598 1579 1562 1564 1588 1570 1576 1561 1569 1642 1552 1563 1601 1607 1558 1594 1586 1577 1545 1531 1530 1577 1589 1626 1551 1568 1673 1570 1640 1574 1540 1623 1545 1572 1630 1578 1604 1511 1538 1555 1661 1600 1601 1615 1571 1578 1522 1576 1619 1649 1480 1497 1637 1562 1560 1606 1656 1560 1525 1556 1583 1580 1563 1659 1553 1571 1629 1504 1638 1560 1553 1615 1615 1598 1680 1545 1609 1535 1569 1637 1541 1537 1584 1600 1569 1539 1506 1620 1573 1629 1596 1674 1674 1618 1624 1613 1531 1561 1563 1576 1516 1571 1663 1637 1576 1666 1533 1618 1556 1561 1631 1629 1641 1579 1573 1644 1579 1583 1572 1558 1568 1555 1578 1686 1583 1600 1591 1540 1605 1550 1557 1601 1587 1542 1611 1596 1535 1608 1542 1608 1581 1501 1556 1502 1597 1592 1631 1599 1520 1515 1520 1477 1576 1591 1629 1576 1614 1548 1523 1569 1579 1498 1462 1609 1534 1601 1506 1511 1562 1518 1516 1571 1496 1521 1563 1593 1497 1577 1532 1552 1568 1529 1535 1555 1480 1599 1528 1528 1481 1520 1549 1533 1481 1491 1448 1569 1471 1517 1439 1541 1512 1515 1484 1416 1438 1522 1480 1511 1439 1426 1469 1419 1509 1507 1484 1443 1451 1461 1361 1503 1444 1426 1474 1511 1320 1442 1367 1413 1474 1405 1421 1384 1448 1432 1375 1403 1365 1390 1351 1394 1385 1442 1297 1456 1345 1387 1381 1350 1335 1446 1258 1397 1296 1331 1332 1358 1342 1324 1351 1318 1329 1405 1321 1366 1363 1362 1314 1311 1324 1277 1362 1357 1375 1329 1317 1316 1336 1271 1275 1353 1287 1225 1297 1272 1287 1259 1324 1296 1298 1274 1305 1299 1280 1313 1242 1213 1251 1244 1236 1262 1204 1222 1285 1216 1274 1247 1232 1231 1245 1271 1251 1273 1243 1231 1313 1303 1333 1265 1339 1326 1298 1364 1436 1405 1426 1471 1438 1401 1561 1575 1621 1638 1650 1649 1723 1718 1702 1729 1771 1791 1719 1678 1642 1629 1575 1553 1515 1494 1481 1560 1593 1511 1463 1417 1450 1436 1458 1450 1401 1398 1509 1433 1480 1444 1484 1398 1445 1405 1385 1425 1387 1441 1347 1398 1329 1377 1314 1344 1279 1339 1327 1333 1251 1344 1357 1297 1296 1306 1289 1343 1313 1269 1285 1271 1220 1241 1227 1319 1265 1286 1262 1319 1252 1324 1265 1307 1280 1354 1336 1343 1362 1352 1404 1425 1452 1440 1402 1453 1410 1384 1537 1413 1506 1519 1512 1539 1565 1613 1711 1700 1746 1881 1987 2072 2186 2321 2380 2606 2927 3175 3467 3792 4240 4801 5452 6369 6891 7584 8586 9395 10321 10579 11243 11924 12087 12142 12185 12123 11841 11517 11469 10874 10446 9900 9581 8841 8436 7914 7668 7297 6887 6601 6277 6338 6107 6091 6366 6310 6449 6267 6428 6470 6688 6889 6911 6763 7090 7086 7083 6908 6866 6761 6640 6394 6092 6028 5752 5549 5264 4972 4833 4775 4694 4459 4413 4311 4055 4009 4000 3966 3843 3810 3838 3662 3687 3563 3491 3358 3187 3091 3091 2993 2948 2723 2649 2563 2464 2397 2329 2242 2148 2174 2115 1968 1895 1919 1875 1863 1819 1741 1740 1678 1593 1569 1492 1551 1486 1497 1432 1349 1366 1403 1294 1292 1250 1310 1314 1237 1208 1223 1212 1173 1147 1207 1159 1145 1169 1202 1216 1218 1148 1121 1130 1150 1161 1070 1098 1078 1121 1133 1147 1036 1126 1121 1105 1090 1107 1075 1060 1038 1045 998 1064 1028 1014 1072 936 993 991 1063 1024 999 994 947 993 1032 967 959 985 990 1003 959 1012 1062 980 971 1001 992 943 986 939 901 993 936 1023 973 940 918 929 934 942 950 904 972 955 958 935 895 933 908 980 962 926 948 970 945 900 939 912 886 930 881 932 905 922 919 919 904 899 860 935 929 974 894 934 912 893 938 916 955 900 890 889 932 926 882 842 922 889 949 842 894 937 925 878 860 833 907 902 896 879 890 838 870 929 895 869 897 859 882 882 894 875 889 849 898 865 914 895 901 872 883 883 835 876 890 864 957 884 860 823 819 899 841 865 823 818 873 859 856 868 819 811 819 848 932 852 857 810 868 869 869 844 794 797 818 887 848 896 854 868 842 889 806 809 817 905 791 889 815 856 864 876 828 833 857 868 862 872 812 912 847 832 904 828 890 803 927 867 860 807 817 843 857 846 861 840 895 889 909 878 867 874 880 847 906 842 933 837 905 850 889 859 849 922 879 874 866 865 867 845 892 915 889 921 909 936 880 895 882 952 911 876 872 915 892 885 945 928 920 992 994 1029 989 918 972 943 980 1005 1012 982 1078 973 1064 1039 1084 1064 1071 1072 1081 1060 1132 1144 1179 1201 1146 1198 1312 1252 1298 1279 1314 1382 1439 1508 1579 1749 1776 1894 2052 2221 2389 2534 2811 3044 3535 3843 4243 4933 5486 5920 6683 7330 8005 8800 9052 9908 10275 10484 10491 10634 10349 10230 10052 9910 9579 9336 8799 8569 7961 7451 6977 6648 6153 5761 5619 5314 4909 4685 4543 4467 4327 4259 4092 4086 4079 4055 4144 4141 4210 4269 4329 4560 4704 4841 4882 5124 5159 5282 5331 5434 5400 5561 5542 5314 5218 5139 5105 4965 4674 4612 4331 4158 3928 3876 3654 3572 3273 3131 2872 2782 2665 2634 2463 2354 2195 2143 1959 1984 1975 1830 1730 1735 1624 1579 1564 1548 1488 1460 1423 1350 1326 1273 1310 1252 1230 1175 1198 1142 1120 1123 1090 1082 1065 1025 993 1027 970 939 963 1010 906 988 923 921 926 887 924 868 827 849 871 899 835 866 886 814 896 794 806 840 842 837 816 816 801 820 884 805 811 790 844 784 774 778 798 840 815 765 821 736 752 786 847 769 775 774 734 785 756 827 807 787 752 748 698 815 743 789 787 852 769 780 695 712 745 762 723 743 751 765 728 753 747 679 743 738 745 801 745 709 728 701 754 736 729 768 721 709 775 760 739 716 661 732 710 735 790 773 711 772 685 714 758 709 713 734 692 738 669 719 698 697 695 739 685 720 717 722 728 708 722 720 699 651 753 701 689 735 679 744 748 760 732 695 703 713 693 724 715 729 678 705 678 696 739 737 669 704 729 731 690 653 671 715 681 670 714 694 700 670 669 673 678 700 645 739 691 692 671 669 693 695 658 714 736 716 667 656 659 699 667 698 680 689 704 648 681 662 642 685 693 658 684 668 702 671 651 715 687 675 639 686 643 653 651 665 637 663 616 618 661 625 660 703 664 640 653 610 672 701 646 645 671 605 648 623 673 608 670 615 656 651 626 681 622 677 630 632 686 662 635 673 619 660 619 632 643 640 683 684 652 661 636 665 688 621 641 640 623 666 585 617 642 628 603 648 655 607 619 661 576 601 626 590 687 627 671 646 617 622 619 651 626 599 623 604 652 609 620 611 641 578 606 587 598 602 595 610 640 626 585 597 585 640 607 654 609 602 629 593 629 634 582 563 597 583 612 572 580 556 596 568 635 618 596 650 577 585 546 581 543 584 580 598 591 580 614 608 601 624 601 599 532 618 603 624 610 543 582 608 609 559 595 630 551 596 607 566 532 559 585 573 597 597 601 599 559 572 551 582 639 637 615 571 575 536 540 561 557 644 597 577 540 608 561 604 602 555 538 582 588 627 568 575 608 583 599 526 599 578 549 580 573 544 573 570 562 598 555 627 585 605 606 590 594 561 563 569 595 604 551 541 617 565 589 588 572 583 564 548 555 541 568 605 572 588 573 538 525 585 519 552 563 575 591 625 598 553 587 572 606 559 568 592 509 576 536 594 608 601 579 572 544 565 548 558 596 570 551 576 578 508 555 510 556 544 549 588 594 553 607 531 584 554 558 562 533 564 541 557 520 544 567 552 573 553 539 563 544 532 520 577 560 557 512 551 546 566 584 516 560 524 551 561 540 554 581 545 556 568 506 571 537 559 542 534 539 544 565 577 584 613 541 556 500 558 572 573 577 500 567 586 549 543 551 552 548 543 562 578 602 571 541 524 538 545 524 571 545 510 501 490 540 550 553 550 560 515 539 555 532 539 549 574 554 520 552 530 511 520 544 561 545 596 580 532 549 534 533 554 554 516 492 520 582 537 505 527 534 549 542 518 539 541 499 526 559 534 527 502 537 538 540 530 550 544 556 546 524 509 530 542 526 556 530 547 548 506 551 564 538 560 522 573 507 534 524 504 515 500 523 586 572 539 515 514 555 546 543 505 547 512 530 531 523 504 540 533 563 521 508 481 517 521 522 505 561 550 543 540 526 504 527 521 536 555 491 516 526 561 511 540 495 530 564 502 558 504 550 505 546 526 511 490 563 567 519 563 500 512 559 515 534 522 565 556 517 511 491 501 541 546 518 503 560 522 477 488 549 521 524 543 516 517 480 516 508 555 504 522 550 488 546 512 532 532 592 549 514 530 527 526 504 498 573 540 550 521 504 549 508 482 502 530 531 494 483 521 476 528 525 539 521 521 493 504 480 555 559 520 532 492 474 513 509 539 525 537 496 509 510 554 528 534 506 462 513 456 513 489 513 512 463 526 549 523 530 493 497 525 479 467 496 456 512 488 537 552 543 516 521 532 538 538 521 541 583 524 534 505 524 506 537 538 599 570 537 557 514 510 505 468 507 517 500 498 533 505 533 560 543 519 516 520 531 508 495 522 565 502 532 504 565 544 547 530 557 550 535 535 555 547 595 500 613 582 605 547 619 580 602 601 663 708 693 726 769 835 780 909 897 931 1025 1085 1184 1160 1302 1276 1251 1349 1449 1316 1364 1354 1365 1281 1278 1302 1177 1121 1159 1140 1016 1029 999 990 956 978 865 834 783 827 758 763 756 726 680 685 618 674 635 666 636 659 607 588 639 562 615 586 554 574 568 582 591 557 559 596 548 570 524 585 593 559 561 629 605 568 578 582 614 625 630 594 629 664 616 648 667 663 632 604 628 688 662 674 684 642 640 665 702 626 652 602 656 565 610 601 607 606 571 567 585 557 609 531 548 530 607 501 542 537 539 460 500 517 497 512 506 497 458 473 494 494 507 509 488 494 539 540 470 492 470 461 508 503 458 471 504 473 475 494 412 449 471 480 475 514 455 486 484 489 449 474 489 497 507 489 495 457 463 481 491 470 428 479 476 483 514 489 491 486 490 455 500 443 502 468 464 467 495 508 494 489 459 525 478 475 429 436 500 465 452 466 465 535 469 472 479 457 472 488 500 486 453 477 509 509 497 485 487 445 514 466 465 450 471 531 452 507 433 522 499 475 485 495 446 499 478 468 471 485 497 488 496 480 524 504 499 518 507 542 498 513 507 524 523 460 482 501 451 465 495 484 505 493 499 488 494 465 529 505 484 504 492 489 527 477 496 513 499 507 494 512 483 479 506 476 545 531 468 516 484 504 489 514 525 514 504 473 488 483 518 480 496 536 457 512 516 534 527 508 497 507 476 531 539 491 514 504 478 515 494 556 472 531 519 520 502 503 502 491 540 547 499 491 566 519 522 548 563 512 584 547 575 478 538 526 575 515 530 563 571 558 551 524 555 588 544 633 535 670 573 598 596 609 609 580 629 650 616 657 654 629 671 650 696 727 752 726 734 767 796 762 767 792 837 875 942 974 1017 1077 1157 1235 1282 1373 1568 1762 1832 2142 2487 2755 3160 3478 3940 4227 4792 5028 5286 5435 5437 5504 5564 5541 5480 5512 5452 5484 5219 5146 4795 4682 4618 4387 4223 3854 3772 3532 3300 3112 2964 2832 2599 2410 2214 2242 2053 1978 1796 1880 1768 1755 1553 1524 1526 1533 1531 1440 1408 1425 1373 1375 1351 1353 1401 1360 1523 1534 1600 1702 1832 1849 1970 1990 2081 2189 2177 2293 2239 2360 2319 2334 2340 2329 2361 2284 2364 2312 2297 2224 2190 2203 2129 2111 2047 2055 1965 2043 1956 1991 1859 1880 1914 1789 1765 1755 1794 1696 1670 1611 1625 1562 1557 1484 1457 1453 1423 1426 1316 1277 1248 1237 1229 1247 1200 1219 1102 1055 1101 1050 1058 1024 998 962 967 930 970 916 873 896 882 778 866 862 788 794 778 719 757 709 796 757 702 778 720 653 689 652 624 679 622 670 680 647 591 612 659 584 620 618 585 550 577 579 553 567 533 581 542 543 514 523 521 574 569 527 517 526 502 547 571 540 505 527 536 565 527 498 487 547 493 465 497 449 531 495 563 503 526 533 447 525 526 514 517 485 486 502 448 448 497 482 490 522 438 483 523 525 523 546 520 529 530 576 609 603 656 649 689 732 717 801 744 741 724 778 814 734 724 751 746 758 690 707 712 660 668 701 702 692 679 668 663 593 621 572 607 552 548 568 528 570 514 520 500 548 525 560 494 520 518 504 485 534 511 489 473 510 463 472 505 479 517 510 491 537 483 483 526 511 469 520 568 494 523 529 526 584 512 555 518 584 533 526 534 529 546 494 495 501 473 522 501 456 496 485 457 478 523 493 447 482 459 439 440 428 478 485 423 439 458 443 453 389 426 432 416 459 431 421 457 445 427 416 425 424 434 438 465 445 418 439 423 397 418 402 430 450 446 435 440 404 409 421 442 441 440 378 398 401 430 389 380 399 454 394 426 428 429 408 413 418 420 427 429 407 382 424 433 430 434 388 406 421 447 454 433 385 399 432 388 411 434 429 403 414 399 374 399 406 441 423 391 399 406 429 407 410 433 385 419 421 423 398 371 398 402 405 425 400 421 408 406 401 392 423 417 418 366 397 400 436 388 395 417 388 447 419 400 398 401 366 395 420 428 373 449 415 393 384 390 370 391 396 379 380 389 395 395 400 410 419 413 417 398 411 378 351 382 400 408 392 379 414 390 369 369 408 413 403 404 384 383 378 422 420 427 417 397 417 383 402 366 409 413 397 380 387 352 409 381 388 374 424 401 417 361 393 421 419 391 355 419 366 396 374 370 398 397 397 366 400 384 412 439 409 415 397 367 380 379 387 417 383 381 385 387 403 377 372 422 357 365 376 373 408 384 378 368 405 381 354 381 393 387 368 330 411 380 426 310 371 380 387 351 408 350 393 389 388 412 343 371 376 367 422 373 377 360 390 387 417 387 385 379 421 430 399 399 369 397 367 356 412 396 378 375 380 365 386 367 359 398 382 417 401 345 385 368 372 335 386 384 409 369 385 425 347 335 356 406 358 351 376 367 373 379 353 408 362 388 392 402 351 391 372 406 394 391 331 371 387 369 372 372 384 382 384 354 411 355 377 383 394 380 408 399 375 379 344 407 406 373 407 391 377 365 344 403 365 377 390 404 374 386 390 392 364 407 396 401 414 409 391 410 345 396 411 394 369 403 380 378 378 363 386 396 366 398 361 401 380 392 391 400 329 383 387 407 374 394 368 422 373 372 364 391 378 360 379 369 375 357 384 398 370 365 378 377 394 350 378 432 387 409 421 384 407 372 389 395 374 349 410 338 405 383 377 394 408 379 406 356 386 367 366 376 369 375 401 376 396 389 419 412 402 374 402 385 379 383 376 400 375 386 429 414 432 401 417 412 458 403 457 471 428 443 436 449 478 442 452 417 445 443 458 438 435 455 447 440 448 447 444 449 430 429 488 443 449 485 452 467 443 500 484 464 461 437 477 478 484 485 494 490 498 472 529 459 518 557 558 551 556 616 607 634 672 737 708 736 857 941 1011 1103 1241 1304 1529 1669 1709 1866 1868 1963 1868 1874 1945 1976 2082 2030 1962 1934 1906 1931 1979 1854 1870 1772 1927 1676 1727 1591 1577 1512 1521 1401 1296 1313 1176 1146 1108 1085 1046 1009 934 925 859 799 825 815 730 725 724 731 694 651 663 672 662 661 661 593 618 636 651 646 680 626 687 686 724 689 669 726 777 756 832 836 833 892 903 993 964 983 1010 1107 1130 1118 1130 1162 1091 1156 1117 1195 1249 1170 1240 1107 1198 1090 1136 1092 1076 1079 1048 1069 993 983 987 914 995 908 871 821 820 813 821 803 792 835 763 776 739 723 735 687 685 690 676 726 681 699 692 652 694 688 653 681 680 648 666 636 664 633 662 638 617 639 641 655 598 629 584 589 612 573 603 589 595 553 562 548 585 560 567 520 515 504 507 514 506 509 544 498 493 443 451 506 459 468 448 479 443 426 449 468 429 446 466 440 452 409 458 467 415 450 424 431 417 424 409 406 396 436 430 456 400 422 406 446 435 376 392 442 371 412 426 394 398 411 406 382 401 428 398 420 427 443 370 418 397 398 383 412 411 395 423 417 425 437 428 425 389 455 427 404 404 440 434 461 454 434 498 438 442 447 464 457 508 478 482 484 539 568 551 626 622 685 707 857 873 941 954 1148 1122 1277 1377 1489 1631 1591 1624 1741 1762 1661 1831 1706 1670 1703 1707 1705 1746 1600 1581 1613 1547 1445 1543 1475 1446 1396 1316 1315 1352 1294 1213 1113 1057 1050 940 886 883 803 818 742 724 706 702 746 658 652 645 567 641 584 596 550 538 567 529 540 520 533 468 499 491 465 507 493 559 532 537 528 557 552 525 547 587 608 644 614 631 668 712 750 806 801 808 840 752 854 812 867 870 883 876 866 814 796 843 833 838 755 772 742 733 722 779 775 755 686 693 699 673 661 635 636 614 613 621 540 559 576 519 530 526 586 516 501 528 517 560 589 570 572 596 588 542 570 603 552 608 524 583 577 560 561 587 516 555 540 518 484 574 530 527 516 495 487 498 488 473 408 448 454 454 450 473 384 443 429 418 460 394 412 439 416 414 389 378 366 406 405 402 407 364 381 393 425 438 394 401 429 416 441 411 450 466 482 511 544 519 565 513 613 611 581 633 601 590 601 664 609 586 550 554 541 605 544 553 565 558 602 573 469 512 479 508 503 482 490 468 441 438 416 420 433 406 400 434 399 422 375 413 355 352 370 363 314 376 342 357 361 356 355 341 314 379 303 385 343 340 347 308 350 328 347 305 328 359 331 338 335 348 369 382 356 351 339 325 353 344 337 368 349 332 324 366 350 355 350 351 353 335 323 309 338 322 338 325 359 324 348 338 360 379 324 303 332 349 361 347 374 303 337 325 351 357 373 378 359 378 379 376 392 374 425 382 394 404 404 385 405 398 389 345 329 366 370 370 377 386 398 371 413 361 338 395 361 358 384 365 355 360 325 330 367 364 315 347 346 371 330 360 328 339 316 305 308 362 278 346 350 333 299 300 289 341 317 337 324 305 337 315 342 326 342 326 294 343 288 347 319 332 316 297 296 309 292 289 296 277 293 299 294 322 310 306 307 313 297 307 343 303 311 315 301 304 325 304 300 294 285 292 322 316 287 286 328 317 259 326 317 256 298 286 316 288 292 302 290 297 278 292 276 292 291 294 302 322 311 303 296 327 259 306 322 305 299 325 294 308 275 287 312 302 314 303 311 290 326 294 268 335 284 326 309 329 272 303 284 300 308 308 297 273 317 287 292 302 313 302 264 288 303 292 293 286 280 308 305 273 299 238 289 275 296 300 287 289 293 280 284 272 297 266 311 296 312 300 297 303 302 292 287 291 274 292 283 296 309 305 302 305 307 319 308 296 282 308 287 305 303 265 297 293 277 301 323 294 321 341 310 298 296 250 283 310 293 321 325 314 277 279 298 259 302 268 290 282 312 280 281 301 291 303 286 283 313 290 305 284 271 246 281 293 325 310 262 293 281 280 290 270 263 257 303 283 313 270 269 304 307 327 297 311 284 312 269 286 288 303 278 288 304 287 317 288 282 284 287 337 304 293 294 312 268 266 276 289 256 274 269 277 285 263 279 274 272 269 288 292 272 271 243 272 264 291 281 296 293 247 257 302 285 272 290 299 267 280 277 273 294 283 289 305 306 263 287 282 265 278 273 306 283 278 318 304 321 294 297 244 313 310 277 337 288 318 284 296 328 315 311 298 318 311 332 331 321 372 350 380 366 388 399 405 398 439 386 410 422 394 395 466 439 412 463 422 392 433 400 401 369 404 424 416 388 347 375 383 376 371 369 406 399 360 364 335 399 348 335 353 313 325 309 296 290 316 290 288 284 301 277 307 312 292 298 286 297 329 273 314 303 279 314 309 298 270 293 320 267 278 302 265 290 256 282 274 262 289 247 292 285 277 307 284 284 271 293 288 282 278 293 285 288 275 266 235 285 284 286 283 278 299 297 294 281 297 293 299 307 314 264 320 287 278 285 266 285 308 299 287 296 310 282 291 284 294 279 301 311 288 303 287 282 289 298 272 249 291 314 277 260 291 276 274 289 287 237 251 269 308 293 269 280 276 281 269 285 303 228 287 289 289 277 279 278 285 290 290 260 300 300 291 284 278 275 276 270 300 280 247 274 259 274 270 318 244 274 295 292 246 288 258 250 296 273 273 297 275 244 273 286 245 247 247 274 248 270 285 245 289 280 241 242 287 248 267 256 263 295 245 262 280 278 243 246 257 272 296 295 269 262 234 287 264 258 256 272 291 284 300 285 277 279 278 242 293 277 267 279 243 241 258 289 297 273 317 295 307 313 314 260 280 267 305 267 291 295 314 276 298 299 238 273 307 269 294 300 337 307 308 327 321 295 359 360 293 332 328 341 346 300 379 344 356 383 408 384 410 392 437 492 422 476 513 500 559 560 604 577 601 610 686 664 707 764 699 725 725 687 699 704 660 675 607 691 653 630 594 593 593 585 602 537 576 622 547 576 557 515 544 522 490 476 451 458 438 460 437 418 415 413 379 365 392 348 335 370 313 354 332 306 319 364 344 311 310 297 319 361 316 385 297 344 304 331 328 338 337 305 319 341 328 349 358 370 330 374 308 351 340 333 342 343 375 377 356 370 367 370 377 379 369 358 364 444 420 395 385 401 404 399 438 409 387 443 418 402 433 440 375 440 439 452 470 427 431 403 423 432 411 412 450 411 441 419 407 387 400 420 398 398 375 430 360 350 357 348 320 364 334 343 361 335 327 350 323 322 300 325 326 325 336 320 305 328 324 348 313 317 325 321 330 321 305 324 296 306 345 300 310 330 341 325 330 347 350 291 340 349 324 349 361 346 362 349 340 375 355 357 309 313 364 328 381 375 348 348 327 329 287 330 325 303 283 332 317 333 301 344 283 346 292 316 300 312 287 320 292 326 319 306 273 281 295 260 298 291 292 270 319 305 280 325 278 292 282 249 294 264 283 302 290 230 264 284 264 313 289 271 273 257 305 256 286 238 239 257 280 272 292 285 273 276 279 264 297 278 266 262 280 276 243 273 284 256 231 273 275 294 232 278 249 273 236 266 234 234 263 261 261 291 246 275 282 243 222 273 267 275 251 298 291 247 304 257 274 263 277 236 265 285 236 245 272 239 265 246 269 256 242 259 270 287 239 268 247 279 263 245 292 245 260 247 267 275 292 318 280 284 278 256 271 273 260 293 268 237 290 240 282 258 235 267 272 223 248 280 267 273 272 242 270 242 264 245 241 261 268 267 242 264 269 241 239 226 256 246 257 280 242 287 265 257 246 283 247 248 239 279 250 305 241 246 240 256 276 264 285 250 221 260 249 239 233 308 249 260 244 306 236 274 237 235 237 237 227 238 259 277 286 286 234 237 248 245 256 257 258 225 257 242 268 219 257 242 249 272 273 284 246 281 265 271 272 250 273 234 260 267 286 261 279 233 277 232 268 256 305 273 249 250 245 271 228 261 268 272 262 256 287 249 295 273 242 271 249 226 246 278 256 279 294 248 292 240 268 286 273 234 239 265 264 291 243 274 256 278 261 256 273 272 239 274 267 250 245 284 257 323 278 293 281 248 257 271 264 228 271 261 239 280 250 259 267 268 239 258 274 271 291 297 265 283 217 269 279 284 266 269 284 261 257 306 268 198 249 248 260 227 281 259 247 265 265 247 262 251 269 283 270 245 249 316 263 257 266 270 266 290 260 270 240 277 231 295 245 240 276 297 276 284 270 245 284 241 270 273 268 260 267 282 236 278 289 273 266 290 245 306 248 300 303 277 277 263 247 283 244 298 268 261 247 258 291 283 247 242 257 266 303 293 296 250 279 274 266 276 306 294 249 266 284 247 303 294 285 280 256 313 307 296 262 293 292 314 298 315 326 334 316 333 341 378 343 352 354 379 359 379 383 385 376 393 398 348 382 372 373 361 359 388 364 361 352 358 387 344 347 343 369 355 352 331 401 386 359 393 333 359 368 362 357 345 356 375 346 385 387 414 370 432 430 461 425 515 485 537 517 555 570 641 658 716 667 689 654 650 691 713 638 691 692 667 675 675 620 625 609 611 649 612 633 626 598 596 640 602 588 539 579 532 573 567 538 523 528 479 438 480 445 451 377 428 447 401 429 390 397 403 372 351 355 364 371 322 334 305 336 326 329 313 345 310 324 308 325 333 326 306 312 353 307 358 336 322 330 281 339 363 323 349 349 324 298 345 318 322 350 331 362 381 328 324 377 368 382 372 316 389 400 381 397 411 424 415 377 456 401 459 461 457 485 480 504 515 514 510 525 527 516 526 487 473 546 505 515 467 545 565 473 508 504 448 566 497 478 498 466 505 466 463 511 479 495 474 480 453 481 501 408 460 470 430 399 407 429 417 398 347 366 440 426 376 367 387 391 355 394 418 416 401 368 412 406 388 369 378 388 353 376 379 370 374 377 377 397 369 414 409 418 441 404 410 415 404 411 385 389 429 420 383 358 417 435 399 406 425 430 416 439 481 416 455 415 465 499 525 536 521 553 551 592 598 642 640 707 689 764 871 861 879 954 996 1045 1109 1107 1056 1176 1113 1150 1179 1140 1144 1158 1190 1140 1089 1140 1091 1047 1133 1072 1049 1040 1005 957 988 940 1015 988 1012 982 893 891 862 855 790 816 825 779 705 710 681 703 627 604 614 583 529 569 526 553 536 485 488 479 442 502 419 435 438 409 433 418 392 382 399 376 419 381 403 414 373 353 388 397 366 345 356 385 367 379 362 427 358 367 371 365 341 347 382 381 408 402 366 402 384 438 358 442 407 445 480 446 467 452 449 493 504 471 525 586 510 529 524 595 595 612 623 639 598 641 592 642 654 654 636 632 612 648 608 615 629 613 608 654 565 641 614 623 639 611 589 595 644 592 570 539 569 559 545 555 540 570 574 594 600 526 504 562 512 583 514 532 542 483 481 486 536 480 517 490 509 455 448 486 480 495 503 444 491 492 467 463 487 450 462 438 415 432 450 433 424 465 434 438 455 460 437 397 397 399 415 402 407 408 356 394 367 443 364 397 354 371 348 372 333 357 332 339 340 345 341 296 345 325 364 341 292 305 325 324 358 329 334 324 352 332 300 340 314 330 312 349 307 310 302 293 284 297 314 314 335 289 286 301 300 274 263 273 278 271 277 277 286 288 292 284 321 281 294 292 293 287 290 284 300 313 299 284 263 287 263 271 308 280 282 275 296 264 282 322 309 257 280 299 256 244 280 263 267 294 297 256 276 286 268 281 297 269 280 260 273 267 286 294 279 279 304 283 287 303 311 260 307 247 264 221 265 288 294 282 260 304 322 284 264 274 285 300 287 267 248 291 301 291 273 319 265 300 264 270 261 279 277 303 296 267 282 268 269 280 276 276 266 258 289 293 280 288 297 244 264 291 258 289 233 264 249 247 275 270 284 237 273 234 263 257 270 258 285 231 214 231 225 237 279 238 301 268 256 239 263 243 266 258 261 287 264 257 266 241 260 258 241 248 261 271 264 234 240 280 236 232 272 267 256 263 243 271 271 204 257 290 290 244 247 284 262 290 243 284 245 260 226 299 282 279 244 208 236 226 257 241 237 241 250 256 244 250 284 226 234 237 275 243 273 264 248 246 279 228 259 225 256 264 239 262 275 248 279 280 287 278 263 274 242 260 259 260 226 265 219 243 225 261 244 259 265 282 234 289 275 282 260 284 247 272 294 225 267 265 305 269 256 246 264 242 241 292 272 271 247 280 256 294 275 272 271 243 239 270 221 288 248 287 274 258 249 250 283 262 277 223 291 244 293 275 247 284 271 250 260 244 238 258 275 234 243 258 260 278 236 284 264 234 257 236 241 249 262 257 256 261 270 248 277 246 274 243 237 276 237 262 282 267 285 242 270 283 225 284 273 243 286 282 276 291 282 264 261 279 268 269 263 280 272 270 244 288 285 245 282 250 318 260 289 292 264 270 288 275 294 276 313 275 280 279 246 290 301 283 285 307 323 327 304 340 319 336 351 334 316 361 297 306 334 332 325 306 359 320 351 329 338 323 306 274 298 300 312 329 290 331 285 286 287 279 282 264 340 314 324 316 300 286 307 310 293 286 288 302 338 319 265 287 309 274 294 284 296 271 264 285 275 278 244 301 278 267 233 244 284 267 278 272 284 204 280 234 267 247 250 271 242 293 277 261 270 224 192 271 267 273 278 264 269 251 276 245 256 276 243 259 280 257 274 243 265 260 279 231 228 241 224 249 290 303 248 277 272 243 311 272 268 294 241 275 265 236 270 293 269 243 248 278 264 265 285 286 279 241 276 259 270 287 273 256 273 285 302 266 244 264 248 246 268 265 245 257 269 248 262 270 293 239 302 293 290 247 268 258 291 264 257 270 223 276 289 260 275 267 264 242 293 268 295 273 294 239 273 289 281 238 247 270 282 264 245 275 226 248 266 248 259 260 278 262 268 257 257 264 249 242 272 209 245 258 286 271 276 241 279 256 267 259 232 274 240 243 248 226 283 233 279 264 245 264 270 259 291 284 266 283 257 269 260 299 296 244 271 301 302 292 297 300 302 295 306 303 299 301 330 324 324 298 338 292 327 299 312 355 379 328 384 341 372 323 382 384 395 429 477 466 445 450 464 528 532 557 587 638 693 718 722 799 764 808 787 842 903 883 885 883 901 873 849 852 897 855 831 907 801 798 817 823 760 843 805 752 791 731 696 749 700 727 744 780 690 702 679 697 650 705 652 643 690 573 615 568 533 588 544 546 515 499 518 461 434 441 459 462 452 451 375 407 374 366 334 370 353 338 368 313 312 332 333 361 305 315 343 307 331 325 342 319 284 315 348 328 300 336 302 309 318 284 276 284 308 353 336 337 294 335 308 297 302 345 323 323 313 336 338 342 319 335 326 341 299 338 278 339 341 343 374 374 341 409 368 351 341 395 416 377 386 424 387 412 403 451 450 450 477 429 487 451 445 503 486 486 502 526 509 527 495 537 479 462 503 521 551 547 463 495 500 490 503 464 471 464 483 515 509 515 475 477 494 437 495 454 481 442 477 432 520 495 482 479 491 436 450 453 419 432 392 398 440 417 403 390 449 402 410 377 408 413 381 358 384 384 353 385 370 398 369 381 405 370 331 412 356 403 370 409 378 348 367 368 405 393 375 403 384 368 358 346 350 334 364 311 345 336 359 343 352 392 344 363 386 344 321 348 321 349 314 338 338 360 340 335 333 283 285 314 295 297 307 319 290 350 324 278 304 336 317 307 330 283 243 295 249 338 297 293 275 301 302 261 309 306 305 284 267 299 284 293 315 271 279 258 299 291 314 286 259 261 246 280 286 315 292 290 276 280 281 295 287 295 270 284 238 303 281 276 306 289 325 277 274 261 311 250 287 262 247 275 257 279 270 268 280 249 264 275 269 293 250 266 264 261 270 256 301 238 269 305 257 259 260 290 271 238 267 280 247 256 279 236 241 260 241 265 266 246 262 247 291 236 256 272 260 234 298 271 230 261 256 260 281 266 271 247 230 245 265 247 266 249 248 237 269 256 268 246 267 269 258 245 257 263 274 275 246 282 276 247 269 260 273 248 283 280 247 210 268 273 257 272 228 293 224 235 243 258 220 229 251 216 272 229 262 267 228 263 264 272 232 234 257 261 257 237 233 291 234 269 268 239 231 307 248 282 233 250 236 288 238 235 267 245 262 245 259 258 241 246 219 276 249 234 259 262 241 236 230 231 279 240 263 231 275 243 229 261 238 238 256 272 243 224 245 265 246 246 265 245 278 278 249 280 239 263 233 250 225 238 219 236 230 283 257 232 243 234 270 230 261 216 283 233 247 238 248 261 259 248 256 259 284 263 250 256 281 225 266 247 270 250 289 234 240 267 237 226 224 232 243 229 250 228 265 232 292 265 259 286 233 242 239 245 278 268 241 242 238 277 271 258 257 264 261 269 268 211 256 257 249 267 259 261 256 260 247 275 247 272 233 277 240 258 273 232 258 258 266 276 287 249 249 286 274 268 280 284 300 266 278 283 261 291 276 300 275 268 288 335 292 304 279 295 302 342 329 391 309 339 343 360 318 340 387 376 432 375 390 428 457 402 422 412 435 439 395 440 403 455 401 421 388 411 421 408 410 423 419 406 427 373 365 379 418</counts>
			</dataPoints>
		</scan>
	</xrdMeasurement>
</xrdMeasurements>
