<?xml version="1.0"?>
<xrdMeasurements xmlns="http://www.xrdml.com/XRDMeasurement/2.3" xmlns:xsi="http://www.w3.org/2001/XMLSchema-instance" xsi:schemaLocation="http://www.xrdml.com/XRDMeasurement/2.3 http://www.xrdml.com/XRDMeasurement/2.3/XRDMeasurement.xsd" status="Completed" recordIdentifier="{22EF661C-8110-4E9D-9F32-287BA330A2B3}">
	<comment>
		<entry/>
	</comment>
	<sample type="To be analyzed">
		<id>GPSS_Li1p6Co0p8Zr0p2Cl4_100825_68e6fdc007cf888582f941ae</id>
		<name></name>
		<preparedBy></preparedBy>
	</sample>
	<xrdMeasurement measurementType="Scan" status="Completed" sampleMode="Reflection">
		<usedWavelength intended="K-Alpha 1">
			<kAlpha1 unit="Angstrom">1.5405980</kAlpha1>
			<kAlpha2 unit="Angstrom">1.5444260</kAlpha2>
			<kBeta unit="Angstrom">1.3922500</kBeta>
			<ratioKAlpha2KAlpha1>0.5000</ratioKAlpha2KAlpha1>
		</usedWavelength>
		<incidentBeamPath>
			<radius unit="mm">145.00</radius>
			<xRayTube id="1010048" name="Empyrean Cu LFF HR (9430 033 7310x)">
				<tension unit="kV">40.0</tension>
				<current unit="mA">15.0</current>
				<anodeMaterial>Cu</anodeMaterial>
				<focus type="Line">
					<length unit="mm">12.0</length>
					<width unit="mm">0.4</width>
					<takeOffAngle unit="deg">6.0</takeOffAngle>
				</focus>
			</xRayTube>
			<sollerSlit id="21010002" name="Soller slits 0.04 rad.">
				<opening unit="rad">0.0400</opening>
			</sollerSlit>
			<mask id="22031000" name="Fixed mask 13 mm">
				<width unit="mm">9.00</width>
			</mask>
			<divergenceSlit id="22120001" name="Divergence slit 1°" xsi:type="fixedDivergenceSlitType">
				<distanceToSample unit="mm">50.00</distanceToSample>
				<height unit="mm">1.52</height>
			</divergenceSlit>
		</incidentBeamPath>
		<sampleMovement xsi:type="spinningSampleMovementType">
			<spinnerRevolutionTime unit="seconds">1.0</spinnerRevolutionTime>
		</sampleMovement>
		<diffractedBeamPath>
			<radius unit="mm">145.00</radius>
			<antiScatterSlit id="22090040" name="AS slit 9 mm (PIXcel)" xsi:type="fixedAntiScatterSlitType">
				<height unit="mm">9.00</height>
			</antiScatterSlit>
			<sollerSlit id="21020003" name="Large Soller slits 0.04 rad.">
				<opening unit="rad">0.0400</opening>
			</sollerSlit>
			<filter id="20030001" name="Large beta-filter Nickel">
				<material>Ni</material>
				<thickness unit="mm">0.020</thickness>
			</filter>
			<detector id="7010019" name="PIXcel1D-Medipix3 detector" xsi:type="rtmsDetectorType">
				<phd unit="keV">
					<lowerLevel>4.02</lowerLevel>
					<upperLevel>11.27</upperLevel>
				</phd>
				<mode>Scanning</mode>
				<activeLength unit="deg">5.542</activeLength>
			</detector>
		</diffractedBeamPath>
		<scan appendNumber="0" mode="Continuous" scanAxis="Gonio" status="Completed">
			<header>
				<startTimeStamp>2025-10-17T12:47:46-07:00</startTimeStamp>
				<endTimeStamp>2025-10-17T12:55:53-07:00</endTimeStamp>
				<author>
					<name>AutomatedUser</name>
				</author>
				<source>
					<applicationSoftware version="1.7b (136)">PANalytical Aeris Instrument Suite</applicationSoftware>
					<instrumentControlSoftware version="3.2.00000000 20240306">AERIS</instrumentControlSoftware>
					<instrumentID>950485</instrumentID>
				</source>
			</header>
			<dataPoints>
				<positions axis="2Theta" unit="deg">
					<startPosition>10.00943322</startPosition>
					<endPosition>99.99442286</endPosition>
				</positions>
				<positions axis="Omega" unit="deg">
					<startPosition>5.00471661</startPosition>
					<endPosition>49.99721143</endPosition>
				</positions>
				<commonCountingTime unit="seconds">12.495</commonCountingTime>
				<counts unit="counts">3340 3328 3495 3257 3373 3403 3308 3346 3371 3423 3405 3327 3478 3375 3393 3321 3363 3423 3455 3393 3373 3494 3432 3433 3414 3564 3381 3428 3363 3451 3391 3529 3474 3547 3478 3513 3576 3434 3445 3500 3482 3506 3510 3582 3556 3559 3446 3566 3459 3574 3518 3568 3495 3547 3561 3455 3613 3568 3554 3462 3437 3630 3514 3550 3531 3589 3529 3590 3524 3597 3554 3506 3461 3641 3606 3533 3580 3658 3593 3701 3678 3590 3672 3679 3748 3712 3610 3664 3671 3652 3735 3692 3591 3742 3661 3586 3727 3715 3705 3653 3650 3582 3668 3686 3782 3762 3719 3712 3671 3768 3581 3772 3644 3646 3788 3752 3790 3771 3744 3603 3747 3783 3874 3746 3797 3770 3772 3812 3751 3813 3838 3800 3731 3809 3813 3800 3798 3819 3864 3821 3897 3828 3741 3747 3781 3914 3947 3801 3838 3772 3842 3729 3791 3876 3779 3860 3807 3744 3760 3807 3882 3776 3807 3969 3762 3924 3824 3807 3730 3903 3764 3848 4008 3906 3776 3900 3906 3814 3833 3825 3908 3844 3944 3791 3795 3854 3955 3801 3756 3789 3810 3682 3672 3735 3872 3844 3817 3748 3813 3921 3810 3779 3847 3852 3742 3821 3770 3819 3696 3746 3815 3661 3729 3795 3751 3756 3853 3639 3690 3793 3685 3729 3700 3722 3722 3911 3746 3772 3793 3715 3772 3757 3740 3737 3795 3692 3638 3659 3740 3772 3756 3647 3736 3625 3747 3629 3705 3752 3714 3652 3624 3621 3703 3673 3774 3722 3736 3670 3711 3647 3652 3656 3729 3684 3588 3632 3543 3685 3756 3732 3694 3609 3715 3573 3705 3640 3654 3605 3624 3636 3714 3731 3727 3564 3580 3679 3727 3732 3661 3631 3665 3675 3673 3649 3755 3661 3680 3672 3715 3585 3559 3657 3664 3677 3556 3694 3623 3701 3672 3707 3599 3632 3669 3654 3791 3732 3735 3655 3644 3598 3773 3633 3595 3716 3613 3575 3696 3653 3756 3711 3716 3692 3687 3719 3802 3785 3789 3818 3719 3816 3842 3807 3832 3833 3817 3731 3840 3780 3894 3730 3800 3789 3828 3936 3834 3795 3850 3892 3944 3824 3854 3889 3832 3985 3965 3779 3841 3868 3729 3971 3955 3926 4101 3907 3808 3993 3939 3945 3946 3797 3855 3965 3943 3923 3925 3857 3878 4042 3780 4048 3934 3974 3929 3955 4023 3972 4052 4119 3905 3993 4049 3927 4002 3936 4067 4084 4024 3979 3873 4040 4090 4013 3988 4106 3911 4125 3884 4112 4126 4054 4013 4057 4016 4089 3901 3958 4043 4009 3971 3996 4059 4059 4044 4117 4056 4103 4101 4172 4176 4220 4200 4282 4377 4240 4357 4223 4288 4242 4259 4135 4179 4193 4230 4123 4086 4157 4177 4191 4157 4228 4272 4240 4255 4194 4311 4363 4349 4218 4286 4350 4320 4349 4366 4512 4313 4283 4415 4336 4314 4513 4314 4377 4574 4515 4430 4512 4596 4610 4526 4480 4381 4579 4494 4405 4413 4314 4346 4290 4282 4249 4151 4178 4118 4103 4020 4168 4125 4045 3994 4064 4164 4098 4071 4042 4100 4188 4117 4148 3995 4065 4119 3867 4016 3973 3854 3900 3915 3925 3797 3868 3883 3827 3812 3758 3701 3798 3730 3653 3747 3775 3646 3651 3615 3742 3589 3618 3611 3728 3712 3572 3641 3643 3598 3760 3619 3715 3605 3491 3624 3699 3633 3672 3675 3659 3674 3624 3683 3633 3518 3640 3565 3505 3570 3563 3631 3567 3578 3575 3485 3526 3592 3527 3550 3425 3610 3491 3445 3516 3546 3432 3498 3522 3611 3309 3617 3473 3422 3521 3449 3566 3495 3502 3494 3481 3410 3461 3475 3570 3436 3453 3432 3506 3402 3538 3415 3434 3481 3469 3474 3486 3517 3461 3391 3383 3581 3484 3432 3457 3472 3472 3509 3428 3446 3355 3450 3451 3496 3445 3542 3324 3455 3444 3457 3501 3493 3352 3462 3488 3486 3467 3569 3451 3645 3391 3483 3483 3514 3450 3575 3552 3516 3398 3503 3517 3457 3444 3494 3480 3412 3520 3420 3501 3423 3573 3423 3428 3326 3597 3504 3401 3541 3457 3501 3499 3452 3511 3426 3511 3363 3449 3462 3556 3498 3438 3429 3504 3524 3545 3598 3376 3535 3421 3397 3476 3558 3486 3486 3358 3529 3464 3561 3494 3431 3334 3414 3296 3379 3303 3507 3469 3405 3288 3283 3408 3402 3352 3342 3359 3406 3240 3318 3392 3289 3362 3383 3290 3270 3349 3437 3370 3400 3296 3340 3380 3365 3308 3261 3376 3371 3408 3237 3384 3331 3309 3402 3340 3396 3412 3277 3406 3388 3309 3328 3280 3318 3333 3313 3377 3368 3319 3324 3444 3210 3346 3349 3318 3252 3389 3240 3292 3316 3305 3425 3223 3369 3286 3271 3241 3454 3294 3332 3289 3358 3285 3239 3397 3276 3338 3334 3147 3287 3331 3284 3302 3330 3374 3257 3244 3230 3317 3260 3327 3330 3337 3373 3186 3365 3395 3308 3399 3332 3307 3353 3292 3245 3340 3240 3454 3321 3329 3287 3247 3311 3325 3243 3326 3248 3271 3254 3273 3383 3322 3348 3320 3202 3252 3211 3196 3145 3231 3211 3207 3158 3301 3164 3228 3341 3294 3253 3135 3373 3286 3168 3306 3229 3255 3272 3227 3161 3202 3078 3291 3192 3306 3235 3174 3165 3139 3206 3180 3205 3256 3197 3215 3253 3205 3229 3304 3206 3216 3194 3246 3149 3187 3204 3276 3219 3210 3267 3246 3229 3260 3146 3241 3262 3184 3217 3234 3207 3236 3110 3062 3159 3221 3248 3164 3094 3179 3156 3167 3144 3145 3273 3287 3146 3167 3081 3070 3148 3195 3274 3087 3182 3212 3179 3197 3273 3158 3227 3185 3204 3147 3084 3234 3184 3239 3222 3182 3167 3172 3169 3129 3113 3166 3143 3244 3130 3124 3089 3238 3167 3161 3275 3128 3171 3147 3166 3051 3165 3040 3035 3210 3163 3180 3138 3094 3069 3200 3074 3137 3140 3195 3083 3158 3069 3241 3149 3181 3121 3092 3029 3145 3166 3117 3212 3164 3123 3140 3200 3069 3149 3124 3129 3059 3074 3156 3055 3109 3162 3131 3005 3126 3171 3105 3172 3130 3176 3109 3096 3097 3075 3228 3185 3227 3225 3121 3101 3121 3154 3121 3053 3097 3201 3093 3193 3096 3054 3186 3114 3152 3050 2979 3195 3218 3192 3153 3109 3117 3142 3182 3244 3145 3184 3154 3136 3185 3044 3141 3178 3109 3096 3166 3079 3155 3156 3154 3101 3189 3057 3153 3118 3242 3183 3105 3040 3120 3180 3219 3159 3108 3168 3183 3203 3109 3119 3195 3149 3219 3127 3235 3141 3266 3274 3207 3209 3130 3228 3123 3097 3131 3189 3033 3150 3220 3270 3195 3118 3183 3096 3061 3211 3075 3151 3160 3077 3100 3075 3092 3119 3143 3085 3117 3123 3074 3117 3110 3166 3028 3077 3134 3141 3098 3114 3189 2996 3119 3150 3084 3125 3110 3064 2990 3126 2955 2958 2993 3013 3021 3156 3003 3054 3047 3040 2990 3121 3007 3185 3049 2991 3055 3005 3042 2926 2982 2951 2882 3020 3059 2927 3029 2962 2947 3065 3029 2945 2987 2894 2946 2886 2921 2907 2975 2982 3006 2982 2998 3003 2920 2884 2974 2953 2928 2883 2848 2848 2909 2800 3062 2751 2875 2850 2758 2912 2903 2882 2853 2823 2899 2888 2825 2874 2826 2799 2891 2830 2953 2771 2855 2761 2782 2811 2687 2807 2839 2808 2795 2749 2857 2795 2813 2720 2775 2703 2818 2775 2795 2777 2788 2716 2681 2711 2700 2729 2756 2679 2764 2773 2873 2660 2663 2704 2729 2666 2684 2677 2812 2624 2832 2609 2680 2703 2629 2634 2633 2684 2623 2587 2551 2648 2647 2656 2713 2636 2762 2632 2549 2585 2627 2655 2614 2663 2636 2622 2640 2548 2609 2658 2639 2647 2573 2553 2591 2602 2543 2623 2613 2610 2481 2661 2618 2570 2549 2480 2478 2490 2548 2496 2514 2529 2635 2550 2603 2596 2615 2576 2600 2570 2635 2553 2560 2630 2656 2544 2563 2645 2647 2685 2604 2650 2547 2552 2620 2476 2542 2539 2573 2616 2551 2560 2547 2642 2535 2593 2468 2551 2656 2573 2613 2596 2537 2560 2558 2707 2644 2564 2552 2535 2715 2597 2677 2601 2574 2631 2602 2595 2668 2556 2650 2584 2543 2582 2612 2605 2646 2663 2633 2631 2415 2542 2476 2586 2574 2522 2550 2436 2550 2555 2590 2552 2642 2570 2566 2615 2549 2564 2615 2500 2504 2501 2540 2486 2503 2473 2566 2565 2565 2528 2557 2541 2500 2545 2533 2503 2487 2596 2549 2470 2582 2494 2535 2517 2648 2543 2564 2570 2631 2591 2456 2530 2503 2596 2482 2527 2554 2487 2552 2557 2495 2511 2523 2468 2539 2582 2530 2655 2529 2608 2552 2513 2630 2578 2473 2596 2571 2506 2537 2545 2529 2550 2517 2496 2446 2515 2516 2528 2525 2515 2549 2439 2562 2507 2512 2554 2547 2570 2539 2417 2475 2532 2499 2568 2580 2510 2488 2577 2551 2512 2445 2473 2474 2553 2407 2503 2550 2536 2585 2504 2452 2473 2541 2494 2515 2452 2491 2509 2535 2509 2573 2600 2413 2451 2539 2494 2464 2457 2630 2497 2533 2526 2574 2421 2478 2477 2527 2415 2481 2562 2437 2427 2417 2508 2453 2396 2508 2438 2395 2567 2472 2462 2395 2465 2410 2476 2398 2485 2471 2347 2456 2466 2508 2459 2418 2467 2399 2463 2477 2448 2416 2338 2452 2435 2378 2466 2389 2463 2357 2383 2437 2324 2352 2443 2351 2410 2397 2393 2305 2375 2353 2325 2303 2369 2433 2383 2416 2397 2332 2409 2380 2377 2394 2353 2427 2331 2267 2260 2320 2274 2380 2309 2289 2313 2330 2321 2399 2376 2336 2306 2248 2362 2353 2246 2342 2299 2356 2248 2283 2349 2279 2320 2295 2260 2272 2277 2343 2271 2240 2218 2235 2368 2258 2339 2295 2250 2228 2293 2189 2244 2175 2239 2317 2228 2231 2293 2253 2273 2234 2259 2248 2226 2262 2269 2118 2247 2196 2172 2127 2234 2136 2193 2139 2164 2152 2179 2182 2200 2248 2198 2144 2162 2158 2230 2201 2139 2179 2218 2179 2194 2174 2085 2203 2228 2195 2156 2142 2139 2138 2188 2257 2169 2142 2212 2141 2108 2200 2109 2177 2149 2160 2014 2186 2032 2146 2241 2110 2174 2148 2029 2125 2167 2090 2204 2164 2163 2025 2223 2146 2162 2096 2176 2103 2192 2148 2136 2063 2155 2085 2150 2162 2186 2184 2162 2153 2196 2184 2177 2183 2142 2153 2242 2201 2164 2257 2140 2214 2225 2166 2174 2258 2169 2228 2174 2216 2129 2301 2148 2094 2244 2230 2155 2215 2268 2225 2244 2164 2187 2286 2165 2208 2262 2201 2216 2231 2232 2113 2140 2140 2151 2233 2195 2110 2168 2118 2171 2148 2148 2193 2145 2166 2206 2289 2181 2203 2070 2149 2099 2150 2126 2097 2160 2204 2115 2071 2130 2076 2068 2109 2083 2111 2093 2179 2087 2044 2039 2096 2056 2060 2038 2130 2134 2102 2084 2103 2068 2128 2114 2170 2076 2008 2064 2095 2210 2076 2183 2199 2270 2275 2255 2357 2371 2360 2303 2420 2360 2416 2405 2360 2460 2397 2337 2281 2411 2325 2361 2278 2323 2319 2293 2356 2286 2358 2383 2360 2329 2330 2371 2419 2321 2303 2348 2330 2273 2325 2235 2279 2383 2238 2305 2346 2233 2418 2367 2333 2372 2442 2347 2305 2362 2349 2405 2223 2323 2278 2328 2162 2242 2273 2211 2127 2203 2183 2170 2108 2156 2159 2065 2103 2139 2070 2021 2142 2129 2010 2012 2062 2045 1991 1939 2037 1969 1915 1938 1954 1901 1895 2062 1935 2003 1971 1945 1913 1948 1911 2046 1991 1931 1882 1887 1826 1873 1879 1836 1898 1958 1960 1938 1985 1887 1898 1928 1909 1826 1882 1884 1909 1967 1840 1913 1891 1906 1933 1875 1835 1948 1942 1768 1870 1903 1858 1897 1859 1855 1930 1910 1931 1922 1859 1902 1936 1864 1818 1862 1928 1871 1826 1782 1846 1873 1831 1883 1903 1883 1888 1879 1878 1797 1857 1817 1801 1815 1883 1769 1900 1849 1763 1841 1882 1795 1947 1896 1832 1818 1841 1878 1812 1805 1838 1810 1853 1834 1891 1863 1865 1886 1775 1849 1845 1864 1862 1799 1947 1817 1874 1819 1844 1851 1915 1813 1912 1777 1762 1848 1770 1775 1803 1762 1774 1860 1802 1828 1758 1844 1870 1812 1798 1780 1819 1796 1752 1851 1796 1854 1802 1871 1731 1778 1757 1737 1762 1734 1887 1777 1843 1827 1922 1833 1801 1869 1832 1821 1755 1819 1816 1842 1780 1850 1694 1739 1813 1839 1762 1806 1862 1908 1795 1860 1886 1769 1757 1785 1856 1794 1783 1850 1809 1775 1787 1802 1758 1848 1752 1753 1851 1890 1828 1775 1785 1788 1785 1853 1768 1822 1777 1800 1745 1795 1795 1877 1868 1813 1813 1789 1770 1755 1825 1865 1811 1736 1725 1772 1704 1748 1836 1668 1761 1739 1722 1790 1861 1784 1839 1821 1783 1862 1838 1744 1783 1872 1813 1776 1714 1798 1762 1793 1774 1769 1765 1753 1822 1839 1885 1828 1823 1776 1796 1809 1769 1691 1780 1799 1770 1742 1799 1721 1780 1828 1793 1789 1717 1824 1772 1809 1859 1831 1790 1789 1705 1843 1761 1707 1747 1782 1757 1824 1799 1770 1809 1764 1809 1774 1866 1724 1791 1793 1791 1791 1814 1698 1827 1720 1834 1812 1802 1784 1697 1835 1815 1854 1745 1814 1787 1808 1752 1711 1670 1841 1736 1736 1803 1770 1811 1754 1826 1816 1811 1708 1692 1771 1834 1734 1770 1800 1825 1781 1787 1823 1857 1858 1844 1804 1751 1795 1807 1884 1899 1832 1855 1913 1940 1959 1999 1900 1968 2014 2045 2087 2159 2208 2221 2333 2365 2395 2544 2532 2492 2480 2545 2527 2587 2528 2578 2513 2506 2594 2651 2634 2587 2656 2725 2756 2792 2843 2851 2851 2714 2761 2743 2718 2640 2799 2760 2631 2731 2669 2669 2635 2748 2791 2760 2701 2744 2669 2725 2742 2804 2798 2728 2820 2808 2575 2720 2667 2735 2569 2565 2512 2546 2557 2440 2424 2444 2400 2492 2436 2447 2439 2450 2490 2447 2446 2438 2437 2330 2308 2286 2308 2265 2334 2223 2184 2228 2151 2099 2045 2015 2058 1944 1935 1961 1863 1939 1865 1911 1929 1970 1876 1881 1953 1934 1888 1973 1910 1897 1965 1868 1877 2017 1911 1875 1846 1872 1861 1891 1832 1819 1876 1885 1839 1759 1878 1850 1829 1836 1834 1812 1909 1771 1841 1822 1814 1769 1765 1764 1735 1784 1782 1813 1763 1766 1774 1682 1747 1801 1778 1694 1715 1722 1713 1698 1710 1762 1656 1703 1587 1755 1727 1731 1695 1734 1652 1675 1703 1675 1718 1735 1671 1652 1691 1765 1669 1687 1720 1655 1647 1697 1747 1718 1572 1658 1754 1682 1658 1750 1726 1624 1701 1649 1661 1678 1596 1723 1615 1736 1685 1721 1609 1660 1661 1662 1639 1729 1598 1681 1658 1605 1743 1624 1670 1651 1698 1684 1599 1668 1689 1641 1665 1648 1718 1622 1595 1617 1704 1666 1676 1758 1621 1705 1671 1689 1667 1642 1721 1650 1679 1673 1630 1680 1657 1653 1632 1591 1661 1680 1645 1676 1642 1672 1671 1699 1643 1636 1608 1812 1619 1643 1589 1650 1608 1682 1671 1628 1632 1666 1756 1684 1728 1701 1592 1700 1669 1688 1645 1679 1599 1579 1516 1683 1684 1636 1606 1707 1672 1674 1676 1740 1617 1604 1644 1668 1668 1616 1656 1633 1605 1664 1640 1643 1640 1614 1683 1626 1682 1591 1755 1624 1595 1607 1644 1659 1587 1615 1653 1666 1512 1664 1619 1689 1651 1629 1633 1594 1711 1587 1666 1616 1716 1654 1628 1612 1639 1640 1660 1714 1646 1641 1722 1666 1597 1641 1674 1662 1618 1624 1569 1715 1676 1700 1716 1621 1666 1620 1666 1612 1600 1596 1593 1675 1660 1608 1637 1636 1596 1647 1543 1647 1663 1652 1545 1700 1619 1615 1606 1697 1570 1613 1647 1610 1697 1577 1627 1512 1641 1584 1649 1652 1629 1604 1617 1583 1586 1551 1619 1604 1562 1644 1619 1629 1601 1665 1623 1593 1638 1611 1593 1590 1650 1640 1615 1621 1679 1628 1622 1638 1592 1643 1632 1577 1583 1530 1671 1650 1590 1593 1673 1651 1652 1627 1664 1606 1627 1651 1655 1579 1615 1656 1626 1591 1609 1622 1573 1614 1651 1627 1613 1561 1606 1590 1615 1689 1625 1650 1558 1538 1557 1641 1595 1631 1581 1577 1611 1626 1584 1588 1630 1617 1664 1624 1559 1650 1584 1592 1574 1612 1548 1537 1567 1550 1619 1607 1540 1555 1557 1598 1594 1483 1481 1560 1594 1522 1560 1524 1551 1571 1507 1531 1594 1525 1547 1589 1555 1533 1579 1620 1568 1583 1598 1547 1485 1534 1538 1509 1546 1498 1549 1539 1567 1605 1493 1558 1522 1543 1589 1503 1507 1495 1583 1508 1467 1558 1494 1556 1527 1568 1530 1566 1511 1543 1575 1517 1596 1569 1551 1534 1552 1558 1570 1524 1590 1524 1556 1521 1573 1583 1564 1560 1582 1552 1562 1569 1500 1585 1443 1472 1556 1583 1552 1593 1570 1457 1509 1540 1518 1522 1541 1571 1562 1542 1550 1501 1529 1517 1557 1499 1549 1524 1495 1544 1539 1589 1553 1511 1510 1544 1584 1475 1536 1519 1545 1596 1598 1503 1516 1527 1461 1549 1520 1514 1540 1552 1509 1531 1625 1556 1574 1602 1535 1483 1523 1559 1571 1477 1526 1519 1545 1506 1524 1581 1572 1592 1489 1561 1517 1550 1566 1478 1521 1579 1539 1473 1507 1467 1493 1552 1498 1523 1623 1518 1467 1497 1479 1533 1570 1530 1513 1511 1550 1495 1482 1566 1475 1580 1488 1527 1569 1533 1463 1490 1581 1483 1507 1506 1550 1581 1488 1549 1490 1500 1466 1505 1476 1476 1501 1526 1479 1505 1453 1420 1507 1540 1487 1521 1466 1499 1470 1487 1509 1496 1525 1581 1531 1489 1471 1567 1418 1545 1562 1497 1484 1510 1492 1555 1480 1470 1474 1561 1569 1490 1559 1495 1534 1495 1487 1412 1538 1460 1444 1503 1452 1436 1569 1529 1467 1533 1526 1531 1494 1590 1516 1493 1524 1463 1414 1492 1454 1545 1469 1494 1476 1553 1472 1405 1473 1513 1554 1532 1518 1528 1542 1502 1490 1498 1485 1452 1566 1429 1575 1531 1504 1493 1540 1510 1545 1520 1483 1575 1489 1507 1493 1531 1581 1523 1527 1571 1509 1508 1481 1638 1511 1595 1544 1497 1529 1557 1527 1493 1434 1567 1530 1503 1579 1520 1501 1575 1530 1543 1472 1461 1444 1456 1478 1565 1467 1464 1516 1474 1412 1506 1512 1525 1508 1536 1519 1475 1445 1513 1482 1595 1460 1518 1548 1449 1533 1538 1528 1442 1489 1465 1499 1446 1416 1549 1482 1542 1487 1434 1545 1440 1549 1406 1480 1538 1476 1480 1490 1525 1478 1503 1471 1496 1463 1467 1468 1530 1424 1483 1446 1523 1562 1437 1511 1439 1505 1490 1516 1457 1528 1469 1468 1477 1477 1511 1499 1443 1392 1435 1539 1405 1479 1485 1427 1495 1490 1446 1512 1494 1480 1471 1468 1455 1515 1393 1473 1481 1479 1486 1538 1462 1475 1462 1534 1478 1464 1481 1473 1572 1542 1507 1444 1541 1499 1450 1452 1483 1518 1467 1547 1466 1483 1466 1520 1439 1461 1458 1554 1513 1411 1498 1496 1474 1462 1501 1458 1448 1501 1474 1447 1504 1468 1511 1415 1448 1475 1442 1451 1414 1515 1476 1461 1416 1456 1488 1470 1487 1434 1444 1496 1470 1440 1496 1548 1506 1484 1407 1489 1378 1492 1451 1469 1437 1402 1464 1534 1447 1472 1385 1399 1467 1494 1469 1478 1508 1502 1498 1500 1397 1448 1484 1415 1482 1461 1530 1452 1527 1497 1418 1534 1495 1461 1454 1531 1529 1553 1512 1543 1497 1509 1502 1588 1499 1548 1574 1517 1517 1541 1550 1567 1561 1532 1600 1594 1633 1508 1559 1567 1574 1614 1515 1525 1516 1553 1524 1636 1570 1488 1518 1551 1581 1461 1612 1510 1538 1478 1559 1518 1513 1501 1537 1599 1632 1601 1571 1601 1560 1540 1511 1556 1510 1511 1493 1439 1520 1504 1479 1539 1476 1486 1500 1589 1425 1464 1513 1536 1474 1585 1499 1516 1485 1420 1517 1509 1495 1463 1478 1434 1499 1455 1479 1473 1450 1491 1503 1492 1419 1479 1473 1418 1466 1427 1423 1454 1413 1444 1427 1465 1444 1510 1450 1464 1438 1448 1507 1494 1420 1482 1408 1451 1478 1514 1469 1426 1407 1459 1415 1422 1406 1454 1465 1441 1393 1381 1482 1479 1488 1443 1425 1462 1471 1468 1434 1431 1510 1405 1444 1463 1525 1435 1434 1461 1452 1445 1444 1527 1414 1444 1424 1417 1440 1468 1526 1436 1460 1470 1485 1466 1456 1406 1452 1398 1409 1436 1460 1347 1470 1382 1449 1485 1461 1419 1471 1360 1437 1520 1503 1495 1453 1366 1462 1388 1404 1459 1434 1390 1343 1417 1412 1427 1446 1445 1431 1454 1403 1409 1445 1437 1381 1405 1407 1380 1473 1491 1442 1431 1480 1426 1437 1399 1427 1472 1492 1398 1453 1428 1404 1478 1442 1398 1346 1423 1454 1543 1466 1474 1421 1442 1424 1480 1458 1462 1452 1411 1413 1444 1414 1418 1435 1405 1393 1431 1408 1368 1381 1416 1461 1409 1354 1371 1478 1486 1392 1390 1371 1437 1476 1440 1426 1423 1420 1470 1396 1469 1428 1542 1405 1353 1400 1535 1415 1403 1437 1443 1436 1453 1365 1383 1481 1424 1457 1392 1399 1515 1409 1373 1387 1423 1405 1299 1382 1416 1495 1423 1450 1427 1442 1337 1447 1436 1453 1429 1388 1361 1424 1411 1449 1423 1421 1441 1477 1400 1447 1430 1407 1391 1434 1463 1389 1380 1485 1431 1323 1402 1449 1427 1407 1477 1494 1418 1405 1418 1418 1388 1437 1435 1377 1409 1361 1450 1398 1369 1439 1343 1400 1418 1382 1396 1415 1411 1373 1467 1398 1368 1405 1435 1371 1430 1442 1452 1370 1431 1509 1414 1399 1446 1405 1438 1316 1397 1467 1470 1431 1424 1458 1466 1415 1456 1477 1514 1505 1388 1460 1459 1398 1474 1440 1551 1510 1475 1576 1584 1500 1621 1634 1483 1614 1581 1677 1627 1638 1633 1626 1610 1714 1757 1715 1815 1745 1767 1746 1777 1747 1769 1694 1814 1754 1828 1851 1765 1885 1765 1906 1812 1884 1996 1880 1844 1817 1930 1928 1797 1876 1805 1800 1748 1858 1811 1796 1812 1796 1767 1790 1795 1818 1777 1702 1848 1787 1677 1763 1711 1668 1753 1586 1654 1661 1669 1689 1593 1626 1664 1577 1558 1567 1574 1614 1636 1536 1533 1605 1508 1519 1457 1524 1561 1499 1550 1518 1444 1505 1523 1528 1481 1463 1557 1464 1508 1452 1476 1484 1522 1514 1550 1423 1482 1570 1576 1553 1623 1424 1566 1595 1481 1586 1509 1409 1471 1554 1526 1510 1507 1504 1528 1524 1507 1511 1582 1496 1498 1532 1503 1511 1574 1512 1498 1607 1494 1422 1483 1553 1519 1488 1512 1549 1536 1514 1534 1463 1506 1453 1425 1512 1508 1459 1507 1517 1512 1445 1468 1454 1454 1444 1476 1420 1422 1461 1394 1455 1403 1480 1424 1420 1421 1349 1367 1423 1391 1395 1386 1418 1464 1394 1402 1372 1358 1386 1411 1439 1466 1436 1403 1367 1343 1318 1389 1411 1369 1396 1402 1330 1311 1357 1442 1376 1358 1369 1384 1363 1424 1304 1378 1323 1334 1403 1368 1381 1350 1385 1365 1328 1340 1328 1405 1320 1401 1433 1415 1318 1359 1421 1397 1348 1337 1400 1413 1339 1389 1397 1418 1398 1494 1362 1471 1374 1485 1395 1475 1433 1439 1354 1414 1393 1446 1404 1410 1466 1385 1406 1434 1415 1447 1400 1492 1365 1397 1404 1461 1426 1377 1477 1451 1412 1376 1413 1397 1449 1441 1430 1404 1369 1422 1468 1371 1423 1447 1383 1425 1372 1433 1447 1346 1411 1381 1405 1446 1358 1458 1445 1371 1421 1442 1374 1403 1328 1367 1400 1388 1376 1462 1391 1406 1307 1356 1408 1389 1372 1351 1386 1337 1370 1382 1440 1386 1443 1384 1401 1393 1343 1378 1432 1398 1359 1446 1382 1427 1377 1398 1344 1392 1300 1417 1364 1387 1392 1392 1444 1401 1389 1392 1410 1398 1408 1348 1344 1396 1351 1336 1402 1429 1400 1355 1369 1395 1337 1341 1416 1342 1358 1352 1404 1363 1351 1388 1365 1380 1389 1319 1331 1425 1476 1395 1366 1342 1386 1341 1338 1361 1328 1430 1370 1368 1395 1439 1366 1417 1390 1425 1338 1400 1364 1311 1425 1390 1390 1287 1344 1309 1371 1345 1347 1382 1256 1336 1314 1250 1353 1336 1371 1320 1362 1393 1365 1359 1385 1268 1370 1326 1349 1298 1329 1327 1318 1265 1358 1328 1363 1349 1323 1324 1301 1391 1376 1366 1309 1308 1434 1308 1341 1333 1362 1287 1289 1319 1335 1345 1406 1330 1335 1316 1332 1342 1327 1388 1294 1291 1338 1328 1342 1273 1343 1380 1380 1293 1360 1303 1340 1312 1369 1338 1369 1356 1289 1332 1325 1357 1314 1323 1382 1365 1359 1319 1360 1314 1363 1334 1304 1333 1332 1350 1360 1317 1340 1269 1306 1393 1307 1309 1289 1270 1316 1327 1296 1374 1342 1306 1324 1316 1353 1431 1359 1367 1340 1330 1341 1314 1353 1315 1332 1274 1329 1247 1265 1270 1331 1357 1307 1415 1296 1342 1313 1283 1317 1317 1226 1366 1278 1309 1296 1363 1347 1255 1283 1305 1303 1276 1334 1322 1282 1319 1339 1322 1314 1307 1300 1362 1308 1297 1317 1354 1261 1331 1284 1352 1318 1340 1336 1308 1293 1278 1323 1323 1312 1326 1287 1300 1323 1296 1252 1301 1313 1320 1315 1292 1338 1367 1308 1330 1332 1297 1324 1285 1283 1330 1202 1404 1343 1352 1310 1297 1349 1307 1291 1336 1298 1309 1306 1354 1308 1323 1254 1288 1268 1268 1299 1291 1327 1317 1271 1320 1299 1308 1327 1346 1317 1275 1286 1348 1373 1260 1310 1297 1339 1266 1327 1297 1318 1308 1277 1341 1258 1309 1310 1295 1299 1285 1372 1365 1337 1322 1286 1343 1322 1356 1262 1316 1320 1373 1308 1341 1302 1307 1294 1354 1324 1290 1300 1349 1277 1361 1385 1297 1341 1357 1301 1325 1364 1285 1301 1268 1306 1316 1351 1337 1280 1321 1359 1280 1363 1331 1298 1281 1296 1265 1301 1281 1295 1315 1349 1289 1283 1245 1305 1233 1296 1346 1234 1244 1227 1332 1312 1327 1227 1349 1295 1307 1276 1306 1328 1293 1299 1277 1308 1312 1308 1363 1337 1328 1296 1346 1287 1340 1261 1256 1230 1332 1281 1232 1312 1321 1312 1399 1219 1322 1295 1285 1250 1236 1278 1289 1264 1253 1248 1277 1269 1283 1278 1215 1222 1388 1257 1311 1263 1232 1341 1274 1263 1285 1260 1251 1221 1324 1276 1350 1270 1306 1300 1259 1306 1247 1263 1308 1325 1281 1273 1338 1293 1309 1267 1264 1293 1295 1314 1217 1238 1363 1361 1321 1291 1323 1305 1216 1291 1362 1294 1310 1328 1294 1241 1333 1301 1295 1284 1311 1336 1355 1254 1302 1198 1220 1298 1342 1261 1294 1191 1243 1256 1257 1298 1286 1349 1339 1284 1311 1298 1339 1343 1315 1298 1285 1281 1304 1308 1303 1310 1301 1230 1293 1248 1350 1295 1280 1284 1231 1326 1302 1379 1289 1274 1268 1219 1353 1338 1303 1348 1293 1293 1319 1332 1391 1382 1318 1397 1354 1351 1372 1357 1336 1409 1454 1430 1420 1383 1402 1342 1323 1436 1359 1375 1378 1452 1433 1402 1348 1316 1371 1380 1325 1379 1390 1339 1357 1348 1397 1345 1322 1299 1377 1383 1329 1403 1311 1373 1330 1302 1333 1319 1354 1371 1312 1354 1362 1348 1349 1408 1276 1289 1325 1330 1394 1307 1332 1303 1367 1281 1330 1305 1302 1268 1332 1277 1379 1262 1317 1251 1290 1257 1337 1271 1234 1326 1247 1323 1274 1291 1326 1273 1288 1357 1265 1253 1291 1291 1337 1343 1269 1301 1295 1218 1245 1273 1244 1253 1232 1267 1317 1302 1229 1242 1244 1300 1310 1231 1274 1324 1241 1243 1334 1252 1216 1225 1282 1304 1270 1275 1308 1243 1312 1246 1244 1233 1249 1307 1260 1230 1274 1233 1278 1232 1228 1270 1278 1311 1304 1239 1259 1260 1225 1267 1269 1207 1254 1294 1224 1254 1197 1287 1230 1253 1309 1254 1289 1285 1213 1293 1237 1237 1351 1266 1255 1232 1285 1294 1249 1161 1284 1268 1289 1263 1281 1261 1194 1220 1300 1271 1202 1259 1253 1310 1286 1265 1248 1250 1277 1194 1205 1255 1251 1273 1251 1271 1233 1263 1266 1243 1274 1282 1276 1229 1340 1287 1278 1276 1273 1234 1266 1240 1283 1218 1245 1259 1289 1238 1216 1314 1278 1301 1326 1278 1249 1220 1247 1206 1216 1172 1285 1286 1235 1233 1225 1214 1306 1287 1292 1306 1262 1257 1274 1266 1264 1307 1232 1290 1278 1301 1287 1280 1283 1305 1277 1253 1381 1317 1281 1239 1329 1299 1361 1226 1398 1308 1371 1367 1309 1362 1283 1397 1286 1366 1384 1339 1357 1272 1334 1349 1293 1349 1328 1327 1289 1338 1365 1364 1378 1312 1331 1368 1307 1304 1312 1337 1334 1308 1321 1280 1310 1248 1331 1436 1321 1399 1397 1357 1425 1394 1419 1338 1299 1364 1315 1336 1369 1344 1340 1341 1323 1354 1222 1305 1327 1252 1310 1355 1343 1296 1296 1332 1284 1340 1268 1273 1310 1313 1316 1387 1258 1299 1281 1292 1335 1264 1275 1294 1230 1269 1268 1293 1281 1232 1261 1295 1240 1324 1195 1311 1320 1267 1277 1298 1211 1252 1255 1213 1250 1233 1248 1223 1295 1288 1209 1223 1224 1251 1194 1283 1279 1258 1271 1307 1275 1242 1222 1254 1209 1226 1257 1234 1261 1254 1297 1246 1249 1245 1303 1330 1256 1241 1277 1295 1276 1282 1270 1274 1325 1267 1314 1328 1235 1270 1306 1281 1271 1261 1312 1242 1266 1226 1281 1258 1248 1243 1268 1223 1209 1260 1262 1251 1306 1247 1354 1342 1176 1260 1275 1206 1272 1266 1242 1259 1248 1248 1212 1337 1220 1291 1279 1297 1263 1182 1288 1296 1284 1289 1293 1264 1224 1278 1318 1288 1266 1190 1307 1279 1297 1286 1256 1251 1212 1272 1286 1262 1215 1260 1239 1210 1291 1197 1249 1250 1288 1206 1215 1223 1272 1258 1287 1250 1237 1271 1264 1276 1267 1312 1307 1200 1297 1271 1260 1252 1207 1331 1262 1245 1278 1331 1232 1268 1220 1215 1315 1275 1245 1250 1287 1233 1245 1238 1265 1248 1273 1238 1272 1259 1254 1200 1285 1243 1266 1188 1258 1289 1224 1268 1198 1240 1257 1323 1259 1235 1195 1207 1226 1226 1176 1209 1219 1288 1263 1288 1265 1211 1307 1253 1247 1224 1229 1355 1282 1232 1177 1264 1187 1289 1242 1214 1250 1245 1214 1229 1138 1204 1161 1208 1208 1242 1249 1161 1330 1286 1297 1244 1230 1240 1262 1188 1201 1249 1217 1253 1251 1241 1290 1218 1184 1249 1254 1226 1237 1250 1162 1250 1195 1247 1251 1225 1214 1211 1221 1189 1216 1203 1270 1192 1206 1188 1146 1262 1234 1264 1306 1236 1203 1266 1257 1222 1187 1219 1225 1172 1210 1202 1272 1194 1223 1266 1231 1266 1180 1219 1259 1172 1207 1294 1202 1173 1248 1222 1228 1220 1311 1228 1218 1195 1199 1288 1244 1268 1206 1268 1202 1175 1220 1231 1233 1276 1203 1174 1184 1228 1201 1182 1211 1190 1158 1168 1218 1238 1196 1203 1207 1157 1128 1215 1216 1185 1156 1189 1221 1211 1171 1222 1182 1189 1197 1194 1214 1179 1246 1218 1257 1175 1213 1225 1200 1178 1201 1147 1258 1200 1246 1195 1234 1179 1171 1283 1136 1198 1103 1146 1162 1174 1199 1163 1221 1257 1238 1296 1231 1205 1190 1262 1149 1194 1145 1215 1187 1211 1157 1208 1187 1219 1255 1158 1185 1229 1221 1219 1218 1172 1157 1209 1159 1232 1220 1202 1201 1192 1219 1221 1167 1166 1112 1222 1164 1210 1224 1203 1214 1244 1218 1138 1244 1167 1162 1237 1228 1187 1242 1233 1236 1229 1243 1214 1180 1223 1197 1212 1176 1240 1232 1212 1178 1240 1202 1195 1159 1213 1159 1172 1135 1205 1225 1230 1298 1224 1170 1119 1210 1184 1223 1133 1232 1203 1183 1193 1182 1200 1181 1169 1178 1206 1174 1222 1228 1185 1196 1225 1225 1272 1228 1292 1168 1154 1155 1266 1211 1214 1263 1247 1167 1221 1194 1213 1210 1221 1205 1175 1209 1243 1154 1311 1203 1202 1181 1174 1191 1232 1212 1189 1224 1234 1144 1206 1117 1194 1206 1167 1140 1241 1212 1217 1233 1212 1247 1252 1183 1197 1214 1163 1210 1214 1207 1215 1244 1201 1194 1164 1240 1234 1197 1238 1252 1196 1152 1218 1150 1168 1258 1183 1227 1222 1249 1189 1203 1209 1215 1166 1154 1198 1225 1182 1175 1230 1227 1170 1222 1176 1132 1169 1261 1216 1171 1217 1183 1240 1170 1216 1190 1187 1217 1207 1148 1241 1175 1245 1190 1256 1216 1223 1177 1184 1151 1193 1167 1140 1177 1249 1229 1191 1221 1186 1256 1214 1180 1207 1195 1198 1132 1159 1150 1159 1187 1173 1211 1213 1250 1204 1194 1202 1184 1184 1188 1217 1209 1154 1226 1165 1159 1171 1210 1260 1219 1212 1212 1144 1226 1204 1171 1204 1164 1250 1225 1249 1299 1179 1223 1200 1194 1188 1234 1154 1192 1191 1190 1227 1238 1221 1225 1196 1194 1156 1215 1203 1231 1219 1199 1188 1209 1191 1174 1230 1156 1181 1204 1173 1155 1232 1205 1216 1257 1217 1217 1236 1294 1184 1136 1148 1242 1174 1236 1194 1203 1162 1253 1179 1193 1170 1192 1241 1230 1161 1220 1183 1187 1229 1238 1203 1181 1190 1188 1223 1256 1250 1163 1250 1239 1244 1231 1199 1160 1224 1141 1196 1258 1213 1183 1237 1199 1178 1195 1266 1230 1123 1173 1217 1137 1198 1236 1188 1110 1189 1147 1211 1241 1183 1207 1179 1242 1223 1220 1219 1202 1221 1188 1164 1195 1242 1167 1217 1183 1224 1213 1219 1194 1187 1187 1170 1209 1132 1227 1187 1142 1234 1137 1242 1192 1293 1219 1153 1254 1221 1184 1224 1163 1199 1213 1190 1197 1208 1193 1167 1207 1139 1230 1127 1229 1227 1150 1246 1192 1191 1213 1136 1253 1190 1267 1222 1204 1200 1177 1229 1162 1188 1154 1200 1219 1176 1245 1121 1176 1232 1131 1250 1174 1195 1190 1172 1207 1176 1145 1178 1198 1181 1243 1230 1167 1251 1165 1237 1215 1222 1174 1209 1186 1210 1185 1202 1188 1188 1157 1156 1217 1215 1149 1176 1170 1206 1149 1137 1198 1156 1210 1214 1175 1132 1214 1133 1205 1183 1204 1213 1168 1214 1144 1173 1136 1216 1211 1222 1182 1165 1193 1156 1164 1175 1149 1158 1212 1244 1173 1217 1133 1197 1172 1157 1221 1126 1075 1172 1113 1249 1197 1186 1245 1169 1166 1199 1168 1220 1158 1217 1234 1164 1213 1187 1219 1157 1127 1181 1324 1253 1205 1259 1198 1207 1179 1211 1157 1127 1223 1236 1252 1198 1206 1264 1269 1178 1223 1189 1183 1228 1286 1226 1226 1241 1245 1212 1171 1229 1250 1234 1243 1163 1228 1224 1188 1166 1183 1214 1163 1238 1230 1265 1179 1302 1210 1228 1198 1249 1208 1158 1170 1203 1182 1240 1217 1263 1213 1188 1248 1249 1198 1211 1228 1187 1231 1185 1207 1223 1200 1212 1246 1195 1195 1210 1249 1247 1171 1190 1228 1225 1196 1223 1147 1175 1242 1171 1185 1155 1182 1172 1204 1212 1289 1159 1174 1147 1265 1176 1197 1216 1243 1191 1212 1222 1231 1179 1175 1208 1195 1168 1219 1183 1214 1171 1170 1165 1209 1183 1153 1162 1134 1186 1162 1199 1155 1240 1190 1139 1227 1221 1256 1207 1201 1214 1174 1190 1134 1162 1163 1190 1212 1147 1128 1194 1183 1191 1203 1254 1175 1181 1208 1185 1143 1184 1155 1202 1197 1143 1106 1166 1166 1202 1152 1177 1100 1203 1187 1167 1111 1151 1234 1210 1141 1242 1171 1203 1174 1153 1180 1193 1133 1211 1207 1198 1237 1172 1228 1162 1204 1151 1110 1159 1213 1156 1192 1174 1203 1161 1206 1131 1202 1143 1180 1142 1158 1179 1191 1156 1180 1176 1205 1156 1180 1209 1157 1159 1193 1166 1206 1232 1179 1180 1222 1132 1239 1191 1211 1165 1176 1213 1183 1241 1184 1165 1133 1232 1061 1188 1194 1166 1145 1198 1163 1181 1150 1148 1145 1173 1134 1151 1157 1192 1204 1100 1142 1200 1147 1103 1222 1149 1194 1233 1177 1218 1130 1119 1224 1195 1152 1215 1143 1131 1188 1122 1274 1122 1193 1165 1198 1183 1202 1177 1199 1191 1204 1238 1162 1159 1162 1233 1167 1180 1151 1179 1142 1178 1197 1190 1170 1173 1214 1234 1169 1169 1222 1226 1090 1147 1137 1194 1195 1142 1173 1192 1183 1122 1194 1176 1196 1162 1202 1231 1236 1236 1205 1151 1206 1146 1129 1143 1221 1208 1174 1193 1197 1164 1143 1190 1148 1191 1169 1186 1156 1220 1129 1175 1168 1233 1110 1150 1193 1175 1210 1177 1183 1141 1140 1204 1232 1169 1224 1190 1205 1198 1166 1247 1196 1200 1144 1173 1163 1169 1190 1101 1147 1111 1148 1132 1102 1174 1149 1215 1215 1193 1209 1154 1145 1134 1176 1170 1178 1136 1178 1158 1194 1171 1143 1167 1179 1092 1113 1097 1162 1193 1161 1236 1185 1195 1174 1161 1158 1169 1172 1187 1204 1143 1170 1188 1232 1183 1237 1193 1164 1159 1190 1196 1147 1190 1208 1138 1186 1153 1190 1172 1167 1149 1149 1210 1192 1176 1130 1151 1173 1173 1128 1144 1153 1165 1161 1185 1197 1236 1214 1225 1149 1179 1176 1123 1211 1186 1117 1221 1166 1154 1184 1168 1117 1132 1154 1163 1122 1167 1231 1264 1181 1171 1147 1161 1156 1133 1202 1146 1220 1185 1141 1141 1164 1170 1116 1211 1151 1163 1153 1116 1212 1171 1166 1144 1234 1157 1183 1189 1190 1106 1165 1125 1168 1146 1155 1202 1198 1178 1194 1176 1186 1187 1178 1193 1153 1160 1175 1159 1166 1160 1159 1150 1188 1185 1161 1197 1152 1119 1141 1190 1177 1178 1218 1192 1208 1214 1151 1191 1196 1156 1062 1192 1211 1272 1155 1178 1142 1181 1178 1144 1181 1156 1178 1132 1179 1209 1207 1141 1201 1115 1174 1138 1116 1191 1144 1185 1185 1166 1218 1164 1184 1222 1140 1139 1187 1156 1138 1136 1160 1158 1113 1187 1144 1218 1145 1227 1204 1180 1209 1213 1170 1196 1219 1171 1158 1210 1182 1207 1190 1139 1157 1142 1128 1203 1237 1088 1134 1195 1196 1158 1191 1154 1120 1164 1196 1191 1147 1111 1159 1129 1222 1135 1199 1204 1170 1185 1131 1136 1125 1219 1240 1096 1140 1156 1139 1202 1178 1132 1180 1198 1189 1191 1165 1200 1170 1153 1159 1144 1196 1163 1133 1165 1160 1153 1197 1135 1186 1163 1202 1196 1166 1182 1172 1187 1189 1175 1189 1216 1237 1173 1160 1203 1093 1164 1140 1155 1196 1188 1202 1138 1184 1147 1161 1207 1124 1145 1220 1240 1150 1161 1203 1179 1224 1222 1193 1179 1109 1191 1154 1144 1190 1198 1171 1172 1176 1196 1100 1172 1131 1141 1168 1195 1172 1164 1125 1194 1176 1187 1241 1217 1152 1233 1171 1214 1218 1199 1169 1196 1218 1202 1154 1229 1094 1170 1166 1161 1188 1214 1126 1234 1166 1210 1201 1269 1184 1159 1185 1176 1213 1193 1232 1152 1201 1181 1226 1197 1197 1189 1215 1207 1211 1178 1253 1279 1201 1109 1218 1107 1219 1183 1202 1194 1208 1256 1170 1128 1259 1202 1188 1237 1256 1201 1204 1116 1170 1161 1194 1215 1142 1192 1207 1124 1197 1171 1209 1198 1126 1163 1190 1204 1191 1151 1158 1228 1169 1165 1190 1152 1164 1175 1235 1218 1154 1154 1144 1172 1150 1152 1200 1208 1151 1170 1182 1153 1202 1161 1182 1199 1168 1169 1183 1168 1167 1222 1193 1179 1193 1185 1214 1232 1177 1146 1170 1149 1216 1190 1209 1164 1162 1165 1155 1122 1169 1115 1129 1169 1185 1182 1183 1161 1141 1184 1172 1217 1160 1187 1094 1209 1195 1112 1116 1165 1149 1195 1191 1187 1187 1165 1123 1187 1197 1191 1183 1225 1170 1123 1177 1176 1108 1181 1155 1114 1184 1174 1218 1186 1223 1199 1122 1261 1197 1208 1144 1152 1192 1168 1172 1113 1142 1162 1188 1194 1140 1210 1192 1127 1154 1172 1178 1146 1174 1150 1161 1247 1190 1201 1197 1197 1162 1164 1166 1096 1200 1191 1233 1174 1175 1156 1203 1163 1208 1171 1186 1149 1171 1176 1189 1174 1108 1086 1184 1181 1152 1177 1243 1218 1188 1203 1277 1130 1192 1226 1232 1210 1172 1183 1221 1198 1188 1186 1220 1237 1209 1220 1212 1237 1172 1273 1210 1171 1217 1297 1213 1243 1219 1232 1196 1234 1252 1240 1214 1221 1283 1258 1261 1253 1226 1229 1281 1258 1237 1268 1227 1172 1240 1212 1271 1237 1242 1239 1254 1205 1241 1260 1251 1219 1204 1206 1274 1203 1227 1237 1211 1250 1199 1228 1221 1209 1310 1229 1197 1278 1209 1236 1252 1162 1219 1249 1218 1199 1217 1250 1301 1229 1190 1314 1206 1196 1158 1193 1187 1185 1219 1185 1169 1148 1166 1204 1195 1196 1250 1173 1254 1205 1190 1157 1240 1148 1279 1231 1174 1195 1228 1163 1139 1198 1211 1136 1150 1140 1209 1205 1175 1180 1188 1157 1165 1144 1218 1165 1235 1173 1170 1139 1216 1100 1174 1244 1173 1193 1187 1162 1170 1249 1207 1203 1161 1217 1229 1182 1209 1136 1205 1215 1198 1213 1159 1186 1200 1159 1149 1151 1141 1165 1184 1168 1182 1229 1173 1231 1171 1134 1209 1186 1172 1161 1190 1143 1238 1188 1228 1191 1200 1147 1192 1182 1154 1107 1128 1142 1187 1185 1208 1190 1185 1172 1148 1213 1124 1189 1183 1180 1148 1152 1158 1239 1210 1177 1199 1175 1167 1140 1212 1148 1161 1208 1118 1184 1264 1206 1179 1202 1186 1154 1124 1227 1180 1138 1193 1177 1205 1166 1183 1193 1151 1248 1154 1236 1147 1187 1144 1161 1160 1227 1169 1214 1170 1136 1157 1192 1174 1175 1182 1162 1179 1157 1150 1118 1114 1208 1153 1189 1137 1201 1154 1217 1154 1169 1202 1194 1198 1194 1176 1207 1181 1149 1131 1170 1167 1100 1082 1189 1206 1183 1169 1176 1119 1160 1117 1175 1118 1167 1144 1169 1203 1209 1129 1124 1146 1186 1104 1133 1158 1149 1160 1172 1168 1118 1166 1200 1143 1168 1168 1163 1164 1157 1099 1136 1101 1158 1172 1122 1132 1130 1178 1146 1139 1162 1140 1191 1162 1131 1170 1094 1151 1227 1064 1110 1098 1124 1118 1170 1138 1101 1142 1156 1154 1129 1138 1122 1145 1162 1124 1200 1224 1093 1190 1154 1156 1195 1122 1096 1112 1110 1159 1141 1129 1188 1155 1144 1160 1178 1125 1143 1151 1119 1189 1137 1103 1162 1161 1183 1138 1122 1192 1115 1134 1210 1200 1121 1107 1100 1151 1153 1147 1138 1147 1148 1127 1133 1146 1051 1109 1106 1205 1148 1134 1162 1159 1172 1177 1173 1132 1179 1111 1148 1180 1099 1234 1102 1151 1126 1139 1166 1131 1119 1132 1230 1162 1128 1119 1116 1115 1162 1150 1139 1106 1170 1144 1128 1159 1155 1159 1156 1097 1102 1062 1159 1134 1122 1100 1162 1181 1141 1126 1145 1147 1111 1088 1116 1099 1142 1140 1068 1095 1141 1102 1200 1112 1152 1173 1130 1141 1134 1174 1114 1132 1127 1108 1116 1161 1165 1146 1106 1108 1140 1136 1197 1095 1094 1115 1217 1199 1208 1212 1077 1141 1138 1066 1150 1122 1152 1178 1173 1143 1192 1119 1183 1159 1112 1109 1137 1167 1149 1152 1197 1127 1134 1112 1130 1119 1134 1102 1111 1181 1146 1059 1170 1119 1105 1128 1139 1154 1146 1091 1122 1045 1113 1097 1175 1138 1115 1073 1085 1125 1113 1089 1138 1145 1092 1124 1137 1140 1126 1055 1136 1129 1198 1121 1152 1132 1091 1172 1128 1149 1068 1164 1140 1055 1178 1097 1062 1114 1099 1147 1140 1154 1143 1158 1101 1196 1146 1124 1130 1109 1148 1144 1112 1157 1134 1121 1153 1148 1142 1063 1126 1107 1198 1116 1106 1103 1169 1102 1140 1140 1103 1139 1106 1154 1098 1110 1126 1122 1143 1154 1148 1145 1083 1158 1136 1084 1112 1105 1147 1150 1154 1144 1146 1129 1078 1091 1169 1120 1149 1116 1145 1134 1134 1135 1058 1162 1085 1158 1127 1092 1116 1090 1074 1136 1167 1079 1143 1129 1121 1127 1097 1145 1134 1051 1099 1095 1181 1097 1041 1093 1263 1084 1035 1102 1122 1095 1103 1117 1160 1077 1215 1099 1126 1177 1139 1074 1137 1147 1152 1103 1158 1166 1083 1159 1079 1136 1089 1159 1114 1113 1138 1079 1135 1071 1083 1106 1165 1097 1100 1144 1172 1175 1167 1115 1136 1100 1112 1123 1134 1162 1143 1150 1123 1097 1130 1189 1129 1146 1100 1127 1102 1163 1129 1109 1101 1113 1169 1110 1127 1171 1157 1134 1107 1106 1138 1181 1122 1106 1142 1144 1115 1167 1173 1189 1088 1113 1170 1114 1192 1149 1127 1161 1146 1101 1090 1133 1141 1083 1135 1208 1155 1107 1113 1158 1149 1106 1136 1130 1110 1175 1154 1125 1113 1119 1107 1072 1212 1149 1113 1101 1118 1137 1150 1106 1160 1146 1109 1064 1182 1121 1113 1115 1146 1153 1188 1158 1088 1093 1141 1111 1166 1148 1188 1125 1161 1149 1156 1157 1131 1063 1107 1077 1113 1120 1152 1105 1148 1125 1170 1162 1145 1113 1155 1120 1129 1151 1058 1132 1187 1194 1153 1103 1114 1095 1142 1188 1100 1077 1095 1153 1122 1098 1116 1206 1102 1119 1115 1049 1138 1135 1081 1117 1092 1104 1109 1131 1123 1180 1110 1138 1113 1207 1073 1130 1152 1084 1186 1141 1117 1181 1165 1095 1079 1145 1131 1135 1136 1154 1056 1120 1093 1186 1123 1125 1153 1161 1119 1120 1187 1126 1190 1162 1107 1114 1124 1052 1192 1107 1137 1145 1089 1118 1164 1142 1162 1075 1173 1084 1217 1131 1142 1110 1111 1146 1168 1148 1080 1177 1095 1117 1123 1140 1106 1143 1107 1110 1157 1107 1112 1118 1113 1124 1187 1093 1092 1108 1078 1158 1098 1128 1111 1152 1132 1110 1125 1178 1096 1114 1153 1148 1155 1074 1174 1141 1150 1139 1128 1113 1151 1184 1119 1187 1191 1207 1283 1198 1166 1145 1114 1209 1206 1198 1197 1154 1159 1194 1197 1174 1224 1170 1133 1134 1183 1172 1213 1161 1219 1186 1116 1196 1112 1177 1180 1179 1230 1213 1134 1245 1187 1148 1218 1193 1204 1182 1165 1212 1158 1178 1182 1120 1112 1200 1168 1168 1137 1152 1130 1136 1199 1045 1150 1135 1105 1183 1121 1178 1165 1125 1067 1158 1113 1170 1095 1109 1153 1171 1192 1131 1151 1115 1124 1104 1135 1185 1079 1135 1162 1080 1161 1151 1096 1122 1115 1131 1159 1135 1166 1108 1168 1171 1114 1231 1167 1169 1155 1094 1177 1106 1111 1150 1102 1186 1220 1103 1106 1169 1161 1152 1134 1144 1132 1181 1135 1161 1124 1175 1105 1155 1169 1161 1148 1184 1083 1113 1131 1114 1127 1130 1157 1096 1119 1154 1171 1208 1136 1137 1067 1137 1167 1125 1119 1158 1126 1146 1113 1124 1197 1121 1168 1132 1128 1140 1124 1135 1091 1124 1092 1116 1101 1183 1118 1159 1062 1177 1205 1087 1085 1093 1111 1143 1165 1128 1179 1116 1169 1152 1140 1132 1161 1181 1156 1047 1117 1117 1120 1182 1198 1164 1117 1175 1146 1140 1119 1110 1108 1118 1115 1169 1086 1041 1127 1089 1200 1144 1104 1167 1087 1123 1125 1137 1155 1163 1145 1183 1122 1131 1075 1105 1167 1125 1096 1153 1209 1088 1162 1126 1135 1151 1174 1139 1137 1098 1078 1166 1179 1104 1131 1133 1146 1126 1103 1112 1019 1142 1149 1128 1136 1103 1131 1129 1096 1130 1089 1117 1194 1165 1183 1091 1166 1102 1171 1173 1103 1131 1080 1142 1131 1204 1142 1101 1139 1078 1098 1120 1124 1167 1162 1172 1118 1153 1099 1173 1110 1123 1058 1169 1195 1122 1092 1134 1135 1133 1135 1166 1123 1172 1113 1155 1156 1101 1078 1086 1089 1146 1095 1177 1142 1111 1127 1093 1077 1173 1151 1121 1114 1147 1082 1102 1073 1103 1159 1105 1120 1129 1139 1188 1137 1180 1134 1127 1178 1153 1096 1099 1063 1116 1076 1115 1074 1148 1189 1094 1206 1048 1144 1121 1093 1177 1109 1146 1149 1098 1124 1152 1140 1109 1168 1156 1050 1126 1088 1115 1096 1127 1102 1122 1110 1102 1056 1093 1050 1041 1105 1044 1108 1132 1092 1120 1128 1084 1125 1099 1119 1127 1123 1154 1164 1144 1120 1130 1139 1124 1119 1167 1107 1066 1070 1125 1096 1115 1124 1064 1107 1104 1106 1103 1146 1114 1105 1054 1164 1106 1148 1132 1082 1094 1127 1046 1104 1052 1118 1092 1069 1100 1137 1158 1070 1144 1110 1151 1142 1114 1133 1157 1161 1090 1065 1129 1114 1050 1094 1110 1114 1137 1117 1119 1092 1063 1113 1129 1157 1139 1178 1116 1140 1137 1072 1122 1143 1101 1114 1082 1071 1136 1158 1139 1104 1119 1105 1088 1146 1118 1088 1061 1050 1124 1048 1136 1101 1129 1144 1092 1071 1115 1083 1082 1093 1094 1141 1120 1130 1114 1120 1161 1133 1082 1143</counts>
			</dataPoints>
		</scan>
	</xrdMeasurement>
</xrdMeasurements>
