<?xml version="1.0"?>
<xrdMeasurements xmlns="http://www.xrdml.com/XRDMeasurement/2.3" xmlns:xsi="http://www.w3.org/2001/XMLSchema-instance" xsi:schemaLocation="http://www.xrdml.com/XRDMeasurement/2.3 http://www.xrdml.com/XRDMeasurement/2.3/XRDMeasurement.xsd" status="Completed" recordIdentifier="{40F3D0F7-20FB-40F7-90ED-B8ADD1C83FFB}">
	<comment>
		<entry/>
	</comment>
	<sample type="To be analyzed">
		<id>GPSS_Li1p6Fe0p8Co0p4Cl4_102325_68fa7650028f64128e25ed7e</id>
		<name></name>
		<preparedBy></preparedBy>
	</sample>
	<xrdMeasurement measurementType="Scan" status="Completed" sampleMode="Reflection">
		<usedWavelength intended="K-Alpha 1">
			<kAlpha1 unit="Angstrom">1.5405980</kAlpha1>
			<kAlpha2 unit="Angstrom">1.5444260</kAlpha2>
			<kBeta unit="Angstrom">1.3922500</kBeta>
			<ratioKAlpha2KAlpha1>0.5000</ratioKAlpha2KAlpha1>
		</usedWavelength>
		<incidentBeamPath>
			<radius unit="mm">145.00</radius>
			<xRayTube id="1010048" name="Empyrean Cu LFF HR (9430 033 7310x)">
				<tension unit="kV">40.0</tension>
				<current unit="mA">15.0</current>
				<anodeMaterial>Cu</anodeMaterial>
				<focus type="Line">
					<length unit="mm">12.0</length>
					<width unit="mm">0.4</width>
					<takeOffAngle unit="deg">6.0</takeOffAngle>
				</focus>
			</xRayTube>
			<sollerSlit id="21010002" name="Soller slits 0.04 rad.">
				<opening unit="rad">0.0400</opening>
			</sollerSlit>
			<mask id="22031000" name="Fixed mask 13 mm">
				<width unit="mm">9.00</width>
			</mask>
			<divergenceSlit id="22120001" name="Divergence slit 1°" xsi:type="fixedDivergenceSlitType">
				<distanceToSample unit="mm">50.00</distanceToSample>
				<height unit="mm">1.52</height>
			</divergenceSlit>
		</incidentBeamPath>
		<sampleMovement xsi:type="spinningSampleMovementType">
			<spinnerRevolutionTime unit="seconds">1.0</spinnerRevolutionTime>
		</sampleMovement>
		<diffractedBeamPath>
			<radius unit="mm">145.00</radius>
			<antiScatterSlit id="22090040" name="AS slit 9 mm (PIXcel)" xsi:type="fixedAntiScatterSlitType">
				<height unit="mm">9.00</height>
			</antiScatterSlit>
			<sollerSlit id="21020003" name="Large Soller slits 0.04 rad.">
				<opening unit="rad">0.0400</opening>
			</sollerSlit>
			<filter id="20030001" name="Large beta-filter Nickel">
				<material>Ni</material>
				<thickness unit="mm">0.020</thickness>
			</filter>
			<detector id="7010019" name="PIXcel1D-Medipix3 detector" xsi:type="rtmsDetectorType">
				<phd unit="keV">
					<lowerLevel>4.02</lowerLevel>
					<upperLevel>11.27</upperLevel>
				</phd>
				<mode>Scanning</mode>
				<activeLength unit="deg">5.542</activeLength>
			</detector>
		</diffractedBeamPath>
		<scan appendNumber="0" mode="Continuous" scanAxis="Gonio" status="Completed">
			<header>
				<startTimeStamp>2025-10-28T18:13:45-07:00</startTimeStamp>
				<endTimeStamp>2025-10-28T18:21:52-07:00</endTimeStamp>
				<author>
					<name>AutomatedUser</name>
				</author>
				<source>
					<applicationSoftware version="1.7b (136)">PANalytical Aeris Instrument Suite</applicationSoftware>
					<instrumentControlSoftware version="3.2.00000000 20240306">AERIS</instrumentControlSoftware>
					<instrumentID>950485</instrumentID>
				</source>
			</header>
			<dataPoints>
				<positions axis="2Theta" unit="deg">
					<startPosition>10.00943322</startPosition>
					<endPosition>99.99442286</endPosition>
				</positions>
				<positions axis="Omega" unit="deg">
					<startPosition>5.00471661</startPosition>
					<endPosition>49.99721143</endPosition>
				</positions>
				<commonCountingTime unit="seconds">12.495</commonCountingTime>
				<counts unit="counts">3711 3573 3659 3599 3657 3526 3619 3648 3630 3602 3451 3752 3658 3561 3643 3581 3555 3666 3600 3500 3606 3639 3644 3701 3705 3640 3701 3613 3593 3710 3609 3789 3605 3594 3676 3605 3569 3667 3653 3606 3705 3543 3711 3581 3721 3662 3698 3584 3807 3738 3690 3692 3649 3759 3690 3758 3675 3606 3792 3748 3696 3860 3714 3671 3724 3676 3779 3704 3753 3733 3810 3761 3822 3653 3750 3850 3733 3825 3807 3733 3789 3783 3746 3711 3810 3858 3715 3805 3788 3832 3857 3768 3785 3806 3880 3769 3931 3868 3805 3701 3734 3821 3894 3891 3730 3883 3900 3886 3730 3820 3910 3808 3879 3797 3797 3865 3812 3841 3799 3936 3691 3764 3880 3901 3793 3778 3778 3856 3831 3792 3782 3859 3878 3836 3872 3740 3763 3742 3788 3788 3749 3832 3846 3836 3820 3971 3793 3813 3803 3733 3896 3785 3820 3846 3756 3830 3843 3817 3788 3815 3935 3883 3771 3887 3919 3860 3905 3888 3912 3780 3805 3745 3925 3751 3813 3832 3698 3792 3730 3782 3861 3960 3825 3889 3841 3796 3763 3985 3704 3833 3837 3825 3773 3710 3823 3812 3775 3810 3906 3967 3822 3890 3792 3884 3885 3734 3898 3860 3862 3914 3778 3774 3669 3848 3852 3803 3836 3789 3973 3901 3859 3928 3890 3876 3813 3960 3915 3938 3849 3768 3771 3899 3809 3828 3827 3862 3919 3918 3797 3809 3780 3958 3873 3971 3846 3853 3838 3880 3848 3797 3812 3831 3793 3927 3739 3838 3958 3778 3833 4083 3867 3926 3781 3853 4015 3845 3816 3817 3920 3906 3761 3965 3938 3863 3891 3988 3971 3849 3895 3981 4018 3903 3753 3904 3910 3938 3821 3911 3843 3997 3895 4003 3993 3999 3987 4012 4001 3943 3973 4033 3998 3966 4004 3940 4030 4028 4087 4021 3951 4094 3976 3979 3882 4062 4212 4059 4239 4226 4150 4083 4023 4192 4151 4134 4119 4206 4067 4108 4146 4203 4136 4129 4175 4155 4144 4144 4175 4304 4225 4311 4167 4296 4203 4303 4361 4196 4167 4316 4143 4246 4350 4297 4254 4280 4243 4400 4404 4295 4411 4219 4302 4325 4413 4364 4469 4462 4438 4424 4421 4364 4374 4450 4382 4342 4390 4468 4467 4456 4458 4419 4410 4460 4531 4439 4579 4494 4408 4589 4600 4421 4531 4467 4575 4664 4588 4464 4613 4548 4530 4639 4548 4660 4565 4675 4530 4610 4625 4608 4628 4686 4794 4626 4620 4778 4836 4690 4791 4839 4943 4836 4750 4825 4759 4783 4909 4763 4989 4917 5083 4918 4946 4975 5016 5140 5233 5183 5268 5238 5185 5306 5287 5427 5554 5455 5624 5628 5711 5740 5696 5957 6020 6164 6178 6437 6421 6521 6570 6588 6834 7092 7033 7052 7299 7383 7542 7586 7815 7957 8013 8083 8399 8487 8713 8967 9036 9349 9458 9666 9809 10071 10447 10642 10870 10826 11118 11089 11483 11484 11388 11156 10957 10902 10644 10696 10167 10125 9852 9996 9714 9510 9511 9488 9165 9145 8935 9027 8724 8701 8441 8310 8309 7946 7837 7631 7409 7047 6941 6682 6540 6232 6178 5766 5718 5641 5456 5289 5219 5250 5080 5051 5092 4855 4865 4810 4779 4727 4830 4849 4680 4795 4740 4553 4534 4708 4750 4728 4575 4583 4709 4628 4621 4544 4555 4674 4562 4495 4640 4598 4618 4614 4494 4531 4560 4504 4594 4535 4517 4444 4446 4517 4490 4471 4511 4435 4453 4465 4512 4383 4325 4490 4478 4494 4394 4564 4372 4403 4463 4490 4495 4479 4521 4433 4504 4544 4303 4317 4439 4418 4412 4517 4349 4384 4503 4509 4437 4370 4425 4417 4371 4501 4415 4385 4402 4316 4264 4395 4374 4294 4391 4416 4491 4454 4326 4379 4353 4347 4391 4380 4323 4365 4393 4283 4360 4417 4462 4430 4248 4507 4455 4401 4524 4446 4415 4468 4392 4416 4381 4320 4455 4492 4518 4365 4438 4353 4436 4439 4390 4446 4380 4432 4444 4430 4412 4411 4530 4476 4550 4490 4422 4467 4537 4444 4466 4419 4541 4440 4552 4488 4528 4535 4492 4396 4610 4501 4497 4408 4464 4482 4483 4464 4489 4443 4461 4511 4492 4505 4531 4442 4435 4437 4298 4428 4395 4383 4429 4394 4454 4390 4381 4317 4476 4362 4360 4317 4232 4315 4362 4308 4337 4156 4451 4371 4423 4338 4314 4223 4272 4393 4242 4437 4085 4266 4391 4257 4358 4291 4247 4288 4278 4336 4432 4251 4415 4385 4415 4402 4342 4382 4325 4398 4347 4227 4303 4388 4356 4341 4216 4245 4387 4411 4362 4391 4260 4389 4218 4314 4214 4287 4355 4234 4340 4376 4394 4240 4265 4307 4376 4253 4326 4210 4363 4281 4288 4324 4333 4341 4115 4208 4414 4143 4232 4384 4351 4391 4311 4205 4280 4211 4331 4299 4434 4267 4397 4272 4243 4380 4256 4291 4181 4272 4271 4313 4195 4216 4225 4252 4159 4258 4323 4281 4227 4231 4173 4279 4392 4235 4342 4276 4269 4359 4283 4160 4258 4282 4277 4325 4163 4188 4196 4162 4192 4308 4331 4158 4352 4164 4189 4202 4243 4325 4271 4152 4234 4286 4291 4207 4301 4169 4310 4274 4297 4196 4247 4237 4270 4227 4320 4325 4281 4258 4265 4347 4293 4229 4228 4186 4187 4314 4222 4263 4206 4211 4169 4251 4068 4169 4192 4209 4165 4305 4232 4161 4142 4223 4251 4281 4145 4085 4270 4187 4253 4137 4204 4208 4220 4165 4170 4198 4171 4221 4122 4213 4230 4132 4150 4101 4195 4163 4124 4238 4195 4312 4254 4026 4138 4181 4080 4172 4243 4076 4180 4150 4104 4097 4276 4186 4150 4113 4163 4150 4070 4287 4201 4195 4144 4217 4089 4200 4059 4140 4145 4115 4056 4168 4086 4064 4056 4148 4191 4161 4156 4112 4094 4230 4052 4072 4151 4211 4236 4207 4265 4208 4075 4124 4177 4148 4088 4166 3977 4244 4173 4187 4154 4237 4124 4185 4191 4153 4060 4261 4137 4159 4143 4108 4049 3972 4117 4234 4198 4255 4100 4096 4095 4137 4095 4281 4193 4092 4168 4094 4248 4224 4131 4213 4131 4107 4223 4131 4154 4152 4201 4243 4244 4145 4129 4181 4182 4101 4103 4029 4200 4129 4190 4308 4099 4259 4099 4177 4156 4130 4095 4147 4229 4111 4254 4146 4246 4167 4222 4158 4242 4107 4203 4009 4293 4196 4173 4334 4125 4185 3989 4272 4119 4199 4213 4224 4144 4222 4145 4151 4206 4173 4192 4248 4158 4174 4151 4216 4167 4058 4133 4175 4061 4122 4225 4140 4134 4274 4209 4125 4039 4113 4101 4101 4160 4146 4240 4179 4177 4292 4209 4088 4222 4132 4215 4220 4194 4366 4231 4224 4259 4307 4116 4149 4187 4081 4061 4064 4204 4192 4239 4178 4174 4220 4206 4302 4220 4183 4036 4058 4148 4168 3922 4235 4132 4122 4180 4096 4121 4153 4033 4109 4102 4118 4081 4140 4205 4074 4186 4070 4185 4051 3924 4004 4042 4072 4125 4039 4113 4000 3995 4054 4084 4172 4022 4085 4087 4135 4054 4094 3940 4071 4053 4070 3984 4014 3989 4073 3864 4059 3993 3940 4036 4016 3950 3963 3921 3799 4165 4107 3895 3950 3924 4026 3982 3915 4078 3972 3928 3926 4050 3902 3926 3877 3934 3933 3991 3822 3864 3843 3925 4002 3960 3839 3896 3902 3818 4004 3814 3893 3780 3679 3880 3973 3855 3740 3903 3888 3842 3823 3902 3829 3899 3778 3803 3978 3726 3939 3725 3831 3904 3921 3902 3913 3804 3814 3830 3882 3829 3783 3792 3848 3707 3811 3745 3775 3721 3707 3804 3771 3733 3714 3763 3876 3774 3720 3777 3696 3812 3803 3860 3781 3787 3745 3726 3761 3733 3773 3700 3832 3678 3823 3777 3788 3773 3759 3799 3541 3689 3761 3632 3709 3816 3722 3670 3679 3733 3714 3832 3767 3713 3748 3752 3672 3697 3737 3688 3599 3839 3689 3743 3712 3779 3623 3641 3690 3783 3872 3729 3648 3784 3688 3803 3735 3743 3674 3656 3701 3793 3750 3770 3771 3775 3758 3703 3698 3759 3841 3732 3786 3760 3594 3649 3800 3858 3746 3747 3772 3616 3883 3754 3653 3825 3732 3826 3846 3792 3756 3862 3801 3882 3714 3745 3811 3742 3797 3751 3797 3692 3695 3761 3725 3783 3707 3744 3699 3723 3639 3636 3658 3778 3635 3723 3586 3719 3611 3592 3719 3602 3724 3685 3568 3673 3620 3579 3676 3721 3787 3663 3713 3654 3610 3677 3657 3722 3637 3657 3628 3603 3738 3646 3596 3739 3709 3628 3652 3538 3602 3622 3655 3654 3674 3634 3687 3757 3647 3629 3658 3782 3643 3617 3565 3568 3662 3625 3664 3785 3589 3700 3666 3663 3691 3683 3652 3558 3563 3734 3713 3728 3700 3773 3696 3657 3770 3779 3777 3707 3770 3609 3699 3720 3752 3755 3770 3672 3727 3712 3771 3724 3620 3695 3692 3756 3705 3657 3657 3771 3655 3646 3829 3689 3723 3761 3647 3634 3718 3669 3689 3584 3664 3705 3809 3670 3806 3781 3675 3671 3708 3732 3662 3673 3736 3672 3585 3650 3745 3554 3611 3655 3616 3637 3662 3665 3591 3734 3645 3716 3660 3630 3705 3631 3613 3668 3646 3625 3653 3640 3719 3611 3608 3560 3618 3679 3575 3691 3657 3674 3619 3594 3687 3613 3582 3669 3571 3593 3696 3544 3690 3804 3505 3595 3581 3652 3563 3592 3759 3677 3498 3624 3569 3611 3620 3610 3693 3595 3575 3642 3579 3546 3577 3525 3613 3607 3550 3593 3566 3509 3522 3523 3483 3612 3481 3466 3488 3599 3470 3602 3572 3542 3659 3578 3480 3560 3584 3613 3577 3618 3533 3534 3546 3543 3591 3427 3472 3492 3389 3438 3543 3453 3563 3433 3582 3599 3435 3468 3577 3450 3462 3350 3483 3523 3576 3375 3420 3482 3353 3609 3401 3412 3419 3420 3452 3500 3424 3434 3482 3414 3356 3522 3433 3348 3381 3432 3401 3493 3373 3381 3597 3457 3320 3483 3388 3427 3483 3345 3486 3493 3289 3424 3352 3359 3496 3431 3472 3436 3366 3390 3227 3397 3396 3463 3397 3428 3411 3393 3333 3383 3403 3315 3443 3381 3417 3335 3366 3414 3458 3303 3393 3381 3365 3384 3316 3380 3347 3281 3366 3424 3332 3403 3498 3413 3326 3476 3420 3412 3390 3382 3475 3384 3318 3474 3382 3537 3427 3405 3429 3534 3512 3511 3501 3609 3457 3431 3649 3570 3618 3568 3652 3516 3560 3630 3572 3622 3700 3722 3543 3661 3642 3684 3730 3600 3778 3695 3664 3699 3685 3802 3645 3664 3774 3839 3694 3870 3764 3777 3668 3807 3759 3827 3770 3867 3730 3835 3739 3778 3811 3878 3902 3798 3785 3824 3784 3632 3812 3574 3715 3671 3754 3712 3683 3643 3772 3616 3735 3594 3555 3566 3497 3560 3541 3592 3642 3620 3584 3519 3549 3511 3431 3497 3421 3579 3430 3398 3397 3382 3422 3396 3380 3410 3381 3502 3417 3369 3344 3420 3389 3467 3453 3446 3341 3463 3489 3454 3436 3422 3538 3400 3573 3506 3518 3472 3595 3616 3659 3685 3673 3799 3821 3794 3895 4015 3936 3966 4024 4087 4004 4079 4146 4104 4177 4284 4267 4342 4245 4271 4460 4534 4507 4424 4430 4399 4615 4597 4470 4685 4499 4637 4566 4628 4503 4552 4301 4405 4577 4470 4381 4318 4195 4299 4180 4144 4087 4044 3913 4010 3929 3978 3927 3765 3723 3709 3754 3658 3737 3617 3553 3616 3556 3555 3534 3532 3402 3534 3567 3464 3528 3518 3423 3368 3440 3320 3400 3514 3391 3465 3360 3350 3355 3371 3364 3393 3394 3340 3273 3330 3361 3380 3512 3380 3195 3318 3320 3172 3387 3116 3275 3293 3411 3282 3211 3236 3196 3248 3177 3199 3227 3195 3258 3212 3223 3188 3195 3280 3280 3301 3111 3145 3114 3183 3219 3183 3232 3178 3155 3222 3223 3209 3237 3351 3252 3088 3295 3250 3217 3231 3270 3192 3192 3266 3152 3220 3064 3217 3120 3202 3227 3180 3281 3057 3232 3136 3112 3182 3290 3182 3185 3102 3206 3289 3239 3157 3162 3241 3078 3112 3162 3155 3256 3127 3145 3249 3129 3165 3275 3163 3201 3191 3291 3223 3268 3158 3065 3163 3097 3217 3219 3070 3121 3111 3177 3127 3227 3114 3207 3181 3147 3292 3052 3259 3146 3139 3166 3180 3058 3279 3183 3150 3244 3263 3107 3165 3203 3216 3167 3165 3143 3164 3221 3179 3176 3193 3228 3079 3215 3249 3212 3185 3153 3195 3281 3233 3255 3179 3261 3220 3088 3254 3201 3167 3111 3195 3196 3217 3147 3195 3166 3264 3149 3221 3130 3213 3182 3164 3199 3225 3192 3149 3162 3243 3185 3162 3199 3259 3206 3073 3199 3253 3167 3146 3182 3247 3212 3240 3154 3269 3218 3021 3216 3216 3166 3250 3163 3189 3172 3102 3237 3235 3181 3239 3167 3187 3120 3208 3222 3138 3124 3234 3274 3189 3086 3143 3125 3161 3135 3113 3089 3247 3187 3190 3184 3197 3145 3153 3147 3150 3224 3196 3159 3222 3247 3200 3197 3194 3176 3078 3175 3124 3081 3238 3194 3194 3177 3237 3158 3122 3211 3177 3187 3094 3106 3132 3143 3252 3168 3178 3213 3138 3182 3240 3148 3319 3154 3160 3183 3103 3253 3232 3247 3339 3258 3228 3209 3288 3189 3248 3203 3312 3296 3160 3150 3197 3207 3302 3255 3288 3247 3197 3248 3294 3244 3245 3266 3288 3305 3131 3197 3337 3309 3204 3193 3307 3329 3283 3231 3272 3271 3262 3284 3336 3366 3334 3375 3355 3370 3272 3260 3277 3286 3384 3307 3397 3323 3518 3442 3398 3502 3414 3441 3546 3580 3715 3626 3725 3716 3809 3780 4018 3870 4067 3967 4191 4225 4339 4439 4636 4822 5093 5397 5523 5527 5620 5617 5603 5526 5448 5630 5676 5778 5651 5852 5815 5773 5649 5737 5798 5806 5977 5847 6070 6182 6437 6699 6725 6902 6873 6687 6376 6381 6258 6226 6203 6198 6274 6172 6040 5847 5768 5590 5757 5646 5611 5439 5567 5478 5407 5344 5350 5165 5047 5220 5122 4875 4960 4675 4760 4851 4688 4684 4655 4489 4577 4553 4445 4412 4425 4292 4441 4327 4237 4275 4253 4191 4093 4126 4156 4065 4069 3993 4088 3837 3898 3911 3821 3871 3914 3799 3770 3663 3638 3761 3639 3707 3596 3672 3646 3623 3459 3508 3528 3452 3429 3331 3404 3392 3522 3433 3260 3393 3430 3345 3314 3430 3242 3324 3268 3365 3237 3295 3316 3327 3186 3352 3295 3271 3201 3215 3288 3221 3280 3231 3277 3215 3168 3185 3166 3271 3264 3134 3249 3175 3244 3204 3156 3102 3081 3123 3167 3234 3078 3243 3184 3255 3227 3275 3180 3240 3123 3148 3166 3200 3188 3294 3211 3113 3252 3055 3124 3136 3175 3151 3201 3118 3122 3240 3068 3137 3258 3202 3158 3180 3036 3082 3136 3076 3143 3118 3124 3190 3021 3188 3117 3105 3124 3139 3209 3182 3131 3133 3129 3202 3074 3219 3055 3159 3244 3138 3079 3051 3115 3113 3172 3025 3097 3173 3092 3144 3132 3158 3208 3127 3073 3264 3134 3107 3024 3150 3260 3162 3086 3067 3173 3154 3053 3173 3178 3165 3011 3231 3082 3162 3145 3195 3136 3167 3018 3245 3038 3168 3096 3241 3218 3043 3158 3096 3164 3104 3081 3095 3168 3096 3132 3051 3045 3130 3171 3138 3138 3158 3120 3191 3086 3100 3102 3147 3118 3006 3138 3109 3145 3119 3194 3149 3186 3141 3155 3108 3111 3155 3096 3153 3058 3197 2987 3207 3029 3186 3100 2998 3220 3087 3194 3113 3110 3136 3096 3131 3044 3224 3000 3111 3171 3106 3117 3145 3225 3134 3201 3111 3169 3183 3110 3069 3111 3149 3179 3104 3216 3248 3266 3191 3241 3167 3223 3037 3265 3211 3211 3102 3132 3238 3241 3135 3256 3122 3200 3214 3096 3138 3191 3168 3144 3134 3205 3183 3139 3229 3165 3145 3134 3111 3102 3129 3144 3053 3196 3181 3218 3152 3059 3141 2977 3183 3198 3202 3139 3202 3137 3156 3015 3177 3144 3098 3130 3069 3180 3112 3264 3068 3180 3246 3033 3176 3098 3256 3236 3149 3195 3123 3071 3083 3058 3015 3096 3204 3049 3172 3123 3094 3140 3070 3005 3098 3096 3235 3172 3137 3125 3228 3219 3148 3135 3150 3102 3145 3084 3102 3161 3133 3045 3085 3188 3188 3169 3114 3124 3093 3081 3105 3095 2997 3041 3048 3101 3115 3025 3090 3070 3139 3020 3002 3039 3025 3115 3162 2978 3077 3102 3062 3035 2998 3131 3079 3027 3025 3008 3103 3056 2974 3079 3089 3049 3078 2920 3062 2933 3018 3012 2995 3078 3040 2905 3075 3056 3125 3133 3091 3162 3016 3099 2983 2973 3083 3081 3028 2964 3045 2990 2973 2991 3029 3012 3105 3002 3001 3023 2954 2994 3004 3078 3038 3073 3067 3041 3063 3084 3065 3065 3020 3034 2978 3150 2941 2944 3042 2991 3091 3106 3103 2999 3090 2891 3034 2975 3032 3026 3019 3060 2969 3021 2863 3061 2970 3035 2997 2954 3073 3045 3024 3036 3063 2998 3061 2961 3046 3002 2987 2949 2960 2955 3024 2917 2964 3024 3001 2923 2907 2960 2898 3054 2995 3049 2987 3035 2890 2964 3011 3041 2999 3010 3027 2972 2924 2982 3110 3058 3009 3032 3059 3144 3053 3070 2968 2943 2977 3017 2984 2955 2996 3059 3075 2856 3093 3046 2983 3004 3105 2985 3016 3043 3013 2993 2999 3083 2971 3004 3056 3030 3022 2958 3036 2943 2969 2985 2995 3013 3038 2994 3060 2953 3099 2976 3055 3062 3004 3043 2950 2950 3009 3019 2927 2973 3113 3029 2996 2937 3027 3026 2972 3037 2987 3075 3083 3027 3029 2932 2995 2975 3026 3110 3047 3039 3031 2966 2934 3133 2931 3040 2934 2911 2944 2951 2998 2944 2918 2928 2990 3092 3019 3004 3088 2929 2976 3005 2963 2947 3028 3115 2998 2993 3089 2993 2927 2911 3032 3069 3048 2924 3075 2998 3011 3001 2977 3040 2943 2949 3073 2910 3045 3146 3035 2970 2993 2932 3081 3035 3025 3018 2967 3059 3023 3010 3104 3032 2896 3009 3033 3011 3028 2923 3097 3033 2977 3004 3066 3059 3022 2946 2981 2946 3036 3039 3041 3102 3009 2876 3021 2983 3029 3036 2968 3000 3082 3008 3046 2921 3155 3111 3099 3032 3018 3135 3016 3117 2962 2999 3099 3070 2967 3026 3030 3018 3077 3114 2964 2992 3122 3145 3060 2973 2951 3056 2954 3082 3068 3173 3083 3165 3099 2988 3004 2985 2960 3109 3008 2988 3011 3035 3051 3002 3079 3099 2957 3071 2992 3033 2944 2955 3041 2943 3007 3029 3032 3025 2993 2926 2955 3101 2993 3063 2961 2988 2928 2904 2928 2865 2954 3073 3014 2951 2996 3027 3005 2994 2975 3108 3049 2930 2988 2952 2975 3109 2941 2941 3005 3017 2953 3005 2924 2974 2847 2900 3024 3061 2982 2992 3016 2918 2960 2980 3088 2881 2975 2946 2983 2847 3030 3039 2947 3047 3006 2884 2948 2940 2991 2900 2951 3023 3050 2937 2935 3056 2983 2953 2940 3006 2980 2957 3024 3013 2951 3026 3118 2971 3023 3003 3012 3056 2979 3018 3018 2999 2986 3063 2999 2980 2930 3042 2840 3024 2950 3004 2893 2947 3063 2983 3009 3058 2955 2937 3002 3024 2917 2988 2929 3037 3074 3064 2978 2965 3002 2925 2913 2898 3020 3022 3019 2951 2961 3017 3013 2964 3033 3047 3080 2980 3000 3125 3015 2951 2891 2961 3097 3053 2961 2912 3030 2987 2966 2997 3072 3069 2896 3017 3049 3036 3057 3040 2947 2999 3035 3096 2990 3013 3080 3033 2929 3120 3034 3087 3061 3095 2976 3016 3113 2929 3056 3138 2978 3157 3063 3121 3127 2985 3052 3147 3057 3088 3126 3136 3094 3228 3134 3097 3104 3161 3155 3099 3260 3312 3257 3286 3122 3175 3260 3168 3068 3204 3122 3300 3234 3146 3169 3308 3163 3184 3270 3319 3254 3297 3299 3212 3223 3188 3261 3376 3263 3220 3153 3309 3284 3372 3265 3353 3246 3132 3171 3312 3309 3269 3307 3274 3381 3237 3225 3181 3103 3169 3214 3223 3178 3080 3135 3139 3100 3214 3133 3087 3174 3350 3200 3189 3171 3116 3101 3120 3182 3115 3165 3112 3289 3091 3246 3272 3193 3136 3270 3185 3190 3259 3209 3169 3363 3192 3266 3296 3282 3203 3287 3260 3338 3332 3164 3244 3228 3227 3290 3228 3236 3199 3273 3253 3219 3196 3241 3106 3158 3136 3145 3069 3138 3110 3026 3127 3102 3217 3052 3088 3088 3123 3059 2996 3037 2986 3107 3026 3012 3097 3072 3108 3087 2985 3082 2967 3117 3061 3026 2968 3034 3053 3018 3043 3106 3128 2969 3146 2967 3035 3024 2995 2918 3068 3083 3004 2968 3081 3112 2956 2978 3059 3074 2916 3040 2986 3045 2973 3160 2978 3003 2979 3010 3077 2951 2940 3115 2944 3015 2997 2932 3000 2878 3013 2932 2929 2997 3035 3004 2996 3081 2988 2952 3045 3004 3030 3084 2939 2974 3083 2943 3142 3098 2997 2954 2950 3078 2995 3029 2990 3040 2962 2965 3028 3006 3086 3067 2924 3030 3018 3008 3093 3024 2999 3025 3000 3073 2921 3098 3066 3026 3071 3064 3067 3021 2970 3048 3007 2969 3055 3013 3009 2990 3016 2955 2935 3142 2982 3016 3088 3053 3063 3028 3072 3093 3006 3026 3028 2969 3008 3017 2968 3079 3030 2975 3089 3012 3017 2982 3088 3063 2973 2992 2949 3011 3071 3021 3063 2928 3061 3040 2937 3078 3062 2978 3026 3007 3064 3118 3052 2993 3000 3092 3076 3094 2996 3051 3014 2953 2970 2949 3053 3086 3006 3047 3006 3031 2941 3084 3058 3021 2907 3062 2990 2967 2913 3043 3035 2935 3158 2968 2962 3038 2946 2972 3066 2965 2962 3004 2997 3068 3091 3026 3051 2968 3007 2974 3077 3035 2999 3001 2979 2947 3026 3011 3069 3068 3001 2989 2930 3059 3061 3022 3009 3076 3023 3022 3129 3049 3120 3230 3154 3131 3049 3096 3180 3131 3160 3212 3146 3227 3166 3226 3217 3314 3301 3324 3295 3285 3291 3406 3396 3429 3500 3373 3355 3336 3476 3407 3556 3547 3573 3488 3682 3622 3796 3715 3722 3666 3745 3815 3960 4061 4151 4100 4221 4216 4100 3978 4171 4141 4049 4094 4248 4180 4331 4334 4290 4340 4244 4350 4278 4188 4180 4167 4270 4169 4191 4114 4214 4199 4001 4129 4047 3991 4070 3941 3995 3806 3890 3900 3764 3750 3768 3714 3841 3633 3750 3581 3676 3682 3663 3586 3483 3550 3612 3630 3686 3550 3538 3529 3481 3623 3564 3597 3460 3559 3596 3535 3520 3530 3664 3639 3628 3534 3493 3616 3571 3600 3762 3611 3557 3526 3569 3563 3654 3652 3656 3665 3681 3630 3625 3630 3688 3705 3737 3654 3603 3713 3652 3622 3665 3587 3619 3533 3586 3702 3545 3554 3617 3621 3515 3462 3470 3506 3433 3494 3440 3423 3591 3484 3500 3379 3350 3488 3354 3426 3430 3448 3438 3348 3414 3428 3462 3461 3314 3231 3285 3266 3239 3197 3297 3211 3206 3149 3019 3300 3069 3119 3179 3137 3227 3003 3191 3155 3102 2985 3098 3225 3067 3015 2990 3058 3003 3083 3009 3046 3043 2984 2983 3067 3116 3081 3006 2994 3065 2987 3050 2989 3065 2963 3076 3063 2941 3106 2942 3130 2926 2980 3009 2978 3028 3021 2904 2987 3012 3085 3076 2970 3034 3057 3046 3003 2935 3067 2976 3089 2965 3055 3073 3097 3114 3078 3072 2987 3010 3123 3166 3071 3149 2997 3022 3144 3058 3049 3013 3074 3133 3164 3046 2959 3061 3062 3160 3098 3103 3089 3081 3193 3190 3083 3184 3145 3084 3104 3059 3090 3041 3207 3102 3202 3101 3149 3121 3213 3122 3245 3114 3226 3167 3032 3080 3164 3144 3136 3095 3208 3206 3220 3113 3036 3093 3071 3196 3250 3138 3217 3075 3099 3117 3092 3219 3098 3082 3113 3112 2993 3114 3141 3125 3140 3071 3006 3144 3183 3103 3074 3195 3043 3129 3146 3176 3109 3142 3137 3135 3096 3095 3220 3181 3031 3163 3071 3079 3078 3174 3131 3132 3153 3220 3127 3208 3086 3158 3130 3047 3036 3085 3010 3151 3187 3100 3124 3154 3017 3198 3113 3062 3151 3179 3161 2990 3089 3123 3165 3053 3142 3183 3062 3160 3162 3115 3188 3097 3134 3062 3084 3059 3018 3049 3037 3090 3037 3036 3047 3015 3087 2917 3124 3125 3091 3073 3004 3058 3038 3000 3015 2998 3068 2980 2989 3090 2996 2962 3017 2989 2961 2999 3012 2990 3014 3050 3064 3066 3104 3024 3037 3021 2922 2820 2921 2990 3005 3009 2894 3011 3018 2949 3031 2927 2974 2966 2980 2917 2984 2874 3013 2941 2862 2990 2993 2940 2924 2997 3029 2916 2924 3005 3015 2925 2932 2939 2976 2944 2970 2918 2823 2906 2952 2908 2942 2983 2958 2899 3009 2998 3020 2955 2995 2938 2934 3018 2917 2909 2937 2990 2875 3050 2906 2997 2941 2804 2819 2985 3019 2904 3032 2987 2992 3057 2928 2922 3061 2871 3027 2896 2959 2969 2963 2964 3061 2859 2999 2889 2950 2991 2862 3008 2946 2922 3001 3093 2888 2901 2997 2895 2926 2937 2964 2935 2908 2961 2983 2899 3028 2947 2913 2886 2898 3058 2955 2851 2964 2963 2939 2935 2944 2993 3072 2964 2946 2921 2889 2958 2922 2984 2990 2973 3013 2935 3012 3013 3041 3000 2960 2876 2927 2881 3038 2879 2865 2897 2975 2932 2966 2974 2905 3043 3039 2937 2976 2938 2983 2935 2975 2932 2966 2925 2937 2918 3015 3008 2982 2968 2916 2967 2955 2961 2836 2987 2901 2960 3039 2969 2899 2926 2950 2893 2889 3034 2944 2947 2957 2939 2985 2984 2867 3039 2951 2931 2986 2991 3003 2924 2973 2912 3006 2863 3080 2974 2914 3003 2964 2935 2966 3040 2957 3140 2947 2894 2928 2942 3008 3033 2906 2972 2996 3111 3041 3042 2890 2975 2960 2894 2937 3014 2926 2954 3040 3014 2927 3036 2981 2982 2918 2983 3019 2973 2960 2901 2907 3035 2921 2957 2995 2970 2990 3012 2986 2987 3034 3074 2898 3060 2926 2969 2990 2966 2975 2967 2957 3022 3008 3002 3023 2977 2919 2970 2919 2968 2968 2971 2938 2992 2922 2927 3001 2979 2904 2910 2841 2918 2944 3018 2955 3071 2914 2974 2978 2940 2913 3033 2991 2947 2761 2921 2898 3025 2981 2934 2948 2944 3018 2968 2931 2926 2983 3022 2989 2945 2926 2973 2888 2934 2986 2997 2866 2866 2903 2943 2999 2902 2927 3077 2971 2993 2974 2898 2984 2884 2965 2925 2864 2938 2926 2969 2933 2955 2831 2940 2994 3001 2975 2916 2964 2991 2956 2938 3007 3045 3054 2879 2951 3041 2996 2940 2967 3017 2948 3003 2940 2946 2988 3026 2963 2915 2895 2976 3018 2983 3006 3054 2987 2946 2992 2919 3060 3026 2942 3100 3020 2991 2917 2923 2902 3011 3016 2962 2898 3001 2979 2982 2885 3030 2981 2965 2899 3009 2928 2991 2912 2990 2921 2917 2956 3009 2913 2965 3024 3026 2987 2991 3106 2952 3050 2979 2931 3034 2959 3018 3001 2942 3020 2965 3000 2993 2971 2945 2948 2976 3058 3027 2892 3060 2955 2951 2941 2941 3012 2970 2947 2933 3043 3067 2947 3022 3028 3037 3114 3003 3116 3016 3037 3094 3062 3135 3014 3051 3041 2991 3025 3154 3075 3136 3085 3200 3164 3123 3132 3164 3102 3165 3125 3240 3141 3158 3220 3287 3388 3119 3314 3294 3221 3203 3281 3311 3256 3262 3222 3208 3230 3327 3231 3332 3240 3239 3245 3197 3298 3143 3203 3150 3139 3162 3145 3123 3081 3199 3108 3104 3064 3049 3107 3021 3142 3136 3016 3093 3128 3075 3112 3062 3040 3031 3018 3006 2956 2923 3014 3069 3006 2924 3026 2976 2981 3010 3027 3027 2994 3018 2957 3092 2903 3034 3038 2966 2971 2948 2946 3066 3012 2988 2932 2971 3046 3069 2969 2957 3054 2876 2963 2965 2972 2993 3011 2978 2967 2948 3047 2916 2949 2901 2935 3018 3028 2964 2910 2940 3012 2953 2939 3048 2950 3034 2939 2788 2954 2964 2974 3082 2866 3018 2985 2944 2919 2947 2953 2975 2961 2901 3066 3050 2976 2974 2964 2946 2977 2958 2972 2896 2993 2940 2872 2945 2957 2958 2922 2960 2965 2917 2918 2987 2963 2884 2924 2874 3045 3013 2990 2959 2863 3074 2938 2903 2964 2928 2973 2963 3033 2966 2935 2978 2977 3140 2915 3063 2962 2948 3067 3010 2915 3019 2961 3026 3017 2858 2864 2883 2972 2973 2953 2981 2960 2955 2989 2916 2914 2960 2983 2987 3009 2995 3006 3021 3044 2981 2852 3039 2928 2934 2940 2995 3006 3082 2899 3006 3001 2968 3106 3023 3108 2909 2972 2989 2964 2969 3068 3083 3005 2996 3120 2940 3004 3136 3046 3018 3150 3185 3029 3204 3172 3082 3179 3090 3034 3209 3198 3170 3149 3175 3196 3225 3207 3267 3270 3114 3176 3153 3206 3049 3140 3207 3131 3084 3263 3237 3035 3199 3134 3238 3190 3180 3174 3240 3155 3202 3169 3218 3267 3243 3288 3338 3305 3316 3308 3349 3355 3371 3423 3481 3392 3504 3354 3380 3336 3401 3275 3324 3379 3397 3342 3329 3371 3272 3432 3368 3324 3236 3379 3318 3240 3277 3164 3274 3145 3162 3172 3280 3188 3233 3219 3207 3183 3202 3166 3197 3220 3118 3285 3162 3210 3228 3182 3216 3089 3154 3134 3114 3145 3062 3206 3107 3167 3185 3149 3101 3133 3089 3127 3056 3186 3255 3131 3196 3141 3250 2954 3124 3075 3201 3231 3304 3259 3253 3199 3248 3183 3366 3295 3304 3338 3266 3326 3308 3349 3372 3338 3333 3413 3483 3343 3380 3528 3382 3374 3367 3330 3431 3495 3445 3459 3444 3330 3396 3392 3416 3348 3378 3410 3373 3347 3441 3272 3361 3373 3284 3306 3305 3309 3299 3186 3245 3196 3182 3219 3211 3223 3135 3128 3150 3057 3178 3136 3145 3084 3178 3106 3002 3166 3116 3173 3152 3115 2992 3150 2975 3096 3088 3188 3138 3127 3092 3164 3124 3087 3061 3080 3135 3092 2968 3082 3007 3031 3079 3047 2934 3027 3023 3062 3028 3080 3103 3100 2991 2964 3114 3086 2991 3020 3007 2975 3022 3036 3144 2997 3076 3063 3092 3132 3046 3139 2980 3053 3019 3033 2972 3080 3102 3088 3139 3088 3141 3133 3017 3150 3048 3008 3158 2985 3016 2977 2971 3072 3046 3003 3024 3086 3037 3096 3119 3087 2933 3034 2966 3010 3080 3036 3054 2919 3037 2994 3045 3022 2897 3007 3041 2956 3006 3031 3003 3087 3068 2991 2941 2977 3028 2991 3038 2946 3037 2961 3005 3010 2982 3052 3073 2971 3082 3024 3116 3044 2996 3032 2944 3037 3087 3092 3056 3058 3043 3044 3071 3127 3026 3034 2986 2984 3048 3107 2984 2990 3031 3059 3016 3034 3001 3044 3036 3144 3060 3009 3155 3056 3048 3041 2934 3036 3035 3003 2990 3074 3012 2991 3048 3007 3052 3106 2947 3044 3007 2979 3113 3012 3022 3088 2976 2947 3066 2981 3021 2950 3014 3033 3014 2945 2974 2974 2871 2955 2837 2991 3017 2844 2994 3087 2862 2895 2869 2935 3009 2998 2899 2917 2913 2906 3004 3043 2972 2960 2986 2815 3050 2915 2960 2980 2930 2883 2995 3012 2981 2970 2920 3015 2995 2896 2998 2958 2931 2979 2978 2900 2885 2931 3012 2998 2898 2909 2980 2939 2878 2887 2943 2946 2921 3055 2938 2981 2937 2933 2877 2963 2901 2856 2911 2782 2995 2992 2898 2909 2875 2921 2927 2973 2963 2949 2974 2961 2920 2879 2898 2888 2874 2916 2937 2994 2907 2973 3005 2918 2945 2893 2887 2926 3026 2792 2883 2786 2959 2946 2946 2960 2981 2931 2904 2965 2934 2939 2925 2865 3008 2903 2913 2811 3009 2991 2884 2987 2828 2985 2916 2953 2870 2870 2935 2908 2945 2875 2969 3056 2904 2888 2850 2862 2908 2925 2955 2914 3031 2868 3077 2903 2931 2960 2928 2926 2951 2933 2924 2898 2966 2922 3045 2904 2928 2984 2948 3021 2927 2874 3062 2899 3048 2935 3031 2952 2929 2953 2922 2865 2974 2980 2935 2966 2910 2993 2907 2983 2998 3028 3027 2947 3014 2943 3002 2899 2987 2936 3021 2927 2968 2996 2972 3004 3017 3053 3035 2981 2814 2959 2990 2972 2936 3009 2994 2908 2920 2993 2789 2914 2985 2986 2983 2909 2958 2940 2944 2886 2878 2947 2921 2931 3000 2944 2943 2901 2866 3033 2903 2907 2842 3017 2886 2909 3071 2984 2949 2927 2973 2978 2990 2951 2878 2968 2927 2881 2987 2961 2935 2762 3005 2902 2930 2903 2928 2955 2937 2935 2922 3050 3041 2971 2892 2868 2946 2889 3021 2991 2881 2933 2967 3049 2914 2921 3023 2984 2889 2961 2978 2868 2886 2973 2864 3014 2797 2886 2952 2858 2974 2947 2813 2915 2909 2932 3053 2963 2945 2960 2851 3040 2934 2976 2977 2872 2885 2917 2954 3005 2868 2875 3039 2870 2985 2954 2978 2940 3004 2943 3007 2956 2871 2859 2952 2967 2879 2896 2922 3014 2879 2998 2898 2931 2935 2938 2918 3028 2908 2940 3013 2978 2918 2918 3013 2928 2964 3000 3001 2934 3011 2911 2960 2862 3011 3031 2968 2994 2987 2950 2903 2887 2875 2881 2893 2956 2939 2912 2998 2956 3025 2875 3042 3015 3050 2899 3001 2983 2886 2935 2916 2930 2971 2962 2873 3071 2890 3025 3032 2916 2921 3015 3015 2972 2945 2999 3016 2852 2999 2982 2968 2926 2939 2949 3028 2991 2899 2889 2915 3044 2967 2987 2964 2976 2962 2957 2963 2973 3014 3043 3001 2880 2968 2994 3034 2988 2916 2918 2980 2994 2977 3003 2932 2972 2963 2989 2894 2920 2986 2944 2900 2989 2964 2901 2938 2839 2862 2976 2980 3068 2886 2938 2975 2853 2999 2946 2989 2964 2936 2930 2950 2999 2875 2941 2943 3003 2936 2995 2931 2969 2911 2867 2930 2966 2893 2967 2914 2910 3006 3016 2961 2868 2959 2899 3001 2907 3090 2947 2982 3053 2954 2929 2937 2920 2920 2839 2933 2924 2886 2926 3076 2960 2898 2970 2909 2881 3011 2958 3039 2954 2926 2964 3007 2958 2941 2948 3068 3047 2963 3027 2980 3022 3008 2969 2840 2928 2933 2949 2933 2995 2973 2987 2946 2911 2902 2844 2953 2999 2924 2925 2975 3016 2975 2889 2944 2927 2967 2951 3013 2942 2922 2908 3029 2958 2918 2937 2878 2884 2897 3011 2959 3006 2991 2937 2893 2921 2871 3009 2961 2988 2951 2918 2836 2903 2912 2884 2913 2919 2933 2883 2896 2990 2919 2979 2939 2853 2950 2937 3034 2951 3050 2911 2920 2965 2971 2974 2957 3010 2825 2977 2903 3014 2896 3101 2913 3051 3020 3069 2941 2957 2917 2919 2934 2847 2938 2979 2972 2985 2980 2993 2900 3016 2868 3024 2934 2997 2974 2988 2983 2967 2965 3032 2908 2901 2862 3037 2935 2945 2999 2978 2956 3043 3028 2999 3023 3046 3081 2940 2974 2977 3049 2923 3006 3038 2975 3017 2996 2972 2980 2997 2922 2959 3093 3055 3018 3040 3066 2949 2953 3187 2982 2965 3012 3026 3044 3022 3053 3064 3071 3035 3114 3086 3077 3061 3003 3034 3094 3174 3028 3097 3077 3200 3182 3157 3088 3116 3227 3125 3067 3019 3047 3061 3095 3051 2989 3095 3076 3041 3022 3115 3117 3096 3024 3021 3090 3040 2969 3026 3092 3133 3041 2931 3059 3042 3070 2980 2895 3059 2985 2981 2980 2972 2979 3049 2998 3053 2999 3031 3026 3079 3016 2966 3000 2988 2959 3146 2913 3058 2995 3142 2936 2969 3007 3078 2948 3091 2977 3054 2930 2863 2970 3038 2977 2976 2966 2924 3016 3063 2915 3008 2892 2973 2963 2973 3053 3007 2999 2887 2903 2987 2967 3022 2929 2969 3016 3000 3009 2972 2965 2917 3085 2991 2966 2877 2912 2931 2970 2938 3047 3000 2888 2974 3085 3016 3004 2979 2906 2976 2985 2967 2991 2861 2994 2911 3031 3014 2995 3054 2954 2834 2915 2980 2968 3018 2994 2918 2957 2890 2961 2944 2975 3059 2902 3001 2964 2960 3019 2879 3064 2910 2953 2956 2915 2912 2922 2977 2966 2980 2914 2943 2904 2868 2954 2943 2844 2953 3053 3020 2858 3070 2876 2951 2955 2947 2877 2962 2946 2924 2967 2959 3007 3022 3014 2937 2914 2964 2957 3060 2900 2968 3036 3001 3029 2919 3065 3016 2954 2896 3029 2963 3005 2959 2886 3006 2935 2844 2950 2979 2972 2913 2939 3048 2983 2873 2957 2981 2960 2997 2884 2950 2963 2897 2975 2874 3064 2978 2912 2938 2975 3035 3030 3026 2934 3004 2989 2865 2980 2983 3010 2913 3014 3027 3058 2863 2971 2965 2927 2962 2888 2924 3051 2973 2884 2969 2958 2885 2891 2939 2878 2914 2946 2929 3027 2903 2873 3025 2885 3012 3093 2871 2984 2948 2940 2867 2893 2995 2945 2933 2865 2960 2918 3042 2938 2859 2935 2882 2964 2934 2941 2915 3055 2947 2915 2924 2957 3014 2985 2763 2865 2913 2923 3000 2933 2955 2969 2841 3037 2860 2895 3009 3011 2892 2958 3011 3047 2985 2866 3022 2971 3006 3014 2933 2952 3067 2958 2987 3111 2973 2920 3033 2932 2895 3053 2961 2938 2975 2944 2997 2938 3009 2969 2982 2951 2866 2912 2886 2993 2965 3051 2913 2912 2979 3058 2850 2963 2998 3032 3054 2941 3041 2987 3092 2879 2889 2794 2926 2942 2843 2902 2949 3000 2959 3008 2952 2977 2917 2921 2884 3084 2915 2909 2948 3055 2955 2784 2904 2865 2839 2924 2937 2984 3012 2961 2985 2914 3008 2933 2924 2977 2926 2890 2921 2952 2869 2926 2917 2982 2983 2986 2887 3059 2951 2914 2938 2954 2872 2883 2954 2934 2868 2895 2868 2910 2907 2905 2943 2998 2963 2904 2787 2951 2914 3072 2903 2890 2992 3000 2896 3077 2973 2879 2959 2899 2939 3027 2914 2854 2843 2974 2869 2949 2966 2980 3018 2923 2953 2953 2881 2921 2891 2998 2896 2950 3011 2886 2935 3046 3003 2919 2938 3007 3010 2972 2988 2946 2978 3043 2915 2951 2974 2871 2860 2992 2963 2965 3018 3052 2875 2964 2883 2973 3001 2978 3025 2932 3040 2861 2926 2999 2925 2962 3025 2925 2973 2951 3057 2953 3043 2829 2897 2996 3003 2988 3079 2926 2932 3065 2909 2899 3069 2939 2845 2901 2935 2885 2874 2943 2950 2893 2911 2926 2915 2928 2810 3051 2976 2901 2918 3002 2991 2994 2975 2941 3049 2875 2788 3021 2946 2984 2944 2875 3047 2961 2999 2942 2909 2910 2998 3038 2974 2974 2961 2891 2915 3037 2926 2900 2920 2866 2910 2970 2939 2981 3015 2878 2947 3002 3100 2999 2943 2905 2936 2936 2999 2938 2893 3040 3041 2899 2930 3036 2935 2917 3154 3008 2929 2883 2892 2971 2998 2884 2883 2931 2924 2918 3041 2965 2958 2945 3068 2999 2881 2989 2880 3000 3027 2984 3070 3018 2977 3033 3039 2939 3007 2963 3016 2971 2932 3003 3015 2937 2885 2907 3022 3004 2919 2997 2858 2968 3065 2990 2936 2971 2863 2944 2899 3004 2841 2955 2990 2968 2975 3024 2927 2950 3000 3042 2941 3061 2917 2910 3040 3036 3015 3005 2982 3075 3070 2999 3007 3033 3092 3094 3005 2911 3044 3116 3074 2939 2980 2950 2978 2987 2982 3109 3069 3056 2999 3003 3000 3001 2995 2980 2916 2862 3015 3028 3042 2974 3009 2835 3048 3015 2986 2906 3023 3032 3118 2921 3080 3024 2997 3106 3005 3052 2999 3064 3121 3047 3147 3081 3002 2993 3065 3032 3042 3035 3013 3009 2960 3086 3060 2998 3031 3079 2915 3091 2959 3051 3166 3067 3074 3013 2934 2991 3121 3023 3004 3053 3084 3011 3070 3049 2952 2895 3032 2991 3059 3039 2945 2978 3105 3006 3030 2977 3052 2900 3031 2956 3029 3037 2913 3112 3004 3027 2966 3018 2917 2934 3088 3051 2963 3004 2998 3078 2975 3087 3030 3018 3097 3037 3021 3055 3153 3079 3084 3055 3001 3092 2993 2992 2979 3004 2925 3000 3023 2982 3055 3095 3119 3037 3031 3022 3044 2962 3025 3046 2971 3040 2995 3086 3075 3074 3063 2984 3060 3056 2953 2976 3013 3077 3034 2951 2998 3050 3048 2931 3062 3036 2973 3035 3028 2961 3052 3017 2997 3006 3005 2897 2963 2987 2988 3015 3068 2916 2994 2971 2925 2938 3029 3059 3057 2996 3083 2976 3005 2947 2973 2936 3058 3067 3042 2945 3044 3005 3060 2930 2907 3036 3005 3118 2938 2975 3024 3075 3076 3023 2938 2994 2916 3094 2994 2953 2954 3001 3126 3103 3072 3012 3007 3147 3067 3069 3103 3017 3113 3045 3079 3077 2966 3007 2987 3002 3072 3050 3052 3003 3026 3068 3091 3090 3047 3024 3122 3099 3080 2971 3000 3047 3023 3092 3060 3030 3072 3104 3053 3080 3064 3061 3098 3119 3063 3100 3136 3144 3209 3060 3191 3126 3311 3149 3187 3301 3085 3202 3160 3265 3234 3172 3208 3201 3324 3349 3237 3259 3184 3296 3165 3269 3282 3208 3193 3236 3255 3211 3224 3159 3184 3188 3173 3105 3211 3187 3261 3156 3281 3178 3217 3193 3259 3092 3213 3212 3221 3126 3311 3156 3153 3198 3093 3099 3194 3167 3093 3126 3081 3137 3127 3057 3105 3181 3088 3228 3128 3014 3088 3098 3086 3012 3091 3102 3083 3049 3151 2959 3122 3083 3040 3138 3023 3073 3123 3047 3049 3114 3051 3055 3098 3097 3036 3100 3005 3124 3060 2978 2945 3074 3021 3032 3073 3042 3136 3097 3133 3062 3136 3049 3082 3050 3036 3073 3060 3072 3188 3243 3076 3075 3018 3090 3015 3074 3156 3066 3093 3054 3149 3080 3076 3192 3054 3109 3056 3138 3183 3084 3098 3077 2999 3119 3103 3053 3045 3167 3180 3138 3103 3104 3145 3194 3063 3144 3162 3101 3222 3104 3083 3167 3091 3089 3180 3196 3131 3044 3006 3133 3052 3141 3027 3212 3115 3035 3059 3117 3047 3064 3111 3179 3053 3000 3092 2976 3051 3109 3026 3079 3070 3131 3049 3098 3127 3127 3000 3011 3111 3063 3054 2992 3135 3082 3068 3088 2945 3084 3162 3209 3000 3043 3024 3031 3038 3098 2944 3028 3105 3111 3057 2964 2975 3003 3105 3188 3038 3089 3085 3104 3096 2970 3020 3065 3123 3000 3082 3107 3076 3090 3092 2993 3084 3129 3074 3075 3133 3063 2980 3116 3042 3068 3125 2961 3061 3068 3025 2988 3067 2980 3054 2967 3052 2969 3037 3010 3148 3012 3049 3052 2930 3031 2939 3000 3073 3024 3053 3021 3034 2944 2976 3055 3005 2934 2952 3036 3055 2951 3036 3000 2997 3006 3046 2923 3073 2956 2971 3022 2961 3020 2927 3051 3037 3075 2960 3054 3018 2960 3037 3006 2995 3047 2952 2995 2973 3070 2934 3022 2949 3129 2957 3002 3025 3093 3038 3065 3034 2985 2954 2893 2867 3102 3022 3097 2998 2915 3036 2956 2911 3057 2925 2965 2922 2958 2986 2991 2961 3035 2994 3016 3008 2997 2967 2990 2999 2991 3001 2933 2931 3000 2986 3016 2988 2981 3004 2999 2892 2958 2882 2976 2917 2995 2951 3007 3008 2862 2963 2928 2922 2961 3039 3096 2963 2947 3110 2937 2939 2965 2926 3069 3020 2992 2875 2891 2886 3052 2847 2902 2977 2915 2986 3030 2983 3014 2925 2994 3010 3042 2914 2979 3038 2949 3043 3038 2942 2910 2908 3030 2938 2935 2986 2953 3043 2993 2950 2944 2957 2903 2920 3004 2933 3024 2944 2982 2987 2972 2936 2959 3013 3065 2892 2945 3033 2904 2928 2994 2976 2909 2970 2903 3008 2990 2899 2942 2930 2950 2980 2941 2840 2998 2971 2996 2874 2882 2945 2968 2972 2939 2989 2994 2976 2887 2998 2906 2966 2990 2954 3001 3077 2990 3005 2995 2920 2955 2997 2928 2960 2862 2989 2914 2966 2857 2892 3047 2959 2965 3133 3099 2978 2961 2970 2851 2940 2980 3050 2928 2906 3016 2947 2979 3022 3003 2987 2964 3001 2995 2974 2940 2878 3098 3071 2942 2916 2983 2915 2932 2998 2931 2973 2961 2935 3002 2902 2885 2877 2892 3044 2974 3053 2946 2989 2972 2935 3038 2927 2932 3015 2938 3044 3012 3097 3099 2935 2938 2895 2949 3050 2995 2961 3058 2883 2983 2961 2989 2985 2885 3060 2908 2854 2992 2922 2850 2863 2952 3046 2967 3029 3011 2946 2979 2993 2991 3007 2912 2914 3060 2979 3158 2918 2970 2979 2850 2961 2991 2955 2919 2992 3000 2913 2998 2935 3053 3048 3008 2957 3087 2927 2982 2950 2921 2929 2894 3077 2984 2930 2909 3005 3057 2981 3121 2925 2964 3033 3000 2978 2968 2978 3026 3000 3027 3004 2921 3032 2978 3027 2982 2994 3082 3070 2995 3108 3033 3016 2879 2986 3038 2958 2941 2961 3074 2967 2920 2963 3008 2894 3010 2928 2952 2978 2933 2986 3079 3061 3018 3033 3061 3050 3050 2953 2911 3049 2988 3076 3011 2917 3032 2921 3087 3052 2961 2957 2975 2951 3081 2986 2944 2962 2986 2999 3032 2988 2963 3019 3024 2983 2897 2926 2992 3038 3037 3040 3014 3013 2928 2981 3079 2967 2955 3014 2986 2978 3012 2960 2964 3106 3033 3107 2997 2956 2998 3075 3030 2902 3002 2997 2963 3101 2981 2988 2990 3000 3020 3003 3018 2956 3050 2922 2927 2996 3042 3021 2931 2955 2975 3024 2970 2910 2886 2941 3059 3032 3064 3005 2945 2939 2921 2923 3011 2876 3002 3020 3082 3007 3004 2958 2917 2982 2950 3043 2931 2950 2993 3004 2970 2982 3012 2943 3037 2945 2963 2878 2990 2997 2980 2916 2999 2956 3007 2963 2950 3025 2956 3034 3017 2933 3027 2954 3030 3003 2988 2910 2902 3005 3004 2921 3126 2997 3014 3119 3011 3079 2819 2953 2983 2984 2983 3016 2889 2972 3053 2998 3023 3018 3021 2998 2964 2969 2980 2983 2934 3001 3010 2920 3003 2966 2927 3012 2930 2880 2970 2955 3013 3034 2932 2977 3050 2983 2995 2989 2944 2916 3025 2944 2961 2895 3046 3048 3059 3011 2915 3000 2944 3044 3047 2904 3054 2902 2994 3004 3058 3030 3042 3053 2948 2999 2984 3033 2970 3008 3028 2926 3059 3055 2993 2987 2993 2980 3104 3054 3050 3093 3198 3011 2997 3139 3014 2951 3049 3057 2949 3047 2932 3042 3088 3049 3045 2987 2987 3070 3096 3009 3026 3019 3136 3143 3078 2966 2987 3092 3185 3024 3028 3147 3013 3095 3089 3075 3145 3073 3008 3050 3014 3004 3002 2994 3047 3071 3039 3070 3164 3053 3149 3060 3081 3039 3134 3034 3092 3007 3090 3096 3176 3038 3167 3193 3070 2967 3042 3088 3189 3070 3207 3054 3192 3092 3180 3155 3173 3092 3117 3164 3107 3104 3037 3112 3085 3075 3129 3086 3176 3147 3076 3146 3118 3070 3142 3212 2989 3169 3045 3105 3019 3054 3114 3114 3059 3167 3078 3096 3057 3107 3090 3229 3097 3113 2993 2927 3164 3125 3033 3112 3072 3093 3159 3127 3060 3193 2978 3069 3065 3124 3106 3019 3052 3085 2989 3078 3011 3112 3044 3047 3046 3040 2943 3045 3094 3073 3051 3078 3055 3062 3047 2970 2985 3049 3074 3021 3095 3031 2993 3031 3162 2965 3009 3127 3127 2984 3113 3079 2994 2937 3091 3029 2961 3079 2894 3014 3104 3103 3047 3039 3119 2992 3068 3139 3015 2974 3007 3014 3059 3021 2997 3023 3026 3014 3029 2965 3048 3100 3043 3065 3077 3114 3096 3094 3083 2928 3074 3012 3089 3060 3080 3138 3028 3148 3005 3151 3082 3066 3067 3060 3084 3071 3074 3045 3115 3022 3080 3038 3087 3064 3109 3091 3112 3055 2946 3065 3083 3070 3085 3151 3092 3052 3026 3086 3099 3077 3159 3110 3005 3214 3047 3181 3118 3141 3132 3097 3114 2983 3047 3067 3098 3091 3088 3165 3038 3003 3102 3053 3040 3121 2994 3147 3023 2949 3147 3079 3052 3103 2975 3036 3077 3103 3057 3062 3096 3058 3140 2950 3067 2982 3034 3042 2981 3092 3070 3199 3019 3122 3033 2984 3042 3020 3101 3120 2991 2982 2949 3028 3003 3119 3019 3088 2986 3094 2996 3030 2999 3004 3024 3016 2898 3102 3000 3008 3043 3028 2982 2966 3109 3055 3001 2973 3027 3041 3035 2978 3103 3032 3014 2973 3123 3038 2932 3025 3018 2946 2920 2900 3050 2995 2935 3124 3007 3078 3014 3044 3017 2915 3039 3030 2925 3080 3053 2991 3053 3014 2952 2983 3032 2974 3049 2918 2918 3076 2970 2998 3029 3029 2911 2953 3019 3045 2989 3009 2876 3024 3082 3137 2948 3072 2940 2951 3030 3027 3019 3040 2956 2989 2941 2988 3041 3076 2978 3057 2912 3010 3059 3010 2943 2958 3044 2960 2960 3015 3027 3093 3000 3013 2858 3028 2987 3041 2950 3050 3070 2977 3020 2995 3094 3053 2959 2972 3036 3019 3098 2864 2965 2895 3038 3022 2921 2986 2921 3001 2994 3027 3061 2918 2901 2891 3015 3005 2895 3049 3007 3113 2955 3038 2973 2978 2970 2954 3075 2951 3089 2949 2904 3111 3007 2975 2981 3138 2964 3004 2944 2908 2965 3008 3008 3000 3039 2992 3051 2965 3003 3002 2966 2977 2961 3028 3038 2963 2919 3129 2868 2984 3060 2917 2946 3010 2956 2994 3021 2999 3022 2984 3002 2952 2960 2924 2966 3138 2952 2924 3070 3011 2915 3095 3003 2913 3009 3052 2941 2988 2959 3037 2990 3061 2990 3006 3025 3033 2915 3017 2936 3078 2909 3002 2928 2950 3087 3025 3050 3106 2953 2974 3047 2912 3028 3008 2932 3050 2993 2988 3000 3089 3036 2917 3032 3047 3084 3025 3083 2989 3145 2978 2895 2952 2972 3031 2882 3010 2920 3021 2918 3018 3005 3000 2990 3023 3022 3022</counts>
			</dataPoints>
		</scan>
	</xrdMeasurement>
</xrdMeasurements>
