<?xml version="1.0"?>
<xrdMeasurements xmlns="http://www.xrdml.com/XRDMeasurement/2.3" xmlns:xsi="http://www.w3.org/2001/XMLSchema-instance" xsi:schemaLocation="http://www.xrdml.com/XRDMeasurement/2.3 http://www.xrdml.com/XRDMeasurement/2.3/XRDMeasurement.xsd" status="Completed" recordIdentifier="{4B7AC321-503E-4FC2-984E-3A7657CD9499}">
	<comment>
		<entry/>
	</comment>
	<sample type="To be analyzed">
		<id>GPSS_Li2Co0p5Fe0p5Cl4_100725_68e5a8e007cf888582f935c7</id>
		<name></name>
		<preparedBy></preparedBy>
	</sample>
	<xrdMeasurement measurementType="Scan" status="Completed" sampleMode="Reflection">
		<usedWavelength intended="K-Alpha 1">
			<kAlpha1 unit="Angstrom">1.5405980</kAlpha1>
			<kAlpha2 unit="Angstrom">1.5444260</kAlpha2>
			<kBeta unit="Angstrom">1.3922500</kBeta>
			<ratioKAlpha2KAlpha1>0.5000</ratioKAlpha2KAlpha1>
		</usedWavelength>
		<incidentBeamPath>
			<radius unit="mm">145.00</radius>
			<xRayTube id="1010048" name="Empyrean Cu LFF HR (9430 033 7310x)">
				<tension unit="kV">40.0</tension>
				<current unit="mA">15.0</current>
				<anodeMaterial>Cu</anodeMaterial>
				<focus type="Line">
					<length unit="mm">12.0</length>
					<width unit="mm">0.4</width>
					<takeOffAngle unit="deg">6.0</takeOffAngle>
				</focus>
			</xRayTube>
			<sollerSlit id="21010002" name="Soller slits 0.04 rad.">
				<opening unit="rad">0.0400</opening>
			</sollerSlit>
			<mask id="22031000" name="Fixed mask 13 mm">
				<width unit="mm">9.00</width>
			</mask>
			<divergenceSlit id="22120001" name="Divergence slit 1°" xsi:type="fixedDivergenceSlitType">
				<distanceToSample unit="mm">50.00</distanceToSample>
				<height unit="mm">1.52</height>
			</divergenceSlit>
		</incidentBeamPath>
		<sampleMovement xsi:type="spinningSampleMovementType">
			<spinnerRevolutionTime unit="seconds">1.0</spinnerRevolutionTime>
		</sampleMovement>
		<diffractedBeamPath>
			<radius unit="mm">145.00</radius>
			<antiScatterSlit id="22090040" name="AS slit 9 mm (PIXcel)" xsi:type="fixedAntiScatterSlitType">
				<height unit="mm">9.00</height>
			</antiScatterSlit>
			<sollerSlit id="21020003" name="Large Soller slits 0.04 rad.">
				<opening unit="rad">0.0400</opening>
			</sollerSlit>
			<filter id="20030001" name="Large beta-filter Nickel">
				<material>Ni</material>
				<thickness unit="mm">0.020</thickness>
			</filter>
			<detector id="7010019" name="PIXcel1D-Medipix3 detector" xsi:type="rtmsDetectorType">
				<phd unit="keV">
					<lowerLevel>4.02</lowerLevel>
					<upperLevel>11.27</upperLevel>
				</phd>
				<mode>Scanning</mode>
				<activeLength unit="deg">5.542</activeLength>
			</detector>
		</diffractedBeamPath>
		<scan appendNumber="0" mode="Continuous" scanAxis="Gonio" status="Completed">
			<header>
				<startTimeStamp>2025-10-09T13:45:39-07:00</startTimeStamp>
				<endTimeStamp>2025-10-09T13:53:46-07:00</endTimeStamp>
				<author>
					<name>AutomatedUser</name>
				</author>
				<source>
					<applicationSoftware version="1.7b (136)">PANalytical Aeris Instrument Suite</applicationSoftware>
					<instrumentControlSoftware version="3.2.00000000 20240306">AERIS</instrumentControlSoftware>
					<instrumentID>950485</instrumentID>
				</source>
			</header>
			<dataPoints>
				<positions axis="2Theta" unit="deg">
					<startPosition>10.00943322</startPosition>
					<endPosition>99.99442286</endPosition>
				</positions>
				<positions axis="Omega" unit="deg">
					<startPosition>5.00471661</startPosition>
					<endPosition>49.99721143</endPosition>
				</positions>
				<commonCountingTime unit="seconds">12.495</commonCountingTime>
				<counts unit="counts">3220 3200 3195 3110 3125 3136 3225 3163 3136 3139 3166 3136 3076 3140 3183 3185 3151 3203 3162 3199 3255 3207 3124 3188 3145 3209 3212 3171 3135 3174 3096 3168 3151 3008 3115 3159 3200 3163 3105 3163 3102 3157 3103 3123 3150 3168 3210 3131 3103 3006 3055 3209 3169 3149 3073 3188 3193 3219 3205 3256 3312 3196 3198 3207 3302 3267 3080 3251 3315 3230 3262 3309 3212 3271 3172 3241 3229 3251 3263 3183 3208 3316 3262 3238 3473 3296 3401 3293 3458 3291 3420 3293 3367 3443 3366 3328 3379 3346 3217 3261 3313 3342 3411 3201 3352 3324 3356 3282 3325 3391 3342 3211 3280 3302 3267 3236 3356 3359 3356 3318 3218 3284 3264 3211 3313 3255 3317 3160 3281 3326 3151 3242 3284 3304 3400 3228 3225 3293 3319 3280 3254 3374 3243 3290 3186 3268 3323 3331 3260 3411 3294 3279 3245 3244 3275 3315 3194 3380 3251 3117 3140 3220 3285 3144 3290 3215 3279 3296 3306 3205 3352 3292 3235 3282 3205 3162 3181 3356 3275 3239 3193 3238 3318 3167 3205 3231 3132 3238 3268 3280 3273 3210 3267 3213 3337 3179 3265 3337 3230 3270 3382 3208 3251 3283 3259 3283 3202 3286 3269 3201 3342 3309 3205 3220 3273 3166 3162 3251 3249 3220 3245 3312 3401 3211 3331 3245 3163 3353 3307 3224 3257 3126 3294 3353 3242 3293 3242 3276 3216 3286 3218 3331 3205 3246 3301 3201 3188 3301 3342 3298 3250 3268 3212 3309 3348 3251 3404 3261 3276 3276 3314 3404 3371 3264 3258 3360 3381 3318 3368 3456 3287 3371 3241 3313 3297 3404 3344 3310 3324 3214 3307 3385 3204 3366 3318 3270 3312 3395 3365 3474 3392 3454 3506 3397 3404 3432 3310 3339 3226 3475 3390 3405 3411 3423 3287 3473 3407 3365 3329 3401 3416 3423 3465 3395 3447 3553 3492 3522 3459 3435 3596 3491 3471 3512 3460 3412 3493 3486 3486 3596 3447 3561 3534 3559 3554 3537 3615 3542 3591 3597 3516 3566 3643 3588 3563 3621 3591 3709 3626 3614 3664 3594 3659 3565 3649 3750 3708 3614 3719 3653 3798 3657 3725 3660 3719 3718 3760 3730 3805 3800 3801 3740 3732 3729 3826 3779 3877 3947 3811 3884 3923 3870 3956 3870 3896 3784 4016 3904 3927 3954 3836 3943 3907 3886 3998 3886 4121 4071 4006 4018 4035 4172 4082 4084 3946 4164 4014 3933 3906 4099 4036 4101 4130 4094 4061 4146 4126 4127 4255 4064 4182 4203 4157 4126 4102 4189 4205 4275 4310 4329 4254 4198 4247 4285 4308 4363 4360 4268 4449 4433 4460 4292 4443 4428 4460 4488 4453 4478 4519 4522 4741 4621 4709 4652 4626 4829 4572 4742 4701 4645 4852 4777 4797 4785 4938 4788 5036 4986 5054 5141 5193 5138 5176 5312 5394 5403 5407 5446 5567 5670 5766 5739 5847 5820 6001 6020 6105 6150 6183 6376 6548 6543 6730 6703 6650 6619 6828 6814 6953 6992 6938 7058 6809 6877 6858 6739 6969 6675 6535 6582 6472 6231 6016 5883 5625 5415 5252 5211 4831 4799 4496 4649 4427 4440 4450 4332 4507 4368 4487 4365 4339 4282 4316 4268 4236 4241 4240 4261 4203 4218 4037 4186 4330 4177 4199 4195 4064 4108 4017 3925 4066 3963 4084 3974 4019 4044 4087 3997 3952 3938 3938 4001 4014 3929 3894 3903 3966 3923 3888 4025 3924 3872 3873 3906 3856 3845 3899 3790 3833 3952 3909 3869 3787 3920 3820 3850 3862 3760 3927 3832 3712 3905 3817 3852 3787 3715 3903 3728 3845 3854 3920 3726 3825 3708 3797 3746 3898 3781 3857 3869 3972 3943 3811 3810 3779 3723 3785 3759 3745 3832 3695 3730 3944 3800 3836 3786 3841 3820 3719 3916 3824 3790 3749 3818 3824 3777 3747 3905 3850 3820 3805 3745 3799 3763 3841 3835 3829 3854 3785 3732 3757 3835 3751 3886 3790 3792 3854 3815 3795 3860 3759 3853 3784 3784 3823 3764 3900 3715 3866 3753 3861 3878 3835 3873 3862 3782 3753 3791 3839 3902 3827 3901 3916 3920 3895 3922 3924 3944 3933 3983 3984 3956 3877 3993 3920 3969 4026 3963 4030 3979 4043 3950 4131 4080 4079 4008 4011 4054 4072 3986 4129 4100 4185 4095 4051 4039 4102 3973 4114 3968 3990 3873 3884 3877 3928 3774 3902 3748 3812 3707 3823 3943 3752 3802 3789 3786 3830 3680 3717 3884 3726 3714 3657 3644 3845 3667 3688 3681 3863 3638 3693 3650 3803 3689 3757 3643 3692 3771 3694 3761 3786 3724 3721 3711 3753 3522 3578 3820 3660 3774 3698 3728 3753 3556 3637 3599 3632 3528 3676 3626 3786 3848 3652 3731 3567 3624 3739 3635 3573 3659 3686 3752 3635 3803 3605 3619 3678 3642 3569 3729 3638 3624 3669 3656 3639 3626 3647 3592 3573 3643 3783 3659 3730 3667 3683 3648 3658 3724 3724 3558 3618 3709 3647 3661 3671 3768 3663 3625 3707 3721 3604 3664 3647 3571 3699 3666 3711 3649 3625 3627 3711 3737 3567 3720 3621 3652 3710 3622 3578 3538 3657 3578 3656 3606 3727 3636 3567 3702 3553 3572 3571 3598 3625 3591 3634 3669 3607 3576 3684 3592 3649 3582 3690 3631 3768 3614 3689 3691 3631 3717 3681 3578 3590 3670 3608 3654 3565 3633 3602 3566 3605 3676 3731 3635 3589 3536 3582 3621 3592 3610 3681 3610 3513 3609 3521 3615 3627 3668 3629 3606 3645 3433 3633 3591 3622 3694 3619 3536 3620 3625 3612 3512 3641 3565 3458 3667 3564 3526 3611 3514 3609 3546 3660 3608 3502 3546 3597 3535 3524 3613 3526 3620 3585 3529 3633 3530 3606 3681 3505 3676 3637 3533 3599 3617 3568 3628 3574 3555 3465 3671 3490 3550 3626 3555 3510 3576 3578 3468 3442 3590 3542 3546 3506 3556 3480 3579 3521 3577 3556 3531 3583 3567 3444 3741 3451 3574 3444 3619 3590 3628 3499 3638 3540 3547 3607 3538 3503 3510 3536 3563 3563 3537 3538 3506 3587 3498 3542 3605 3595 3552 3703 3567 3553 3656 3565 3578 3532 3520 3536 3567 3666 3488 3532 3587 3580 3601 3423 3660 3593 3564 3542 3540 3463 3475 3614 3611 3457 3462 3517 3641 3635 3590 3562 3588 3685 3478 3715 3587 3515 3623 3557 3540 3436 3519 3609 3651 3610 3598 3590 3545 3665 3608 3607 3560 3575 3613 3605 3598 3643 3656 3722 3668 3643 3582 3702 3555 3598 3554 3708 3633 3659 3577 3495 3695 3605 3515 3620 3582 3597 3620 3695 3603 3696 3537 3537 3613 3608 3642 3530 3494 3637 3629 3589 3568 3547 3670 3492 3631 3605 3539 3438 3627 3498 3611 3563 3566 3692 3550 3608 3555 3614 3643 3661 3517 3667 3596 3724 3559 3739 3633 3524 3619 3611 3624 3699 3655 3542 3615 3527 3625 3681 3618 3595 3642 3736 3635 3704 3522 3681 3515 3589 3341 3574 3428 3580 3576 3628 3706 3594 3614 3703 3527 3590 3531 3560 3578 3514 3467 3574 3583 3514 3429 3533 3505 3632 3579 3539 3613 3462 3493 3530 3427 3558 3463 3514 3584 3467 3502 3511 3552 3538 3455 3457 3446 3405 3451 3474 3462 3523 3477 3491 3465 3496 3494 3456 3469 3424 3477 3584 3472 3451 3529 3455 3337 3417 3475 3485 3459 3566 3432 3449 3437 3368 3432 3481 3384 3472 3461 3385 3450 3397 3323 3426 3352 3417 3340 3286 3253 3392 3293 3279 3361 3214 3339 3208 3280 3290 3365 3357 3358 3362 3352 3313 3395 3195 3407 3317 3263 3337 3273 3417 3325 3279 3283 3293 3314 3352 3148 3327 3218 3282 3204 3232 3314 3355 3218 3244 3258 3371 3294 3104 3307 3167 3302 3103 3213 3183 3292 3225 3246 3229 3131 3253 3248 3195 3153 3144 3155 3235 3188 3315 3188 3174 3258 3259 3181 3176 3308 3125 3203 3165 3212 3239 3227 3309 3154 3258 3185 3188 3223 3167 3089 3212 3157 3197 3144 3182 3169 3120 3211 3189 3175 3251 3178 3321 3203 3277 3137 3215 3223 3178 3284 3201 3197 3261 3297 3365 3229 3164 3139 3191 3303 3218 3167 3142 3292 3227 3281 3239 3335 3349 3345 3302 3331 3238 3319 3322 3399 3401 3341 3388 3304 3395 3315 3588 3466 3481 3401 3521 3447 3378 3491 3458 3449 3391 3577 3552 3475 3515 3459 3408 3487 3458 3438 3459 3380 3373 3441 3413 3302 3379 3331 3266 3381 3265 3229 3360 3265 3250 3233 3230 3238 3091 3208 3215 3157 3096 3169 3146 3191 3208 3182 3181 3214 3189 3141 3196 3164 3208 3072 3227 3177 3163 3067 3189 3191 3062 3181 3217 3222 3126 3246 3168 3174 3057 3119 3268 3133 3188 3178 3158 3182 3231 3221 3169 3201 3134 3154 3187 3185 3183 3139 3176 3226 3257 3259 3254 3107 3217 3124 3245 3203 3221 3211 3114 3184 3149 3134 3190 3138 3188 3175 3242 3070 3261 3204 3273 3153 3141 3155 3127 3209 3213 3146 3197 3281 3198 3256 3212 3261 3182 3204 3158 3187 3253 3245 3172 3189 3155 3233 3212 3183 3230 3138 3191 3246 3188 3238 3198 3156 3227 3145 3189 3194 3201 3207 3174 3194 3189 3137 3204 3241 3128 3065 3288 3280 3163 3141 3223 3091 3127 3150 3195 3123 3091 3264 3233 3154 3042 3258 3221 3129 3247 3168 3168 3181 3149 3161 3135 3141 3177 3121 3214 3252 3160 3078 3201 3179 3174 3241 3007 3085 3180 3230 3150 3113 3176 3198 3120 3204 3230 3235 3097 3187 3076 3200 3079 3128 3076 3084 3018 3111 3085 3129 3170 3123 3100 3195 2985 3141 3067 3132 3112 3073 3064 3020 3015 3127 3046 3018 3021 3084 3052 3147 3143 3101 2964 3112 3045 3040 3140 3078 2992 3053 3003 3015 3061 3036 3073 3066 3005 3049 3066 2967 3044 3042 2918 3110 3022 2994 3041 3021 2956 3022 3133 3070 2928 2957 3025 2932 2957 2983 2978 2944 2922 2942 3050 3053 3008 2942 2986 3060 2930 3062 2984 2980 2966 3008 2947 3028 3029 2968 3053 2992 2879 2871 2918 2974 3062 2774 2926 2963 2905 3002 2917 2981 2958 2977 2902 2997 2972 2957 2907 2928 2885 2923 2883 2849 2870 2952 2875 2838 2992 3023 2978 2937 3041 2983 2969 2889 2933 3020 2992 2936 2954 2925 2882 2922 3046 3020 3027 3060 3066 2981 3011 3036 3027 2967 3016 3024 3056 3046 2922 3067 3081 3018 3083 3018 3139 3053 3079 3074 3153 3121 3177 3174 3150 3127 3155 3181 3254 3252 3290 3231 3267 3301 3340 3364 3290 3317 3439 3380 3435 3433 3343 3439 3445 3388 3507 3500 3491 3388 3586 3717 3606 3562 3621 3667 3603 3553 3584 3554 3710 3645 3585 3615 3689 3577 3603 3588 3685 3580 3542 3710 3521 3493 3510 3487 3461 3533 3429 3395 3381 3384 3280 3253 3321 3060 3015 3180 3007 3122 3096 3041 2939 3016 2962 2852 2919 3003 2880 2950 2878 2863 2911 2919 2943 2885 2931 2865 2896 2934 3102 2957 3033 3019 2990 2995 2998 3029 2995 2922 2999 3057 3029 3001 3109 2978 3004 2947 2975 3005 3132 2947 2957 2990 3072 3101 3061 3105 3023 3089 3223 3268 3190 3194 3342 3267 3353 3307 3335 3420 3397 3502 3586 3526 3446 3587 3769 3762 3796 3800 3974 3936 3951 4038 4201 4280 4322 4320 4283 4372 4513 4608 4599 4555 4611 4612 4676 4593 4738 4656 4716 4565 4559 4486 4518 4484 4250 4196 4190 3864 3945 3910 3710 3715 3648 3567 3536 3491 3380 3336 3268 3094 3182 3070 3072 3085 2973 2896 2919 2834 2830 2888 2896 2815 2811 2925 2837 2748 2944 2769 2913 2817 2800 2820 2754 2717 2706 2774 2776 2727 2787 2831 2806 2867 2803 2684 2866 2720 2767 2826 2807 2755 2765 2768 2825 2752 2706 2648 2772 2827 2797 2728 2689 2832 2670 2820 2748 2715 2691 2727 2716 2784 2755 2748 2767 2796 2745 2679 2799 2677 2776 2789 2852 2800 2789 2786 2825 2748 2752 2639 2746 2737 2757 2703 2769 2767 2747 2726 2743 2825 2651 2762 2763 2849 2746 2768 2764 2710 2708 2704 2789 2730 2731 2741 2841 2709 2721 2635 2747 2806 2684 2727 2654 2736 2675 2680 2611 2699 2694 2745 2761 2799 2676 2721 2666 2725 2676 2659 2765 2660 2724 2702 2803 2629 2633 2659 2808 2667 2654 2794 2785 2763 2733 2695 2709 2715 2821 2621 2713 2793 2730 2702 2776 2728 2794 2692 2744 2639 2727 2642 2676 2707 2702 2651 2695 2763 2719 2764 2799 2633 2585 2679 2724 2774 2615 2634 2698 2682 2689 2664 2738 2741 2732 2634 2806 2627 2666 2639 2660 2696 2576 2704 2619 2746 2690 2644 2640 2659 2710 2665 2689 2688 2723 2683 2761 2726 2607 2644 2700 2710 2617 2721 2656 2758 2690 2688 2720 2756 2753 2645 2768 2667 2737 2671 2758 2688 2642 2712 2739 2757 2779 2778 2653 2667 2681 2726 2705 2743 2678 2692 2707 2706 2733 2590 2698 2614 2657 2687 2611 2716 2667 2717 2718 2786 2820 2710 2750 2664 2657 2667 2615 2642 2617 2635 2611 2667 2718 2664 2679 2675 2638 2684 2651 2655 2632 2712 2718 2714 2704 2720 2726 2728 2684 2707 2629 2687 2699 2781 2708 2759 2843 2781 2831 2745 2711 2825 2804 2704 2718 2780 2790 2696 2758 2667 2667 2773 2711 2844 2634 2809 2795 2768 2721 2854 2709 2820 2782 2865 2777 2783 2671 2778 2879 2832 2833 2862 2836 2859 2795 2810 2781 2785 2882 2898 2865 2842 2861 2930 2993 2935 2867 2908 2992 3012 3135 2969 3027 3059 3075 3057 3113 2945 3129 3107 3207 3142 3139 3238 3308 3218 3322 3362 3441 3466 3432 3515 3537 3466 3517 3669 3704 3703 3891 3740 3830 3825 4008 4031 4054 4125 4116 4342 4324 4447 4448 4420 4606 4623 4692 4725 4775 5033 5185 5272 5212 5396 5561 5593 5603 5728 5861 6099 6192 6286 6515 6422 6371 6501 6510 6579 6693 6726 6664 6679 6809 6778 6848 6913 6720 6788 7012 6904 7003 6947 6878 7030 6987 6951 6966 6924 6938 6902 6709 6580 6524 6068 6238 5751 5978 5594 5427 5165 5019 4754 4551 4416 4184 4061 3866 3785 3624 3605 3435 3374 3377 3173 3139 3153 2963 3056 2989 3006 2933 2926 3010 2996 2898 2943 2914 2872 2872 3000 2969 2810 2834 2909 2790 2813 2915 2882 2797 2786 2860 2855 2835 2800 2807 2782 2799 2787 2752 2829 2824 2700 2819 2802 2781 2748 2839 2810 2707 2740 2656 2762 2743 2792 2798 2702 2709 2725 2681 2819 2649 2772 2809 2859 2783 2717 2604 2672 2735 2794 2748 2861 2824 2627 2690 2631 2733 2707 2725 2706 2707 2715 2745 2671 2792 2704 2709 2717 2678 2711 2636 2727 2719 2604 2762 2714 2715 2743 2754 2729 2661 2738 2675 2652 2705 2711 2625 2741 2672 2668 2733 2757 2718 2680 2656 2712 2785 2807 2738 2645 2610 2676 2727 2727 2576 2669 2754 2675 2675 2679 2693 2720 2710 2666 2701 2805 2693 2722 2744 2758 2601 2717 2671 2728 2670 2771 2714 2684 2680 2639 2749 2656 2638 2623 2657 2665 2797 2679 2673 2766 2770 2737 2831 2707 2767 2741 2737 2694 2769 2737 2762 2798 2738 2673 2642 2731 2650 2685 2708 2676 2703 2730 2752 2708 2578 2728 2736 2718 2706 2685 2798 2695 2690 2717 2759 2758 2655 2805 2758 2785 2652 2680 2674 2753 2791 2648 2677 2665 2723 2815 2692 2712 2752 2702 2682 2729 2673 2736 2766 2720 2725 2700 2829 2773 2741 2764 2786 2742 2824 2699 2762 2745 2756 2771 2753 2758 2811 2807 2795 2837 2728 2797 2728 2811 2883 2861 2823 2996 2771 2853 2819 2969 2911 2778 2934 2942 2922 2885 2887 3001 2960 2972 2963 2908 3038 3050 2965 2932 2946 2957 2836 2975 2997 2972 2900 2920 2804 2868 2891 2830 2838 2842 2718 2837 2782 2805 2788 2762 2816 2829 2700 2738 2837 2688 2720 2765 2662 2663 2777 2801 2710 2721 2673 2661 2795 2796 2732 2657 2827 2620 2681 2693 2757 2656 2651 2796 2652 2702 2714 2762 2661 2721 2667 2811 2719 2660 2801 2719 2698 2786 2670 2594 2654 2767 2711 2770 2812 2732 2750 2737 2822 2718 2829 2713 2785 2782 2739 2773 2851 2831 2793 2819 2865 2770 2795 2899 2868 2856 2863 2836 2976 2842 2819 2857 2865 2876 2940 2796 2776 2837 2908 2930 2914 2765 2837 2886 2743 2734 2814 2847 2764 2867 2728 2753 2785 2674 2733 2702 2734 2636 2717 2745 2778 2642 2750 2638 2636 2736 2754 2690 2685 2687 2676 2758 2739 2652 2771 2723 2796 2620 2736 2728 2762 2668 2656 2707 2704 2715 2693 2639 2647 2674 2683 2718 2630 2721 2774 2717 2744 2794 2652 2655 2661 2698 2661 2706 2622 2643 2578 2706 2704 2634 2698 2627 2738 2627 2604 2611 2666 2597 2739 2704 2689 2700 2719 2684 2686 2674 2682 2680 2739 2736 2653 2687 2715 2779 2649 2669 2655 2593 2638 2721 2664 2717 2770 2745 2750 2686 2639 2709 2643 2716 2666 2714 2638 2625 2682 2633 2705 2643 2705 2632 2692 2669 2722 2743 2677 2674 2686 2681 2587 2693 2641 2649 2695 2702 2639 2774 2675 2542 2650 2733 2718 2725 2601 2649 2664 2662 2684 2672 2624 2729 2717 2688 2772 2630 2633 2638 2740 2603 2647 2741 2733 2694 2702 2659 2671 2702 2773 2620 2700 2638 2716 2765 2679 2656 2618 2669 2685 2650 2724 2625 2816 2772 2722 2677 2741 2673 2702 2731 2743 2720 2736 2571 2660 2650 2817 2775 2657 2695 2607 2778 2664 2680 2619 2716 2670 2641 2682 2600 2645 2651 2786 2743 2708 2609 2704 2684 2672 2701 2682 2691 2646 2642 2713 2647 2718 2697 2736 2746 2657 2662 2717 2649 2550 2771 2726 2617 2677 2766 2649 2649 2676 2683 2792 2699 2666 2686 2756 2618 2748 2676 2726 2692 2626 2683 2647 2610 2738 2709 2742 2699 2696 2735 2660 2667 2661 2631 2747 2721 2783 2708 2628 2694 2738 2738 2762 2635 2632 2696 2648 2714 2740 2718 2741 2709 2650 2679 2671 2732 2690 2627 2687 2733 2668 2671 2672 2706 2667 2623 2549 2713 2741 2827 2658 2790 2730 2807 2705 2697 2771 2780 2705 2711 2733 2717 2747 2619 2724 2808 2773 2692 2830 2753 2782 2708 2786 2784 2850 2681 2811 2707 2684 2825 2862 2864 2780 2796 2800 2858 2893 2895 2848 2857 2845 2798 2872 2908 2857 2942 2889 2819 2900 2879 2875 2892 2733 2731 2817 2808 2754 2794 2745 2679 2741 2724 2734 2640 2801 2714 2821 2751 2709 2731 2731 2699 2674 2761 2713 2776 2723 2835 2755 2672 2821 2710 2667 2711 2621 2638 2798 2624 2691 2752 2695 2706 2743 2710 2733 2598 2694 2788 2758 2747 2702 2687 2703 2789 2755 2715 2650 2665 2701 2721 2682 2630 2650 2657 2646 2746 2711 2808 2758 2714 2690 2748 2646 2659 2692 2644 2656 2671 2729 2672 2711 2704 2767 2659 2787 2637 2720 2685 2665 2702 2691 2697 2634 2629 2724 2717 2781 2792 2679 2645 2669 2755 2742 2740 2701 2782 2713 2707 2692 2707 2698 2821 2659 2700 2667 2817 2689 2659 2677 2729 2800 2684 2761 2739 2701 2693 2675 2706 2655 2649 2753 2668 2686 2692 2742 2659 2691 2680 2697 2670 2694 2629 2679 2663 2647 2823 2790 2662 2628 2621 2767 2717 2752 2719 2783 2725 2709 2724 2684 2783 2587 2738 2745 2711 2639 2753 2759 2684 2657 2644 2730 2766 2802 2686 2689 2707 2794 2600 2822 2684 2693 2765 2775 2758 2606 2696 2752 2666 2782 2731 2745 2649 2844 2788 2829 2830 2787 2722 2833 2890 2920 2826 2775 2968 2834 2867 2755 2799 2821 2918 2944 2940 2904 2951 2902 2898 3001 2984 2977 3034 2956 2968 3020 2994 3110 2982 2983 3128 3068 3054 3165 3184 3117 3181 3163 3144 3189 3235 3236 3212 3207 3205 3155 3285 3273 3319 3191 3269 3193 3241 3310 3199 3320 3283 3236 3184 3214 3318 3235 3240 3168 3137 3114 3224 3144 3147 3151 3071 3001 2994 3087 3000 3076 2956 2972 2904 2993 2772 2851 2818 2860 2862 2839 2803 2725 2874 2781 2923 2769 2675 2800 2738 2887 2754 2741 2745 2691 2724 2832 2852 2817 2778 2624 2804 2751 2725 2739 2710 2689 2699 2657 2665 2730 2672 2725 2653 2741 2655 2774 2756 2738 2635 2662 2675 2717 2566 2769 2651 2777 2667 2686 2638 2698 2774 2674 2765 2697 2736 2734 2645 2683 2698 2728 2661 2701 2708 2721 2746 2782 2721 2702 2691 2782 2680 2672 2675 2650 2754 2695 2774 2745 2726 2704 2760 2653 2838 2676 2699 2672 2780 2746 2566 2756 2769 2694 2793 2660 2723 2744 2720 2696 2732 2665 2691 2817 2743 2697 2671 2731 2754 2749 2653 2769 2740 2694 2677 2842 2627 2706 2761 2778 2725 2678 2766 2755 2659 2693 2750 2744 2711 2687 2737 2755 2633 2750 2638 2672 2787 2663 2759 2713 2735 2692 2690 2622 2734 2698 2685 2688 2713 2767 2634 2690 2604 2751 2761 2741 2666 2720 2733 2727 2720 2733 2770 2706 2704 2790 2664 2732 2705 2819 2657 2717 2743 2767 2712 2810 2664 2576 2714 2677 2640 2790 2738 2637 2782 2654 2723 2681 2722 2823 2714 2822 2773 2739 2749 2787 2708 2714 2785 2717 2721 2741 2712 2711 2798 2847 2805 2741 2722 2685 2736 2749 2763 2630 2671 2704 2639 2707 2741 2746 2706 2688 2736 2795 2742 2844 2710 2746 2821 2828 2712 2766 2678 2822 2715 2730 2724 2774 2722 2751 2705 2804 2741 2766 2694 2757 2739 2762 2685 2779 2853 2746 2782 2698 2704 2695 2815 2722 2774 2822 2872 2599 2862 2741 2821 2777 2741 2700 2692 2669 2792 2855 2843 2688 2778 2671 2815 2678 2822 2770 2774 2789 2904 2737 2726 2809 2794 2841 2801 2757 2820 2777 2843 2844 2762 2755 2808 2842 2818 2868 2877 2775 2922 2990 2978 2972 2987 2976 2972 2969 3032 2926 3023 3023 3098 3128 3032 2984 3105 3135 3174 3165 3127 3098 3181 3281 3283 3306 3286 3291 3309 3443 3364 3446 3579 3500 3602 3656 3660 3807 3735 3915 3913 4032 4015 4063 4209 4215 4270 4353 4381 4547 4656 4536 4770 4760 4770 4918 5039 5009 5123 5139 5214 5158 5251 5212 5349 5376 5317 5132 5226 5212 5077 4933 4773 4695 4670 4468 4488 4407 4285 4351 4179 4219 4022 4040 3946 3853 3811 3772 3674 3681 3667 3560 3556 3613 3537 3663 3518 3459 3529 3456 3409 3357 3410 3400 3232 3268 3326 3470 3301 3275 3201 3195 3131 3174 3146 3131 2988 2954 3069 2993 2963 3043 2899 2961 2943 2943 2875 2824 2838 2829 2843 2920 2820 2892 2912 2843 2875 2841 2885 2751 2954 2817 2752 2854 2727 2743 2793 2709 2849 2814 2871 2769 2730 2865 2737 2795 2771 2879 2860 2736 2787 2717 2838 2685 2771 2750 2795 2812 2724 2809 2745 2741 2796 2736 2742 2649 2868 2793 2701 2759 2837 2752 2724 2718 2731 2810 2711 2783 2788 2766 2725 2628 2886 2696 2775 2766 2791 2632 2708 2734 2650 2786 2802 2690 2788 2804 2751 2787 2768 2750 2790 2698 2740 2778 2774 2582 2795 2709 2797 2725 2709 2808 2720 2815 2739 2779 2721 2875 2869 2790 2788 2762 2796 2773 2707 2826 2747 2860 2772 2829 2770 2788 2888 2795 2823 2751 2858 2820 2840 2812 2863 2807 2818 2875 2849 2817 2771 2834 2911 2844 2951 2864 2865 2876 2861 2946 2983 2961 3008 2935 3017 2959 2962 3014 2991 2968 3006 3051 3031 3013 3038 3072 3150 3173 3202 3033 3027 3071 3168 3148 3226 3148 3166 3104 3103 3136 3078 3021 3167 3006 3075 3024 3174 3176 2969 3067 3028 2954 3007 3005 2946 2975 2930 3056 3052 2897 2996 2976 2929 3053 3012 3013 2962 2900 3075 2963 2986 3028 2871 3029 2915 2922 2891 3036 3026 2951 2959 2947 2968 2965 2821 2896 2906 2947 2809 2904 2889 2774 2881 2801 2888 2957 2900 2789 2790 2878 2871 2860 2839 2823 2854 2852 2748 2905 2867 2871 2900 2845 2831 2836 2840 2778 2863 2782 2812 2785 2830 2902 2799 2886 2851 2852 2836 2684 2768 2842 2769 2714 2769 2846 2809 2768 2723 2725 2738 2763 2699 2769 2736 2713 2755 2690 2734 2835 2853 2731 2798 2851 2761 2689 2787 2719 2753 2783 2738 2687 2785 2694 2771 2725 2755 2762 2701 2800 2756 2755 2713 2727 2713 2689 2672 2771 2810 2846 2758 2644 2755 2846 2717 2830 2786 2763 2633 2714 2785 2813 2656 2750 2787 2702 2731 2695 2800 2727 2719 2687 2677 2710 2756 2713 2782 2836 2770 2746 2742 2794 2869 2802 2779 2734 2719 2724 2713 2677 2714 2657 2659 2727 2724 2732 2773 2698 2760 2720 2751 2790 2747 2732 2725 2782 2747 2714 2724 2782 2797 2653 2634 2784 2783 2683 2667 2772 2778 2747 2758 2824 2695 2737 2672 2821 2761 2756 2597 2743 2704 2748 2736 2758 2783 2724 2673 2753 2788 2657 2690 2729 2712 2768 2695 2756 2741 2695 2787 2693 2709 2699 2791 2639 2739 2767 2734 2735 2811 2786 2702 2610 2782 2728 2801 2650 2706 2800 2736 2830 2748 2826 2808 2740 2650 2761 2772 2700 2668 2772 2725 2697 2773 2726 2840 2814 2715 2660 2739 2679 2738 2729 2693 2793 2689 2805 2778 2841 2693 2722 2705 2790 2678 2730 2702 2722 2755 2724 2726 2767 2759 2724 2661 2696 2740 2786 2745 2752 2769 2733 2668 2699 2678 2777 2792 2745 2706 2763 2681 2776 2811 2649 2824 2735 2727 2672 2856 2740 2786 2745 2770 2728 2708 2780 2683 2796 2755 2798 2724 2825 2690 2682 2742 2717 2816 2731 2780 2820 2769 2737 2714 2764 2708 2859 2837 2819 2763 2843 2784 2810 2722 2725 2720 2746 2799 2775 2744 2829 2907 2822 2877 2859 2844 2767 2814 2775 2769 2777 2840 2808 2682 2773 2878 2778 2891 2839 2746 2780 2750 2880 2742 2908 2763 2713 2845 2760 2767 2826 2746 2842 2777 2724 2722 2858 2817 2845 2765 2765 2859 2674 2730 2820 2865 2744 2714 2621 2736 2789 2763 2777 2734 2828 2712 2759 2767 2762 2793 2756 2719 2743 2872 2713 2723 2814 2772 2746 2681 2714 2792 2742 2761 2759 2800 2635 2746 2771 2743 2759 2652 2765 2691 2661 2877 2762 2701 2672 2745 2711 2666 2794 2713 2730 2784 2790 2703 2710 2809 2719 2721 2697 2706 2703 2767 2744 2738 2714 2796 2790 2751 2697 2810 2787 2771 2700 2640 2745 2629 2739 2822 2713 2720 2775 2713 2628 2756 2786 2743 2816 2729 2680 2781 2713 2710 2770 2703 2752 2820 2871 2708 2686 2670 2782 2696 2824 2787 2741 2787 2844 2718 2761 2752 2768 2716 2782 2739 2776 2797 2700 2885 2784 2783 2821 2709 2738 2733 2828 2834 2828 2849 2718 2821 2797 2936 2856 2705 2770 2878 2749 2867 2808 2868 2827 2823 2755 2834 2842 2828 2804 2754 2931 2906 2696 2833 2866 2812 2779 2868 2766 2821 2793 2774 2887 2903 2793 2738 2843 2750 2870 2741 2841 2725 2845 2908 2884 2848 2882 2777 2903 2807 2882 2731 2932 2885 2921 2849 2819 2835 2877 2849 2828 2873 2930 2900 2927 2816 2952 2915 2950 2938 2861 2899 2955 3027 3029 2970 2936 3043 2920 3010 2976 2968 2980 2966 3024 2899 3039 2936 3047 3059 3092 3044 3146 3040 2987 3013 3037 2962 2991 3076 2968 2976 3093 2988 3099 3041 3014 3038 3072 3043 3031 2946 2981 3035 3078 2974 2965 2893 2941 2990 2982 3029 2968 2954 2944 2957 2939 2918 2940 2929 2993 2881 2941 2869 2977 2955 2966 2942 2839 2886 2891 2839 2854 2807 2870 2776 2808 2774 2820 2806 2764 2857 2652 2911 2726 2752 2815 2733 2806 2762 2727 2783 2759 2812 2829 2663 2743 2768 2765 2706 2787 2778 2765 2823 2793 2651 2765 2746 2770 2733 2712 2819 2749 2745 2774 2801 2783 2787 2708 2797 2818 2819 2743 2763 2819 2809 2778 2708 2784 2711 2748 2819 2921 2775 2732 2756 2712 2788 2802 2735 2744 2703 2737 2714 2769 2804 2807 2780 2773 2705 2746 2798 2727 2674 2730 2728 2805 2741 2782 2807 2810 2761 2835 2815 2741 2755 2660 2813 2760 2698 2784 2795 2766 2774 2776 2832 2826 2711 2740 2808 2795 2932 2743 2818 2791 2796 2787 2810 2820 2748 2832 2739 2774 2791 2719 2863 2814 2790 2722 2810 2773 2744 2685 2740 2771 2798 2797 2802 2693 2866 2852 2849 2733 2776 2734 2713 2786 2766 2845 2782 2764 2854 2815 2841 2783 2772 2715 2798 2835 2805 2825 2880 2732 2824 2806 2769 2869 2717 2719 2779 2794 2871 2868 2829 2817 2837 2792 2879 2963 2941 2905 2891 2877 3045 2879 2913 2890 2938 2838 2812 3035 2946 3052 2996 2945 3058 3133 3083 3029 3023 3090 3056 3183 3083 3080 3145 3126 3224 3138 3221 3247 3326 3316 3398 3422 3405 3516 3338 3432 3455 3581 3624 3600 3657 3568 3544 3507 3554 3499 3596 3551 3467 3456 3469 3449 3516 3380 3410 3479 3429 3510 3469 3376 3422 3455 3381 3419 3393 3319 3309 3327 3286 3273 3210 3298 3392 3169 3292 3206 3183 3155 3137 3068 3166 3122 3123 3082 3113 3072 3082 3009 3026 3024 3028 2982 3004 2924 2930 2886 2996 2926 2894 2842 2895 2960 2953 2879 2911 2850 2967 2884 2878 2845 2848 2811 2783 2783 2951 2815 2788 2870 2842 2889 2785 2830 2875 2869 2828 2772 2782 2857 2841 2784 2742 2790 2845 2765 2703 2857 2848 2801 2774 2809 2787 2746 2730 2859 2863 2757 2814 2825 2796 2803 2820 2812 2727 2785 2819 2788 2765 2739 2686 2717 2714 2914 2798 2730 2811 2853 2846 2824 2843 2777 2774 2799 2761 2848 2793 2804 2820 2769 2746 2774 2815 2869 2832 2873 2757 2839 2807 2718 2783 2823 2808 2729 2736 2885 2824 2760 2778 2799 2839 2782 2775 2810 2887 2888 2820 2941 2796 2805 2927 2816 2930 2931 2937 2854 2951 2816 2864 2798 2939 2937 2900 2963 2895 3052 2931 2938 3016 2910 3024 3052 3039 3065 2973 3042 2963 2904 3109 3091 3060 3071 3129 3054 2978 3050 3008 3040 3044 3024 3097 2993 3066 3054 3021 3029 3000 2885 2983 3065 2975 2981 3008 2913 2957 2895 3002 2824 2871 2934 2909 2922 2883 3031 2866 2846 2863 2850 2841 2834 2815 2881 2868 2799 2923 2936 2789 2857 2764 2802 2868 2890 2887 2864 2826 2897 2952 2833 2914 2828 2938 2953 2795 2836 2804 2843 2831 2875 2803 2860 2882 2799 2802 2815 2805 2815 2976 2824 2786 2778 2838 2859 2796 2753 2757 2786 2752 2876 2895 2831 2782 2706 2834 2729 2797 2634 2726 2736 2796 2812 2838 2749 2817 2807 2789 2809 2772 2880 2775 2793 2763 2810 2837 2836 2740 2702 2796 2913 2710 2771 2751 2810 2794 2733 2787 2790 2750 2679 2810 2771 2721 2896 2678 2855 2735 2789 2800 2781 2767 2820 2809 2778 2773 2766 2750 2783 2766 2772 2746 2665 2719 2746 2722 2832 2751 2824 2740 2829 2754 2729 2674 2767 2808 2650 2716 2806 2724 2714 2776 2791 2739 2818 2698 2839 2767 2746 2820 2859 2696 2799 2765 2784 2722 2724 2715 2658 2774 2776 2608 2736 2769 2796 2767 2771 2800 2807 2775 2796 2765 2759 2698 2808 2786 2792 2815 2787 2818 2770 2795 2693 2795 2716 2763 2755 2785 2806 2778 2794 2768 2843 2763 2849 2686 2758 2742 2848 2743 2758 2765 2784 2772 2728 2707 2692 2702 2717 2743 2821 2804 2784 2716 2806 2844 2741 2822 2687 2804 2797 2833 2741 2750 2838 2818 2820 2840 2825 2790 2712 2768 2786 2820 2821 2818 2772 2781 2859 2880 2827 2772 2729 2800 2741 2806 2911 2786 2733 2774 2845 2721 2780 2816 2837 2749 2716 2779 2811 2756 2883 2767 2953 2817 2806 2854 2731 2780 2753 2705 2916 2781 2715 2898 2710 2783 2820 2790 2849 2784 2801 2743 2790 2867 2792 2800 2764 2752 2787 2813 2882 2881 2860 2773 2781 2843 2712 2877 2821 2815 2735 2817 2935 2853 2802 2939 2889 2825 2890 2986 2713 2834 2887 2867 2768 2811 2814 2691 2918 2804 2758 2755 2867 2889 2871 2860 2879 2904 2741 2725 2829 2830 2855 2857 2757 2767 2833 2898 2738 2856 2757 2797 2882 2865 2786 2782 2795 2801 2851 2728 2837 2842 2804 2736 2709 2749 2808 2784 2814 2828 2798 2787 2775 2710 2747 2860 2693 2708 2827 2700 2786 2864 2733 2785 2757 2817 2833 2762 2748 2742 2745 2794 2817 2801 2794 2849 2744 2775 2717 2863 2741 2794 2777 2855 2861 2809 2827 2758 2799 2840 2875 2767 2799 2900 2799 2769 2842 2839 2758 2673 2784 2784 2737 2892 2834 2722 2709 2791 2808 2730 2729 2774 2815 2755 2762 2748 2762 2863 2829 2816 2762 2810 2755 2841 2768 2796 2827 2770 2822 2864 2816 2796 2800 2860 2786 2803 2786 2812 2773 2854 2778 2778 2725 2859 2873 2801 2858 2803 2865 2819 2811 2776 2892 2886 2729 2760 2869 2750 2770 2785 2815 2775 2828 2820 2951 2835 2844 2994 2871 2962 2816 2873 2882 2886 2834 2864 2781 3000 2907 2894 2961 2836 2924 2956 2925 2857 2905 2892 2910 2806 2873 2926 2948 2872 2928 2907 2849 2967 2959 2914 2963 2862 2916 2873 2991 2905 2804 2885 2835 2879 2854 2848 2886 2848 2946 2921 2937 2769 2898 2824 2966 2813 2726 2891 2928 2877 2720 2818 2930 2818 2903 2827 2726 2788 2736 2710 2869 2838 2829 2855 2698 2830 2819 2777 2851 2775 2851 2828 2762 2829 2911 2698 2849 2812 2833 2785 2769 2729 2762 2759 2669 2812 2743 2759 2741 2708 2817 2819 2774 2793 2886 2817 2796 2805 2854 2807 2826 2824 2708 2736 2735 2678 2804 2812 2736 2762 2744 2850 2826 2749 2688 2766 2933 2811 2849 2778 2768 2729 2843 2814 2744 2821 2894 2789 2851 2774 2787 2786 2722 2836 2776 2812 2796 2856 2879 2752 2781 2825 2797 2729 2826 2715 2884 2836 2830 2753 2769 2813 2801 2844 2804 2849 2782 2733 2749 2725 2770 2738 2768 2737 2762 2782 2836 2890 2736 2779 2785 2843 2795 2779 2823 2762 2811 2713 2720 2814 2793 2807 2793 2812 2750 2888 2814 2800 2784 2805 2813 2750 2810 2731 2845 2709 2845 2796 2876 2847 2753 2857 2878 2823 2841 2822 2847 2809 2833 2839 2800 2815 2823 2878 2775 2831 2752 2822 2727 2857 2837 2764 2730 2795 2745 2827 2897 2801 2863 2798 2761 2825 2759 2828 2851 2769 2857 2847 2850 2885 2864 2824 2977 2895 2850 2832 2893 2710 2858 2766 2878 2914 2852 2934 2796 2810 2857 2844 2836 2922 2863 2928 2891 2884 2830 2863 2783 2937 2858 2847 2789 2823 3013 2845 2904 2823 2954 2892 2944 2941 2884 2858 3026 2905 2929 2996 2911 2893 2920 2990 2989 2950 2984 2875 3047 2959 2979 2889 2982 2865 3024 2884 3109 2958 3024 3037 3029 3006 3039 3003 2991 3038 2990 2922 2942 3022 3083 2984 3020 3006 2950 2945 3056 2992 2974 2988 2923 2952 3034 2918 2909 3002 2972 3068 3068 3005 2919 3083 2987 3018 3014 2982 3154 3014 3064 3092 3051 3091 3038 3098 3019 3018 3046 2959 2892 2972 2900 2972 2958 2920 2895 2896 2907 2845 2986 3010 2971 2918 2962 2889 3073 3000 2923 2901 2825 2908 2857 2919 2924 2902 2830 2928 2755 2831 2859 2853 2855 2897 2876 2821 2936 2909 2805 2798 2798 2836 2830 2913 2786 2796 2760 2846 2884 2772 2788 2925 2745 2759 2897 2838 2724 2674 2768 2909 2795 2778 2845 2807 2765 2878 2888 2802 2745 2818 2870 2802 2808 2829 2884 2770 2788 2806 2825 2829 2877 2860 2824 2743 2734 2833 2911 2849 2862 2747 2793 2820 2744 2824 2862 2799 2760 2874 2765 2792 2803 2848 2841 2802 2811 2780 2760 2747 2801 2818 2809 2780 2749 2870 2835 2720 2816 2837 2911 2778 2749 2816 2930 2768 2841 2782 2827 2823 2849 2720 2732 2760 2829 2843 2841 2800 2815 2894 2706 2772 2940 2873 2731 2886 2852 2820 2939 2873 2845 2794 2699 2914 2823 2808 2856 2827 2844 2834 2903 2736 2817 2848 2832 2796 2821 2788 2845 2823 2873 2776 2691 2904 2916 2819 2842 2795 2731 2860 2797 2791 2839 2948 2850 2898 2889 2912 2845 2878 2917 2766 2924 2939 2835 2844 2859 2806 2824 2828 2837 2803 2841 2823 2904 2931 2870 2832 2843 2876 2779 2838 2842 2795 2859 2741 2761 2877 2811 2820 2969 2810 2820 2744 2804 2869 2926 2870 2820 2894 2852 2812 2872 2820 2806 2795 2853 2861 2897 2809 2885 2801 2886 2801 2905 2813 2817 2936 2829 2879 2942 2795 2864 2754 2899 2808 2943 2826 2911 2823 2906 2858 2825 2817 2800 2791 2959 2740 2914 2907 2848 2770 2751 2882 2905 2776 2945 2759 2834 2845 2848 2737 2839 2883 2799 2784 2803 2745 2787 2827 2772 2877 2783 2721 2756 2825 2778 2797 2780 2833 2827 2795 2916 2939 2790 2598 2761 2840 2771 2742 2769 2842 2842 2850 2802 2868 2753 2792 2886 2769 2715 2773 2741 2840 2875 2789 2870 2826 2785 2901 2770 2779 2772 2820 2805 2883 2806 2899 2887 2852 2869 2813 2723 2841 2709 2838 2911 2833 2885 2790 2900 2761 2883 2803 2804 2756 2806 2808 2811 2784 2805 2816 2881 2803 2862 2834 2826 2777 2768 2819 2772 2833 2700 2790 2907 2851 2855 2818 2832 2766 2924 2768 2847 2921 2813 2818 2875 2897 2749 2864 2796 2744 2799 2842 2812 2745 2789 2816 2853 2870 2827 2886 2766 2846 2863 2904 2801 2866 2807 2770 2769 2824 2868 2841 2841 2790 2780 2885 2930 2863 2754 2871 2799 2839 2800 2872 2933 2768 2841 2844 2818 2900 2889 2806 2896 2973 2906 2923 2794 2769 2715 2767 2796 2833 2845 2909 2810 2804 2860 2822 2753 2770 2788 2869 2885 2766 2832 2857 2758 2749 2918 2911 2970 2867 2866 2834 2859 2822 2802 2770 2866 2862 2825 2929 2904 2753 2882 2759 2785 2762 2858 2867 2777 2831 2770 2810 2851 2886 2793 2885 2791 2839 2726 2903 2824 2795 2829 2934 2855 2760 2821 2856 2886 2865 2871 2889 2888 2807 2753 2880 2881 2828 2870 2809 2795 2810 2868 2801 2729 2868 2880 2944 2832 2813 2761 2766 2849 2921 2785 2700 2855 2993 2855 2874 2899 2844 2873 2786 2758 2707 2875 2861 2846 2763 2820 2858 2819 2725 2862 2885 2839 2813 2744 2839 2794 2797 2932 2978 2933 2793 2779 2856 2794 2757 2775 2876 2763 2845 2886 2959 2752 2881 2819 2819 2769 2810 2799 2810 2862 2824 2755 2929 2836 2808 2894 2893 2914 2886 2768 2899 2800 2890 2831 2914 2862 2840 2933 2932 2850 2858 2890 2833 2843 2896 2807 2894 2949 2847 2952 2901 2922 2931 2928 2903 2915 2907 2893 3020 2872 2975 2976 2865 2846 2887 2937 2959 2971 2990 2895 2950 2876 2924 2880 2989 2857 2911 2858 2863 2880 2941 2861 2870 2962 2901 2951 2885 2982 2912 2914 2939 2957 2948 2990 2923 2868 2885 2834 2881 2964 3028 2987 2909 2919 2870 2818 2993 2841 2834 3058 2891 2947 3033 2901 2893 3079 2981 2972 3008 2971 2954 2947 2979 2976 2932 3025 2815 2959 3004 3013 2973 3006 2897 2970 3003 3085 2982 2941 2904 2925 2830 2998 2987 2966 2963 2853 2984 2865 2973 2944 2886 3028 2879 3025 2900 2852 3000 2927 2906 2920 2827 2972 2841 2920 2953 2883 2873 2864 2914 2914 2973 2817 2864 2833 2792 2940 2803 2856 2826 2914 2968 2952 2942 2935 2840 2897 2926 2936 2884 2838 2852 2964 2772 2903 2858 2810 2960 2806 2812 2812 2849 2996 2868 2827 2902 2903 2886 2889 2979 2848 2932 2917 2796 2871 2882 2812 2861 2906 2887 2822 2846 2905 2899 2712 2939 2876 2909 2810 2858 2922 2831 2889 2940 2856 2746 2845 2826 2877 2823 2871 2856 2851 2929 2829 2830 2902 2843 2840 2828 2953 2827 2856 2861 2845 2959 2873 2898 2833 2897 2882 2889 2797 2937 2871 2945 2967 2868 3002 3001 2889 2792 2839 2881 2861 2890 2806 2808 2887 2935 2901 2961 2971 2880 3010 2868 2958 2898 2905 2852 2843 2845 2949 2987 2821 2855 2956 2872 2965 2929 2930 2864 2856 2901 3012 2923 2825 2974 2884 2969 2957 2887 2917 2920 2950 2947 3000 2861 2926 2885 2984 2919 2899 2959 2988 2919 3032 2963 3006 3093 2959 3081 3010 3111 3088 3071 3158 3142 3150 3077 3126 3197 3176 3126 3195 3215 3243 3280 3249 3206 3154 3123 3284 3251 3141 3117 3182 3213 3207 3297 3142 3130 3207 3260 3234 3402 3220 3186 3267 3166 3267 3325 3258 3285 3242 3202 3174 3262 3213 3388 3375 3274 3326 3291 3221 3315 3267 3258 3261 3345 3298 3320 3245 3194 3242 3256 3127 3238 3270 3177 3271 3206 3189 3211 3098 3182 3084 3162 3130 3161 3129 3080 3093 3057 3000 3076 3153 3120 3050 3093 3102 3112 3084 3077 3112 3117 2966 3100 3088 3067 3085 3027 3017 3086 3093 3078 3078 3065 3152 2950 2982 2905 3003 2913 3055 2966 2982 2973 2990 2930 2937 2953 2993 2953 2984 3040 3036 2970 2974 2941 2869 2967 2917 2896 2858 2930 2892 2870 2961 2925 3035 2902 2886 3036 2892 2985 2999 2909 2821 2915 2848 2873 2909 2893 2867 2894 3000 2836 2889 2879 3004 2950 2955 2924 2977 3007 2866 2905 2937 2905 2879 2918 2959 3014 2927 2921 2930 2930 2978 2993 2920 2875 2961 2905 2954 2928 2950 2950 2937 3007 2976 2903 2930 2885 2904 3012 3005 3053 2951 2853 2884 2929 2993 2866 2887 2928 2914 2918 2977 2913 2995 2913 2954 2805 2918 3064 2989 2983 2893 2906 2870 2938 2947 2974 2767 3024 2986 2983 2908 2924 3020 2944 2937 2956 2920 2851 3013 2843 2907 2837 3019 3012 3009 2909 2890 2940 2889 2915 2975 2957 2958 2910 2934 2900 2943 3105 2880 2884 2907 2923 2886 2878 3036 2988 2924 2884 2954 2907 2878 2990 2962 2823 2966 2937 2929 2957 2993 2969 2916 2993 2884 2905 2863 2996 2959 3034 3038 2853 2821 2945 2856 2817 2815 2797 2934 2908 2871 2850 2867 2857 2910 2969 2941 2912 2896 2977 2910 2838 2896 2887 2856 2913 2852 2813 2904 2934 2879 2945 2895 2963 2868 2860 2933 2955 2944 2858 2854 2947 2859 2882 2925 2958 2891 2849 2839 2904 2896 2878 2856 2940 2925 2825 2835 2923 3055 2905 2902 2921 2820 2843 2864 2885 2921 2849 2913 2808 2866 2874 2862 2888 3017 2912 2887 2924 2876 2855 2923 2879 2917 2958 2818 2908 2934 2840 2834 2849 2829 2851 2872 2785 2977 2841 2825 2845 2909 2857 2904 2868 2807 2903 2908 2799 2826 2874 2994 2912 2854 2978 2835 2872 2825 2787 2810 2930 2936 2850 2860 2933 2967 2903 2794 2793 2931 2957 2903 2797 2812 2891 2934 2895 2854 2783 2871 2785 2846 2932 2793 2916 2877 2870 2840 2865 2817 2890 2914 2922 2891 2855 2925 2773 2903 3005 2784 2817 2894 2905 2842 2961 2878 2875 2884 2975 2867 2953 2857 2864 2865 2833 2897 2887 2843 2905 2799 2904 2853 2845 2974 2876 2892 2902 2880 2895 2813 2784 2896 2914 2835 2856 2844 2880 2873 2983 2855 2882 2892 2971 2783 2870 2858 2926 2850 2920 2891 2926 2952 2825 2957 2803 2924 2874 2931 2858 2909 2830 2901 2839 2937 2915 2862 2977 2910 2959 2954 2915 2843 2857 2782 2937 2863 2894 2844 2857 2909 2985 2784 2867 2867 2883 2857 2892 2958 2928 2961 2879 2878 2951 2898 2997 2963 2924 2890 2809 2902 2924 2916 2966 2936 2900 2780 2884 2876 2862 2921 2969 2850 2861 2922 2967 2934 2800 3044 2879 2865 2845 2830 2957 2901 2897 2949 2807 2764 2831 2835 2924 2965 2831 2765 2907 2935 2879 2932 2906 2916 2919 2908 2842 2916 2751 2861 2720 2858 2890 2892 2891 2851 2897 2755 2862 2839 2852 2920 2904 2791 2891 2885 2895 2847 2853 2866 2829 2862 2932 2970 2944 2937 2953 2909 2922 2873 2906 2843 2922 2959 2849 2872 2878 2896 2904 2878 3000 2846 2897 2920 2851 2904 2899 2964 2989 2965 2877 2956 2894 2898 2942 2880 2872 2917 2976 2944 2947 2894 2935 3026 2877 2973 2986 2919 2889 2932 2911 2926 2912 2915 2972 2849 2955 2974 2858 2979 3015 2865 2954 2902 2920 3014 2870 3037 2894 2943 2897 2961 2945 2976 2889 2886 2868 2919 2953 2902 2960 2837 2910 3005 3028 3000 2943 2871 2910 2839 2922 2928 2845 2902 2859 2875 3015 2791 2884 2992 2895 2969 2971 2863 2897 2942 2993 2887 2889 2922 2943 2936 2998 2980 2996 2993 2977 2829 2966 2958 2987 2978 2848 3127 2949 2991 2894 2880 2806 2908 2889 2914 2896 2815 2872 2852 2883 2876 2871 2953 2952 2975 2991 2913 2997 2870 2883 2894 2977 2946 2923 2833 3052 2877 2847 2870 2939 2857 3003 2938 2955 2892 2885 2936 2898 2955 3025 2827 2950 2885 2990 2942 2893 2988 2976 2909 2852 2934 2961 2837 2875 2860 2875 2915 2848 2904 2903 2925 2894 2798 2872 2945 2979 2807 2865 2900 2982 2900 2858 2841 2856 2979 2860 2922 2909 2956 2971 2854 2865 2812 3017 3001 2998 2929 2985 2936 2862 2944 2915 2905 2826 2941 2882 2896 2874 2882 3045 2971 2887 3050 2882 2810 2849 2847 2961 2897 2815 2910 2796 2853 2898 2958 2941 2945 2901 2959 2963 2850 2971 2870 2896 3044 2953 2889 2931 2868 2844 2862 2804 2924 2947 2968 2855 2829 2855 2912 2991 2847 2930 2818 2851 3026 2975 2894 2872 2936 2947 2913 2894 2921 2960 2919 3022 2952 2948 2885 2923 2843 2928 2886 3009 2786 2962 2900 2979 3019 2959 2943 2980 3088 3034 2965 2837 2943 2919 2843 2968 2892 2937 2909 3002 2853 2919 3011 2858 3037 2958 2870 2958 2904 3001 3020 2913 2933 2956 2884 2943 2986 2948 2964 2959 2941 2958 3049 2995 2994 2968 3088 3039 3093 2998 3012 3015 3039 3094 3187 3094 3174 3172 2984 3144 3150 3097 3125 3056 3147 3124 3168 3203 3252 3214 3149 3216 3240 3220 3204 3199 3231 3134 3208 3185 3240 3224 3155 3163 3213 3237 3256 3197 3229 3239 3265 3174 3129 3199 3208 3144 3285 3128 3182 3112 3234 3146 3132 3142 3140 3239 3054 3126 3185 3181 3024 3154 3172 3176 3084 3328 3058 3087 3135 3180 3129 3178 3190 3192 3169 3069 3131 3122 3123 3040 3164 3136 3036 3161 3137 3173 3078 3095 3101 3115 3096 3124 3046 3156 3081 3140 3085 2985 3035 3066 2931 3092 3029 3071 3163 3061 3104 3035 3066 3103 3074 3058 3086 2938 3006 3099 3076 3129 3060 3046 3074 3023 3078 3038 2994 3057 3005 2986 2851 2936 3048 3092 3003 2989 3020 3027 2909 3025 2958 2946 3004 2921 3019 2883 2944 2919 2917 3052 3000 2904 2885 2963 2999 2947 2956 3008 2916 3015 2963 2975 2946 2912 2941 2979 2925 3016 3049 2934 2988 2934 2960 2947 2948 3034 2953 2938 2896 3039 2986 2980 3023 2944 2985 2970 2971 3028 2990 2974 2934 2854 2965 2882 2944 2890 2961 2948 3026 2926 2961 3003 2921 2908 2959 3007 2863 3028 2861 2919 2845 2903 2826 2888 2890 2904 3048 2987 2873 2996 2890 3013 2993 2913 2923 2958 2952 2870 2923 2913 2870 2953 2972 2970 2909 2976 2858 2917 2939 3060 2988 2832 3027 2905 2995 2947 2927 2890 2979 2958 3032 2949 2856 3016 2911 2981 2883 2919 2961 2936 3021 2940 2933 3036 2826 2888 2938 2984 2890 2932 2852 2899 3016 2864 2953 3039 2960 2992 2987 3006 3034 2939 2860 2924 2953 2912 2995 2922 2982 2932 3059 3006 2997 2935 2891 2925 3041 2933 2902 2876 2879 2987 2952 2920 2980 2995 2945 2952 2931 2927 2891 2874 2966 2925 2877 2882 2971 2959 2880 3005 2874 3078 2887 2907 2932 2898 2929 2934 2920 3014 2864 2879 2894 2940 2917 2893 2896 2903 3002 2821 2859 2990 2885 2920 3025 2971 2952 2935 2917 2895 2944 2878 2854 2959 2923 2903 2988 2884 2895 2962 2935 2993 2905 2877 2899 3062 2854 2875 2914 2792 2853 2977 2884 2952 2913 2886 2871 2838 3001 2814 2957 2880 2908 2883 2916 2832 2921 2943 2872 2840 2821 2950 2939 2906 2930 2913 2961 3049 3029 2985 2897 2973 2970 2900 2952 2883 2873 2895 2950 2907 2915 2873 2872 2974 2823 2829 2795 2843 2897 2970 2880 2946 2851 2925 2855 2882 2871 2899 2842 3003 2920 2919 2881 3010 2909 2833 2920 2973 2828 2919 3064 2893 2941 2875 2977 3011 2933 2857 2862 2810 2834 2964 3002 2895 2946 2917 2883 2922 2953 2885 2801 2951 2901 2955 2910 2908 2909 2989 2960 2876 2930 2859 2962 2827 2983 2854 2946 2936 2876 2963 2853 2950 2953 2935 2888 2915 2989 2926 2919 2861 2960 2782 3005 2902 2945 2831 2975 2900 2865 2912 2933 2975 2925 2879 2957 2897</counts>
			</dataPoints>
		</scan>
	</xrdMeasurement>
</xrdMeasurements>
