<?xml version="1.0"?>
<xrdMeasurements xmlns="http://www.xrdml.com/XRDMeasurement/2.3" xmlns:xsi="http://www.w3.org/2001/XMLSchema-instance" xsi:schemaLocation="http://www.xrdml.com/XRDMeasurement/2.3 http://www.xrdml.com/XRDMeasurement/2.3/XRDMeasurement.xsd" status="Completed" recordIdentifier="{0FF40A1D-1103-4017-A8CA-23938EF4B4BD}">
	<comment>
		<entry/>
	</comment>
	<sample type="To be analyzed">
		<id>GPSS_Li1p6Fe0p9Cr0p2Cl4_111225_691549b847a6a0fd7c6580c4</id>
		<name></name>
		<preparedBy></preparedBy>
	</sample>
	<xrdMeasurement measurementType="Scan" status="Completed" sampleMode="Reflection">
		<usedWavelength intended="K-Alpha 1">
			<kAlpha1 unit="Angstrom">1.5405980</kAlpha1>
			<kAlpha2 unit="Angstrom">1.5444260</kAlpha2>
			<kBeta unit="Angstrom">1.3922500</kBeta>
			<ratioKAlpha2KAlpha1>0.5000</ratioKAlpha2KAlpha1>
		</usedWavelength>
		<incidentBeamPath>
			<radius unit="mm">145.00</radius>
			<xRayTube id="1010048" name="Empyrean Cu LFF HR (9430 033 7310x)">
				<tension unit="kV">40.0</tension>
				<current unit="mA">15.0</current>
				<anodeMaterial>Cu</anodeMaterial>
				<focus type="Line">
					<length unit="mm">12.0</length>
					<width unit="mm">0.4</width>
					<takeOffAngle unit="deg">6.0</takeOffAngle>
				</focus>
			</xRayTube>
			<sollerSlit id="21010002" name="Soller slits 0.04 rad.">
				<opening unit="rad">0.0400</opening>
			</sollerSlit>
			<mask id="22031000" name="Fixed mask 13 mm">
				<width unit="mm">9.00</width>
			</mask>
			<divergenceSlit id="22120001" name="Divergence slit 1°" xsi:type="fixedDivergenceSlitType">
				<distanceToSample unit="mm">50.00</distanceToSample>
				<height unit="mm">1.52</height>
			</divergenceSlit>
		</incidentBeamPath>
		<sampleMovement xsi:type="spinningSampleMovementType">
			<spinnerRevolutionTime unit="seconds">1.0</spinnerRevolutionTime>
		</sampleMovement>
		<diffractedBeamPath>
			<radius unit="mm">145.00</radius>
			<antiScatterSlit id="22090040" name="AS slit 9 mm (PIXcel)" xsi:type="fixedAntiScatterSlitType">
				<height unit="mm">9.00</height>
			</antiScatterSlit>
			<sollerSlit id="21020003" name="Large Soller slits 0.04 rad.">
				<opening unit="rad">0.0400</opening>
			</sollerSlit>
			<filter id="20030001" name="Large beta-filter Nickel">
				<material>Ni</material>
				<thickness unit="mm">0.020</thickness>
			</filter>
			<detector id="7010019" name="PIXcel1D-Medipix3 detector" xsi:type="rtmsDetectorType">
				<phd unit="keV">
					<lowerLevel>4.02</lowerLevel>
					<upperLevel>11.27</upperLevel>
				</phd>
				<mode>Scanning</mode>
				<activeLength unit="deg">5.542</activeLength>
			</detector>
		</diffractedBeamPath>
		<scan appendNumber="0" mode="Continuous" scanAxis="Gonio" status="Completed">
			<header>
				<startTimeStamp>2025-11-16T13:53:47-08:00</startTimeStamp>
				<endTimeStamp>2025-11-16T14:01:54-08:00</endTimeStamp>
				<author>
					<name>AutomatedUser</name>
				</author>
				<source>
					<applicationSoftware version="1.7b (136)">PANalytical Aeris Instrument Suite</applicationSoftware>
					<instrumentControlSoftware version="3.2.00000000 20240306">AERIS</instrumentControlSoftware>
					<instrumentID>950485</instrumentID>
				</source>
			</header>
			<dataPoints>
				<positions axis="2Theta" unit="deg">
					<startPosition>10.00943322</startPosition>
					<endPosition>99.99442286</endPosition>
				</positions>
				<positions axis="Omega" unit="deg">
					<startPosition>5.00471661</startPosition>
					<endPosition>49.99721143</endPosition>
				</positions>
				<commonCountingTime unit="seconds">12.495</commonCountingTime>
				<counts unit="counts">2917 2895 2890 2845 2879 2893 2825 2845 2937 2878 2917 2835 2914 2955 2905 2876 2779 2878 2811 2864 2810 2891 2879 2926 2903 2958 2871 2933 2948 2791 2903 2919 2999 2800 2841 2938 2860 2876 2836 2971 2856 2955 2918 2836 2942 2907 2941 2891 2870 2972 2861 2818 2941 2936 2841 2834 2977 2993 3100 2962 2863 2893 2923 2898 2915 2944 2960 2926 2953 2978 2928 2999 3003 2934 2968 2940 2964 2984 3023 2965 3026 2986 2922 2908 3063 3032 2980 2942 3108 2958 3019 2980 2988 2894 2904 3039 3018 2933 2908 2927 2912 2911 2976 2944 3045 3039 3038 3072 2983 3007 2949 3052 3109 3080 2982 2913 3005 2998 3068 2975 3039 2927 2944 2965 2989 2999 2936 3098 3099 3042 2968 2957 2995 3016 3160 3008 3043 3020 3028 3070 2970 3000 3059 3140 3052 2984 3094 3071 2933 3113 2983 2968 3102 3029 3034 2971 2975 2938 3012 2920 3016 2924 2930 2923 2943 3091 3048 3105 3067 3098 3025 3169 2957 3043 2987 3129 3105 3022 3116 3122 3063 3087 3047 2927 3072 3052 2954 3101 2953 3000 3049 3036 3049 3078 3028 3012 3027 2989 2930 3116 3014 3077 2941 3003 2980 2955 2994 3035 2884 3022 2964 2991 2952 2931 2973 3004 3047 3029 2939 3017 2924 3011 2976 2940 3008 3009 2993 2966 3074 3027 3017 2929 2908 2996 2951 3046 3035 2963 2905 2990 2972 2961 2877 2910 2939 2906 2945 2916 3006 2954 2962 2915 2995 3010 2963 2938 3081 2970 3005 2958 3012 2957 3001 2929 3062 2933 3060 2849 3000 3002 2980 3026 2888 2967 3038 3024 3045 2898 2927 2983 3056 2932 3057 2910 3010 3022 2964 3044 2966 3021 2994 3037 3016 3009 2991 3131 3044 3039 2904 3106 3053 3130 2998 2936 3086 3038 3052 3074 3046 3052 3038 2848 3002 3014 3026 2943 3007 3057 3067 2986 3014 3053 3036 3066 3106 3027 3094 3110 2983 3133 3150 3071 3123 3147 3130 3149 3067 3224 2971 3231 3172 3126 3149 3200 3126 3135 3114 3254 3079 3136 3194 3219 3154 3287 3100 3267 3177 3216 3150 3289 3279 3202 3258 3233 3224 3194 3284 3235 3233 3266 3228 3302 3267 3198 3253 3189 3321 3267 3320 3221 3390 3240 3311 3339 3422 3364 3408 3313 3391 3269 3303 3344 3336 3427 3339 3308 3299 3408 3381 3502 3384 3438 3576 3404 3389 3418 3422 3448 3497 3393 3547 3365 3451 3476 3576 3581 3496 3421 3570 3475 3663 3581 3692 3566 3662 3746 3702 3677 3883 3869 3812 3801 3837 3875 3848 3804 3832 3893 3981 3923 3978 3944 3977 4021 3970 3995 4195 4108 4118 4159 4193 4159 4207 4253 4327 4184 4275 4228 4241 4123 4224 4183 4229 4110 4114 4227 4194 4202 4193 4129 4148 4133 4330 4269 4326 4322 4314 4309 4312 4306 4432 4264 4291 4124 4283 4123 4198 4171 4206 4087 4049 4024 4101 3992 4146 4156 4180 4081 4057 3989 4043 3849 3851 3851 3793 3705 3796 3699 3575 3598 3464 3451 3526 3480 3484 3543 3643 3470 3465 3393 3569 3482 3517 3488 3505 3514 3448 3545 3520 3375 3396 3358 3465 3364 3346 3347 3359 3338 3343 3304 3317 3295 3358 3178 3316 3215 3377 3284 3301 3319 3304 3261 3403 3179 3187 3337 3286 3375 3133 3214 3167 3205 3210 3204 3155 3253 3245 3244 3153 3214 3156 3155 3172 3154 3218 3054 3076 3189 3031 3193 3098 3243 3088 3169 3185 3132 3156 3069 3120 3192 3158 3056 3014 3168 3113 3118 3189 3044 3120 3079 3039 3053 3053 3125 3062 3056 3151 2995 3101 3088 3150 3081 3032 3079 3079 3116 3160 3072 3115 3027 3008 3170 2955 3045 3088 3065 3065 3110 3026 3138 3021 3102 2974 3102 3143 3067 3142 3112 3200 3042 3109 3071 3068 3083 2929 3126 3182 3061 3088 3027 3003 3191 2979 3062 3157 2995 3034 2986 3133 3216 3089 3123 3034 3140 3058 3165 3041 3016 3008 3040 3002 3092 3027 3197 3172 3068 3164 3082 3007 3068 3062 3015 3103 3031 3103 3026 3128 3023 3072 3078 3046 2968 3074 2983 3018 3027 2975 3076 3065 3105 3006 3078 3047 3114 3033 2988 2996 3055 2989 2986 3006 2994 2997 3077 2956 3063 2985 3128 3061 2941 3074 2934 3112 3027 3033 2948 2978 2977 3011 3104 2990 3024 2967 3006 3051 3005 2965 2962 3048 3045 3020 2960 2949 2899 3076 2994 3093 2983 3004 3071 3020 2911 2981 2943 3012 2923 2963 2862 2958 2915 3010 2980 3019 2962 3030 2861 2970 2987 2974 2996 3004 3022 2934 3049 2954 3050 3030 2966 2970 2907 3006 2875 3056 2921 2928 2962 2852 3001 2933 2991 2925 2867 2938 2954 2931 3030 2985 2977 2983 2983 2878 2869 2915 2974 2992 2917 2829 2964 2967 2952 3035 3018 2893 2964 2893 2861 2824 2909 2972 2879 2808 3012 2872 2899 2987 2834 3040 2908 2907 2967 3002 2938 2844 2970 2814 2971 2955 2909 2895 2938 2891 2881 2964 2986 2984 2948 2862 2970 2814 2919 2907 2940 2800 2850 2965 2964 2865 2837 2849 2916 2934 2874 2920 2993 2803 2861 2908 2846 2822 2849 2837 2968 2895 2896 2896 2875 2855 2855 2961 2864 2923 2849 2840 2920 2872 2840 2797 2796 2807 2804 2844 2830 2847 2885 2787 2808 2879 2879 2759 2844 2815 2847 2858 2883 2821 2949 2862 2902 2859 2866 2801 2863 2952 2874 2880 2813 2794 2834 2806 2798 2793 2822 2797 2796 2859 2797 2719 2877 2876 2906 2702 2716 2838 2855 2890 2803 2887 2850 2749 2819 2805 2764 2749 2822 2867 2800 2856 2806 2819 2785 2864 2783 2772 2882 2806 2863 2796 2720 2800 2768 2787 2801 2814 2723 2860 2742 2800 2902 2831 2701 2824 2843 2758 2834 2758 2781 2788 2826 2738 2952 2873 2818 2801 2727 2761 2796 2699 2816 2751 2786 2780 2833 2776 2746 2817 2779 2717 2755 2663 2796 2771 2818 2716 2748 2845 2722 2730 2856 2765 2735 2825 2821 2820 2760 2799 2821 2778 2857 2807 2776 2781 2763 2772 2689 2722 2810 2857 2753 2766 2835 2850 2830 2838 2783 2764 2797 2833 2812 2800 2782 2703 2819 2740 2895 2724 2675 2787 2871 2770 2789 2838 2763 2719 2792 2840 2739 2754 2770 2765 2779 2727 2781 2742 2664 2769 2728 2834 2799 2797 2789 2720 2883 2823 2808 2879 2803 2936 2759 2855 2686 2884 2766 2826 2747 2834 2717 2783 2732 2761 2970 2800 2794 2792 2852 2813 2746 2861 2864 2802 2818 2777 2838 2807 2743 2786 2799 2801 2811 2742 2720 2715 2872 2746 2754 2744 2717 2687 2690 2784 2696 2817 2728 2816 2713 2860 2649 2663 2798 2737 2743 2758 2670 2699 2762 2687 2677 2684 2692 2643 2779 2709 2746 2668 2705 2725 2654 2656 2750 2677 2606 2649 2701 2648 2718 2720 2712 2631 2650 2716 2667 2682 2678 2706 2705 2708 2653 2623 2681 2680 2724 2712 2674 2716 2697 2664 2646 2695 2554 2704 2645 2610 2610 2539 2616 2574 2605 2651 2702 2577 2658 2580 2561 2583 2548 2661 2525 2642 2507 2557 2482 2449 2507 2496 2542 2525 2571 2436 2566 2526 2617 2438 2529 2420 2464 2548 2610 2489 2496 2513 2451 2489 2544 2472 2470 2501 2532 2536 2453 2487 2510 2473 2420 2402 2416 2416 2493 2424 2451 2359 2488 2413 2435 2441 2431 2550 2404 2452 2409 2481 2462 2464 2470 2475 2441 2459 2419 2470 2367 2356 2474 2267 2472 2503 2392 2372 2396 2389 2337 2365 2400 2483 2370 2351 2285 2412 2347 2345 2338 2371 2364 2243 2413 2312 2368 2278 2403 2406 2392 2256 2344 2295 2349 2358 2275 2309 2311 2261 2340 2346 2299 2261 2342 2343 2407 2413 2283 2336 2297 2295 2238 2249 2386 2360 2285 2309 2342 2336 2281 2347 2296 2370 2258 2431 2237 2197 2323 2243 2257 2326 2242 2304 2297 2247 2336 2272 2299 2282 2150 2353 2298 2331 2328 2180 2296 2292 2237 2320 2351 2340 2260 2192 2251 2161 2262 2283 2210 2268 2240 2283 2292 2311 2300 2259 2246 2207 2249 2302 2360 2325 2335 2223 2230 2285 2325 2262 2184 2271 2272 2261 2222 2243 2271 2321 2297 2293 2251 2260 2207 2281 2210 2292 2269 2252 2208 2257 2309 2275 2272 2204 2253 2226 2177 2233 2226 2205 2283 2302 2169 2310 2302 2269 2168 2223 2290 2268 2342 2253 2325 2334 2190 2150 2170 2166 2331 2238 2212 2277 2304 2299 2279 2217 2228 2225 2180 2226 2291 2271 2323 2232 2298 2209 2282 2300 2215 2355 2306 2230 2250 2263 2330 2282 2237 2285 2256 2262 2258 2205 2195 2231 2267 2376 2197 2343 2230 2263 2195 2291 2313 2209 2222 2230 2280 2262 2259 2256 2242 2320 2325 2294 2217 2243 2204 2319 2249 2300 2357 2241 2194 2211 2198 2221 2265 2243 2242 2261 2226 2169 2265 2194 2267 2271 2350 2398 2233 2279 2306 2301 2209 2294 2271 2142 2232 2232 2306 2250 2290 2268 2236 2189 2198 2196 2235 2283 2199 2257 2130 2241 2244 2247 2243 2130 2211 2082 2230 2234 2246 2267 2193 2260 2173 2156 2186 2159 2200 2148 2195 2205 2320 2278 2177 2225 2131 2203 2243 2180 2170 2161 2248 2262 2178 2232 2180 2228 2194 2194 2125 2136 2119 2146 2156 2125 2155 2215 2115 2094 2241 2123 2085 2172 2040 2128 2161 2168 2113 2164 2101 2150 2085 2150 2131 2069 2026 2147 2109 2078 2151 2021 2083 2075 2134 2042 1984 2067 2066 2091 2081 2030 2095 2074 2050 2093 2021 2032 2033 2111 1951 2061 2002 1959 2067 2054 2065 2125 2022 2016 2063 2061 2044 1997 2052 2001 1959 1985 2001 2001 2001 2005 1988 1911 2045 1978 2020 2002 2006 2039 1978 2073 1928 1973 2040 1930 1972 2001 1905 1976 1875 2044 1912 2038 1962 1984 1909 1963 1945 1972 2016 1877 1939 1932 1939 1924 1971 1937 1950 1896 2002 1932 1929 2028 1998 1946 1946 2024 2071 2017 2146 2050 2044 2017 2027 2026 2084 2052 2144 2057 2130 2098 2141 2118 2191 2089 2139 2178 2161 2289 2192 2206 2235 2198 2306 2294 2369 2254 2259 2330 2385 2430 2369 2366 2304 2456 2382 2380 2367 2285 2292 2381 2359 2204 2257 2241 2194 2245 2270 2208 2192 2175 2243 2262 2240 2145 2144 2144 2177 2153 2081 2183 2182 2137 2138 2102 2036 2088 1993 1965 1993 2031 2025 1910 1985 1878 1929 1965 1992 1944 1987 1894 1838 1991 1846 1898 1900 1809 1890 1842 1800 1874 1931 1836 1962 1796 1889 1876 1866 1866 1859 1842 1816 1757 1846 1809 1878 1888 1821 1927 1863 1883 1888 1928 1873 1835 1799 1895 1882 1842 1997 1985 2025 2078 2057 2100 2192 2183 2093 2110 2163 2185 2150 2135 2117 2190 2206 2258 2281 2275 2257 2429 2435 2392 2576 2644 2648 2589 2639 2785 2718 2598 2790 2674 2698 2570 2696 2621 2617 2645 2624 2578 2480 2473 2465 2509 2462 2415 2429 2487 2506 2420 2533 2424 2388 2349 2396 2397 2288 2303 2282 2261 2143 2203 2217 2096 2095 2044 1990 2146 2025 2091 1916 1993 1863 1901 2054 1894 1811 1928 1871 1846 1835 1830 1808 1801 1688 1755 1820 1749 1738 1746 1744 1773 1700 1770 1797 1802 1800 1738 1792 1763 1801 1713 1824 1756 1760 1811 1738 1702 1800 1756 1808 1782 1815 1775 1748 1816 1833 1794 1771 1777 1812 1780 1862 1739 1796 1814 1829 1801 1751 1753 1729 1786 1712 1801 1725 1657 1665 1713 1690 1678 1631 1794 1748 1694 1751 1622 1660 1689 1693 1708 1701 1623 1666 1660 1697 1617 1737 1692 1689 1680 1637 1657 1667 1646 1666 1715 1598 1667 1727 1686 1625 1580 1612 1591 1577 1673 1733 1639 1660 1677 1620 1669 1661 1666 1629 1671 1629 1679 1715 1655 1647 1684 1634 1610 1649 1547 1576 1626 1654 1660 1627 1524 1750 1654 1608 1663 1656 1606 1612 1626 1689 1648 1630 1579 1695 1576 1655 1595 1704 1570 1604 1564 1607 1667 1539 1637 1631 1594 1621 1600 1699 1577 1612 1655 1558 1593 1574 1590 1565 1616 1681 1644 1612 1626 1610 1578 1550 1575 1562 1577 1592 1668 1643 1636 1586 1585 1592 1615 1652 1536 1675 1606 1664 1614 1563 1567 1558 1653 1618 1563 1586 1667 1640 1564 1552 1576 1572 1594 1696 1612 1653 1643 1622 1648 1662 1606 1579 1632 1614 1552 1661 1601 1620 1622 1615 1650 1605 1566 1682 1649 1572 1646 1691 1699 1606 1553 1542 1553 1588 1580 1622 1603 1657 1594 1616 1611 1582 1538 1566 1626 1554 1611 1641 1617 1671 1573 1624 1503 1634 1604 1557 1559 1651 1579 1595 1651 1627 1549 1627 1527 1604 1584 1593 1576 1622 1534 1618 1586 1569 1670 1520 1533 1556 1585 1592 1626 1544 1582 1554 1650 1525 1604 1624 1575 1610 1638 1589 1574 1548 1614 1500 1639 1598 1571 1519 1646 1587 1546 1603 1606 1583 1536 1547 1582 1613 1563 1586 1580 1569 1638 1620 1635 1602 1694 1524 1640 1641 1641 1578 1653 1527 1656 1582 1657 1623 1610 1556 1648 1598 1588 1622 1551 1629 1573 1596 1681 1644 1641 1672 1690 1587 1681 1725 1711 1695 1634 1757 1795 1774 1741 1826 1852 1806 1883 1969 1951 2161 2179 2306 2258 2397 2451 2614 2607 2854 2793 2847 2855 3178 3152 3184 3229 3337 3396 3535 3670 3743 3603 3807 3910 4086 4233 4271 4258 4282 4402 4428 4437 4331 4366 4319 4300 4331 4037 4118 4110 3849 3957 3893 3871 3865 3641 3708 3495 3541 3611 3649 3675 3523 3563 3455 3388 3225 3331 3202 3160 3194 3058 2970 2914 2831 2688 2692 2492 2496 2415 2366 2347 2266 2283 2162 2060 2153 2039 1991 1949 1940 1914 1843 1779 1872 1811 1806 1875 1714 1857 1789 1740 1653 1753 1690 1732 1648 1684 1710 1723 1678 1717 1693 1586 1625 1710 1579 1652 1659 1629 1588 1614 1618 1622 1597 1533 1589 1609 1611 1577 1547 1584 1544 1620 1562 1618 1618 1648 1653 1578 1647 1601 1560 1678 1612 1659 1539 1647 1567 1591 1625 1561 1650 1567 1535 1584 1554 1548 1553 1593 1620 1551 1568 1652 1635 1579 1551 1615 1641 1581 1629 1599 1587 1616 1516 1561 1482 1560 1541 1668 1605 1551 1539 1553 1679 1617 1603 1589 1521 1533 1612 1616 1574 1669 1593 1580 1620 1661 1647 1709 1598 1649 1570 1578 1592 1673 1580 1599 1623 1665 1591 1609 1576 1584 1538 1592 1553 1526 1525 1519 1519 1589 1487 1538 1469 1597 1555 1558 1545 1500 1508 1537 1507 1486 1522 1576 1503 1518 1349 1516 1447 1494 1549 1527 1501 1512 1551 1484 1503 1497 1492 1521 1541 1494 1551 1445 1473 1501 1500 1537 1396 1478 1481 1515 1436 1582 1515 1491 1518 1513 1497 1491 1407 1459 1480 1455 1463 1479 1413 1421 1570 1475 1485 1487 1368 1485 1502 1481 1469 1427 1517 1494 1467 1504 1447 1466 1491 1503 1464 1426 1496 1403 1385 1523 1486 1393 1507 1429 1406 1419 1496 1527 1438 1454 1533 1493 1451 1509 1478 1450 1440 1556 1470 1486 1518 1532 1494 1567 1457 1418 1490 1547 1499 1534 1535 1535 1454 1489 1495 1530 1414 1499 1503 1487 1511 1526 1471 1540 1521 1511 1526 1425 1464 1474 1498 1536 1560 1478 1468 1540 1449 1438 1464 1451 1470 1496 1538 1446 1480 1404 1476 1395 1464 1497 1455 1461 1410 1497 1446 1485 1434 1404 1416 1331 1441 1403 1458 1399 1413 1451 1458 1365 1454 1436 1427 1482 1453 1401 1492 1434 1438 1439 1445 1421 1417 1536 1499 1532 1409 1476 1369 1424 1449 1390 1435 1443 1470 1483 1513 1467 1458 1419 1363 1456 1433 1384 1391 1435 1477 1447 1424 1431 1434 1463 1406 1449 1444 1417 1420 1405 1418 1396 1364 1447 1431 1409 1378 1395 1449 1435 1403 1440 1382 1375 1453 1436 1450 1351 1475 1398 1399 1453 1421 1455 1432 1472 1428 1466 1454 1446 1394 1424 1348 1406 1410 1456 1464 1430 1435 1455 1448 1363 1379 1461 1383 1406 1385 1441 1443 1433 1375 1404 1376 1401 1374 1397 1445 1411 1475 1450 1396 1447 1418 1428 1404 1464 1385 1369 1340 1333 1420 1477 1397 1367 1385 1410 1457 1418 1375 1465 1389 1360 1403 1420 1433 1339 1411 1362 1410 1395 1413 1405 1359 1422 1343 1345 1477 1372 1443 1398 1370 1404 1389 1374 1365 1396 1376 1379 1408 1409 1417 1423 1479 1459 1394 1391 1405 1379 1325 1336 1415 1376 1372 1367 1378 1429 1387 1330 1362 1350 1344 1406 1345 1416 1320 1407 1402 1398 1412 1395 1400 1421 1442 1444 1421 1411 1470 1438 1328 1371 1428 1416 1406 1417 1374 1362 1367 1408 1460 1369 1401 1315 1363 1419 1416 1412 1401 1364 1422 1417 1412 1389 1414 1359 1397 1347 1380 1381 1329 1412 1347 1445 1393 1440 1401 1480 1352 1395 1386 1404 1392 1413 1438 1297 1434 1366 1338 1375 1398 1383 1409 1376 1421 1446 1354 1384 1341 1411 1383 1361 1322 1335 1380 1342 1355 1374 1324 1316 1387 1345 1348 1333 1397 1358 1410 1355 1341 1327 1407 1392 1373 1365 1410 1345 1337 1351 1436 1377 1360 1310 1398 1288 1308 1384 1345 1351 1326 1340 1353 1369 1345 1375 1379 1369 1411 1352 1314 1378 1393 1324 1428 1374 1390 1331 1413 1332 1401 1341 1392 1400 1368 1377 1399 1382 1385 1363 1406 1439 1390 1428 1359 1318 1392 1384 1368 1408 1380 1346 1325 1362 1391 1445 1384 1274 1286 1346 1382 1385 1367 1407 1312 1366 1418 1371 1342 1350 1390 1305 1352 1305 1269 1356 1334 1454 1329 1354 1412 1370 1287 1291 1353 1399 1455 1352 1382 1357 1399 1398 1403 1421 1413 1409 1409 1423 1365 1326 1345 1327 1347 1325 1362 1416 1338 1336 1403 1273 1353 1389 1340 1346 1391 1445 1360 1440 1368 1380 1322 1354 1390 1357 1393 1393 1399 1392 1424 1373 1403 1354 1310 1356 1326 1430 1348 1380 1401 1346 1415 1376 1418 1374 1418 1370 1369 1331 1331 1366 1357 1425 1309 1458 1384 1370 1361 1339 1354 1304 1379 1307 1355 1290 1329 1320 1400 1356 1286 1418 1327 1315 1288 1321 1334 1382 1365 1370 1323 1388 1376 1392 1296 1274 1304 1392 1407 1280 1367 1311 1369 1355 1289 1374 1325 1295 1339 1302 1388 1352 1321 1316 1390 1358 1352 1323 1366 1315 1313 1388 1336 1267 1439 1300 1377 1278 1332 1386 1368 1349 1366 1293 1320 1296 1376 1433 1343 1369 1320 1389 1339 1333 1390 1395 1367 1369 1369 1353 1367 1337 1330 1285 1280 1450 1290 1331 1341 1422 1282 1315 1310 1355 1421 1339 1305 1330 1349 1412 1373 1336 1344 1307 1341 1364 1329 1367 1421 1322 1288 1379 1353 1393 1354 1382 1370 1323 1316 1272 1362 1352 1372 1273 1358 1349 1369 1333 1319 1335 1344 1374 1286 1351 1359 1308 1380 1324 1356 1349 1390 1368 1359 1332 1334 1364 1313 1361 1384 1315 1346 1404 1357 1322 1359 1340 1376 1349 1384 1394 1276 1368 1340 1327 1354 1337 1483 1298 1448 1321 1387 1380 1421 1426 1383 1454 1446 1454 1504 1446 1479 1409 1485 1529 1563 1639 1537 1556 1648 1570 1596 1613 1555 1648 1512 1606 1622 1737 1699 1630 1688 1760 1665 1678 1749 1663 1664 1660 1740 1735 1576 1654 1626 1642 1595 1668 1561 1585 1588 1594 1595 1585 1605 1575 1514 1604 1525 1530 1484 1569 1453 1531 1473 1490 1433 1483 1397 1485 1388 1475 1411 1440 1414 1416 1373 1432 1354 1406 1406 1328 1357 1345 1318 1322 1392 1393 1371 1350 1394 1356 1336 1374 1385 1293 1296 1316 1297 1320 1302 1377 1278 1315 1285 1313 1386 1313 1361 1283 1267 1296 1331 1352 1281 1332 1363 1324 1301 1318 1333 1349 1289 1347 1373 1295 1346 1330 1291 1367 1355 1291 1273 1423 1374 1341 1309 1350 1287 1317 1305 1339 1337 1251 1298 1277 1341 1383 1328 1385 1293 1307 1358 1345 1392 1342 1279 1377 1346 1332 1369 1310 1355 1310 1356 1321 1306 1334 1295 1338 1289 1327 1325 1331 1306 1280 1281 1308 1329 1254 1283 1368 1303 1347 1313 1266 1371 1306 1312 1274 1359 1283 1287 1394 1288 1296 1353 1285 1337 1398 1310 1302 1372 1349 1362 1320 1335 1327 1239 1341 1283 1307 1321 1273 1341 1349 1290 1319 1335 1315 1348 1397 1324 1266 1346 1306 1280 1275 1356 1320 1296 1361 1285 1302 1331 1320 1347 1302 1265 1308 1337 1348 1287 1306 1355 1324 1316 1353 1351 1349 1389 1343 1294 1403 1282 1315 1339 1301 1339 1271 1349 1315 1280 1295 1318 1334 1298 1353 1300 1231 1331 1291 1328 1254 1288 1387 1352 1335 1254 1274 1323 1337 1319 1261 1385 1341 1341 1270 1291 1300 1254 1332 1279 1285 1344 1303 1352 1301 1298 1219 1366 1384 1233 1306 1309 1323 1294 1323 1366 1341 1303 1263 1260 1283 1318 1286 1324 1352 1275 1305 1294 1305 1209 1320 1340 1289 1352 1309 1329 1311 1295 1233 1345 1297 1372 1309 1317 1329 1371 1295 1315 1339 1274 1266 1265 1354 1326 1268 1356 1264 1315 1304 1256 1262 1332 1356 1311 1329 1281 1350 1319 1327 1238 1313 1388 1306 1337 1348 1361 1352 1338 1365 1351 1293 1336 1369 1360 1332 1409 1355 1467 1490 1374 1372 1344 1398 1357 1389 1416 1441 1430 1485 1337 1526 1474 1529 1539 1663 1661 1753 1787 1888 1893 1987 2133 2174 2176 2157 2258 2291 2272 2338 2395 2510 2596 2698 2886 2893 2953 2815 2892 2890 2891 3025 2904 3011 3071 3038 3198 3049 3075 3038 2931 2818 2795 2904 2848 2823 2852 2683 2634 2610 2536 2509 2496 2538 2488 2405 2421 2390 2348 2231 2197 2161 2103 2159 2143 2001 1981 1952 1963 1920 1924 1870 1884 1772 1732 1700 1719 1694 1741 1625 1575 1617 1532 1583 1537 1492 1532 1547 1484 1492 1472 1500 1402 1415 1399 1460 1417 1375 1432 1414 1415 1439 1373 1387 1342 1327 1430 1360 1419 1337 1337 1368 1422 1390 1323 1391 1396 1372 1330 1328 1319 1410 1310 1353 1314 1375 1329 1418 1315 1377 1398 1328 1296 1358 1263 1354 1303 1351 1341 1313 1352 1280 1300 1321 1311 1368 1332 1326 1326 1317 1343 1261 1314 1241 1303 1314 1330 1288 1335 1311 1325 1299 1327 1322 1261 1291 1262 1279 1307 1264 1285 1331 1378 1301 1350 1291 1274 1270 1248 1301 1290 1326 1329 1287 1330 1355 1263 1313 1305 1346 1310 1313 1299 1270 1296 1272 1275 1289 1309 1282 1354 1255 1311 1275 1310 1266 1301 1303 1283 1284 1331 1284 1375 1292 1326 1392 1309 1259 1312 1310 1301 1276 1300 1256 1384 1268 1294 1307 1286 1295 1281 1351 1358 1381 1265 1419 1355 1420 1388 1413 1395 1327 1389 1436 1490 1485 1338 1444 1476 1495 1495 1494 1464 1513 1469 1436 1486 1547 1421 1517 1506 1497 1541 1458 1507 1421 1506 1443 1551 1445 1517 1497 1451 1485 1488 1428 1402 1513 1474 1425 1430 1384 1437 1371 1367 1329 1428 1314 1418 1363 1379 1337 1299 1323 1329 1269 1294 1358 1311 1336 1319 1375 1281 1333 1374 1295 1308 1272 1334 1325 1272 1232 1292 1237 1337 1332 1263 1217 1331 1305 1321 1288 1256 1241 1292 1273 1250 1271 1203 1243 1302 1285 1331 1279 1331 1268 1290 1333 1277 1245 1306 1351 1344 1284 1298 1342 1284 1304 1278 1303 1278 1244 1343 1309 1295 1242 1264 1296 1318 1204 1371 1380 1279 1284 1284 1261 1266 1239 1255 1273 1272 1327 1300 1313 1305 1242 1245 1210 1302 1296 1293 1303 1242 1273 1278 1261 1295 1341 1254 1256 1245 1211 1244 1246 1242 1258 1272 1267 1304 1276 1247 1290 1220 1253 1219 1249 1256 1246 1234 1278 1263 1241 1282 1314 1326 1210 1266 1255 1310 1296 1267 1201 1317 1237 1257 1275 1169 1217 1215 1226 1292 1252 1278 1262 1240 1194 1262 1286 1231 1243 1233 1292 1268 1172 1141 1225 1174 1237 1312 1271 1248 1192 1236 1285 1198 1239 1190 1242 1226 1206 1259 1216 1243 1290 1228 1220 1225 1213 1270 1217 1270 1184 1213 1192 1200 1202 1196 1214 1155 1156 1226 1186 1239 1148 1132 1238 1250 1191 1181 1198 1251 1234 1243 1288 1225 1261 1303 1195 1203 1191 1262 1237 1246 1199 1231 1283 1211 1239 1236 1222 1213 1227 1228 1235 1208 1229 1242 1202 1211 1261 1212 1211 1168 1312 1199 1188 1245 1213 1235 1309 1294 1212 1213 1235 1224 1208 1267 1177 1262 1257 1256 1278 1233 1166 1210 1196 1196 1333 1258 1229 1241 1257 1259 1224 1265 1186 1263 1196 1235 1190 1151 1203 1187 1271 1200 1213 1269 1205 1261 1282 1207 1220 1157 1256 1210 1237 1192 1219 1221 1137 1209 1221 1201 1248 1170 1241 1164 1195 1245 1242 1230 1244 1303 1214 1236 1268 1255 1241 1262 1196 1249 1237 1195 1219 1250 1284 1215 1211 1275 1240 1260 1172 1209 1220 1235 1198 1252 1194 1177 1250 1271 1202 1221 1200 1235 1225 1170 1242 1180 1200 1235 1304 1190 1230 1182 1225 1228 1220 1258 1240 1177 1199 1163 1153 1212 1233 1221 1186 1120 1184 1186 1263 1174 1326 1271 1257 1210 1167 1123 1199 1173 1203 1154 1196 1172 1192 1186 1177 1208 1219 1279 1193 1215 1172 1275 1169 1208 1212 1217 1211 1267 1242 1238 1208 1250 1170 1193 1200 1189 1182 1176 1170 1176 1186 1217 1238 1203 1236 1191 1201 1211 1192 1164 1214 1248 1179 1242 1197 1167 1234 1200 1249 1164 1180 1214 1196 1239 1195 1195 1285 1199 1247 1283 1225 1171 1224 1205 1299 1172 1154 1171 1179 1207 1232 1221 1192 1181 1175 1166 1222 1230 1173 1224 1211 1177 1233 1178 1185 1276 1183 1207 1162 1223 1219 1206 1147 1101 1158 1193 1162 1202 1172 1277 1240 1179 1172 1220 1252 1192 1205 1203 1213 1230 1246 1251 1193 1199 1172 1211 1221 1215 1222 1248 1240 1205 1216 1250 1164 1223 1233 1221 1230 1206 1192 1154 1161 1190 1192 1161 1162 1187 1217 1181 1190 1215 1251 1212 1250 1281 1202 1217 1241 1192 1254 1222 1220 1265 1268 1210 1197 1236 1197 1216 1279 1261 1290 1255 1239 1239 1273 1282 1290 1253 1228 1209 1192 1275 1256 1210 1185 1253 1262 1197 1236 1239 1284 1237 1168 1272 1227 1271 1201 1200 1182 1235 1261 1216 1200 1233 1187 1217 1229 1258 1163 1180 1241 1233 1279 1330 1284 1259 1318 1360 1240 1318 1288 1321 1335 1294 1325 1346 1294 1345 1368 1375 1340 1346 1387 1324 1370 1339 1395 1432 1429 1360 1349 1318 1361 1433 1350 1373 1379 1378 1324 1401 1353 1409 1377 1321 1331 1335 1344 1269 1308 1300 1312 1307 1363 1319 1264 1352 1315 1281 1294 1285 1270 1208 1241 1266 1255 1328 1255 1270 1257 1264 1215 1218 1277 1252 1320 1277 1244 1252 1222 1259 1182 1246 1269 1178 1202 1194 1260 1238 1252 1215 1194 1226 1233 1182 1248 1197 1208 1201 1157 1226 1211 1176 1187 1214 1217 1239 1274 1231 1182 1210 1203 1237 1251 1209 1218 1158 1173 1214 1169 1129 1232 1217 1181 1206 1256 1190 1121 1196 1194 1223 1201 1205 1195 1241 1145 1152 1158 1091 1149 1156 1142 1232 1180 1177 1192 1165 1221 1206 1286 1147 1191 1118 1173 1158 1240 1142 1194 1122 1238 1141 1186 1187 1236 1176 1260 1122 1180 1262 1173 1194 1197 1194 1166 1207 1206 1202 1191 1173 1189 1229 1216 1151 1161 1203 1196 1210 1186 1183 1163 1162 1187 1215 1192 1216 1179 1157 1142 1194 1173 1143 1196 1182 1192 1220 1165 1129 1199 1172 1234 1198 1266 1174 1207 1198 1239 1246 1219 1199 1176 1174 1162 1174 1162 1175 1183 1257 1113 1178 1182 1156 1215 1167 1164 1152 1175 1195 1215 1232 1212 1194 1117 1219 1215 1202 1258 1231 1152 1185 1189 1164 1240 1210 1209 1193 1226 1256 1249 1218 1234 1187 1239 1184 1240 1209 1260 1267 1271 1251 1298 1195 1296 1326 1303 1393 1375 1378 1341 1359 1379 1420 1470 1415 1469 1480 1494 1568 1623 1668 1630 1645 1667 1673 1646 1696 1590 1648 1602 1631 1621 1574 1571 1639 1613 1657 1609 1723 1699 1656 1599 1590 1549 1482 1623 1549 1442 1551 1482 1532 1487 1479 1422 1384 1470 1434 1425 1378 1429 1370 1372 1399 1294 1356 1329 1325 1289 1270 1285 1279 1290 1353 1256 1275 1373 1244 1315 1294 1316 1320 1298 1223 1263 1267 1198 1258 1276 1305 1291 1179 1253 1207 1268 1274 1273 1223 1233 1208 1212 1224 1214 1238 1240 1222 1179 1246 1189 1215 1258 1253 1246 1248 1321 1201 1178 1208 1134 1199 1151 1206 1255 1121 1196 1227 1231 1302 1191 1220 1215 1242 1210 1201 1226 1123 1269 1202 1234 1227 1224 1216 1213 1194 1223 1269 1145 1193 1176 1154 1254 1250 1166 1162 1174 1220 1192 1258 1211 1215 1206 1208 1199 1164 1210 1169 1256 1262 1086 1193 1265 1211 1137 1193 1173 1084 1135 1211 1183 1175 1198 1214 1189 1199 1186 1194 1207 1154 1272 1264 1182 1210 1251 1241 1217 1157 1248 1224 1283 1170 1136 1186 1265 1208 1239 1270 1255 1225 1302 1290 1284 1257 1306 1319 1289 1276 1265 1317 1368 1282 1322 1320 1317 1369 1310 1390 1324 1338 1288 1325 1328 1328 1323 1358 1369 1339 1421 1302 1393 1355 1313 1323 1281 1383 1336 1292 1215 1224 1273 1252 1263 1240 1235 1224 1265 1267 1287 1265 1271 1277 1278 1247 1261 1225 1232 1229 1270 1214 1208 1177 1154 1214 1253 1196 1216 1211 1219 1163 1210 1163 1241 1271 1187 1204 1168 1235 1240 1152 1202 1198 1183 1189 1180 1149 1130 1206 1112 1209 1206 1242 1153 1173 1174 1179 1220 1189 1226 1180 1140 1127 1174 1180 1166 1153 1161 1227 1207 1203 1166 1185 1180 1124 1205 1128 1152 1130 1109 1215 1198 1185 1128 1216 1184 1185 1219 1157 1207 1173 1293 1186 1151 1197 1160 1152 1147 1192 1163 1204 1188 1110 1276 1149 1121 1135 1156 1239 1177 1200 1154 1215 1155 1164 1167 1206 1176 1219 1188 1170 1116 1190 1133 1196 1169 1187 1171 1170 1150 1175 1134 1172 1181 1174 1204 1240 1141 1184 1201 1187 1127 1165 1153 1210 1178 1198 1182 1150 1157 1234 1129 1166 1152 1156 1149 1214 1171 1201 1174 1202 1164 1148 1195 1184 1152 1172 1189 1155 1142 1203 1125 1166 1203 1191 1220 1161 1148 1172 1157 1155 1205 1158 1198 1133 1177 1183 1147 1167 1143 1160 1163 1232 1142 1193 1170 1170 1194 1140 1153 1186 1145 1205 1139 1136 1170 1155 1263 1155 1221 1147 1150 1135 1195 1046 1116 1204 1132 1184 1113 1251 1200 1179 1199 1166 1151 1181 1171 1145 1186 1106 1138 1128 1195 1137 1177 1169 1183 1165 1189 1161 1171 1129 1113 1225 1244 1169 1148 1149 1158 1112 1186 1137 1206 1143 1160 1180 1136 1131 1153 1133 1184 1168 1134 1156 1227 1219 1174 1120 1084 1130 1138 1198 1154 1158 1170 1185 1183 1148 1142 1134 1178 1164 1208 1147 1160 1135 1155 1172 1167 1130 1145 1198 1125 1230 1191 1171 1168 1151 1215 1181 1180 1145 1207 1165 1171 1119 1104 1156 1173 1139 1121 1164 1176 1160 1153 1162 1226 1180 1221 1154 1138 1162 1137 1190 1171 1151 1238 1214 1192 1147 1151 1118 1178 1136 1170 1181 1214 1165 1116 1136 1135 1071 1132 1156 1162 1180 1174 1161 1175 1157 1163 1126 1173 1160 1177 1083 1180 1194 1126 1208 1122 1119 1121 1173 1211 1168 1204 1174 1148 1144 1146 1221 1171 1189 1174 1179 1182 1176 1185 1173 1189 1147 1212 1143 1183 1154 1123 1159 1187 1159 1161 1125 1234 1185 1197 1140 1189 1172 1120 1108 1119 1155 1143 1172 1138 1193 1144 1107 1115 1136 1156 1108 1139 1191 1166 1135 1153 1156 1126 1164 1125 1150 1146 1117 1132 1197 1167 1149 1176 1088 1144 1146 1116 1095 1088 1189 1135 1197 1094 1125 1147 1195 1077 1142 1134 1174 1135 1155 1146 1149 1137 1142 1146 1180 1137 1098 1203 1211 1152 1115 1223 1175 1190 1158 1166 1221 1188 1183 1090 1229 1226 1188 1224 1170 1243 1251 1210 1199 1133 1240 1261 1261 1231 1150 1191 1153 1190 1229 1231 1201 1210 1239 1205 1161 1249 1201 1185 1185 1242 1202 1178 1175 1188 1243 1228 1151 1156 1160 1195 1150 1185 1111 1158 1199 1139 1210 1120 1202 1224 1120 1195 1140 1193 1211 1206 1123 1151 1149 1176 1144 1157 1182 1151 1108 1184 1197 1171 1168 1167 1101 1144 1131 1120 1157 1137 1157 1173 1214 1148 1137 1170 1098 1153 1147 1152 1224 1162 1129 1158 1152 1156 1201 1135 1134 1144 1166 1127 1190 1220 1098 1167 1171 1200 1163 1131 1189 1147 1138 1110 1149 1077 1151 1168 1136 1176 1141 1178 1152 1155 1147 1165 1184 1124 1101 1170 1181 1179 1123 1093 1082 1223 1164 1187 1194 1181 1147 1171 1178 1151 1173 1163 1139 1211 1182 1141 1117 1120 1172 1167 1143 1206 1143 1115 1146 1091 1160 1132 1194 1124 1158 1124 1147 1158 1251 1142 1138 1121 1194 1098 1169 1128 1107 1095 1146 1118 1104 1161 1090 1099 1152 1145 1134 1159 1182 1141 1093 1138 1149 1157 1165 1165 1134 1176 1244 1179 1202 1147 1084 1115 1183 1129 1142 1122 1153 1103 1112 1087 1058 1164 1165 1156 1188 1217 1194 1102 1137 1187 1166 1150 1206 1141 1163 1121 1087 1137 1134 1104 1090 1113 1174 1135 1178 1139 1153 1189 1135 1119 1094 1150 1118 1135 1164 1140 1125 1155 1114 1138 1187 1168 1151 1120 1145 1242 1150 1143 1157 1213 1130 1097 1160 1130 1131 1153 1122 1100 1185 1158 1169 1122 1192 1115 1130 1176 1132 1184 1130 1186 1159 1139 1187 1180 1089 1193 1160 1149 1175 1184 1119 1184 1114 1207 1129 1162 1168 1211 1228 1258 1243 1198 1203 1255 1250 1195 1248 1241 1205 1274 1309 1336 1308 1320 1348 1318 1282 1302 1288 1263 1242 1239 1345 1342 1299 1311 1314 1293 1270 1201 1297 1306 1274 1276 1291 1263 1232 1295 1236 1297 1270 1238 1239 1224 1260 1190 1215 1262 1297 1220 1193 1262 1248 1278 1203 1236 1127 1184 1183 1182 1248 1202 1181 1231 1225 1185 1180 1212 1111 1186 1186 1175 1153 1179 1163 1131 1145 1184 1144 1161 1151 1191 1150 1195 1187 1157 1170 1167 1189 1193 1157 1213 1134 1199 1196 1134 1187 1144 1158 1121 1200 1176 1149 1110 1183 1162 1138 1068 1121 1144 1155 1135 1142 1169 1153 1184 1219 1141 1193 1203 1182 1149 1149 1166 1143 1186 1159 1184 1141 1080 1200 1205 1189 1249 1137 1137 1170 1179 1147 1161 1153 1115 1067 1191 1120 1160 1146 1145 1164 1137 1100 1137 1153 1165 1094 1161 1174 1131 1189 1223 1183 1112 1195 1151 1200 1121 1148 1092 1128 1187 1170 1154 1138 1193 1146 1161 1165 1119 1121 1136 1129 1172 1138 1133 1144 1188 1127 1208 1164 1137 1116 1110 1166 1160 1153 1160 1109 1201 1156 1129 1136 1177 1144 1066 1171 1182 1130 1167 1095 1172 1135 1097 1140 1175 1158 1223 1164 1185 1138 1137 1124 1159 1105 1145 1142 1208 1116 1135 1158 1133 1130 1146 1121 1102 1103 1140 1154 1122 1176 1174 1129 1120 1185 1181 1179 1130 1153 1111 1111 1101 1183 1107 1128 1137 1172 1117 1119 1119 1147 1174 1139 1095 1155 1198 1156 1157 1115 1167 1119 1154 1131 1207 1225 1152 1146 1155 1116 1192 1151 1137 1140 1158 1169 1165 1125 1155 1142 1177 1174 1134 1164 1156 1106 1091 1133 1142 1124 1127 1100 1164 1120 1207 1189 1076 1160 1127 1180 1169 1143 1178 1113 1132 1125 1123 1114 1142 1202 1076 1122 1154 1151 1178 1082 1168 1179 1134 1126 1159 1137 1138 1171 1143 1071 1154 1138 1215 1143 1131 1147 1149 1144 1103 1109 1151 1182 1156 1116 1171 1153 1137 1135 1067 1134 1125 1174 1170 1222 1163 1177 1139 1157 1209 1144 1116 1219 1087 1114 1184 1173 1157 1174 1104 1118 1113 1075 1173 1120 1101 1132 1156 1112 1110 1153 1091 1191 1148 1213 1119 1185 1173 1153 1189 1115 1112 1150 1132 1166 1188 1173 1170 1194 1098 1151 1140 1123 1060 1107 1103 1125 1206 1163 1231 1144 1131 1111 1177 1194 1132 1168 1169 1090 1128 1207 1118 1111 1179 1144 1124 1179 1164 1135 1162 1143 1200 1105 1166 1206 1131 1156 1095 1104 1166 1209 1131 1163 1119 1132 1150 1191 1120 1152 1187 1241 1110 1162 1136 1188 1090 1134 1096 1124 1153 1160 1110 1136 1158 1139 1132 1099 1159 1119 1111 1076 1178 1098 1165 1153 1119 1127 1125 1126 1171 1101 1180 1121 1165 1181 1185 1161 1163 1162 1142 1159 1145 1151 1168 1178 1110 1103 1126 1145 1167 1119 1181 1217 1130 1131 1153 1172 1160 1144 1123 1131 1171 1170 1189 1127 1185 1119 1158 1171 1095 1124 1145 1242 1069 1163 1128 1180 1193 1113 1125 1122 1150 1108 1096 1155 1183 1123 1128 1122 1105 1134 1216 1132 1167 1140 1147 1153 1190 1139 1131 1156 1174 1152 1096 1133 1188 1123 1153 1200 1178 1160 1118 1113 1107 1137 1143 1154 1156 1121 1141 1127 1075 1155 1123 1181 1163 1104 1215 1149 1042 1154 1150 1170 1125 1139 1138 1091 1180 1212 1178 1144 1155 1188 1189 1194 1107 1138 1166 1184 1111 1123 1166 1115 1147 1155 1139 1164 1113 1083 1125 1168 1175 1125 1183 1185 1166 1199 1203 1090 1192 1199 1252 1105 1145 1222 1106 1162 1174 1174 1173 1155 1206 1110 1154 1151 1126 1144 1179 1111 1092 1137 1150 1161 1141 1162 1131 1166 1244 1108 1185 1140 1206 1098 1162 1188 1184 1203 1133 1211 1182 1176 1168 1146 1119 1186 1170 1254 1260 1219 1212 1214 1228 1182 1203 1241 1217 1245 1175 1193 1215 1208 1228 1233 1169 1194 1191 1156 1194 1168 1221 1259 1281 1170 1238 1209 1124 1180 1229 1170 1187 1176 1157 1159 1176 1127 1150 1234 1174 1165 1158 1128 1144 1205 1241 1189 1119 1233 1185 1114 1154 1194 1213 1229 1246 1193 1160 1166 1164 1205 1169 1179 1196 1192 1208 1180 1151 1211 1178 1226 1190 1208 1217 1227 1217 1245 1229 1190 1216 1186 1179 1202 1203 1224 1207 1258 1107 1165 1197 1171 1173 1158 1181 1175 1168 1115 1187 1228 1188 1195 1172 1169 1171 1156 1191 1145 1181 1162 1122 1130 1172 1110 1190 1104 1179 1162 1221 1185 1206 1148 1187 1181 1181 1133 1220 1132 1176 1195 1182 1136 1133 1176 1141 1185 1147 1193 1145 1182 1139 1147 1173 1219 1170 1147 1194 1211 1178 1149 1202 1183 1170 1179 1181 1238 1089 1223 1121 1184 1225 1193 1218 1126 1125 1192 1177 1135 1150 1146 1237 1181 1187 1164 1157 1144 1192 1107 1185 1149 1133 1118 1160 1155 1148 1148 1150 1181 1138 1133 1126 1168 1114 1146 1144 1154 1171 1137 1163 1084 1181 1141 1106 1117 1172 1156 1147 1144 1123 1105 1138 1171 1170 1123 1140 1218 1200 1213 1150 1148 1132 1117 1142 1134 1135 1130 1154 1240 1134 1128 1114 1199 1184 1124 1136 1144 1112 1130 1167 1142 1158 1104 1128 1186 1167 1155 1200 1245 1110 1225 1204 1177 1252 1176 1167 1204 1243 1201 1256 1161 1175 1206 1175 1208 1145 1169 1191 1154 1234 1232 1229 1251 1183 1253 1161 1229 1252 1344 1195 1289 1264 1299 1366 1368 1377 1447 1420 1461 1460 1403 1451 1432 1378 1385 1436 1490 1460 1466 1501 1446 1541 1512 1525 1456 1469 1472 1511 1563 1483 1516 1555 1516 1603 1495 1503 1504 1369 1450 1530 1408 1462 1444 1500 1427 1339 1399 1375 1365 1368 1333 1381 1410 1410 1347 1330 1334 1315 1377 1300 1323 1266 1303 1234 1280 1272 1296 1256 1310 1266 1247 1320 1291 1268 1200 1298 1219 1235 1266 1230 1269 1278 1230 1193 1250 1189 1201 1175 1209 1203 1235 1210 1187 1263 1215 1201 1198 1128 1120 1260 1199 1173 1168 1177 1187 1151 1236 1204 1207 1193 1236 1134 1211 1148 1160 1175 1202 1208 1207 1176 1184 1217 1217 1170 1177 1157 1184 1143 1171 1221 1245 1189 1206 1208 1215 1174 1216 1147 1156 1120 1142 1171 1177 1158 1158 1222 1208 1179 1204 1168 1240 1143 1202 1176 1142 1170 1115 1148 1160 1120 1138 1173 1131 1160 1178 1141 1156 1107 1215 1116 1118 1119 1177 1191 1197 1202 1223 1161 1137 1269 1167 1219 1205 1207 1157 1127 1172 1223 1139 1192 1135 1149 1195 1268 1218 1187 1244 1164 1266 1194 1208 1177 1171 1192 1205 1205 1189 1228 1173 1166 1188 1205 1191 1250 1177 1193 1182 1142 1220 1172 1144 1142 1153 1153 1171 1167 1231 1209 1185 1135 1200 1177 1208 1168 1179 1168 1172 1205 1204 1189 1185 1188 1147 1172 1222 1211 1118 1193 1114 1163 1156 1181 1185 1127 1169 1176 1200 1172 1180 1168 1131 1198 1145 1125 1119 1128 1153 1190 1146 1152 1214 1133 1145 1173 1120 1134 1150 1130 1143 1095 1194 1195 1191 1177 1079 1152 1172 1165 1129 1202 1196 1154 1152 1138 1153 1150 1217 1095 1104 1117 1148 1174 1151 1187 1158 1154 1217 1147 1196 1169 1183 1136 1156 1178 1140 1170 1189 1146 1169 1083 1122 1071 1133 1135 1122 1189 1202 1192 1236 1159 1127 1201 1214 1143 1162 1198 1177 1110 1146 1188 1057 1171 1161 1209 1144 1133 1136 1117 1180 1108 1102 1185 1124 1128 1102 1126 1072 1128 1192 1193 1183 1199 1168 1133 1136 1135 1125 1172 1141 1134 1114 1166 1158 1137 1132 1108 1118 1137 1190 1087 1140 1165 1132 1236 1159 1134 1126 1173 1140 1100 1112 1218 1192 1114 1117 1168 1131 1151 1159 1176 1143 1171 1095 1156 1118 1146 1151 1106 1132 1134 1130 1117 1152 1190 1160 1188 1213 1187 1110 1091 1129 1140 1126 1192 1088 1123 1079 1181 1118 1146 1086 1245 1174 1198 1180 1136 1094 1221 1197 1127 1164 1108 1136 1157 1163 1093 1114 1147 1214 1175 1133 1206 1123 1111 1118 1176 1196 1162 1138 1233 1095 1184 1178 1242 1161 1259 1162 1092 1118 1124 1139 1115 1167 1109 1141 1136 1087 1190 1090 1209 1173 1170 1163 1167 1147 1212 1136 1140 1153 1141 1112 1106 1123 1181 1135 1189 1120 1217 1135 1140 1136 1151 1104 1135 1193 1136 1128 1083 1134 1134 1118 1078 1173 1115 1130 1144 1183 1194 1151 1164 1084 1083 1136 1146 1119 1164 1109 1138 1171 1074 1176 1165 1150 1128 1099 1072 1129 1114 1103 1115 1153 1089 1212 1140 1091 1132 1113 1095 1140 1196 1145 1114 1093 1150 1059 1112 1147 1120 1132 1115 1187 1206 1155 1147 1206 1178 1148 1157 1160 1139 1136 1188 1142 1130 1107 1130 1165 1196 1118 1172 1185 1166 1126 1155 1061 1180 1131 1177 1148 1169 1158 1202 1107 1152 1063 1116 1198 1157 1119 1231 1150 1132 1171 1251 1183 1163 1164 1150 1187 1134 1161 1091 1115 1111 1190 1158 1132 1167 1071 1164 1158 1093 1196 1184 1179 1205 1157 1176 1186 1142 1142 1158 1121 1143 1121 1121 1215 1099 1100 1123 1165 1182 1130 1076 1153 1158 1173 1177 1188 1203 1163 1172 1147 1152 1240 1227 1219 1201 1178 1109 1198 1136 1172 1186 1154 1160 1204 1187 1230 1228 1197 1153 1188 1200 1194 1183 1222 1132 1216 1207 1128 1148 1224 1179 1153 1171 1176 1178 1177 1173 1094 1148 1164 1187 1166 1143 1133 1188 1155 1145 1250 1078 1174 1157 1163 1130 1178 1124 1085 1188 1177 1135 1154 1125 1131 1117 1172 1196 1109 1153 1156 1125 1168 1119 1097 1151 1179 1158 1168 1214 1166 1165 1150 1188 1216 1102 1143 1105 1155 1201 1189 1156 1241 1180 1164 1119 1154 1119 1140 1202 1141 1182 1130 1161 1196 1172 1122 1128 1158 1177 1166 1201 1157 1131 1120 1130 1110 1153 1156 1209 1125 1092 1171 1134 1095 1120 1266 1114 1106 1121 1148 1127 1131 1164 1138 1201 1078 1132 1165 1137 1178 1133 1112 1162 1203 1104 1174 1217 1094 1161 1239 1132 1171 1157 1143 1123 1121 1107 1151 1150 1165 1087 1178 1130 1103 1162 1039 1154 1147 1186 1202 1134 1153 1102 1108 1114 1187 1151 1191 1168 1207 1153 1155 1129 1148 1194 1140 1128 1173 1183 1187 1125 1201 1082 1143 1072 1116 1155 1109 1196 1174 1056 1112 1063 1164 1122 1178 1142 1133 1137 1111 1146 1140 1099 1146 1249 1143 1114 1110 1120 1192 1168 1123 1184 1123 1137 1125 1177 1092 1131 1076 1114 1136 1072 1114 1144 1166 1129 1147 1138 1182 1196 1217 1157 1185 1180 1192 1129 1106 1111 1156 1116 1168 1130 1102 1219 1178 1146 1175 1131 1080 1187 1171 1136 1148 1138 1206 1148 1211 1137 1248 1225 1141 1217 1205 1246 1116 1199 1146 1187 1257 1206 1234 1255 1291 1312 1259 1303 1233 1297 1286 1266 1377 1269 1298 1352 1323 1341 1364 1302 1343 1332 1374 1355 1326 1303 1348 1337 1335 1390 1383 1365 1366 1376 1407 1283 1385 1331 1363 1375 1382 1316 1374 1370 1369 1348 1302 1320 1355 1275 1319 1310 1277 1260 1275 1205 1252 1348 1248 1312 1325 1257 1284 1222 1304 1223 1242 1207 1274 1224 1221 1263 1235 1160 1219 1266 1227 1229 1196 1271 1211 1188 1175 1174 1158 1173 1183 1169 1185 1222 1164 1133 1179 1183 1138 1203 1218 1189 1189 1156 1201 1175 1081 1187 1153 1155 1178 1131 1147 1189 1194 1189 1167 1159 1221 1136 1198 1147 1175 1163 1157 1178 1107 1134 1200 1139 1179 1237 1174 1167 1157 1177 1166 1198 1130 1145 1105 1176 1078 1144 1193 1166 1165 1123 1174 1087 1214 1175 1201 1131 1126 1131 1170 1157 1170 1155 1126 1162 1154 1200 1153 1106 1201 1177 1110 1182 1159 1239 1107 1157 1120 1183 1144 1119 1179 1116 1200 1155 1150 1171 1169 1239 1172 1189 1219 1124 1174 1168 1106 1179 1195 1154 1216 1231 1117 1146 1186 1172 1126 1156 1124 1197 1129 1157 1146 1170 1156 1172 1206 1193 1215 1182 1191 1142 1125 1209 1194 1240 1158 1153 1080 1146 1171 1118 1163 1128 1131 1159 1154 1217 1188 1140 1105 1181 1163 1116 1146 1205 1169 1168 1062 1134 1138 1135 1113 1098 1096 1140 1204 1105 1158 1120 1113 1144 1164 1117 1094 1174 1129 1141 1157 1076 1173 1177 1117 1127 1104 1128 1172 1171 1149 1135 1081 1142 1124 1169 1144 1106 1120 1170 1187 1130 1153 1127 1105 1194 1129 1206 1171 1160 1090 1142 1081 1104 1119 1129 1168 1142 1150 1102 1109 1146 1104 1119 1158 1142 1152 1146 1198 1134 1099 1080 1243 1152 1135 1184 1116 1105 1203 1085 1175 1070 1102 1141 1107 1090 1149 1121 1153 1132 1196 1188 1094 1145 1200 1120 1134 1101 1179 1155 1160 1106 1100 1065 1116 1089 1125 1095 1129 1135 1063 1156 1170 1138 1135 1163 1159 1156 1181 1152 1156 1153 1190 1227 1160 1128 1123 1144 1092 1132 1089 1191 1139 1174 1115 1154 1137 1143 1087 1181 1141 1150 1170 1121 1045 1151 1124 1155 1133 1167 1110 1174 1137 1147 1117 1106 1195 1133 1209 1086 1103 1170 1193 1112 1108 1135 1142 1159 1136 1104 1097 1157 1114 1161 1154 1202 1133 1153 1190 1152 1116 1167 1097 1162 1143 1107 1186 1133 1159 1143 1125 1193 1113 1154 1099 1164 1151 1168 1124 1157 1201 1186 1100 1143 1105 1139 1187 1129 1116 1171 1152 1128 1119 1130 1140 1128 1117 1160 1135 1206 1137 1177 1162 1160 1161 1149 1061 1132 1129 1102 1135 1134 1182 1192 1153 1126 1146 1132 1098 1190 1176 1162 1175 1143 1082 1114 1120 1119 1138 1118 1146 1139 1196 1121 1169 1159 1119 1134 1148 1098 1128 1104 1108 1178 1130 1169 1160 1174 1144 1111 1125 1145 1181 1125 1163 1080 1182 1189 1158 1153 1084 1142 1167 1133 1079 1124 1144 1191 1126 1189 1149 1120 1115 1170 1101 1133 1100 1169 1152 1147 1134 1143 1107 1177 1218 1071 1165 1133 1122 1157 1181 1144 1165 1140 1105 1127 1171 1168 1150 1095 1170 1121 1204 1161 1181 1117 1137 1144 1127 1159 1101 1141 1130 1140 1107 1123 1103 1144 1203 1146 1161 1117 1107 1102 1136 1118 1131 1119 1127 1124 1089 1117 1118 1082 1180 1098 1160 1108 1152 1175 1111 1095 1139 1135 1106 1142 1156 1135 1089 1129 1171 1106 1181 1071 1136 1164 1089 1148 1120 1162 1103 1192 1124 1190 1157 1195 1132 1089 1114 1099 1155</counts>
			</dataPoints>
		</scan>
	</xrdMeasurement>
</xrdMeasurements>
