<?xml version="1.0"?>
<xrdMeasurements xmlns="http://www.xrdml.com/XRDMeasurement/2.3" xmlns:xsi="http://www.w3.org/2001/XMLSchema-instance" xsi:schemaLocation="http://www.xrdml.com/XRDMeasurement/2.3 http://www.xrdml.com/XRDMeasurement/2.3/XRDMeasurement.xsd" status="Completed" recordIdentifier="{B018325F-D368-41AE-9854-BF37DBFE44FD}">
	<comment>
		<entry/>
	</comment>
	<sample type="To be analyzed">
		<id>GPSS_Li1p7Co0p9Ta0p1Cl4_110825_690fcd71f040177efa2b8c4f</id>
		<name></name>
		<preparedBy></preparedBy>
	</sample>
	<xrdMeasurement measurementType="Scan" status="Completed" sampleMode="Reflection">
		<usedWavelength intended="K-Alpha 1">
			<kAlpha1 unit="Angstrom">1.5405980</kAlpha1>
			<kAlpha2 unit="Angstrom">1.5444260</kAlpha2>
			<kBeta unit="Angstrom">1.3922500</kBeta>
			<ratioKAlpha2KAlpha1>0.5000</ratioKAlpha2KAlpha1>
		</usedWavelength>
		<incidentBeamPath>
			<radius unit="mm">145.00</radius>
			<xRayTube id="1010048" name="Empyrean Cu LFF HR (9430 033 7310x)">
				<tension unit="kV">40.0</tension>
				<current unit="mA">15.0</current>
				<anodeMaterial>Cu</anodeMaterial>
				<focus type="Line">
					<length unit="mm">12.0</length>
					<width unit="mm">0.4</width>
					<takeOffAngle unit="deg">6.0</takeOffAngle>
				</focus>
			</xRayTube>
			<sollerSlit id="21010002" name="Soller slits 0.04 rad.">
				<opening unit="rad">0.0400</opening>
			</sollerSlit>
			<mask id="22031000" name="Fixed mask 13 mm">
				<width unit="mm">9.00</width>
			</mask>
			<divergenceSlit id="22120001" name="Divergence slit 1°" xsi:type="fixedDivergenceSlitType">
				<distanceToSample unit="mm">50.00</distanceToSample>
				<height unit="mm">1.52</height>
			</divergenceSlit>
		</incidentBeamPath>
		<sampleMovement xsi:type="spinningSampleMovementType">
			<spinnerRevolutionTime unit="seconds">1.0</spinnerRevolutionTime>
		</sampleMovement>
		<diffractedBeamPath>
			<radius unit="mm">145.00</radius>
			<antiScatterSlit id="22090040" name="AS slit 9 mm (PIXcel)" xsi:type="fixedAntiScatterSlitType">
				<height unit="mm">9.00</height>
			</antiScatterSlit>
			<sollerSlit id="21020003" name="Large Soller slits 0.04 rad.">
				<opening unit="rad">0.0400</opening>
			</sollerSlit>
			<filter id="20030001" name="Large beta-filter Nickel">
				<material>Ni</material>
				<thickness unit="mm">0.020</thickness>
			</filter>
			<detector id="7010019" name="PIXcel1D-Medipix3 detector" xsi:type="rtmsDetectorType">
				<phd unit="keV">
					<lowerLevel>4.02</lowerLevel>
					<upperLevel>11.27</upperLevel>
				</phd>
				<mode>Scanning</mode>
				<activeLength unit="deg">5.542</activeLength>
			</detector>
		</diffractedBeamPath>
		<scan appendNumber="0" mode="Continuous" scanAxis="Gonio" status="Completed">
			<header>
				<startTimeStamp>2025-11-11T15:32:32-08:00</startTimeStamp>
				<endTimeStamp>2025-11-11T15:40:39-08:00</endTimeStamp>
				<author>
					<name>AutomatedUser</name>
				</author>
				<source>
					<applicationSoftware version="1.7b (136)">PANalytical Aeris Instrument Suite</applicationSoftware>
					<instrumentControlSoftware version="3.2.00000000 20240306">AERIS</instrumentControlSoftware>
					<instrumentID>950485</instrumentID>
				</source>
			</header>
			<dataPoints>
				<positions axis="2Theta" unit="deg">
					<startPosition>10.00943322</startPosition>
					<endPosition>99.99442286</endPosition>
				</positions>
				<positions axis="Omega" unit="deg">
					<startPosition>5.00471661</startPosition>
					<endPosition>49.99721143</endPosition>
				</positions>
				<commonCountingTime unit="seconds">12.495</commonCountingTime>
				<counts unit="counts">3537 3401 3426 3488 3575 3522 3583 3458 3493 3423 3523 3543 3561 3698 3597 3568 3602 3647 3487 3541 3586 3532 3539 3494 3492 3594 3450 3477 3559 3604 3621 3503 3598 3633 3527 3475 3443 3578 3421 3558 3523 3460 3502 3489 3564 3543 3641 3511 3540 3551 3431 3596 3560 3595 3556 3744 3564 3559 3620 3587 3568 3535 3554 3586 3657 3496 3613 3619 3619 3514 3597 3652 3483 3695 3600 3557 3615 3531 3701 3539 3513 3654 3576 3704 3731 3689 3444 3558 3637 3567 3697 3518 3660 3580 3656 3541 3625 3635 3657 3669 3676 3644 3561 3659 3617 3569 3821 3648 3758 3612 3725 3724 3696 3727 3600 3692 3643 3667 3737 3632 3715 3584 3582 3777 3770 3655 3748 3651 3751 3721 3812 3733 3759 3748 3757 3686 3709 3603 3652 3618 3667 3709 3679 3747 3735 3682 3534 3667 3784 3730 3741 3692 3756 3724 3709 3799 3815 3716 3711 3616 3601 3697 3709 3756 3659 3586 3653 3586 3645 3622 3683 3605 3797 3683 3761 3831 3706 3621 3686 3706 3677 3750 3651 3694 3703 3715 3709 3619 3692 3788 3656 3730 3667 3819 3629 3670 3736 3790 3828 3762 3731 3719 3709 3781 3801 3734 3736 3658 3795 3788 3609 3662 3764 3761 3685 3721 3734 3678 3747 3658 3627 3799 3725 3748 3649 3697 3741 3728 3733 3755 3705 3801 3703 3829 3646 3772 3777 3771 3616 3705 3690 3771 3677 3733 3684 3900 3781 3657 3792 3670 3829 3733 3675 3823 3650 3700 3808 3796 3665 3762 3794 3624 3848 3734 3782 3683 3705 3647 3739 3739 3714 3617 3794 3714 3766 3708 3734 3759 3764 3821 3784 3732 3700 3641 3762 3744 3899 3679 3809 3689 3850 3807 3846 3804 3789 3712 3748 3729 3644 3765 3729 3701 3618 3746 3871 3867 3731 3849 3750 3858 3980 3844 3767 3809 3756 3894 3824 3853 3837 3836 3728 3807 3822 3922 3766 3876 3876 3855 3823 3839 3906 3906 3819 3883 3957 3898 3893 3916 3959 3954 3904 3900 3939 3946 3992 3930 3827 3938 3941 3867 4080 4027 3885 4033 3978 3899 3962 4037 3927 4037 4040 4049 3960 3988 4042 4078 3867 4052 4164 4069 4091 4039 4158 3946 3977 4128 4063 4154 4116 4231 4125 4190 4139 4128 4074 4180 4096 4270 4166 4198 4177 4177 4310 4235 4263 4185 4334 4280 4233 4053 4218 4326 4260 4199 4215 4405 4349 4408 4311 4207 4212 4190 4265 4454 4275 4188 4320 4378 4371 4343 4321 4307 4353 4387 4392 4380 4221 4481 4447 4540 4461 4453 4498 4303 4463 4482 4457 4518 4516 4493 4523 4430 4422 4669 4573 4509 4563 4487 4661 4625 4645 4652 4716 4751 4685 4694 4787 4793 4921 5035 4890 4924 4999 4944 4897 5029 5056 5034 5145 5166 5077 5291 5200 5202 5211 5382 5380 5398 5371 5407 5366 5526 5603 5682 5652 5612 5624 5634 5726 5692 5697 5835 5762 5779 5809 5776 5789 5710 5574 5822 5777 5690 5717 5894 5845 5796 5886 5847 5973 5911 5858 5967 6027 6135 6036 6071 5972 6062 5904 5938 5860 5896 5853 5691 5631 5483 5307 5530 5310 5266 5266 5085 5161 5104 5173 5245 5346 5170 5201 5207 5120 5225 5057 5249 5099 5022 5104 5083 5083 4974 5015 4975 4911 4861 4979 4724 4769 4742 4596 4649 4613 4648 4552 4468 4593 4488 4380 4385 4479 4492 4347 4393 4544 4421 4477 4454 4395 4407 4466 4381 4403 4384 4372 4376 4556 4423 4504 4393 4451 4569 4520 4342 4409 4454 4361 4437 4384 4499 4469 4459 4462 4342 4350 4471 4454 4323 4378 4359 4450 4360 4377 4399 4405 4237 4282 4432 4246 4348 4315 4470 4285 4407 4388 4460 4335 4287 4373 4368 4366 4426 4480 4405 4265 4344 4262 4489 4482 4257 4363 4341 4311 4368 4336 4443 4382 4286 4318 4475 4251 4370 4382 4423 4370 4322 4260 4350 4375 4347 4337 4477 4307 4494 4449 4364 4393 4496 4374 4484 4451 4547 4329 4472 4483 4415 4360 4522 4478 4431 4407 4498 4563 4459 4524 4630 4567 4500 4464 4643 4555 4457 4507 4608 4608 4462 4535 4639 4500 4464 4553 4540 4653 4454 4595 4534 4601 4441 4536 4423 4590 4458 4480 4454 4409 4552 4520 4550 4596 4415 4535 4487 4466 4372 4354 4564 4387 4524 4562 4491 4493 4462 4463 4454 4405 4345 4390 4296 4388 4354 4461 4278 4451 4296 4349 4370 4503 4455 4387 4394 4383 4388 4340 4484 4423 4420 4431 4437 4356 4335 4364 4322 4396 4465 4380 4335 4279 4419 4260 4395 4370 4444 4260 4505 4383 4409 4317 4346 4426 4458 4314 4449 4207 4425 4370 4544 4439 4381 4366 4364 4388 4319 4441 4280 4426 4401 4368 4445 4325 4314 4367 4341 4329 4234 4272 4316 4345 4400 4373 4442 4441 4492 4407 4361 4400 4261 4263 4396 4339 4435 4368 4362 4146 4365 4260 4347 4449 4286 4314 4442 4400 4385 4350 4385 4285 4317 4438 4318 4321 4353 4489 4364 4499 4372 4459 4155 4382 4408 4360 4390 4428 4349 4434 4536 4339 4403 4457 4496 4406 4466 4431 4326 4419 4380 4363 4375 4396 4433 4331 4311 4383 4329 4461 4315 4343 4284 4433 4423 4332 4324 4401 4464 4295 4472 4357 4322 4455 4404 4442 4485 4457 4349 4312 4454 4403 4350 4401 4316 4426 4295 4414 4388 4315 4338 4435 4362 4389 4250 4350 4440 4374 4326 4424 4427 4349 4379 4441 4352 4263 4329 4400 4440 4363 4318 4299 4403 4377 4442 4416 4345 4367 4527 4243 4330 4240 4360 4277 4334 4428 4340 4481 4394 4469 4399 4379 4292 4429 4371 4250 4399 4377 4382 4398 4320 4318 4367 4317 4384 4466 4473 4483 4372 4346 4390 4402 4545 4316 4352 4261 4297 4464 4271 4300 4266 4345 4274 4339 4359 4364 4376 4296 4332 4397 4432 4279 4447 4265 4401 4268 4461 4432 4421 4430 4360 4335 4320 4452 4422 4465 4274 4381 4317 4403 4318 4442 4132 4225 4315 4407 4406 4393 4357 4333 4413 4390 4323 4314 4365 4431 4392 4401 4336 4387 4466 4425 4503 4467 4397 4402 4593 4361 4436 4336 4323 4331 4320 4417 4335 4317 4499 4422 4334 4416 4376 4346 4356 4302 4420 4325 4336 4367 4395 4428 4471 4373 4506 4411 4361 4373 4402 4509 4514 4459 4375 4351 4417 4398 4386 4405 4541 4555 4475 4371 4531 4454 4433 4343 4359 4381 4472 4424 4613 4497 4460 4473 4513 4442 4422 4471 4563 4394 4378 4468 4596 4479 4479 4360 4402 4629 4366 4457 4444 4475 4375 4392 4480 4435 4421 4505 4380 4518 4417 4359 4438 4442 4427 4547 4511 4439 4451 4585 4504 4444 4562 4458 4460 4610 4402 4431 4467 4589 4464 4474 4585 4538 4608 4441 4596 4501 4486 4406 4521 4476 4552 4409 4565 4533 4490 4413 4504 4528 4437 4490 4406 4446 4507 4349 4619 4406 4477 4514 4558 4497 4448 4452 4423 4406 4626 4450 4517 4460 4543 4345 4451 4601 4466 4412 4496 4570 4529 4368 4456 4432 4430 4619 4459 4382 4438 4449 4350 4446 4484 4372 4454 4363 4446 4456 4522 4281 4459 4381 4471 4383 4425 4385 4303 4353 4467 4431 4415 4389 4396 4450 4487 4497 4467 4383 4498 4494 4215 4350 4276 4276 4470 4379 4409 4275 4419 4316 4267 4277 4325 4362 4197 4229 4335 4412 4394 4249 4287 4337 4402 4325 4165 4307 4252 4368 4454 4352 4366 4303 4128 4244 4230 4344 4413 4338 4401 4185 4347 4319 4268 4362 4312 4207 4349 4284 4265 4264 4301 4227 4368 4203 4287 4235 4389 4302 4145 4145 4454 4226 4302 4375 4220 4295 4284 4283 4365 4224 4135 4222 4318 4312 4154 4240 4244 4386 4283 4332 4187 4250 4403 4226 4242 4241 4185 4241 4243 4296 4226 4170 4186 4287 4278 4197 4180 4243 4253 4079 4315 4227 4201 4092 4207 4199 4256 4322 4178 4236 4235 4264 4205 4281 4226 4276 4198 4255 4206 4200 4316 4296 4248 4182 4153 4207 4344 4169 4173 4227 4213 4188 4257 4347 4282 4266 4225 4244 4244 4279 4233 4364 4265 4299 4393 4397 4212 4370 4391 4307 4227 4336 4305 4276 4235 4345 4273 4289 4384 4396 4297 4360 4466 4353 4286 4259 4461 4214 4435 4233 4372 4382 4403 4263 4241 4296 4387 4214 4416 4432 4360 4304 4381 4377 4242 4341 4185 4185 4169 4237 4239 4263 4248 4277 4230 4096 4271 4184 4285 4138 4143 4283 4294 4267 4224 4220 4261 4158 4158 4123 4195 4336 4261 4227 4228 4286 4177 4247 4172 4250 4262 4142 4116 4178 4188 4117 4160 4218 4246 4214 4169 4186 4348 4240 4101 4209 4184 4119 4036 4130 4324 4286 4226 4132 4088 4164 4317 4189 4185 4258 4162 4204 4251 4202 4223 4302 4244 4211 4258 4330 4284 4217 4190 4203 4216 4088 4217 4296 4290 4236 4283 4322 4058 4361 4280 4235 4260 4209 4201 4282 4137 4272 4402 4204 4176 4410 4371 4152 4127 4334 4283 4250 4235 4119 4233 4181 4267 4258 4311 4294 4313 4277 4273 4184 4187 4238 4220 4177 4194 4145 4214 4369 4267 4261 4265 4284 4271 4254 4219 4217 4255 4283 4274 4256 4237 4236 4123 4292 4243 4183 4280 4287 4216 4343 4219 4247 4176 4348 4324 4317 4260 4251 4360 4202 4289 4211 4149 4225 4252 4256 4210 4301 4329 4332 4190 4199 4209 4221 4295 4191 4217 4228 4210 4193 4170 4394 4297 4265 4163 4191 4180 4170 4255 4195 4086 4094 4204 4205 4223 4186 4185 4251 4227 4226 4125 4121 4175 4283 4246 4147 4170 4095 4218 4232 4127 4191 4164 4292 4081 4201 4254 4127 4099 4101 4272 4168 4087 4159 4116 4091 4177 4091 4068 4175 4237 4152 4088 4187 4117 4226 4113 4137 4064 4144 4079 4171 4156 4163 4019 4159 4290 3985 4032 4131 4050 3996 4056 4077 4046 4037 4136 4023 4103 4061 4064 4104 4195 4081 4074 4033 4178 4060 4167 3953 4116 4134 4098 4141 3983 3975 4086 4010 4073 4056 4179 4097 4066 4134 4089 4040 3971 4082 4015 4105 4103 4031 4094 4124 3998 4077 4092 4018 4122 4133 4122 4145 4013 4062 4186 4061 4002 4081 3959 4098 4052 3988 3980 4014 4152 4004 4102 4107 4081 4151 3955 3940 3966 4096 4002 4062 4084 4140 4137 4005 4019 4135 4091 4123 3968 4126 4172 4198 3993 4292 4174 4221 4220 4243 4320 4239 4256 4192 4290 4486 4283 4279 4262 4368 4267 4227 4423 4510 4426 4373 4425 4376 4493 4474 4512 4434 4359 4531 4498 4391 4533 4342 4307 4422 4512 4549 4437 4521 4495 4659 4433 4638 4522 4518 4645 4431 4578 4403 4541 4612 4483 4451 4546 4287 4448 4415 4351 4270 4286 4381 4271 4440 4412 4363 4328 4273 4376 4343 4355 4257 4316 4255 4340 4328 4318 4276 4295 4277 4267 4312 4254 4306 4242 4311 4170 4244 4214 4270 4231 4165 4235 3997 4265 4204 4162 4129 4132 4302 4295 4101 4171 4223 4228 4224 4311 4203 4203 4245 4227 4348 4295 4396 4231 4392 4445 4423 4465 4483 4566 4601 4687 4554 4549 4666 4605 4747 4831 4963 4827 4914 4999 4975 4843 4883 5004 5147 5023 5039 5153 5254 5204 5121 5215 5190 5263 5156 5156 5233 4945 4900 5002 4963 4962 4873 4897 4820 4825 4670 4710 4841 4831 4716 4600 4625 4775 4615 4606 4576 4620 4637 4566 4444 4491 4505 4556 4488 4353 4439 4330 4408 4452 4323 4263 4194 4249 4248 4166 4207 4085 4310 4213 4127 4126 4235 4119 4255 4105 4201 4054 4128 4052 4061 4029 4024 4059 4159 3985 3965 4044 4127 3940 4020 4034 4118 3922 4003 4104 4085 4099 4138 3956 3842 3969 4037 3914 3852 3892 3979 3903 3957 3979 3970 3980 4069 3956 3943 4122 3980 4028 3970 3955 3990 3877 3953 3875 3865 3983 3903 3964 3991 4048 3993 4125 4012 3980 4028 3891 3991 3907 3981 3943 4076 3829 3886 3938 4126 4022 3824 3917 4099 3898 4025 3939 3993 3974 3980 4062 3961 3918 3953 3825 3998 4027 3994 4050 4058 4074 3986 3861 3973 3879 3979 3927 4026 3977 3951 3952 3892 3975 3929 3985 4001 3863 3964 3898 3937 3902 3934 3991 3951 3895 3838 4013 4106 3983 4018 4046 3958 4025 4031 4040 3846 3985 3989 4094 3988 4038 3922 3978 3910 4009 3944 4023 4059 3912 3926 3860 3950 3905 4046 3907 4026 3925 3941 4020 3898 3982 3872 4007 3868 3970 3961 3972 3911 3960 4029 3963 3980 3870 3980 3898 3974 4012 3939 4032 3848 4007 4046 3918 4034 3945 4042 3993 4014 4015 4107 4057 3997 3994 3962 3940 4001 4010 4055 4042 3916 3956 3952 3967 4005 4069 4033 4026 4006 3972 3997 3881 3928 3910 4139 4035 3928 3952 4110 4015 3838 3985 4057 3851 4022 4044 4005 4033 4006 3970 3941 3962 3963 3980 4008 3989 3991 4050 3942 3934 4024 4074 4119 4059 3942 3968 3975 4007 3847 4088 3884 3998 3754 3964 3972 4079 4096 3999 3935 4139 4033 3955 3882 4020 3934 4002 4069 3994 4058 4035 4023 4034 4100 3992 4019 4003 4050 4041 3975 3915 3932 3987 3918 3924 4058 4104 4020 4055 4052 4115 4019 3998 3956 4035 3985 3911 3997 3895 4026 4011 3892 3956 3958 4163 4120 4026 4017 3995 4049 4085 4097 3979 4049 4066 3950 4039 3970 4110 4146 4013 4104 4064 4020 4053 3991 3960 4033 3978 4090 4024 4027 4061 4017 4087 3952 4071 4162 4014 4080 4089 4146 4102 4116 4143 4173 3924 4143 4110 4153 4116 4176 4112 4269 4189 4244 4148 4185 4233 4317 4285 4445 4325 4462 4359 4486 4641 4589 4583 4755 4758 4903 5035 5014 5172 5153 5489 5415 5698 5742 5787 5862 6059 6141 6199 6281 6335 6562 6495 6585 6768 6845 7008 7069 6965 6837 7031 7147 7191 7241 7259 7062 6942 6966 7020 6898 6896 7071 6781 6911 6775 6819 6579 6850 6616 6539 6617 6477 6670 6389 6636 6696 6557 6520 6576 6336 6383 6154 6141 6078 5910 5874 5801 5603 5629 5611 5522 5277 5236 5261 5208 5119 5170 5161 5201 5112 5131 5076 5050 5025 5098 4998 4977 5120 5086 5012 4895 4891 4865 4759 4781 4775 4662 4761 4752 4744 4548 4635 4688 4443 4425 4464 4490 4450 4467 4403 4434 4457 4389 4380 4376 4252 4407 4387 4278 4376 4296 4308 4228 4238 4203 4270 4295 4341 4352 4181 4240 4237 4215 4258 4143 4237 4101 4173 4157 4118 4195 4110 4102 4198 4191 4070 4067 4033 4051 4111 4180 4090 4153 4131 4048 4088 4152 4108 4036 4147 4088 4159 3988 4056 4207 4112 4017 4003 4160 4198 4108 3969 3915 3963 3983 4123 4080 4098 4047 4152 4071 3963 4052 4181 4151 4108 4041 4233 4068 4009 3999 4086 4072 4113 4026 4056 3997 4072 4134 4048 4062 3944 4009 3946 4000 4016 4064 4073 4090 4039 4098 4035 3988 3988 4060 3889 4144 4059 4131 3919 4063 3989 3995 3993 4027 4077 3882 3960 4042 3989 3962 4020 4004 4027 3986 3915 3984 3928 4083 4064 4076 4068 3966 4092 4040 3970 3975 4005 3934 4025 4043 4000 4010 4022 4125 3997 4128 4041 4006 4064 4110 3967 4088 4085 3926 3956 4067 3977 3994 4050 3983 3988 3923 4092 4000 4091 3952 4087 3966 3987 4042 4066 4023 4118 4055 4073 4033 4122 4034 4070 3902 4070 4042 3893 4061 4133 4126 4091 3997 4054 4073 3897 4077 4052 3980 3980 4120 4014 3968 3974 3960 4016 4083 3916 3965 4061 4150 4153 3993 4016 4249 4049 4093 4075 4071 4147 4023 4251 4074 4086 4113 4191 4082 4132 4170 4094 3992 4204 4218 4104 4139 4068 4178 4229 4145 4167 4084 4189 4091 4109 4299 4095 4103 4109 4174 4040 4088 4151 3960 4125 4029 4092 4036 4131 4078 3962 4129 4076 3969 3892 3988 4134 4022 3956 4065 3921 4037 4127 4025 4095 4092 3928 4072 4109 4037 4006 3904 4099 3937 4036 4018 4029 4090 4061 4027 4005 3950 3977 3984 3946 4013 3967 3918 4084 4050 4055 3935 3990 3952 3989 4043 4065 3969 4069 4047 4035 4002 4064 3993 4098 4084 4106 4037 4101 4083 4012 4194 4006 4026 3991 4170 4133 4122 4225 4047 4098 4057 4241 4046 4056 4285 4188 4091 4049 4085 4128 4136 4066 4182 4157 3940 4065 4069 4073 4031 4156 3889 4060 4045 4046 3990 4031 4011 3929 3908 4003 3969 3941 4092 4072 4042 3945 4047 4089 3889 3972 3968 3958 3836 4059 4117 4117 4087 4059 3941 3954 3921 3950 3903 3883 3931 3929 3991 3991 3960 3919 3961 3930 3942 3857 3893 3907 3983 3990 3885 4124 4053 3915 3980 3997 3875 4042 3985 3922 3972 3903 3958 3859 3971 3950 3831 3911 3908 4025 3953 3953 3961 4007 3850 3980 3832 3923 3877 3947 3908 3853 3812 3972 3906 3942 4063 3997 3965 4027 3952 3889 3933 3897 3916 3812 3916 4006 3927 4012 3962 3956 3964 4013 3927 3878 3899 3847 3825 3926 3972 3888 3946 3917 3947 3912 3956 4078 3900 3955 3930 4032 3917 3918 3989 3856 3835 3882 3861 3923 3911 3941 3851 3916 4098 3914 3920 3926 3942 3919 3960 3924 3925 3999 3835 3926 3976 4043 3818 3859 3853 3970 3883 3969 3995 3862 4017 4040 3987 3871 3942 3939 4034 3939 4033 3903 3852 3837 3938 4003 3943 4010 4018 3983 3910 3986 3938 4062 3974 3902 3989 3895 3888 3943 3870 4002 4009 4003 3909 3943 3936 4070 3889 3960 4120 3940 4057 4020 3941 3977 3910 3894 3894 3940 3950 3920 4101 3983 3899 3910 3977 3951 3885 3863 3970 3905 3867 3963 3941 3804 4010 3868 4055 4006 3902 3932 3988 3971 4015 3917 3916 3872 3961 3911 3894 3907 3884 4042 4006 3942 3885 3813 3984 4039 4031 3957 4064 3887 3901 3897 3888 3750 3980 3910 3882 3928 3960 3873 3888 4011 3971 3943 3888 3879 3962 3916 3961 4035 3950 4042 4049 3839 3885 3960 3954 3974 3851 4023 3933 4089 3870 3969 3904 3964 3967 3926 3876 3864 3995 3989 3930 4000 4018 3862 3881 3972 3966 4006 3908 4011 3815 3900 3947 4067 3926 4049 4037 3856 3923 3926 3954 3946 3976 4125 3923 3959 3958 4086 4092 3935 3975 4071 3964 4079 4066 4023 3939 4025 4059 4052 4096 4076 3938 4037 4034 4018 4022 4012 4000 4052 4047 4074 3921 3991 4114 4061 3978 3916 3950 4036 4020 3971 4030 4023 4027 4008 4031 4057 3943 3940 4053 3986 3920 4053 3958 3988 4017 3975 3885 4032 4038 3940 4085 4054 3975 4019 3981 3871 4089 3894 4036 4020 3972 4059 4054 3943 4040 3990 3971 4000 4034 3844 3992 3868 3957 3967 4039 3914 3841 3929 3937 3820 3969 3945 3990 4041 3918 3942 3925 3895 3940 3982 3937 4020 3928 3981 3956 4021 4060 3883 3854 3947 3973 4088 3905 4013 4104 3993 3997 3998 3940 3960 3887 3889 3944 3978 3905 3975 3924 4028 4036 3897 4016 3970 4042 3913 3924 3947 3983 3927 4046 3982 3951 3980 3908 3948 3946 4042 3979 4029 4071 3886 3982 3972 3936 4005 3950 3911 3981 3989 3972 4066 3975 4015 3966 3899 3858 3909 3892 3738 4036 4062 4050 3854 3951 4009 3962 3917 3907 3939 3906 3940 4039 3949 3910 3938 3991 3972 3894 3883 4015 3954 4127 4022 3969 4027 3915 4004 3981 4029 3912 3973 3969 4005 4088 3949 3939 4040 4027 3981 3944 4048 3979 3849 3956 3979 4147 4000 3977 4023 3920 3913 3932 4008 4039 4053 4087 3885 3991 3903 3988 4024 4125 4101 3991 3951 4096 4045 3939 3989 3987 4096 4052 4115 4113 3978 3994 4164 4058 4073 4116 3981 4141 4026 4221 4045 4135 4228 4308 4097 4084 4233 4177 4143 4194 4225 4177 4223 4272 4212 4189 4273 4329 4403 4388 4276 4352 4363 4458 4320 4246 4300 4330 4356 4318 4384 4378 4291 4291 4404 4296 4310 4260 4437 4353 4292 4297 4290 4318 4257 4239 4425 4200 4349 4216 4215 4358 4267 4290 4270 4259 4335 4103 4150 4212 4094 4093 4147 4072 4127 4252 4031 4198 3957 4163 3940 4018 4010 4116 4144 4069 4175 3960 4103 4157 4035 3971 4131 4017 4082 3988 4126 4011 4038 4040 3901 3927 4086 4075 4134 4023 4123 4012 4036 4021 4138 4096 4010 3989 3973 4096 4081 4084 4071 4117 4011 3919 4079 3983 4067 4059 4000 4152 4074 4096 4112 4020 4052 3992 3975 4029 4042 4116 3941 4125 3926 3999 3996 4188 4045 4191 4075 4024 4046 4045 4100 4009 3926 4014 4075 4071 3953 3991 3957 3981 4061 3991 4036 4051 4081 3938 4045 4021 4119 3991 4104 4039 4025 4039 3981 3973 3950 3985 3986 4037 3967 4052 4127 3997 4107 4059 3999 3973 4092 4067 3981 4045 4092 4012 4026 4039 4035 4008 3985 4017 4097 3977 3948 4031 4142 4048 3994 4076 4041 3895 3973 4069 3999 4111 4268 4024 3981 4036 3857 4006 3982 4072 4039 4010 4010 4058 4088 4032 3969 3924 4028 4056 3977 4076 4002 4091 4018 4059 4077 4095 4142 4149 4040 3964 3846 3996 3984 4110 4144 4010 3992 4015 3968 4021 4037 4015 4014 4041 4043 4037 4002 4028 4108 4015 3949 4070 3998 4087 3963 3916 3995 4075 4115 3989 4009 4188 3977 4041 3991 4061 4003 3960 4092 4059 3940 4008 4027 4006 3927 3946 3921 4108 3993 3977 4005 4063 4198 4155 3974 4000 4097 4057 4033 4045 4151 4079 3945 3971 4122 3968 4109 4016 3946 4040 4082 3981 4146 4114 4110 4158 4047 4106 4079 4033 4077 3987 4051 3951 4023 3995 4073 4096 4003 4135 4076 4028 4112 3978 4034 4245 4001 3979 4043 4132 4046 4067 4102 4037 3932 3977 4067 3932 4046 4026 4018 4139 4083 4081 3933 4247 4069 4225 4037 3989 4057 4037 4028 4116 4131 4002 4131 4118 4000 4050 4062 4043 4033 4031 3937 4024 4065 4121 4123 4277 4066 4168 4078 4176 4152 4172 4080 4205 4086 4098 4218 4119 4195 4234 4239 4272 4152 4368 4286 4264 4290 4383 4390 4386 4488 4556 4485 4585 4561 4733 4892 4718 4945 4991 4822 5206 5171 5268 5283 5282 5450 5368 5634 5558 5644 5520 5663 5724 5711 5696 5857 5834 5836 5932 5692 5713 5692 5652 5659 5641 5664 5577 5525 5519 5415 5341 5230 5099 5140 5071 5160 4966 4975 4950 4827 4906 4927 4846 4828 4771 4948 4723 4675 4704 4701 4642 4757 4581 4651 4670 4719 4742 4706 4471 4793 4648 4632 4444 4658 4836 4574 4481 4597 4503 4532 4464 4494 4332 4575 4454 4415 4363 4198 4334 4405 4350 4419 4493 4361 4341 4368 4289 4348 4361 4421 4384 4374 4434 4379 4525 4326 4374 4329 4349 4556 4568 4575 4470 4597 4560 4542 4599 4736 4579 4741 4620 4629 4686 4594 4749 4693 4698 4746 4742 4624 4526 4558 4622 4708 4476 4504 4509 4449 4595 4512 4571 4482 4350 4431 4435 4260 4399 4238 4338 4162 4462 4248 4249 4318 4357 4220 4289 4219 4292 4317 4289 4146 4216 4137 4184 4130 4173 4360 4220 4096 4180 4263 4037 4206 4095 4242 4075 4122 4059 4102 4089 4169 4067 3971 4140 4107 4096 4103 4069 4082 3956 4239 3995 4099 4185 4120 4113 4023 4159 4063 4035 4126 4090 3974 3964 4092 4061 4096 4054 4069 4098 4102 4041 4138 4093 4052 4136 4090 4002 4196 4030 4024 4043 4129 4086 4117 4032 4185 4055 4200 4257 3980 4145 4213 4094 4249 4166 4200 4258 4194 4319 4215 4262 4201 4330 4245 4201 4249 4154 4247 4217 4351 4280 4217 4311 4206 4161 4242 4323 4332 4212 4356 4336 4245 4375 4281 4243 4338 4206 4285 4298 4137 4177 4175 4138 4209 4175 4142 4228 4199 4148 4224 4142 4224 4278 4208 4145 4152 4199 4179 4171 4214 4244 4143 4149 4240 4145 4213 4109 4318 4292 4291 4163 4207 4331 4236 4226 4180 4155 4258 4336 4081 4173 4140 4182 4275 4235 4285 4106 4051 4193 4208 4051 4162 4267 4075 4242 4214 4130 4147 4166 4091 4206 4172 4124 4025 4080 4164 4082 4240 4116 4172 4159 4242 4135 4251 4252 4155 4167 4225 4251 4310 4271 4250 4389 4236 4266 4257 4285 4249 4328 4245 4305 4347 4307 4336 4319 4288 4376 4260 4325 4282 4347 4206 4177 4153 4199 4226 4163 4218 4285 4164 4106 4113 4245 4154 4026 4091 4246 4063 4044 4086 4160 4012 4116 4067 4056 4189 4165 4147 4123 4120 4114 4121 4006 4164 4002 4154 4209 4089 4032 4167 3952 4031 4095 4062 4074 4058 3981 4032 4113 4076 4088 4073 4146 4095 4022 4002 3997 3978 4060 4106 4112 4055 4003 4095 4109 4061 4004 4066 3973 4031 4049 4033 3984 4186 4040 4000 4019 3952 4217 4132 4049 4093 3999 4096 4060 4060 4057 3975 4040 4069 4007 4088 4080 4043 4103 4088 4016 3977 4048 4110 4142 4034 4015 4057 4061 3950 4108 4211 4025 4022 4143 3988 4043 4096 4044 4011 3948 3888 3972 4050 4070 3941 4181 4075 4008 4102 4085 4030 4109 3987 4035 4073 4032 4131 4183 4018 4168 4015 4034 4121 4215 3946 4046 3995 4086 4027 4002 4081 4028 4058 4106 4139 4090 4005 4077 3990 4193 4006 4053 4064 4110 4107 4031 3978 4066 3940 4016 4083 4088 4007 4129 3965 4107 3973 4005 4018 4126 4045 4106 4084 4090 4016 4011 3916 4209 3963 4021 4098 3924 3993 4174 4044 4089 3914 4023 3990 3957 3954 4004 4002 3978 3937 4073 3975 3985 4083 4055 4017 3983 4049 4196 3986 4028 4092 4086 3976 4097 3986 3927 4034 3959 3929 4096 3999 4031 4046 4109 4150 4065 3946 4096 4144 4015 4070 4007 4127 4071 4105 4227 4026 4033 4002 4231 4079 4047 4028 3982 4068 4060 4015 4124 4199 4072 4059 4071 4131 4067 4063 4103 4147 4012 3999 4066 4145 4072 4137 4042 4108 4078 4078 3945 4075 4143 4178 4062 4000 4096 4018 4094 3972 3993 4139 4095 4024 4023 4112 4069 4033 4053 4068 4127 4113 4070 3921 4048 4013 4070 4016 4032 4044 4091 4035 4020 4066 3996 4094 4054 4070 3983 4002 3977 4005 4000 4041 4027 4017 4010 4083 4064 4111 4163 3986 3892 4195 4042 3962 4000 4058 4100 4057 3989 4127 4077 3988 4052 4150 4105 4048 4127 3955 4074 4029 4054 4023 3982 3990 4055 3981 4013 4113 4018 4018 4193 4104 4032 3945 4022 4057 4005 4056 4006 4032 4024 3972 4036 4057 4041 3956 3951 4177 4129 4043 3979 4093 4044 4104 4103 3979 4084 4043 4068 4091 3869 3987 4025 4034 4087 4111 4027 4114 4089 4037 4089 3976 4170 3993 3959 4053 4008 4062 4072 4086 4012 3957 4046 4074 4167 4021 3979 3973 4071 4081 4118 3986 3945 3967 4080 4034 4032 3980 4011 3984 4188 3929 3983 4071 4068 4088 4041 4091 4190 3990 4071 4117 4166 4149 4025 4097 4028 4109 4035 3997 4035 4039 4055 3971 4086 4089 4038 4064 4196 4215 4082 4037 4078 4037 4169 4099 3960 3995 4042 4125 4077 4125 4104 4108 4075 4119 4130 4085 4087 4077 4026 3996 4102 4140 4187 4054 4213 4040 4164 4148 4071 4091 4193 4050 4055 4141 4244 4122 4158 4174 4085 4213 4127 4228 4243 4297 4231 4303 4269 4279 4239 4296 4338 4310 4360 4459 4515 4298 4159 4415 4418 4436 4472 4371 4475 4375 4458 4476 4355 4492 4406 4514 4315 4340 4334 4308 4324 4314 4313 4284 4335 4167 4241 4306 4210 4167 4183 4141 4188 4237 4259 4347 4186 4212 4165 4144 4190 4214 4201 4122 4213 4179 4140 4159 4180 4196 4094 4098 4135 4053 4153 4188 4212 4163 4214 4224 3969 4236 4218 4180 4220 4051 4130 4150 4059 4153 4086 4194 4049 4078 4125 4089 4123 4152 4128 4098 4110 4081 4206 4088 4025 4032 4001 4116 4009 4100 4110 4061 4062 4114 3951 3972 4049 4088 4131 4095 4154 4046 4039 3966 3982 4040 4040 4139 4075 3887 4141 4062 4079 3962 4131 3981 4054 4027 4109 4060 4049 4033 4001 4137 3988 3995 4075 4014 4023 4123 4067 4062 4006 4081 3995 4111 4101 4065 3971 3965 4100 3972 4048 4015 3827 4061 4038 4055 4212 4177 4013 4071 4046 3929 4054 4043 4022 4045 4006 4143 4020 4108 4072 3998 3960 4089 3925 4150 4068 3966 3973 3992 4006 4119 3999 4072 4129 4078 4079 4238 3982 4045 4004 4038 3932 3981 4013 4058 3974 3969 4056 3881 4197 4044 4005 4140 4076 4127 4056 3965 3971 3922 4137 4007 4099 4003 4005 4082 4087 4068 4254 3926 4033 4107 4035 3983 4103 4056 4060 4019 4055 4156 4143 4082 4118 4172 4001 4072 4038 4051 4044 4053 4048 4057 4025 3949 4003 4048 3941 4010 3983 4118 4229 3927 4133 4104 4090 4093 4064 4102 4138 4247 4033 4135 4210 4204 4173 4264 4214 4171 4251 4341 4139 4274 4298 4264 4315 4345 4332 4427 4338 4423 4465 4431 4403 4340 4379 4388 4508 4445 4395 4433 4324 4333 4429 4525 4381 4365 4430 4279 4340 4384 4279 4476 4380 4265 4209 4379 4331 4296 4284 4306 4309 4288 4311 4260 4308 4264 4333 4420 4250 4233 4255 4269 4386 4352 4266 4317 4237 4280 4426 4331 4268 4299 4342 4342 4335 4384 4396 4425 4403 4236 4387 4333 4146 4272 4330 4264 4270 4344 4075 4163 4300 4190 4269 4078 4256 4202 4188 4222 4138 4101 4134 4167 4150 4231 4025 4075 4061 4124 4077 3983 4082 4172 4093 4046 4144 4027 4047 4038 4065 4141 4045 4003 4096 4099 3996 3992 4097 4119 4186 4091 4038 4090 4126 4229 4091 4126 4027 4043 4003 4107 4090 4128 4233 4067 4178 4148 4187 4142 4101 4191 4112 4094 4135 4072 4071 4154 4267 4118 4066 4219 4182 4194 4285 4231 4138 4183 4154 4230 4161 4142 4122 4208 4290 4260 4092 4177 4310 4163 4051 4197 4148 4091 4146 4175 4064 4090 4248 4151 4068 4209 4077 4133 4010 4157 4241 4229 4010 4113 4244 4194 4090 4069 4076 4159 4120 4102 4161 4158 4115 4143 4045 4069 4091 4219 4167 4152 4259 4320 4258 4233 4181 4137 4192 4194 4251 4222 4276 4219 4194 4208 4230 4287 4159 4346 4376 4120 4310 4219 4345 4287 4309 4243 4263 4265 4238 4302 4231 4339 4130 4257 4156 4156 4157 4168 4146 4118 4090 4117 4121 4189 4293 4005 4131 4229 4183 4086 4182 4061 4216 4131 4171 4077 3960 4061 4075 4169 4078 4116 4133 4034 4027 4129 4070 4070 4091 4042 3954 4037 3992 4067 4134 4154 4112 4099 4130 4114 4002 4161 4140 4002 4081 3986 4057 4210 4111 4139 4064 4081 4163 4060 4051 4195 4109 4065 4187 4166 4020 4144 4049 4037 4018 4182 4091 4039 4144 4182 4070 4129 3973 4195 4089 4086 3964 4178 3941 4096 3987 4038 4060 4129 4068 4010 3970 4113 4096 3995 4111 4197 4096 4079 4053 4088 4096 4061 3940 4074 4077 3975 4131 4148 4123 3997 4136 3997 4010 4078 3893 4047 4012 3990 3948 4030 4027 4086 4008 3980 4086 4152 4055 4036 4062 4156 4026 4044 3944 4232 4003 4092 4088 4096 4111 3957 3995 4083 4029 3974 4046 4081 4069 4067 4115 4063 4027 4073 4061 4039 4083 3946 4114 4138 3972 3970 4066 4158 4058 3987 4081 4102 4038 4091 4033 3945 4002 4060 4081 4021 4081 4008 4020 4007 4083 4046 4042 3956 4080 4010 4050 3967 4049 4021 4039 4074 3982 3989 3991 4100 3883 3980 4089 4013 3924 4020 3934 4036 4006 4041 4147 4021 3979 3971 3989 4030 3991 3987 4020 4110 4104 4084 4004 4077 4085 4010 4053 4092 4046 4147 3908 4077 3995 4009 4129 4023 4125 4131 4043 3988 4016 3996 4105 4013 4048 4104 4050 4018 4020 4043 4018 4109 4108 4010 3984 4038 4008 3997 4000 4128 4047 4058 3975 4046 3906 4060 4014 4003 3971 3878 4050 4081 4066 4073 4074 4103 3942 4017 4078 4072 4034 4063 4077 3967 4039 4138 4165 4058 4093 3998 4107 4028 3976 3933 4093 4059 4087 4127 4193 4016 3975 4009 3968 4070 4098 4020 3987 4124 4063 4127 4077 4056 4109 4047 4091 4127 4186 4067 4158 4055 4044 4092 4116 4033 4091 4113 4037 4042 4018 4039 4097 4101 4070 4116 4007 4148 4083 4076 4111 4143 4084 4099 4087 3884 4050 4037 4147 4108 4093 4064 4110 4097 4055 4001 4129 4033 4047 3962 4119 4093 4097 3983 4061 4031 4102 4035 4039 4032 3991 4152 4121 4042 4044 4079 4093 4103 4000 4141 4122 3977 3877 4084 3984 4033 4048 3995 4095 4008 3912 4034 4127 3980 4158 4085 4118 4108 3892 4056 4107 4110 4194 4084 4077 4125 4116 4026 3988 4058 3991 4019 4085 4134 3964 4092 4172 4124 4169 4020 4044 4103 4090 4009 4121 4138 3956 4067 4056 4084 3984 4040 4031 4100 4001 3991 4039 4067 4011 4072 4127 4036 4009 4152 4117 3981 3997 4020 4026 4189 4047 4046 4117 4040 4139 4057 4046 4126 4114 4088 4016 4022 4071 4054 3985 3984 4002 4149 4058 3975 4125 4092 4053 4046 4107 4080 4085 4104 3991 4143 4072 4106 3995 4105 4149 4010 3951 4114 4068 4135 4214 4030 4101 4064 4030 4038 4020 3993 3927 3986 4121 4101 4159 4169 4073 3983 4084 4194 4087 4036 4082 4166 4131 4102 4041 4113 4050 4161 4100 4014 4155 4132 4146 4126 4122 4104 4181 4011 4017 4116 4164 4115 4078 4119 4055 4064 4131 4240 4171 4071 4158 4099 4109 4052 4047 4061 4017 4141 4168 4164 4073 3877 4200 4083 4124 4069 4094 4085 4092 4125 4201 4120 3948 4004 3989 4070 4077 3996 3942 4032 4055 4100 4135 3972 4055 3936 4060 4103 3983 4060 3953 3989 4047 4143 4098 4138 3991 3952 4046 3979 3982 4062 4116 4044 4129 3984 4076 4055 4074 4172 3936 4014 4025 4035 3962 3921 4086 4052 4013 4105 4061 4091 4119 4131 3976 4144 4030 4115 3981 4090 4156 3970 4100 4072 3985 4150 4053 4182 4016 4107 4004 4092 3928 4040 4071 3979 3860 4185 4061 4041 3994 3918 4055 4060 4105 4012 4216 4071 4035 4075 4107 3964 4006 4049 4100 3995 3962 4048 4133 4078 4120 4025 3959 4058 4053 4037 3980 4009 4089 4120 4076 4127 4112 3984 4098 4197 3979 4089 4009 4087 4072 4104 4126 4134 4065 3960 4155 4147 4066 4062 4141 4076 4083 4009 4059 4017 4031 4135 3963 4205 4020 4034 4023 3995 4077 4047 3968 4031 4211 4108 3970 4066 4061 3974 4179 4152 4046 4132 4042 3953 4055 4099 4062 4151 4076 4110 4003 4059 4104 4048 4031 4032 4138 4213 4121 4076 3915 4105 4168 4008 3953 3997 4014 4055 4148 4071 4084 3982 4095 4114 4036 3956 4058 4028 4118 4055 4053 4034 3998 4065 4113 4045 4008 4086 4069 4154 4123 4114 4157 4080 4107 4202 4117 4158 4087 4171 4134 4086 4079 4119 4108 4140 4131 3973 4047 4219 4167 4122 4241 4218 4169 4262 4144 4124 4219 4101 4225 4214 4284 4283 4240 4369 4220 4146 4210 4248 4187 4187 4200 4292 4191 4278 4142 4183 4120 4293 4203 4227 4190 4182 4135 4255 4120 4161 4115 4078 4213 4162 4228 4155 4094 4167 4185 4043 4105 4161 4109 4124 4142 4122 4190 4170 4121 4190 4219 4089 4142 4234 4196 4081 4233 4249 4088 4158 4120 4249 4296 4230 4256 4260 4041 4159 4118 4273 4117 4301 4187 4215 4138 4286 4044 4118 4103 4225 4322 4237 4185 4198 4034 4144 4077 4104 4214 4108 4094 4059 4193 4126 4120 4112 4068 3999 3979 4098 4055 4118 4003 4132 3969 4179 4007 4184 4052 4076 4013 4035 4136 4087 4013 4127 4065 3950 4171 4121 4171 4007 3989 4056 4160 4119 4107 4103 4165 4107 4155 4065 4113 4038 3988 4084 4072 4173 4041 4007 4083 4074 4002 4061 3997 4023 4099 3960 4075 4155 4110 4099 4099 4111 4089 4069 3988 4067 4148 4035 4165 4058 4156 4069 4175 4240 4003 4010 4126 4103 4101 4086 4048 4076 4098 4033 4055 3960 4074 4126 4213 4053 4027 4066 4129 3966 4009 4064 4171 3978 4126 4099 4149 4111 4007 4053 4030 4016 4082 4184 4068 4063 4048 4054 4185 4020 4091 4108 3930 4053 4174 4035 4093 4200 4027 3940 4157 4030 4123 4018 4056 4032 4155 4199 4087 4044 4047 4127 3974 4154 4055 4012 3914 4015 4071 4068 4066 4077 4065 4012 4077 4037 4096 4114 4005 4087 4122 4136 4126 4081 4061 4163 4150 4082 4046 4033 4086 4080 4134 3976 4149 4099 4010 4150 4060 4134 4121 4039 4201 4090 4175 4089 4232 4169 4079 4092 4247 4059 4148 4077 4202 4114 4091 4085 4027 4078 4098 4050 4048 4098 4049 4180 3999 4001 4092 4142 4142 4109 4194 4136 4161 4086 4110 4014 3987 4087 3998 4071 4068 4119 4026 4086 4161 4112 4151 4023 4078 4059 4164 4001 4050 4025 4048 4127 4069 4120 4114 4058 4212 4021 4080 4036 4059 3983 3976 4126 4066 4040 4103 4167 4093 4006 4065 4267 4218 4080 4179 3994 4197 4082 4004 3992 3942 4060 4035 4079 4183 4080 4162 4143 4004 4110 4040 4067 4061 4031 4041 4059 4079 4046 4013 4107 4114 4154 3977 4091 4152 4093 4057 4106 4165 3942 4101 4002 4156 4003 4063 4080 3939 4169 4102 4017 4166 4048 4028 4117 3863 4119 4160 4177 4042 4049 4057 4090 4027 4063 4102 4069 4103 4111 4075 4152 3948 3945 3986 4047 4077 3970 4057 4057 4198 4114 3996 3824 4197 4043 3973 4080 3994 4042 4087 4019 4150 4081 4029 4126 4134 4064 4040 4096 4142 4061 4025 4101 4064 4078 4061 4099 4074 4080 4111 4047 4148 4051 3991 4110 4085 4120 4098 4062 4133 4112 4121 4074 4041 4197 4011 4036 4010 4147 4216 4159 4023 4124 4023 4056 3974 4116 4079 4062 3991 4078 4083 4141 4139 4021 4117 4024 4046 4107 4006 4128 4066 3989 4117 4084 4005 4002 4164 4066 4019 4139 4067 4057 4032 4071 4107 3958 4070 4019 3978 4080 4157 4133 4085 4204 4072 4138 4045 4095 4120 4096 4115 4008 4133 4214 4083 4060 4126 4044 4058 3968 4085 4063 4042 4102 4062 4123 4103 3980 3964 4142 3976 4132 4059 4177 4193 4105 4112 4153 4191 4170 4039 4071 4016 4013 3953 4139 4109 4055 3974 4087 4050 4002 4056 4050 4110 4108 4009 4087 4047 4040 4175 4104 4068 4004 4074 4119 4146 4001 4135 4109 4042 4079 4029 4029 3925 4153 4046 4089 4044 4180 4040 4142 4061 4150 4045 3985 4106 4112 4087 4053 4095 4132 4135 3976 4186 4195 4054 4082 4098 4109 4127 4148 3990 4092 4125 4037 3970 4054 4000 4112 4013 4120 4136 4141 4161 4138 4058 4094 4052 4210 4069 4004 4141 4178 4093 4030 4100 4140 4241 4078 4270 4165 4159 4207 4147 4172 4059 4254 4085 4165 4191 4151 4258 4227 3960 4109 4121 4062 4088 4037 4128 4035 4053 4132 4094 4133 4154 4083 4075 4103 4216 4152 4156 4189 4060 3998 4068 4193 4206 4118 4064 4073 4115 4223 4165 4070 4102 4139 4139 4118 4311 4283 4209 4140 4281 4126 4079 4145 4131 4174 4160 4126 4043 4110 4151 4182 4276 4122 4253 4059 4173 4167 4123 4166 4287 4160 4258 4292 4182 4265 4175 4261 4287 4218 4170 4226 4232 4276 4207 4242 4239 4217 4133 4262 4168 4216 4259 4134 4123 4224 4310 4140 4157 4082 4070 4177 4253 4309 4204 4229 4186 4218 4128 4139 4083 4239 4080 4134 4285 4138 4255 4230 4129 4186 4190 4113 4030 4102 4242 4162 4197 4249 4110 4243 4007 4039 4210 4189 4080 4254 4072 4262 4009 4196 4128 4063 4143 4084 4189 3996 4162 4039 4029 4013 4145 4089 4111 4120 4105 4193 4033 4217 4082 4128 4155 4121 3995 4134 4081 4263 4106 4038 4099 4243 4093 4129 3998 4059 4167 4145 3983 4016 4139 4113 4082 4213 4158 4093 4153 4147 4109 4099 4225 4115 4209 4193 4046 4133 4185 4202 4021 4122 4074 4255 4156 4056 4160 4065 4154 4053 4137 4103 4163 4081 4095 4083 4076 4170 4133 4107 4107 4046 4176 4113 4183 4141 4148 4068 4119 4176 4116 4084 4138 4185 4128 4193 4111 4118 4099 4157 4128 4093 4115 4061 4185 4090 3960 4248 4003 4003 4101 4287 4208 4119 4084 4224 4046 3977 4040 3995 4093 4067 4106 4178 4206 4056 4189 4160 4149 4133 4111 4110 4108 4208 4130 4126 4099 4163 4130 4121 4034 4264 4107 4133 4147 4138 4145 4112 4088 4218 4147 4104 4151 4100 4157 4112 4184 4153 4121 4229 4172 4099 4300 4137 4220 4154 4276 4050 4135 4247 4327 4281 4137 4206 4181 4218 4112 4329 4275 4335 4452 4240 4296 4351 4285 4520 4361 4425 4566 4522 4479 4488 4413 4464 4392 4579 4520 4536 4493 4433 4505 4331 4425 4320 4383 4523 4359 4398 4492 4425 4394 4406 4497 4443 4488 4271 4376 4462 4368 4468 4388 4534 4475 4356 4405 4470 4468 4413 4306 4345 4360 4386 4334 4438 4383 4325 4402 4335 4271 4353 4401 4264 4382 4292 4248 4261 4407 4265 4285 4313 4203 4389 4177 4256 4301 4247 4291 4201 4296 4136 4309 4158 4277 4258 4229 4296 4140 4168 4257 4245 4135 4204 4295 4298 4263 4196 4147 4224 4189 4268 4253 4281 4127 4285 4201 4194 4140 4291 4242 4165 4157 4204 4207 4244 4210 4269 4066 4268 4298 4146 4304 4182 4317 4272 4191 4169 4172 4213 4263 4113 4153 4132 4072 4173 4130 4256 4093 4242 4255 4242 4267 4259 4211 4190 4281 4133 4087 4021 4196 4166 4076 4098 4245 4169 4192 4159 4208 4210 4171 4278 4055 4123 4205 4222 4280 4054 4201 4188 4192 4200 4117 4246 4219 4188 4176 4172 4108 4116 4094 4277 4189 4208 4277 4082 4163 4306 4073 4191 4177 4232 4211 4189 4290 4256 4258 4265 4002 4147 4233 4263 4152 4261 4147 4146 4224 4181 4216 4275 4090 4139 4198 4151 4171 4209 4247 4194 4251 4222 4273 4274 4356 4224 4267 4304 4187 4328 4288 4253 4244 4343 4391 4264 4244 4420 4170 4261 4242 4182 4287 4257 4159 4173 4263 4287 4325 4232 4243 4252 4318 4203 4235 4290 4155 4261 4182 4267 4130 4203 4343 4239 4327 4239 4209 4224 4220 4171 4169 4267 4211 4225 4213 4266 4235 4259 4228 4196 4100 4134 4226 4108 4151 4173 4311 4246 4092 4149 4134 4119 4226 4069 4103 4157 4177 4059 4069 4161 4179 4177 4125 4129 4171 4053 4117 4019 4119 4164 4085 4105 3992 4123 4050 4201 4130 4100 4102 4128 4025 4127 4046 4074 4146 4126 4187 4017 4158 4111 4055 4166 4164 4136 4010 4078 4063 4062 4259 4114 4257 4094 4096 4264 4036 4194 4063 4053 4058 4094 4087 4161 4116 4067 4154 4131 4132 4068 4124 4061 4004 4151 4016 4162 4083 4158 4233 4084 4184 4001 4044 3978 4140 4093 4034 4187 4230 4200 4095 4114 4101 3986 4165 4146 4046 4063 4132 4170 4278 4086 4213 4203 4313 4159 4121 4160 4162 4171 4094 4223 4096 4234 4008 4103 4147 4035 4080 4101 4191 4180 4116 4244 4189 4084 4069 4045 4112 4234 4140 4200 4199 4033 4189 4179 4076 4038 4102 4296 4087 4110 4019 4161 4190 3963 4210 4045 4132 4118 4148 4110 4065 4269 4192 4100 4049 4065 4018 4055 4040 4154 4218 4196 4094 4186 4126 4262 4051 4149 4166 4309 4101 4097 4147 4228 4109 4047 4252 4091 4052 4113 4018 4163 4208 4172 4111 4064 4158 4034 4129 4079 4204 4088 4086 4040 4222 4057 4082 4117 4157 4152 4190 4043 4176 4142 4071 4145 4073 4085 4058 4117 4090 4043 4174 4009 4178 4078 4131 4194 4195 4078 4224 4108 4136 4130 4149 4244 4177 4121 4221 4091 4143 4079 4006 4145 4160 4148 4047 4093 4118 4092 4069 4161 4076 4055 4060 4152 4137 4004 4026 4104 4105 4060 4191 4114 4068 4168 4134 4151 4122 4205 4171 4153 4052 4154 4138 4083 4029 4209 4105 4044 4118 4030 4259 3966 4138 4077 4016 4102 4167 4083 4262 4180 4163 4127 4165 4090 4083 4154 4279 4008 4141 4202 4184 4040 4159 4146 4086 4181 4166 4059 4149 4181 4221 4079 4195 4031 4107 4020 4137 4213 4072 4106 4031 3992 4014 4199 4275 4121 4192 4099 3989 4085 4030 4134 4206 4058 3974 4237 4021 4268 4023 4275 4199 4015 3965 4013 4171 4124 4214 4035 4174 4128 4208 4097 4195 4116 4140 4097 4087 4144 4184 4109 4110 4187 4132 4156 4063 4076 4058 4076 4154 4172 4104 4194 4164 4223 4200 4175 4248 4291 4118 4163 4238 4143 4115 4102 4195 4048 4168 4135 4065 4203 4065 4114 4102 4214 4225 4190 4091 4108 4158 4132 4108 4161 4278 4008 4097 4192 4229 4171 4192 4139 3997 4130 4199 4065 4095 4122 4063 4199 4172 4215 4160 4132 4092 4157 4081 4174 4158 4221 4068 4083 4213 4023 4224 4122 4086 4116 4170 4113 4225 4093 4198 4140 4150 4172 4113 4139 4158 4135 4088 4222 4123 4193 4148 4084 4170 4050 4233 4152 4048 4102 4081 4148 4166 4173 4151 4203 4230 4055 3980 4119 4127 4230 4008 4149 4231 4257 4279 4142 4151 4182 4173 4174 4116 4179 4190 4227 4107 4177 4065 4107 4112 4193 4041 4136 4171 4151 4078 4223 4177 4210 4087 4116 4167 4259 4134 4176 4198 4136 4112 4228 4243 4006 4083 4126 4157 4128 4186 4088 4147 4146 4142 4232 4159 4226 4122 4147 4203 4067 4102 4056 4259 4146 4222 4235 4066 4102 4118 4114 4102 3994 3997 4134 4187 4245 4112 4073 4050 4050 4038 4154 3917 4145 4175 4197 4033 4089 4282 4112 4137 4033 4127 4018 4246 4062 4100 4128 4136 4041 4090 3996 4013 4191 4094 4183 4060 4217 4159 4078 4099 4049 4113 4047 4123 4145 4181 4053 4097 4088 4221 4224 4151 4159 4122 4167 4115 4087 4116 4046 3994 4032 4024 4111 4086 4169 4124 4092 4169 4103 4139 4098 4153 4120 4106 4140 4090 4130 4163 4114 4016 4142 4066 4147 4057 4169 4101 4057 4222 4045 4172 4254 4104 4050 4218 4113 4315 4162 4200 4132 4084 4263 4111 4046 4111 4049 4161 4264 4171 4236 4320 4059 4093 4137 4207 4170 4143 4221 4192 4253 4247 4109 4316 4215 4232 4189 4187 4235 4260 4254 4283 4245 4366 4322 4229 4281 4427 4329 4407 4351 4382 4381 4341 4339 4291 4306 4271 4326 4301 4342 4393 4344 4506 4309 4444 4400 4364 4299 4300 4348 4258 4276 4376 4355 4292 4414 4339 4328 4440 4251 4302 4327 4436 4284 4442 4217 4371 4376 4392 4265 4343 4293 4151 4241 4400 4297 4299 4375 4387 4245 4217 4302 4144 4180 4275 4357 4230 4147 4215 4318 4265 4280 4177 4270 4167 4218 4234 4252 4397 4203 4177 4265 4257 4232 4294 4265 4292 4077 4159 4187 4199 4267 4146 4217 4212 4095 4254 4251 4160 4262 4218 4213 4208 4257 4180 4228 4314 4196 4206 4181 4206 4207 4371 4184 4244 4189 4179 4242 4251 4245 4265 4225 4148 4210 4261 4200 4247 4181 4212 4042 4208 4173 4149 4068 4214 4244 4230 4251 4340 4345 4184 4171 4353 4248 4100 4201 4179 4224 4197 4146 4120 4107 4191 4188 4171 4112 4185 4102 4106 4260 4211 4066 4104 4049 4215 4139 4139 4137 4192 4225 4114 4123 4117 4090 4210 4254 4231 4158 4203 4136 4022 4186 4114 4162 4239 4222 4152 4129 4201 4184 4187 4149 4242 4189 4006 4279 4181 4184 4160 4277 4231 4066 4087 4214 4023 4073 4117 4193 4194 4117 4107 4194 4159 4109 4175 4184 4247 4207 4286 4152 4093 4155 4267 4008 4136 4168 4073 4180 4262 4223 4082 4195 4102 4125 4227 4027 4348 4187 4270 4176 4157 4139 4197 4196 4200 4259 4086 4154 4241 4180 4221 4216 4177 4072 4160 4179 4052 4191 4144 4192 4259 4275 4160 4387 4230 4193 4157 4314 4168 4200 4130 4164 4152 4102 4229 4373 4104 4244 4378 4225 4161 4239 4152 4179 4245 4136 4153 4279 4205 4286 4198 4382 4224 4255 4210 4182 4093 4106 4092 4235 4206 4140 4214 4206 4070 4197 4197 4222 4210 4307 4298 4249 4197 4163 4181 4188 4142 4125 4264 4149 4104 4082 4057 4272 4204 4115 4205 4171 4093 4080 4227 4117 4139 4135 4148 4173 4152 4238 4208 4146 4174 4116 4239 4058 4042 4153 4194 4154 4118 4101 4244 4162 4091 4273 4172 4123 4217 4177 4105 3983 4193 4150 4137 4105 4133 4203 4168 4150 4140 4064 4230 4088 4246 4121 4174 4156 4192 4080 4109 4128 4082 4108 4213 4120 4197 4267 4130 4247 4134 4134 4056 4172 4279 4025 4118 4170 4140 4179 4115 4205 4135 4208 4049 4215 4152 4177 4067 4131 4176 4192 4176 4069 4091 4152 4163 4105 4139 4131 4094 4124 4213 4085 4221 4185 4158 4125 4234 4135 4103 4257 4164 4122 4199 4176 4164 4157 4116 4109 4073 4254 4298 4209 4161 4004 4202 4090 4230 4125 4032 4144 4281 4146 4231 4201 4239 4090 4151 4184 4254 4196 4264 4192 4188 4213 4155 4163 4239 4199 4029 4158 4206 4027 4298 4188 4177 4163 4132 4152 4141 4285 4168 4289 4171 4094 4268 4168 4122 3991 4201 4106 4082 4159 4124 4226 4063</counts>
			</dataPoints>
		</scan>
	</xrdMeasurement>
</xrdMeasurements>
