<?xml version="1.0"?>
<xrdMeasurements xmlns="http://www.xrdml.com/XRDMeasurement/2.3" xmlns:xsi="http://www.w3.org/2001/XMLSchema-instance" xsi:schemaLocation="http://www.xrdml.com/XRDMeasurement/2.3 http://www.xrdml.com/XRDMeasurement/2.3/XRDMeasurement.xsd" status="Completed" recordIdentifier="{A7445BD2-5684-427F-8926-7BF8C3CF3E95}">
	<comment>
		<entry/>
	</comment>
	<sample type="To be analyzed">
		<id>GPSS_Li1p8Mg0p8Sc0p2Cl4_112225_6921f967f4e53d1f72397d3c</id>
		<name></name>
		<preparedBy></preparedBy>
	</sample>
	<xrdMeasurement measurementType="Scan" status="Completed" sampleMode="Reflection">
		<usedWavelength intended="K-Alpha 1">
			<kAlpha1 unit="Angstrom">1.5405980</kAlpha1>
			<kAlpha2 unit="Angstrom">1.5444260</kAlpha2>
			<kBeta unit="Angstrom">1.3922500</kBeta>
			<ratioKAlpha2KAlpha1>0.5000</ratioKAlpha2KAlpha1>
		</usedWavelength>
		<incidentBeamPath>
			<radius unit="mm">145.00</radius>
			<xRayTube id="1010048" name="Empyrean Cu LFF HR (9430 033 7310x)">
				<tension unit="kV">40.0</tension>
				<current unit="mA">15.0</current>
				<anodeMaterial>Cu</anodeMaterial>
				<focus type="Line">
					<length unit="mm">12.0</length>
					<width unit="mm">0.4</width>
					<takeOffAngle unit="deg">6.0</takeOffAngle>
				</focus>
			</xRayTube>
			<sollerSlit id="21010002" name="Soller slits 0.04 rad.">
				<opening unit="rad">0.0400</opening>
			</sollerSlit>
			<mask id="22031000" name="Fixed mask 13 mm">
				<width unit="mm">9.00</width>
			</mask>
			<divergenceSlit id="22120001" name="Divergence slit 1°" xsi:type="fixedDivergenceSlitType">
				<distanceToSample unit="mm">50.00</distanceToSample>
				<height unit="mm">1.52</height>
			</divergenceSlit>
		</incidentBeamPath>
		<sampleMovement xsi:type="spinningSampleMovementType">
			<spinnerRevolutionTime unit="seconds">1.0</spinnerRevolutionTime>
		</sampleMovement>
		<diffractedBeamPath>
			<radius unit="mm">145.00</radius>
			<antiScatterSlit id="22090040" name="AS slit 9 mm (PIXcel)" xsi:type="fixedAntiScatterSlitType">
				<height unit="mm">9.00</height>
			</antiScatterSlit>
			<sollerSlit id="21020003" name="Large Soller slits 0.04 rad.">
				<opening unit="rad">0.0400</opening>
			</sollerSlit>
			<filter id="20030001" name="Large beta-filter Nickel">
				<material>Ni</material>
				<thickness unit="mm">0.020</thickness>
			</filter>
			<detector id="7010019" name="PIXcel1D-Medipix3 detector" xsi:type="rtmsDetectorType">
				<phd unit="keV">
					<lowerLevel>4.02</lowerLevel>
					<upperLevel>11.27</upperLevel>
				</phd>
				<mode>Scanning</mode>
				<activeLength unit="deg">5.542</activeLength>
			</detector>
		</diffractedBeamPath>
		<scan appendNumber="0" mode="Continuous" scanAxis="Gonio" status="Completed">
			<header>
				<startTimeStamp>2025-11-24T13:54:12-08:00</startTimeStamp>
				<endTimeStamp>2025-11-24T14:02:19-08:00</endTimeStamp>
				<author>
					<name>AutomatedUser</name>
				</author>
				<source>
					<applicationSoftware version="1.7b (136)">PANalytical Aeris Instrument Suite</applicationSoftware>
					<instrumentControlSoftware version="3.2.00000000 20240306">AERIS</instrumentControlSoftware>
					<instrumentID>950485</instrumentID>
				</source>
			</header>
			<dataPoints>
				<positions axis="2Theta" unit="deg">
					<startPosition>10.00943322</startPosition>
					<endPosition>99.99442286</endPosition>
				</positions>
				<positions axis="Omega" unit="deg">
					<startPosition>5.00471661</startPosition>
					<endPosition>49.99721143</endPosition>
				</positions>
				<commonCountingTime unit="seconds">12.495</commonCountingTime>
				<counts unit="counts">2963 2844 2881 2889 3004 2866 2982 2889 2944 2890 2877 2945 2950 2937 2891 2942 2980 2866 2955 3020 2906 2856 3033 2947 2985 2952 3033 2930 2954 2926 2987 3063 2959 2981 3023 2864 2965 3058 2947 2988 3036 3097 2983 3013 2989 2988 3042 3038 3126 2985 2968 3027 3070 3061 3036 3065 3072 2938 3037 2976 3120 3091 3034 3093 2961 3057 2985 3017 3102 3012 3065 3018 3066 3028 3030 2988 3040 2997 2973 3028 3099 3059 3014 3141 3050 3084 2992 2969 2975 2995 3000 2892 2961 2984 3084 3012 3041 3037 3043 2922 3024 3091 2861 2971 2967 3059 2954 2928 2929 2927 3073 2919 2990 2948 2951 2964 2983 2954 3001 3064 3043 3013 3011 2927 2975 2888 3033 2969 2961 3060 2966 2955 3075 3018 2996 2954 2969 2969 2962 2880 2989 2978 2924 3055 3088 2978 2970 3014 2969 2910 3034 3040 2938 3004 2977 3108 2946 2928 3040 2979 2912 3067 3003 2929 2884 3077 2943 3053 3010 2883 3045 2893 2891 2967 3101 2857 2999 2948 3015 3011 3033 2974 2949 2961 2930 2956 2882 2975 2931 2953 2947 2951 3149 2933 2948 3096 3026 2965 3012 2857 2920 2930 2993 2935 2975 2925 2973 2958 2908 2980 2914 3029 3001 2923 2840 2956 2870 2978 3044 2923 2841 2831 2985 2899 2888 2908 2875 2961 2931 2867 2832 2924 2916 2766 2931 2875 2865 2837 2975 2824 2835 2903 2921 3088 2952 2952 2855 2827 2826 2814 2829 2961 2917 2864 2853 2859 2957 2874 2822 2881 2731 2813 2846 2960 2896 2893 2811 2928 2902 2900 2923 2963 2796 2837 2930 2836 2937 2972 2833 2848 2821 2878 2857 2883 2822 2885 2910 2916 2781 2729 2826 2760 2850 2916 2760 2900 2954 2941 2887 2958 2953 2925 2957 2891 2885 2887 2964 2853 2870 2911 3022 2915 2821 2959 2992 2986 2944 2945 2860 2908 2854 2968 3000 2927 2965 2923 2922 3061 2963 2982 2934 2988 2950 3058 3099 3000 2906 2983 3034 2958 3020 2929 3029 3040 2966 3078 3096 3044 2945 3207 2996 3066 3092 3018 3040 3108 2999 3085 2972 3089 3067 3080 3208 3035 3167 3116 3172 3189 3106 3164 3179 3120 3086 3227 3183 3154 3263 3198 3195 3245 3237 3188 3220 3339 3262 3266 3266 3164 3252 3316 3183 3342 3322 3461 3330 3271 3333 3260 3255 3327 3413 3356 3376 3365 3409 3484 3533 3534 3589 3490 3472 3548 3796 3681 3584 3686 3747 3744 3922 3990 4112 3965 4063 4193 4322 4403 4430 4698 4780 4691 4894 5194 5134 5256 5438 5571 5628 6119 6139 6311 6562 6586 6974 7107 7107 7325 7694 7852 8003 8187 8311 8368 8716 8684 9066 9073 9331 10097 10050 10349 10809 11216 11728 11644 12194 11992 12369 12484 12330 12030 12127 11782 11488 11084 10527 10085 9371 8677 8082 7702 7236 7005 6668 6515 6058 5919 5734 5728 5470 5478 5355 5176 5180 4870 4875 4824 4697 4549 4580 4378 4347 4176 4278 3994 3900 3949 3726 3771 3669 3511 3621 3409 3524 3479 3433 3408 3395 3332 3363 3345 3269 3286 3242 3317 3284 3133 3168 3191 3245 3244 3261 3223 3214 3264 3072 3141 3059 3127 3048 3085 3179 3115 3075 3068 3063 3122 2978 3075 2989 3120 2895 3083 3140 3093 3006 3058 3049 3068 3087 3031 3127 3025 3129 3111 2976 3036 3080 3023 3051 2988 3013 3064 3015 2942 3022 2998 2934 2920 2900 2888 2944 2945 2957 3062 2861 2909 3003 2880 3004 2881 2947 2829 2846 2949 2890 2927 2935 2881 2988 2940 2946 2926 2947 2887 2967 2782 2897 2839 2902 2791 2818 2753 2859 2891 2968 2840 2759 2881 2805 2823 2777 2872 2819 2867 2771 2862 2796 2803 2667 2807 2879 2671 2759 2738 2702 2766 2871 2684 2761 2809 2783 2751 2768 2802 2761 2884 2754 2796 2743 2753 2822 2631 2715 2836 2748 2757 2660 2689 2792 2727 2683 2749 2812 2694 2785 2709 2613 2712 2635 2728 2665 2637 2715 2707 2670 2818 2629 2661 2708 2724 2738 2771 2691 2700 2686 2686 2742 2766 2760 2552 2680 2767 2625 2646 2595 2668 2644 2669 2716 2678 2756 2597 2612 2634 2628 2613 2784 2715 2628 2715 2617 2703 2609 2721 2645 2605 2673 2587 2647 2561 2550 2593 2655 2597 2606 2577 2576 2712 2643 2593 2580 2588 2538 2643 2664 2597 2645 2586 2558 2602 2589 2558 2663 2521 2614 2608 2567 2536 2562 2573 2551 2605 2638 2621 2561 2650 2576 2551 2529 2569 2550 2613 2519 2462 2481 2522 2599 2425 2597 2621 2493 2604 2616 2592 2532 2518 2528 2598 2490 2540 2653 2515 2553 2482 2583 2523 2588 2529 2587 2446 2516 2527 2547 2460 2495 2440 2518 2452 2377 2489 2538 2555 2426 2476 2535 2552 2469 2540 2409 2467 2513 2442 2483 2430 2485 2397 2519 2560 2588 2454 2476 2462 2541 2575 2468 2534 2426 2462 2447 2484 2476 2447 2408 2419 2406 2412 2430 2466 2399 2448 2477 2428 2427 2500 2391 2398 2374 2375 2373 2363 2410 2434 2423 2352 2428 2406 2455 2469 2384 2357 2366 2289 2401 2380 2362 2438 2377 2433 2407 2472 2375 2353 2326 2330 2410 2372 2371 2397 2367 2357 2409 2341 2342 2274 2290 2345 2368 2324 2385 2424 2313 2334 2466 2347 2460 2356 2477 2358 2286 2298 2364 2319 2267 2391 2342 2347 2309 2300 2374 2289 2381 2370 2301 2269 2291 2329 2414 2275 2267 2339 2311 2323 2274 2288 2389 2293 2292 2295 2336 2312 2252 2311 2266 2218 2225 2308 2302 2305 2373 2238 2338 2233 2376 2338 2254 2281 2324 2308 2311 2272 2221 2253 2202 2309 2268 2237 2295 2287 2258 2259 2189 2277 2213 2190 2282 2252 2240 2144 2246 2275 2253 2198 2287 2205 2251 2276 2278 2248 2273 2226 2201 2220 2232 2272 2231 2301 2226 2240 2312 2284 2246 2226 2190 2282 2214 2224 2219 2275 2196 2215 2205 2202 2304 2163 2304 2141 2262 2196 2171 2220 2140 2261 2143 2251 2292 2203 2177 2219 2129 2220 2257 2189 2179 2216 2210 2302 2264 2254 2289 2167 2183 2199 2195 2192 2200 2110 2153 2181 2119 2254 2247 2116 2253 2135 2237 2191 2178 2218 2147 2148 2187 2212 2237 2316 2173 2169 2204 2218 2188 2108 2199 2251 2139 2221 2277 2274 2251 2158 2186 2215 2248 2143 2257 2225 2150 2202 2248 2180 2163 2056 2255 2088 2160 2134 2123 2251 2207 2237 2256 2157 2150 2185 2142 2174 2127 2238 2167 2211 2179 2161 2181 2120 2140 2179 2095 2278 2238 2127 2253 2162 2209 2130 2217 2179 2244 2149 2150 2141 2229 2159 2162 2099 2186 2179 2108 2074 2127 2070 2176 2110 2074 2146 2171 2190 2160 2108 2123 2166 2081 2135 2147 2139 2101 2155 2096 2157 2135 2049 2183 2140 2045 2076 2114 2064 2031 2104 2022 2066 2064 2147 2085 2059 2050 2056 2055 2069 2006 2114 2055 2077 2029 2045 2070 2079 1938 1907 2060 1966 2053 1967 2012 1976 1950 2016 1986 2042 1985 1938 1937 1975 1895 1998 1944 2016 1979 1908 2001 1934 1909 1955 1924 1947 1890 1916 1894 1951 1878 1910 1853 1863 1884 1884 1857 1874 1895 1904 1828 1884 1858 1896 1860 1897 1864 1945 1852 1895 1831 1764 1852 1873 1784 1833 1811 1873 1807 1808 1776 1815 1802 1762 1818 1807 1725 1725 1723 1674 1793 1726 1813 1750 1802 1748 1726 1771 1721 1726 1739 1758 1772 1767 1760 1697 1778 1706 1672 1740 1803 1709 1649 1711 1734 1779 1639 1747 1716 1671 1655 1659 1592 1631 1721 1592 1693 1696 1662 1705 1664 1653 1676 1607 1688 1670 1660 1624 1675 1618 1642 1638 1601 1724 1562 1711 1603 1651 1655 1634 1650 1706 1603 1736 1705 1629 1575 1549 1675 1649 1632 1698 1668 1611 1497 1602 1631 1651 1653 1581 1606 1651 1532 1557 1559 1641 1606 1592 1546 1640 1471 1518 1551 1594 1538 1510 1525 1544 1606 1554 1568 1554 1547 1583 1560 1603 1615 1543 1582 1617 1533 1548 1575 1552 1504 1575 1549 1515 1568 1586 1513 1583 1567 1555 1490 1538 1493 1546 1587 1508 1526 1505 1500 1527 1537 1564 1538 1491 1451 1527 1537 1541 1554 1532 1516 1579 1570 1567 1526 1538 1476 1509 1519 1509 1639 1482 1538 1551 1526 1477 1514 1505 1500 1545 1475 1596 1600 1498 1540 1489 1505 1622 1508 1543 1596 1553 1622 1514 1481 1434 1538 1563 1557 1544 1548 1466 1590 1483 1535 1542 1557 1535 1530 1568 1528 1628 1468 1496 1560 1492 1594 1466 1554 1520 1561 1494 1552 1527 1569 1487 1541 1515 1434 1537 1533 1549 1443 1530 1424 1464 1530 1463 1561 1511 1553 1475 1518 1503 1472 1528 1542 1526 1558 1496 1627 1547 1503 1525 1540 1533 1528 1579 1502 1523 1516 1519 1464 1450 1528 1482 1455 1503 1463 1446 1472 1520 1631 1568 1610 1499 1458 1526 1471 1492 1464 1447 1536 1443 1455 1470 1530 1532 1474 1474 1520 1499 1499 1482 1461 1429 1429 1492 1392 1431 1439 1408 1451 1398 1476 1414 1484 1503 1477 1524 1490 1468 1499 1425 1441 1393 1426 1453 1431 1457 1466 1473 1378 1419 1462 1428 1442 1430 1433 1432 1359 1423 1413 1457 1424 1401 1410 1472 1402 1445 1399 1355 1321 1367 1369 1355 1380 1398 1352 1382 1373 1357 1355 1395 1324 1315 1387 1413 1356 1374 1330 1329 1438 1320 1405 1352 1316 1397 1246 1367 1354 1295 1391 1276 1329 1256 1297 1258 1312 1320 1311 1282 1311 1317 1246 1296 1276 1265 1223 1264 1195 1206 1242 1282 1211 1234 1237 1255 1243 1273 1251 1153 1207 1222 1243 1277 1242 1228 1235 1253 1202 1287 1195 1253 1222 1239 1214 1193 1207 1206 1090 1164 1216 1167 1190 1225 1215 1165 1230 1206 1188 1159 1207 1199 1163 1224 1199 1222 1220 1187 1137 1215 1190 1201 1140 1241 1244 1215 1114 1098 1323 1193 1189 1221 1224 1284 1266 1294 1288 1289 1483 1370 1359 1419 1402 1517 1457 1501 1539 1537 1641 1640 1576 1660 1659 1724 1593 1564 1593 1511 1483 1480 1531 1463 1382 1326 1390 1340 1445 1352 1312 1278 1305 1353 1371 1428 1321 1378 1306 1372 1336 1371 1378 1315 1305 1354 1288 1235 1280 1231 1265 1221 1213 1254 1165 1215 1198 1187 1199 1228 1238 1188 1151 1148 1208 1173 1163 1178 1160 1212 1179 1180 1176 1201 1126 1203 1132 1217 1264 1162 1163 1160 1170 1248 1176 1267 1239 1259 1282 1210 1229 1247 1315 1268 1302 1379 1380 1357 1343 1409 1411 1513 1547 1587 1704 1762 1750 1902 2019 2060 2266 2597 2752 2948 3118 3576 3703 4337 4548 5121 5683 6222 6655 7273 8083 8678 9216 9944 10577 10781 11157 11410 11503 11415 11230 11255 10756 10094 9450 9024 8274 7891 7278 6726 6342 5645 5382 4972 4854 4914 4796 4666 4910 4997 5039 5073 5278 5425 5598 5720 5683 5899 5811 6109 5878 5761 5780 5628 5452 5501 5165 5112 4950 4973 4715 4776 4694 4586 4540 4655 4594 4764 4702 4682 4835 4782 4779 4671 4482 4267 4100 3886 3637 3372 3144 2842 2619 2384 2270 2058 1982 1754 1640 1579 1596 1516 1524 1391 1387 1378 1463 1392 1353 1335 1249 1287 1360 1211 1261 1129 1173 1072 1122 1128 1076 1054 1070 1042 1034 1017 1020 968 1014 1014 1007 954 1015 977 975 994 913 984 1017 919 977 963 989 1016 960 890 994 909 963 972 926 938 922 907 938 921 931 935 986 899 914 960 928 903 976 876 940 893 908 893 932 905 882 911 888 932 907 863 889 899 839 886 851 868 872 894 901 908 900 934 907 903 875 857 896 886 902 863 916 905 889 866 915 916 951 914 967 963 956 1024 932 970 972 983 1033 993 994 1093 1041 1130 1101 1098 1131 1138 1174 1150 1145 1152 1082 1125 1165 1093 1090 1085 1036 954 1006 984 925 1011 884 916 890 947 859 886 845 870 808 863 881 817 829 846 838 812 826 792 842 864 832 836 807 769 801 837 827 876 829 839 846 802 845 805 823 802 865 826 784 821 758 791 838 777 781 814 846 789 802 811 747 732 829 841 853 810 771 820 849 822 795 808 814 764 857 782 767 841 831 846 769 838 853 787 767 769 780 805 793 780 830 781 787 802 784 800 798 805 844 865 827 738 785 808 796 784 799 768 759 822 800 826 770 792 824 813 828 775 804 784 748 785 829 788 809 779 850 824 762 856 806 799 856 829 868 871 790 826 799 812 813 839 834 840 796 876 764 824 818 773 846 820 882 905 882 845 791 831 872 859 878 839 854 901 870 873 908 882 900 846 934 888 922 860 930 904 913 949 975 954 957 971 920 1020 1030 1050 1041 1039 1004 1053 1102 1144 1121 1122 1128 1117 1189 1278 1270 1257 1271 1300 1353 1387 1542 1662 1668 1752 1860 2068 2074 2361 2421 2672 3028 3341 3418 3863 4172 4615 4950 5451 5853 6247 6800 7243 7817 8064 8698 9145 9401 9572 9631 9731 9652 9708 9256 9090 8683 8309 7851 7351 6900 6423 6055 5701 5337 5165 4796 4592 4378 4370 4202 4087 4096 4141 4322 4339 4202 4492 4628 4620 4769 4867 4915 4942 5144 5328 5444 5731 5600 5755 5801 5783 5907 5819 5743 5533 5436 4960 4905 4499 4418 4057 3838 3579 3310 3089 2846 2613 2390 2197 2035 1850 1879 1736 1644 1532 1432 1356 1291 1280 1214 1173 1108 1152 1092 1094 1058 956 1023 976 918 883 947 865 941 881 874 863 866 858 863 837 785 808 811 797 821 769 815 785 713 807 759 784 733 733 738 730 745 707 729 734 803 757 748 754 727 746 716 667 696 697 723 749 777 762 782 813 728 699 653 666 701 730 720 709 702 717 677 692 759 691 694 715 715 711 674 692 625 709 687 701 688 681 718 664 681 682 673 656 637 661 693 717 630 721 706 667 710 647 689 646 728 599 677 687 656 680 683 643 717 626 636 677 604 668 677 673 670 694 650 651 662 635 644 650 666 687 651 646 657 663 638 661 575 664 624 655 651 641 668 668 671 633 663 684 640 634 636 670 621 665 613 597 653 638 641 604 636 604 657 642 629 614 621 618 660 596 658 673 641 620 627 618 668 630 621 641 617 605 607 589 652 552 570 617 616 718 638 631 640 601 632 621 583 628 598 589 619 639 610 606 615 607 630 618 642 598 662 656 609 655 618 657 598 582 565 649 610 633 622 605 592 552 576 595 597 590 623 609 594 526 612 584 611 604 634 621 592 588 553 595 588 587 592 618 588 579 616 562 562 583 586 586 607 541 573 582 562 531 558 559 558 573 572 589 634 556 559 620 572 602 626 588 578 585 624 628 593 643 569 596 620 574 606 597 568 613 599 568 582 575 569 534 566 596 565 529 562 586 567 535 530 541 538 547 561 545 564 548 506 520 547 606 605 555 592 558 558 525 539 557 549 530 579 535 506 534 538 532 539 565 521 530 560 520 569 576 502 547 583 561 506 540 535 574 562 492 552 526 550 553 572 581 519 589 584 532 573 550 512 572 549 480 549 532 526 553 534 535 541 518 539 565 566 532 516 535 544 490 521 560 485 549 543 477 534 465 509 537 518 524 523 517 515 492 510 531 514 560 469 505 525 495 514 515 511 517 529 555 538 522 509 514 507 473 554 517 518 518 537 498 528 512 478 527 515 456 544 468 552 504 504 545 510 552 489 539 531 519 524 530 497 535 536 498 477 509 494 524 483 517 557 493 514 496 497 507 525 506 520 445 492 544 504 504 517 515 540 473 462 453 527 498 522 535 504 545 511 509 484 572 454 458 489 532 506 486 517 489 504 529 521 551 530 497 500 458 496 470 480 482 498 528 537 501 545 508 523 470 518 508 508 523 485 473 500 561 532 520 490 483 548 546 483 514 495 504 480 528 502 512 497 491 549 534 510 534 482 514 495 505 492 481 521 478 491 463 521 512 542 477 509 502 484 532 469 532 549 525 608 491 499 552 548 504 533 517 562 603 619 612 581 622 604 635 661 644 712 736 749 682 738 720 784 769 819 823 772 749 809 758 700 715 740 694 704 656 690 649 627 645 577 580 551 589 526 625 531 532 567 537 533 541 574 514 534 516 489 473 510 511 479 548 504 500 516 513 493 524 486 519 494 536 536 487 458 447 513 498 481 481 453 489 474 489 418 497 497 523 477 479 491 479 473 476 490 475 500 443 454 505 484 473 508 472 439 494 447 452 474 452 403 494 464 486 443 500 487 477 423 442 481 438 455 463 469 515 464 477 474 478 463 486 495 447 470 463 465 470 451 453 492 474 491 453 458 463 416 462 463 476 478 427 453 454 456 450 490 453 495 474 418 482 470 479 502 476 427 457 493 491 467 463 448 451 475 475 451 442 467 473 446 496 527 465 466 464 462 460 448 434 479 461 438 449 452 463 507 477 431 458 419 473 466 486 455 470 451 450 452 479 460 431 406 452 446 462 430 470 435 489 468 426 498 458 435 442 462 492 437 458 524 420 445 455 460 414 442 461 426 470 475 468 482 466 439 446 440 445 443 470 431 404 426 449 456 469 465 424 453 387 421 465 466 454 467 443 477 452 436 455 457 480 465 453 465 458 450 447 425 467 477 469 429 465 438 483 447 449 472 462 475 458 442 444 434 453 411 445 491 475 454 497 430 437 440 436 468 445 472 474 412 454 437 469 471 483 488 472 471 467 479 470 510 465 472 463 439 508 469 539 490 527 520 530 508 511 453 572 512 576 552 574 602 607 603 629 677 681 770 772 779 823 891 919 905 997 994 1012 993 1036 1052 1184 1122 1086 1175 1137 1085 1110 1018 1017 931 904 833 846 861 859 812 779 774 735 678 706 636 585 697 622 628 617 583 632 582 561 601 584 538 578 515 571 532 598 527 554 525 535 544 544 557 519 595 537 578 570 586 549 634 622 662 694 661 661 740 738 778 757 788 769 782 814 835 774 770 800 804 767 752 682 753 691 752 740 666 659 619 600 613 596 546 547 538 531 556 538 505 467 531 485 460 487 451 450 485 479 461 483 452 428 433 463 446 458 420 402 406 465 445 443 419 446 448 427 447 450 455 442 467 432 431 399 403 455 406 435 424 424 382 427 434 393 461 444 400 402 433 404 432 437 457 410 458 401 412 407 432 398 411 414 389 458 404 454 386 416 430 397 394 426 415 415 406 390 369 428 385 381 432 420 416 427 425 407 423 410 396 394 416 417 444 448 432 374 379 430 413 444 437 425 394 417 391 405 406 406 434 366 405 434 406 432 423 446 392 441 456 380 437 433 442 400 403 415 435 432 428 405 424 416 465 446 416 452 399 405 468 422 411 457 441 449 446 458 456 413 451 410 416 421 432 423 426 440 419 421 435 409 448 438 408 441 442 443 400 439 428 391 424 457 442 459 408 478 461 443 438 445 434 447 427 429 453 407 429 474 446 449 484 468 455 443 433 455 428 445 425 440 456 454 463 433 458 469 465 504 467 429 459 416 453 482 457 466 448 457 453 427 479 477 483 464 469 459 490 437 443 444 472 476 450 470 488 475 451 476 456 512 485 487 510 517 499 509 530 534 571 542 519 553 520 510 547 567 577 555 601 561 607 595 635 628 654 649 661 682 631 651 670 766 787 789 863 851 875 991 1113 1168 1291 1326 1482 1658 1719 1925 2157 2314 2618 2843 3032 3416 3653 3814 4247 4381 4659 4736 5001 5115 5126 5186 5064 5051 4864 4681 4579 4331 4135 3976 3814 3548 3345 3203 3086 2972 2909 2607 2405 2295 2121 1919 1768 1742 1663 1568 1472 1410 1397 1420 1363 1343 1336 1390 1357 1391 1312 1385 1439 1471 1483 1511 1541 1551 1659 1608 1669 1719 1810 1791 1728 1827 1921 1856 1807 1821 1753 1818 1898 1840 1843 1751 1737 1734 1916 1771 1763 1702 1821 1721 1741 1817 1809 1810 1841 1809 1825 1826 1796 1800 1801 1649 1581 1611 1511 1481 1494 1407 1359 1348 1369 1222 1189 1156 1120 1009 977 900 815 869 836 762 729 677 699 704 611 643 632 605 617 600 572 557 538 588 553 531 551 480 485 464 495 485 509 450 476 454 469 451 485 472 429 467 457 490 449 462 424 409 455 426 428 452 430 438 388 445 463 433 446 406 406 425 413 440 394 421 404 393 428 437 456 410 431 427 445 431 412 439 416 430 407 422 379 410 363 380 378 417 377 403 431 408 402 387 412 408 431 414 406 377 389 387 414 409 460 443 460 411 430 467 475 436 456 463 415 464 462 490 484 518 486 539 599 553 588 636 619 642 610 667 659 600 685 641 709 659 709 649 676 616 647 636 583 601 541 550 603 546 562 521 516 510 491 516 459 457 440 441 449 494 449 452 493 464 436 436 455 442 486 407 447 442 448 439 436 444 461 472 484 497 472 494 535 489 511 482 468 537 509 474 526 459 476 495 447 445 478 452 463 413 499 431 462 460 430 397 428 439 391 422 448 392 404 415 398 387 448 412 372 389 371 366 420 398 380 386 401 384 374 394 389 382 408 360 412 377 375 337 415 362 353 336 391 363 381 333 413 359 391 397 378 379 325 345 398 357 374 357 386 346 356 357 374 355 371 362 356 374 365 381 364 355 332 354 364 350 380 377 337 349 329 358 371 321 322 350 329 376 350 366 365 356 361 346 385 349 359 355 335 387 309 342 347 331 318 341 374 345 374 341 341 353 330 370 339 321 347 322 346 347 336 379 350 371 319 371 393 361 335 321 344 369 350 388 351 344 346 394 342 357 378 355 368 386 353 357 379 350 424 339 395 361 372 370 428 401 388 382 411 383 460 435 425 459 452 469 458 535 536 501 551 530 621 551 550 561 578 543 565 556 518 549 536 546 529 468 537 498 447 454 492 436 451 421 424 399 374 393 363 368 347 377 387 367 359 356 359 336 337 346 336 360 337 336 337 346 342 311 389 383 371 346 336 357 342 343 337 350 346 357 309 355 316 330 349 339 323 369 341 330 300 349 313 312 351 329 361 356 323 332 342 330 327 318 340 331 356 359 316 335 326 334 330 339 332 323 329 353 351 348 320 311 319 357 329 322 351 360 315 316 308 314 340 335 310 352 297 302 307 325 317 359 358 327 319 336 324 328 333 336 300 312 319 301 333 310 314 306 327 348 349 303 317 315 302 307 326 311 328 318 305 317 318 274 324 307 323 308 334 329 301 318 306 298 300 309 321 337 331 308 329 292 318 310 349 321 320 316 352 336 319 323 326 324 287 346 303 328 311 292 304 338 358 346 314 310 319 334 282 300 346 331 297 312 338 330 323 339 313 325 290 320 332 299 335 309 351 314 322 329 360 303 299 332 345 316 355 282 334 334 312 297 331 296 322 332 338 305 312 334 311 315 330 324 344 286 323 316 325 317 320 331 291 336 328 335 316 347 323 302 316 310 343 338 350 361 312 306 318 332 294 321 298 320 330 322 316 329 333 354 372 340 303 323 315 300 319 345 333 318 331 315 344 333 326 360 354 317 339 323 321 329 331 348 334 339 370 317 352 333 324 350 358 377 374 360 350 360 347 364 369 365 367 370 386 408 370 373 398 403 365 408 404 414 444 400 383 368 412 380 391 379 386 369 359 388 387 383 422 412 389 374 385 397 401 403 403 427 416 424 412 447 472 429 434 504 517 500 499 551 514 580 605 597 688 691 694 788 823 871 978 937 1107 1136 1204 1211 1373 1422 1469 1386 1506 1526 1582 1671 1650 1631 1602 1682 1590 1537 1528 1388 1394 1368 1272 1306 1262 1213 1152 1190 1161 1086 1080 1067 947 951 839 812 754 669 732 664 651 649 605 612 601 582 604 578 566 539 541 549 505 575 537 525 586 536 552 534 549 539 589 625 672 632 626 638 651 693 751 667 780 785 824 769 802 877 849 837 892 908 908 855 885 862 848 884 807 865 821 809 801 783 759 820 698 789 725 739 735 675 687 665 624 596 617 581 609 629 543 634 572 572 580 524 550 516 502 500 532 501 470 476 451 469 428 454 464 478 460 455 395 409 408 411 404 393 394 345 363 366 377 362 345 336 365 379 359 365 300 362 319 353 352 350 316 321 361 337 331 322 335 296 345 336 326 338 337 328 335 306 340 335 321 327 355 344 312 336 339 321 311 338 359 329 311 308 310 344 304 340 318 298 323 320 292 330 292 304 342 352 308 324 293 360 345 344 314 316 297 337 324 311 341 329 302 324 323 338 310 309 329 364 307 326 339 348 309 342 338 328 335 347 364 324 339 377 362 364 367 381 331 391 390 346 386 409 395 420 427 429 451 417 466 464 539 567 571 610 625 663 701 816 844 865 1010 1009 1101 1147 1253 1357 1374 1505 1509 1495 1678 1718 1725 1738 1744 1647 1634 1622 1517 1504 1403 1345 1306 1261 1282 1234 1243 1190 1207 1104 1260 1050 1032 1014 932 902 831 791 767 691 690 667 593 621 554 557 556 538 507 526 562 501 521 507 534 512 568 517 501 528 489 517 493 531 541 594 590 555 549 568 636 618 685 661 674 749 729 704 685 711 785 802 808 830 821 822 869 937 900 940 873 927 963 1003 962 1053 947 1009 950 938 881 857 778 796 776 666 683 645 708 697 658 693 712 678 730 662 674 598 657 659 730 719 754 788 820 848 890 945 982 1020 989 1043 1083 1063 955 981 925 832 842 843 801 743 771 787 749 765 794 774 723 712 709 657 623 572 538 494 502 453 433 440 409 425 364 383 377 370 365 397 371 375 375 338 370 321 369 320 396 347 349 340 319 322 377 332 356 326 342 304 366 389 397 386 393 404 414 395 401 436 491 467 497 486 462 541 550 537 518 556 514 512 540 478 495 526 505 505 480 472 421 469 476 421 456 417 422 391 376 384 385 397 375 386 394 340 343 317 343 315 326 321 360 312 321 327 289 323 304 311 291 305 332 281 336 327 318 264 291 291 297 298 304 261 322 302 316 290 288 291 325 296 321 291 270 306 302 297 292 293 292 285 340 308 301 330 301 302 311 310 299 300 318 334 295 380 301 346 349 331 328 330 322 351 381 335 341 357 369 351 367 343 417 404 419 432 411 463 434 413 459 474 463 448 457 417 487 460 435 432 412 376 415 448 402 433 397 398 411 356 360 343 350 356 326 354 338 345 325 284 294 299 276 338 305 313 294 276 256 270 238 272 280 294 269 266 234 290 271 285 271 272 242 218 267 259 276 258 281 271 260 226 249 272 241 281 234 267 257 266 257 283 277 261 228 242 233 250 215 295 244 243 247 237 260 267 258 257 298 244 264 246 236 243 244 219 241 294 244 242 221 226 276 240 263 240 227 258 259 274 271 242 240 247 246 258 227 226 264 257 261 257 241 233 251 251 275 223 271 240 229 243 251 234 234 236 242 274 250 273 256 271 238 259 250 264 283 245 261 246 268 274 270 282 250 282 250 227 274 249 260 236 243 243 226 279 232 261 237 263 234 247 238 270 217 250 265 232 227 210 206 221 281 226 225 263 263 216 227 240 250 247 256 258 248 243 224 232 230 235 205 272 234 250 223 261 211 262 256 278 271 235 241 233 222 236 217 238 240 226 260 228 224 232 223 249 222 238 233 217 217 218 238 226 234 218 242 219 217 216 215 240 256 232 219 219 250 239 234 225 229 228 230 205 215 194 225 245 246 236 241 238 220 237 232 235 228 227 221 237 239 248 232 263 193 215 240 236 220 236 209 223 233 243 197 214 222 256 229 235 237 220 216 248 226 234 241 222 227 226 236 204 234 237 223 232 238 233 231 232 214 220 243 206 220 229 222 227 217 224 233 224 226 228 256 276 231 228 244 229 250 262 250 238 199 231 260 227 269 224 241 211 232 219 249 207 248 229 236 200 235 246 238 223 223 242 259 230 229 256 229 243 225 262 223 229 232 248 240 223 295 269 264 273 273 260 275 307 265 321 266 276 316 316 310 317 337 345 368 339 398 361 357 381 364 372 376 357 346 351 328 301 318 303 286 285 272 319 310 310 317 329 293 310 277 291 291 301 264 263 257 238 246 281 243 275 249 236 263 226 292 225 226 215 222 257 260 259 249 235 213 228 250 221 203 222 263 267 278 261 260 257 240 227 242 233 268 247 237 222 230 240 257 221 258 229 243 234 262 236 243 244 284 245 261 235 238 240 228 233 242 241 243 242 240 229 291 285 235 239 267 260 242 237 243 260 259 267 214 228 230 233 258 230 222 220 231 250 198 242 218 262 215 210 251 225 205 245 244 227 268 209 206 241 214 206 233 232 202 235 214 220 210 214 245 235 221 233 219 201 240 223 203 182 204 232 214 217 218 195 202 217 220 210 226 239 229 227 220 283 220 236 212 202 215 187 201 209 213 193 228 191 223 204 211 206 230 240 202 240 180 197 218 219 221 203 210 196 220 233 217 223 263 202 223 235 199 206 200 216 231 218 231 231 238 216 213 218 194 188 213 220 230 223 195 242 204 211 226 257 226 226 207 227 232 249 199 228 204 193 239 207 236 258 235 248 225 242 232 231 235 225 233 234 243 260 268 246 248 225 218 256 239 260 279 258 234 268 277 277 271 260 267 259 300 292 271 278 278 296 319 304 316 352 330 360 343 359 359 376 388 417 438 392 453 457 474 525 526 574 559 495 573 591 566 596 601 632 573 579 618 669 618 555 539 509 491 494 515 498 487 485 492 428 459 457 440 434 465 427 421 443 396 414 372 376 422 328 331 330 322 339 312 309 289 323 300 312 299 287 287 291 275 289 285 274 307 274 244 307 304 297 264 306 283 258 272 310 268 303 274 271 278 269 287 302 300 243 338 290 338 328 293 340 303 341 340 332 339 360 366 385 332 394 364 373 407 381 414 393 420 406 444 402 446 399 443 438 383 437 402 414 379 410 403 417 355 386 387 374 356 366 338 347 371 332 307 325 350 335 331 307 286 297 295 313 318 285 275 305 250 268 300 234 290 234 230 249 225 220 246 225 226 262 228 275 208 238 245 243 222 217 197 259 260 215 266 272 233 227 263 237 225 243 235 208 230 239 282 217 239 238 248 245 236 267 242 277 267 216 246 246 229 204 246 260 241 221 217 203 239 244 240 245 241 223 213 247 221 225 212 192 203 207 233 256 228 206 218 197 219 215 246 203 216 211 193 208 228 232 192 194 206 202 227 184 209 213 206 217 200 202 238 216 200 220 215 219 185 197 194 196 204 200 198 202 207 193 214 199 185 236 200 222 192 210 199 203 189 210 212 189 209 194 214 203 217 198 203 180 188 211 195 215 207 222 207 190 238 207 225 198 231 218 226 194 202 198 208 185 214 191 213 193 195 225 197 198 198 200 203 217 209 184 210 210 229 222 196 226 192 208 182 221 192 211 208 204 235 240 222 225 197 224 183 214 195 192 196 237 209 180 207 178 214 225 180 185 184 174 202 221 189 193 188 215 211 213 204 213 219 196 200 198 193 212 207 182 222 209 197 200 206 229 191 206 207 220 192 208 232 209 197 182 234 187 225 195 204 203 214 227 219 228 194 188 230 190 204 221 224 199 202 204 229 198 234 191 200 192 197 212 221 217 215 189 196 201 212 219 189 227 205 206 199 207 194 196 205 215 199 225 200 211 195 192 211 212 202 219 214 206 204 175 195 216 193 228 192 190 183 197 184 223 207 222 198 223 203 173 201 226 202 216 191 228 194 196 189 193 205 198 202 213 191 197 185 208 192 228 195 199 201 201 182 210 178 216 201 214 213 221 192 206 237 208 220 213 199 230 213 220 228 205 204 187 195 208 196 203 197 188 204 191 221 203 209 218 208 210 182 211 205 197 179 208 204 168 189 195 212 179 185 232 181 221 209 239 189 182 209 179 228 187 237 212 198 192 228 185 191 212 211 212 205 237 195 209 210 193 195 204 204 189 204 203 209 214 191 190 204 207 233 216 205 247 203 218 198 198 212 211 206 198 222 214 209 198 217 216 203 236 228 202 225 195 194 231 199 205 228 197 196 195 190 227 202 217 206 194 227 194 201 232 206 200 197 200 227 220 205 241 223 203 205 232 210 224 208 229 229 213 216 250 206 243 224 242 248 220 237 248 239 226 221 230 240 221 280 246 321 292 272 299 308 281 262 288 262 316 307 336 325 292 319 297 315 288 283 297 279 306 275 332 289 297 281 304 289 313 289 319 301 320 310 291 280 307 304 297 307 313 310 295 321 296 320 326 346 316 373 335 372 365 419 381 387 400 444 465 472 490 470 460 486 503 547 537 578 580 575 594 610 540 584 592 545 499 520 500 457 482 456 488 443 438 463 431 460 412 448 419 478 452 454 446 446 435 403 410 381 373 377 328 353 317 330 347 347 321 274 318 292 309 309 293 267 311 309 318 296 292 309 310 290 321 321 312 301 348 292 336 327 295 314 305 280 280 305 280 317 313 305 333 304 302 329 338 327 330 321 347 351 363 351 350 344 367 369 397 359 403 372 406 400 368 398 446 394 447 443 467 486 482 455 470 497 490 451 465 483 439 432 467 471 454 445 412 419 452 446 414 372 393 388 409 425 401 376 423 395 385 437 393 380 384 312 323 351 344 323 308 317 329 318 317 318 292 333 332 308 285 310 299 308 292 290 318 280 284 331 285 290 303 274 277 271 305 273 266 284 302 297 298 309 295 290 315 308 289 307 318 295 290 294 310 306 299 260 314 319 336 307 306 318 313 327 342 326 288 327 418 345 384 379 388 416 381 428 432 434 474 475 559 547 550 546 569 586 628 618 641 656 679 718 750 791 779 827 874 910 951 964 970 967 975 1013 946 1014 983 984 887 890 828 820 765 795 782 729 740 695 717 683 690 676 711 691 696 656 690 673 607 625 619 611 599 506 501 492 464 507 432 457 412 400 428 390 373 401 394 380 389 399 355 350 357 379 346 344 336 371 378 368 360 377 373 374 398 407 387 433 379 379 426 378 429 419 384 406 442 435 386 417 389 407 378 437 429 426 397 446 457 457 485 483 427 442 509 525 528 525 547 492 509 481 477 553 536 476 495 557 472 504 515 499 505 529 501 514 487 532 560 511 494 483 492 478 517 471 487 454 500 511 489 548 511 507 503 484 519 522 545 501 488 527 511 524 499 532 516 502 468 474 502 498 459 440 486 450 425 422 421 428 406 426 428 428 405 434 411 397 403 424 411 413 429 427 374 409 396 392 367 381 367 372 351 333 337 338 310 313 300 315 322 311 291 278 278 285 302 261 276 293 265 266 256 309 283 267 233 274 276 270 257 276 298 231 282 248 245 248 241 231 219 236 258 247 236 261 223 226 230 262 242 245 243 226 239 208 237 234 243 216 230 227 240 221 243 224 212 237 239 215 211 249 207 230 200 222 227 232 223 225 233 205 196 233 220 205 218 198 244 215 232 206 227 233 219 220 212 236 214 214 225 210 222 209 225 233 291 223 215 238 246 230 241 210 248 220 247 210 239 223 216 258 202 228 227 260 239 249 215 234 292 268 240 232 262 282 247 240 248 244 219 228 219 242 249 234 240 220 241 209 222 236 224 216 258 245 260 241 214 201 218 199 213 185 207 243 210 219 212 223 228 213 229 245 214 223 206 214 233 212 247 202 239 215 201 186 212 208 195 226 230 184 212 225 192 211 211 227 257 211 215 211 203 226 203 229 230 228 217 222 212 235 206 226 232 205 232 210 238 209 241 236 217 230 211 222 213 229 216 233 216 203 220 196 241 226 193 249 211 245 203 225 195 206 266 257 222 245 237 272 258 210 263 247 236 269 227 273 261 247 270 243 237 267 302 277 241 214 282 250 277 238 276 208 247 237 217 250 241 250 222 219 246 227 250 234 226 247 222 256 230 228 218 211 235 234 223 216 229 233 229 214 199 245 186 261 220 238 237 200 185 220 211 205 206 193 216 228 240 232 218 213 222 182 198 188 208 240 209 235 192 190 197 172 203 202 218 200 212 217 203 226 191 208 222 236 219 224 184 182 232 211 207 195 196 210 212 200 240 183 199 215 235 209 200 206 180 223 190 226 222 208 201 213 249 229 236 188 207 205 211 193 209 225 210 228 205 222 213 194 176 221 171 199 218 198 233 197 221 217 244 226 212 219 197 229 182 182 217 202 199 213 197 243 209 217 214 230 214 214 198 211 250 216 231 188 226 206 220 232 224 184 210 243 236 243 216 222 221 235 241 235 275 247 270 263 267 240 257 241 247 273 278 262 275 285 290 282 261 274 248 296 265 293 273 268 260 266 284 261 247 232 262 241 215 237 240 256 205 195 267 241 231 236 248 231 232 236 223 244 244 235 238 264 206 232 224 228 233 213 200 219 231 202 226 228 222 202 228 224 218 236 230 219 206 196 202 213 212 212 183 235 181 227 189 220 237 234 204 215 191 211 220 191 201 222 214 212 208 196 198 211 199 209 213 230 214 218 219 202 218 188 218 257 229 243 242 214 222 237 192 265 217 243 229 264 233 207 246 202 215 198 219 229 229 213 220 198 235 217 219 229 221 226 229 233 214 225 219 267 245 225 196 196 219 213 212 215 206 221 230 230 249 202 210 202 224 223 240 216 207 213 230 212 236 200 225 218 217 200 202 233 209 204 208 211 210 192 219 203 203 185 197 230 249 221 220 201 202 215 211 212 222 190 228 228 232 205 205 221 201 247 231 204 205 229 195 211 211 228 195 222 245 216 256 198 225 209 238 229 238 233 229 213 210 226 227 224 204 238 237 227 212 236 226 247 234 231 237 234 235 250 229 224 241 280 247 276 215 277 214 244 262 248 290 264 264 298 260 276 264 305 309 326 337 350 366 331 370 388 387 400 440 448 465 461 439 506 499 503 520 516 556 565 580 550 588 614 617 668 698 646 684 753 734 813 708 729 764 831 756 761 733 755 684 712 653 638 575 604 592 583 546 568 551 551 559 539 553 516 572 561 547 532 555 572 534 509 491 521 520 504 478 480 389 401 400 361 376 383 361 347 367 332 324 293 300 287 285 319 309 334 308 277 309 285 297 270 325 283 283 279 273 258 316 240 300 238 274 294 284 316 261 276 291 301 301 259 264 302 275 296 310 258 275 275 287 313 299 278 289 299 313 335 308 319 308 341 290 326 309 326 335 311 356 375 323 333 368 341 370 363 354 401 419 394 362 359 420 394 369 404 371 421 415 423 395 381 401 373 419 435 433 381 396 426 415 393 415 417 405 382 391 350 372 386 387 374 396 398 379 375 370 387 317 338 374 372 376 396 335 322 357 331 348 356 305 354 383 333 337 339 366 340 377 319 441 335 360 329 343 320 269 349 346 330 323 358 355 357 364 355 352 368 359 335 351 323 349 339 361 337 332 333 333 343 321 335 360 321 299 302 327 308 312 324 293 311 306 335 287 307 290 307 280 277 299 287 272 276 273 242 257 245 328 282 263 244 245 233 264 229 233 236 250 228 239 229 233 214 213 224 221 227 211 268 225 236 199 222 201 217 240 236 223 237 224 215 216 209 224 227 241 202 212 203 233 199 204 227 228 221 218 239 221 232 220 251 196 231 225 260 242 175 227 226 240 195 198 229 211 208 199 211 193 208 241 223 226 256 196 214 233 211 211 220 247 220 221 231 228 257 219 222 213 207 207 193 236 205 205 195 185 202 198 216 213 213 223 207 224 213 214 225 207 197 200 184 225 200 197 232 229 217 218 188 191 219 214 249 212 196 200 216 267 196 223 223 200 231 216 217 225 180 189 198 195 219 197 231 186 234 199 227 215 188 203 201 180 212 211 184 203 230 192 229 206 222 220 205 206 206 199 237 225 201 228 209 214 196 202 178 213 191 192 177 191 195 221 196 200 210 191 181 205 185 190 212 221 203 226 175 220 215 180 215 206 205 195 218 198 194 202 194 207 188 199 185 207 188 214 194 193 216 215 198 211 193 184 210 198 187 194 194 196 207 213 232 188 201 196 195 194 188 180 188 219 210 198 201 223 197 224 218 217 177 172 211 214 213 194 190 204 203 213 221 215 221 189 198 209 196 224 217 210 183 201 188 198 223 195 178 189 170 241 201 226 203 212 214 197 234 192 174 223 164 174 209 215 208 171 218 204 224 210 229 196 201 199 221 200 185 213 196 187 202 212 195 215 197 204 184 221 198 214 219 211 232 171 205 186 189 194 203 202 223 225 207 235 202 213 212 229 233 236 213 222 217 222 193 231 216 213 188 248 246 200 238 212 247 229 207 231 231 226 239 205 231 243 224 225 232 226 238 214 235 260 257 285 284 259 257 273 243 265 272 262 272 291 282 244 290 289 276 297 309 269 298 325 341 296 320 368 334 335 353 336 336 350</counts>
			</dataPoints>
		</scan>
	</xrdMeasurement>
</xrdMeasurements>
