<?xml version="1.0"?>
<xrdMeasurements xmlns="http://www.xrdml.com/XRDMeasurement/2.3" xmlns:xsi="http://www.w3.org/2001/XMLSchema-instance" xsi:schemaLocation="http://www.xrdml.com/XRDMeasurement/2.3 http://www.xrdml.com/XRDMeasurement/2.3/XRDMeasurement.xsd" status="Completed" recordIdentifier="{5DA4CDEA-4DB7-4939-AA30-62BDA3A92C3D}">
	<comment>
		<entry/>
	</comment>
	<sample type="To be analyzed">
		<id>GPSS_Li1p5Mn0p7V0p2Nb0p1Cl4_111425_69175e1347a6a0fd7c65934d</id>
		<name></name>
		<preparedBy></preparedBy>
	</sample>
	<xrdMeasurement measurementType="Scan" status="Completed" sampleMode="Reflection">
		<usedWavelength intended="K-Alpha 1">
			<kAlpha1 unit="Angstrom">1.5405980</kAlpha1>
			<kAlpha2 unit="Angstrom">1.5444260</kAlpha2>
			<kBeta unit="Angstrom">1.3922500</kBeta>
			<ratioKAlpha2KAlpha1>0.5000</ratioKAlpha2KAlpha1>
		</usedWavelength>
		<incidentBeamPath>
			<radius unit="mm">145.00</radius>
			<xRayTube id="1010048" name="Empyrean Cu LFF HR (9430 033 7310x)">
				<tension unit="kV">40.0</tension>
				<current unit="mA">15.0</current>
				<anodeMaterial>Cu</anodeMaterial>
				<focus type="Line">
					<length unit="mm">12.0</length>
					<width unit="mm">0.4</width>
					<takeOffAngle unit="deg">6.0</takeOffAngle>
				</focus>
			</xRayTube>
			<sollerSlit id="21010002" name="Soller slits 0.04 rad.">
				<opening unit="rad">0.0400</opening>
			</sollerSlit>
			<mask id="22031000" name="Fixed mask 13 mm">
				<width unit="mm">9.00</width>
			</mask>
			<divergenceSlit id="22120001" name="Divergence slit 1°" xsi:type="fixedDivergenceSlitType">
				<distanceToSample unit="mm">50.00</distanceToSample>
				<height unit="mm">1.52</height>
			</divergenceSlit>
		</incidentBeamPath>
		<sampleMovement xsi:type="spinningSampleMovementType">
			<spinnerRevolutionTime unit="seconds">1.0</spinnerRevolutionTime>
		</sampleMovement>
		<diffractedBeamPath>
			<radius unit="mm">145.00</radius>
			<antiScatterSlit id="22090040" name="AS slit 9 mm (PIXcel)" xsi:type="fixedAntiScatterSlitType">
				<height unit="mm">9.00</height>
			</antiScatterSlit>
			<sollerSlit id="21020003" name="Large Soller slits 0.04 rad.">
				<opening unit="rad">0.0400</opening>
			</sollerSlit>
			<filter id="20030001" name="Large beta-filter Nickel">
				<material>Ni</material>
				<thickness unit="mm">0.020</thickness>
			</filter>
			<detector id="7010019" name="PIXcel1D-Medipix3 detector" xsi:type="rtmsDetectorType">
				<phd unit="keV">
					<lowerLevel>4.02</lowerLevel>
					<upperLevel>11.27</upperLevel>
				</phd>
				<mode>Scanning</mode>
				<activeLength unit="deg">5.542</activeLength>
			</detector>
		</diffractedBeamPath>
		<scan appendNumber="0" mode="Continuous" scanAxis="Gonio" status="Completed">
			<header>
				<startTimeStamp>2025-11-17T13:23:16-08:00</startTimeStamp>
				<endTimeStamp>2025-11-17T13:31:23-08:00</endTimeStamp>
				<author>
					<name>AutomatedUser</name>
				</author>
				<source>
					<applicationSoftware version="1.7b (136)">PANalytical Aeris Instrument Suite</applicationSoftware>
					<instrumentControlSoftware version="3.2.00000000 20240306">AERIS</instrumentControlSoftware>
					<instrumentID>950485</instrumentID>
				</source>
			</header>
			<dataPoints>
				<positions axis="2Theta" unit="deg">
					<startPosition>10.00943322</startPosition>
					<endPosition>99.99442286</endPosition>
				</positions>
				<positions axis="Omega" unit="deg">
					<startPosition>5.00471661</startPosition>
					<endPosition>49.99721143</endPosition>
				</positions>
				<commonCountingTime unit="seconds">12.495</commonCountingTime>
				<counts unit="counts">2760 2894 2815 2793 2746 2844 2750 2842 2871 2754 2687 2736 2748 2774 2766 2836 2882 2757 2794 2889 2694 2768 2746 2741 2803 2697 2739 2704 2694 2699 2743 2839 2816 2795 2755 2786 2817 2794 2857 2779 2877 2881 2885 2767 2771 2753 2903 2915 2858 2849 2907 2764 2868 2771 2827 2848 2774 2880 2764 2795 2844 2807 2848 2874 2904 2859 2860 2748 2908 2958 2842 2940 2788 2913 2905 2855 2917 2885 2890 2782 2999 2932 2938 2984 2895 2943 2950 2969 2975 2958 3083 2948 3042 2939 2935 3033 2890 3097 3071 2997 2899 3018 3056 2969 2964 2972 3073 3010 3036 2965 2990 3096 3003 3016 3030 2979 2962 2987 2982 2875 2983 2969 2977 3094 2930 2999 2898 3007 2941 2987 2931 2917 2947 2924 2902 2856 2968 2929 2884 2972 2885 2923 2830 2995 2906 2871 2966 2945 2949 2865 2956 2892 2924 2892 2853 2893 2896 2753 2915 2810 3020 2908 2884 2914 2914 2891 2881 2974 2935 2983 2832 3013 2877 3008 2940 2947 2907 2901 2992 2875 3014 2913 2808 2921 2892 2951 2861 2989 2904 2809 2885 2867 2806 2874 2999 2861 2903 2926 2969 2929 2957 2914 2865 2860 2911 2843 2865 2835 2853 2939 2862 2928 2975 2916 2887 2893 2898 2861 2816 2873 2894 2926 2872 2755 2831 2828 2857 2787 2852 2858 2853 2901 2876 2779 2826 2837 2876 2858 2887 2813 2906 2916 2927 2819 2929 2814 2832 2831 2846 2908 2803 2784 2842 2847 2809 2774 2842 2898 2869 2819 2867 2836 2870 2907 2862 2794 2839 2807 2820 2881 2894 2866 2746 2862 2942 2782 2868 2788 2808 2769 2843 2899 2921 2907 2827 2875 2844 2847 2936 2822 2856 2831 2912 2784 2897 2843 2816 2863 2854 2884 2855 2903 2896 2933 2861 2827 2845 2839 2881 2949 2802 2972 3017 2913 2935 2964 2922 2926 2963 2976 2872 3017 3006 3115 2973 2979 2935 3065 3004 2961 2973 2960 2893 2909 3034 2889 3030 3118 2975 3007 3017 2961 3024 3081 2987 3013 2986 2881 2977 3113 2963 3098 3001 2987 3009 3155 3104 3072 3131 3079 2958 3173 3059 3140 3096 3092 3104 3124 3004 3252 3232 3098 3206 3139 3166 3296 3219 3215 3193 3144 3230 3164 3138 3225 3290 3274 3217 3198 3241 3335 3276 3275 3311 3306 3279 3215 3189 3339 3384 3387 3334 3301 3321 3336 3471 3419 3273 3438 3403 3494 3568 3435 3515 3527 3575 3645 3681 3654 3612 3627 3747 3568 3642 3730 3794 3745 3821 3790 3843 3851 3844 4042 3926 3985 3991 4010 4151 3998 4081 4192 4178 4150 4177 4030 4226 4162 4233 4281 4333 4242 4325 4398 4296 4284 4350 4312 4231 4174 4318 4196 4120 3951 3940 3919 3942 3925 3941 3737 3735 3636 3678 3615 3769 3686 3740 3613 3608 3618 3593 3615 3552 3526 3569 3604 3486 3541 3632 3614 3586 3545 3681 3615 3422 3429 3574 3512 3460 3479 3496 3399 3440 3336 3462 3445 3379 3360 3403 3202 3322 3334 3234 3178 3213 3284 3276 3226 3147 3130 3283 3158 3136 3115 3085 3115 3129 3008 3134 3075 2936 3106 3036 3090 3149 3074 3049 3031 3025 3116 3111 3034 3106 3100 3083 3034 3075 3182 3066 3002 3039 2995 3044 2958 2994 3037 2968 2973 3044 3039 3043 2911 2972 2965 3043 2981 3022 2924 3019 2948 2927 2972 2970 3005 2946 3091 2957 2828 3009 2957 2801 2838 2962 2820 2920 2905 2890 2939 2873 2851 2843 2892 2851 2964 2874 2949 2879 2878 3006 2923 2978 2916 2938 2830 2843 2871 2912 2850 2830 2834 2835 2787 2786 2765 2811 2818 2766 2753 2789 2792 2828 2741 2737 2774 2758 2756 2847 2786 2856 2779 2801 2788 2790 2784 2858 2943 2762 2820 2846 2784 2688 2751 2720 2798 2749 2832 2693 2819 2675 2758 2816 2884 2854 2845 2825 2908 2790 2750 2851 2739 2825 2733 2713 2867 2785 2845 2861 2708 2705 2736 2709 2694 2814 2807 2774 2689 2745 2755 2754 2758 2792 2626 2795 2807 2724 2837 2750 2824 2746 2719 2765 2666 2716 2674 2667 2662 2744 2800 2775 2784 2663 2810 2673 2629 2767 2695 2727 2682 2633 2714 2726 2754 2691 2679 2756 2767 2773 2657 2678 2746 2688 2704 2610 2674 2688 2740 2647 2647 2776 2676 2669 2704 2688 2721 2609 2667 2747 2743 2753 2739 2670 2594 2682 2753 2680 2748 2617 2716 2730 2694 2601 2721 2681 2812 2683 2679 2578 2595 2679 2640 2753 2635 2773 2601 2738 2640 2657 2714 2661 2626 2628 2631 2547 2546 2651 2534 2639 2620 2547 2630 2651 2599 2663 2574 2602 2635 2643 2719 2701 2660 2765 2654 2647 2668 2608 2628 2723 2598 2678 2649 2552 2662 2610 2641 2620 2593 2610 2666 2555 2549 2625 2537 2562 2536 2578 2587 2623 2626 2531 2652 2553 2586 2598 2635 2567 2635 2535 2499 2539 2631 2592 2551 2558 2611 2505 2580 2588 2548 2559 2488 2572 2497 2517 2607 2540 2521 2484 2546 2566 2554 2529 2505 2533 2591 2653 2579 2548 2512 2562 2509 2632 2479 2477 2524 2447 2530 2505 2589 2559 2476 2530 2554 2547 2495 2539 2466 2545 2477 2524 2633 2541 2523 2510 2546 2447 2423 2434 2517 2475 2522 2530 2485 2429 2472 2487 2410 2505 2530 2472 2441 2452 2525 2461 2413 2524 2489 2562 2445 2523 2445 2439 2462 2522 2458 2385 2409 2489 2475 2412 2451 2421 2480 2475 2384 2423 2423 2398 2459 2403 2526 2453 2472 2434 2491 2441 2286 2391 2373 2383 2480 2472 2413 2494 2466 2402 2363 2388 2444 2407 2361 2462 2378 2427 2404 2466 2302 2357 2331 2409 2400 2420 2375 2424 2371 2417 2390 2422 2406 2341 2353 2425 2426 2365 2427 2352 2378 2352 2288 2333 2361 2444 2351 2415 2317 2367 2378 2299 2406 2371 2297 2385 2408 2343 2437 2346 2420 2369 2400 2300 2324 2321 2397 2360 2346 2409 2334 2338 2494 2392 2377 2346 2348 2434 2367 2367 2320 2376 2354 2438 2321 2434 2497 2338 2379 2383 2379 2355 2411 2328 2449 2343 2388 2328 2368 2384 2341 2364 2346 2383 2437 2365 2378 2362 2325 2330 2287 2417 2396 2375 2386 2339 2355 2323 2352 2326 2363 2411 2303 2389 2358 2350 2391 2447 2334 2344 2482 2389 2387 2423 2462 2397 2445 2411 2395 2375 2334 2390 2399 2449 2322 2307 2392 2350 2254 2397 2293 2419 2414 2446 2369 2422 2348 2427 2345 2313 2411 2431 2424 2404 2434 2221 2381 2340 2368 2316 2345 2335 2389 2366 2368 2314 2252 2353 2344 2281 2345 2263 2425 2311 2387 2336 2318 2322 2322 2284 2384 2252 2345 2312 2275 2347 2239 2306 2241 2233 2285 2255 2313 2213 2345 2244 2173 2369 2238 2303 2317 2344 2276 2222 2265 2299 2276 2217 2250 2258 2283 2108 2259 2164 2228 2310 2236 2168 2223 2214 2248 2267 2193 2194 2174 2185 2197 2137 2179 2165 2084 2158 2129 2177 2083 2152 2214 2132 2171 2097 2120 2143 2077 2189 2067 2031 2216 2193 2084 2074 2137 2065 2007 1997 2094 2058 1999 2016 2121 2065 2011 2101 2001 1938 2012 2087 2011 2095 2114 1969 2053 2005 2001 2062 1931 2032 1976 1959 2042 1982 1941 1965 1939 2035 1968 2032 1938 1882 2029 1884 1922 1933 2013 2001 1928 2025 1864 1962 1950 1865 1996 1864 1861 1922 1912 1886 1877 1856 1911 1823 1879 1906 1880 1896 1860 1847 1891 1822 1777 1902 1818 1854 1855 1793 1862 1862 1877 1877 1896 1784 1820 1786 1790 1850 1861 1814 1764 1885 1899 1827 1856 1856 1702 1805 1759 1834 1828 1799 1767 1802 1811 1803 1812 1707 1733 1781 1725 1798 1765 1761 1842 1820 1747 1800 1785 1739 1777 1805 1760 1696 1811 1806 1806 1732 1791 1777 1781 1772 1763 1757 1749 1779 1806 1792 1706 1793 1773 1694 1716 1711 1740 1737 1761 1808 1740 1780 1758 1673 1808 1602 1822 1736 1833 1658 1696 1697 1772 1682 1722 1752 1691 1746 1754 1703 1703 1717 1699 1705 1723 1711 1682 1742 1762 1739 1643 1712 1739 1640 1756 1659 1721 1766 1735 1767 1670 1707 1684 1721 1684 1715 1739 1742 1703 1652 1684 1657 1690 1703 1693 1642 1724 1796 1747 1702 1678 1698 1664 1799 1719 1772 1694 1704 1643 1653 1741 1714 1744 1607 1690 1731 1704 1712 1666 1733 1747 1719 1654 1725 1684 1684 1668 1769 1755 1681 1753 1733 1715 1594 1663 1642 1777 1728 1733 1722 1703 1665 1709 1713 1739 1802 1690 1722 1668 1715 1723 1676 1739 1725 1746 1732 1779 1769 1722 1739 1700 1646 1733 1755 1718 1713 1733 1740 1732 1704 1757 1739 1718 1649 1708 1683 1691 1645 1724 1717 1744 1780 1678 1695 1702 1715 1679 1668 1713 1696 1763 1638 1718 1691 1730 1654 1697 1664 1672 1779 1624 1728 1763 1626 1732 1664 1670 1700 1747 1639 1683 1732 1690 1776 1742 1694 1665 1622 1650 1660 1642 1596 1669 1656 1669 1648 1575 1597 1620 1620 1646 1611 1695 1668 1671 1619 1621 1608 1657 1654 1650 1593 1622 1664 1604 1597 1648 1580 1672 1682 1589 1617 1631 1585 1602 1552 1531 1611 1661 1586 1596 1555 1627 1542 1605 1610 1523 1590 1603 1572 1555 1523 1532 1527 1564 1545 1472 1660 1534 1483 1598 1528 1582 1520 1594 1519 1542 1507 1518 1558 1571 1430 1540 1537 1540 1510 1489 1460 1541 1516 1518 1559 1532 1465 1502 1395 1502 1430 1457 1507 1524 1468 1504 1461 1485 1511 1546 1501 1444 1421 1453 1477 1488 1409 1521 1413 1491 1510 1399 1442 1418 1535 1436 1435 1392 1386 1398 1454 1484 1362 1434 1478 1369 1441 1435 1397 1394 1459 1436 1405 1387 1448 1521 1448 1420 1388 1379 1485 1396 1461 1456 1425 1428 1408 1512 1505 1516 1564 1449 1560 1504 1527 1536 1536 1641 1613 1627 1538 1702 1677 1693 1675 1731 1722 1777 1733 1720 1842 1846 1809 1749 1796 1845 1838 1831 1809 1842 1961 1862 1893 1813 1828 1923 1862 1861 1842 1886 1906 1831 1835 1856 1889 1817 1750 1748 1724 1654 1560 1586 1536 1541 1559 1484 1471 1376 1369 1428 1406 1347 1327 1297 1318 1300 1350 1302 1320 1320 1273 1300 1366 1325 1354 1274 1289 1375 1274 1324 1287 1302 1238 1273 1234 1263 1255 1256 1278 1249 1293 1271 1314 1231 1269 1266 1256 1280 1295 1301 1244 1274 1297 1286 1292 1288 1271 1304 1292 1285 1270 1282 1326 1346 1332 1360 1384 1446 1450 1464 1479 1487 1525 1593 1564 1638 1639 1705 1700 1787 1743 1769 1801 1745 1796 1814 1826 1873 1945 1921 1959 1984 2055 2091 2046 2051 2094 2083 2112 2162 2069 2084 2146 2092 2174 2196 2111 2167 2244 2223 2187 2162 2208 2150 1976 2051 1996 1972 1915 1898 1730 1679 1678 1600 1549 1546 1476 1491 1454 1381 1397 1491 1418 1413 1410 1327 1346 1334 1387 1379 1357 1403 1355 1415 1304 1392 1434 1324 1402 1302 1258 1263 1246 1273 1243 1280 1247 1136 1221 1244 1258 1187 1197 1136 1134 1138 1178 1223 1140 1111 1137 1145 1144 1128 1098 1096 1077 1162 1128 1116 1156 1068 1054 1085 1071 1048 1091 1076 1056 1180 1086 1073 1027 1120 1013 1086 1074 1118 1039 1067 1025 1054 1123 1028 1129 1033 1045 1057 1022 1052 1064 1131 1078 1026 1025 1079 1073 1051 1051 1018 1071 1089 1042 1066 1105 1018 1050 1066 1027 1010 1009 1054 1035 1055 1031 1073 981 1083 1019 1115 1029 1020 997 1052 1060 967 969 1013 991 1001 1018 1033 1006 1042 1003 1054 1018 1038 958 983 961 983 1025 1038 1076 1003 1016 1029 1094 976 1048 1009 1016 1042 1038 1002 981 1021 1045 1059 1032 1043 1023 1002 920 1016 965 975 1053 977 1056 1045 1003 991 1006 975 1041 994 1061 1060 1038 1053 985 984 987 1005 993 1029 1010 983 979 1005 1032 975 1008 973 1059 1011 988 1054 999 1064 953 994 1035 979 1037 1046 980 1075 1048 1048 1039 1023 1048 1125 1001 1108 1005 990 1087 1028 1131 1076 1054 1034 1039 1028 1036 1039 1153 1086 1124 1075 1087 1102 1095 1110 1060 1088 1132 1074 1017 1015 1052 1015 1043 1007 1031 1079 1081 1031 1043 966 1058 1062 1071 1013 1105 1016 1082 1038 1032 1047 1065 990 1000 1013 1002 1048 1049 982 961 983 998 1027 1045 1010 1022 972 935 1050 952 995 1042 983 927 1058 1018 990 1008 1052 969 952 950 995 970 1010 948 1019 986 964 961 1019 1013 976 962 995 973 928 1013 964 962 1054 1089 1023 985 970 1013 1012 1060 971 1027 1001 986 1016 960 1034 1038 1001 1068 1046 911 1055 1012 1045 1033 1051 1013 1056 1052 1008 987 1060 1024 1016 1029 1083 999 1078 1036 1009 1044 1020 1025 1012 1020 1011 1056 1082 1030 1124 1007 1090 1120 1136 1113 1158 1113 1157 1210 1256 1252 1307 1378 1448 1497 1523 1611 1723 1791 1892 2024 1992 2120 2173 2283 2380 2331 2385 2398 2566 2571 2735 2833 2839 2967 2983 3022 3014 3297 3305 3404 3402 3510 3604 3669 3932 3771 3896 3934 4000 3963 4148 3971 4147 4025 4235 4246 4262 4084 4238 4249 4150 4137 3937 3903 3668 3603 3410 3177 3016 2976 2737 2570 2491 2431 2251 2130 2095 2006 1914 1964 1826 1797 1717 1772 1750 1764 1775 1619 1714 1693 1625 1663 1635 1672 1615 1613 1533 1533 1515 1444 1515 1496 1326 1397 1316 1372 1410 1309 1286 1245 1211 1207 1271 1261 1294 1175 1276 1213 1149 1153 1181 1120 1179 1182 1111 1134 1131 1145 1080 1019 1044 1034 1045 1013 1000 980 978 1004 960 934 1007 990 969 938 969 981 971 908 950 922 996 924 977 895 938 913 916 932 887 950 922 897 949 912 918 914 932 943 920 930 923 943 942 841 910 843 977 886 934 891 885 959 899 946 916 909 857 870 878 890 871 821 878 884 894 862 889 870 893 855 881 951 932 896 893 933 854 892 886 887 851 841 904 910 855 862 870 859 842 853 893 858 871 863 871 871 897 932 864 822 879 807 907 801 872 858 906 879 861 810 880 811 876 884 873 928 826 881 873 853 835 807 855 810 881 842 863 862 834 851 878 851 849 870 910 841 875 875 843 836 867 846 872 908 921 932 852 879 835 849 811 839 839 802 853 865 856 855 858 803 859 844 867 879 793 802 859 785 816 830 841 832 850 879 818 846 863 863 832 849 821 792 824 790 850 791 936 795 798 847 875 831 857 836 859 847 866 829 805 866 868 827 860 835 853 872 863 874 826 819 914 846 901 880 871 829 823 873 863 875 832 880 924 835 843 842 822 883 851 871 851 821 846 826 793 853 802 841 830 836 805 803 833 784 853 854 773 866 866 816 899 899 821 753 815 779 820 828 825 833 831 829 784 791 780 844 866 791 865 796 857 842 786 837 800 860 807 810 903 777 799 814 790 781 812 791 751 852 790 832 731 792 805 802 767 819 748 746 760 775 681 792 713 784 728 761 745 746 777 788 755 742 759 741 773 742 762 732 782 777 753 805 739 812 815 760 770 769 805 806 714 745 814 787 793 824 852 834 781 769 793 798 756 814 777 806 760 734 761 799 712 751 786 841 785 792 811 771 768 753 773 760 751 764 787 729 780 811 749 759 731 771 761 814 758 723 770 749 728 789 777 756 767 750 777 753 776 751 748 766 768 777 748 755 740 786 742 726 787 705 772 767 805 738 719 749 721 796 736 747 733 740 731 732 777 728 740 725 760 722 787 691 755 775 733 763 730 745 829 748 738 747 714 781 755 790 762 729 730 769 705 733 766 799 755 780 714 730 741 712 763 748 763 744 762 694 759 712 761 708 759 758 771 797 759 694 784 733 736 730 715 720 780 734 734 780 720 698 703 723 735 745 699 704 717 744 728 719 756 708 720 794 730 789 748 711 738 740 770 774 758 715 707 702 716 766 710 716 752 730 733 745 751 778 738 698 738 688 706 749 729 754 728 720 743 698 774 747 732 761 744 718 780 738 791 756 775 699 758 722 756 711 726 708 743 757 725 716 741 708 729 701 783 746 727 751 774 795 719 734 743 714 718 762 717 759 705 760 712 715 718 722 724 767 736 724 711 723 699 700 746 690 756 752 707 720 729 685 733 754 738 684 745 708 719 747 751 718 729 714 754 697 760 731 693 681 739 738 736 689 726 705 733 719 707 726 699 727 747 696 692 704 697 743 742 714 726 737 722 736 690 742 695 745 709 696 722 679 740 707 705 743 699 722 728 716 729 711 654 731 722 765 748 752 738 698 712 769 692 666 697 711 712 712 743 729 713 734 763 713 714 703 683 716 755 668 706 657 644 685 717 702 692 727 728 707 753 709 734 708 696 704 746 712 707 733 658 708 674 700 724 722 717 720 750 731 722 813 748 771 739 707 733 726 704 689 669 732 716 714 717 690 729 732 708 711 707 685 750 733 770 696 713 716 669 718 693 704 691 678 667 700 747 723 747 711 682 683 723 652 714 684 673 707 745 708 757 710 693 707 673 725 724 688 764 698 695 773 707 737 686 676 710 725 664 728 723 708 745 692 728 693 745 710 700 669 747 714 692 734 725 696 700 678 668 701 714 681 724 727 703 693 673 725 739 710 685 718 765 706 688 667 740 724 730 747 729 731 756 720 735 727 693 710 727 719 738 746 682 710 723 737 668 709 669 717 694 710 731 701 716 726 721 718 633 712 727 682 705 711 728 721 751 708 688 732 694 668 702 703 643 744 704 719 744 749 775 765 712 788 765 813 720 749 777 809 787 806 813 846 814 831 865 837 912 865 893 858 911 926 921 953 906 941 973 932 969 995 997 951 958 975 957 935 978 950 1035 925 942 1037 984 975 1007 980 929 998 962 1006 915 899 999 928 890 815 893 850 858 801 832 826 772 769 795 738 787 763 769 738 769 747 694 720 724 754 749 745 724 709 678 708 704 730 693 690 688 723 740 705 705 669 707 745 684 723 727 713 686 677 701 709 716 717 742 697 736 716 722 689 699 752 775 737 679 729 717 747 712 716 737 713 678 739 703 710 694 719 708 698 766 714 747 680 710 691 694 733 719 757 691 690 665 713 708 681 687 746 761 730 653 685 649 714 689 702 669 646 653 657 678 679 661 651 684 664 672 638 652 659 682 669 641 678 669 665 697 666 676 627 665 652 681 673 695 690 691 673 679 630 697 683 687 716 668 701 666 681 680 659 679 661 705 698 642 637 657 695 667 669 657 679 640 669 646 673 703 685 637 620 708 698 658 678 651 675 692 630 665 658 665 663 657 675 660 718 690 632 713 678 668 658 693 711 716 684 667 693 668 673 686 680 686 712 687 662 656 721 670 634 673 694 690 687 658 681 696 681 710 714 668 678 639 658 695 675 656 697 720 764 736 681 738 655 686 622 702 652 688 625 663 703 689 636 674 707 662 689 679 701 665 682 728 705 630 679 648 646 687 697 701 643 686 696 649 672 667 686 691 711 651 692 655 630 633 674 640 678 698 686 734 672 667 662 676 662 574 677 675 675 691 685 698 696 668 706 696 676 684 690 711 615 703 643 688 702 672 717 685 669 713 698 739 649 650 667 729 718 710 659 752 717 690 701 712 698 712 731 721 809 757 742 759 804 761 841 874 873 881 855 890 938 959 946 983 1087 1095 1127 1124 1214 1266 1377 1363 1456 1519 1459 1655 1570 1658 1639 1704 1668 1768 1855 1901 1903 2091 2047 2071 2149 2225 2203 2194 2137 2133 2278 2248 2305 2175 2247 2164 2139 2195 2170 2168 2123 2200 2179 2127 2012 2009 1963 1808 1822 1698 1746 1563 1515 1561 1439 1400 1294 1240 1259 1216 1109 1149 1079 958 999 940 903 857 844 788 842 791 763 805 788 766 818 796 789 749 722 742 774 788 767 794 792 764 782 808 765 779 773 813 803 841 825 839 839 795 846 876 815 821 778 856 857 877 853 833 837 861 815 875 750 851 881 888 812 820 826 775 820 804 802 821 780 810 783 819 790 743 779 752 790 732 756 796 748 786 792 711 724 750 726 725 728 756 726 740 685 680 665 712 675 691 676 692 711 711 701 696 695 681 706 651 624 662 657 660 651 640 637 676 649 680 639 688 656 674 680 627 649 664 624 610 671 673 646 656 645 661 661 644 657 664 630 628 631 626 584 660 657 696 638 663 689 650 649 644 601 603 648 630 632 680 629 691 647 602 649 679 702 675 712 695 729 772 739 696 706 735 740 713 746 720 747 768 747 727 767 731 824 805 729 768 820 786 822 807 845 814 851 794 847 809 819 804 787 863 822 850 851 804 829 830 792 825 790 805 814 737 772 776 782 744 701 772 730 714 759 746 682 729 673 676 645 715 614 654 678 644 675 620 630 637 624 677 639 632 653 626 644 631 619 618 596 608 613 624 655 637 596 619 606 611 582 631 571 609 636 666 640 631 591 645 627 657 626 616 633 621 601 618 602 623 641 623 617 614 606 597 617 601 649 595 632 597 579 605 629 637 586 609 590 602 596 560 574 565 681 584 645 624 603 579 576 575 583 582 628 543 622 637 599 599 588 567 565 642 569 592 608 614 577 583 653 612 645 597 590 606 553 639 624 590 572 602 601 619 595 627 592 582 619 624 624 570 614 586 612 581 597 584 606 582 620 573 615 578 636 611 594 615 626 587 611 579 653 548 622 565 620 591 621 615 595 610 571 609 592 582 574 582 589 555 583 571 537 587 578 590 606 575 626 583 582 614 582 571 564 587 585 585 590 548 625 543 591 594 589 604 618 566 578 588 604 599 610 602 563 540 569 600 597 566 632 626 613 554 586 555 569 557 641 624 606 589 586 666 570 607 568 572 543 634 566 582 600 608 559 547 553 599 582 559 557 611 613 562 585 594 568 560 595 572 597 565 557 645 598 603 567 568 571 544 574 605 581 570 590 552 615 590 563 603 597 565 592 590 601 574 560 588 537 603 556 580 580 553 552 602 612 551 563 613 537 555 520 552 553 647 571 573 579 576 587 569 609 548 612 548 581 614 580 543 573 546 588 551 508 574 599 577 578 564 527 559 550 572 554 614 566 571 533 570 573 543 616 560 554 608 604 621 629 580 569 560 583 559 552 566 530 572 584 602 609 569 522 537 539 574 588 600 603 604 563 543 601 584 603 576 565 592 580 563 590 567 581 584 548 598 590 576 589 555 604 567 579 562 548 566 576 562 567 575 548 532 552 561 546 560 564 549 562 573 575 560 579 549 555 565 579 543 575 612 566 585 565 609 606 561 556 597 570 531 563 531 565 534 554 552 524 548 596 532 546 527 565 561 563 562 567 543 598 568 547 591 553 532 601 534 611 563 582 588 568 595 561 560 563 523 516 551 613 541 558 542 526 545 527 561 565 550 502 553 582 554 542 537 581 554 551 531 568 551 569 504 576 535 568 506 567 557 568 553 570 496 565 571 558 561 575 571 594 601 609 581 593 583 588 526 523 594 552 560 591 608 538 584 609 603 603 572 564 566 547 613 598 571 631 557 596 600 586 552 605 599 623 605 627 616 596 644 587 592 616 571 600 581 583 588 571 617 593 637 588 617 604 621 578 619 587 590 584 567 602 549 588 549 561 605 595 574 566 638 584 560 603 631 597 623 616 638 608 636 582 622 652 660 616 671 676 620 699 717 682 659 708 703 706 674 713 711 709 728 736 715 685 715 727 709 783 708 737 682 691 694 702 745 692 702 717 753 703 715 696 702 666 686 650 659 681 644 621 673 655 653 630 595 574 624 609 622 617 594 594 609 601 561 547 612 606 571 547 544 545 524 583 521 534 558 546 563 566 597 569 576 556 565 577 586 576 561 585 560 548 574 596 612 579 559 569 620 630 595 597 576 592 577 580 597 606 569 645 570 602 605 619 601 600 600 587 586 601 585 615 601 570 584 574 629 578 626 613 584 574 580 575 588 581 575 623 629 566 630 541 603 554 571 609 602 558 604 554 529 542 546 562 526 557 532 525 553 578 536 561 585 595 530 544 566 521 504 532 559 537 506 557 564 568 598 596 499 611 573 532 552 583 515 504 576 506 561 522 563 513 548 573 535 520 555 556 555 556 559 523 510 553 549 569 581 545 536 536 538 564 550 516 530 561 535 505 569 561 516 586 539 546 542 562 546 543 528 539 526 532 543 550 595 568 523 569 565 590 586 551 526 581 550 605 571 594 512 607 556 559 552 568 581 625 612 624 665 653 652 666 679 690 670 712 691 737 704 739 744 795 725 819 857 776 819 793 860 849 843 856 779 882 870 867 876 947 885 898 871 921 857 857 905 897 901 893 909 929 865 858 857 835 839 871 830 803 839 764 790 729 787 723 745 717 695 702 706 706 692 632 658 623 650 656 629 602 549 633 609 626 585 584 588 579 559 545 562 582 536 584 564 572 562 543 629 593 552 562 552 557 585 563 551 562 544 565 538 552 540 548 554 472 574 530 551 559 558 558 573 550 569 530 534 568 580 514 548 572 589 544 555 557 601 555 579 607 544 544 559 571 569 586 545 564 557 537 567 579 522 541 543 544 568 538 565 568 556 547 527 521 593 572 568 543 525 522 543 530 517 512 548 544 516 528 552 532 500 566 511 488 526 559 504 540 545 562 525 532 548 526 524 498 520 526 497 524 539 565 534 539 557 569 528 575 568 574 545 587 530 540 567 597 593 636 584 587 577 586 595 571 591 637 583 677 590 630 594 571 642 607 587 640 636 629 641 614 617 592 568 646 612 614 618 628 651 621 654 585 613 583 569 563 560 531 590 591 575 605 576 535 551 572 530 535 532 533 547 584 523 548 523 562 546 488 543 565 549 545 529 595 513 505 520 530 500 531 549 533 470 528 505 546 498 544 535 483 525 466 520 525 521 522 516 517 512 574 490 503 522 507 573 528 508 504 549 541 508 521 525 530 522 532 524 535 520 493 527 531 538 504 497 487 486 510 522 465 540 503 534 501 538 536 492 526 542 470 508 540 521 505 497 522 490 499 517 550 537 567 542 571 531 473 503 502 511 526 506 501 507 520 531 485 521 492 501 477 529 464 534 525 524 481 558 529 530 520 537 505 561 500 518 519 467 472 498 540 557 484 542 519 513 518 496 525 474 488 511 497 465 520 543 505 479 501 521 498 483 537 545 504 513 504 524 500 512 478 513 507 518 479 477 481 479 497 503 549 514 493 502 488 523 483 518 459 501 511 479 505 482 496 508 537 515 530 529 471 467 495 548 502 516 528 461 506 527 538 504 477 511 495 462 494 461 523 503 526 501 488 517 506 472 474 511 477 501 491 506 491 492 486 473 518 492 505 502 504 499 488 522 542 500 557 499 485 517 490 454 502 516 503 520 522 481 515 508 506 475 494 494 565 512 489 505 538 540 486 516 490 505 489 499 526 516 469 455 518 541 498 512 549 500 504 491 488 497 469 501 528 476 491 487 496 461 491 488 443 505 472 511 489 508 528 461 525 492 483 473 502 508 463 499 457 496 466 468 491 507 491 471 495 497 486 508 469 486 524 522 539 506 519 526 535 500 510 491 521 514 475 509 486 488 454 492 489 503 504 491 445 501 486 476 496 462 483 494 439 495 507 481 511 489 507 542 493 503 510 447 491 490 489 493 472 479 505 518 496 505 509 476 479 484 483 481 475 515 497 480 458 479 504 488 504 538 487 501 494 526 480 519 484 474 495 490 489 509 518 512 513 491 486 514 524 500 465 480 498 470 479 486 507 516 520 481 477 486 474 504 488 468 524 509 494 527 554 493 482 469 537 517 497 502 500 499 482 515 523 554 489 538 542 541 526 544 541 529 542 528 543 573 576 542 549 536 537 563 529 515 517 548 558 541 560 550 555 541 532 553 581 532 509 547 542 538 551 543 487 546 543 492 547 550 495 546 519 529 522 502 533 508 503 539 503 468 520 516 528 493 500 481 527 497 487 489 502 460 485 524 504 511 515 478 526 505 497 493 508 522 506 506 462 495 509 492 522 531 468 515 495 503 496 473 522 503 441 477 485 529 516 516 492 496 471 474 502 519 430 505 496 455 484 524 531 515 474 467 516 519 499 491 473 487 493 494 514 513 493 487 495 474 485 463 458 471 465 476 491 509 456 495 510 481 528 488 534 474 483 517 516 498 475 521 443 539 456 501 488 457 476 499 509 471 495 490 482 533 484 449 481 527 488 469 511 490 558 511 475 482 475 477 484 502 481 525 490 485 503 492 491 482 483 474 498 454 507 451 500 485 475 455 460 528 448 498 488 459 493 496 478 498 507 491 455 491 463 494 496 535 447 462 521 493 508 445 525 507 465 489 483 508 520 458 479 486 493 491 510 472 489 434 484 510 507 473 451 497 478 514 477 513 473 473 473 443 472 476 451 492 480 490 514 482 450 490 490 535 489 523 513 540 458 476 467 523 497 469 505 477 513 516 490 514 501 501 521 460 499 524 546 525 554 514 535 543 535 523 556 545 563 575 584 543 542 574 575 555 553 544 563 578 570 549 625 563 579 602 610 634 631 640 603 607 611 618 604 595 617 683 654 628 663 614 656 622 601 638 653 593 614 631 592 587 576 634 605 543 520 544 589 585 556 570 535 519 572 540 524 540 535 551 526 536 552 524 520 543 495 522 502 452 493 522 518 513 511 540 487 536 529 519 500 513 530 495 521 523 513 509 539 520 531 498 471 494 483 512 511 533 515 570 557 503 548 465 527 484 507 524 510 490 517 498 530 474 513 505 477 502 504 483 512 540 510 502 604 490 490 479 480 524 490 509 498 465 561 528 515 502 486 523 491 504 498 462 485 487 534 476 516 500 477 468 465 491 516 537 463 532 494 499 510 503 481 484 483 485 468 510 510 483 455 505 475 499 493 506 513 502 501 478 511 496 506 486 492 494 507 507 496 477 495 468 533 489 472 475 509 526 497 503 488 511 509 505 498 529 480 478 493 489 493 482 462 475 475 497 501 459 523 460 504 505 462 480 458 449 496 496 480 464 451 458 482 532 464 518 476 503 495 503 513 486 450 515 493 479 518 464 441 482 483 440 495 466 506 472 479 517 498 526 474 478 526 518 537 464 467 495 505 463 488 454 510 486 476 466 485 491 488 476 449 509 514 498 455 495 496 497 522 428 498 449 500 489 478 467 486 507 535 441 496 444 466 521 505 513 508 477 460 486 515 468 502 493 498 528 488 473 466 470 453 476 498 481 451 516 513 485 494 494 511 507 471 475 498 484 513 467 493 499 493 437 474 511 491 501 487 477 505 470 483 508 465 479 509 478 476 492 482 476 529 471 486 507 475 463 519 453 468 486 501 468 487 455 495 471 469 467 482 506 465 476 487 473 482 452 471 488 484 511 496 478 495 528 459 495 505 473 497 522 449 466 466 485 490 476 488 473 532 485 485 500 515 477 485 466 490 481 473 451 474 483 497 442 470 481 433 479 492 484 529 517 477 459 500 508 484 461 483 476 480 521 503 495 490 458 503 476 489 496 507 478 461 484 460 513 490 500 456 463 468 494 497 468 465 454 483 461 499 496 493 504 480 474 520 454 504 453 508 465 485 481 465 508 551 459 448 522 465 497 498 473 482 492 492 516 495 517 484 502 523 480 509 461 474 477 469 514 512 505 460 456 444 469 447 470 497 465 469 478 529 468 475 476 518 480 500 477 469 471 444 474 501 518 488 514 483 534 480 443 504 460 492 488 485 525 480 498 476 527 496 468 500 476 481 485 529 475 516 481 471 472 447 483 500 472 491 482 463 511 520 517 476 543 484 525 479 555 454 510 528 488 518 519 507 479 475 487 465 492 437 482 530 494 540 521 479 504 513 532 462 521 539 548 548 474 498 506 529 479 460 477 462 500 478 453 497 491 497 482 510 468 485 490 484 455 517 512 530 488 474 490 522 531 507 520 480 548 514 541 486 507 493 507 536 493 502 576 510 529 542 514 543 526 498 524 516 523 510 557 525 505 495 531 525 546 546 526 519 540 514 510 512 586 552 530 567 562 546 566 551 531 557 541 539 572 576 545 528 497 477 518 571 512 522 507 496 527 546 525 546 520 549 499 533 531 560 509 504 557 549 513 541 494 486 513 533 480 535 529 543 537 571 543 542 541 574 601 578 546 543 524 534 559 535 567 523 516 593 564 546 559 539 578 553 534 528 534 553 523 582 534 529 565 514 507 537 530 595 521 517 498 492 537 510 510 525 518 509 517 508 473 516 505 498 521 498 528 546 492 506 568 527 489 585 518 520 488 481 497 494 519 509 485 504 508 501 479 493 513 569 500 507 521 526 519 499 518 563 501 539 473 512 525 500 483 496 484 524 517 531 504 499 514 490 517 526 489 480 512 511 521 482 481 510 467 479 533 451 538 491 508 535 502 475 489 501 458 516 550 519 495 503 527 477 500 551 462 551 530 498 468 502 536 547 502 492 519 562 498 537 490 494 505 478 539 503 557 524 489 519 532 540 519 511 507 527 484 521 550 575 532 568 480 534 510 506 514 522 505 556 534 502 575 576 534 493 502 529 554 500 518 543 530 539 530 531 557 531 594 541 590 554 563 576 596 582 607 592 590 573 637 572 612 594 680 614 655 648 662 668 658 696 701 692 737 705 735 763 724 764 737 777 756 779 779 754 742 752 754 789 780 791 819 763 732 765 826 771 765 754 752 773 760 821 805 787 718 712 764 761 721 706 701 681 699 671 674 631 659 664 674 677 633 639 671 581 625 634 610 660 570 582 613 540 545 580 551 546 528 524 569 604 554 511 573 580 521 493 521 509 548 518 515 562 537 527 523 528 480 505 482 501 554 564 539 517 528 505 547 486 527 522 525 514 539 499 476 532 512 502 472 474 501 474 473 496 507 532 540 534 482 514 471 505 473 500 479 481 488 547 515 501 522 469 538 514 491 521 531 506 516 490 532 530 525 529 524 505 519 495 550 547 572 537 569 496 543 522 489 525 503 527 548 491 508 520 532 553 535 570 543 539 574 534 551 556 530 537 528 549 535 536 492 548 529 582 549 594 547 553 531 555 564 593 567 558 514 580 537 552 547 570 534 548 549 586 543 550 540 555 489 544 525 523 535 536 512 508 534 537 573 552 553 518 541 487 512 509 527 532 503 538 541 528 529 514 508 515 480 523 472 467 526 488 477 528 511 514 507 538 503 497 499 502 528 480 523 506 461 477 496 530 510 540 458 511 478 540 482 514 488 512 497 456 486 480 453 509 490 493 494 484 488 511 520 514 524 456 467 493 471 469 470 512 464 485 465 487 476 482 468 489 497 473 451 489 480 451 531 458 531 484 489 493 492 471 490 498 465 520 524 501 481 527 456 528 522 494 509 471 475 487 505 508 458 450 480 519 468 444 500 490 475 466 448 504 462 468 513 444 505 465 495 513 502 498 485 498 498 492 455 491 519 511 475 425 496 483 521 489 478 487 505 465 504 489 482 479 491 468 507 457 496 476 494 485 478 477 490 496 459 501 498 469 478 441 448 490 502 531 464 499 458 475 456 517 452 497 513 479 467 544 522 476 479 460 456 473 478 482 448 486 510 463 487 466 479 483 517 470 503 518 538 481 466 469 463 476 511 477 507 464 456 501 460 499 497 471 485 493 503 487 475 430 498 462 525 473 501 488 507 457 503 471 513 468 444 490 499 463 466 475 440 505 463 463 495 453 462 523 453 499 451 488 467 502 475 460 490 449 473 488 475 480 475 487 506 508 494 481 474 516 522 440 496 490 438 496 507 497 467 469 461 473 482 498 446 484 484 446 485 459 489 497 474 504 472 516 513 489 528 444 461 463 482 500 450 511 475 523 474 503 436 493 493 484 481 497 491 476 500 505 469 430 504 505 489 487 476 485 501 460 460 488 516 495 471 474 460 476 476 491 465 486 470 495 467 477 468 482 464 479 525 501 468 491 470 469 518 491 490 457 444 461 466 485 498 534 459 475 453 461 436 437 474 488 489 493 500 492 474 451 447 432 452 468 511 462 515 466 543 492 477 491 492 508 469 477 504 450 453 509 463 494 543 477 501 494 528 506 482 503 509 476 485 505 484 510 511 529 513 478 504 523 491 472 486 512 531 529 515 487 453 499 483 500 459 555 489 518 533 512 516 499 526 525 492 471 506 489 488 474 515 485 474 475 485 527 485 462 510 471 518 489 462 513 493 521 493 506 507 474 444 488 478 509 470 514 460 509 487 519 426 491 460 480 453 451 476 493 470 450 450 508 474 473 489 500 466 470 477 508 533 469 468 473 483 484 478 466 490 488 518 512 457 503 489 498 470 475 468 479 459 448 512 456 481 461 485 462 475 467 466 526 486 508 461 468 460 478 473 464 495 463 495 440 454 499 477 529 487 495 520 468 455 433 454 487 471 449 470 458 500 473 468 478 474 454 549 477 478 490 512 506 484 477 468 426 466 436 459 491 482 439 475 522 487 475 508 493 495 448 432 486 480 489 498 493 503 456 477 483 455 507 461 461 497 472 445 464 445 444 463 434 487 481 461 452 476 496 470 493 484 501 485 482 465 467 446 500 512 472 513 416 457 524 484 489 472 457 512 501 465 520 487 503 506 507 487 489 481 503 543 487 497 465 507 515 497 532 525 491 498 494 560 517 541 538 459 532 545 465 501 521 562 574 592 515 548 581 563 574 537 605 594 553 575 569 620 604 626 653 596 615 628 669 608 578 599 638 656 678 642 625 672 594 655 664 697 638 627 698 679 682 697 651 661 610 650 636 626 656 633 664 567 568 606 620 610 568 588 583 577 613 561 612 575 541 587 539 565 585 564 552 546 563 571 547 533 560 498 536 524 550 504 553 537 508 527 514 553 501 530 526 573 494 494 506 473 505 515 435 505 523 500 491 490 487 472 489 493 515 466 514 493 493 485 475 503 482 496 462 495 517 469 457 486 472 520 457 473 502 466 463 472 484 509 476 490 466 482 472 457 495 447 500 467 474 468 510 486 464 484 477 487 469 524 458 486 455 514 475 450 479 490 461 480 502 477 496 482 469 493 453 470 505 487 462 490 479 462 492 480 472 482 450 494 535 530 472 493 502 497 477 469 467 488 502 500 499 496 467 503 523 489 490 490 458 524 463 525 485 486 498 448 505 502 470 459 476 518 498 446 483 491 495 473 514 452 502 471 490 511 474 486 506 509 472 462 477 508 449 470 478 456 476 494 471 467 490 500 456 482 525 455 498 465 456 450 482 458 505 477 529 474 500 439 479 459 488 500 516 470 500 444 453 458 480 454 483 475 455 488 471 484 456 449 459 449 479 464 433 482 456 460 457 507 477 453 450 460 473 448 458 448 446 476 493 439 447 502 447 445 430 488 453 468 449 468 470 495 479 464 478 440 459 464 453 468 462 474 454 435 486 453 477 476 471 453 467 491 456 472 430 457 468 444 499 465 412 451 486 449 500 481 479 470 498 447 467 468 494 444 427 451 474 462 449 461 447 417 458 480 442 466 448 461 482 463 433 489 476 448 485 448 453 488 467 449 441 476 469 459 478 449 468 455 428 446 462 479 447 458 415 460 495 444 468 433 445 471 489 479 467 437 428 457 495 481 449 468 474 458 476 505 444 464 494 470 464 500 468 481 463 466 438 483 501 438 459 485 473 483 448 489 484 475 462 472 466 487 469 431 418 504 494 477 461 479 487 438 427 453 451 452 456 451 496 464 495 467 449 493 480 512 470 452 437 472 457 442 510 454 483 456 448 424 461 460 435 446 474 444 439 488 496 463 478 453 456 439 451 481 473 467 456 478 444 429 469 433 487 456 480 469 445 430 461 492 473 512 451 456 486 512 468 462 495 483 461 437 451 443 460 462 464 470 455 475 427 487 475 470 460 480 485 517 471 440 464 431 466 413 476 462 469 445 438 454 488 466 502 463 452 449 453 472 494 471 488 456 488 448 450 450 460 471 478 485 449 458 474 430 441 468 457 468 429 443 458 480 470 480 459 467 451 424 462 458 464 456 503 439 461 442 488 441 445 490 487 440 427 518 497 455 496 439 472 474 461 479 426 452 466 495 396 506 460 465 479 479 441 460 473 478 487 503 463 452 502 469 450 480 496 461 495 469 495 567 488 494 473 461 479 498 503 482 457 495 475 525 477 514 484 500 475 490 518 541 506 521 528 515 496 462 540 440 507 461 474 496 499 521 522 490 472 488 487 478 521 483 488 495 523 510 467 428 489 476 502 503 475 487 480 511 496 484 520 487 499 535 491 499 495 512 500 491 481 481 501 516 553 481 519 469 488 461 468 523 492 519 475 502 522 508</counts>
			</dataPoints>
		</scan>
	</xrdMeasurement>
</xrdMeasurements>
