<?xml version="1.0"?>
<xrdMeasurements xmlns="http://www.xrdml.com/XRDMeasurement/2.3" xmlns:xsi="http://www.w3.org/2001/XMLSchema-instance" xsi:schemaLocation="http://www.xrdml.com/XRDMeasurement/2.3 http://www.xrdml.com/XRDMeasurement/2.3/XRDMeasurement.xsd" status="Completed" recordIdentifier="{8B60645D-6B93-43C1-A331-BCFB39E0F574}">
	<comment>
		<entry/>
	</comment>
	<sample type="To be analyzed">
		<id>GPSS_Li1p8Fe0p8Y0p2Cl4_111725_691b7e20f3837ac4a0a9936d</id>
		<name></name>
		<preparedBy></preparedBy>
	</sample>
	<xrdMeasurement measurementType="Scan" status="Completed" sampleMode="Reflection">
		<usedWavelength intended="K-Alpha 1">
			<kAlpha1 unit="Angstrom">1.5405980</kAlpha1>
			<kAlpha2 unit="Angstrom">1.5444260</kAlpha2>
			<kBeta unit="Angstrom">1.3922500</kBeta>
			<ratioKAlpha2KAlpha1>0.5000</ratioKAlpha2KAlpha1>
		</usedWavelength>
		<incidentBeamPath>
			<radius unit="mm">145.00</radius>
			<xRayTube id="1010048" name="Empyrean Cu LFF HR (9430 033 7310x)">
				<tension unit="kV">40.0</tension>
				<current unit="mA">15.0</current>
				<anodeMaterial>Cu</anodeMaterial>
				<focus type="Line">
					<length unit="mm">12.0</length>
					<width unit="mm">0.4</width>
					<takeOffAngle unit="deg">6.0</takeOffAngle>
				</focus>
			</xRayTube>
			<sollerSlit id="21010002" name="Soller slits 0.04 rad.">
				<opening unit="rad">0.0400</opening>
			</sollerSlit>
			<mask id="22031000" name="Fixed mask 13 mm">
				<width unit="mm">9.00</width>
			</mask>
			<divergenceSlit id="22120001" name="Divergence slit 1°" xsi:type="fixedDivergenceSlitType">
				<distanceToSample unit="mm">50.00</distanceToSample>
				<height unit="mm">1.52</height>
			</divergenceSlit>
		</incidentBeamPath>
		<sampleMovement xsi:type="spinningSampleMovementType">
			<spinnerRevolutionTime unit="seconds">1.0</spinnerRevolutionTime>
		</sampleMovement>
		<diffractedBeamPath>
			<radius unit="mm">145.00</radius>
			<antiScatterSlit id="22090040" name="AS slit 9 mm (PIXcel)" xsi:type="fixedAntiScatterSlitType">
				<height unit="mm">9.00</height>
			</antiScatterSlit>
			<sollerSlit id="21020003" name="Large Soller slits 0.04 rad.">
				<opening unit="rad">0.0400</opening>
			</sollerSlit>
			<filter id="20030001" name="Large beta-filter Nickel">
				<material>Ni</material>
				<thickness unit="mm">0.020</thickness>
			</filter>
			<detector id="7010019" name="PIXcel1D-Medipix3 detector" xsi:type="rtmsDetectorType">
				<phd unit="keV">
					<lowerLevel>4.02</lowerLevel>
					<upperLevel>11.27</upperLevel>
				</phd>
				<mode>Scanning</mode>
				<activeLength unit="deg">5.542</activeLength>
			</detector>
		</diffractedBeamPath>
		<scan appendNumber="0" mode="Continuous" scanAxis="Gonio" status="Completed">
			<header>
				<startTimeStamp>2025-11-19T11:43:55-08:00</startTimeStamp>
				<endTimeStamp>2025-11-19T11:52:02-08:00</endTimeStamp>
				<author>
					<name>AutomatedUser</name>
				</author>
				<source>
					<applicationSoftware version="1.7b (136)">PANalytical Aeris Instrument Suite</applicationSoftware>
					<instrumentControlSoftware version="3.2.00000000 20240306">AERIS</instrumentControlSoftware>
					<instrumentID>950485</instrumentID>
				</source>
			</header>
			<dataPoints>
				<positions axis="2Theta" unit="deg">
					<startPosition>10.00943322</startPosition>
					<endPosition>99.99442286</endPosition>
				</positions>
				<positions axis="Omega" unit="deg">
					<startPosition>5.00471661</startPosition>
					<endPosition>49.99721143</endPosition>
				</positions>
				<commonCountingTime unit="seconds">12.495</commonCountingTime>
				<counts unit="counts">2780 2976 2812 2835 2848 2736 2833 2774 2893 2783 2864 2857 2762 2816 2792 2866 2775 2738 2883 2875 2737 2800 2934 2781 2780 2789 2804 2678 2791 2814 2790 2837 2763 2729 2742 2797 2864 2755 2727 2744 2823 2661 2722 2838 2837 2822 2794 2904 2760 2791 2818 2763 2766 2712 2863 2753 2856 2763 2798 2708 2805 2872 2847 2828 2804 2876 2848 2884 2813 2796 2878 2861 2854 2968 2774 2866 2787 2940 2745 2877 2777 2832 2887 2690 2907 2871 2829 2800 2882 2881 2796 2703 2853 2850 2882 2835 2850 2836 2868 2914 2846 2846 2980 2806 2802 2848 2896 2927 2731 2801 2961 2966 2819 2861 2884 2886 2901 2948 2886 2830 2950 2881 2867 2864 2813 2888 2881 2762 2857 2818 2820 2959 2814 2918 2727 2951 2967 2951 2854 2880 2915 2946 2918 2853 2841 2865 2739 2895 2928 2859 2870 2923 2879 2830 2900 2953 2882 2799 2828 2905 2815 2831 2841 2970 2856 2826 2918 2832 2899 2791 2828 2881 2909 2864 2933 2970 2899 2869 2851 2755 2965 2954 2819 2869 2780 2967 2853 2839 2955 2885 2909 2876 2824 2833 2956 2859 2861 2860 2916 2833 2872 2861 2906 2839 2839 2781 2823 2761 2769 2899 2732 2825 2762 2815 2733 2803 2812 2800 2788 2851 2804 2777 2909 2824 2739 2918 2784 2850 2810 2720 2826 2723 2728 2854 2828 2783 2781 2714 2778 2833 2797 2712 2780 2719 2918 2764 2797 2833 2799 2850 2816 2727 2793 2809 2791 2699 2782 2831 2831 2795 2685 2725 2844 2851 2698 2822 2786 2734 2822 2706 2736 2845 2678 2734 2753 2766 2730 2847 2764 2775 2702 2764 2773 2774 2710 2754 2774 2753 2820 2678 2781 2817 2811 2727 2736 2714 2725 2672 2808 2804 2728 2707 2804 2785 2896 2723 2923 2721 2837 2761 2690 2831 2817 2742 2839 2767 2833 2735 2921 2882 2868 2842 2815 2722 2881 2783 2875 2790 2800 2804 2848 2844 2845 2841 2906 2926 2878 3078 2918 2751 2837 2859 2905 2875 2963 2921 2894 3022 3002 2849 2929 2972 2946 2951 3020 2924 2940 2983 2909 2918 2996 3010 3014 2997 3104 2994 3031 3047 3047 3026 2979 2964 3025 3047 3002 2886 3069 2995 3080 2895 3084 3109 3078 3011 2963 2973 3163 3068 3083 3066 3016 3208 3176 3096 3140 3094 3183 3166 3133 3095 3144 3083 3244 3120 3263 3050 3189 3218 3290 3213 3215 3154 3178 3140 3167 3030 3261 3167 3343 3335 3283 3312 3247 3152 3247 3232 3325 3304 3277 3204 3243 3324 3214 3294 3375 3327 3392 3349 3508 3299 3487 3434 3519 3418 3508 3490 3436 3666 3564 3486 3670 3539 3841 3590 3576 3622 3688 3704 3650 3750 3757 3675 3746 3848 3752 3830 3887 3812 3832 3920 3876 3907 3970 3972 3912 4006 3971 4001 3946 3919 3850 3992 3896 3785 3844 3889 3812 3726 3853 3707 3766 3796 3690 3677 3708 3716 3606 3584 3565 3525 3495 3564 3498 3497 3385 3384 3326 3330 3250 3268 3254 3190 3264 3142 3221 3231 3164 3200 3249 3154 3136 3139 3120 3248 3176 3185 3253 3163 3165 3004 3124 3179 3170 3185 3126 3094 3151 3129 3139 3068 3070 3044 3089 3200 3077 3043 3041 3120 2996 3002 3118 3131 3086 3038 2989 3066 3055 3064 3031 3108 2964 3128 3137 3007 3006 3033 3127 3116 3119 3143 3062 3152 3182 3036 3038 3064 3003 3007 3088 3021 3082 3107 3056 3046 3212 3050 3029 2951 3038 3005 2956 3113 2959 3070 2988 3028 3014 2941 3019 2945 2968 2952 2895 2883 2945 2952 2919 2953 2942 2983 2962 3001 2909 2923 2907 2876 2908 2867 2982 2884 2936 2798 2838 2873 2961 2839 2872 2801 2897 2900 2927 2844 2837 2821 2844 2891 2836 2849 2872 2957 2876 2876 2845 2675 2782 2862 2864 2864 2798 2872 2790 2885 2916 2784 2898 2792 2856 2806 2708 2835 2921 2833 2868 2837 2800 2865 2798 2850 2764 2800 2854 2800 2987 2780 2830 2839 2810 2850 2831 2894 2875 2755 2828 2895 2825 2849 2910 2862 2748 2763 2821 2798 2842 2824 2921 2877 2864 2833 2821 2855 2853 2877 2820 2806 2859 2839 2864 2834 2798 2845 2805 2823 2793 2846 2880 2881 2835 2811 2887 2750 2779 2852 2798 2839 2914 2861 2756 2930 2728 2781 2704 2797 2738 2771 2704 2776 2720 2800 2705 2745 2841 2780 2802 2802 2800 2791 2760 2752 2778 2816 2880 2731 2921 2847 2719 2776 2841 2767 2776 2853 2832 2786 2751 2731 2808 2820 2756 2758 2678 2767 2874 2766 2786 2856 2778 2759 2865 2776 2734 2819 2731 2734 2815 2726 2702 2777 2789 2818 2841 2795 2833 2784 2683 2651 2779 2602 2710 2762 2664 2697 2756 2813 2796 2749 2636 2692 2768 2765 2805 2802 2703 2711 2760 2707 2701 2681 2719 2750 2739 2718 2748 2750 2785 2791 2667 2590 2711 2627 2689 2547 2684 2732 2655 2736 2675 2724 2679 2736 2733 2739 2724 2661 2684 2679 2703 2656 2657 2605 2735 2633 2656 2642 2684 2678 2646 2604 2660 2640 2606 2686 2625 2670 2651 2744 2596 2674 2599 2678 2632 2692 2684 2695 2749 2645 2657 2713 2775 2580 2690 2556 2653 2653 2655 2650 2561 2581 2583 2595 2743 2688 2598 2726 2605 2696 2593 2585 2651 2682 2589 2659 2656 2603 2618 2609 2575 2667 2591 2617 2613 2774 2535 2627 2588 2596 2650 2601 2589 2635 2671 2576 2616 2592 2661 2705 2489 2658 2591 2649 2530 2608 2521 2631 2582 2524 2591 2537 2675 2535 2598 2591 2601 2535 2606 2456 2545 2639 2551 2537 2634 2588 2613 2638 2528 2600 2647 2650 2590 2601 2530 2486 2617 2574 2586 2640 2586 2618 2606 2567 2529 2576 2539 2540 2574 2609 2509 2547 2491 2489 2535 2546 2575 2517 2483 2609 2548 2563 2485 2613 2551 2569 2482 2513 2511 2518 2466 2475 2558 2668 2594 2532 2591 2581 2621 2594 2553 2526 2528 2532 2439 2511 2526 2617 2515 2557 2442 2594 2534 2532 2527 2517 2392 2518 2462 2647 2529 2552 2489 2584 2570 2532 2485 2547 2470 2598 2427 2499 2537 2580 2565 2504 2548 2604 2544 2519 2541 2474 2509 2525 2640 2563 2502 2560 2497 2535 2401 2634 2475 2611 2557 2670 2513 2494 2585 2579 2542 2657 2517 2502 2485 2589 2605 2658 2579 2471 2641 2555 2513 2518 2442 2607 2509 2569 2611 2589 2570 2565 2573 2474 2578 2529 2577 2572 2665 2662 2487 2557 2537 2591 2587 2472 2501 2606 2563 2584 2493 2586 2539 2565 2596 2639 2585 2678 2500 2559 2495 2552 2563 2567 2508 2581 2601 2567 2550 2536 2530 2526 2613 2447 2554 2563 2539 2542 2540 2595 2553 2476 2622 2458 2556 2526 2464 2530 2471 2591 2442 2467 2507 2450 2448 2540 2417 2459 2428 2494 2500 2493 2511 2493 2585 2466 2487 2470 2468 2560 2491 2383 2370 2471 2413 2426 2474 2485 2470 2519 2512 2542 2452 2434 2406 2478 2464 2327 2516 2400 2505 2464 2379 2489 2461 2442 2348 2391 2425 2385 2372 2426 2475 2451 2504 2420 2344 2397 2313 2391 2395 2331 2389 2386 2410 2416 2464 2336 2359 2363 2403 2429 2375 2310 2340 2299 2385 2279 2242 2294 2402 2303 2375 2406 2296 2300 2277 2341 2307 2379 2280 2333 2233 2339 2280 2308 2164 2309 2272 2203 2257 2257 2230 2300 2262 2308 2268 2243 2307 2208 2219 2299 2305 2163 2306 2168 2195 2175 2255 2264 2184 2292 2239 2245 2187 2185 2237 2174 2231 2162 2162 2212 2171 2186 2090 2173 2181 2151 2134 2171 2158 2149 2122 2091 2140 2092 2185 2251 2117 2093 2145 2096 2090 2165 2165 2106 2200 2123 1984 2166 2110 2068 1994 2081 2106 2186 2072 2122 2074 2131 2008 2081 2086 2097 2095 2004 2091 2156 2095 2092 2125 2090 2059 1953 2080 2150 2104 2087 2080 2041 2053 2066 2162 2036 1989 2032 2153 2083 2105 2062 2013 1988 2082 2097 2092 2039 2029 2080 2061 2062 2055 2066 2088 2051 2092 1989 2028 2036 2038 2139 2070 2032 1994 2016 2151 2063 2023 2011 2078 2005 2040 1994 1988 2090 2028 2006 2026 2061 2035 2072 2082 2140 2008 2025 1991 2036 2003 1975 2007 2051 2044 2062 2025 2009 2007 2054 1948 2057 1994 2041 2001 1972 1912 1976 2061 1975 1985 1963 1999 2042 1998 2013 1952 2048 2036 2028 2011 1975 2059 2024 2010 2035 2030 2023 2002 2031 1979 2088 2028 2062 2020 2023 1994 2017 2035 2099 2026 2006 1993 2118 1995 2088 2075 2050 2034 1962 2002 2105 2027 2040 2014 2067 2101 2066 2027 2032 2066 1952 2015 2043 2083 2021 2094 2085 1940 2145 2005 2013 1977 2014 2035 2054 1998 2006 2063 2082 2053 2086 1977 1993 2101 2036 2011 2120 2115 2083 2050 2002 2113 2079 2116 2071 2134 2047 2042 2040 2020 2094 2022 2050 1992 2009 2073 2009 2017 1991 2014 2062 2004 2089 2042 1980 1992 2097 2002 2045 2064 1996 2052 2033 2053 1996 2042 2062 2117 2108 1958 2051 2049 2015 2057 2071 1987 1998 2084 2000 2065 2039 2071 2042 1999 1999 2049 2100 1959 2044 2110 2078 2075 2012 2126 1940 2051 1986 2043 1953 1965 2118 2080 2084 2023 2073 2007 2025 2000 2020 2052 2031 2117 2029 2053 2004 2004 1991 1920 1991 2064 2001 1949 1928 1955 2064 1933 2079 2001 1918 1963 1889 1903 1979 1946 1970 1970 1942 1948 1835 1904 1916 1903 1878 1901 1906 1949 1815 1912 1842 1870 1859 1899 1855 1872 1775 1921 1799 1883 1900 1813 1814 1819 1865 1810 1812 1843 1917 1848 1798 1906 1889 1834 1906 1832 1915 1805 1902 1862 1778 1869 1842 1769 1862 1797 1774 1774 1854 1818 1783 1800 1833 1847 1767 1814 1824 1803 1825 1810 1821 1772 1769 1766 1780 1750 1790 1734 1807 1820 1802 1765 1844 1768 1861 1853 1849 1767 1803 1774 1698 1858 1778 1816 1767 1788 1856 1806 1806 1846 1837 1821 1833 1878 1847 1842 1962 1836 1941 1852 1943 1901 1811 1949 1968 1939 1916 1982 1862 1884 1865 1897 1847 1911 1842 1836 1904 1883 1890 1869 1841 1862 1840 1944 2003 2004 2021 1956 2016 2136 2079 2057 2045 2055 2082 2106 2000 2052 1990 2019 1976 2050 2177 1991 1991 2116 2102 2009 2080 1928 1985 2011 1965 1926 1942 1941 1894 1961 1956 1873 1918 1816 1788 1885 1875 1768 1814 1806 1750 1783 1728 1771 1773 1703 1603 1757 1672 1744 1640 1719 1604 1714 1683 1678 1659 1716 1643 1690 1663 1693 1653 1742 1625 1655 1663 1662 1738 1712 1739 1759 1671 1710 1688 1683 1751 1700 1775 1773 1779 1817 1850 1813 1845 1701 1891 1760 1858 1922 1833 1886 1832 1926 1888 1948 1949 1832 1894 1926 1866 1806 1857 1883 1842 1968 1864 1963 2011 2046 2025 2083 2127 2004 2038 2060 2099 2160 2171 2217 2250 2326 2337 2291 2265 2301 2383 2521 2300 2321 2385 2444 2360 2328 2332 2312 2313 2252 2265 2256 2207 2324 2281 2214 2335 2160 2142 2140 1977 2023 2064 1973 2005 1863 1829 1914 1896 1818 1818 1761 1728 1686 1633 1674 1647 1639 1617 1642 1641 1572 1605 1598 1556 1583 1542 1547 1588 1593 1565 1620 1501 1501 1570 1534 1513 1552 1508 1523 1553 1507 1545 1497 1475 1539 1557 1540 1465 1572 1521 1441 1436 1497 1495 1529 1550 1456 1541 1526 1520 1520 1501 1519 1579 1529 1506 1522 1466 1510 1520 1491 1618 1498 1589 1534 1528 1502 1512 1566 1552 1505 1530 1607 1564 1609 1658 1581 1739 1658 1602 1627 1602 1719 1673 1632 1612 1559 1672 1638 1645 1641 1648 1639 1600 1675 1594 1669 1681 1575 1557 1608 1610 1641 1636 1697 1678 1698 1701 1787 1700 1749 1785 1799 1776 1795 1797 1814 1776 1847 1835 1877 1808 1890 1916 1881 1869 1907 1804 1913 1778 1845 1799 1798 1810 1853 1756 1696 1738 1663 1748 1709 1680 1632 1683 1554 1522 1471 1560 1594 1607 1450 1548 1545 1568 1521 1522 1539 1459 1543 1501 1528 1472 1468 1487 1439 1495 1442 1451 1472 1518 1564 1513 1547 1490 1494 1467 1448 1453 1501 1516 1465 1504 1531 1485 1496 1475 1478 1473 1505 1501 1381 1468 1485 1458 1400 1456 1506 1500 1504 1497 1439 1474 1466 1434 1404 1425 1443 1441 1466 1529 1500 1507 1519 1519 1468 1489 1444 1406 1480 1515 1427 1483 1471 1483 1468 1476 1558 1511 1468 1398 1511 1450 1448 1491 1479 1469 1504 1467 1461 1517 1439 1459 1392 1471 1427 1392 1460 1404 1434 1410 1445 1410 1384 1377 1333 1476 1464 1456 1490 1456 1366 1414 1373 1429 1401 1379 1415 1362 1504 1386 1449 1414 1420 1455 1509 1372 1446 1414 1450 1390 1402 1344 1370 1422 1427 1400 1412 1454 1391 1436 1480 1445 1389 1416 1386 1410 1395 1449 1453 1463 1397 1405 1487 1431 1485 1389 1447 1480 1426 1484 1420 1565 1524 1402 1438 1568 1504 1555 1466 1533 1539 1481 1525 1540 1491 1537 1484 1526 1497 1472 1502 1477 1530 1527 1513 1501 1480 1591 1575 1559 1497 1501 1626 1533 1610 1584 1670 1669 1741 1721 1732 1755 1857 1877 1955 2030 2038 2014 2239 2313 2326 2379 2450 2508 2521 2527 2622 2514 2734 2650 2722 2685 2793 2647 2718 2683 2499 2536 2628 2417 2496 2458 2446 2375 2472 2439 2439 2415 2457 2617 2608 2664 2648 2887 2718 3176 2931 3219 3188 3260 3504 3597 3628 3752 3802 3860 3833 4000 3850 3869 3936 3845 3793 3800 3822 3933 3868 3791 3606 3472 3399 3448 3418 3132 3061 3006 2941 2847 2745 2661 2484 2437 2337 2289 2308 2058 2116 2000 2042 1886 1823 1809 1747 1668 1694 1701 1615 1624 1640 1552 1542 1574 1614 1540 1534 1554 1470 1564 1513 1421 1431 1504 1536 1484 1466 1431 1464 1433 1564 1481 1481 1468 1470 1384 1400 1434 1410 1487 1450 1397 1373 1368 1446 1525 1524 1500 1468 1463 1501 1467 1522 1505 1460 1400 1514 1457 1487 1534 1482 1523 1486 1515 1510 1519 1518 1416 1476 1437 1562 1529 1547 1517 1459 1536 1500 1451 1427 1521 1554 1532 1482 1481 1451 1437 1471 1384 1483 1517 1381 1438 1461 1455 1373 1368 1299 1469 1393 1460 1455 1458 1433 1406 1436 1330 1371 1368 1358 1353 1424 1409 1347 1392 1376 1341 1393 1427 1323 1400 1403 1450 1332 1398 1377 1349 1377 1442 1403 1396 1355 1337 1432 1417 1429 1367 1407 1303 1423 1339 1491 1381 1399 1335 1363 1373 1382 1441 1326 1326 1331 1334 1349 1333 1362 1351 1376 1432 1435 1346 1420 1316 1351 1352 1307 1343 1388 1403 1333 1361 1295 1323 1405 1358 1341 1348 1344 1385 1335 1336 1364 1333 1396 1304 1355 1394 1345 1268 1349 1368 1353 1339 1335 1294 1379 1339 1345 1288 1394 1322 1294 1339 1350 1340 1333 1343 1306 1351 1309 1442 1272 1369 1276 1378 1300 1346 1334 1337 1344 1347 1463 1320 1385 1356 1309 1330 1338 1344 1274 1384 1332 1385 1325 1337 1320 1380 1390 1344 1339 1260 1327 1331 1317 1329 1384 1266 1348 1349 1353 1337 1334 1346 1330 1350 1256 1322 1305 1305 1318 1300 1319 1438 1344 1314 1372 1360 1332 1322 1292 1342 1338 1360 1390 1377 1349 1336 1296 1326 1347 1320 1350 1275 1359 1237 1248 1353 1302 1336 1343 1354 1346 1349 1355 1278 1261 1325 1315 1306 1324 1355 1294 1333 1291 1348 1271 1276 1355 1406 1294 1249 1243 1236 1296 1336 1344 1317 1356 1312 1273 1267 1343 1328 1257 1276 1331 1241 1251 1330 1245 1190 1346 1275 1230 1334 1329 1231 1306 1279 1292 1318 1303 1248 1319 1348 1308 1224 1282 1296 1301 1337 1285 1180 1328 1312 1314 1315 1282 1293 1289 1324 1251 1194 1278 1272 1349 1249 1294 1309 1248 1331 1298 1198 1304 1279 1307 1329 1286 1334 1373 1285 1261 1295 1297 1320 1290 1245 1286 1291 1229 1353 1312 1299 1282 1243 1244 1296 1245 1267 1363 1322 1309 1266 1330 1263 1292 1293 1274 1325 1271 1342 1309 1305 1360 1258 1328 1317 1342 1327 1289 1333 1333 1330 1327 1308 1341 1276 1201 1230 1243 1325 1316 1292 1299 1315 1262 1303 1426 1266 1287 1238 1310 1312 1254 1346 1223 1214 1286 1271 1302 1305 1302 1386 1321 1269 1217 1327 1309 1334 1277 1303 1289 1248 1253 1300 1340 1270 1286 1286 1328 1350 1234 1297 1225 1345 1300 1361 1330 1267 1265 1283 1305 1240 1345 1315 1297 1375 1258 1273 1313 1278 1341 1304 1337 1261 1355 1288 1252 1324 1325 1377 1312 1281 1321 1274 1269 1340 1316 1348 1238 1344 1353 1305 1406 1332 1353 1380 1337 1341 1339 1386 1350 1359 1363 1411 1443 1345 1480 1405 1415 1426 1351 1415 1364 1395 1365 1364 1432 1417 1373 1400 1390 1370 1380 1377 1481 1372 1401 1432 1419 1432 1503 1497 1485 1448 1453 1511 1472 1437 1474 1417 1540 1423 1414 1420 1473 1407 1439 1466 1450 1453 1471 1425 1435 1422 1486 1440 1388 1342 1315 1404 1350 1408 1338 1366 1291 1357 1348 1285 1290 1266 1315 1324 1265 1221 1304 1300 1369 1269 1299 1253 1290 1231 1327 1295 1236 1322 1268 1362 1291 1302 1240 1217 1282 1323 1241 1250 1276 1330 1290 1272 1260 1276 1306 1187 1261 1306 1240 1262 1256 1330 1235 1321 1265 1209 1246 1283 1253 1293 1225 1284 1297 1277 1273 1272 1235 1302 1238 1259 1271 1257 1260 1258 1225 1240 1258 1321 1232 1258 1267 1233 1290 1284 1220 1290 1249 1254 1227 1283 1285 1296 1254 1272 1348 1256 1362 1345 1312 1333 1336 1327 1269 1269 1240 1318 1281 1319 1340 1322 1321 1245 1288 1307 1262 1320 1327 1224 1234 1328 1241 1333 1329 1269 1353 1312 1296 1315 1275 1396 1337 1293 1290 1290 1362 1262 1297 1262 1293 1287 1319 1348 1307 1326 1277 1281 1363 1359 1343 1285 1347 1383 1399 1341 1394 1376 1306 1267 1336 1346 1357 1340 1340 1307 1291 1218 1289 1287 1331 1238 1312 1309 1250 1316 1276 1281 1250 1260 1275 1367 1267 1368 1286 1275 1285 1243 1244 1282 1194 1343 1258 1220 1207 1274 1296 1249 1333 1266 1310 1256 1279 1239 1293 1229 1256 1243 1269 1259 1247 1254 1272 1279 1276 1241 1215 1269 1301 1273 1297 1317 1240 1340 1251 1275 1290 1312 1212 1276 1298 1330 1226 1267 1226 1219 1349 1274 1322 1295 1223 1242 1226 1304 1236 1282 1217 1282 1220 1309 1290 1202 1253 1336 1157 1269 1261 1294 1273 1305 1279 1263 1247 1315 1256 1240 1302 1281 1205 1212 1262 1228 1315 1250 1297 1354 1280 1277 1298 1282 1215 1264 1322 1318 1217 1333 1268 1239 1315 1239 1296 1288 1338 1271 1278 1212 1228 1215 1276 1286 1198 1251 1263 1253 1253 1227 1260 1234 1307 1294 1262 1254 1339 1217 1284 1271 1253 1249 1290 1265 1226 1277 1253 1225 1227 1280 1319 1274 1258 1269 1323 1257 1317 1330 1324 1280 1276 1293 1358 1336 1304 1285 1375 1366 1353 1368 1399 1371 1415 1312 1421 1476 1381 1437 1365 1393 1398 1395 1425 1422 1417 1468 1361 1381 1417 1395 1380 1442 1418 1396 1390 1428 1469 1500 1467 1506 1441 1407 1548 1486 1575 1594 1562 1568 1579 1556 1623 1572 1593 1544 1593 1525 1494 1525 1534 1524 1602 1594 1571 1533 1503 1520 1427 1499 1453 1403 1410 1391 1419 1516 1351 1416 1354 1330 1336 1385 1292 1335 1288 1311 1253 1241 1184 1202 1228 1297 1229 1298 1215 1317 1237 1327 1277 1303 1212 1250 1272 1249 1294 1189 1213 1258 1211 1255 1320 1252 1216 1251 1200 1256 1269 1246 1206 1353 1250 1301 1283 1285 1241 1196 1212 1175 1259 1195 1216 1236 1155 1284 1216 1249 1299 1349 1295 1281 1245 1202 1288 1313 1317 1225 1257 1242 1279 1317 1317 1230 1268 1298 1315 1212 1265 1240 1195 1235 1226 1323 1233 1277 1235 1315 1248 1296 1233 1243 1263 1261 1280 1283 1327 1284 1206 1230 1285 1297 1366 1243 1295 1267 1318 1210 1261 1190 1291 1263 1278 1254 1237 1262 1156 1235 1292 1234 1275 1253 1324 1242 1215 1263 1206 1299 1259 1240 1220 1288 1293 1238 1281 1267 1308 1241 1246 1270 1231 1245 1257 1257 1247 1224 1277 1297 1188 1244 1213 1245 1226 1259 1204 1272 1210 1174 1168 1272 1202 1219 1261 1231 1252 1260 1291 1230 1282 1260 1315 1261 1285 1203 1250 1226 1305 1258 1283 1253 1289 1251 1158 1288 1246 1304 1245 1246 1234 1270 1299 1223 1219 1332 1253 1299 1275 1149 1210 1269 1216 1227 1230 1267 1277 1319 1271 1283 1268 1298 1311 1292 1205 1233 1179 1327 1224 1207 1230 1301 1358 1263 1370 1326 1260 1251 1267 1278 1274 1262 1337 1293 1323 1270 1319 1299 1282 1291 1296 1336 1347 1261 1310 1295 1314 1287 1352 1380 1292 1292 1311 1305 1262 1303 1277 1326 1354 1353 1331 1366 1332 1321 1330 1295 1320 1324 1363 1363 1328 1423 1315 1326 1302 1265 1356 1320 1401 1361 1406 1338 1353 1400 1363 1405 1367 1352 1360 1360 1390 1389 1427 1387 1443 1442 1439 1457 1399 1490 1380 1462 1397 1521 1370 1522 1468 1530 1424 1499 1511 1528 1592 1652 1623 1693 1581 1651 1648 1718 1688 1795 1813 1769 1842 1909 1910 1908 1860 1933 1969 2087 1985 2056 2032 2143 2057 2128 2206 2132 2156 2234 2074 2156 2109 2108 2127 2026 2044 2068 2136 2030 2052 2152 1998 2107 2021 2065 2124 2144 2125 2163 2174 2251 2237 2373 2301 2343 2434 2429 2526 2543 2588 2525 2594 2640 2660 2639 2565 2579 2552 2523 2424 2477 2315 2350 2218 2236 2191 2062 2051 2000 2039 1838 1877 1802 1676 1684 1636 1595 1567 1506 1561 1471 1435 1458 1372 1423 1423 1393 1446 1317 1375 1357 1346 1408 1367 1354 1290 1428 1327 1350 1281 1344 1372 1286 1329 1322 1258 1362 1322 1275 1203 1284 1240 1211 1241 1307 1302 1324 1263 1262 1259 1272 1266 1286 1199 1298 1278 1240 1277 1218 1303 1298 1248 1221 1249 1193 1310 1240 1256 1299 1290 1243 1240 1213 1278 1214 1271 1280 1261 1304 1329 1290 1220 1206 1256 1261 1283 1232 1184 1288 1253 1267 1215 1261 1223 1224 1234 1332 1176 1213 1272 1312 1240 1220 1242 1236 1229 1310 1217 1232 1211 1210 1245 1183 1303 1266 1242 1242 1262 1315 1243 1242 1212 1268 1189 1247 1299 1244 1275 1236 1216 1196 1199 1252 1256 1235 1227 1189 1251 1233 1251 1231 1264 1274 1260 1277 1197 1246 1312 1257 1283 1299 1307 1288 1217 1310 1234 1284 1309 1274 1389 1321 1349 1302 1298 1277 1340 1375 1287 1358 1345 1418 1335 1351 1393 1345 1393 1351 1400 1362 1396 1411 1347 1338 1335 1346 1380 1308 1380 1415 1373 1350 1418 1312 1387 1289 1408 1458 1318 1399 1359 1354 1296 1395 1321 1381 1416 1386 1403 1364 1274 1398 1403 1394 1387 1367 1319 1347 1307 1429 1315 1385 1345 1322 1303 1346 1297 1330 1348 1334 1338 1288 1296 1277 1262 1328 1250 1236 1270 1271 1284 1206 1223 1247 1264 1305 1249 1273 1214 1205 1254 1239 1203 1268 1239 1265 1256 1190 1220 1261 1279 1219 1273 1260 1278 1217 1290 1253 1245 1257 1196 1315 1242 1164 1308 1284 1271 1285 1266 1174 1265 1344 1288 1267 1256 1158 1203 1260 1198 1257 1193 1243 1263 1256 1193 1251 1254 1246 1346 1224 1272 1290 1291 1243 1254 1197 1216 1209 1252 1225 1265 1223 1217 1324 1209 1251 1344 1263 1343 1270 1242 1262 1305 1296 1214 1232 1264 1256 1266 1231 1296 1183 1272 1212 1223 1286 1264 1272 1199 1308 1265 1274 1278 1285 1278 1201 1313 1251 1263 1195 1229 1204 1241 1169 1265 1244 1268 1321 1183 1254 1259 1251 1188 1199 1231 1179 1278 1229 1265 1251 1209 1271 1247 1291 1302 1224 1249 1255 1242 1256 1266 1177 1225 1227 1197 1212 1226 1226 1221 1206 1250 1206 1257 1197 1211 1184 1156 1195 1167 1214 1251 1180 1204 1187 1306 1181 1206 1146 1217 1250 1203 1221 1217 1168 1221 1209 1237 1172 1189 1200 1234 1214 1187 1256 1191 1186 1215 1204 1244 1205 1202 1191 1167 1292 1219 1282 1218 1267 1227 1214 1171 1172 1119 1167 1170 1212 1197 1121 1191 1214 1130 1236 1175 1141 1254 1210 1185 1225 1181 1191 1154 1223 1332 1185 1278 1202 1179 1179 1214 1216 1104 1260 1191 1166 1169 1257 1126 1199 1202 1224 1181 1235 1191 1229 1216 1199 1247 1213 1197 1179 1173 1156 1220 1295 1206 1167 1110 1129 1182 1194 1175 1153 1179 1148 1185 1202 1193 1240 1184 1224 1186 1195 1154 1176 1274 1242 1202 1197 1250 1218 1169 1236 1171 1153 1242 1156 1179 1185 1111 1224 1168 1152 1191 1183 1156 1226 1229 1240 1256 1259 1196 1185 1242 1257 1119 1113 1193 1214 1169 1176 1232 1232 1200 1188 1268 1144 1189 1194 1146 1101 1137 1159 1182 1172 1198 1167 1181 1217 1129 1171 1143 1168 1148 1198 1198 1221 1142 1171 1178 1157 1242 1148 1210 1165 1209 1205 1115 1208 1157 1226 1272 1126 1210 1180 1222 1167 1208 1176 1173 1180 1177 1135 1231 1209 1218 1194 1210 1216 1240 1201 1247 1169 1156 1150 1159 1186 1245 1211 1203 1131 1225 1228 1203 1196 1236 1206 1204 1175 1214 1213 1183 1264 1240 1208 1210 1159 1196 1224 1158 1186 1186 1203 1213 1176 1151 1182 1173 1211 1245 1228 1112 1149 1196 1232 1156 1192 1260 1271 1176 1233 1156 1119 1218 1186 1157 1239 1185 1162 1193 1222 1179 1212 1128 1225 1175 1153 1165 1183 1102 1162 1164 1151 1162 1212 1238 1155 1151 1201 1189 1179 1161 1228 1193 1138 1220 1203 1222 1157 1219 1184 1138 1169 1227 1174 1238 1196 1200 1214 1224 1163 1180 1170 1198 1148 1215 1202 1198 1199 1230 1215 1208 1195 1263 1206 1216 1168 1222 1181 1188 1219 1245 1301 1221 1263 1222 1249 1261 1168 1282 1227 1227 1261 1224 1228 1248 1201 1263 1153 1160 1152 1176 1209 1270 1249 1195 1220 1242 1225 1273 1231 1229 1221 1198 1228 1184 1217 1185 1216 1205 1215 1226 1223 1300 1284 1177 1256 1251 1268 1265 1237 1312 1286 1219 1256 1268 1283 1300 1269 1301 1331 1300 1305 1342 1300 1314 1237 1301 1354 1281 1301 1278 1349 1345 1303 1279 1298 1236 1284 1344 1326 1305 1265 1363 1313 1348 1403 1284 1344 1320 1350 1403 1279 1414 1349 1337 1328 1405 1352 1351 1287 1354 1340 1371 1286 1346 1340 1318 1348 1318 1327 1369 1403 1350 1401 1335 1320 1282 1307 1342 1341 1292 1319 1400 1326 1365 1311 1324 1261 1261 1275 1349 1237 1276 1286 1197 1279 1245 1289 1208 1319 1292 1220 1188 1220 1258 1250 1262 1246 1248 1255 1170 1163 1161 1254 1210 1156 1250 1221 1184 1307 1189 1306 1261 1198 1207 1164 1189 1237 1257 1262 1308 1209 1199 1175 1243 1233 1309 1195 1252 1214 1197 1159 1268 1183 1223 1171 1241 1227 1208 1297 1182 1274 1147 1174 1142 1246 1193 1255 1274 1225 1210 1227 1250 1234 1247 1206 1213 1251 1261 1212 1237 1247 1217 1172 1234 1214 1188 1269 1200 1189 1185 1241 1212 1212 1198 1219 1232 1173 1178 1142 1214 1182 1223 1160 1232 1220 1210 1182 1200 1203 1206 1189 1218 1205 1234 1144 1204 1188 1172 1201 1226 1210 1225 1154 1174 1241 1253 1202 1228 1141 1158 1203 1200 1181 1141 1170 1260 1162 1193 1188 1182 1195 1138 1205 1197 1251 1221 1204 1201 1199 1167 1226 1155 1216 1221 1140 1206 1267 1145 1195 1284 1190 1206 1157 1205 1203 1259 1265 1248 1166 1294 1310 1217 1181 1239 1222 1323 1179 1295 1199 1182 1255 1233 1257 1246 1236 1280 1272 1258 1350 1325 1295 1244 1311 1282 1301 1287 1327 1383 1381 1397 1367 1354 1417 1387 1420 1361 1465 1392 1393 1397 1405 1475 1457 1521 1391 1418 1487 1409 1400 1467 1475 1419 1459 1449 1477 1480 1465 1464 1474 1546 1456 1573 1519 1490 1478 1498 1559 1523 1461 1494 1432 1506 1447 1459 1482 1452 1473 1381 1420 1363 1397 1319 1425 1388 1404 1332 1322 1349 1399 1348 1364 1373 1343 1292 1321 1263 1245 1264 1288 1208 1289 1250 1287 1237 1194 1176 1201 1280 1183 1286 1234 1244 1183 1252 1218 1202 1221 1156 1187 1185 1173 1249 1149 1265 1257 1177 1144 1107 1188 1183 1140 1243 1135 1213 1162 1125 1222 1206 1236 1146 1168 1215 1196 1165 1232 1210 1220 1207 1188 1215 1178 1223 1293 1159 1224 1218 1185 1194 1178 1223 1184 1142 1199 1150 1157 1181 1171 1194 1187 1144 1253 1212 1176 1216 1161 1188 1189 1195 1166 1211 1225 1198 1238 1197 1186 1203 1248 1230 1169 1165 1142 1138 1201 1112 1207 1231 1125 1216 1248 1176 1218 1203 1202 1136 1187 1225 1153 1219 1242 1253 1245 1281 1220 1277 1279 1181 1240 1242 1231 1200 1182 1270 1161 1277 1282 1276 1275 1172 1252 1224 1181 1239 1261 1273 1241 1244 1286 1247 1201 1302 1223 1218 1234 1218 1319 1345 1199 1300 1234 1214 1231 1281 1186 1339 1284 1222 1234 1309 1273 1228 1291 1285 1283 1226 1230 1266 1291 1310 1220 1231 1267 1286 1235 1230 1196 1311 1233 1234 1213 1264 1228 1186 1212 1232 1212 1233 1242 1214 1167 1223 1201 1220 1140 1159 1156 1182 1218 1176 1238 1259 1179 1181 1207 1182 1178 1183 1187 1160 1168 1202 1161 1136 1225 1135 1228 1154 1178 1212 1176 1113 1156 1239 1200 1165 1171 1120 1185 1148 1157 1225 1171 1201 1198 1157 1181 1195 1119 1110 1130 1167 1147 1190 1152 1226 1105 1167 1171 1133 1120 1165 1144 1172 1194 1184 1208 1217 1168 1195 1140 1248 1170 1191 1208 1198 1267 1202 1128 1147 1165 1176 1183 1180 1265 1291 1167 1187 1148 1179 1182 1187 1172 1160 1257 1199 1144 1221 1254 1226 1212 1221 1270 1157 1291 1180 1201 1261 1155 1285 1191 1214 1173 1214 1158 1166 1253 1196 1192 1191 1260 1208 1181 1279 1213 1261 1152 1191 1201 1242 1197 1169 1189 1148 1225 1178 1217 1258 1217 1171 1171 1192 1161 1184 1153 1260 1217 1185 1183 1183 1225 1092 1209 1237 1165 1181 1195 1139 1217 1238 1141 1167 1170 1210 1100 1197 1146 1089 1215 1162 1192 1174 1215 1197 1239 1132 1203 1193 1186 1138 1207 1160 1134 1223 1154 1182 1217 1230 1188 1188 1166 1152 1105 1199 1160 1149 1166 1223 1201 1239 1156 1233 1166 1120 1150 1206 1223 1112 1123 1181 1143 1132 1181 1184 1174 1158 1152 1170 1160 1146 1168 1148 1173 1140 1167 1220 1171 1205 1139 1134 1168 1228 1184 1130 1141 1205 1166 1137 1177 1199 1233 1134 1157 1202 1193 1137 1166 1139 1158 1160 1207 1179 1218 1216 1120 1176 1183 1169 1155 1165 1191 1155 1135 1142 1094 1192 1108 1151 1199 1187 1195 1123 1178 1196 1194 1183 1205 1165 1244 1257 1178 1112 1137 1204 1134 1109 1163 1145 1134 1145 1213 1210 1168 1165 1189 1169 1171 1201 1138 1209 1213 1168 1149 1159 1171 1200 1151 1164 1174 1189 1183 1144 1170 1219 1218 1207 1169 1229 1188 1210 1150 1219 1202 1198 1182 1185 1199 1128 1153 1189 1223 1217 1154 1199 1233 1198 1160 1161 1236 1223 1243 1186 1205 1165 1195 1179 1209 1182 1170 1257 1203 1195 1197 1167 1215 1199 1188 1216 1205 1109 1215 1217 1161 1164 1257 1167 1180 1235 1254 1171 1164 1200 1187 1192 1206 1184 1160 1200 1194 1181 1233 1159 1202 1142 1205 1178 1122 1147 1168 1169 1201 1123 1204 1134 1294 1064 1176 1169 1179 1160 1182 1166 1163 1134 1176 1182 1132 1253 1188 1197 1181 1155 1166 1177 1171 1127 1147 1099 1196 1147 1198 1205 1226 1211 1163 1158 1137 1178 1172 1212 1214 1200 1223 1225 1275 1266 1198 1221 1209 1212 1255 1218 1232 1244 1219 1093 1191 1274 1199 1204 1182 1140 1230 1187 1159 1258 1238 1198 1190 1231 1213 1185 1209 1291 1157 1194 1243 1208 1205 1316 1249 1249 1223 1268 1212 1258 1241 1219 1253 1236 1213 1251 1223 1240 1250 1233 1261 1256 1176 1258 1203 1173 1261 1189 1177 1191 1191 1250 1178 1193 1174 1231 1180 1245 1161 1189 1143 1189 1205 1129 1175 1183 1119 1180 1160 1241 1222 1165 1161 1169 1172 1236 1192 1154 1170 1167 1216 1166 1210 1226 1120 1208 1219 1168 1191 1095 1103 1232 1116 1203 1200 1220 1210 1214 1194 1192 1182 1187 1185 1222 1181 1175 1178 1156 1140 1119 1161 1192 1160 1090 1153 1148 1187 1165 1136 1198 1171 1200 1171 1181 1236 1128 1181 1179 1175 1172 1204 1146 1177 1226 1149 1133 1184 1197 1184 1188 1159 1134 1142 1252 1200 1210 1224 1183 1217 1120 1142 1165 1248 1152 1238 1210 1198 1176 1172 1139 1137 1179 1151 1148 1206 1248 1147 1129 1243 1190 1148 1172 1217 1175 1199 1147 1161 1200 1148 1161 1229 1115 1126 1161 1178 1203 1161 1193 1139 1186 1199 1144 1117 1236 1137 1145 1094 1214 1154 1185 1144 1121 1175 1173 1155 1149 1198 1208 1193 1219 1187 1286 1106 1166 1174 1259 1161 1164 1147 1251 1168 1147 1208 1198 1187 1144 1162 1105 1240 1151 1230 1198 1200 1160 1139 1248 1135 1227 1141 1188 1184 1203 1169 1187 1149 1176 1190 1164 1215 1159 1139 1196 1205 1217 1226 1220 1173 1162 1170 1145 1206 1205 1178 1142 1180 1190 1188 1198 1221 1165 1261 1171 1180 1192 1176 1182 1207 1201 1293 1171 1259 1197 1184 1206 1277 1180 1233 1225 1208 1244 1325 1167 1229 1275 1240 1260 1231 1253 1212 1277 1311 1233 1363 1250 1260 1263 1304 1237 1293 1298 1332 1382 1297 1293 1319 1319 1332 1328 1255 1295 1300 1250 1314 1249 1357 1300 1292 1310 1260 1370 1377 1289 1337 1326 1366 1294 1317 1312 1335 1274 1326 1326 1238 1296 1339 1316 1286 1319 1371 1277 1310 1257 1277 1214 1246 1246 1206 1267 1230 1193 1248 1284 1275 1267 1215 1313 1279 1210 1208 1263 1243 1227 1223 1213 1217 1245 1270 1273 1280 1258 1233 1258 1150 1133 1168 1160 1182 1228 1151 1163 1181 1160 1183 1177 1241 1231 1194 1209 1178 1152 1202 1233 1159 1163 1217 1235 1217 1102 1158 1211 1207 1191 1164 1201 1242 1203 1176 1134 1204 1116 1145 1178 1218 1149 1198 1165 1173 1146 1135 1158 1176 1171 1181 1188 1202 1198 1127 1231 1278 1252 1256 1196 1211 1174 1198 1162 1171 1134 1196 1191 1228 1211 1148 1231 1150 1153 1187 1217 1180 1153 1214 1177 1184 1183 1174 1152 1184 1170 1192 1173 1147 1202 1201 1231 1231 1148 1220 1180 1220 1171 1162 1188 1230 1203 1170 1232 1192 1134 1235 1310 1142 1198 1221 1188 1198 1135 1191 1177 1175 1163 1181 1196 1208 1224 1188 1227 1234 1266 1176 1185 1186 1267 1167 1252 1196 1152 1178 1249 1270 1172 1201 1190 1182 1168 1191 1285 1222 1131 1173 1223 1179 1271 1200 1211 1226 1221 1197 1132 1200 1204 1217 1247 1226 1218 1155 1149 1135 1180 1207 1247 1196 1190 1279 1165 1296 1234 1133 1141 1228 1233 1218 1152 1181 1140 1197 1192 1201 1180 1237 1143 1199 1175 1211 1197 1231 1185 1170 1162 1209 1202 1232 1196 1218 1203 1212 1238 1229 1165 1229 1245 1167 1249 1202 1118 1238 1205 1199 1220 1145 1134 1157 1213 1159 1237 1176 1236 1142 1201 1167 1225 1151 1167 1229 1136 1177 1164 1197 1172 1126 1180 1202 1176 1240 1208 1199 1171 1197 1139 1159 1199 1181 1166 1212 1179 1212 1154 1187 1114 1160 1228 1214 1202 1229 1172 1243 1233 1235 1194 1194 1238 1221 1170 1264 1207 1172 1214 1191 1138 1119 1192 1169 1183 1142 1206 1129 1112 1228 1241 1173 1314 1138 1195 1193 1156 1178 1211 1150 1142 1236 1207 1193 1178 1210 1169 1221 1181 1155 1228 1154 1213 1168 1132 1146 1155 1165 1149 1191 1215 1279 1263 1193 1192 1164 1249 1110 1205 1179 1186 1176 1159 1101 1164 1214 1196 1187 1198 1234 1155 1181 1171 1140 1227 1174 1141 1234 1186 1164 1237 1167 1112 1205 1246 1175 1212 1222 1105 1146 1172 1222 1206 1224 1202 1146 1164 1176 1148 1189 1163 1241 1194 1242 1205 1204 1210 1220 1232 1192 1248 1212 1233 1160 1216 1156 1240 1202 1248 1201 1220 1143 1226 1199 1178 1210 1204 1169 1191 1207 1224 1197 1176 1229 1127 1231 1132 1255 1228 1202 1224 1152 1198 1196 1190 1269 1202 1168 1229 1194 1174 1170 1229 1193 1240 1243 1245 1232 1223 1218 1215 1206 1166 1177 1253 1211 1192 1186 1174 1211 1155 1205 1214 1178 1150 1191 1280 1186 1197 1217 1125 1213 1211 1142 1305 1164 1212 1142 1173 1146 1241 1196 1160 1209 1214 1193 1160 1169 1155 1206 1184 1189 1148 1176 1240 1198 1229 1233 1238 1194 1163 1256 1238 1198 1221 1258 1204 1228 1202 1210 1117 1231 1198 1171 1258 1272 1292 1135 1169 1183 1226 1129 1231 1238 1212 1263 1194 1192 1205 1238 1216 1235 1276 1195 1231 1190 1169 1165 1153 1202 1238 1205 1204 1170 1192 1210 1261 1210 1192 1265 1222 1240 1250 1275 1249 1163 1255 1185 1179 1158 1231 1193 1226 1171 1254 1245 1198 1196 1239 1288 1181 1184 1192 1221 1196 1205 1215 1268 1206 1235 1184 1306 1237 1259 1253 1192 1196 1193 1202 1230 1214 1233 1197 1175 1193 1207 1213 1148 1156 1250 1214 1264 1287 1273 1288 1304 1285 1197 1253 1285 1261 1311 1235 1264 1266 1246 1227 1292 1297 1282 1236 1325 1271 1254 1298 1274 1277 1173 1298 1283 1311 1207 1276 1275 1299 1302 1257 1294 1324 1262 1318 1343 1287 1240 1303 1235 1296 1256 1290 1269 1252 1289 1290 1286 1355 1341 1308 1265 1358 1319 1313 1285 1336 1261 1236 1207 1227 1284 1312 1265 1285 1318 1329 1240 1297 1236 1178 1276 1311 1315 1320 1245 1271 1249 1316 1300 1285 1267 1227 1260 1208 1339 1235 1303 1282 1275 1277 1227 1222 1204 1211 1162 1292 1249 1288 1239 1312 1300 1250 1234 1183 1220 1231 1204 1219 1210 1196 1264 1252 1245 1241 1262 1254 1222 1187 1210 1210 1155 1190 1170 1272 1268 1294 1228 1147 1223 1251 1219 1203 1214 1239 1256 1183 1183 1227 1237 1252 1245 1197 1202 1225 1226 1176 1245 1207 1208 1258 1218 1219 1194 1228 1231 1220 1257 1202 1196 1241 1243 1198 1219 1163 1259 1224 1190 1208 1267 1240 1174 1257 1203 1248 1206 1145 1191 1215 1161 1222 1210 1225 1195 1228 1245 1244 1203 1207 1262 1257 1274 1247 1243 1277 1269 1206 1277 1267 1222 1210 1225 1216 1245 1224 1192 1226 1198 1275 1258 1308 1335 1194 1196 1233 1189 1168 1165 1191 1205 1194 1223 1300 1205 1251 1298 1196 1194 1276 1254 1190 1260 1247 1288 1214 1278 1245 1248 1231 1186 1246 1211 1327 1217 1242 1236 1258 1258 1280 1266 1275 1292 1249 1269 1269 1306 1311 1291 1248 1333 1338 1284 1315 1273 1405 1188 1373 1351 1250 1360 1371 1334 1380 1353 1364 1285 1332 1329 1372 1374 1430 1398 1450 1395 1395 1390 1436 1476 1466 1444 1501 1445 1536 1401 1465 1445 1498 1486 1524 1501 1509 1449 1476 1447 1498 1499 1516 1499 1543 1505 1500 1518 1529 1509 1439 1464 1616 1468 1503 1513 1473 1470 1544 1509 1447 1450 1438 1486 1410 1511 1409 1464 1428 1415 1433 1441 1468 1359 1394 1401 1346 1446 1378 1390 1343 1467 1407 1386 1336 1355 1347 1329 1355 1291 1325 1316 1309 1283 1304 1256 1319 1286 1303 1297 1309 1306 1224 1314 1253 1273 1222 1170 1228 1278 1217 1152 1215 1223 1246 1228 1241 1194 1318 1236 1292 1194 1250 1236 1233 1301 1264 1199 1263 1246 1216 1258 1278 1154 1266 1274 1207 1230 1190 1222 1200 1191 1269 1201 1153 1239 1229 1231 1233 1232 1212 1258 1256 1181 1204 1209 1303 1234 1222 1248 1231 1194 1215 1195 1205 1168 1293 1219 1266 1307 1218 1279 1258 1210 1263 1268 1224 1295 1236 1276 1198 1267 1230 1209 1198 1196 1290 1235 1193 1224 1210 1240 1232 1251 1284 1231 1236 1296 1321 1219 1336 1263 1251 1257 1316 1309 1311 1227 1260 1265 1241 1241 1270 1269 1258 1239 1218 1219 1273 1224 1198 1239 1270 1229 1261 1236 1227 1251 1258 1236 1240 1192 1351 1247 1296 1211 1257 1242 1277 1273 1283 1200 1214 1240 1271 1294 1292 1258 1294 1189 1258 1236 1251 1281 1269 1221 1226 1300 1248 1257 1261 1223 1190 1191 1221 1272 1259 1247 1272 1288 1284 1230 1186 1238 1208 1358 1272 1237 1300 1229 1272 1282 1308 1207 1277 1226 1280 1235 1185 1195 1243 1245 1097 1252 1190 1336 1203 1212 1309 1201 1269 1215 1263 1295 1256 1267 1318 1215 1282 1247 1184 1302 1195 1208 1229 1276 1217 1275 1222 1255 1257 1285 1277 1213 1245 1250 1276 1286 1301 1264 1168 1230 1278 1202 1274 1245 1223 1233 1215 1241 1226 1174 1230 1176 1255 1280 1197 1289 1251 1278 1260 1193 1237 1275 1232 1263 1253 1238 1195 1232 1229 1180 1264 1175 1219 1231 1243 1217 1194 1232 1178 1187 1262 1235 1230 1250 1203 1222 1236 1146 1210 1176 1182 1252 1186 1171 1240 1178 1247 1252 1213 1188 1224 1175 1270 1278 1196 1204 1222 1255 1256 1186 1189 1213 1232 1188 1251 1213 1195 1233 1248 1251 1245 1175 1238 1264 1222 1240 1262 1130 1232 1245 1202 1207 1231 1237 1162 1229 1190 1244 1254 1181 1257 1164 1239 1265 1219 1219 1218 1216 1227 1230 1180 1212 1251 1228 1191 1260 1239 1151 1277 1211 1198 1282 1196 1197 1207 1246 1233 1200 1288 1218 1266 1236 1234 1186 1278 1256 1260 1273 1257 1237 1242 1260 1227 1271 1193 1253 1199 1211 1251 1232 1224 1197 1293 1250 1265 1234 1208 1236 1190 1182 1185 1202 1238 1259 1268 1239 1178 1279 1228 1297 1123 1190 1209 1197 1191 1183 1232 1262 1236 1240 1292 1183 1274 1229 1278 1256 1248 1290 1166 1196 1267 1258 1188 1202 1245 1219 1260 1291 1228 1171 1239 1231 1184 1255 1211 1236 1194 1244 1276 1180 1181 1242 1256 1243 1254 1234 1258 1202 1170 1272 1278 1241 1206 1233 1283 1206 1180 1279 1255 1240 1218 1266 1201 1262 1173 1197 1287 1220 1203 1240 1298 1263 1273 1208 1256 1218 1232 1259 1249 1240 1222 1289 1216 1278 1222 1298 1220 1280 1133 1212 1200 1174 1267 1242 1260 1248 1283 1274 1224 1249 1202 1198 1263 1230 1242 1230 1172 1198 1281 1268 1229 1238 1250 1291 1232 1319 1296 1262 1222 1262 1258 1207 1229 1238 1210 1286 1258 1254 1292 1237 1204 1237 1280 1234 1240 1253 1290 1222 1278 1229 1219 1307 1311 1349 1238 1302 1250 1271 1274 1220 1255 1266 1250 1190 1295 1285 1262 1229 1250 1308 1302 1264 1260 1279 1221 1220 1220 1308 1337 1245 1360 1304 1240 1302 1280 1250 1278 1227 1307 1249 1300 1319 1294 1283 1239 1265 1242 1272 1229 1346 1243 1260 1298 1302 1331 1253 1295 1301 1202 1261 1272 1257 1306 1278 1264 1235 1283 1323 1303 1274 1228 1250 1303 1186 1284 1230 1250 1183 1256 1265 1233 1249 1267 1287 1305 1245 1273 1227 1217 1227 1290 1193 1206 1261 1296 1199 1216 1286 1289 1245 1324 1209 1275 1212 1163 1310 1215 1271 1279 1184 1230 1214 1165 1180 1248 1253 1279 1232 1293 1237 1248 1291 1249 1232 1322 1211 1264 1278 1203 1248 1279 1235 1223 1209 1205 1246 1319 1227 1209 1210 1231 1276 1302 1240 1207 1232 1261 1263 1250 1242 1269 1230 1267 1265 1218 1247 1252 1266 1282 1306 1259 1274 1303 1253 1317 1279 1214 1255 1228 1262 1331 1230 1282 1280 1184 1254 1232 1213 1249 1219 1228 1203 1274 1279 1245 1219 1234 1195 1270 1186 1202 1224 1267 1353 1279 1266 1235 1323 1286 1219 1268 1267 1280 1219 1261 1234 1306 1272 1296 1232 1246 1218 1279 1236 1245 1242 1235 1289 1271 1279 1157 1292 1197 1299 1195 1222 1260 1257 1310 1227 1230 1273 1206 1238 1302 1260 1239 1247 1246 1223 1272 1312 1244 1269 1187 1276 1304 1283 1292 1258 1297 1305 1239 1314 1242 1199 1311 1301 1291 1230 1255 1224 1250 1283 1327 1269 1217 1245 1239 1293 1232 1302 1305 1307 1223 1377 1288 1384 1366 1336 1283 1282 1253 1284 1323 1308 1288 1324 1334 1270 1367 1359 1342 1345 1487 1396 1404 1380 1390 1468 1366 1449 1361 1467 1390 1385 1387 1414 1384 1386 1338 1464 1452 1398 1411 1464 1536 1447 1516 1511 1461 1497 1494 1516 1537 1598 1461 1487 1543 1485 1566 1495 1502 1529 1511 1524 1512 1526 1427 1549 1466 1514 1454 1396 1502 1439 1487 1417 1450 1477 1488 1440 1458 1429 1431 1427 1461 1393 1379 1394 1394 1416 1369 1385 1325 1334 1403 1315 1315 1406 1318 1354 1333 1400 1314 1356 1324 1285 1333 1322 1306 1317 1299 1271 1350 1330 1332 1290 1363 1261 1254 1207 1321 1311 1345 1278 1272 1271 1272 1287 1367 1295 1289 1283 1261 1229 1259 1304 1322 1324 1257 1227 1289 1254 1251 1310 1235 1292 1275 1260 1260 1232 1241 1311 1325 1281 1306 1261 1236 1230 1255 1246 1244 1278 1205 1246 1235 1209 1321 1293 1243 1317 1351 1226 1249 1297 1271 1228 1257 1278 1232 1217 1230 1228 1342 1231 1312 1224 1339 1237 1272 1240 1314 1291 1301 1241 1285 1330 1302 1295 1259 1324 1336 1300 1251 1291 1272 1300 1216 1303 1232 1238 1342 1273 1330 1271 1295 1285 1286 1265 1245 1199 1264 1246 1287 1282 1264 1231 1322 1231 1320 1227 1311 1293 1311 1258 1327 1225 1282 1233 1315 1319 1299 1271 1306 1303 1314 1288 1230 1295 1298 1229 1252 1283 1247 1247 1282 1312 1223 1294 1352 1252 1325 1328 1302 1340 1272 1246 1272 1281 1308 1290 1286 1204 1188 1262 1268 1251 1312 1198 1310 1229 1257 1305 1239 1268 1165 1271 1237 1308 1267 1198 1330 1236 1257 1251 1331 1278 1221 1215 1267 1223 1267 1193 1203 1250 1224 1273 1262 1308 1296 1225 1260 1293 1295 1241 1258 1226 1201 1230 1306 1189 1330 1268 1278 1220 1184 1282 1207 1297 1231 1254 1217 1225 1315 1245 1316 1171 1188 1245 1233 1312 1325 1226 1269 1270 1244 1279 1224 1253 1266 1274 1266 1261 1251 1247 1273 1267 1328 1262 1242 1268 1226 1240 1258 1286 1243 1254 1306 1228 1200 1301 1253 1263 1284 1207 1269 1214 1262 1257 1300 1297 1241 1212 1254 1267 1257 1259 1162 1294 1278 1353 1328 1213 1264 1261 1186 1223 1269 1229 1264 1211 1262 1241 1270 1222 1218 1265 1234 1284 1287 1204 1313 1334 1273 1266 1259 1240 1305 1266 1234 1281 1316 1256 1259 1245 1218 1282 1234 1200 1291 1231 1253 1234 1289 1241 1238 1223 1297 1319 1262 1281 1186 1295 1319 1207 1200 1213 1278 1295 1298 1174 1277 1260 1306 1257 1263 1309 1278 1298 1229 1189 1254 1344 1256 1244 1269 1241 1241 1307 1345 1210 1236 1300 1326 1283 1241 1206 1258 1285 1224 1284 1269 1252 1274 1209 1242 1255 1247 1287 1260 1242 1246 1259 1276 1309 1240 1192 1205 1336 1223 1240 1266 1253 1199 1263 1267 1269 1254 1254 1362 1245 1241 1295 1212 1270 1238 1299 1271 1268 1242 1267 1304 1299 1278 1251 1262 1230 1284 1275 1245 1232 1308 1240 1227 1284 1359 1227 1303 1268 1344 1246 1247 1301 1217 1282 1290 1280 1219 1214 1230 1286 1286 1227 1188 1231 1293 1265 1178 1237 1297 1280 1239 1283 1237 1210 1225 1284 1324 1223 1241 1250 1211 1274 1342 1269 1272 1231 1258 1245 1236 1258 1247 1222 1302 1276 1262 1258 1251 1241 1286 1312 1293 1294 1258 1215 1320 1297 1292 1345 1269 1373 1247 1245 1232 1254 1269 1198 1355 1221 1215 1235 1309 1294 1245 1216 1254 1346 1191 1190 1260 1237 1315 1181 1286 1241 1295 1319 1353 1296 1257 1263 1303 1283 1228 1282 1274 1247 1256 1189 1259 1293 1289 1271 1298 1335 1227 1256 1259 1288 1349 1305 1275 1253 1305 1300 1332 1319 1333 1229 1241 1289 1290 1271 1334 1295 1299 1306 1292 1326 1360 1302 1279 1267 1321 1308</counts>
			</dataPoints>
		</scan>
	</xrdMeasurement>
</xrdMeasurements>
