<?xml version="1.0"?>
<xrdMeasurements xmlns="http://www.xrdml.com/XRDMeasurement/2.3" xmlns:xsi="http://www.w3.org/2001/XMLSchema-instance" xsi:schemaLocation="http://www.xrdml.com/XRDMeasurement/2.3 http://www.xrdml.com/XRDMeasurement/2.3/XRDMeasurement.xsd" status="Completed" recordIdentifier="{08FD1BA0-F8DF-4391-8050-ED90A0BD1466}">
	<comment>
		<entry/>
	</comment>
	<sample type="To be analyzed">
		<id>GPSS_Li2MnCl4_072825_6887d6ca4e88dde4a694ab52</id>
		<name></name>
		<preparedBy></preparedBy>
	</sample>
	<xrdMeasurement measurementType="Scan" status="Completed" sampleMode="Reflection">
		<usedWavelength intended="K-Alpha 1">
			<kAlpha1 unit="Angstrom">1.5405980</kAlpha1>
			<kAlpha2 unit="Angstrom">1.5444260</kAlpha2>
			<kBeta unit="Angstrom">1.3922500</kBeta>
			<ratioKAlpha2KAlpha1>0.5000</ratioKAlpha2KAlpha1>
		</usedWavelength>
		<incidentBeamPath>
			<radius unit="mm">145.00</radius>
			<xRayTube id="1010048" name="Empyrean Cu LFF HR (9430 033 7310x)">
				<tension unit="kV">40.0</tension>
				<current unit="mA">15.0</current>
				<anodeMaterial>Cu</anodeMaterial>
				<focus type="Line">
					<length unit="mm">12.0</length>
					<width unit="mm">0.4</width>
					<takeOffAngle unit="deg">6.0</takeOffAngle>
				</focus>
			</xRayTube>
			<sollerSlit id="21010002" name="Soller slits 0.04 rad.">
				<opening unit="rad">0.0400</opening>
			</sollerSlit>
			<mask id="22031000" name="Fixed mask 13 mm">
				<width unit="mm">9.00</width>
			</mask>
			<divergenceSlit id="22120001" name="Divergence slit 1°" xsi:type="fixedDivergenceSlitType">
				<distanceToSample unit="mm">50.00</distanceToSample>
				<height unit="mm">1.52</height>
			</divergenceSlit>
		</incidentBeamPath>
		<sampleMovement xsi:type="spinningSampleMovementType">
			<spinnerRevolutionTime unit="seconds">1.0</spinnerRevolutionTime>
		</sampleMovement>
		<diffractedBeamPath>
			<radius unit="mm">145.00</radius>
			<antiScatterSlit id="22090040" name="AS slit 9 mm (PIXcel)" xsi:type="fixedAntiScatterSlitType">
				<height unit="mm">9.00</height>
			</antiScatterSlit>
			<sollerSlit id="21020003" name="Large Soller slits 0.04 rad.">
				<opening unit="rad">0.0400</opening>
			</sollerSlit>
			<filter id="20030001" name="Large beta-filter Nickel">
				<material>Ni</material>
				<thickness unit="mm">0.020</thickness>
			</filter>
			<detector id="7010019" name="PIXcel1D-Medipix3 detector" xsi:type="rtmsDetectorType">
				<phd unit="keV">
					<lowerLevel>4.02</lowerLevel>
					<upperLevel>11.27</upperLevel>
				</phd>
				<mode>Scanning</mode>
				<activeLength unit="deg">5.542</activeLength>
			</detector>
		</diffractedBeamPath>
		<scan appendNumber="0" mode="Continuous" scanAxis="Gonio" status="Completed">
			<header>
				<startTimeStamp>2025-07-29T12:54:10-07:00</startTimeStamp>
				<endTimeStamp>2025-07-29T13:02:17-07:00</endTimeStamp>
				<author>
					<name>AutomatedUser</name>
				</author>
				<source>
					<applicationSoftware version="1.7b (136)">PANalytical Aeris Instrument Suite</applicationSoftware>
					<instrumentControlSoftware version="3.2.00000000 20240306">AERIS</instrumentControlSoftware>
					<instrumentID>950485</instrumentID>
				</source>
			</header>
			<dataPoints>
				<positions axis="2Theta" unit="deg">
					<startPosition>10.00943322</startPosition>
					<endPosition>99.99442286</endPosition>
				</positions>
				<positions axis="Omega" unit="deg">
					<startPosition>5.00471661</startPosition>
					<endPosition>49.99721143</endPosition>
				</positions>
				<commonCountingTime unit="seconds">12.495</commonCountingTime>
				<counts unit="counts">2964 2879 2906 2907 2871 2915 2835 2845 2902 2906 2814 2932 2761 2821 2881 2714 2837 2855 2863 2917 2844 2897 2912 2858 2897 2810 2861 2862 2841 2820 2851 2804 2763 2825 2770 2984 2831 2803 2839 2939 2913 2848 2800 2791 2835 2795 2816 2874 2880 2965 2889 2951 2925 2877 2887 2882 2868 2796 2809 2879 2881 2902 2904 2856 2843 2771 2849 2871 2895 2867 2784 2785 2862 2874 2899 2858 2922 2939 2865 2906 2829 2844 3007 2927 2915 2894 2878 2951 2881 2967 2863 2922 2903 2868 2905 2956 2887 3013 2861 3054 2861 2839 2990 2860 2921 2919 2965 3008 2910 2965 3013 2886 2853 2946 2951 2869 2897 2924 2940 2915 2801 2881 2760 2804 2934 2810 2862 2822 2952 2835 2774 2884 2816 2821 2758 2755 2884 2843 2829 2732 2904 2763 2784 2833 2831 2785 2733 2761 2790 2657 2779 2774 2823 2754 2701 2756 2779 2725 2794 2779 2807 2747 2573 2679 2790 2885 2814 2761 2759 2683 2762 2697 2772 2767 2722 2671 2740 2805 2694 2686 2724 2757 2719 2735 2758 2722 2772 2692 2749 2688 2678 2790 2788 2790 2759 2746 2689 2662 2714 2731 2662 2816 2705 2649 2771 2731 2779 2686 2686 2697 2737 2696 2713 2764 2730 2803 2777 2751 2712 2735 2756 2733 2790 2780 2699 2814 2759 2773 2710 2724 2750 2747 2807 2804 2777 2869 2850 2767 2652 2710 2680 2788 2795 2677 2849 2769 2665 2837 2706 2830 2740 2781 2772 2745 2771 2777 2724 2819 2868 2852 2718 2806 2744 2971 2800 2808 2709 2774 2809 2733 2742 2817 2807 2821 2770 2803 2850 2890 2868 2700 2856 2821 2927 2775 2837 2764 2845 2795 2821 2891 2884 2823 2807 2741 2729 2880 2955 2898 2886 2859 2813 2906 2870 2998 2911 2920 2911 2958 2808 2810 2849 2767 2940 2880 2890 2985 3035 2920 2988 3093 2942 2991 2921 2968 3017 3015 2976 2961 3019 3035 2963 2999 3026 3057 3025 3046 3155 3009 3080 3107 3051 3165 3157 3067 3118 3086 3041 3172 3152 3035 3176 3107 3112 3223 3181 3205 3077 3150 3125 3147 3127 3242 3115 3264 3293 3279 3222 3321 3266 3386 3244 3316 3280 3413 3323 3344 3360 3419 3289 3320 3391 3438 3304 3504 3346 3427 3510 3336 3454 3436 3495 3535 3555 3569 3534 3546 3557 3615 3605 3557 3648 3566 3723 3714 3733 3694 3826 3768 3829 3933 3950 4017 4088 4092 4195 4319 4343 4483 4536 4704 4644 4867 5065 5046 5332 5365 5471 5431 5554 5452 5550 5547 5357 5127 5079 5231 5085 4987 5080 4971 4906 4834 4922 4945 4755 4703 4754 4642 4648 4702 4503 4583 4546 4518 4581 4366 4544 4410 4396 4416 4450 4599 4584 4608 4382 4562 4675 4593 4757 4670 4736 4747 4685 4791 4688 4672 4731 4637 4734 4569 4524 4449 4436 4545 4456 4501 4347 4349 4282 4414 4317 4293 4326 4272 4091 4280 4240 4184 4165 4128 4131 4030 3908 4016 4083 4045 3960 3977 4013 3897 3908 3901 3856 3823 3760 3860 3781 3749 3766 3701 3772 3825 3774 3715 3693 3596 3491 3651 3555 3542 3524 3502 3427 3525 3527 3455 3562 3481 3503 3510 3547 3543 3529 3522 3402 3520 3396 3496 3420 3447 3398 3433 3507 3359 3483 3533 3416 3352 3469 3536 3430 3386 3373 3406 3426 3304 3382 3425 3417 3463 3541 3264 3410 3291 3467 3321 3408 3311 3343 3407 3304 3375 3306 3394 3296 3212 3204 3228 3381 3355 3275 3350 3345 3388 3311 3400 3420 3258 3303 3247 3313 3314 3277 3385 3297 3282 3302 3219 3120 3262 3214 3227 3294 3327 3384 3254 3339 3217 3206 3273 3310 3264 3306 3250 3247 3250 3254 3166 3331 3261 3304 3188 3213 3229 3146 3122 3200 3142 3200 3275 3191 3125 3234 3238 3225 3292 3202 3183 3215 3153 3262 3218 3330 3195 3273 3269 3038 3207 3179 3212 3132 3263 3246 3264 3258 3277 3222 3125 3254 3151 3082 3222 3288 3198 3187 3172 3130 3233 3195 3179 3046 3224 3163 3174 3217 3199 3146 3164 3143 3155 3143 3218 3180 3182 3225 3188 3142 3195 3125 3198 3080 3181 3236 3086 3252 3211 3253 3065 3227 3048 3130 3128 3152 3267 3135 3189 3241 3050 3077 3116 3094 3167 3015 3239 3267 3169 3102 3147 3150 3084 3164 3142 3072 3174 3132 3098 3135 3178 3138 3022 3105 3218 3091 3123 3112 3140 3100 3187 3065 3188 3081 3227 3053 3159 3182 3113 3152 3172 3220 3268 3088 3094 3106 3245 3279 3159 3085 3122 3202 3168 3094 3043 3113 3165 3141 3011 3100 3194 3118 3023 3070 3016 3074 3078 3131 3059 3035 3157 3094 3101 3080 3109 3146 3027 3039 3103 3101 3083 3151 3089 3065 3078 3124 3144 3152 3120 3039 3140 3185 3078 3096 2964 3144 3083 3163 3109 3066 3125 3209 3058 2972 3065 3060 3057 3034 3125 3087 3091 2960 3068 3024 3148 3124 3129 3060 3019 3018 3118 3126 3050 2980 3104 3049 2897 3043 3024 2908 3041 2980 3086 3052 3069 3090 3045 3049 3055 3136 3050 3048 3009 3114 3005 2991 3042 3062 3090 3002 3040 3025 3066 2991 3085 2994 3066 3001 3082 3007 2980 2931 3080 3004 3013 2951 2977 2951 3087 2953 3064 2972 2944 3058 2921 2891 3070 2960 3060 2986 2919 3036 2982 3036 2940 3020 2914 2927 2899 2941 2917 3010 2974 2971 2887 2983 2981 2902 2948 2893 2816 2911 2976 2859 2898 2895 2949 2958 2786 2908 2948 2932 2923 2935 2964 2929 2972 2890 2885 2829 2921 2895 2856 2942 2897 2851 2866 2959 2927 2755 2921 2827 2984 3016 2864 2901 2930 2872 2853 2967 2897 2809 2883 2968 2922 2908 2868 2946 2822 2798 2963 2934 2844 2826 2778 2851 2827 2865 2799 3029 2880 2965 2830 2864 2841 2896 2926 2845 2875 2925 2911 2890 2884 2788 2998 2941 2848 2741 2736 2911 2847 2870 2915 2858 2859 2780 2875 2766 2798 2891 2930 2948 2932 2797 2900 2860 2873 2780 2879 2919 2833 2767 2917 2942 2804 2814 2951 2932 2977 2857 2823 2903 2757 2914 2785 2860 2866 2871 2919 2867 2871 2918 2772 2842 2868 2940 3001 2969 2773 2822 2840 2828 2962 2825 2786 2770 2935 3030 2861 2889 3030 2900 2879 2923 2886 2884 2929 2896 2872 2850 2891 2968 2865 2909 2842 2891 2900 2919 2979 2913 2987 2925 2902 2969 2937 2749 2944 2871 2876 2835 2917 2857 2858 2914 2912 2917 2809 2916 2860 2824 2805 2834 2899 2985 2949 2993 2878 2892 2799 2801 2915 2981 2999 2862 2819 2895 2836 2851 2928 2835 2834 2870 2834 2868 2888 2790 2828 2842 2759 2831 2852 2871 2808 2906 2826 2898 2835 2841 2906 2828 2859 2835 2718 2867 2769 2844 2818 2821 2758 2810 2754 2779 2726 2888 2826 2785 2788 2766 2773 2725 2744 2696 2706 2672 2692 2771 2734 2783 2642 2760 2752 2809 2739 2712 2761 2696 2808 2640 2688 2714 2754 2571 2715 2732 2692 2637 2662 2643 2631 2597 2716 2662 2620 2616 2674 2624 2697 2671 2679 2731 2689 2596 2669 2593 2702 2609 2635 2590 2564 2492 2484 2537 2540 2516 2649 2597 2571 2607 2600 2537 2563 2623 2618 2440 2574 2468 2615 2571 2456 2629 2494 2487 2514 2474 2458 2447 2504 2542 2480 2376 2524 2359 2457 2477 2492 2478 2489 2441 2498 2382 2453 2425 2523 2424 2490 2440 2466 2409 2342 2387 2352 2455 2425 2461 2488 2289 2409 2364 2399 2496 2317 2412 2356 2322 2373 2340 2357 2371 2426 2371 2297 2356 2299 2362 2322 2301 2440 2365 2441 2343 2330 2287 2291 2368 2272 2395 2333 2311 2258 2249 2274 2275 2304 2285 2209 2279 2282 2324 2242 2167 2201 2221 2322 2274 2364 2357 2239 2310 2208 2238 2281 2189 2108 2245 2174 2223 2301 2190 2226 2275 2180 2225 2227 2236 2256 2290 2183 2274 2174 2223 2285 2347 2151 2263 2285 2146 2245 2233 2269 2177 2253 2229 2196 2195 2240 2182 2199 2283 2221 2165 2164 2169 2189 2165 2226 2137 2187 2192 2177 2098 2191 2113 2219 2127 2206 2299 2195 2220 2168 2216 2201 2164 2215 2266 2177 2179 2116 2185 2162 2180 2141 2142 2145 2124 2204 2108 2012 2202 2118 2191 2123 2132 2071 2165 2084 2179 2169 2175 2150 2202 2161 2102 2172 2118 2121 2198 2068 2177 2139 2252 2223 2246 2182 2193 2186 2127 2184 2230 2137 2226 2231 2188 2220 2201 2198 2207 2212 2126 2136 2180 2151 2118 2158 2189 2116 2197 2195 2215 2133 2141 2126 2234 2167 2202 2197 2193 2147 2296 2182 2228 2144 2166 2142 2207 2208 2273 2177 2250 2133 2153 2137 2191 2125 2198 2207 2215 2173 2154 2211 2213 2182 2153 2217 2146 2257 2234 2160 2141 2169 2226 2215 2191 2163 2170 2187 2207 2205 2171 2187 2173 2107 2193 2239 2132 2169 2211 2222 2198 2096 2130 2135 2201 2129 2221 2112 2157 2118 2125 2190 2147 2151 2174 2167 2163 2157 2179 2243 2156 2082 2251 2178 2124 2129 2085 2168 2166 2169 2118 2098 2143 2166 2156 2170 2185 2176 2139 2112 2000 2019 2157 2091 2115 2085 2183 2126 2086 1996 2073 2082 2146 2150 2143 2068 2110 2065 2037 2119 2074 2078 2010 2091 2097 2045 2106 1968 2136 2078 1992 2006 2011 2018 2075 2134 2011 2048 2107 2054 2094 2033 2039 2019 2036 2077 1936 2130 2025 2021 2029 2006 2004 2069 2009 2015 2038 1966 1972 2035 1982 1972 2008 1941 2003 1915 1993 1976 1983 2011 1940 1929 1960 1999 2017 1978 1990 2014 1938 1905 1988 1920 1925 1928 1877 1977 1983 2004 1908 1911 1973 1994 1943 2006 1964 1972 2014 1914 1920 1958 1871 1873 1939 1954 1871 1972 1938 1939 1977 1967 2042 1932 2102 2128 2095 2067 2186 2213 2119 2289 2403 2441 2586 2621 2824 2882 3009 3244 3280 3459 3626 3686 3723 3668 3888 3534 3522 3595 3403 3355 3225 3110 3049 2894 2897 2820 2662 2703 2592 2464 2500 2470 2397 2346 2256 2330 2214 2279 2291 2193 2216 2123 2135 2124 2058 2173 2060 2059 2042 1960 2016 2097 1973 1969 2006 2003 1925 1827 1869 1944 1913 1861 1916 1889 1761 1846 1755 1715 1818 1818 1846 1883 1760 1799 1796 1845 1755 1777 1818 1748 1769 1811 1810 1768 1743 1780 1785 1741 1768 1786 1788 1817 1852 1822 1775 1780 1823 1754 1856 1811 1807 1807 1836 1804 1895 1777 1909 1875 1863 1911 1855 2001 2067 2042 2131 2226 2347 2477 2532 2650 2892 3099 3383 3636 3732 4133 4237 4563 4691 4800 4969 4883 4865 4813 4595 4434 4370 4063 4048 3859 3683 3487 3356 3207 3112 3046 2983 2937 2719 2690 2686 2543 2681 2505 2535 2482 2372 2370 2346 2224 2254 2303 2234 2180 2201 2067 2211 2142 2119 2146 2148 2162 2111 2145 2164 2197 2252 2247 2311 2437 2517 2477 2580 2524 2575 2636 2694 2598 2774 2645 2552 2526 2515 2352 2355 2289 2204 2233 2176 2081 1958 1986 1961 1873 1911 1924 1878 1749 1795 1777 1755 1792 1848 1716 1686 1673 1719 1718 1709 1667 1683 1723 1625 1659 1689 1662 1691 1734 1683 1584 1558 1654 1630 1614 1649 1677 1602 1622 1543 1622 1606 1601 1610 1651 1561 1640 1609 1618 1587 1609 1611 1587 1559 1647 1657 1594 1679 1584 1585 1522 1569 1634 1525 1591 1523 1582 1519 1553 1509 1595 1568 1546 1586 1522 1584 1577 1500 1565 1524 1498 1517 1502 1593 1577 1496 1561 1468 1593 1562 1510 1571 1518 1553 1489 1484 1499 1545 1551 1559 1480 1524 1470 1497 1561 1481 1530 1601 1461 1523 1505 1556 1462 1526 1557 1486 1485 1465 1526 1423 1482 1495 1549 1474 1475 1464 1401 1533 1572 1496 1543 1438 1485 1433 1540 1488 1578 1412 1522 1467 1511 1499 1529 1495 1520 1538 1476 1521 1482 1559 1501 1479 1484 1435 1485 1434 1441 1511 1461 1517 1440 1468 1429 1486 1496 1543 1484 1462 1444 1521 1473 1470 1416 1478 1482 1545 1461 1438 1475 1520 1505 1392 1465 1430 1496 1486 1500 1465 1532 1441 1432 1435 1450 1495 1469 1531 1466 1464 1502 1453 1455 1495 1409 1508 1454 1484 1520 1488 1513 1409 1461 1477 1504 1459 1472 1423 1471 1490 1464 1501 1497 1506 1467 1507 1439 1486 1431 1503 1558 1457 1500 1462 1439 1468 1437 1504 1441 1403 1546 1560 1506 1453 1445 1462 1538 1465 1456 1480 1419 1486 1516 1527 1487 1472 1502 1515 1415 1570 1511 1489 1451 1548 1512 1401 1449 1508 1475 1548 1516 1479 1465 1464 1376 1509 1586 1451 1584 1520 1483 1523 1503 1487 1485 1503 1445 1482 1510 1565 1486 1525 1474 1476 1534 1510 1536 1539 1560 1472 1587 1570 1514 1521 1509 1523 1572 1496 1550 1497 1603 1570 1577 1683 1612 1704 1597 1672 1690 1624 1641 1683 1659 1647 1678 1697 1711 1669 1746 1755 1823 1806 1799 1887 1795 1841 1918 1936 1938 1993 2023 2081 2124 2228 2387 2533 2640 2921 3197 3351 3712 4029 4552 5008 5803 6306 7021 7875 8747 9697 10289 11114 11407 11952 12161 12368 12125 11871 11454 10730 10579 10213 9811 9178 8505 7918 7433 6863 6557 6389 5910 5613 5423 5138 5022 4606 4346 4282 4276 4178 4163 4076 3742 3780 3782 3652 3649 3700 3532 3628 3581 3507 3478 3385 3261 3354 3302 3240 3067 3018 2958 2885 2717 2743 2712 2701 2647 2585 2669 2601 2656 2616 2653 2797 2740 2886 2889 3031 3016 3078 3095 3020 2958 2852 2977 2871 2705 2712 2624 2619 2516 2357 2284 2269 2215 2153 2063 2090 1981 1976 1949 1903 1874 1774 1849 1769 1713 1655 1728 1610 1621 1651 1626 1574 1581 1526 1517 1572 1608 1463 1515 1454 1459 1546 1476 1497 1427 1392 1467 1457 1469 1427 1493 1465 1449 1422 1434 1427 1390 1440 1483 1458 1486 1459 1417 1385 1365 1404 1394 1363 1518 1436 1485 1414 1471 1465 1415 1403 1430 1378 1464 1395 1357 1332 1365 1317 1378 1423 1348 1438 1369 1413 1448 1409 1320 1337 1373 1340 1388 1329 1384 1444 1392 1321 1408 1386 1394 1343 1379 1356 1359 1343 1399 1351 1373 1344 1384 1334 1360 1375 1326 1366 1331 1382 1320 1411 1383 1346 1360 1316 1287 1379 1416 1350 1358 1345 1432 1372 1390 1325 1365 1342 1370 1356 1385 1306 1399 1320 1329 1378 1327 1360 1325 1350 1342 1349 1317 1374 1376 1330 1362 1294 1425 1304 1353 1350 1387 1360 1327 1388 1319 1355 1327 1380 1328 1312 1337 1392 1382 1305 1354 1315 1317 1336 1357 1309 1376 1383 1389 1396 1312 1336 1309 1323 1308 1360 1353 1389 1329 1297 1361 1310 1364 1292 1348 1270 1372 1381 1376 1315 1362 1268 1313 1389 1356 1375 1355 1411 1399 1345 1402 1427 1435 1496 1468 1420 1435 1506 1414 1455 1486 1451 1435 1459 1411 1335 1382 1361 1377 1332 1364 1374 1353 1386 1360 1384 1351 1344 1365 1354 1404 1340 1304 1340 1376 1319 1355 1366 1318 1350 1396 1327 1294 1311 1292 1329 1328 1374 1365 1341 1318 1343 1400 1384 1385 1405 1398 1308 1286 1368 1292 1414 1403 1378 1368 1375 1386 1432 1379 1361 1405 1347 1364 1307 1370 1333 1277 1326 1352 1297 1317 1361 1371 1333 1268 1310 1303 1310 1323 1262 1301 1322 1259 1238 1313 1280 1312 1286 1305 1253 1294 1315 1300 1256 1258 1270 1285 1306 1228 1246 1270 1305 1210 1254 1280 1294 1223 1309 1317 1260 1243 1233 1299 1291 1249 1239 1317 1272 1219 1219 1248 1284 1279 1216 1261 1242 1225 1268 1274 1232 1336 1292 1276 1205 1212 1212 1200 1232 1239 1294 1180 1239 1266 1262 1284 1206 1267 1280 1329 1287 1265 1311 1265 1248 1325 1261 1253 1223 1303 1256 1223 1157 1257 1197 1268 1248 1233 1238 1278 1281 1303 1256 1238 1274 1304 1295 1275 1211 1256 1210 1335 1235 1186 1194 1222 1296 1230 1302 1261 1223 1197 1244 1216 1259 1212 1217 1263 1232 1265 1310 1297 1250 1187 1240 1202 1277 1164 1231 1187 1204 1254 1255 1274 1228 1273 1238 1188 1272 1277 1233 1215 1183 1228 1185 1197 1220 1244 1235 1276 1263 1203 1244 1241 1286 1191 1202 1200 1162 1226 1264 1262 1176 1249 1257 1200 1216 1199 1160 1256 1215 1209 1242 1271 1245 1231 1198 1278 1216 1264 1252 1229 1238 1211 1234 1256 1237 1226 1254 1233 1231 1254 1224 1267 1326 1238 1197 1237 1209 1237 1233 1157 1240 1195 1205 1179 1184 1218 1296 1219 1128 1155 1219 1267 1271 1283 1289 1303 1212 1285 1268 1217 1188 1219 1190 1218 1263 1291 1184 1210 1188 1165 1221 1208 1227 1251 1204 1212 1230 1229 1201 1154 1239 1255 1192 1167 1195 1224 1202 1207 1232 1275 1172 1269 1227 1254 1242 1219 1223 1234 1153 1270 1095 1182 1170 1170 1178 1138 1229 1181 1201 1236 1242 1269 1253 1147 1178 1220 1219 1235 1201 1185 1201 1215 1203 1181 1197 1163 1191 1184 1173 1245 1207 1197 1206 1232 1223 1181 1232 1193 1182 1175 1237 1171 1363 1213 1194 1226 1199 1259 1215 1265 1263 1202 1195 1287 1229 1251 1121 1192 1181 1244 1229 1220 1221 1149 1215 1209 1188 1199 1227 1188 1114 1166 1287 1209 1223 1250 1122 1222 1199 1246 1179 1161 1139 1242 1202 1221 1218 1160 1239 1175 1138 1253 1237 1246 1236 1233 1213 1236 1212 1191 1264 1196 1246 1163 1177 1237 1196 1134 1175 1256 1206 1237 1285 1172 1237 1139 1225 1205 1259 1186 1198 1227 1225 1212 1182 1202 1203 1146 1229 1249 1234 1249 1193 1208 1204 1223 1193 1165 1108 1246 1183 1153 1193 1157 1200 1180 1192 1186 1235 1146 1227 1169 1233 1228 1243 1237 1272 1139 1165 1209 1183 1189 1185 1220 1160 1247 1203 1195 1153 1177 1223 1222 1137 1166 1189 1201 1172 1232 1245 1229 1238 1189 1211 1154 1182 1231 1218 1126 1215 1213 1237 1149 1225 1158 1190 1196 1184 1182 1291 1192 1208 1173 1194 1208 1206 1205 1126 1205 1169 1245 1197 1184 1130 1189 1217 1215 1216 1167 1231 1226 1282 1206 1136 1181 1178 1210 1274 1199 1190 1156 1234 1214 1223 1213 1187 1262 1166 1211 1230 1178 1244 1224 1184 1134 1139 1148 1152 1218 1152 1163 1188 1179 1272 1183 1177 1225 1160 1256 1282 1189 1194 1244 1163 1235 1215 1200 1212 1226 1238 1231 1175 1140 1215 1175 1187 1207 1218 1235 1172 1252 1236 1208 1181 1214 1215 1227 1180 1218 1263 1255 1214 1164 1238 1236 1236 1117 1189 1236 1294 1251 1195 1207 1212 1285 1232 1117 1226 1230 1208 1216 1175 1238 1246 1204 1213 1215 1232 1246 1244 1253 1186 1258 1172 1300 1351 1327 1257 1302 1331 1338 1331 1313 1370 1420 1464 1459 1613 1618 1669 1736 1819 1947 1965 2021 2133 2297 2258 2349 2318 2240 2228 2160 1988 2055 2080 1980 2077 1952 1967 1948 1819 1742 1661 1647 1588 1487 1530 1508 1486 1457 1412 1458 1387 1427 1363 1327 1379 1309 1389 1260 1307 1273 1328 1259 1270 1313 1226 1189 1204 1271 1231 1200 1241 1151 1204 1225 1273 1167 1198 1229 1186 1147 1165 1189 1209 1233 1234 1205 1176 1173 1225 1221 1159 1139 1170 1206 1261 1184 1234 1186 1226 1233 1209 1212 1241 1185 1273 1156 1252 1278 1193 1272 1233 1253 1295 1304 1278 1315 1257 1283 1288 1240 1255 1241 1256 1281 1276 1286 1270 1252 1229 1219 1297 1189 1244 1189 1247 1125 1240 1220 1148 1249 1186 1266 1211 1173 1171 1199 1175 1245 1174 1194 1240 1189 1195 1220 1140 1249 1163 1192 1158 1151 1148 1173 1123 1173 1157 1170 1179 1182 1259 1178 1167 1160 1156 1199 1251 1250 1197 1148 1114 1150 1213 1190 1210 1094 1172 1183 1205 1166 1138 1179 1201 1201 1233 1129 1143 1141 1240 1179 1197 1246 1187 1109 1104 1245 1138 1165 1190 1212 1172 1175 1172 1138 1150 1220 1125 1176 1233 1143 1224 1161 1161 1140 1226 1225 1131 1211 1194 1141 1132 1210 1199 1110 1169 1102 1219 1200 1179 1123 1176 1145 1151 1216 1176 1165 1212 1190 1162 1145 1138 1129 1207 1191 1275 1230 1223 1114 1174 1186 1215 1192 1194 1197 1163 1217 1210 1173 1145 1189 1197 1144 1214 1200 1223 1224 1227 1178 1196 1181 1189 1180 1232 1231 1199 1186 1219 1177 1190 1092 1170 1202 1247 1185 1188 1162 1236 1134 1179 1149 1166 1189 1153 1195 1233 1205 1217 1165 1166 1150 1146 1181 1222 1140 1256 1208 1201 1190 1167 1188 1167 1175 1243 1152 1243 1180 1180 1220 1117 1179 1176 1179 1191 1162 1200 1160 1228 1218 1194 1236 1231 1235 1128 1206 1246 1183 1202 1183 1197 1194 1174 1141 1182 1292 1267 1211 1192 1221 1267 1195 1163 1251 1177 1249 1262 1251 1258 1240 1302 1270 1260 1259 1248 1307 1306 1386 1245 1310 1366 1324 1315 1339 1361 1417 1357 1394 1342 1381 1405 1427 1442 1489 1485 1537 1558 1627 1600 1756 1811 1795 1961 2120 2289 2511 2745 3001 3403 3877 4338 4712 5329 5615 5975 6387 6690 6946 6887 6808 6469 6270 5889 5806 5596 5383 5560 5380 5344 5216 4996 4824 4426 4164 3837 3526 3358 3081 2927 2681 2539 2455 2403 2329 2216 2155 2129 2082 2031 1967 1859 1763 1743 1732 1663 1605 1611 1606 1567 1561 1552 1572 1540 1511 1465 1363 1389 1407 1389 1354 1373 1320 1303 1313 1295 1344 1324 1266 1257 1271 1294 1239 1276 1275 1293 1274 1288 1264 1264 1270 1273 1271 1238 1219 1269 1262 1310 1341 1331 1306 1341 1388 1313 1451 1368 1454 1519 1494 1562 1619 1670 1641 1612 1774 1736 1732 1860 1775 1829 1815 1757 1750 1814 1795 1728 1796 1822 1704 1709 1736 1677 1665 1607 1600 1629 1521 1584 1542 1512 1481 1484 1407 1424 1395 1409 1379 1437 1397 1294 1296 1346 1261 1303 1281 1213 1298 1260 1195 1272 1213 1230 1210 1213 1222 1245 1141 1275 1149 1189 1185 1218 1219 1231 1182 1122 1140 1181 1243 1138 1197 1182 1138 1083 1225 1194 1162 1166 1154 1175 1241 1189 1126 1145 1211 1155 1167 1159 1198 1195 1145 1177 1163 1161 1159 1193 1174 1197 1213 1203 1167 1183 1149 1162 1199 1243 1187 1159 1199 1182 1232 1240 1210 1177 1236 1248 1236 1312 1280 1267 1344 1337 1465 1478 1519 1564 1590 1678 1679 1691 1782 1758 1717 1674 1666 1690 1625 1668 1597 1693 1645 1633 1636 1693 1665 1576 1581 1550 1487 1486 1431 1425 1452 1424 1410 1334 1344 1288 1336 1353 1292 1295 1293 1298 1251 1273 1268 1193 1253 1158 1202 1211 1213 1144 1247 1163 1152 1166 1110 1161 1142 1197 1101 1128 1151 1166 1120 1142 1119 1117 1156 1119 1135 1098 1127 1094 1144 1140 1070 1120 1079 1100 1195 1142 1138 1120 1099 1090 1163 1122 1095 1090 1131 1109 1201 1098 1127 1060 1048 1115 1152 1139 1091 1077 1138 1108 1068 1055 1090 1112 1100 1142 1126 1156 1061 1130 1110 1103 1140 1111 1087 1161 1122 1110 1102 1039 1023 1110 1112 1110 1132 1172 1112 1097 1074 1109 1035 1106 1097 1130 1135 1135 1073 1066 1127 1153 1126 1130 1133 1082 1121 1062 1107 1083 1081 1098 1125 1060 1132 1179 1117 1102 1038 1030 1137 1081 1096 1123 1109 1179 1122 1107 1114 1164 1110 1136 1151 1030 1109 1042 1087 1097 1033 1058 1112 1057 1100 1087 1114 1058 1130 1073 1118 1116 1094 1091 1079 1076 1147 1111 1084 1050 1060 1068 1135 1026 1077 1112 1053 1119 1083 1075 1062 1120 1065 1127 1066 1107 1057 1071 1049 1096 1081 1085 1042 1109 1058 1057 1149 1119 1098 1077 1151 1134 1150 1087 1042 1078 1086 1089 1012 1114 1070 1096 1029 1122 1031 1009 1030 1034 1020 1086 1096 1100 1111 1096 1148 1051 1143 1134 1044 1148 1095 1077 1072 1095 1098 1022 1132 1083 1157 1054 1091 1041 1085 1054 1052 1069 1029 1076 1072 1038 1064 1081 1049 1032 1073 1072 1058 1067 1142 1022 1094 1079 1118 1137 1045 1046 1056 1012 1019 1088 1113 1108 1087 1034 1112 1024 1098 1078 1083 1049 1150 1026 1127 1057 1028 1032 1082 1041 1023 1045 1061 1045 1105 1074 1066 1082 1059 1051 1014 1066 1083 1034 1086 1002 1072 1069 1075 1008 1105 1041 1067 1031 1010 1061 1045 1022 999 1122 1067 1098 1010 1099 1080 1039 1093 1100 1074 1096 1124 1115 1075 1090 1030 1120 1122 1034 1066 1128 1056 994 1006 1046 1051 1010 996 1059 1088 1106 1066 1079 1101 1064 1040 1107 1070 1065 1114 1021 1102 1100 1034 1095 1061 1076 1053 1096 1121 1056 1081 1048 1048 1089 1061 1091 1017 1041 1085 1049 1115 1094 1043 1045 1028 1055 1057 1028 1103 1013 1049 1085 1059 1041 1041 1048 1028 994 1083 1019 1038 1087 1052 1122 1037 986 1038 1081 1083 1060 1051 1016 1005 1044 1068 1070 1073 1111 985 1071 1029 1046 1031 1044 1047 1049 1056 1039 1057 1066 1066 1093 996 969 1103 1130 1071 1008 1060 1058 1027 1125 1097 1053 1123 1039 1079 1040 1044 1010 1040 1125 1028 1109 1078 1046 1055 1060 1072 969 1028 1045 1065 1023 1056 1117 1085 1036 1063 1067 1051 1021 1053 980 1062 1081 1091 1016 1061 1014 1066 1118 992 1050 1062 1003 1114 1072 1013 1049 1066 1118 1091 1059 1051 1063 1072 1044 1062 1076 1008 1026 1052 1083 1038 1032 1029 1022 1078 1070 1092 1100 1078 1083 1066 1071 1052 1115 1117 993 1075 1064 1129 1010 1089 1037 1088 1103 1075 1145 1103 1180 1160 1154 1131 1271 1255 1220 1244 1217 1188 1239 1224 1156 1189 1196 1201 1208 1208 1176 1163 1141 1205 1204 1129 1163 1128 1141 1115 1161 1098 1110 1130 1140 1083 1088 1103 1089 1100 1106 1109 1086 1119 1115 1119 1150 1053 1099 1134 1104 1100 1109 1106 1086 1131 1085 1065 1179 1177 1135 1174 1186 1239 1169 1215 1257 1353 1456 1479 1585 1607 1674 1701 1867 1769 1780 1725 1704 1652 1654 1533 1594 1550 1556 1529 1558 1549 1548 1529 1554 1566 1544 1429 1352 1410 1346 1307 1254 1239 1231 1180 1131 1174 1215 1124 1196 1180 1125 1158 1135 1115 1061 1138 1128 1085 1081 1118 1129 1075 1049 1091 1054 999 1062 1052 1057 1063 1086 1104 1066 1116 1067 978 1069 1083 1027 1055 1020 1074 1107 1025 1078 1032 1066 1001 989 1047 1078 1113 1073 1103 1099 1020 997 1086 1004 1046 1111 1075 1093 1072 1033 1039 1044 1097 1092 1019 1082 1092 1060 1096 1080 1142 1111 1103 1073 1135 1185 1050 1067 1119 1118 1136 1122 1197 1276 1243 1255 1251 1315 1283 1319 1309 1356 1312 1269 1327 1311 1306 1296 1309 1311 1321 1263 1222 1272 1266 1223 1229 1223 1196 1194 1162 1168 1215 1196 1169 1189 1156 1150 1038 1151 1108 1130 1112 1058 1053 1147 1145 1035 1076 1101 999 1033 1056 1047 1127 1037 1062 1108 1076 1034 1107 1105 1069 1059 1030 1049 1030 1069 1041 1079 1074 1054 1037 1009 1033 1004 1023 1040 1048 992 1014 1070 1024 1054 1009 1047 1050 1117 1020 1138 1059 1061 1032 1094 1003 1126 982 1061 1045 1058 1057 1090 1056 1068 1086 1069 1064 1037 1089 1083 1042 1093 1064 1094 1143 1116 1082 1085 1077 1071 1104 1117 1043 1075 1081 1091 1143 1154 1104 1099 1097 1089 1125 1108 1076 1140 1181 1101 1170 1191 1189 1250 1241 1265 1382 1405 1507 1534 1776 1768 1942 2028 2207 2302 2426 2434 2414 2366 2306 2223 2130 2023 2003 1841 1914 1963 2024 1957 2054 2037 2044 2006 1916 1906 1938 1933 1729 1753 1676 1607 1555 1474 1470 1478 1404 1365 1419 1363 1412 1385 1272 1316 1320 1252 1288 1276 1299 1205 1262 1211 1220 1186 1184 1117 1200 1144 1167 1087 1139 1127 1143 1131 1080 1117 1045 1071 1102 1041 1029 1116 1136 1091 1094 1093 1120 1118 1070 1056 1041 1102 1028 1061 1058 1075 1094 1004 1117 1069 1013 1084 1041 1058 1065 997 1025 1094 1095 1114 1048 1054 1024 991 1031 1109 1012 1069 1080 1079 1093 1011 1009 1089 1033 1049 1062 1065 1030 1062 1095 1091 1054 1083 1169 1045 1078 1087 1112 1115 1091 1088 1170 1192 1192 1226 1102 1136 1116 1153 1197 1104 1190 1191 1185 1126 1114 1122 1109 1113 1168 1128 1137 1115 1020 1148 1071 1026 1096 1116 1085 1089 1126 1068 1069 1116 1052 1062 1046 1030 1012 1056 1115 1020 1008 1054 1111 1066 1085 1106 1072 1052 1041 1080 1070 1097 1075 1088 1128 1066 1154 1121 1152 1188 1227 1252 1281 1311 1387 1357 1298 1330 1343 1284 1248 1226 1261 1209 1156 1193 1228 1228 1229 1250 1274 1358 1226 1294 1233 1207 1154 1231 1231 1193 1163 1174 1129 1137 1181 1073 1139 1107 1105 1114 1102 1100 1100 1107 1100 1113 1035 1095 1055 1087 1040 1102 1044 1101 1112 1088 1052 1071 1008 1039 1034 1114 1090 1112 1062 1113 1023 1027 1087 989 1069 1028 1094 1024 1092 1031 1035 999 1094 1037 1054 1040 1037 1026 1034 1024 1052 1043 1010 1019 1034 1019 961 975 1055 963 1070 1008 1019 1044 994 1022 1013 971 1056 1005 1084 1009 970 1061 941 1052 965 1047 1048 985 1002 1031 994 961 939 1031 1031 950 991 980 955 1020 1056 1027 992 1053 1057 1006 986 1000 1034 1043 987 963 1028 967 1008 1033 1034 930 1016 1009 952 1016 978 1018 1024 1023 933 1031 996 1062 1063 1024 1035 1100 1025 1038 1027 973 1016 1027 981 1016 939 993 1045 1031 963 965 1063 1052 1009 1083 1044 1008 1076 1047 1014 971 1000 1008 948 1037 1032 993 1105 983 989 1047 1006 1029 1030 1022 1011 1044 1021 1067 1006 1034 1039 1033 1083 974 1064 1053 998 1007 1014 1011 936 980 987 1012 1023 982 1030 1002 968 951 1018 1006 1026 996 986 1024 1065 1016 1068 971 1051 966 990 1024 982 1006 992 990 1001 1003 955 953 965 1003 992 1014 1011 989 1044 970 978 1006 1056 973 1044 981 1010 996 987 986 988 1007 974 1018 935 976 1023 966 939 1054 1053 1003 1036 1007 1011 983 1032 1006 1015 969 1000 1039 984 977 1051 1037 1041 965 996 1005 1063 1031 1038 1036 987 1019 976 1024 961 990 991 1023 980 994 973 970 942 982 1037 1066 1017 1050 1009 998 1011 988 1027 1015 958 1023 951 980 1019 1006 997 961 997 1007 984 1006 1002 999 1024 978 1047 1011 1010 1027 976 982 1063 1001 1042 994 968 955 1006 1004 992 1042 997 1016 937 964 988 993 1036 1044 979 935 993 946 1033 1020 1009 1003 1002 1009 1048 1057 965 1058 955 982 964 930 1005 975 985 1020 1023 929 978 987 982 1021 995 1022 1053 993 915 1000 1019 1028 999 987 1005 931 1008 1025 990 1021 983 991 1043 1040 955 1002 959 999 962 1026 1091 981 1000 1032 1022 987 948 1019 999 1065 989 988 968 955 981 964 1005 992 1027 996 962 1002 941 981 1002 972 949 1012 1056 1015 1003 1011 939 934 968 944 1059 1042 1048 1027 1037 1031 1001 1001 1014 991 999 999 953 988 979 1014 962 1011 976 963 953 995 1007 1023 950 1013 1051 1029 942 1042 1005 1002 988 1028 1064 1009 1041 1018 1038 1055 1041 1101 1078 1105 1158 1194 1131 1229 1184 1246 1246 1214 1199 1176 1165 1197 1146 1111 1127 1112 1078 1140 1113 1044 1153 1151 1156 1082 1046 1113 1112 1075 1062 1121 1062 1079 1077 1050 958 1053 1035 1027 999 1080 1055 1003 1022 980 1022 1018 985 986 959 1010 977 1017 999 1020 984 1003 1077 958 990 1037 981 999 988 1011 982 1034 959 1018 1013 1035 965 1027 1005 1024 990 1026 1015 1059 1022 994 1036 983 1017 1024 1031 1003 963 1003 977 1030 967 1027 976 1041 1025 1020 979 1028 1049 1005 1014 1034 1063 1026 919 964 1026 1014 991 1040 1025 980 999 1048 1050 1027 985 980 988 1028 974 1036 993 1056 974 992 989 957 982 993 965 996 995 999 967 991 936 1016 994 979 976 957 989 1019 1014 1001 1040 1008 1025 972 1017 944 939 976 985 1046 1009 1038 981 978 977 1031 1000 1001 1048 962 989 1009 1028 937 970 1012 981 1014 1019 1022 945 968 962 969 956 982 963 1000 978 992 957 1018 1010 1012 982 1080 1043 973 981 1052 949 946 962 986 1042 1003 1053 1058 1031 1027 973 1022 1001 932 1016 1017 1030 1006 991 1007 974 991 1051 978 982 1004 1010 961 996 995 1045 1006 997 1006 986 1003 998 1040 987 960 964 992 976 990 989 991 1044 883 989 966 985 944 999 929 982 1008 1045 1030 1015 1002 1054 1038 1006 995 1032 1000 1074 981 989 992 999 1015 989 991 1004 983 1053 1005 996 1032 1035 1007 1037 990 1022 1062 984 994 1073 1059 1049 1031 1112 1030 1099 1093 1139 1090 1141 1175 1159 1151 1241 1250 1296 1372 1333 1497 1530 1639 1540 1551 1574 1600 1483 1502 1400 1473 1533 1347 1360 1310 1320 1358 1375 1331 1341 1351 1403 1332 1388 1365 1361 1354 1323 1287 1251 1214 1231 1157 1204 1163 1183 1161 1149 1154 1141 1115 1143 1118 1117 1032 1065 1094 1007 1020 989 1080 1065 1003 962 1068 1036 977 980 1067 964 1078 1030 1047 989 1078 1044 1014 1023 1002 1036 1010 1000 1025 993 1051 996 1054 1011 1066 1053 1053 1011 1026 1064 977 1034 1010 1023 1046 1057 1082 1086 1076 1018 1030 1064 1045 1069 1012 1059 1083 1048 1071 1027 1028 1087 1041 1062 1053 1041 964 970 985 1026 1053 991 1084 1010 1011 1019 1011 974 1028 1002 1040 938 1004 997 976 1066 998 1051 1007 1046 1027 1016 1019 998 990 1030 1001 1056 1020 990 992 1092 991 991 1021 1008 1032 1010 1040 992 1066 1051 1046 1051 1110 1082 1084 1069 1083 1061 1059 1045 976 1071 1025 1108 1049 1063 1029 1038 1032 1037 1047 1007 980 1005 1027 1054 1023 1022 1020 1046 1012 1020 1039 989 1053 964 964 973 1005 1038 979 966 996 1025 1026 970 1002 981 981 1007 1017 1051 1026 1043 1002 936 999 1030 933 989 970 971 997 1047 1045 954 997 977 982 991 1031 1016 983 1029 1023 1008 1016 968 945 991 972 887 1076 991 936 968 954 972 1021 985 987 1016 941 1035 991 969 947 1015 1010 993 1025 895 982 1017 947 998 941 1017 1025 941 960 1002 991 952 977 993 968 948 997 1020 1020 958 1047 1006 1013 970 1008 992 994 963 1047 1006 1023 978 959 969 1000 946 977 992 1009 977 1010 960 923 976 973 946 973 943 982 914 1014 950 1008 1046 988 974 972 945 980 950 1038 949 1000 970 973 975 1019 975 1022 1029 1012 994 1014 947 987 981 952 949 988 988 956 988 976 960 993 1002 990 1015 1002 947 971 972 966 987 978 940 1016 974 953 940 1051 988 994 928 956 987 1003 909 974 990 975 989 1005 973 944 991 983 997 974 932 1047 975 980 989 979 962 1024 978 1019 919 1029 967 988 951 1000 971 1008 964 946 946 992 949 990 948 943 948 948 1017 908 963 1009 952 1066 1013 1019 941 961 945 1047 982 1041 1021 1007 1019 1000 984 1023 928 1048 938 941 988 948 996 997 962 1011 976 1008 970 1025 913 966 933 962 983 993 982 970 1014 955 954 995 990 987 954 970 970 949 994 974 1000 974 991 1035 970 1029 1016 997 977 991 954 961 1044 965 979 982 1018 1019 971 1002 994 994 1007 956 981 1008 1000 984 957 1007 961 1015 991 1000 966 944 951 935 1021 972 998 938 995 996 974 987 1044 1017 1013 1017 975 987 993 953 993 978 1005 982 1054 968 1017 977 1017 1076 986 1017 947 1032 1029 1035 959 1015 1010 961 972 964 975 941 983 902 986 976 966 977 969 1008 1012 988 986 993 1008 970 955 994 1041 958 992 993 981 1001 960 972 939 1011 956 1003 983 912 1008 970 980 968 1030 1003 980 996 1014 1019 1048 1009 1036 988 1059 949 980 1019 996 1006 971 1033 926 1057 995 992 966 998 975 976 969 994 1011 1014 1004 992 957 987 1000 1054 965 1005 946 986 1015 1052 984 1047 976 1022 1003 999 995 997 974 983 931 989 992 1012 1036 997 1008 1054 1059 995 1000 977 1033 1050 1030 1060 1016 1053 1091 1037 1109 1112 978 1118 1119 1214 1125 1123 1158 1136 1150 1150 1126 1115 1143 1059 1107 1096 1130 1063 1043 1073 1082 1116 985 1115 1088 1096 1128 1086 1080 1061 1052 1050 1028 1053 1127 1018 1066 1077 1044 1037 1035 994 991 1042 1035 1020 1027 1042 1058 1071 1048 1048 1056 1064 1116 1066 1039 1121 1175 1166 1184 1253 1179 1193 1214 1232 1152 1204 1127 1174 1060 1108 1076 1131 1104 1111 1097 1125 1132 1078 1072 1145 1099 1096 1105 1070 1130 1081 1042 1113 1089 1049 1059 1013 1014 1085 1018 1012 1067 967 1081 1044 1016 1023 964 1009 1046 974 1042 1031 976 1018 1015 951 996 1020 989 983 992 951 1018 966 1054 964 1023 1019 1055 1032 1027 1001 995 926 951 1032 1004 1015 985 1011 1024 955 969 1009 992 1001 988 986 961 1000 980 1000 1059 1042 1041 1033 995 1042 972 1008 972 970 1001 1045 971 1019 984 1052 1016 1025 1022 1004 996 1038 1005 1055 1063 1072 975 1012 1024 994 1024 990 1015 1089 1019 1027 1028 1015 967 993 1057 975 1022 1008 1002 1019 1068 1047 1026 944 972 1043 1021 1054 986 996 1005 992 1018 1017 1036 994 1046 1018 990 1036 947 1013 1046 1076 973 1009 1036 981 976 1011 1064 994 1094 1082 1025 1057 1015 1070 1113 1067 1077 1087 1092 1080 1110 1159 1084 1113 1089 1061 1106 1112 1092 1183 1080 1070 1100 1095 1108 1084 1152 1151 1107 1052 1142 1091 1120 1177 1130 1105 1155 1164 1190 1196 1114 1198 1184 1218 1224 1285 1201 1267 1234 1305 1360 1347 1354 1392 1551 1642 1655 1806 1897 1976 2156 2217 2162 2237 2096 2127 1974 2042 1936 1766 1741 1726 1673 1643 1637 1609 1696 1580 1626 1707 1693 1718 1726 1847 1821 1778 1817 1798 1782 1643 1641 1597 1542 1476 1517 1334 1404 1332 1356 1296 1277 1279 1241 1256 1230 1222 1240 1225 1212 1219 1153 1182 1147 1116 1110 1097 1097 1124 1125 1059 1105 1042 1077 1109 1072 1072 1060 1035 1133 1048 967 999 1053 1032 989 1147 1014 1031 1059 1047 975 1008 1078 1097 1044 980 1026 1062 1002 938 1025 1071 1020 971 1028 1038 1031 1084 1008 1043 1007 1009 1025 996 968 1076 1025 994 985 978 975 1072 996 993 1035 1018 1018 978 1001 1071 986 1012 1046 1047 974 972 1008 986 1034 1028 1061 1041 1032 1053 1018 1016 978 991 1003 1023 1026 993 962 994 1005 1032 1037 977 1005 1041 1072 990 1030 1055 1041 1015 1048 1018 1069 1066 980 1040 1013 1029 1118 1051 1047 1137 1133 1109 1177 1091 1158 1147 1229 1222 1110 1202 1157 1146 1111 1225 1184 1161 1169 1168 1178 1178 1163 1242 1230 1231 1216 1224 1252 1242 1272 1274 1189 1244 1180 1200 1191 1178 1196 1171 1215 1134 1204 1139 1193 1166 1155 1205 1121 1106 1118 1115 1118 1089 1133 1128 1100 1100 1147 1042 1120 1043 1047 1087 1028 1094 1037 1059 1055 1122 1049 1001 1027 1007 1036 1027 1042 1025 997 997 1047 1052 987 992 1034 990 1043 973 978 1021 995 990 925 998 1010 1003 966 1032 909 952 1006 1021 1007 991 969 1075 1006 1034 1044 971 987 1062 1020 963 1005 1045 1026 1012 1024 965 951 967 956 990 978 977 1013 1010 1009 984 987 1011 1004 1035 949 1005 1035 1019 999 1061 956 996 998 1014 993 1026 1025 1044 1014 981 1054 982 989 995 1017 967 1021 1024 986 1012 1026 997 1000 930 971 966 1012 989 1005 1007 963 935 1046 996 1069 1051 1051 927 986 979 1050 983 988 966 1039 1015 1022 961 953 1031 980 958 1009 973 1013 1022 998 949 987 1032 969 955 999 1013 956 1019 1021 967 997 939 975 1040 999 1018 973 968 1008 1006 973 949 999 948 923 982 1005 1018 989 961 1011 963 1044 1045 995 1018 1031 983 965 963 949 991 1019 1035 976 959 1016 992 982 973 948 1000 967 966 971 1031 981 970 1048 987 993 1001 1027 913 971 988 970 918 996 1006 1012 983 952 1000 990 953 972 976 986 959 988 990 1038 957 992 937 977 949 994 946 989 942 979 961 960 998 919 1000 957 967 967 952 974 1045 1012 981 999 990 920 955 956 937 971 1013 1009 985 982 1016 954 984 1006 972 971 973 1022 994 991 996 984 987 948 1036 971 1028 963 1070 1040 1015 987 1010 942 1016 977 881 1015 982 1025 1065 979 992 1017 974 1017 1019 992 973 928 985 994 929 1001 953 920 985 974 942 959 930 1014 1039 974 952 949 983 946 976 1046 1023 983 1000 1007 989 955 952 1010 980 984 992 1000 1008 1001 975 963 970 1010 969 985 1013 982 968 941 984 936 981 994 997 978 1054 1006 951 1016 1011 988 940 1034 1066 1017 969 996 1006 996 986 1031 929 1007 1095 1012 1053 1016 916 996 1042 943 1048 1005 1019 983 970 988 1019 994 1016 1019 957 1003 996 1000 1015 1044 1056 1046 1050 1050 1015 1027 1039 1055 1071 1063 1055 1025 1121 1127 1173 1116 1062 1115 1104 1116 1131 1135 1061 963 1098 999 1028 1018 1073 1078 1079 1082 1086 1062 1078 1094 1046 1014 1062 1135 1048 1038 1015 1057 969 1066 1049 1093 1014 1074 1033 1041 1017 1004 1034 1004 994 1013 1053 981 976 967 1076 1007 961 1044 1027 1059 994 983 1043 1043 1004 1017 1030 995 1020 999 996 1025 997 1040 1049 1035 971 994 1021 1029 1048 957 988 943 960 971 974 1000 944 1026 1030 950 999 1027 988 1014 996 1003 950 1014 968 1029 1003 949 1080 1032 1059 1041 1025 1024 1042 1014 1013 995 1015 919 951 917 989 943 976 955 939 953 1016 1041 978 952 1019 989 1005 938 966 979 972 981 991 972 975 943 1032 995 1007 973 993 979 1011 961 992 940 1033 997 1009 979 1035 975 996 922 1041 941 964 966 969 995 959 981 1003 990 969 942 1015 1005 1013 1017 1042 1040 993 1012 974 958 983 1021 1032 1035 990 990 985 965 1001 1038 1049 987 996 973 1002 1035 976 928 954 982 1037 997 986 1042 1017 1031 1016 1043 1015 974 996 988 977 963 993 1029 977 943 946 999 983 1035 992 968 931 1009 1008 992 966 1024 1005 1022 984 1080 1058 1016 972 1014 1021 1010 1027 1038 1062 1011 951 1037 1012 1006 1074 1072 1011 1021 1014 1010 982 1005 1087 1048 1012 1040 1030 1020 1039 1054 1092 1109 1049 1071 1053 1069 1150 1116 1025 1070 1192 1118 1151 1161 1206 1196 1199 1211 1312 1358 1428 1534 1491 1627 1724 1860 1867 1898 1846 1882 1857 1828 1717 1788 1717 1636 1520 1605 1454 1452 1395 1419 1360 1364 1347 1345 1360 1353 1394 1418 1396 1522 1467 1458 1504 1539 1523 1534 1415 1460 1362 1408 1333 1344 1327 1241 1180 1201 1185 1225 1084 1182 1077 1138 1112 1067 1110 1056 1114 1090 1082 1125 1094 1067 1070 1053 1069 1062 1077 1090 1037 1044 1076 1032 1043 1062 1055 989 1116 1026 1036 1091 1049 1040 1041 1056 1033 1079 1005 1042 1058 1010 1021 1044 1112 1105 1053 984 1014 1067 1074 980 1032 943 1041 942 1042 1004 1009 997 1024 1090 1052 950 995 1048 963 1022 1053 1055 1045 1063 988 966 1024 999 1003 1025 991 974 1019 983 1003 1031 1032 1055 1022 1018 1014 1029 1007 1040 947 977 1081 945 1067 1027 1040 974 1010 970 1073 972 962 949 1003 997 996 1051 1002 1018 954 1060 995 996 1046 1050 1035 1028 1017 1050 1075 1073 1008 995 1037 1035 1072 1048 1086 1024 1042 1058 1111 1048 1080 1010 1014 1031 1108 1030 1001 973 1043 991 1055 1040 1024 1007 973 1068 1054 1111 1033 1032 1024 981 1079 990 1013 1066 1066 1053 1025 975 1072 1040 1090 1058 1028 1055 1074 1065 1041 1068 1015 1011 1064 1084 1088 1040 1012 1091 1064 1086 1043 1067 1015 1068 1105 1044 1026 1014 1033 1117 1066 1033 1022 994 1044 1052 1052 1047 1026 1044 1052 1010 1042 969 1040 973 1046 1034 958 955 1006 1042 1010 1015 1071 1083 1029 1037 1056 1026 1002 994 1016 1046 990 996 1069 1012 1040 993 1012 950 957 990 992 1005 984 956 1032 972 962 1046 998 947 1083 983 1041 990 1017 982 993 991 957 990 932 958 939 1025 952 976 1002 1019 1024 965 1013 1007 1006 1002 941 939 968 985 1060 987 967 1049 1020 1026 1005 1074 929 1011 1057 987 947 981 963 1005 986 974 986 997 1018 997 1016 962 1040 959 1011 1005 968 988 1023 938 995 1035 966 985 982 980 1019 1034 949 972 1027 964 980 947 958 985 1002 943 1027 972 980 985 1017 925 990 997 947 985 1017 1040 974 995 1028 935 974 1037 997 993 970 934 951 1031 1037 937 968 921 964 1001 987 1059 990 941 901 930 928 997 955 1016 988 1013 1008 958 955 976 983 1025 1011 936 945 999 979 941 943 997 976 941 984 946 990 998 936 976 936 941 925 1024 966 945 1027 950 955 980 973 959 979 986 978 928 956 962 976 940 970 1005 1008 989 915 961 955 956 1010 941 949 1014 973 943 936 1007 964 976 949 991 951 1004 950 1025 1003 947 1014 1025 1016 929 905 978 979 996 960 1000 948 1032 944 997 944 1003 973 956 996 987 970 986 968 1009 971 947 950 981 985 931 965 983 1026 999 963 946 978 960 959 1002 967 999 990 985 955 968 987 929 966 952 1000 1041 959 983 981 1000 985 990 1013 1045 964 989 989 961 937 976 898 993 951 950 960 1080 1056 986 1017 940 984 974 986 1013 983 984 1011 1008 1001 1001 993 970 962 990 950 964 949 1007 940 986 994 971 994 996 1010 1013 988 1003 948 1008 1013 935 980 989 1014 981 1017 1035 1008 979 1036 986 1021 1017 897 1027 1099 1036 1024 1046 1027 966 974 1002 1033 985 1054 1018 951 1032 1009 1066 1021 1038 1036 1092 1104 1134 1161 1130 1188 1205 1241 1195 1134 1173 1158 1122 1125 1129 1172 1114 1062 1069 1131 1099 1013 1056 1004 1017 1099 1044 1101 1132 1047 1071 1060 1069 1052 1048 1004 1110 1118 1103 1146 1087 1116 1042 1049 1055 1068 1082 1018 1045 1062 1017 1101 1085 1040 1090 1091 1074 1094 1061 1104 1127 1069 1123 1098 1076 1184 1081 1123 1072 1128 1116 1012 1055 1149 1063 1063 1058 1070 1056 1047 1044 1066 1061 1010 1052 1006 1018 1039 1072 1060 1042 1083 1008 1026 1015 1123 1071 1061 1059 1072 1044 1032 1068 1052 1041 1079 1042 1032 1018 1039 1009 1007 1058 997 973 1010 1009 1017 1034</counts>
			</dataPoints>
		</scan>
	</xrdMeasurement>
</xrdMeasurements>
