<?xml version="1.0"?>
<xrdMeasurements xmlns="http://www.xrdml.com/XRDMeasurement/2.3" xmlns:xsi="http://www.w3.org/2001/XMLSchema-instance" xsi:schemaLocation="http://www.xrdml.com/XRDMeasurement/2.3 http://www.xrdml.com/XRDMeasurement/2.3/XRDMeasurement.xsd" status="Completed" recordIdentifier="{130AE3A0-D491-4150-A22A-66E06046930C}">
	<comment>
		<entry/>
	</comment>
	<sample type="To be analyzed">
		<id>GPSS_Li1p7Mn0p85Nb0p03V0p15Cl4_111225_691549b847a6a0fd7c6580c1</id>
		<name></name>
		<preparedBy></preparedBy>
	</sample>
	<xrdMeasurement measurementType="Scan" status="Completed" sampleMode="Reflection">
		<usedWavelength intended="K-Alpha 1">
			<kAlpha1 unit="Angstrom">1.5405980</kAlpha1>
			<kAlpha2 unit="Angstrom">1.5444260</kAlpha2>
			<kBeta unit="Angstrom">1.3922500</kBeta>
			<ratioKAlpha2KAlpha1>0.5000</ratioKAlpha2KAlpha1>
		</usedWavelength>
		<incidentBeamPath>
			<radius unit="mm">145.00</radius>
			<xRayTube id="1010048" name="Empyrean Cu LFF HR (9430 033 7310x)">
				<tension unit="kV">40.0</tension>
				<current unit="mA">15.0</current>
				<anodeMaterial>Cu</anodeMaterial>
				<focus type="Line">
					<length unit="mm">12.0</length>
					<width unit="mm">0.4</width>
					<takeOffAngle unit="deg">6.0</takeOffAngle>
				</focus>
			</xRayTube>
			<sollerSlit id="21010002" name="Soller slits 0.04 rad.">
				<opening unit="rad">0.0400</opening>
			</sollerSlit>
			<mask id="22031000" name="Fixed mask 13 mm">
				<width unit="mm">9.00</width>
			</mask>
			<divergenceSlit id="22120001" name="Divergence slit 1°" xsi:type="fixedDivergenceSlitType">
				<distanceToSample unit="mm">50.00</distanceToSample>
				<height unit="mm">1.52</height>
			</divergenceSlit>
		</incidentBeamPath>
		<sampleMovement xsi:type="spinningSampleMovementType">
			<spinnerRevolutionTime unit="seconds">1.0</spinnerRevolutionTime>
		</sampleMovement>
		<diffractedBeamPath>
			<radius unit="mm">145.00</radius>
			<antiScatterSlit id="22090040" name="AS slit 9 mm (PIXcel)" xsi:type="fixedAntiScatterSlitType">
				<height unit="mm">9.00</height>
			</antiScatterSlit>
			<sollerSlit id="21020003" name="Large Soller slits 0.04 rad.">
				<opening unit="rad">0.0400</opening>
			</sollerSlit>
			<filter id="20030001" name="Large beta-filter Nickel">
				<material>Ni</material>
				<thickness unit="mm">0.020</thickness>
			</filter>
			<detector id="7010019" name="PIXcel1D-Medipix3 detector" xsi:type="rtmsDetectorType">
				<phd unit="keV">
					<lowerLevel>4.02</lowerLevel>
					<upperLevel>11.27</upperLevel>
				</phd>
				<mode>Scanning</mode>
				<activeLength unit="deg">5.542</activeLength>
			</detector>
		</diffractedBeamPath>
		<scan appendNumber="0" mode="Continuous" scanAxis="Gonio" status="Completed">
			<header>
				<startTimeStamp>2025-11-16T14:30:37-08:00</startTimeStamp>
				<endTimeStamp>2025-11-16T14:38:44-08:00</endTimeStamp>
				<author>
					<name>AutomatedUser</name>
				</author>
				<source>
					<applicationSoftware version="1.7b (136)">PANalytical Aeris Instrument Suite</applicationSoftware>
					<instrumentControlSoftware version="3.2.00000000 20240306">AERIS</instrumentControlSoftware>
					<instrumentID>950485</instrumentID>
				</source>
			</header>
			<dataPoints>
				<positions axis="2Theta" unit="deg">
					<startPosition>10.00943322</startPosition>
					<endPosition>99.99442286</endPosition>
				</positions>
				<positions axis="Omega" unit="deg">
					<startPosition>5.00471661</startPosition>
					<endPosition>49.99721143</endPosition>
				</positions>
				<commonCountingTime unit="seconds">12.495</commonCountingTime>
				<counts unit="counts">3123 3082 3195 3221 3327 3192 3168 3166 3136 3131 3178 3176 3307 3264 3194 3170 3186 3270 3170 3214 3142 3350 3169 3262 3164 3164 3293 3268 3332 3198 3169 3232 3165 3226 3264 3084 3197 3203 3142 3198 3329 3213 3250 3305 3197 3384 3351 3249 3298 3282 3319 3386 3343 3300 3267 3304 3338 3314 3424 3266 3359 3305 3394 3307 3372 3328 3308 3324 3421 3457 3425 3432 3358 3395 3404 3365 3447 3491 3454 3355 3419 3372 3502 3498 3458 3482 3612 3516 3519 3361 3545 3576 3669 3548 3617 3430 3412 3538 3481 3675 3495 3560 3567 3678 3566 3540 3600 3505 3649 3619 3596 3559 3581 3612 3697 3580 3687 3635 3511 3538 3445 3448 3416 3576 3564 3604 3498 3555 3509 3496 3480 3418 3579 3546 3498 3567 3493 3586 3519 3571 3569 3628 3626 3616 3649 3675 3516 3476 3610 3520 3503 3514 3479 3382 3677 3582 3549 3509 3496 3644 3547 3668 3566 3618 3543 3614 3518 3618 3467 3591 3612 3483 3515 3582 3584 3685 3629 3556 3734 3523 3571 3559 3545 3637 3472 3528 3541 3621 3520 3538 3609 3550 3614 3600 3670 3588 3590 3489 3546 3569 3526 3415 3552 3573 3482 3601 3477 3664 3528 3490 3454 3524 3521 3462 3552 3485 3518 3622 3489 3599 3470 3475 3474 3609 3481 3532 3568 3545 3608 3392 3503 3489 3497 3434 3511 3540 3453 3457 3479 3446 3434 3392 3477 3362 3407 3455 3440 3388 3468 3365 3458 3486 3459 3418 3380 3299 3323 3503 3461 3416 3350 3436 3399 3406 3341 3386 3355 3353 3434 3399 3385 3477 3340 3400 3407 3341 3534 3480 3492 3430 3448 3375 3371 3403 3430 3446 3394 3434 3444 3369 3403 3336 3392 3470 3396 3490 3316 3418 3415 3439 3365 3494 3347 3567 3484 3457 3475 3336 3420 3547 3404 3473 3412 3524 3418 3480 3469 3456 3434 3487 3472 3439 3477 3480 3462 3469 3568 3518 3490 3452 3531 3521 3512 3560 3439 3478 3417 3373 3564 3432 3473 3532 3506 3568 3555 3543 3608 3491 3631 3510 3629 3517 3566 3633 3661 3642 3551 3592 3566 3580 3643 3654 3576 3574 3583 3708 3590 3703 3675 3624 3613 3675 3717 3668 3553 3699 3711 3699 3790 3570 3671 3672 3640 3673 3802 3712 3876 3846 3751 3789 3856 3896 3826 3903 3862 3791 3891 3835 3967 3833 3914 3928 4030 4080 3976 4123 4058 4099 4195 4197 4352 4263 4424 4525 4461 4733 4828 4926 5006 5108 5191 5088 5251 5302 5164 5267 5291 5201 5025 5166 4987 5055 4891 4877 4743 4734 4671 4614 4535 4424 4574 4505 4538 4581 4497 4332 4407 4482 4494 4170 4200 4106 4009 3916 3903 3834 3844 3758 3854 3912 3724 3727 3730 3862 3707 3803 3669 3767 3626 3666 3594 3585 3589 3723 3695 3670 3627 3684 3595 3658 3473 3688 3643 3645 3556 3618 3565 3591 3621 3611 3665 3567 3640 3543 3642 3612 3611 3506 3541 3457 3648 3469 3446 3569 3505 3485 3466 3496 3417 3414 3584 3379 3360 3458 3453 3479 3514 3370 3408 3491 3375 3435 3445 3337 3436 3416 3371 3403 3370 3290 3360 3515 3333 3344 3377 3333 3316 3393 3385 3333 3332 3297 3303 3277 3350 3334 3272 3346 3267 3216 3226 3236 3242 3338 3242 3373 3247 3166 3270 3245 3288 3219 3198 3170 3204 3256 3175 3164 3237 3127 3154 3091 3145 3236 3222 3204 3269 3142 3155 3133 3195 3196 3015 3123 3132 3234 3117 3083 3107 3047 3107 3138 3128 3184 3089 3097 3087 3201 3104 3004 3147 3078 3054 3050 3101 3066 3109 3074 3072 3067 3094 3016 3158 3163 3086 2950 3014 3084 3069 3150 3139 3008 3119 3093 3016 3059 3073 3028 3109 3052 2962 3081 3108 3077 2928 3065 3121 3081 3037 2943 3027 2946 2960 3054 3015 2956 3058 2954 2976 2927 3033 2982 3101 3029 2898 2952 3005 2964 3043 2892 2947 2957 2904 2974 3156 2903 2836 2992 2952 3012 3026 3036 3010 3040 2964 3027 2839 3032 3064 2854 2963 2970 2846 2897 2882 3055 2939 2901 2854 2906 2995 2934 2923 2983 2891 2945 2979 2856 3035 2915 2927 3001 3078 2926 2889 2978 3021 2979 2948 2829 2898 2986 2936 2860 2919 2931 2908 2867 2909 2855 2883 2901 2916 2860 2941 2893 2964 2893 2972 2923 2929 2810 2953 2878 2814 2990 2880 2966 2860 2822 2884 2929 3009 3044 2953 3021 2987 2925 2937 2905 2934 2944 2893 2866 2860 2988 2938 2871 2908 2892 2844 2894 2913 2916 2865 2914 2880 2829 2914 2860 2775 2833 2822 2865 2717 2831 2908 2937 2888 2849 2857 2831 2861 2764 2868 2797 2774 2756 2903 2808 2788 2772 2746 2720 2842 2866 2841 2882 2779 2821 2803 2884 2806 2618 2754 2894 2983 2738 2861 2781 2688 2774 2818 2809 2887 2654 2711 2753 2783 2788 2682 2726 2813 2863 2783 2804 2749 2827 2692 2864 2786 2783 2820 2825 2681 2750 2757 2779 2722 2807 2751 2639 2758 2677 2711 2720 2670 2673 2763 2723 2652 2752 2759 2692 2644 2718 2828 2649 2688 2778 2855 2592 2785 2694 2724 2644 2744 2671 2797 2645 2597 2711 2749 2661 2677 2729 2687 2715 2613 2712 2643 2670 2694 2686 2696 2723 2655 2673 2622 2673 2702 2667 2658 2742 2636 2608 2739 2662 2892 2653 2731 2738 2624 2583 2669 2640 2656 2636 2624 2746 2707 2607 2619 2687 2646 2619 2657 2674 2539 2601 2551 2603 2547 2564 2647 2579 2586 2594 2643 2638 2588 2591 2602 2552 2564 2559 2560 2677 2519 2561 2588 2484 2519 2654 2469 2546 2530 2594 2604 2580 2512 2647 2568 2576 2444 2612 2566 2546 2606 2636 2591 2462 2652 2575 2599 2552 2512 2457 2552 2553 2544 2590 2421 2534 2540 2459 2394 2499 2449 2608 2504 2589 2510 2513 2499 2495 2468 2612 2642 2521 2483 2439 2609 2585 2518 2487 2541 2504 2568 2516 2576 2534 2539 2516 2504 2553 2517 2566 2510 2549 2559 2485 2508 2525 2522 2529 2553 2511 2568 2543 2474 2520 2638 2506 2474 2530 2538 2527 2538 2538 2574 2569 2507 2461 2515 2430 2531 2482 2426 2554 2570 2497 2457 2672 2503 2543 2605 2475 2489 2471 2460 2556 2568 2518 2543 2548 2544 2653 2549 2488 2468 2538 2525 2659 2532 2505 2518 2526 2572 2549 2560 2649 2478 2528 2537 2547 2469 2467 2477 2487 2585 2580 2522 2597 2502 2478 2499 2509 2484 2555 2497 2456 2466 2596 2598 2519 2484 2536 2480 2609 2434 2518 2605 2520 2439 2541 2495 2531 2456 2540 2585 2614 2535 2537 2593 2476 2391 2440 2450 2575 2525 2504 2546 2498 2543 2498 2442 2475 2434 2421 2395 2468 2432 2430 2475 2439 2542 2462 2452 2386 2518 2420 2507 2478 2435 2430 2373 2435 2417 2378 2298 2382 2345 2415 2356 2409 2433 2404 2369 2393 2426 2322 2323 2434 2347 2328 2321 2303 2368 2368 2341 2224 2306 2361 2339 2274 2360 2210 2354 2309 2285 2324 2369 2239 2217 2311 2342 2292 2330 2244 2260 2211 2182 2307 2251 2237 2238 2270 2283 2164 2299 2183 2299 2237 2223 2248 2208 2234 2178 2232 2146 2132 2108 2169 2191 2285 2234 2202 2156 2109 2071 2083 2185 2148 2090 2120 2172 2130 2116 2218 2162 2114 2187 2180 2070 2111 2115 2023 2057 2070 2123 2176 2019 1954 2075 2071 2016 2019 2043 2046 2030 2126 2078 2014 1984 1983 2083 2012 2003 1965 2055 1965 1862 1986 1968 2003 2008 1997 1989 1956 1992 1999 2049 1944 1960 2037 1902 2009 2010 1913 1964 1961 1985 1968 1981 1983 2010 2019 1880 1982 1948 1916 2014 1926 1939 1992 1904 1885 1946 1872 2014 1935 1840 2005 1885 1956 1838 1952 1978 1833 1891 1821 1909 1867 1858 1899 1908 1881 1926 1914 1795 1910 1954 1878 1814 1818 1826 1817 1884 1811 1853 1876 1849 1923 1796 1774 1848 1858 1849 1850 1874 1832 1808 1790 1839 1826 1872 1912 1811 1889 1844 1801 1869 1844 1883 1903 1913 1815 1780 1880 1959 1901 1764 1883 1866 1855 1862 1725 1804 1787 1820 1790 1856 1802 1821 1827 1867 1761 1851 1835 1876 1833 1817 1779 1838 1771 1766 1913 1775 1793 1790 1846 1944 1830 1862 1831 1816 1852 1821 1865 1819 1821 1876 1791 1803 1871 1803 1804 1780 1830 1841 1874 1783 1729 1798 1849 1849 1832 1895 1878 1856 1795 1811 1887 1775 1877 1853 1834 1847 1887 1883 1838 1824 1847 1786 1831 1834 1718 1932 1808 1900 1901 1828 1916 1945 1804 1835 1803 1875 1815 1745 1880 1847 1848 1873 1846 1847 1834 1865 1876 1900 1898 1782 1893 1874 1890 1896 1831 1832 1831 1781 1935 1872 1857 1941 1851 1856 1813 1873 1758 1847 1777 1886 1808 1884 1807 1841 1866 1823 1861 1855 1806 1838 1863 1737 1788 1858 1796 1845 1766 1819 1837 1814 1873 1821 1753 1837 1751 1876 1792 1763 1874 1764 1833 1826 1829 1816 1842 1830 1843 1881 1792 1775 1819 1804 1771 1793 1859 1826 1748 1777 1715 1843 1750 1793 1823 1825 1858 1709 1819 1805 1655 1733 1693 1781 1697 1820 1837 1808 1782 1831 1661 1704 1780 1701 1740 1717 1761 1740 1714 1725 1744 1701 1761 1704 1752 1676 1755 1759 1735 1700 1741 1673 1741 1633 1719 1621 1782 1665 1658 1668 1655 1719 1683 1715 1677 1690 1599 1648 1693 1694 1640 1688 1602 1649 1705 1622 1630 1629 1618 1679 1638 1658 1695 1595 1599 1624 1629 1524 1595 1570 1580 1607 1622 1584 1635 1609 1607 1614 1676 1604 1560 1594 1506 1628 1617 1583 1588 1657 1619 1578 1515 1542 1532 1527 1639 1636 1634 1563 1501 1618 1580 1551 1605 1515 1559 1660 1605 1610 1627 1576 1644 1613 1590 1706 1665 1707 1751 1817 1819 1914 1942 1989 2093 2206 2293 2351 2331 2460 2541 2614 2644 2611 2589 2672 2576 2656 2588 2563 2499 2479 2360 2220 2114 2114 2091 2051 2074 1928 1961 2010 1906 1939 1919 1791 1850 1818 1712 1708 1741 1720 1666 1624 1676 1626 1517 1577 1493 1591 1524 1482 1611 1524 1469 1499 1470 1478 1438 1387 1513 1393 1400 1464 1444 1440 1421 1437 1378 1427 1425 1375 1495 1475 1485 1394 1450 1328 1426 1395 1391 1403 1379 1428 1399 1396 1375 1437 1499 1448 1403 1422 1405 1368 1447 1400 1497 1447 1480 1348 1429 1467 1468 1480 1478 1453 1471 1495 1591 1583 1551 1695 1628 1672 1742 1846 1826 1871 2185 2296 2450 2543 2632 2927 3188 3274 3520 3658 3732 3950 4035 4026 4109 4175 4108 4037 3883 3781 3720 3563 3361 3259 3054 2922 2885 2714 2557 2470 2428 2323 2303 2164 2209 2204 2215 2185 2007 1935 1922 1889 1889 1748 1674 1595 1605 1515 1486 1438 1502 1457 1417 1376 1380 1379 1348 1314 1360 1296 1340 1404 1218 1305 1321 1263 1261 1300 1343 1295 1324 1296 1274 1273 1183 1324 1324 1245 1313 1302 1319 1252 1317 1274 1275 1244 1292 1321 1288 1244 1265 1297 1211 1237 1208 1277 1234 1317 1216 1312 1287 1228 1235 1181 1270 1207 1190 1275 1349 1239 1225 1228 1231 1231 1249 1279 1287 1216 1283 1181 1222 1219 1297 1238 1224 1222 1316 1206 1289 1220 1178 1269 1244 1239 1173 1159 1243 1181 1177 1274 1219 1205 1186 1242 1243 1206 1222 1216 1239 1176 1198 1199 1178 1265 1256 1172 1195 1185 1169 1178 1222 1232 1214 1164 1189 1209 1230 1191 1192 1148 1198 1213 1160 1173 1178 1220 1171 1192 1237 1235 1280 1217 1121 1170 1186 1184 1130 1208 1133 1211 1122 1184 1146 1145 1206 1180 1172 1187 1185 1162 1156 1153 1165 1185 1170 1165 1187 1139 1172 1181 1203 1179 1143 1153 1181 1179 1176 1180 1132 1171 1168 1159 1127 1110 1146 1137 1209 1150 1208 1198 1177 1148 1130 1139 1251 1164 1176 1196 1160 1200 1163 1122 1184 1136 1165 1181 1150 1202 1165 1157 1166 1146 1195 1119 1150 1203 1116 1114 1202 1156 1237 1113 1147 1185 1171 1188 1163 1169 1229 1174 1103 1175 1141 1158 1145 1226 1176 1147 1162 1172 1126 1132 1157 1197 1207 1152 1127 1199 1173 1203 1175 1267 1156 1159 1176 1171 1163 1167 1124 1106 1147 1211 1223 1201 1103 1113 1183 1187 1162 1155 1124 1110 1164 1159 1160 1144 1141 1163 1096 1171 1164 1100 1199 1113 1088 1153 1158 1201 1165 1113 1156 1151 1164 1153 1162 1118 1159 1137 1159 1123 1108 1169 1175 1143 1184 1150 1210 1167 1174 1167 1130 1142 1160 1136 1181 1166 1156 1171 1135 1185 1157 1123 1225 1192 1176 1176 1165 1161 1146 1175 1202 1140 1174 1168 1119 1225 1167 1227 1196 1206 1176 1155 1146 1222 1198 1180 1199 1224 1182 1176 1192 1196 1186 1187 1207 1233 1199 1255 1240 1223 1261 1229 1265 1229 1248 1264 1249 1275 1299 1317 1341 1328 1326 1343 1349 1327 1417 1498 1415 1467 1528 1614 1573 1670 1770 1811 2006 2183 2295 2508 2599 2981 3347 3654 4085 4586 5042 5591 6161 6545 6795 7553 7590 8340 8365 8517 8606 8697 8487 8022 7869 7703 7462 7210 6805 6250 6058 5555 5232 4914 4808 4567 4335 3996 3991 3933 3770 3564 3441 3249 3106 2909 3013 2630 2499 2375 2220 2124 1921 1953 1794 1674 1584 1554 1469 1423 1384 1355 1370 1304 1329 1254 1246 1198 1224 1231 1229 1222 1179 1190 1217 1183 1138 1168 1123 1156 1121 1150 1165 1148 1124 1121 1098 1187 1096 1136 1158 1132 1053 1115 1168 1137 1097 1098 1091 1115 1141 1142 1126 1113 1120 1083 1094 1067 1074 1074 1051 1132 1069 1134 1076 1131 1087 1078 1085 1101 1070 1124 1015 1052 1067 1088 1045 1066 1077 1044 1050 1065 1047 1081 1054 1099 1049 1048 1032 1049 1071 1091 1066 1043 1118 1044 1089 1124 1080 1047 1099 1067 1091 1086 1064 1027 1069 1093 1025 1074 1101 1048 1086 1010 1059 1076 1044 1044 1046 1034 995 1063 1111 1076 1080 1008 1035 1021 1126 1071 1118 1100 1053 1061 1072 964 1094 1060 1037 1012 1006 972 1031 1060 1057 1048 1086 1081 1012 1038 1094 1011 1066 1069 1043 1077 1016 1064 1076 1025 1118 1107 1027 1032 1006 1036 1020 1032 1028 1047 1044 1045 1063 1008 1070 1008 990 1135 981 1031 998 1029 1041 1072 1012 1056 1010 1071 944 1068 1085 1096 975 1015 1058 1028 1004 1027 1046 1026 1078 1006 997 1049 1047 1044 986 1037 994 1030 1053 1053 1058 965 1040 1057 1004 961 989 1059 988 1023 1019 1015 1043 1072 1077 1061 996 945 1008 1070 1003 1011 987 1006 1063 1056 1029 1068 999 983 1050 1072 1017 1035 1022 1076 1035 1023 1067 1025 1067 1046 1073 1106 1104 1078 1097 1127 1121 1139 1076 1078 1065 1134 1064 1128 1093 1086 1077 1162 1043 1067 997 1072 1039 1019 985 1075 1034 1054 1036 1038 976 1007 983 1024 1027 1046 948 970 1030 997 999 966 986 1018 982 985 1004 985 944 1030 984 963 1014 964 1006 912 968 958 1035 974 950 950 946 1002 969 965 980 981 920 958 950 983 955 974 955 949 1023 986 977 946 996 935 911 973 963 991 945 945 977 971 940 914 1012 906 964 980 926 924 955 1005 992 988 927 997 970 950 953 985 973 939 1000 951 1022 988 931 972 918 940 1011 940 904 938 958 1003 970 960 967 997 912 949 989 944 953 979 959 970 922 920 908 917 959 999 917 921 928 943 1003 950 935 972 950 995 928 873 910 959 894 976 948 923 977 981 975 962 994 879 949 928 1000 891 888 956 961 957 1002 894 949 991 946 933 954 992 927 980 942 902 922 972 976 918 975 863 976 907 918 936 913 905 953 873 880 971 991 981 953 946 972 919 895 940 913 982 880 944 981 844 949 933 974 966 965 947 975 928 935 926 929 936 903 910 966 939 975 917 944 930 878 941 922 962 941 851 952 879 995 883 928 951 970 942 946 895 894 959 902 949 924 945 931 943 883 980 919 963 960 962 902 948 944 864 991 947 932 949 902 864 915 910 915 843 955 920 971 962 908 924 913 938 937 919 944 983 946 926 940 927 929 896 954 957 890 920 881 861 917 930 922 879 893 906 886 898 927 921 923 884 903 927 936 896 917 924 967 925 912 909 918 920 887 906 898 938 919 870 917 882 957 944 904 920 958 924 959 973 915 926 933 937 916 896 890 885 904 897 909 895 935 889 923 929 919 916 918 892 922 921 948 895 964 970 892 909 916 948 896 832 957 884 872 934 905 929 954 926 921 868 926 893 951 898 909 919 940 953 925 888 933 905 955 849 930 910 875 878 912 913 915 936 898 951 972 933 907 920 931 863 881 857 969 842 972 898 836 904 846 982 866 958 863 896 944 920 926 938 890 873 868 871 896 913 914 869 967 943 914 925 923 920 932 927 993 906 942 858 948 877 890 890 907 889 951 930 894 858 939 885 938 885 922 944 881 929 915 926 901 923 873 945 936 887 900 943 856 953 879 898 890 886 907 916 897 920 880 915 935 946 961 905 884 944 939 895 939 894 962 910 895 957 913 913 899 907 939 837 922 950 865 904 906 915 900 927 906 884 916 920 890 909 897 964 851 882 867 889 903 929 857 874 874 899 878 907 891 892 991 910 866 929 924 828 937 886 899 890 911 937 923 923 935 951 940 900 822 911 817 903 865 897 881 878 949 886 907 927 913 907 960 889 885 898 994 905 957 890 865 925 962 881 908 926 932 869 881 907 912 900 897 955 876 910 898 887 833 907 874 889 946 929 947 919 976 976 896 935 893 969 949 893 907 951 881 919 896 881 886 920 936 955 944 916 887 854 878 943 860 914 939 889 899 947 904 986 921 896 927 932 842 904 927 954 889 936 915 930 961 947 893 927 881 899 869 910 928 892 933 945 928 969 937 966 944 897 961 890 894 913 906 897 979 925 985 980 1060 1067 1031 1037 1033 1108 1115 1150 1209 1285 1370 1414 1490 1460 1576 1651 1633 1710 1641 1717 1686 1734 1666 1667 1667 1641 1606 1551 1480 1506 1428 1390 1382 1405 1383 1253 1300 1273 1287 1185 1207 1163 1025 1156 1033 1049 1099 1104 1086 1079 969 987 1021 1033 944 943 941 894 922 915 939 932 969 861 883 976 943 890 955 900 885 870 912 946 886 932 954 889 1005 876 888 908 858 850 887 866 878 964 898 871 859 886 818 997 913 928 857 878 790 916 887 868 916 900 849 890 876 859 864 871 900 838 927 860 934 890 863 898 849 911 874 913 852 881 861 881 845 868 870 850 895 879 878 871 865 938 881 884 848 950 862 891 910 902 859 869 822 881 876 786 886 876 844 895 871 924 892 925 899 849 887 878 868 874 912 888 869 852 885 882 873 837 903 929 878 875 875 865 829 942 856 866 916 900 831 919 870 897 812 898 883 899 884 869 817 880 878 888 851 883 908 844 838 834 845 881 925 801 861 894 874 854 878 861 833 829 858 805 890 892 875 851 876 908 805 848 868 854 878 857 852 867 889 829 863 896 885 846 871 880 854 850 901 877 908 896 868 861 851 895 859 881 828 896 868 886 895 796 933 933 880 881 863 887 864 873 832 845 868 856 877 868 910 922 889 884 890 851 862 909 961 881 927 838 901 924 878 891 915 880 899 864 912 940 898 915 896 888 905 858 874 905 931 907 868 865 902 907 874 900 919 925 916 875 902 881 835 878 896 876 882 831 868 868 942 933 909 912 912 900 915 887 840 889 907 931 904 876 858 918 924 857 894 863 909 867 898 926 915 942 913 922 963 888 937 956 912 888 895 892 937 982 920 915 957 971 1008 1002 997 986 980 948 989 1033 1042 1127 1063 1008 1079 1011 1143 1120 1084 1138 1133 1177 1236 1221 1319 1305 1409 1496 1638 1719 1930 2114 2360 2586 2957 3235 3701 3942 4209 4509 4810 4955 5045 5081 4984 5230 5042 5051 5088 4785 4767 4586 4650 4407 4110 4135 3907 3653 3620 3487 3373 3130 3022 2863 2807 2573 2458 2175 2048 2025 1857 1893 1724 1664 1629 1588 1532 1509 1443 1387 1357 1313 1246 1149 1167 1170 1093 1078 1122 1063 1038 1041 1063 1050 1020 977 893 899 954 1002 978 938 900 939 934 922 925 928 935 923 953 968 880 931 911 956 900 914 927 890 893 908 864 909 890 837 852 870 884 875 901 908 841 932 878 892 881 896 877 888 870 883 840 859 907 836 836 859 853 849 861 880 857 870 891 859 864 875 826 892 922 890 868 879 922 834 840 844 893 822 846 888 906 909 837 851 888 899 838 878 817 877 813 870 873 900 884 854 886 873 842 906 838 874 943 882 910 832 869 865 856 859 866 804 833 900 849 861 887 899 890 890 894 763 823 881 852 885 900 846 890 844 861 842 874 797 838 853 851 907 842 877 871 804 841 848 817 857 838 821 918 833 863 814 901 825 851 936 920 897 926 868 941 986 1005 1008 1075 1051 1135 1214 1223 1226 1302 1259 1287 1286 1241 1247 1276 1254 1237 1238 1226 1267 1236 1217 1164 1171 1083 1136 1112 1143 1104 1101 1026 990 984 1048 1008 983 966 1014 886 958 890 885 906 948 921 871 900 908 873 849 896 859 813 907 830 856 859 903 828 861 800 859 843 763 785 844 848 834 821 846 827 816 818 846 778 857 858 836 784 844 793 784 823 857 866 843 868 787 853 812 795 844 816 817 782 836 814 728 815 832 781 781 832 833 808 811 846 795 844 818 814 837 811 849 811 748 790 799 812 843 852 791 770 828 872 820 805 790 760 774 811 791 819 776 753 814 793 843 828 800 848 810 777 793 815 785 809 773 724 793 799 794 767 817 767 805 783 799 831 783 779 802 791 799 823 818 814 835 827 844 789 868 839 812 802 745 795 768 777 804 806 766 828 823 825 810 840 823 813 795 819 833 835 771 793 778 807 792 795 794 776 792 842 805 797 811 787 749 789 830 820 849 794 803 794 811 800 843 803 804 793 804 747 802 794 798 811 770 825 823 767 785 826 812 804 827 845 813 796 846 748 783 834 801 762 827 770 806 832 776 724 791 793 799 839 819 772 772 788 809 810 796 720 837 798 823 763 761 835 779 852 813 781 840 768 850 790 772 772 763 830 808 789 826 761 856 772 784 836 766 793 825 798 756 772 828 805 743 814 775 804 760 819 834 803 807 843 727 804 794 753 768 837 760 811 762 862 798 818 801 794 777 791 804 740 833 791 760 772 810 817 763 811 796 838 767 785 808 803 792 826 834 816 712 763 785 796 744 769 771 796 784 794 799 756 768 785 820 772 781 765 782 747 791 751 751 789 758 744 769 791 803 799 789 836 818 757 772 835 775 767 775 760 773 775 736 802 795 781 759 878 770 770 792 818 771 800 777 812 779 821 765 767 783 754 736 785 767 783 782 788 783 791 794 818 792 781 781 765 744 759 790 787 761 761 733 768 731 780 761 792 782 827 791 789 756 721 784 781 729 742 804 773 818 708 784 745 803 806 737 797 765 795 748 771 787 755 758 758 743 726 804 817 770 742 750 777 759 739 795 819 793 785 761 769 832 795 756 796 749 744 802 752 788 754 819 768 767 786 778 806 802 793 823 788 795 748 793 761 771 793 732 746 780 764 769 773 758 835 808 797 768 813 829 790 775 767 752 757 779 727 771 780 797 862 757 802 842 766 815 780 783 776 785 780 741 778 746 768 740 788 783 818 814 789 786 761 789 701 795 780 796 783 774 817 795 795 818 824 784 810 808 812 809 842 913 868 825 854 846 880 920 873 812 826 857 881 865 880 830 858 853 846 847 823 875 853 869 812 828 826 821 844 788 769 776 780 835 776 810 825 803 778 825 809 814 838 808 781 833 800 822 787 817 832 844 889 844 829 858 869 850 899 881 900 961 925 985 1014 1049 1130 1152 1228 1259 1253 1265 1282 1313 1302 1230 1288 1276 1229 1300 1214 1210 1196 1183 1234 1179 1168 1164 1072 1099 1109 1095 1065 1155 1053 1021 1032 974 957 953 899 933 882 856 894 839 874 836 798 815 844 806 837 810 857 886 784 808 799 786 760 783 742 739 783 777 782 744 804 779 775 801 737 772 753 792 763 798 730 780 845 787 743 776 777 803 776 740 763 780 759 739 717 763 749 776 776 725 737 779 763 767 730 828 796 764 794 759 748 786 735 757 770 794 740 763 735 799 742 781 740 742 834 760 797 788 772 750 762 727 742 827 779 790 731 760 741 796 760 750 718 745 718 782 741 772 754 744 758 743 742 788 753 739 721 737 725 785 703 742 756 767 753 739 789 753 771 799 728 734 787 733 776 733 772 774 770 781 789 762 716 709 783 704 747 804 753 787 791 769 783 737 825 785 754 769 722 754 766 776 753 757 759 748 748 741 767 777 769 735 786 758 711 738 765 739 776 773 784 727 792 712 770 800 732 790 770 765 768 783 797 830 822 802 762 759 736 717 771 740 786 769 835 784 798 777 784 805 763 811 825 852 826 819 770 817 853 850 796 866 917 853 930 977 986 1071 1076 1160 1288 1298 1474 1533 1587 1627 1713 1740 1813 1833 1741 1688 1714 1636 1611 1646 1560 1607 1535 1546 1511 1468 1581 1480 1508 1482 1429 1425 1375 1295 1279 1236 1163 1176 1112 1039 1064 1027 1023 903 943 873 980 952 879 920 868 896 911 861 890 851 847 820 793 835 829 792 861 829 783 778 817 781 714 796 777 768 757 740 756 753 812 736 787 766 783 790 766 768 736 776 740 796 758 791 764 745 722 723 758 790 756 779 797 705 770 705 701 769 711 745 761 764 726 747 712 738 734 745 772 733 777 778 745 753 709 757 797 786 755 726 722 727 756 739 723 731 750 734 781 709 742 755 742 752 698 745 793 757 742 784 747 742 745 761 719 781 761 753 752 758 746 772 710 736 711 761 767 800 776 760 737 785 759 727 762 700 747 738 772 754 724 755 765 788 734 708 765 749 769 775 769 791 801 748 739 752 799 783 814 886 823 818 888 909 949 918 938 968 1018 951 979 1003 953 900 963 979 972 1024 1052 950 883 903 881 943 917 945 920 875 854 866 869 841 867 813 842 838 732 796 791 784 821 835 760 815 818 816 827 785 840 759 769 720 766 775 734 772 752 767 763 750 731 777 772 799 746 763 779 712 739 736 798 790 737 740 688 748 782 721 766 756 797 722 666 777 761 706 733 693 735 722 800 724 752 731 747 764 744 714 806 752 755 764 718 720 741 759 697 755 708 757 675 745 738 769 703 709 700 747 713 724 723 747 697 741 728 726 709 726 735 752 719 733 743 684 751 735 771 747 695 735 784 724 729 669 756 712 715 726 772 730 721 681 721 751 713 729 727 737 706 740 732 775 763 727 688 718 739 687 728 707 735 712 751 693 699 754 714 722 695 724 754 730 672 757 716 740 777 729 731 700 734 698 720 644 723 777 755 718 763 730 757 751 766 735 729 759 716 733 738 747 693 759 677 728 663 690 703 700 696 696 735 683 705 705 702 666 738 663 700 741 720 710 784 749 696 692 698 721 690 692 694 711 678 767 701 746 707 741 750 723 725 727 760 715 704 739 684 693 770 643 728 672 710 682 762 715 702 697 708 686 733 691 719 691 728 711 730 744 725 716 673 668 769 748 743 719 725 682 710 758 689 810 719 725 727 735 716 786 703 743 704 740 713 731 718 694 709 747 702 714 706 748 723 726 703 798 697 685 745 707 697 694 755 711 702 718 677 705 678 732 723 732 764 731 704 691 715 688 688 687 741 745 700 711 709 684 689 678 747 674 691 681 693 726 756 729 750 707 677 734 708 715 719 769 728 712 748 666 697 756 751 700 702 674 675 753 696 752 721 662 728 754 704 727 737 719 709 753 754 761 707 694 688 684 687 731 689 692 714 706 738 700 688 677 686 686 704 708 711 696 746 728 713 696 692 717 694 711 708 699 679 649 775 667 706 714 716 687 676 747 729 713 728 743 748 696 721 738 689 692 677 723 730 711 730 682 713 695 668 648 695 692 663 735 774 719 709 723 695 730 707 692 685 717 727 754 739 725 738 694 764 736 707 737 721 707 745 701 699 717 722 737 725 734 705 700 696 705 733 708 730 787 736 712 742 770 689 736 728 733 805 808 826 837 844 858 859 813 832 909 819 817 822 855 824 822 805 841 814 848 834 842 805 821 843 817 799 826 789 785 752 752 779 809 793 749 747 747 774 687 766 726 730 707 779 815 705 703 716 745 798 761 714 732 740 726 678 674 719 735 730 733 704 685 686 690 675 759 688 714 745 745 706 722 717 743 691 714 739 669 702 759 720 776 749 750 684 687 669 728 728 634 680 699 749 682 685 710 714 693 687 725 710 713 709 712 730 765 750 724 734 726 687 736 719 680 706 664 682 713 715 702 700 728 702 711 696 687 746 738 716 681 730 727 689 751 747 682 712 660 675 667 681 719 693 713 695 682 728 698 714 723 685 682 723 721 720 696 688 734 721 727 651 723 696 670 648 657 681 692 684 727 663 734 690 671 668 726 711 715 718 701 686 732 666 723 703 698 720 727 758 730 678 665 726 711 734 736 739 748 728 694 707 703 709 697 669 693 708 741 718 667 717 701 755 719 658 721 699 695 709 689 697 724 727 691 702 714 720 693 746 706 702 688 701 712 661 725 693 673 709 730 689 725 707 688 706 681 683 690 669 682 732 728 709 686 683 702 733 730 715 741 689 749 705 721 754 751 688 695 712 743 731 699 656 711 758 756 744 724 769 708 753 719 696 749 730 753 760 761 733 792 757 807 782 779 756 882 802 889 858 869 912 909 998 942 1037 1084 1069 1026 1100 1028 1074 1070 1053 998 1046 1011 984 1065 992 1013 964 951 974 1004 1014 916 966 982 1001 1016 1015 1018 944 834 936 914 863 896 827 822 827 804 774 762 825 772 801 749 774 737 798 774 728 725 785 749 747 733 754 726 680 709 667 728 734 709 683 703 690 707 711 712 737 744 726 683 705 714 674 696 719 735 718 708 721 725 696 717 739 707 756 676 694 742 716 705 697 671 727 695 751 674 702 663 703 666 693 737 718 683 670 718 706 718 719 711 714 707 662 717 716 698 672 674 684 719 713 703 718 707 687 666 727 672 657 716 676 684 722 718 660 654 738 692 645 717 683 703 682 687 716 658 706 719 740 662 673 705 678 691 690 714 705 687 665 681 724 665 666 708 716 696 724 739 699 706 680 686 726 765 726 712 713 730 705 671 602 671 689 683 691 694 683 697 658 693 695 639 671 704 673 687 679 679 718 664 708 679 727 689 712 720 665 749 698 712 704 669 694 685 705 670 694 752 684 695 639 698 659 684 677 717 679 640 673 691 711 712 735 687 723 714 698 740 703 691 698 693 686 671 669 630 686 699 695 721 660 696 694 707 688 700 732 740 679 705 718 691 689 739 666 700 708 695 683 690 726 689 693 648 655 730 680 709 693 720 707 702 672 665 757 653 723 699 659 702 700 692 677 732 660 696 712 670 687 682 643 744 660 721 659 704 647 705 680 707 742 712 728 708 700 693 719 679 702 678 698 708 753 737 661 678 683 703 677 729 682 733 647 690 658 677 691 681 707 634 691 661 692 729 733 698 724 736 705 753 746 695 718 725 704 723 663 648 726 723 701 681 686 650 723 662 718 662 703 762 745 672 697 707 770 703 679 709 669 686 672 693 705 718 743 695 728 728 660 720 709 656 699 676 695 698 708 699 691 723 660 667 677 708 701 677 731 666 657 699 712 724 735 709 642 728 678 732 704 623 710 707 663 653 724 653 749 748 749 741 677 723 722 677 694 712 735 674 704 687 695 736 673 687 703 719 688 766 657 700 714 689 708 694 709 745 705 763 708 718 729 721 703 701 725 740 732 620 694 696 679 708 712 662 707 737 723 723 696 642 640 720 675 738 719 700 711 676 645 707 722 720 725 715 723 670 694 728 681 702 695 759 669 680 720 739 677 708 663 683 731 695 676 708 701 745 725 738 705 730 689 675 666 762 683 684 685 697 741 727 729 643 730 720 703 686 688 723 712 656 681 683 682 708 717 672 690 751 723 730 697 651 636 758 694 728 683 657 692 718 669 643 667 712 709 693 666 724 692 686 726 697 698 707 661 720 710 668 723 689 742 707 703 742 684 706 707 709 672 693 648 731 741 710 730 670 709 678 723 709 715 673 726 723 711 681 693 700 696 740 703 711 664 738 694 741 675 740 738 706 721 735 725 694 707 703 691 728 708 701 682 729 695 756 736 730 772 710 738 746 777 748 719 744 791 808 785 781 834 783 779 763 767 809 775 748 785 779 756 786 805 790 784 750 770 773 803 796 780 755 792 784 813 758 809 705 828 764 765 733 753 704 758 748 734 683 744 789 699 706 796 775 713 741 752 772 734 791 781 768 800 811 830 842 853 868 856 886 864 868 887 859 857 814 780 780 858 836 771 863 814 799 822 790 758 825 832 840 795 835 795 811 729 765 789 780 800 796 779 795 773 744 730 755 738 749 695 732 717 681 738 800 747 744 721 753 771 697 727 710 695 740 751 772 724 714 718 763 756 732 722 661 710 692 739 654 701 688 715 659 721 726 715 734 704 696 700 712 777 726 709 749 731 756 687 720 674 692 670 697 688 698 743 716 730 666 774 695 680 759 716 686 723 662 695 726 684 698 699 702 699 688 711 715 738 720 691 734 708 744 705 736 783 695 783 703 753 730 733 730 682 734 735 705 681 696 738 713 678 766 731 706 701 707 735 741 733 738 743 675 752 695 669 759 732 705 733 705 746 736 694 757 687 747 729 724 694 717 689 741 707 719 726 688 731 705 735 742 696 715 779 729 748 750 718 718 760 725 763 765 763 776 772 710 766 789 749 772 791 765 812 753 769 808 783 771 798 793 752 827 802 856 904 866 953 947 963 1030 1112 1096 1186 1247 1262 1363 1411 1470 1479 1586 1554 1497 1457 1510 1433 1489 1354 1345 1286 1244 1277 1191 1208 1226 1272 1227 1242 1310 1271 1336 1346 1304 1230 1262 1237 1279 1120 1170 1156 1087 1104 1017 1028 994 953 920 941 919 935 891 910 865 852 871 845 846 831 803 795 827 873 801 786 831 744 803 775 781 775 713 741 774 762 752 748 736 774 724 771 729 727 756 773 762 758 722 702 748 708 739 705 698 760 718 726 733 714 737 731 735 683 693 678 712 706 688 713 697 730 729 676 740 742 679 718 722 733 732 734 709 722 756 683 695 666 728 679 699 770 695 740 706 709 723 781 706 730 705 712 752 735 709 736 709 748 703 675 715 683 658 693 733 712 689 723 681 705 719 703 714 673 696 672 737 706 724 727 773 732 692 758 755 673 834 745 715 755 743 801 755 769 759 765 775 767 755 782 661 799 748 775 725 704 779 809 761 770 797 727 721 769 739 774 801 729 752 765 753 712 750 776 722 699 758 706 742 729 699 726 693 680 704 729 686 708 722 702 773 705 704 712 680 683 721 709 723 689 721 727 700 706 716 765 692 745 715 726 690 650 685 663 746 673 697 651 694 702 731 669 718 642 698 704 728 681 685 689 727 667 748 713 754 720 704 682 723 727 719 655 646 689 749 653 686 719 665 692 696 695 687 709 650 675 694 678 714 682 714 687 668 716 730 716 702 728 696 640 691 706 723 702 668 692 708 641 680 644 688 724 718 651 751 740 693 727 696 711 662 744 735 631 724 688 716 676 723 657 708 682 756 697 711 744 665 654 709 678 668 673 672 687 729 709 686 694 683 659 722 678 700 697 680 693 672 701 688 685 698 681 695 673 734 700 726 669 726 681 677 730 672 702 673 714 696 679 699 721 693 661 664 662 691 713 651 714 727 631 706 732 653 735 694 749 707 712 685 645 731 738 731 687 704 693 676 730 696 677 703 689 667 698 671 668 657 720 644 676 665 706 645 658 679 704 727 696 649 689 695 692 713 734 662 662 681 662 730 687 737 704 675 670 711 736 666 691 676 670 719 669 645 746 773 663 685 694 705 694 689 697 731 662 666 671 701 674 697 670 678 674 710 652 656 709 699 673 702 668 673 708 718 695 696 677 706 674 620 669 688 682 696 686 719 700 671 691 648 690 665 689 710 682 686 655 708 653 660 729 703 650 731 695 662 728 675 676 717 671 747 705 632 662 695 766 720 730 709 698 704 728 676 670 705 676 685 679 707 647 719 737 685 708 683 704 713 670 684 705 624 680 703 631 685 708 719 709 664 712 707 719 687 663 693 678 727 628 682 723 715 733 690 650 752 709 708 720 683 690 674 722 649 668 708 674 706 650 655 743 683 704 723 725 726 674 687 724 737 706 694 716 687 739 699 675 717 682 711 683 652 710 722 708 691 705 701 658 667 706 699 726 703 734 711 811 769 783 798 734 830 758 748 803 748 776 698 756 780 744 740 768 740 752 729 755 725 713 783 778 724 766 741 722 760 774 779 755 785 716 725 721 712 752 735 698 759 758 733 685 711 707 657 733 659 685 680 742 747 685 697 718 717 659 727 688 673 672 670 718 705 670 716 714 699 723 661 694 719 639 651 718 678 659 685 662 688 694 711 707 713 708 691 658 738 682 704 718 726 672 713 686 710 735 685 692 676 662 729 688 725 667 717 652 705 699 721 672 670 670 708 658 701 672 725 693 713 707 671 730 647 665 640 691 622 628 660 698 696 724 661 689 678 681 643 636 726 723 711 725 686 737 692 692 704 673 661 672 709 724 661 685 713 695 702 677 653 688 705 698 685 700 728 697 731 662 706 697 683 738 718 699 660 704 656 678 687 723 682 659 704 678 675 656 689 702 662 649 722 733 670 728 666 695 700 689 663 740 645 653 686 748 741 708 653 730 708 707 725 718 675 645 727 700 676 701 683 711 696 642 654 657 716 687 671 655 677 712 717 706 722 637 709 704 755 664 722 697 717 775 705 706 665 689 746 743 701 728 716 722 739 717 699 747 801 778 688 733 686 791 724 763 786 768 782 754 775 801 782 818 825 856 850 834 846 896 945 973 994 1105 1078 1145 1223 1220 1294 1276 1303 1374 1275 1221 1282 1133 1162 1119 1096 1082 1066 1027 974 1067 1027 1011 1015 1042 1005 983 1010 1034 1018 1079 1032 1082 1035 1089 1017 1087 1028 1034 946 1013 949 928 913 931 859 837 876 829 877 877 825 809 808 766 730 756 750 768 821 748 782 708 796 766 676 729 708 753 725 715 705 765 741 751 757 726 782 728 686 667 763 694 719 746 718 696 709 745 732 667 712 640 717 692 724 738 666 672 705 698 748 726 719 696 693 640 698 668 708 656 669 703 709 729 697 665 722 693 698 678 721 684 708 698 671 724 705 655 696 713 708 722 719 700 703 724 715 717 709 673 691 716 723 662 678 660 665 688 696 676 695 720 698 677 749 637 703 693 736 736 705 702 714 731 712 707 664 697 678 699 725 710 717 682 756 736 710 692 731 755 730 719 695 724 673 734 725 646 719 732 683 735 686 713 722 730 739 741 686 675 689 658 675 738 697 760 699 704 671 683 735 724 715 692 711 656 694 729 682 684 749 684 704 672 655 661 656 760 634 709 709 651 680 652 681 687 711 695 665 654 684 744 666 695 715 667 691 625 745 707 684 703 682 634 711 676 685 657 721 718 693 639 688 677 727 623 679 715 639 735 683 655 676 689 680 672 686 681 646 730 718 669 673 634 680 693 683 634 711 636 666 652 697 687 718 701 671 690 668 665 673 703 680 668 699 656 683 656 701 683 634 652 708 693 680 666 707 673 691 651 655 671 673 565 671 627 668 690 678 681 674 694 642 725 669 694 723 751 683 673 658 654 704 688 711 650 680 700 705 652 644 661 700 660 629 693 709 677 692 661 671 658 727 746 682 676 669 653 652 636 661 693 679 691 673 667 681 717 655 661 730 662 693 675 704 680 658 673 692 660 644 679 679 692 697 671 693 660 665 678 692 695 607 705 647 699 624 696 657 693 678 715 652 674 618 659 638 701 691 688 710 691 709 704 696 654 657 690 695 736 677 690 684 674 713 690 717 676 622 675 648 696 687 696 696 714 665 676 698 678 720 639 680 682 710 655 679 642 652 689 706 678 662 628 660 652 698 663 647 664 642 668 685 674 682 673 693 667 678 687 667 699 663 660 686 642 665 678 686 679 653 656 650 642 710 737 656 671 731 687 706 656 654 673 683 678 664 704 678 696 642 653 682 704 675 670 670 705 659 673 646 674 695 653 686 662 677 680 705 681 628 686 658 696 681 634 699 665 736 711 693 715 674 702 690 643 696 678 624 648 677 733 676 652 643 682 695 666 670 692 666 686 681 668 705 671 694 683 695 649 639 639 657 712 676 658 704 662 691 711 712 709 673 705 691 703 651 697 673 637 669 707 715 715 703 684 664 694 658 656 657 639 650 737 715 655 647 685 645 699 672 683 658 747 688 703 728 682 673 672 705 686 682 745 679 755 703 725 756 754 762 754 762 807 824 832 779 794 778 797 806 809 796 780 777 779 768 766 816 791 713 725 715 749 714 784 760 724 745 695 764 740 776 785 689 745 790 762 740 822 770 758 748 759 723 721 703 797 710 737 752 731 704 734 769 818 797 789 712 797 783 798 783 755 793 831 743 777 725 779 752 745 778 755 740 752 771 785 726 729 776 714 702 706 753 703 753 717 734 703 746 753 759 713 749 764 785 735 745 720 733 702 716 709 746 711 669 733</counts>
			</dataPoints>
		</scan>
	</xrdMeasurement>
</xrdMeasurements>
