<?xml version="1.0"?>
<xrdMeasurements xmlns="http://www.xrdml.com/XRDMeasurement/2.3" xmlns:xsi="http://www.w3.org/2001/XMLSchema-instance" xsi:schemaLocation="http://www.xrdml.com/XRDMeasurement/2.3 http://www.xrdml.com/XRDMeasurement/2.3/XRDMeasurement.xsd" status="Completed" recordIdentifier="{1E444C21-4A6A-46F1-B6E7-A1F29E5ECBC3}">
	<comment>
		<entry/>
	</comment>
	<sample type="To be analyzed">
		<id>GPSS_Li2Zn0p5Mg0p5Cl4_121825_6943d914f4d05ae3d69790c2</id>
		<name></name>
		<preparedBy></preparedBy>
	</sample>
	<xrdMeasurement measurementType="Scan" status="Completed" sampleMode="Reflection">
		<usedWavelength intended="K-Alpha 1">
			<kAlpha1 unit="Angstrom">1.5405980</kAlpha1>
			<kAlpha2 unit="Angstrom">1.5444260</kAlpha2>
			<kBeta unit="Angstrom">1.3922500</kBeta>
			<ratioKAlpha2KAlpha1>0.5000</ratioKAlpha2KAlpha1>
		</usedWavelength>
		<incidentBeamPath>
			<radius unit="mm">145.00</radius>
			<xRayTube id="1010048" name="Empyrean Cu LFF HR (9430 033 7310x)">
				<tension unit="kV">40.0</tension>
				<current unit="mA">15.0</current>
				<anodeMaterial>Cu</anodeMaterial>
				<focus type="Line">
					<length unit="mm">12.0</length>
					<width unit="mm">0.4</width>
					<takeOffAngle unit="deg">6.0</takeOffAngle>
				</focus>
			</xRayTube>
			<sollerSlit id="21010002" name="Soller slits 0.04 rad.">
				<opening unit="rad">0.0400</opening>
			</sollerSlit>
			<mask id="22031000" name="Fixed mask 13 mm">
				<width unit="mm">9.00</width>
			</mask>
			<divergenceSlit id="22120001" name="Divergence slit 1°" xsi:type="fixedDivergenceSlitType">
				<distanceToSample unit="mm">50.00</distanceToSample>
				<height unit="mm">1.52</height>
			</divergenceSlit>
		</incidentBeamPath>
		<sampleMovement xsi:type="spinningSampleMovementType">
			<spinnerRevolutionTime unit="seconds">1.0</spinnerRevolutionTime>
		</sampleMovement>
		<diffractedBeamPath>
			<radius unit="mm">145.00</radius>
			<antiScatterSlit id="22090040" name="AS slit 9 mm (PIXcel)" xsi:type="fixedAntiScatterSlitType">
				<height unit="mm">9.00</height>
			</antiScatterSlit>
			<sollerSlit id="21020003" name="Large Soller slits 0.04 rad.">
				<opening unit="rad">0.0400</opening>
			</sollerSlit>
			<filter id="20030001" name="Large beta-filter Nickel">
				<material>Ni</material>
				<thickness unit="mm">0.020</thickness>
			</filter>
			<detector id="7010019" name="PIXcel1D-Medipix3 detector" xsi:type="rtmsDetectorType">
				<phd unit="keV">
					<lowerLevel>4.02</lowerLevel>
					<upperLevel>11.27</upperLevel>
				</phd>
				<mode>Scanning</mode>
				<activeLength unit="deg">5.542</activeLength>
			</detector>
		</diffractedBeamPath>
		<scan appendNumber="0" mode="Continuous" scanAxis="Gonio" status="Completed">
			<header>
				<startTimeStamp>2025-12-22T12:54:42-08:00</startTimeStamp>
				<endTimeStamp>2025-12-22T13:02:49-08:00</endTimeStamp>
				<author>
					<name>AutomatedUser</name>
				</author>
				<source>
					<applicationSoftware version="1.7b (136)">PANalytical Aeris Instrument Suite</applicationSoftware>
					<instrumentControlSoftware version="3.2.00000000 20240306">AERIS</instrumentControlSoftware>
					<instrumentID>950485</instrumentID>
				</source>
			</header>
			<dataPoints>
				<positions axis="2Theta" unit="deg">
					<startPosition>10.00943322</startPosition>
					<endPosition>99.99442286</endPosition>
				</positions>
				<positions axis="Omega" unit="deg">
					<startPosition>5.00471661</startPosition>
					<endPosition>49.99721143</endPosition>
				</positions>
				<commonCountingTime unit="seconds">12.495</commonCountingTime>
				<counts unit="counts">2757 2809 2833 2742 2864 2762 2898 2833 2772 2884 2825 2789 2726 2854 2820 2871 2770 2796 2855 2774 2787 2826 2877 2813 2799 2791 2730 2848 2759 2727 2824 2728 2811 2747 2789 2856 2759 2819 2825 2785 2867 2734 2825 2793 2791 2782 2795 2823 2862 2743 2798 2809 2717 2779 2811 2865 2831 2867 2768 2848 2803 2826 2820 2789 2728 2911 2798 2760 2864 2870 2835 2810 2833 2808 2790 2880 2819 2877 2919 2838 2849 2861 2767 2759 2918 2806 2775 2824 2911 2783 2849 2861 2882 2892 2862 2890 2876 2898 2850 2933 2890 2946 2921 2850 2843 2971 2870 2943 2943 2906 2882 2742 2912 2897 2918 2861 2796 2822 2899 2952 2828 2909 2862 2873 2905 2919 2854 2972 2952 3016 2869 2854 2917 2907 2930 2881 2845 2847 2825 2868 2817 2901 2930 3002 2937 2974 2888 2955 2885 2906 2885 2876 2897 2956 2921 2865 2845 2905 2938 2869 2848 2901 2808 2890 2896 2899 2880 2870 2815 2879 2994 2782 2843 2915 2908 2945 2828 2927 2780 2889 2723 2875 2795 2885 2866 2813 2918 2854 2995 2904 2913 2903 2785 2912 2870 2886 2860 2819 2796 2850 2844 2906 2863 2792 2945 2813 2922 2930 2847 2843 2853 2848 2926 2732 2793 2803 2906 2880 2748 2987 2741 2934 2795 2855 2805 2835 2874 2873 2739 2801 2766 2775 2742 2819 2796 2818 2745 2849 2828 2789 2841 2823 2768 2830 2742 2868 2854 2716 2777 2744 2813 2724 2741 2838 2725 2818 2836 2826 2839 2843 2755 2820 2739 2826 2870 2757 2777 2734 2817 2783 2666 2811 2776 2724 2755 2805 2815 2696 2731 2798 2794 2820 2720 2746 2746 2918 2843 2721 2840 2782 2861 2786 2821 2845 2705 2824 2724 2865 2844 2798 2768 2850 2834 2843 2731 2882 2851 2855 2815 2794 2841 2910 2854 2957 2816 2787 2901 2780 2956 2836 2879 2934 2954 2838 2889 2825 2994 2983 3005 2942 2888 2946 2943 2952 2962 2907 2945 3058 3074 3047 2964 3101 3041 3170 3113 3086 3068 3029 3124 3053 3125 3052 3235 2977 3199 3237 3159 3085 3121 3203 3214 3044 3179 3188 3133 3171 3133 3233 3177 3216 3146 3174 3227 3147 3240 3257 3277 3341 3101 3220 3263 3068 3256 3215 3165 3293 3144 3142 3225 3192 3173 3273 3257 3267 3261 3290 3216 3210 3230 3271 3201 3291 3284 3194 3224 3278 3311 3167 3235 3310 3205 3323 3263 3349 3270 3372 3392 3277 3368 3453 3606 3514 3561 3543 3486 3623 3650 3637 3551 3576 3493 3619 3697 3622 3546 3565 3588 3540 3549 3707 3740 3510 3603 3591 3679 3684 3605 3664 3733 3553 3618 3564 3488 3685 3575 3461 3554 3452 3328 3461 3354 3275 3193 3272 3282 3217 3170 3327 3181 3148 3189 3142 3226 3179 3139 3181 3133 3036 3069 3037 3113 3019 3093 2957 3116 3173 3084 3080 3118 3027 3129 3093 3126 3012 3038 3248 3004 3021 3112 3059 3113 3062 2956 3001 2990 3093 2970 3056 3072 3086 3111 3029 2925 2974 2931 2893 2929 2911 2985 2895 2842 2951 2935 2945 2892 2846 2815 2974 3023 2829 3013 2915 2882 2894 2865 2807 2885 2937 2903 2889 2971 2927 3100 2983 3094 3124 3003 3008 3061 2969 3063 3125 2988 3014 3059 2938 2981 2978 2870 2956 2889 2935 2922 2918 3025 3008 3021 2925 2941 2993 2959 2882 2804 3082 2789 2866 2869 2865 2788 2828 2720 2790 2783 2766 2755 2725 2630 2687 2743 2802 2777 2729 2783 2716 2746 2729 2737 2559 2575 2599 2799 2624 2531 2720 2628 2703 2718 2661 2588 2643 2514 2646 2574 2631 2671 2612 2595 2599 2588 2628 2523 2656 2572 2534 2595 2625 2598 2566 2514 2528 2637 2620 2647 2587 2555 2637 2484 2640 2655 2469 2604 2531 2517 2538 2557 2671 2575 2601 2558 2643 2666 2654 2513 2585 2645 2613 2619 2597 2569 2676 2596 2656 2583 2573 2577 2554 2692 2472 2661 2636 2635 2671 2633 2491 2615 2579 2598 2495 2577 2607 2559 2599 2563 2583 2503 2541 2604 2599 2557 2542 2572 2474 2522 2606 2571 2581 2655 2534 2504 2429 2482 2583 2582 2521 2493 2507 2537 2478 2585 2612 2593 2473 2461 2458 2423 2439 2564 2600 2535 2492 2502 2558 2466 2462 2536 2541 2536 2508 2515 2498 2598 2496 2564 2536 2588 2497 2545 2671 2556 2685 2507 2578 2632 2865 2845 2880 2855 2886 2853 2842 2823 2879 3072 3065 3137 3021 3120 3028 3081 3011 2969 3132 2999 2918 2885 2933 2920 2958 2873 2928 2864 2932 2819 2845 3008 2949 2840 2898 2900 2905 2869 2927 2921 2865 2890 2811 2868 2827 2848 2956 2867 2833 2936 2837 2906 2912 2867 2811 2881 2696 2780 2815 2856 2772 2765 2824 2837 2641 2789 2614 2630 2764 2754 2661 2657 2675 2641 2677 2616 2634 2548 2634 2509 2537 2505 2522 2517 2533 2414 2474 2456 2503 2395 2474 2438 2465 2370 2350 2419 2399 2463 2365 2382 2439 2405 2335 2386 2371 2252 2344 2302 2403 2519 2260 2364 2258 2410 2385 2315 2337 2369 2275 2313 2357 2308 2316 2314 2324 2284 2334 2255 2400 2280 2382 2217 2439 2338 2318 2299 2252 2287 2232 2293 2310 2337 2261 2279 2312 2381 2279 2299 2292 2325 2286 2391 2307 2317 2203 2281 2294 2360 2317 2332 2390 2234 2350 2321 2413 2340 2448 2376 2496 2426 2516 2403 2513 2454 2463 2453 2525 2381 2477 2361 2451 2397 2475 2442 2304 2389 2405 2462 2389 2346 2354 2423 2433 2349 2440 2336 2364 2393 2240 2327 2322 2266 2196 2281 2214 2326 2255 2239 2284 2248 2199 2194 2217 2184 2193 2173 2142 2204 2241 2163 2221 2117 2208 2232 2198 2195 2210 2208 2267 2149 2123 2175 2121 2193 2175 2194 2123 2177 2150 2088 2208 2146 2107 2148 2225 2168 2194 2163 2200 2075 2248 2200 2151 2153 2107 2090 2256 2194 2171 2170 2123 2135 2211 2114 2126 2090 2114 2144 2124 2167 2002 2249 2219 2086 2229 2219 2139 2203 2128 2158 2150 2144 2187 2191 2206 2206 2184 2200 2236 2112 2177 2134 2157 2185 2187 2140 2107 2187 2180 2127 2184 2159 2197 2140 2126 2271 2175 2216 2234 2175 2152 2215 2231 2214 2306 2180 2179 2171 2116 2171 2198 2151 2134 2179 2189 2110 2092 2216 2123 2179 2130 2099 2138 2132 2213 2123 2123 2174 2064 2207 2189 2146 2187 2123 2210 2113 2171 2189 2276 2232 2238 2032 2220 2244 2219 2188 2088 2229 2281 2148 2243 2232 2251 2201 2165 2231 2189 2211 2164 2249 2173 2214 2183 2173 2153 2158 2192 2153 2106 2162 2182 2158 2094 2198 2147 2164 2150 2155 2137 2125 2113 2175 2137 2053 2091 2090 2062 2115 2095 2073 2013 2040 2056 2140 2065 2051 2073 2079 2025 2006 2029 2048 1972 1984 2044 2068 2024 2017 2018 1983 2019 2006 1958 1944 2020 1983 2010 1955 1998 1922 1969 2025 1970 1904 2044 1953 1924 1910 2001 1895 1996 1991 1932 1898 1956 2010 1922 1935 1823 1831 1951 1978 1833 1868 1803 1808 1900 1896 1818 1932 1867 1910 1914 1913 1863 1766 1773 1818 1923 1856 1883 1904 1854 1871 1880 1764 1886 1846 1959 1889 1865 1871 1915 1853 1843 1814 1852 1851 1892 1876 1844 1772 1794 1756 1817 1763 1764 1759 1797 1761 1858 1740 1737 1768 1737 1735 1805 1721 1787 1672 1727 1734 1683 1752 1759 1716 1796 1655 1652 1659 1691 1673 1693 1733 1781 1757 1796 1848 1814 1810 1817 1837 1816 1854 1807 1858 1810 1832 1791 1767 1758 1776 1830 1720 1825 1818 1894 1839 1914 1887 1871 1907 1956 1895 1929 1998 2076 2006 2078 2104 2181 2103 2141 2146 2146 2259 2236 2165 2211 2182 2149 2126 2157 2019 1939 2026 1979 2140 2002 1968 1976 1856 1871 1943 1956 1838 1792 1818 1799 1789 1779 1724 1777 1761 1702 1631 1697 1652 1635 1520 1646 1495 1635 1555 1602 1588 1514 1440 1516 1562 1508 1548 1492 1448 1445 1437 1481 1507 1567 1484 1577 1505 1499 1559 1496 1418 1487 1411 1483 1501 1497 1482 1410 1441 1537 1437 1526 1541 1477 1430 1486 1451 1534 1509 1476 1520 1470 1467 1543 1503 1469 1550 1455 1571 1641 1502 1527 1480 1498 1550 1527 1543 1618 1619 1532 1613 1639 1628 1560 1668 1602 1620 1601 1644 1682 1617 1649 1600 1578 1618 1610 1583 1580 1505 1544 1530 1489 1521 1560 1555 1581 1510 1557 1569 1517 1532 1524 1512 1488 1534 1556 1480 1504 1532 1435 1515 1487 1489 1540 1519 1531 1505 1525 1498 1512 1443 1475 1489 1466 1487 1495 1504 1483 1481 1487 1448 1468 1496 1410 1492 1463 1493 1535 1455 1554 1444 1476 1470 1467 1492 1515 1489 1445 1501 1463 1427 1485 1410 1460 1505 1515 1471 1456 1500 1485 1452 1444 1521 1485 1412 1438 1466 1454 1436 1357 1473 1418 1470 1431 1460 1434 1376 1428 1425 1364 1439 1429 1416 1414 1498 1460 1515 1455 1484 1504 1461 1418 1454 1451 1461 1462 1465 1401 1404 1434 1392 1339 1422 1460 1439 1435 1427 1364 1427 1430 1475 1449 1377 1390 1407 1437 1370 1378 1422 1435 1435 1406 1435 1403 1374 1405 1357 1346 1366 1384 1345 1354 1341 1473 1392 1427 1363 1368 1377 1363 1389 1322 1411 1317 1377 1376 1406 1310 1362 1387 1355 1345 1349 1321 1337 1349 1333 1382 1326 1295 1295 1358 1283 1326 1348 1380 1340 1349 1320 1302 1372 1344 1332 1419 1438 1369 1493 1473 1509 1500 1616 1678 1716 1776 1842 1780 1985 1945 2025 1967 2041 2071 2055 1999 2007 2106 2048 2122 2002 2063 2019 1956 1864 1941 1847 1864 1829 1841 1775 1825 1775 1739 1732 1721 1684 1680 1771 1672 1667 1842 1698 1737 1771 1705 1698 1784 1795 1746 1751 1781 1771 1699 1677 1665 1739 1638 1743 1712 1644 1650 1705 1654 1566 1597 1691 1609 1656 1571 1572 1667 1717 1720 1794 1796 1754 1728 1795 1840 1748 1791 1852 1863 1852 1845 1871 1812 1912 1862 1866 1865 1828 1815 1749 1662 1703 1676 1654 1635 1714 1565 1616 1606 1554 1444 1485 1450 1536 1507 1447 1447 1412 1513 1441 1405 1463 1462 1555 1534 1536 1540 1478 1537 1423 1358 1441 1469 1459 1448 1455 1484 1508 1461 1496 1509 1588 1580 1594 1660 1666 1672 1702 1596 1670 1721 1621 1627 1522 1617 1535 1528 1447 1424 1426 1422 1434 1402 1367 1427 1410 1471 1445 1499 1473 1505 1490 1533 1509 1659 1612 1675 1744 1852 1921 1990 2074 2239 2371 2537 2803 3004 3201 3556 3700 3962 4290 4226 4580 4559 4633 4740 4682 4716 4755 4901 4970 4921 5152 5202 5092 5373 5453 5384 5713 5447 5426 5177 5433 5103 5197 4994 4968 4688 4763 4526 4525 4368 4116 3820 3923 3700 3496 3240 3302 2951 3037 2823 2856 2660 2592 2649 2407 2268 2186 2173 2003 1892 1814 1745 1718 1647 1541 1545 1454 1385 1392 1376 1353 1391 1313 1376 1197 1168 1231 1182 1220 1173 1101 1152 1084 1076 1101 1038 1036 1087 1093 1011 1011 1020 979 962 1063 996 1012 1014 1007 951 978 963 994 998 1022 991 1006 1026 1007 1028 991 1080 1000 1090 1018 1038 1051 1003 990 1062 980 1040 1047 1017 1030 1025 1058 1020 1068 993 1002 995 980 1036 992 1006 922 940 969 1017 907 939 981 1041 948 919 985 988 967 1013 1005 1036 1047 1020 1074 1068 1141 1124 1202 1158 1278 1234 1379 1465 1455 1667 1693 1779 1844 1921 1967 2036 2189 2229 2060 2140 2242 2177 2143 2224 2200 2093 2118 1998 2010 1994 1883 1927 1860 1763 1737 1699 1696 1716 1624 1548 1535 1492 1435 1398 1357 1315 1282 1218 1270 1142 1102 1081 1051 1049 990 935 945 954 969 934 846 914 879 851 826 824 812 761 802 826 782 810 803 815 810 790 848 795 822 743 775 759 762 775 813 754 801 844 840 805 858 796 825 872 912 933 957 981 962 1106 1103 1103 1092 1159 1159 1167 1282 1244 1172 1187 1150 1190 1115 1166 1140 1112 1108 1072 1020 1000 994 1000 989 947 940 934 962 930 901 851 859 845 840 803 821 815 792 804 782 792 733 756 755 755 780 790 750 784 770 767 757 732 737 781 726 687 733 747 701 697 765 735 762 719 735 724 688 721 784 671 756 684 807 733 729 743 780 723 744 755 754 794 726 726 708 708 724 713 770 696 715 744 688 712 760 744 770 763 728 692 734 706 731 722 728 702 759 743 731 753 738 754 699 695 779 731 729 707 732 689 722 702 671 686 772 702 748 697 643 744 754 747 769 695 716 706 707 707 707 740 692 700 727 751 753 714 726 748 719 812 793 781 706 774 791 750 794 792 798 829 805 801 848 878 875 906 912 968 994 1048 1089 1139 1240 1271 1354 1420 1533 1714 1793 1959 2148 2252 2455 2691 2994 3031 3215 3455 3614 3633 3714 3883 3794 3857 3813 3896 3860 3900 3878 3890 3706 3874 3851 3904 3754 3715 3662 3733 3708 3650 3547 3657 3406 3514 3414 3361 3197 3146 2955 2856 2831 2655 2508 2558 2253 2272 2144 2098 1959 1859 1813 1767 1678 1703 1576 1385 1386 1348 1284 1236 1154 1166 1158 1052 1039 1060 963 976 880 893 879 868 801 832 780 775 780 757 702 771 775 649 702 708 678 687 699 743 632 715 694 694 657 697 709 641 692 657 674 670 637 621 672 677 659 644 673 669 640 640 639 657 643 669 649 647 684 592 678 659 659 640 701 642 661 667 632 655 636 600 674 661 645 672 689 664 654 678 692 625 692 641 680 628 603 646 644 637 635 652 622 669 659 646 689 659 727 720 714 726 724 727 747 708 811 804 805 813 822 841 783 754 823 737 819 758 774 777 761 763 749 730 761 742 736 694 719 747 672 706 675 627 668 686 651 672 632 617 642 591 658 625 600 605 627 644 564 615 565 573 587 644 604 611 639 529 603 566 629 578 629 598 561 595 598 591 565 611 596 565 609 594 582 578 595 587 608 594 607 553 555 566 631 639 599 612 659 618 588 528 590 557 595 637 598 620 616 616 620 644 596 635 609 583 616 587 582 563 602 610 594 590 607 566 610 594 621 605 595 558 577 560 567 556 611 532 583 547 577 569 564 550 592 622 597 562 623 608 595 606 637 600 602 595 643 618 640 587 651 623 658 653 644 674 660 648 717 716 677 751 741 733 767 764 783 824 745 732 791 769 824 753 782 755 811 759 738 800 804 736 770 770 763 763 799 768 786 727 798 722 774 771 710 772 703 711 683 685 660 692 642 624 670 681 581 636 623 634 555 523 585 628 602 563 552 510 547 550 590 585 542 548 576 549 507 522 540 496 517 497 523 466 523 545 514 529 547 569 555 610 534 514 597 546 591 616 579 632 635 587 648 634 633 578 631 594 624 578 639 637 600 655 648 591 614 628 592 621 583 612 615 608 632 667 623 604 602 594 590 581 609 532 606 631 584 587 584 599 572 562 553 570 571 533 573 578 597 543 590 509 516 526 501 534 521 575 547 515 524 542 560 590 600 497 559 579 581 526 538 523 574 529 575 574 600 571 583 653 629 642 625 635 635 637 699 617 656 635 671 655 603 666 676 678 614 665 636 663 610 618 621 636 637 615 650 577 632 545 580 585 614 560 552 505 575 536 543 581 560 594 595 529 552 547 543 550 525 539 496 555 516 550 502 517 493 532 519 566 541 521 546 520 500 518 461 465 498 506 466 485 463 518 487 484 482 494 488 466 502 481 508 495 471 556 510 518 532 540 547 543 569 569 616 635 690 666 672 652 713 717 711 723 742 784 742 789 761 743 728 769 708 724 678 687 690 664 637 659 612 653 626 614 620 570 561 647 584 555 590 567 550 523 516 583 504 560 558 487 504 462 498 502 453 496 471 456 471 460 464 472 514 461 489 480 462 468 460 473 504 486 472 493 460 532 479 533 464 496 457 486 473 519 450 480 468 463 461 466 440 458 439 469 466 474 468 460 476 480 465 494 461 481 540 482 456 495 503 459 507 499 519 502 505 502 501 477 465 495 483 514 508 543 482 526 479 434 507 452 487 495 475 465 510 541 482 481 418 524 472 508 456 452 474 472 486 494 519 442 490 496 461 490 478 515 521 498 510 524 494 500 489 517 493 542 514 533 527 517 498 557 536 580 592 543 551 543 576 536 602 567 573 596 624 685 638 655 680 721 691 718 778 700 760 764 800 770 737 828 815 788 762 826 873 845 802 755 737 771 782 772 738 738 728 694 684 718 711 634 690 677 654 660 633 633 631 576 642 551 558 560 588 538 575 528 564 531 552 517 523 479 458 508 482 523 506 513 467 496 499 490 514 465 515 450 480 521 534 513 487 502 478 517 493 525 513 527 485 519 483 489 508 513 466 501 478 487 494 482 525 493 545 504 513 541 523 566 550 617 581 621 568 607 628 618 615 613 646 628 635 645 615 643 614 607 542 615 580 539 586 568 574 553 541 520 520 545 525 526 572 532 545 532 517 497 513 433 482 481 464 497 477 523 476 465 443 482 471 488 486 489 466 474 506 465 490 423 524 470 474 490 474 487 454 449 445 470 443 446 468 463 450 487 462 460 494 485 438 465 492 509 476 432 526 481 518 458 453 509 503 505 515 549 528 571 519 520 543 526 565 609 612 545 565 539 550 552 559 577 591 562 622 546 547 554 553 588 592 573 555 567 655 647 619 645 684 628 700 734 756 831 796 820 807 837 808 806 798 860 844 824 854 868 866 892 856 900 818 857 878 870 831 795 892 857 904 886 897 908 906 898 868 857 834 944 887 838 816 847 857 838 863 845 768 810 750 711 698 709 674 689 676 643 644 605 658 593 595 597 558 526 553 532 526 504 457 529 505 474 486 491 486 475 458 483 465 446 469 490 448 444 438 463 431 461 474 455 494 479 515 493 494 470 472 525 555 492 504 503 488 513 489 509 530 511 521 550 580 524 573 491 501 503 514 545 497 472 506 498 503 522 474 506 484 504 493 481 455 482 446 467 442 438 452 500 529 487 479 483 483 511 475 446 458 508 495 523 493 474 522 488 522 447 451 495 455 484 454 453 441 465 489 445 471 435 448 445 490 439 452 448 433 437 470 481 490 491 473 476 480 468 467 465 462 444 476 450 465 433 431 444 421 442 394 434 424 460 425 460 458 475 490 406 438 417 400 408 405 432 434 398 432 449 456 459 407 454 429 411 393 444 438 418 453 464 480 427 455 459 484 482 480 461 509 503 527 523 531 531 569 565 593 578 645 627 637 635 628 618 617 648 609 655 654 687 663 653 638 645 617 664 649 615 655 623 610 581 623 565 572 576 551 539 568 551 530 555 533 546 501 519 505 529 504 501 506 517 507 547 495 537 496 485 507 482 502 525 536 478 507 463 501 512 442 463 469 499 517 486 475 478 509 465 506 475 471 512 475 512 490 448 467 480 483 478 453 492 451 509 493 466 465 461 510 503 526 491 486 533 515 518 552 531 539 558 562 580 667 666 658 668 739 784 740 802 775 770 808 837 833 912 956 939 960 868 974 1020 1078 1119 1029 1093 1192 1196 1191 1252 1275 1328 1352 1406 1344 1451 1468 1559 1616 1591 1924 1919 1923 2199 2248 2503 2560 2860 2870 2964 2945 2982 2986 2927 2948 2936 2761 2778 2832 2878 2679 2749 2723 2799 2789 2597 2542 2629 2602 2515 2468 2431 2483 2377 2394 2366 2387 2365 2348 2343 2306 2214 2361 2178 2316 2170 2300 2222 2117 2093 2018 2040 2048 1946 1890 1786 1918 1805 1786 1846 1768 1762 1571 1541 1448 1396 1354 1266 1251 1207 1197 1094 1132 1001 1029 922 893 843 836 783 758 747 676 705 663 666 628 627 618 616 606 539 562 524 605 526 509 497 493 511 517 465 511 509 511 447 480 482 468 465 457 461 467 448 460 451 477 458 472 438 446 488 429 455 436 444 437 417 430 436 421 381 426 423 439 416 457 439 418 396 414 434 447 403 422 433 442 443 390 411 419 397 432 388 399 374 430 405 419 404 413 395 408 390 404 396 434 382 464 422 413 426 418 415 417 454 456 419 429 408 430 429 435 424 409 423 439 448 423 401 420 423 461 407 486 445 399 390 434 396 407 416 454 397 426 410 430 406 445 441 465 391 423 397 410 478 413 458 405 418 442 431 442 455 482 481 467 465 463 470 510 496 525 524 509 525 486 514 503 524 494 547 468 481 551 486 502 488 506 443 511 533 503 512 505 527 550 511 508 484 508 552 557 543 509 537 522 544 543 544 531 482 566 498 514 475 503 538 517 502 433 436 506 457 483 452 503 478 483 459 442 452 422 436 441 453 420 396 405 445 414 383 434 384 444 433 388 442 393 432 413 427 438 425 414 381 420 408 436 423 395 385 403 395 433 428 442 422 440 452 418 461 414 426 434 419 480 456 452 498 502 545 477 595 614 636 742 779 834 848 993 1057 1142 1210 1129 1198 1193 1224 1200 1130 1139 1172 1171 1271 1079 1120 1114 1112 1109 1067 1050 981 971 1006 904 896 848 779 796 754 698 702 667 620 616 589 634 590 552 506 517 543 531 484 501 479 446 478 501 481 455 469 464 422 455 449 469 448 404 414 464 476 421 457 432 453 392 398 434 406 370 378 369 393 365 403 356 378 410 386 353 367 353 358 389 371 380 365 381 387 365 322 368 387 366 379 385 357 372 389 358 363 340 353 369 355 359 335 344 366 327 377 353 356 370 346 361 343 365 346 360 351 357 349 376 342 343 346 329 323 333 355 372 340 413 366 362 366 385 379 348 373 366 346 356 350 410 422 404 379 366 403 386 419 339 365 384 369 403 396 384 350 327 362 372 359 392 346 413 386 406 377 375 359 336 366 360 394 385 332 385 352 317 333 370 371 344 390 352 382 374 358 352 332 347 356 384 337 345 302 349 356 353 356 363 374 328 321 349 314 370 339 358 351 323 380 317 362 367 331 343 340 357 360 312 320 326 338 322 351 299 369 341 389 343 385 352 357 323 330 336 333 360 389 381 349 335 324 350 350 394 366 378 361 383 353 353 376 366 409 386 391 381 400 364 368 375 405 354 435 403 374 427 433 397 413 389 446 410 471 468 474 445 459 451 500 428 479 396 408 501 424 407 444 440 444 446 471 446 417 397 436 419 412 389 418 422 394 354 371 370 394 373 344 316 363 384 380 355 342 343 353 326 370 346 328 326 306 380 303 389 361 294 403 313 348 335 331 329 356 326 373 332 327 337 333 324 310 313 346 366 379 321 322 359 358 396 332 358 324 341 339 371 355 337 363 373 320 356 344 372 342 393 353 352 362 375 389 359 376 373 380 428 398 377 406 432 384 412 402 394 383 395 388 385 399 417 391 383 336 356 376 378 367 405 380 383 392 385 384 322 388 398 341 424 321 391 344 349 388 376 377 382 336 362 337 341 376 357 368 368 389 340 365 387 362 381 391 403 363 359 356 401 400 374 392 436 412 394 403 418 397 401 463 422 465 480 431 462 455 460 475 471 482 516 507 491 547 506 572 572 567 529 505 539 552 562 577 566 537 560 524 577 577 555 565 584 575 560 552 555 555 583 562 577 534 627 624 591 601 600 600 679 677 692 745 752 789 793 943 862 965 972 1065 1132 1114 1025 1061 1114 1084 1105 1111 1139 1006 1065 1039 1095 1094 1111 1061 1082 1035 985 1054 1026 968 947 972 969 971 949 934 887 967 923 968 897 990 985 928 902 962 918 927 1020 936 963 988 918 1017 962 922 936 937 914 913 902 904 840 936 891 830 818 889 834 762 834 814 789 748 743 755 696 704 657 676 614 631 611 616 616 596 561 576 529 604 508 503 531 560 532 478 464 488 503 440 491 471 453 502 461 434 437 420 413 405 392 420 409 431 407 402 390 343 384 382 386 410 397 425 405 411 380 418 392 407 381 386 386 376 376 386 394 379 435 387 392 377 382 368 373 409 387 415 401 399 367 372 400 361 396 383 394 372 373 339 346 363 331 335 331 375 356 381 366 356 371 357 365 394 372 387 391 350 382 348 352 361 349 315 329 365 312 311 316 363 329 343 335 308 303 286 316 315 345 339 315 328 313 298 322 325 293 311 331 306 319 304 316 296 312 327 307 337 298 331 311 289 286 276 318 317 292 322 303 331 321 316 301 328 306 311 324 312 323 315 337 331 352 313 319 367 331 340 349 308 328 343 339 349 333 345 345 373 381 384 384 387 388 421 442 466 496 496 527 609 543 623 641 647 691 663 701 740 740 657 697 666 767 708 675 713 633 724 711 698 704 697 752 671 637 682 653 591 644 608 548 565 586 541 587 543 479 567 485 477 489 490 483 473 467 455 455 490 441 440 448 416 469 412 436 437 387 381 403 413 393 402 405 389 421 428 376 365 402 448 442 421 419 430 392 420 422 404 406 408 418 384 439 384 338 375 366 390 383 371 364 357 330 335 337 409 312 347 313 361 325 346 330 317 315 334 301 319 314 324 316 304 352 334 317 300 330 297 316 312 281 322 306 338 316 300 290 348 283 313 302 302 295 336 281 324 307 292 289 304 296 287 279 320 309 271 258 284 312 286 257 276 279 282 306 283 314 264 266 266 268 307 273 278 313 309 281 279 249 283 277 279 271 294 285 273 315 281 313 267 278 301 306 336 299 318 300 277 297 340 330 336 302 339 343 362 394 375 366 400 409 404 383 415 405 398 374 411 422 381 347 398 369 409 384 367 392 369 380 369 370 356 338 331 360 328 367 354 350 345 346 341 355 309 305 342 304 334 354 319 309 330 367 316 350 333 355 340 352 337 359 357 388 378 385 381 377 398 407 388 369 366 358 368 356 378 376 373 360 374 386 392 353 349 353 387 343 389 347 300 351 357 323 360 303 324 292 324 316 324 290 336 317 293 284 308 272 298 318 282 318 256 270 300 276 271 289 264 287 259 277 292 278 288 288 288 261 282 239 265 262 313 288 280 301 265 294 269 273 226 287 276 258 294 309 304 302 281 279 266 337 298 279 279 287 295 298 305 289 327 275 321 286 319 307 311 296 266 307 322 322 311 288 293 325 290 300 327 336 272 322 300 332 311 325 301 320 309 273 270 316 293 310 280 286 256 293 239 261 261 313 266 309 245 303 298 311 287 297 262 274 285 290 283 294 298 282 268 291 280 290 280 303 274 257 288 313 299 280 274 299 281 317 280 273 289 270 286 274 285 286 282 297 265 306 283 263 277 258 262 270 279 270 247 263 275 249 267 283 304 294 237 288 272 246 272 231 268 243 249 222 278 272 274 260 269 247 265 236 261 265 236 264 285 277 261 266 244 260 270 280 287 270 242 248 222 264 236 303 249 271 268 221 243 220 258 263 232 265 247 236 300 246 258 267 262 247 266 233 239 246 237 229 244 244 272 273 233 256 286 246 245 274 268 250 228 229 275 273 272 259 310 283 262 250 286 278 289 269 274 247 229 272 262 248 266 305 292 295 278 322 305 328 299 280 324 304 338 335 310 313 323 333 308 315 284 336 312 314 347 350 371 343 304 346 292 316 334 362 346 328 316 330 299 299 329 316 322 281 299 286 319 296 290 291 275 309 307 269 265 307 311 311 313 264 270 269 287 286 271 277 285 281 250 274 309 237 278 241 267 206 273 240 264 288 278 265 260 246 233 265 241 274 233 282 223 267 236 275 247 310 267 256 238 256 267 302 285 256 271 285 284 266 273 293 276 249 270 289 259 272 226 267 276 270 245 287 267 279 269 278 271 234 269 279 280 248 269 272 230 281 301 308 271 296 276 250 235 266 287 294 273 288 307 279 291 315 300 356 309 320 321 340 340 308 340 283 346 310 359 317 329 334 322 301 293 326 308 289 343 298 302 293 297 286 295 311 299 281 275 281 292 294 292 294 307 313 300 289 329 285 356 318 318 303 297 299 321 314 322 307 337 323 297 323 355 296 318 304 287 307 293 296 306 315 325 307 299 322 329 327 330 321 294 315 294 289 317 290 320 309 300 295 305 305 288 259 268 314 297 322 285 258 268 282 298 260 293 300 242 269 250 289 212 247 268 273 263 261 236 262 238 233 246 269 241 241 262 257 211 240 232 219 231 246 237 268 269 250 242 234 214 234 238 236 262 270 238 236 232 274 236 258 225 228 234 258 241 243 216 243 235 245 275 242 241 229 243 276 287 243 215 259 265 265 293 278 250 267 276 240 264 268 290 236 260 272 284 279 264 278 274 258 276 265 262 286 225 265 260 263 286 237 226 263 229 230 260 247 218 276 250 273 281 229 244 227 206 234 256 223 248 232 239 242 239 248 210 243 245 278 214 236 237 210 229 196 245 222 226 215 240 234 217 268 227 245 277 243 248 257 206 220 208 261 239 244 217 271 228 226 218 210 265 244 222 250 236 213 230 264 236 266 233 248 278 230 270 265 222 240 235 247 262 221 269 264 234 246 270 245 248 268 248 257 288 263 273 290 289 271 320 331 293 333 305 331 312 321 324 342 340 367 361 408 401 404 432 427 401 420 428 438 416 414 427 438 428 430 424 445 440 437 410 416 416 379 420 401 394 413 432 421 404 401 414 359 388 408 419 373 352 410 374 349 405 410 413 393 417 439 367 427 420 426 406 452 428 431 451 437 444 473 434 474 469 442 452 442 497 410 502 476 447 446 458 402 420 403 422 434 416 416 403 404 380 363 381 379 347 360 347 303 350 364 315 400 338 325 319 342 322 309 279 317 299 297 322 270 319 279 294 263 282 285 271 273 278 267 264 285 258 274 261 261 231 280 227 246 267 217 232 250 231 240 223 236 262 249 260 240 261 235 244 233 258 219 222 243 238 239 260 261 232 210 229 229 280 251 236 242 232 249 231 210 262 239 248 226 239 225 249 214 232 257 228 267 246 256 286 245 246 224 273 245 272 259 266 275 236 268 241 273 276 260 292 264 277 227 236 264 279 295 276 281 239 241 228 230 283 272 280 261 266 262 249 245 260 230 240 270 281 265 242 294 226 293 270 283 270 266 225 242 285 297 264 283 256 275 305 282 263 314 275 265 270 287 326 294 314 290 313 325 319 332 354 369 336 380 371 364 372 404 388 397 416 370 398 354 372 339 387 366 368 350 355 352 373 391 389 380 365 400 393 412 361 332 329 372 369 314 338 330 332 312 325 317 299 330 302 279 291 279 271 268 291 288 282 278 292 298 237 267 246 233 246 221 214 242 286 266 235 249 247 242 263 226 228 229 219 204 211 233 227 212 261 230 236 205 221 236 263 236 213 230 198 217 192 230 221 224 223 209 219 205 248 203 238 216 218 239 228 225 247 212 230 213 231 204 256 272 217 229 190 216 207 243 242 239 228 213 228 209 218 231 218 260 231 238 259 219 223 215 214 231 220 227 215 264 250 223 226 213 228 244 204 243 207 214 216 228 230 220 224 225 232 224 195 200 231 212 228 205 233 215 232 237 212 208 209 217 190 215 233 271 225 240 234 233 222 233 191 205 224 217 243 220 226 228 233 238 249 247 230 245 208 232 233 228 276 214 245 243 231 215 236 224 243 215 198 256 222 228 194 239 198 228 232 248 247 220 212 203 195 232 260 207 223 247 241 228 214 218 223 232 236 208 221 273 242 189 238 223 263 236 234 227 226 242 231 235 241 259 216 230 242 234 240 209 232 271 260 258 234 241 220 270 235 224 236 244 267 263 259 233 258 256 283 247 275 247 243 282 272 277 266 272 243 277 262 258 282 237 265 270 277 279 319 304 294 328 287 292 266 270 312 294 279 276 258 240 271 297 280 273 278 281 264 304 303 266 293 246 317 264 249 263 265 280 244 260 293 248 300 288 259 305 226 262 243 274 278 268 267 261 260 258 263 221 263 259 283 268 275 242 308 268 281 285 261 248 274 222 282 273 244 285 272 276 233 268 274 272 214 246 245 259 244 293 288 285 219 256 272 261 293 308 246 262 308 224 261 233 246 269 239 295 271 295 273 238 257 277 279 275 296 303 296 290 288 280 292 303 263 274 291 279 307 245 301 306 314 311 337 269 283 300 297 310 337 304 306 312 302 315 305 293 322 345 304 323 348 332 349 293 347 348 334 380 380 366 374 355 402 400 371 389 438 416 451 463 491 475 511 455 446 457 414 498 461 486 438 447 454 440 460 473 430 482 440 456 435 442 463 453 448 456 469 423 457 441 450 415 377 383 404 440 388 400 427 452 424 414 390 403 409 440 422 435 424 416 448 417 411 415 446 438 425 458 421 403 430 463 409 422 449 424 386 426 403 372 382 415 396 415 452 383 416 419 402 367 417 386 417 413 369 382 409 358 367 388 364 337 372 362 344 333 346 385 337 374 302 359 365 342 337 335 333 314 352 325 325 334 313 327 327 350 319 328 321 320 327 332 307 331 324 354 330 307 331 331 298 321 286 314 330 273 300 286 292 244 284 275 281 267 274 261 308 300 313 246 297 264 268 267 256 278 237 265 259 271 269 302 259 235 274 271 247 259 262 265 238 205 260 230 242 247 266 259 267 249 260 257 231 230 261 224 274 293 261 288 274 257 275 256 280 274 237 248 268 266 307 279 291 268 283 287 286 299 303 265 294 319 332 275 293 358 346 368 355 371 388 344 380 388 412 438 480 499 505 518 560 584 571 564 608 596 561 604 619 588 587 641 585 556 585 590 577 537 556 549 548 538 527 496 511 528 527 477 480 536 554 523 545 482 521 520 476 502 471 472 485 447 448 421 439 438 421 394 391 404 369 362 385 384 382 347 402 386 356 388 339 367 384 339 384 390 360 406 347 376 359 386 361 330 342 331 364 375 352 389 332 384 337 338 369 361 335 332 376 322 327 347 353 347 345 278 340 330 317 331 342 311 323 291 327 271 288 282 275 290 318 293 320 282 277 244 282 291 269 264 284 293 280 289 288 261 244 288 262 268 275 269 256 283 279 247 257 256 275 220 247 262 239 241 278 235 236 236 250 211 246 245 225 242 261 248 270 238 238 249 264 259 245 259 280 274 239 271 272 218 265 234 269 242 248 285 276 262 279 248 281 279 280 278 266 268 249 314 289 319 278 258 306 249 277 284 261 233 245 288 257 256 278 283 291 269 270 247 303 250 313 243 247 276 275 241 258 245 261 246 285 259 270 234 276 270 289 264 259 242 251 261 228 250 270 256 236 248 222 233 245 269 246 259 266 257 260 248 273 225 279 227 275 279 270 249 261 262 246 237 234 251 256 262 242 222 246 242 244 246 248 272 226 258 227 244 207 230 229 231 218 242 241 225 265 236 240 221 241 239 227 230 228 212 228 238 223 230 195 238 212 244 261 230 250 244 264 266 229 222 266 234 271 266 262 225 267 230 274 232 278 247 246 267 260 243 237 271 245 236 239 266 239 221 240 240 213 276 238 242 248 237 232 246 237 258 243 232 231 225 224 230 228 226 267 229 224 222 242 236 239 266 266 209 250 214 231 212 231 217 226 224 216 238 242 211 209 205 229 226 240 224 223 236 210 223 210 208 223 212 231 225 233 231 257 245 216 214 224 246 233 202 257 264 207 256 207 230 226 211 206 215 203 199 215 230 265 225 204 226 236 201 215 206 202 218 223 243 231 224 242 213 218 221 211 211 243 197 219 220 217 206 231 235 214 200 212 221 242 222 238 200 256 181 256 246 199 265 219 232 218 233 219 223 240 257 220 231 215 242 212 229 226 218 198 212 198 218 227 202 229 224 220 225 220 238 236 225 200 231 223 232 243 256 244 262 222 219 218 221 218 236 246 217 256 256 262 231 216 280 219 250 240 256 269 258 246 243 272 235 258 236 220 238 236 232 249 241 222 284 262 250 229 257 217 261 237 232 230 264 246 266 214 239 258 223 269 245 229 226 242 218 231 239 217 235 228 219 249 258 250 245 241 241 233 242 246 238 250 233 278 221 245 222 268 195 264 197 243 240 229 207 248 237 224 237 244 234 226 206 229 218 229 260 204 242 236 261 230 277 232 233 234 243 232 225 234 238 221 231 217 216 238 207 226 226 265 218 232 219 237 224 218 227 221 226 214 248 230 231 222 231 304 245 269 289 263 281 213 275 286 272 278 312 286 277 293 245 284 312 294 307 294 304 285 241 284 258 296 270 244 260 266 262 266 280 270 241 263 279 262 250 245 270 265 290 200 268 241 259 256 223 243 245 257 221 233 235 233 238 269 227 222 251 226 250 286 239 239 244 248 238 247 235 222 270 238 263 218 245 238 264 232 228 220 225 223 250 216 257 238 226 258 271 248 247 239 250 273 225 234 225 257 242 209 278 204 230 236 230 242 220 264 233 245 226 242 249 274 214 282 246 234 205 231 242 228 237 207 245 236 241 196 258 221 231 240 201 209 228 231 250 241 273 238 227 227 211 242 234 219 259 222 202 215 229 240 237 245 189 267 229 227 230 229 271 228 236 238 234 242 260 248 256 248 249 260 243 258 276 249 230 261 244 281 264 232 265 268 274 251 236 262 248 248 292 277 257 270 236 248 232 229 243 239 247 235 265 250 281 298 256 321 260 261 282 338 302 228 233 273 267 274 286 244 257 308 275 280 265 260 257 272 275 275 238 303 286 247 281 267 282 299 273 268 291 265 248 282 268 275 273 257 243 272 280 302 291 284 256 264 262 264 297 318 273 316 287 268 290 312 304 279 294 283 310 312 299 322 311 331 297 352 307 335 376 382 407 386 395 399 401 449 439 489 499 495 497 527 470 555 498 519 496 507 489 524 506 470 464 461 468 472 485 417 399 450 439 465 478 464 451 487 415 430 440 424 456 426 436 456 434 447 436 437 417 405 396 398 451 357 429 367 363 381 412 401 378 414 381 364 406 362 397 384 400 403 444 379 442 415 458 410 381 402 423 423 428 387 414 415 447 431 445 440 426 430 412 388 421 468 367 453 417 385 390 405 391 370 444 353 400 366 349 383 394 349 419 388 378 341 372 372 362 343 345 338 322 346 343 351 283 302 324 322 363 319 324 350 308 306 287 307 308 324 340 309 305 300 313 344 303 272 279 270 287 277 282 266 291 268 312 285 288 244 262 275 268 263 249 297 249 291 274 274 264 270 266 269 257 257 270 287 271 278 245 247 263 262 269 257 241 241 268 241 248 273 280 301 258 233 240 227 263 272 288 267 276 291 235 287 264 300 278 258 237 262 282 300 289 284 325 292 303 302 310 302 270 323 287 308 320 304 286 300 298 305 302 310 291 324 296 315 318 322 244 325 327 294 321 332 299 317 315 318 300 306 342 338 302 341 307 299 334 326 328 342 309 278 325 351 360 310 291 310 321 318 315 296 323 305 305 299 274 283 304 303 295 299 280 275 271 276 284 273 278 286 273 249 284 249 270 244 248 265 259 226 221 248 236 241 236 276 265 257 246 226 223 190 215 260 222 261 209 243 210 228 245 241 217 226 208 215 218 201 204 227 219 187 215 221 205 246 233 226 225 212 264 199 193 211 229 205 232 213 221 237 224 185 213 208 191 207 204 220 208 195 224 226 225 234 204 228 216 196 228 240 243 240 216 203 238 205 199 207 229 198 231 190 231 221 224 216 234 207 243 191 248 218 228 228 206 209 185 221 207 217 219 184 198 248 217 219 237 206 208 243 218 199 220 214 205 217 217 237 205 179 219 209 191 214 220 208 221 225 212 219 208 182 213 224 215 234 193 264 233 206 201 228 222 200 220 201 214 217 203 215 220 225 218 208 213 218 241 223 222 228 220 203 214 202 221 215 221 225 228 260 212 213 198 213 200 211 238 210 227 225 202 236 209 212 213 186 215 200 221 194 192 228 229 188 247 221 243 204 261 234 208 211 241 261 239 231 261 242 230 239 228 267 229 230 280 223 268 211 234 238 259 260 240 249 269 260 228 238 267 228 241 229 237 219 231 265 271 241 232 244 242 247 242 245 227 228 256 249 263 279 258 256 238 261 268 291 243 222 244 238 268 233 273 257 246 221 244 279 246 242 220 268 242 249 216 260 262 246 229 236 271 226 241 237 266 228 219 260 227 246 232 257 235 250 232 223 208 247 260 273 217 269 262 283 271 244 244 256 240 277 258 210 268 261 260 284 269 279 235 226 247 281 283 238 270 257 245 267 247 271 272 300 273 290 260 272 276 284 280 302 301 273 290 347 313 328 334 309 312 318 297 319 323 319 295 328 353 299 320 327 311 311 323 325 335 330 273 270 291 307 319 290 286 298</counts>
			</dataPoints>
		</scan>
	</xrdMeasurement>
</xrdMeasurements>
