<?xml version="1.0"?>
<xrdMeasurements xmlns="http://www.xrdml.com/XRDMeasurement/2.3" xmlns:xsi="http://www.w3.org/2001/XMLSchema-instance" xsi:schemaLocation="http://www.xrdml.com/XRDMeasurement/2.3 http://www.xrdml.com/XRDMeasurement/2.3/XRDMeasurement.xsd" status="Completed" recordIdentifier="{562B43FB-C26C-4C16-9D5C-6E53366CF41E}">
	<comment>
		<entry/>
	</comment>
	<sample type="To be analyzed">
		<id>GPSS_Li1p4Co0p8Ta0p2Cl4_110125_690658b7e3432ed06b655f33</id>
		<name></name>
		<preparedBy></preparedBy>
	</sample>
	<xrdMeasurement measurementType="Scan" status="Completed" sampleMode="Reflection">
		<usedWavelength intended="K-Alpha 1">
			<kAlpha1 unit="Angstrom">1.5405980</kAlpha1>
			<kAlpha2 unit="Angstrom">1.5444260</kAlpha2>
			<kBeta unit="Angstrom">1.3922500</kBeta>
			<ratioKAlpha2KAlpha1>0.5000</ratioKAlpha2KAlpha1>
		</usedWavelength>
		<incidentBeamPath>
			<radius unit="mm">145.00</radius>
			<xRayTube id="1010048" name="Empyrean Cu LFF HR (9430 033 7310x)">
				<tension unit="kV">40.0</tension>
				<current unit="mA">15.0</current>
				<anodeMaterial>Cu</anodeMaterial>
				<focus type="Line">
					<length unit="mm">12.0</length>
					<width unit="mm">0.4</width>
					<takeOffAngle unit="deg">6.0</takeOffAngle>
				</focus>
			</xRayTube>
			<sollerSlit id="21010002" name="Soller slits 0.04 rad.">
				<opening unit="rad">0.0400</opening>
			</sollerSlit>
			<mask id="22031000" name="Fixed mask 13 mm">
				<width unit="mm">9.00</width>
			</mask>
			<divergenceSlit id="22120001" name="Divergence slit 1°" xsi:type="fixedDivergenceSlitType">
				<distanceToSample unit="mm">50.00</distanceToSample>
				<height unit="mm">1.52</height>
			</divergenceSlit>
		</incidentBeamPath>
		<sampleMovement xsi:type="spinningSampleMovementType">
			<spinnerRevolutionTime unit="seconds">1.0</spinnerRevolutionTime>
		</sampleMovement>
		<diffractedBeamPath>
			<radius unit="mm">145.00</radius>
			<antiScatterSlit id="22090040" name="AS slit 9 mm (PIXcel)" xsi:type="fixedAntiScatterSlitType">
				<height unit="mm">9.00</height>
			</antiScatterSlit>
			<sollerSlit id="21020003" name="Large Soller slits 0.04 rad.">
				<opening unit="rad">0.0400</opening>
			</sollerSlit>
			<filter id="20030001" name="Large beta-filter Nickel">
				<material>Ni</material>
				<thickness unit="mm">0.020</thickness>
			</filter>
			<detector id="7010019" name="PIXcel1D-Medipix3 detector" xsi:type="rtmsDetectorType">
				<phd unit="keV">
					<lowerLevel>4.02</lowerLevel>
					<upperLevel>11.27</upperLevel>
				</phd>
				<mode>Scanning</mode>
				<activeLength unit="deg">5.542</activeLength>
			</detector>
		</diffractedBeamPath>
		<scan appendNumber="0" mode="Continuous" scanAxis="Gonio" status="Completed">
			<header>
				<startTimeStamp>2025-11-03T13:18:31-08:00</startTimeStamp>
				<endTimeStamp>2025-11-03T13:26:38-08:00</endTimeStamp>
				<author>
					<name>AutomatedUser</name>
				</author>
				<source>
					<applicationSoftware version="1.7b (136)">PANalytical Aeris Instrument Suite</applicationSoftware>
					<instrumentControlSoftware version="3.2.00000000 20240306">AERIS</instrumentControlSoftware>
					<instrumentID>950485</instrumentID>
				</source>
			</header>
			<dataPoints>
				<positions axis="2Theta" unit="deg">
					<startPosition>10.00943322</startPosition>
					<endPosition>99.99442286</endPosition>
				</positions>
				<positions axis="Omega" unit="deg">
					<startPosition>5.00471661</startPosition>
					<endPosition>49.99721143</endPosition>
				</positions>
				<commonCountingTime unit="seconds">12.495</commonCountingTime>
				<counts unit="counts">3895 3809 3810 3939 3792 3757 3800 3670 3844 3934 3848 3834 3897 3712 3785 3883 3890 3705 3787 3921 3898 3905 3885 3786 3802 3944 3891 3904 3904 3851 3979 3858 3866 3954 3785 3927 3901 3949 3935 3906 3960 4001 3954 3944 3985 4052 3930 3901 3977 3992 4018 3950 3940 4001 3931 3893 4001 4019 4059 4039 4122 4169 4031 4065 3919 4114 4053 4151 4097 4055 4011 4114 4183 4173 4086 4119 4070 4066 4223 4135 4136 4097 4015 4151 4108 4044 4131 4216 4077 4170 4046 4119 4066 4060 4104 4144 4084 4182 4193 4172 4049 4036 4047 4190 4214 4141 4017 4270 4230 4155 4237 4168 4171 4136 4104 4297 4244 4229 4271 4217 4173 4126 4083 4290 4273 4192 4217 4144 4213 4152 4165 4335 4193 4309 4211 4247 4210 4270 4286 4143 4384 4170 4377 4292 4236 4337 4201 4235 4199 4253 4196 4319 4335 4246 4315 4312 4284 4273 4222 4333 4362 4246 4236 4292 4253 4241 4280 4246 4313 4266 4372 4354 4311 4236 4306 4393 4269 4319 4359 4289 4368 4388 4309 4358 4348 4334 4361 4269 4216 4293 4395 4264 4416 4403 4282 4302 4332 4251 4212 4424 4325 4190 4423 4318 4335 4473 4380 4274 4249 4271 4382 4374 4284 4356 4345 4366 4247 4259 4279 4282 4275 4220 4447 4312 4233 4377 4427 4455 4347 4371 4370 4351 4366 4334 4280 4276 4390 4242 4356 4310 4398 4294 4312 4371 4371 4358 4403 4209 4376 4383 4218 4417 4415 4437 4303 4439 4288 4367 4289 4335 4334 4248 4364 4362 4359 4401 4369 4344 4336 4287 4349 4392 4429 4391 4280 4507 4536 4353 4441 4410 4450 4356 4324 4452 4343 4439 4434 4277 4479 4464 4374 4527 4444 4406 4427 4433 4371 4551 4356 4463 4438 4578 4520 4563 4460 4606 4616 4515 4467 4489 4410 4611 4493 4544 4716 4650 4493 4442 4601 4547 4566 4538 4715 4606 4523 4626 4567 4598 4586 4626 4589 4668 4656 4725 4620 4696 4606 4589 4610 4772 4620 4710 4712 4736 4692 4686 4655 4625 4652 4654 4752 4793 4628 4727 4789 4588 4858 4851 4696 4775 4759 4774 4754 4869 4798 4794 4712 4815 4789 4861 4680 4783 4913 4806 4832 4851 4877 4847 4923 4834 4852 4893 4998 4874 4916 4764 4847 4859 4872 5069 4911 4955 4905 4989 4903 4956 4970 4948 4883 4897 4960 4994 4992 5063 4980 5057 5029 4980 5056 5042 5015 4946 4934 5061 5137 4980 4977 5029 5077 5154 4939 4986 5128 4937 5091 5052 5109 5192 5100 5075 5043 5241 5014 5169 5235 5362 5305 5369 5267 5356 5307 5412 5318 5538 5478 5564 5559 5711 5555 5604 5691 5737 5717 5669 5760 5938 5790 5746 5953 5966 6047 6049 6229 6122 6193 6253 6123 6157 6352 6302 6269 6403 6368 6512 6440 6502 6574 6415 6549 6629 6530 6618 6722 6632 6632 6786 6520 6552 6660 6604 6464 6588 6403 6511 6481 6442 6467 6391 6229 6220 6252 6440 6361 6403 6339 6092 6225 6156 6142 6110 6004 6009 6030 5818 5833 5838 5629 5644 5666 5537 5398 5237 5302 5405 5254 5083 5014 5035 4964 4908 5097 4926 4876 4885 4881 4862 4869 4973 4852 4859 4960 4986 4880 4777 5000 4835 4821 4840 4819 4978 4832 4837 4727 4789 4883 4854 4746 4810 4935 4798 4766 4716 4806 4724 4731 4729 4812 4814 4771 4693 4834 4818 4694 4790 4764 4733 4732 4812 4804 4783 4734 4656 4659 4639 4644 4684 4749 4705 4669 4711 4680 4717 4648 4641 4624 4729 4545 4699 4898 4688 4681 4713 4615 4581 4611 4631 4621 4707 4719 4485 4631 4537 4656 4689 4461 4608 4503 4622 4629 4712 4614 4563 4635 4470 4610 4646 4710 4567 4457 4641 4710 4536 4625 4738 4656 4561 4567 4673 4458 4552 4577 4534 4499 4622 4587 4680 4606 4685 4678 4673 4633 4626 4806 4508 4629 4680 4649 4558 4665 4719 4608 4741 4749 4765 4761 4794 4713 4793 4660 4671 4748 4620 4743 4702 4734 4715 4718 4562 4842 4721 4729 4733 4668 4789 4727 4647 4630 4694 4528 4686 4759 4680 4639 4632 4618 4618 4622 4566 4612 4807 4511 4691 4549 4553 4601 4604 4592 4436 4517 4532 4564 4569 4444 4570 4457 4685 4570 4551 4586 4487 4544 4613 4625 4503 4596 4405 4638 4512 4546 4582 4438 4511 4562 4321 4662 4558 4573 4630 4477 4583 4463 4557 4553 4673 4489 4405 4464 4509 4496 4519 4481 4543 4414 4435 4594 4526 4514 4515 4583 4497 4520 4474 4477 4592 4465 4605 4525 4457 4466 4537 4564 4368 4540 4463 4460 4698 4529 4452 4553 4566 4609 4489 4599 4487 4477 4578 4494 4585 4679 4486 4403 4462 4534 4471 4574 4595 4384 4480 4459 4530 4642 4497 4527 4567 4606 4438 4401 4426 4447 4459 4506 4482 4499 4641 4464 4403 4577 4467 4615 4545 4519 4458 4539 4554 4484 4375 4499 4546 4520 4549 4636 4353 4474 4460 4616 4421 4563 4512 4422 4554 4494 4486 4559 4424 4459 4472 4465 4318 4528 4490 4499 4430 4443 4426 4515 4485 4532 4529 4577 4380 4481 4456 4457 4456 4292 4465 4481 4422 4379 4355 4379 4540 4561 4459 4413 4409 4339 4555 4397 4536 4489 4285 4474 4447 4448 4438 4453 4429 4534 4466 4418 4384 4353 4550 4322 4484 4533 4554 4553 4465 4449 4411 4560 4432 4237 4377 4480 4318 4315 4297 4319 4418 4347 4314 4453 4390 4399 4265 4415 4490 4434 4421 4408 4503 4344 4489 4424 4325 4440 4386 4354 4299 4403 4457 4499 4322 4378 4284 4361 4392 4438 4345 4398 4463 4326 4376 4357 4472 4380 4452 4420 4543 4393 4414 4422 4450 4423 4478 4518 4362 4396 4460 4390 4393 4348 4370 4378 4374 4466 4369 4307 4419 4323 4423 4437 4389 4470 4415 4400 4238 4391 4426 4368 4464 4401 4381 4340 4428 4394 4365 4502 4409 4560 4399 4345 4528 4529 4377 4409 4450 4407 4516 4368 4448 4428 4340 4423 4466 4498 4364 4529 4550 4411 4355 4500 4353 4473 4377 4478 4437 4339 4431 4315 4459 4479 4444 4445 4451 4445 4379 4488 4355 4455 4367 4401 4441 4445 4413 4350 4485 4483 4507 4470 4458 4438 4329 4428 4531 4391 4316 4391 4563 4548 4406 4586 4510 4500 4500 4526 4432 4487 4563 4416 4434 4331 4679 4446 4493 4492 4379 4491 4486 4462 4403 4424 4393 4475 4569 4414 4361 4436 4501 4448 4477 4542 4377 4525 4515 4426 4530 4480 4559 4456 4408 4508 4460 4430 4645 4394 4378 4466 4532 4414 4531 4587 4520 4496 4456 4424 4554 4485 4556 4633 4407 4370 4545 4625 4396 4546 4465 4492 4401 4506 4455 4456 4395 4449 4434 4355 4502 4591 4409 4493 4366 4410 4495 4340 4385 4330 4305 4382 4359 4468 4394 4506 4442 4441 4383 4427 4319 4436 4312 4507 4394 4433 4436 4381 4411 4320 4315 4423 4403 4356 4365 4297 4363 4489 4330 4335 4427 4388 4332 4395 4302 4385 4297 4347 4243 4198 4463 4315 4246 4230 4242 4409 4206 4260 4279 4196 4219 4252 4337 4200 4193 4332 4221 4264 4247 4144 4160 4197 4235 4228 4196 4175 4232 4186 4170 4220 4194 4179 4158 4239 4190 4202 4134 4062 4164 4199 4199 4162 4169 4222 4081 4124 4036 4160 4131 4147 4052 4159 4168 4145 4102 4194 4091 4105 4143 4052 4219 4203 4080 4020 4112 4076 4219 4110 4098 4175 4053 4071 4031 4082 4118 4068 4129 4083 4080 4058 4068 4060 4153 4133 4032 4029 4060 4074 3964 4036 4152 4089 3935 3964 3988 3953 3951 4036 4032 4122 3957 3985 4000 4089 4010 4006 3973 4067 3983 3948 3903 3909 3985 3947 3947 3908 4055 3957 3995 3958 3890 3889 3966 3931 3980 3981 3811 4024 3959 4039 3965 4025 4081 4129 3935 4046 4001 3934 4017 4071 4065 3996 3998 3998 3883 4008 4161 4078 4108 3922 4030 4055 4080 4132 4105 4046 4095 3988 4010 4107 3952 4048 4086 4131 4046 4163 4203 4112 4020 4083 4182 3991 4021 4080 3920 4059 4228 4115 4190 4072 3957 4142 4129 4010 4042 4009 4150 4147 4064 4108 4066 4005 4124 4084 4121 4010 4079 4000 3999 3965 3998 3960 4051 4005 4042 3955 4063 4040 4069 4150 3936 4061 3973 4034 4045 4012 4008 3929 3918 4102 4011 3901 3811 3943 3962 3984 3946 3934 3910 3961 3852 4078 3958 3977 3954 4033 4043 3926 3925 3978 3824 4041 3960 3926 3958 4026 3915 4003 3994 4013 3984 3986 4048 4058 3868 3936 4007 3972 4008 4121 4041 3953 3929 3985 3921 3823 4038 3989 3964 3894 3924 3898 3975 3913 4029 4029 4056 4091 3990 4103 3926 3912 3884 3961 4023 4005 4005 3859 4003 3974 3937 3999 4135 3997 4096 4023 3891 3996 3954 3971 3884 4028 3990 3958 3987 3940 4074 4000 3954 4053 4078 4114 3962 3885 4045 3922 4052 4119 3997 4029 4042 3931 3980 3974 3983 4059 3914 3945 3983 3992 3917 3994 3993 4017 3937 3883 3960 3952 3935 4043 4009 4041 3990 4001 3987 4086 3879 4025 3920 3994 3929 3955 3921 3875 3920 3927 4034 3906 3894 3809 3910 3905 3829 3993 3924 3874 3892 3894 3978 3897 3858 3957 3836 3737 3851 3841 3787 3956 3881 3922 3879 3909 3755 3906 3808 3756 3833 3904 3798 3884 3786 3791 3856 3876 3846 3842 3825 3813 3767 3835 3825 3756 3849 3894 3814 3941 3691 3846 3778 3818 3868 3881 3815 3730 3793 3737 3733 3846 3798 3842 3770 3625 3834 3735 3851 3812 3865 3666 3818 3722 3793 3765 3704 3775 3795 3782 3867 3806 3789 3763 3743 3827 3701 3697 3729 3766 3633 3694 3810 3658 3675 3730 3752 3600 3843 3797 3693 3613 3651 3780 3649 3617 3706 3669 3754 3728 3761 3649 3699 3635 3686 3704 3678 3669 3622 3649 3752 3606 3733 3633 3474 3651 3633 3614 3627 3533 3547 3601 3640 3767 3771 3646 3726 3629 3489 3660 3583 3653 3513 3606 3525 3579 3776 3594 3811 3647 3615 3643 3640 3591 3541 3639 3700 3505 3657 3634 3648 3539 3558 3731 3647 3598 3649 3667 3693 3612 3672 3674 3528 3608 3598 3641 3622 3571 3588 3540 3667 3576 3673 3655 3764 3703 3713 3675 3681 3579 3705 3805 3728 3790 3819 3774 3850 3851 3798 3664 3740 3858 3837 3696 3823 3815 3713 3740 3880 3747 3898 3968 3823 3887 3855 3962 3909 3952 3801 4029 3947 4022 3987 3850 3902 3873 3862 3906 3941 3920 3915 4010 3796 3841 3840 3952 3847 3850 3832 3769 3796 3873 3950 3964 3866 3751 3830 3875 3966 3771 3841 3827 3768 3912 3641 3795 3831 3705 3674 3757 3716 3711 3810 3776 3690 3657 3699 3613 3866 3973 3748 3676 3627 3625 3817 3659 3616 3715 3765 3629 3583 3794 3661 3655 3750 3644 3679 3538 3715 3581 3702 3693 3619 3700 3658 3711 3767 3628 3698 3700 3866 3890 3846 3903 3951 3995 4030 3995 4000 4051 4001 4155 4024 4150 4078 4103 4033 4198 4193 4296 4277 4198 4250 4272 4222 4334 4231 4306 4265 4317 4409 4312 4328 4275 4363 4402 4237 4286 4286 4306 4291 4213 4280 4230 4084 4113 4100 4082 4060 4047 3881 4022 3918 3914 3764 3771 3762 3848 3734 3734 3669 3786 3814 3640 3686 3655 3689 3640 3581 3571 3518 3640 3575 3480 3575 3595 3590 3490 3451 3575 3560 3480 3580 3513 3514 3480 3519 3518 3441 3553 3616 3594 3493 3533 3544 3542 3479 3409 3657 3517 3419 3530 3421 3492 3493 3501 3438 3367 3466 3456 3465 3558 3401 3455 3434 3459 3432 3532 3478 3372 3384 3406 3396 3399 3446 3391 3473 3465 3555 3543 3373 3483 3446 3491 3456 3406 3420 3476 3391 3403 3460 3441 3384 3472 3362 3440 3461 3438 3420 3525 3425 3283 3501 3279 3430 3422 3510 3550 3326 3415 3442 3441 3344 3342 3465 3434 3476 3434 3424 3414 3409 3535 3382 3507 3426 3391 3281 3370 3430 3375 3219 3514 3491 3454 3545 3337 3451 3437 3431 3409 3419 3365 3582 3393 3433 3411 3411 3377 3420 3422 3430 3455 3499 3518 3372 3435 3428 3388 3371 3503 3458 3500 3413 3483 3447 3425 3440 3458 3450 3448 3424 3505 3359 3530 3456 3487 3421 3545 3432 3403 3527 3521 3409 3542 3493 3448 3468 3430 3464 3418 3477 3394 3413 3432 3469 3403 3505 3486 3346 3500 3443 3463 3528 3391 3476 3534 3413 3494 3503 3532 3522 3425 3388 3508 3466 3508 3514 3525 3380 3520 3451 3521 3516 3590 3433 3532 3550 3638 3505 3547 3436 3490 3454 3534 3487 3426 3484 3417 3482 3479 3517 3477 3483 3443 3497 3471 3469 3520 3457 3407 3503 3410 3486 3489 3450 3485 3358 3473 3411 3572 3468 3467 3461 3551 3506 3489 3521 3468 3414 3468 3511 3448 3403 3463 3502 3498 3490 3402 3513 3443 3367 3551 3409 3601 3405 3327 3527 3477 3459 3545 3476 3394 3404 3466 3509 3443 3498 3392 3511 3461 3536 3458 3509 3509 3352 3429 3572 3358 3450 3538 3442 3536 3408 3456 3510 3422 3396 3454 3447 3460 3319 3538 3519 3410 3425 3435 3431 3440 3371 3572 3435 3475 3430 3421 3509 3500 3500 3475 3425 3360 3311 3447 3367 3381 3463 3392 3459 3430 3486 3403 3487 3444 3434 3381 3536 3446 3484 3386 3540 3340 3362 3463 3330 3460 3406 3418 3535 3414 3707 3612 3494 3408 3570 3352 3544 3586 3580 3567 3515 3574 3637 3715 3623 3627 3772 3850 3864 3829 3899 3899 3958 4108 4028 4095 4189 4420 4473 4677 4675 4684 4765 4817 5012 5135 5241 5111 5357 5226 5437 5286 5458 5393 5424 5506 5549 5379 5452 5458 5577 5613 5538 5433 5383 5436 5544 5463 5666 5496 5554 5727 5469 5546 5456 5442 5427 5332 5424 5312 5356 5258 5108 5010 5071 4935 4930 4882 4778 4688 4666 4583 4517 4653 4507 4487 4503 4421 4237 4214 4240 4197 4080 4033 3981 4048 4126 3892 4025 4065 3897 3853 3859 3909 3793 3788 3796 3718 3770 3834 3787 3872 3763 3758 3759 3786 3742 3836 3844 3815 3807 3727 3817 3793 3771 3717 3636 3680 3693 3603 3659 3688 3582 3606 3578 3550 3548 3480 3667 3531 3589 3536 3518 3567 3555 3454 3444 3548 3606 3575 3542 3506 3542 3646 3380 3432 3474 3375 3523 3544 3562 3483 3345 3513 3383 3382 3355 3369 3413 3522 3461 3486 3491 3454 3325 3367 3551 3346 3406 3399 3552 3507 3424 3313 3451 3341 3438 3364 3383 3387 3429 3397 3515 3401 3348 3276 3359 3364 3452 3445 3458 3317 3391 3371 3307 3458 3347 3384 3318 3418 3413 3408 3427 3433 3456 3458 3379 3474 3402 3387 3253 3332 3427 3272 3310 3371 3274 3408 3442 3432 3468 3441 3289 3299 3387 3352 3315 3293 3401 3391 3350 3313 3361 3313 3376 3315 3319 3306 3337 3330 3431 3270 3310 3409 3456 3257 3282 3325 3406 3326 3380 3212 3396 3212 3451 3340 3329 3357 3367 3368 3348 3271 3334 3301 3326 3392 3395 3377 3325 3459 3320 3380 3397 3330 3326 3228 3341 3336 3269 3250 3423 3360 3320 3448 3296 3338 3387 3350 3320 3471 3270 3367 3448 3332 3359 3362 3264 3337 3406 3289 3361 3303 3393 3368 3351 3331 3270 3195 3376 3344 3395 3294 3377 3368 3292 3329 3362 3368 3372 3317 3384 3286 3256 3207 3297 3296 3425 3323 3405 3245 3373 3338 3405 3410 3409 3416 3389 3420 3361 3346 3372 3440 3491 3281 3538 3392 3515 3518 3313 3495 3407 3455 3304 3464 3404 3361 3406 3329 3353 3403 3520 3337 3356 3240 3290 3403 3261 3305 3340 3356 3360 3310 3273 3271 3329 3153 3232 3257 3383 3324 3225 3346 3346 3317 3415 3292 3339 3344 3351 3504 3284 3309 3292 3295 3325 3329 3260 3260 3337 3286 3253 3075 3321 3312 3252 3213 3234 3321 3391 3289 3192 3356 3249 3420 3343 3402 3313 3362 3239 3319 3375 3329 3321 3309 3312 3335 3346 3332 3387 3303 3381 3317 3437 3270 3271 3431 3436 3325 3357 3327 3393 3309 3424 3357 3459 3318 3425 3412 3312 3297 3411 3311 3375 3310 3320 3306 3301 3358 3405 3381 3345 3353 3336 3217 3301 3354 3348 3244 3291 3325 3306 3207 3330 3238 3298 3305 3188 3204 3298 3186 3306 3361 3224 3263 3197 3117 3183 3263 3211 3223 3183 3273 3239 3167 3356 3165 3297 3229 3217 3246 3191 3090 3220 3226 3180 3189 3192 3225 3203 3260 3266 3272 3263 3242 3201 3301 3224 3116 3145 3127 3118 3206 3240 3296 3191 3261 3358 3289 3239 3179 3256 3153 3223 3202 3263 3240 3170 3307 3318 3306 3296 3232 3129 3265 3228 3188 3187 3219 3164 3229 3127 3181 3307 3195 3239 3231 3197 3236 3219 3227 3145 3267 3185 3228 3179 3305 3273 3192 3295 3337 3175 3272 3255 3214 3217 3132 3189 3174 3129 3206 3276 3256 3125 3267 3221 3226 3159 3165 3153 3284 3214 3174 3226 3266 3083 3178 3255 3223 3255 3199 3320 3116 3245 3080 3137 3174 3199 3234 3194 3321 3221 3194 3054 3253 3173 3266 3315 3189 3238 3186 3187 3136 3196 3207 3147 3109 3232 3135 3173 3174 3168 3205 3303 3281 3148 3261 3144 3134 3302 3206 3221 3178 3116 3165 3250 3252 3233 3074 3209 3192 3144 3207 3251 3164 3262 3207 3190 3134 3225 3230 3197 3070 3305 3319 3198 3128 3148 3212 3214 3129 3204 3244 3207 3259 3195 3265 3106 3171 3202 3229 3172 3145 3199 3150 3221 3194 3101 3175 3249 3230 3172 3116 3169 3240 3179 3155 3150 3122 3211 3117 3163 3179 3198 3213 3227 3238 3198 3243 3262 3210 3307 3176 3217 3190 3190 3150 3130 3233 3080 3129 3160 3246 3189 3127 3323 3163 3218 3273 3190 3278 3143 3161 3082 3261 3286 3163 3229 3196 3167 3139 3240 3132 3122 3208 3184 3276 3202 3179 3215 3132 3314 3210 3261 3159 3128 3179 3189 3279 3223 3272 3237 3275 3132 3170 3188 3198 3244 3124 3160 3197 3282 3131 3094 3211 3145 3221 3235 3218 3098 3282 3198 3202 3130 3190 3181 3258 3242 3281 3310 3318 3371 3221 3261 3329 3216 3168 3309 3252 3323 3268 3224 3248 3116 3208 3159 3170 3181 3205 3314 3219 3259 3277 3127 3188 3122 3232 3217 3258 3215 3319 3167 3276 3187 3201 3293 3120 3238 3280 3180 3078 3199 3141 3158 3158 3111 3183 3153 3205 3141 3184 3157 3160 3234 3146 3205 3225 3198 3150 3159 3144 3253 3110 3136 3095 3099 3161 3190 3124 3171 3149 3139 3237 3136 3027 3213 3164 3149 3143 3245 3192 3061 3312 3196 3150 3185 3156 3146 3144 3055 3192 3243 3194 3224 3220 3224 3157 3006 3152 3061 3199 3156 3201 3206 3168 3048 3127 3100 3110 3330 3177 3170 3173 3059 3116 3214 3144 3229 3117 3157 3149 3224 3155 3105 3181 3250 3223 3244 3091 3186 3211 3170 3164 3148 3085 3228 3239 3167 3211 3208 3112 3173 3119 3124 3208 3137 3253 3185 3135 3192 3155 3245 3195 3076 3144 3113 3136 3237 3230 3148 3209 3252 3058 3174 3146 3274 3136 3208 3129 3098 3173 3249 3163 3278 3130 3204 3206 3227 3301 3142 3222 3198 3170 3207 3201 3102 3154 3277 3287 3103 3221 3243 3140 3152 3143 3116 3268 3099 3148 3247 3037 3182 3191 3201 3065 3101 3216 3134 3182 3213 3257 3221 3170 3171 3153 3269 3205 3165 3084 3209 3220 3143 3212 3138 3103 3132 3160 3223 3107 3124 3150 3136 3257 3350 3306 3279 3192 3266 3407 3246 3235 3287 3208 3247 3339 3383 3190 3344 3334 3400 3348 3423 3372 3399 3340 3398 3492 3371 3387 3392 3427 3294 3405 3353 3398 3354 3312 3465 3377 3388 3502 3375 3516 3402 3493 3336 3420 3414 3383 3378 3463 3455 3407 3257 3319 3344 3367 3324 3295 3418 3332 3370 3319 3392 3308 3310 3284 3211 3294 3190 3343 3166 3278 3287 3213 3165 3283 3170 3233 3176 3222 3202 3217 3141 3065 3272 3219 3108 3212 3099 3160 3286 3198 3082 3215 3252 3211 3343 3191 3197 3110 3180 3250 3183 3153 3179 3219 3182 3264 3137 3152 3206 3251 3153 3193 3234 3184 3229 3185 3226 3187 3213 3248 3157 3220 3289 3280 3312 3203 3116 3248 3154 3303 3203 3228 3252 3114 3320 3189 3220 3178 3219 3217 3213 3186 3304 3126 3179 3225 3324 3193 3151 3284 3071 3174 3112 3147 3235 3202 3272 3251 3175 3236 3119 3227 3288 3210 3097 3177 3178 3186 3233 3226 3151 3118 3285 3263 3278 3230 3144 3211 3200 3167 3115 3191 3265 3140 3232 3205 3179 3151 3183 3221 3118 3166 3186 3199 3139 3222 3145 3113 3150 3139 3232 3143 3177 3176 3126 3185 3124 3132 3190 3095 3220 3168 3189 3161 3137 3137 3163 3242 3134 3188 3209 3226 3147 3102 3248 3190 3179 3216 3217 3175 3188 3210 3173 3168 3190 3197 3252 3227 3136 3175 3215 3095 3226 3164 3207 3237 3257 3172 3188 3145 3188 3264 3156 3194 3295 3173 3175 3157 3237 3223 3157 3262 3272 3127 3268 3164 3155 3217 3221 3319 3145 3172 3109 3165 3183 3237 3125 3170 3184 3191 3171 3232 3312 3188 3152 3226 3169 3232 3175 3218 3129 3164 3106 3155 3145 3144 3197 3114 3140 3161 3266 3237 3221 3157 3145 3197 3289 3105 3187 3145 3225 3108 3253 3245 3223 3231 3281 3133 3225 3299 3276 3132 3170 3194 3179 3168 3198 3164 3109 3132 3265 3310 3119 3203 3136 3156 3129 3197 3138 3129 3113 3196 3272 3151 3234 3244 3189 3220 3215 3207 3176 3193 3126 3160 3074 3087 3245 3281 3181 3166 3255 3226 3203 3154 3206 3288 3111 3200 3153 3202 3131 3277 3192 3286 3192 3112 3190 3187 3236 3211 3165 3185 3296 3222 3262 3238 3257 3341 3289 3283 3244 3217 3244 3290 3258 3344 3390 3379 3435 3456 3419 3520 3483 3498 3571 3602 3602 3723 3668 3689 3796 3807 3863 3855 3887 3963 3923 4083 3984 4120 4124 4071 4129 4181 4346 4208 4397 4291 4388 4361 4501 4269 4424 4367 4414 4497 4313 4199 4257 4175 4130 4252 3939 4118 4202 4125 4110 4076 3962 3951 3960 3868 3842 3808 3737 3673 3755 3718 3642 3585 3568 3501 3515 3550 3450 3517 3514 3428 3441 3507 3587 3436 3409 3534 3450 3377 3431 3443 3569 3395 3471 3483 3473 3335 3512 3284 3383 3387 3506 3384 3397 3385 3387 3397 3343 3397 3303 3367 3351 3274 3379 3432 3220 3360 3343 3315 3405 3399 3345 3352 3411 3469 3309 3446 3581 3411 3534 3657 3658 3588 3533 3756 3664 3710 3711 3726 3726 3706 3649 3712 3775 3751 3731 3796 3757 3744 3685 3719 3760 3748 3740 3678 3548 3776 3676 3591 3631 3494 3582 3436 3394 3416 3400 3518 3421 3319 3376 3302 3327 3271 3209 3219 3246 3246 3282 3285 3318 3200 3231 3272 3308 3238 3173 3270 3272 3204 3148 3189 3241 3158 3195 3090 3282 3201 3287 3123 3202 3212 3161 3221 3111 3154 3165 3252 3134 3189 3166 3235 3165 3140 3184 3283 3171 3171 3127 3252 3176 3174 3257 3233 3084 3113 3210 3190 3069 3172 3214 3162 3217 3130 3295 3226 3161 3191 3261 3192 3192 3271 3209 3095 3223 3205 3253 3176 3313 3291 3216 3136 3221 3136 3212 3141 3243 3307 3251 3265 3321 3283 3272 3313 3260 3269 3344 3324 3214 3265 3265 3226 3322 3244 3316 3320 3244 3270 3348 3234 3361 3274 3321 3257 3369 3215 3278 3329 3276 3265 3370 3198 3316 3172 3309 3195 3187 3273 3312 3191 3243 3249 3243 3182 3226 3341 3281 3333 3244 3290 3240 3292 3289 3233 3202 3220 3273 3266 3266 3292 3188 3290 3075 3307 3161 3179 3273 3132 3189 3285 3216 3157 3258 3203 3165 3297 3199 3212 3327 3195 3262 3315 3173 3222 3276 3238 3237 3230 3212 3271 3216 3264 3254 3248 3211 3216 3218 3143 3246 3293 3290 3293 3285 3316 3322 3311 3301 3290 3327 3306 3416 3324 3383 3438 3307 3419 3385 3286 3222 3325 3424 3330 3350 3284 3221 3367 3413 3423 3282 3297 3378 3258 3348 3223 3226 3369 3294 3227 3293 3228 3300 3179 3239 3127 3128 3128 3115 3191 3199 3101 3060 3035 3188 3220 3203 3163 3194 3146 3201 3161 3140 3164 3170 3165 3240 3183 3163 3143 3231 3122 3098 3108 3162 3123 3107 3166 3153 3240 3214 3123 3035 3081 3160 3166 3227 3133 3243 3133 3137 3152 3059 3168 3039 3111 3175 3205 3045 3104 3099 3269 3155 3083 3101 3097 3113 3104 3218 3197 3085 3163 3161 3086 3148 3099 3210 3188 3105 3119 3202 3176 3141 3224 3149 3163 3216 3074 3151 3150 3088 3117 3103 3141 3136 3154 3185 3082 3089 3178 3047 3148 3188 3005 3180 3083 3145 3083 3181 3232 3195 3143 3107 3139 3143 3095 3073 3086 3100 3204 3253 3119 3177 3151 3153 3174 3045 3153 3037 2998 3070 3194 3077 3147 3137 3164 3156 3143 3102 3207 3122 3119 3124 3042 3036 3042 3184 3180 3173 3162 3170 3070 3069 3130 3187 3165 3066 3127 2991 3121 3214 3107 3121 3198 3073 3226 3114 3106 3108 3034 3080 3170 3207 3093 3044 3091 3083 3230 3094 3119 3071 3187 3089 3220 3207 3182 3170 3043 3014 3175 2984 3042 3061 3138 3165 3141 3079 3201 3135 3066 3116 3100 3113 3154 3115 3141 3109 3186 3142 3067 3030 3140 3160 3089 3184 3081 3233 3041 3188 3099 3131 3112 3092 3120 3114 3118 3064 3198 3130 3069 3123 3190 3146 3098 3208 3140 3200 3179 3099 3103 3114 3104 3147 3173 3165 3058 3151 3143 3093 3108 3183 3113 3123 3081 3169 3206 3216 3120 3099 3282 3112 3122 3186 3110 3150 3226 3029 3133 3246 3135 3077 3206 3202 3192 3193 3121 3182 3059 3118 3128 3075 3085 3104 3181 3176 3146 3109 3039 3122 3029 3075 3095 3118 3105 2993 3152 3070 3051 3060 3214 3170 3230 3209 3147 3099 3097 3130 3053 3055 3156 3068 3099 3073 3199 3033 3119 3124 2960 2998 3131 3040 3146 3060 3114 3065 3224 3062 3060 3182 3086 3090 3116 3144 3084 3217 3074 3090 3179 3119 3140 3055 3036 3089 3122 3145 3115 3090 3143 2980 3185 3001 3040 3172 3081 3067 3062 3105 3170 3076 3078 3062 3140 3147 3155 3200 3131 3162 3159 3117 3062 3126 3081 3086 3146 3174 3202 3120 3141 3102 3092 3062 3135 3114 3180 3126 3114 3133 3122 3249 3155 3159 3060 3023 3110 3112 3128 3173 3048 3079 3096 3126 3032 3193 3159 3005 3106 3087 3066 3136 3077 3152 3132 3110 3089 3084 3119 3064 3175 3162 3096 3167 3062 3123 3106 3075 3133 3091 3172 3060 3120 3196 3091 3116 3077 3079 3155 3144 3222 3136 3164 3137 3116 3185 3167 3098 3163 3198 3104 3127 3106 3160 3118 2947 3062 3166 3164 3072 3009 3120 2988 3158 3118 3103 3073 3143 3043 3133 3139 3080 3186 3122 3127 3026 3016 3165 3091 3314 3043 3196 3097 3171 3141 3162 3150 3165 3261 3228 3212 3305 3282 3341 3270 3324 3160 3320 3199 3302 3253 3284 3311 3338 3337 3370 3338 3296 3330 3321 3315 3392 3317 3324 3444 3356 3183 3338 3306 3266 3328 3304 3314 3253 3208 3337 3255 3269 3222 3305 3198 3374 3231 3300 3153 3268 3248 3242 3196 3299 3250 3196 3206 3239 3052 3155 3119 3199 3275 3050 3132 3254 3127 3189 3141 3220 3168 3262 3116 3106 3132 3072 3171 3180 3095 3048 3108 3118 3151 3150 3125 3184 3162 3145 3228 3097 3146 3166 3264 3155 3095 3118 3042 3050 3043 3092 3042 3167 3209 3190 3064 3147 3175 3087 3176 3116 3192 3117 3037 3086 3090 3136 3050 3100 3089 3120 3037 3080 3138 3144 3138 3136 3103 3152 3112 3043 3122 3153 3111 3045 3041 3069 3112 3066 3185 3064 3042 3044 3047 3010 3167 3049 3038 2959 3100 3114 3092 3063 3116 3170 3173 3145 3157 3086 3034 3183 3111 3100 3103 3088 3102 3067 3200 3069 3102 3142 3075 3193 3139 3113 3129 3129 3102 3072 3121 3094 3110 3035 2989 3162 3043 3253 3124 3108 3077 3015 3194 3091 3108 2979 3006 3012 3020 3142 3108 3160 3219 3187 3160 3158 3041 3008 3054 3018 3030 3035 3093 3078 3118 3103 2948 3096 3004 3062 3065 3185 3140 3083 3148 3033 3021 3117 3126 3195 3082 3175 3082 3155 3159 3105 3175 3095 3171 3132 3111 3232 3126 3166 3118 3045 3047 3146 3126 3000 2988 3099 3167 3124 2995 3026 3075 3171 3136 3059 3137 3103 3138 3060 3126 3108 3159 3142 3197 3211 3095 3079 3177 3192 3199 3044 3099 3094 3149 3198 3183 3340 3246 3204 3212 3288 3216 3171 3242 3315 3211 3362 3399 3261 3410 3269 3316 3321 3337 3388 3469 3319 3289 3373 3321 3422 3383 3259 3430 3359 3435 3264 3301 3352 3301 3303 3252 3319 3364 3303 3352 3347 3175 3262 3234 3221 3184 3199 3299 3208 3194 3160 3231 3126 3319 3218 3224 3178 3177 3364 3311 3214 3347 3233 3203 3192 3260 3174 3326 3219 3192 3233 3126 3080 3224 3235 3267 3178 3167 3152 3121 3225 3171 3183 3157 3254 3167 3168 3058 3097 3299 3192 3093 3072 3137 3061 3160 3154 3190 3212 3196 3337 3132 3081 3078 3144 3133 3118 3041 3150 3034 3160 3186 3147 3057 3121 3133 3081 3135 3061 3132 3077 3147 3139 3088 3194 3138 3146 3210 3162 3113 3074 3183 3143 3147 3026 3166 3109 3066 3168 3201 3112 3178 3181 3087 3113 3110 3143 3155 3174 3254 3196 3261 3233 3235 3254 3079 3204 3216 3187 3242 3145 3149 3255 3253 3131 3228 3226 3176 3210 3134 3103 3291 3076 3187 3135 3171 3247 3190 3168 3165 3197 3109 3175 3121 3218 3133 3122 3120 3124 3201 3065 3135 3099 3172 3076 3145 3116 3148 3152 3203 3055 3152 3097 3097 3218 3144 3172 3211 3171 3131 3124 3156 3155 3139 3262 3155 3232 3260 3204 3189 3194 3213 3239 3162 3144 3225 3155 3303 3261 3135 3206 3200 3135 3120 3163 3213 3192 3149 3126 3277 3203 3073 3209 3183 3170 3153 3187 3121 3175 3062 3105 3051 3123 3091 3085 3131 3092 3139 3137 3170 3127 3103 3035 3083 3083 3029 3089 3106 3127 3059 3157 3085 3132 3066 3032 3191 3065 3178 3094 3065 3095 3178 3092 3078 3045 3076 2968 3095 3001 3100 3172 3110 3024 3135 3051 3108 3063 3033 3044 3250 3127 3138 3134 3088 3096 3040 3220 3157 3154 3042 3135 3181 3053 3052 3084 3047 3124 3074 3054 3076 3050 3033 3092 3076 2991 3032 3041 3164 3044 3153 3056 3078 3071 3155 3024 3102 3149 3032 3146 3083 3080 3065 3205 3083 3143 3118 3102 3098 3100 3102 3062 3096 3091 3086 3056 3155 3100 3133 3089 3005 3119 3089 3002 3022 3116 3175 2987 3044 3068 3102 3091 3022 3023 3084 3100 3056 3004 3118 2981 3001 3101 3053 3112 3084 3019 3024 3002 2979 3027 3084 3026 2922 3096 2979 3182 3040 3106 3031 3056 3037 3086 3022 3024 3112 3120 3101 3141 3108 3047 3176 3146 3110 3081 3074 3013 3077 2978 3096 3053 3050 3089 3011 3147 3183 3189 3085 3027 3091 3210 3035 3092 3082 3050 3198 3051 3108 3152 3070 2981 3037 3104 2998 3087 3121 3113 3020 2972 3086 2950 3083 3044 3064 3111 3016 3022 3079 3004 2978 3000 3023 3146 3124 3003 3100 3063 2959 3107 2952 2991 3096 3090 3071 2974 3089 3088 3059 3127 3048 3127 3169 3004 3036 2992 3061 3092 3032 3021 3123 3164 3103 3189 3062 3167 3118 3116 3048 2969 3053 3073 3040 2973 2992 3091 3061 3000 3061 3117 3035 3100 2985 3199 2983 3188 3007 3022 2955 2990 2949 3151 3001 3076 3011 3037 3020 3028 3042 3099 3120 3125 3023 3079 2929 3068 3109 3129 3197 3020 3066 3088 3048 3147 3127 3012 3109 3053 2926 3006 3178 3097 3007 3135 3055 3019 3146 3075 3062 3014 2996 3095 3056 3081 3091 3015 3052 3107 3038 3139 2980 3066 3107 3015 3058 3057 3103 3023 3016 3005 3015 3081 3057 3027 3006 3071 2954 3047 2886 3076 3114 3100 3126 2953 3002 3056 2926 3109 3078 3148 3052 3047 3058 3038 3061 2925 2987 3118 3091 3085 3074 2937 3080 3163 3048 3107 3076 2989 3055 3095 3031 3091 3046 3074 3135 3166 3015 2969 2970 3024 3028 3064 3076 3059 3094 2985 3127 3082 3037 2997 3030 3063 2995 3072 3165 3012 2992 3098 3047 2971 3090 3090 3050 3111 3126 3034 3009 3047 3069 3025 3100 3072 3001 3086 3029 3050 3014 3095 3095 3070 3053 2999 2996 3112 3090 3031 3054 3024 3154 3108 3127 3018 3071 2998 3090 3027 3095 2963 3104 3002 3099 2944 3108 3026 2982 3042 3118 3045 3032 3022 2950 3032 3086 3091 3022 3059 3032 2917 3163 2979 3019 3002 3034 3084 2995 3021 2971 3102 3099 3015 3056 3004 3033 3093 2955 3040 3117 3111 3003 3033 3135 3119 2987 3199 3024 3025 3053 3091 3135 3070 3095 3121 3048 3130 3109 3039 3090 3073 3069 3053 3084 3153 3119 3056 3057 3060 3169 3130 3155 3062 3080 3101 3052 3119 3023 3178 3105 3197 3129 2987 3157 3109 3076 3046 3126 3022 3073 3020 3053 3106 2961 3117 2991 3068 3155 3150 2957 3029 3153 3091 2994 3030 3031 3156 3165 3061 3037 2991 3065 3093 3066 3030 3060 3050 3028 3132 3121 3091 3111 3211 3040 2994 3021 3114 3055 3013 3088 2987 2988 2986 3035 3103 3024 3152 3072 3087 3029 3062 2993 2985 3069 3078 2988 3012 3046 3013 2934 3034 3081 3163 3081 3004 3052 3024 3120 3012 3054 3085 3047 3040 3044 2989 3141 2961 2977 3009 3036 3106 3006 3034 3002 3095 3121 3118 2939 3035 3041 2985 3015 3092 3079 3030 2982 3045 3012 3088 3071 3018 3069 3086 2947 3012 3097 3184 3013 3061 3109 3117 3136 3074 3202 3037 3140 3045 3009 3066 3021 3085 3189 3099 3065 3073 3033 3117 3051 3116 3059 3052 2965 3126 3066 3058 3136 3099 3122 3080 3106 3063 2971 3085 3122 3156 3032 2989 3036 3147 3029 3033 3046 3097 2968 3048 3067 3142 3072 2973 3041 3118 3083 3016 3092 3112 3052 3082 3016 3072 3045 3040 3054 3055 3042 3062 3053 3006 2980 3065 3045 3042 3119 2996 3022 3025 2983 2992 2985 3083 3031 3083 3065 3039 3022 3034 3067 3142 3031 2932 3111 3015 3175 3170 3090 3100 2987 3083 3077 3078 3055 2961 3026 3102 3131 3031 3043 3010 3031 3003 2903 3056 3076 3013 3025 2953 2983 3046 3046 3102 3073 3007 2944 3028 3110 2974 3081 3036 3040 3087 3050 3037 3103 3012 3139 3117 3096 3133 2943 3063 3159 3059 3071 3106 3146 3100 3135 3030 3178 3131 3184 3062 3135 3153 3133 3117 3115 3115 3172 3184 3070 3101 3081 3017 3073 3146 3055 3076 3096 3193 3169 3206 3148 3150 3093 3182 3144 3146 3026 3182 3075 3109 3092 3035 3099 3084 3217 3003 3128 3021 3054 3080 3071 3158 3106 3078 3179 3239 3031 3166 3087 3126 3110 3118 3165 3036 3146 3122 3148 3135 3126 3090 3171 3124 3033 3124 3153 3125 3091 3061 3130 3180 3212 3221 3040 3002 3126 3140 3212 3112 3111 3183 3063 3000 3183 2985 3083 3098 3030 3124 3095 3107 3104 3025 2997 3134 3048 3046 3060 3068 3117 3194 3025 2998 3057 3006 2956 3106 3017 3055 3063 2976 3077 3007 2999 3027 3111 3096 3044 3033 3083 3071 2995 3029 3031 2983 3062 3147 3062 3019 3101 3035 3045 3111 3081 3061 3005 2969 3103 3073 3144 2988 2989 3029 3072 2975 3064 3043 3060 3004 3067 3035 3090 3044 3059 3081 3069 3051 3028 3080 3054 3084 3122 3064 2944 3060 2964 3114 3036 3087 3075 2964 3071 3007 2947 3140 3193 3024 3029 3076 3045 3030 3086 3087 3049 3022 3046 3041 3011 3085 3123 3024 3090 3093 2994 2959 3005 3039 2932 3001 3093 3057 3110 3058 3073 3053 3062 3058 2959 3075 3120 3025 3009 3108 3081 3059 3016 3063 3076 3049 3100 2972 3073 3012 2912 2936 3041 2996 3113 2980 2999 3034 3146 3052 3136 3045 3041 3170 3049 3021 3066 3085 3148 3058 3044 3009 3185 3095 3158 3048 2999 3031 3135 3098 3082 3079 3131 3075 3103 2989 3139 3103 3050 3001 3089 3036 3078 3092 3050 3116 3211 3133 2962 3105 3042 3024 3050 3169 3075 3113 3178 3106 3060 2989 3099 3130 3072 3014 3088 3058 3066 2996 3039 3028 3140 3005 3112 3086 3193 3107 3084 3094 3093 3132 3075 3031 3105 3015 3105 3121 3073 3049 3030 3000 3035 3048 3168 3055 3096 2955 2949 3076 3037 3144 3059 3000 3077 3022 3023 2988 2963 3029 3088 3004 3019 2995 2979 3036 3023 3085 3025 3015 3017 3067 3128 2988 3092 3128 3117 3204 2998 3040 3035 3010 3084 3050 3030 3008 3050 2995 3070 3062 3126 3029 2934 3004 3093 3044 3035 2972 3076 3026 3041 3110 3125 2948 3053 3116 3025 3076 3160 2987 2985 3143 3020 3035 3034 3131 3058 3120 3015 2950 3172 3131 3058 2998 3044 2995 3123 2976 3030 3058 3100 2994 3077 3003 3093 3035 3002 3041 3086 3066 3136 3113 3124 3077 3069 3027 3111 3039 3123 3005 3069 3117 3055 2994 2961 3069 3011 2947 3085 3103 3117 2987 3017 3121 3047 3007 3096 3068 3152 3131 3018 3089 3079 2998 3021 3154 3147 2995 3147 2950 3141 3039 3017 3099 3039 3090 3081 2982 3022 2979 3072 2920 3125 3165 2957 3085 2963 3118 3073 3158 2994 3021 3061 3015 3016 3068 3190 3119 3032 3039 3099 3155 3089 3195 3014 3006 2976 3136 3063 3061 3017 3015 3118 2945 3089 3067 3092 3058 3165 3086 3002 3034 3082 3106 3001 3047 3030 3014 3012 3124 3210 3019 3057 3096 3041 3087 3107 3079 2996 3065 3067 3099 2934 3029 3110 3081 3026 3004 3027 3040 2961 3009 3154 3089 3072 3131 2905 3058 3041 3050 3075 3029 3131 3077 3047 3073 3095 3074 3086 3041 3006 3042 3028 2988 3152 3092 3091 2923 3021 3040 3034 3081 3047 2929 3030 2992 3033 3102 3089 3067 3163 3112 3024 2993 3026 3093 3119 3098 2963 3034 3077 3051 2976 3013 2969 2977 2949 3049 3108 3059 3063 2973 3000 3064 3086 3162 3017 2993 3176 3151 3194 3019 3071 3060 3088 3078 2966 3050 3042 3012 2971 3066 3128 3133 3064 2949 3154 3114 3055 3076 3149 3040 3038 3089 2972 3011 3114 3027 2987 3017 3086 3159 3093 3013 3024 3114 3051 2946 3080 2973 3022 3040 3090 2979 3062 3064 3072 3141 3109 3071 2989 3027 3185 3175 3110 3026 2964 3096 3056 3060 3081 3072 3170 3055 3016 3084 3009 3130 2980 3075 3098 3071 3009 3163 3066 3100 3038 3045 3058 3061 2976 2979 2946 3099 3084 3069 3101 3108 3092 3112 3122 3085 3037 3064 3019 3178 3122 3095 3101 3060 3173 3091 3105 3051 3145 3146 3133 3151 3110 3141 3070 3124 3147 3098 3162 3145 3055 2964 3051 3112 3187 3044 3085 3047 3133 3129 3080 3131 3138 3127 3219 3136 3078 3178 3123 3148 3176 3089 3146 3087 3124 3226 3055 3216 3073 3179 3045 3113 3102 3064 3028 3072 3037 3077 3250 3188 3190 3118 3119 3158 3095 3165 3154 3235 3119 3021 3068 3225 3041 3077 3042 3146 3088 3046 3037 3173 2998 3179 2974 3043 3010 3083 3011 3169 3011 3084 3041 3073 3102 3026 3001 3045 3113 3091 3208 3173 3031 3096 3030 3133 3158 3069 3036 3009 3071 3013 3089 3096 3097 3009 2988 3009 2975 3021 3098 3058 3089 3018 3079 3086 3041 3069 2964 3062 3003 3103 2988 3045 3097 3055 3013 3046 3066 3080 3062 3129 3100 3094 3093 3107 3084 3025 3193 3075 3030 3059 3088 3113 3051 3071 3052 3025 3096 3164 3042 3023 3105 2958 3056 3123 3033 3214 3105 3163 3117 3090 2983 3024 3155 3249 3029 3089 3091 3056 3052 2931 3088 3100 3001 3004 3058 3064 3081 3075 3079 3078 3038 3174 3099 3110 3072 3119 3209 3151 3085 3226 3077 3163 3185 3151 3120 3030 3107 3091 3019 3065 3099 3064 3086 3074 3193 3087 3173 2942 3060 3038 3006 3052 3086 3094 3039 3130 3118 3091 3074 3110 3081 3225 3075 3156 3031 3104 3107 3092 3060 3164 3170 2934 3183 3183 3107 3075 2996 3217 3070 3199 3161 3142 3155 3166 3095 3090 3113 3089 3114 3268 3229 3126 3264 3225 3140 3152 3335 3285 3257 3214 3260 3300 3214 3251 3246 3373 3257 3314 3262 3326 3263 3265 3329 3355 3384 3277 3326 3311 3219 3197 3242 3295 3277 3198 3281 3232 3381 3204 3227 3132 3234 3248 3312 3316 3280 3227 3202 3234 3207 3349 3203 3187 3221 3217 3167 3288 3274 3203 3277 3218 3280 3221 3296 3215 3190 3177 3208 3258 3214 3329 3278 3196 3201 3111 3184 3194 3187 3148 3203 3182 3076 3209 3197 3122 3265 3179 3216 3065 3152 3136 3138 3148 3205 3157 3102 3201 3209 3200 3119 3149 3073 3138 3134 3142 3079 3088 3195 3125 3174 3153 3139 3094 3102 3103 3180 3108 3035 3188 3107 3144 3135 3096 3044 3222 3104 3024 3182 3141 3047 3082 3177 2989 3174 3136 3177 3082 3110 3068 3084 2954 3133 3172 3034 3128 3122 3139 3039 3131 3034 3068 3089 3087 3103 3025 3102 3028 3036 3164 3079 3080 3140 3027 3081 3099 3034 3098 3118 3084 3116 3069 2987 3054 3056 3032 3120 3107 3073 3070 3187 3081 3049 3082 3019 3095 3082 3113 3098 3060 3148 3152 3157 3035 3138 3079 3146 3088 3183 3134 3087 3133 3125 3070 3295 3076 3092 3058 3202 3105 3119 3126 3193 3278 3035 3167 3265 3130 3021 3140 3114 3046 3112 3138 3164 3178 3172 3144 3213 3104 3153 3233 3096 3137 3192 3214 3082 3086 3229 3101 3132 3171 3147 3198 3108 3140 3331 3204 3120 3127 3246 3186 3203 3248 3146 3145 3202 2994 3177 3191 3273 3176 3143 3094 3104 3114 3078 3148 2966 3184 3141 3163 3097 3111 3064 3126 3078 3127 3127 3156 3066 3207 3210 3118 3056 3102 3025 3119 3170 3083 3069 3074 3102 3215 3092 3135 3051 3011 3027 3245 3077 3095 3055 3146 3044 3124 3046 3087 2968 3044 3079 3090 3129 3089 3118 3077 3015 2997 3054 3063 3010 3010 3042 3080 3069 3117 3055 3000 3044 3068 3030 2973 3145 3063 3083 3040 3044 3062 3096 2992 3030 3020 3068 3044 3145 3136 3058 3117 3013 3004 3096 3074 3114 3107 3101 3044 3082 3043 3041 3056 3052 2959 3143 3061 3087 3082 3121 3065 3071 3071 3038 3084 3179 3031 3196 3158 3030 3027 3139 3072 3080 3053 3045 3007 3068 2954 2987 3090 3017 3109 3171 3120 3122 3091 3059 3082 3055 2977 3022 3086 3067 3156 3044 3097 3101 3009 3057 3079 3041 3086 3099 3159 3014 3051 3011 3006 3169 3115 3045 3055 3085 3118 3032 3111 3057 3094 3099 3109 3029 3054 2985 3078 3107 2960 3045 2968 3029 2996 3104 3153 3084 2973 3038 3035 3084 3092 2939 3171 2999 3077 2985 3027 2975 3098 3091 3059 3096 2939 3037 3018 2999 3050 3059 3107 3153 2964 3087 3047 3067 3029 3081 2992 2974 3129 3013 3040 3147 3134 2970 3023 3018 3035 3142 3020 3026 3026 3064 3034 3093 2998 3091 3000 3070 3041 3041 3110 3074 3112 3129 3066 3058 3044 3032 3052 3047 3039 3080 2946 3023 3063 3017 3002 2997 3074 3088 3128 3055 3065 3065 3034 3072 3073 3077 3061 3099 3029 3131 3042 3044 3033 3031 3052 3063 2923 3107 3141 3094 3078 3072 3031 2940 3001 3047 3104 3044 3096 2982 2974 3025 2993 2997 3105 3079 3003 3049 3128 3041 3121 2948 3047 3056 3179 3084 3053 2946 3074 3149 3113 3090 3060 3021 3028 3003 3106 3036 3027 2998 3046 3036 2940 3160 3001 3085 3107 3124 3031 3073 3018 3069 3110 3069 3035 3007 2906 2964 3001 3050 3091 3021 2926 3126 3079 3062 3012 3015 3033 3074 3008 3109 3102 3073 3005 2964 3096 2976 3098 2992 3096 3127 3069 3076 3072 3029 2982 2964 3071 3053 2983 3015 3126 3024 3048 2978 3044 3024 2996 3084 3085 3101 3149 3057 3001 3046 3137 3029 2939 3101 3062 3206 3028 2923 3049 3081 3072 3112 2950 3054 3037 3038 3041 3071 3088 3027 3116 3139 3135 3049 3113 3029 3053 2990 2991 3068 3106 3071 3064 3037 3032 3058 3075 3015 3122 3086 3112 3091 3056 2991 3045 3003 3044 2967 3085 3018 3044 3039 3077 3038 3038 3173 3077 3091 3073 3092 3118 3116 3002 3042 3038 3054 3032 3005 3042 3094 3088 3000 3143 3122 3000 3029 3031 3029 3047 3115 2951 3160 3142 2983 3128 3137 3048 3119 3048 2951 3135 3010 3093 3043 3022 3042 3019 3105 3078 3050 3113 3036 3015 3076 3186 3109 3082 3111 3100 3088 2991 3082 3046 3109 3045 3010 3113 3071 2984 3046 2965 3016 3071 3084 3110 3198 3156 3025 3185 2988 3127 3007 3063 3056 3116 3074 3086 2996 2939 3114 3012 3067 3015 3020 3061 3060 3159 2872 3006 3061 3063 3156 3066 2975 3047 3127 3033 3170 2972 3084 3089 3028 3120 3021 2971 2999 3155 3032 2985 3058 3050 3007 3092 3105 3084 3129 3030 3099 3087 3049 3076 3131 3107 2998 3048 3024 3138 3037 3099 3038 3052 3046 3105 3093 3053 2990 2965 3076 3043 3126 3115 3098 3061 3021 3014 3083 3056 3082 3151 2999 3074 3109 3080 3159 3130 3066 3090 3028 3114 3056 3058 3142 3113 3101 3064 3197 3062 2892 3021 3063 2995 2954 3002 3162 2902 3119 3076 3073 3120 3020 3040 3035 3067 3014 3031 3000 3015 3063 3045 3104 3040 2978 3164 2984 3083 3015 3127 3248 3015 3041 3094 3121 3099 3084 3067 3124 3020 3142 2975 3063 2979 3032 3025 3036 3053 3077 2980 3046 2996 3057 3094 3077 3104 3063 3151 3145 2970 3188 3068 3095 3103 3085 3127 3007 3101 3031 3093 3171 3092 3111 3027 3025 3095 3141 3078 3181 3094 3225 3165 3114 3079 3081 3256 3240 3066 3011 3135 3157 3184 3096 3247 3109 3186 3186 3207 3184 3348 3102 3184 3263 3198 3173 3139 3230 3223 3170 3192 3259 3129 3246 3217 3140 3177 3223 3191 3206 3085 3149 3240 3266 3228 3149 3214 3164 3266 3221 3204 3335 3249 3100 3217 3174 3346 3038 3231 3220 3082 3175 3206 3164 3035 3235 3153 3130 3051 3171 3134 3055 3208 3219 3154 3204 3178 3191 3161 3125 3083 3090 3146 3062 3104 3141 2913 3093 3063 3078 3161 3037 3068 3108 3152 3110 3049 3114 3054 3148 3146 3055 3112 3097 3029 2914 3110 3110 3201 3126 3059 3139 3129 3103 3131 3069 3210 3141 3090 3217 3023 3210 3129 3098 3122 3086 3159 3100 3122 3112 3066 3038 3014 3208 3287 3134 3134 2984 3133 3033 3082 3119 3131 2946 3045 3145 2988 3138 3188 3089 3200 3115 3180 3056 3090 3041 3109 3066 3085 3062 3133 3086 3057 3131 3075 3005 3058 3040 3136 3123 3122 2988 3101 3071 3174 3110 3159 3108 3072 3039 2989 3107 3139 2999 3153 2986 2997 3103 3046 3064 3041 3041 3092 3056 3017 2980 3142 3060 3044 3049 2946 3052 3190 3097 3105 3158 3087 3007 3145 3107 3098 3063 3119 3070 3148 3098 3103 3053 3211 3159 3033 3096 3061 3098 2938 3089 3119 3090 2996 3190 3098 3123 3101 3077 3073 3128 3079 3124 3115 3001 3195 3132 3080 3037 3100 3083 3102 3054 3045 3067 3025 3003 3039 3063 3057 3136 3034 3093 3146 3085 3099 3089 2976 3076 3094 3036 3089 3104 3101 3182 3075 3138 3068 3089 3133 3228 3078 3205 3165 3027 3259 3080 3263 3139 3110 3093 3104 3108 3050 3190 3140 3182 3172 3110 3162 3241 3029 3108 3145 3101 3102 3102 3114 3131 3111 3083 3113 3016 3046 3061 3165 3058 3168 3088 3102 3064 3055 3050 3076 3152 3093 3164 3039 2961 3063 3097 3146 3070 3142 3050 2975 2995 3121 3096 3066 3091 3040 3016 3094 3162 3060 3013 3009 3047 3000 2991 3011 3102 3050 3174 3057 3042 3066 3154 3064 3117 3038 3017 3105 3114 3130 3185 3118 3070 3079 3039 3014 3090 2950 3174 3101 3082 3021 3090 3113 3041 2996 3103 3029 3050 3081 3061 3016 3086 3023 3076 3061 3030 3145 3140 3098 3119 3021 3036 3148 3005 3026 3015 2977 3011 3036 3083 3087 2981 2996 3000 3013 3011 3120 3135 3030 3049 3111 3131 3027 2995 3037 3012 3133 3020 3130 3032 3030 2992 3148 3061 3092 3113 3082 3094 3058 3102 3040 3155 3073 3071 2975 3005 3021 3018 3058 3097 3083 3063 3015 3064 3169 3087 3115 3054 3040 3044 3056 3084 3083 3111 3139 3040 3221 3133 3072 3041 3146 3112 3126 3072 3076 3088 3043 3054 3118 2986 3096 3003 3100 3087 3160 3153 3084 3014 3015 3098 3048 3066 2956 3115 3008 3002 3113 3024 3048 3067 3085 3087 2997 3046 3138 3193 3148 3117 3071 3175 3189 3185 3123 3080 3045 3023 3050 3076 2928 3081 3117</counts>
			</dataPoints>
		</scan>
	</xrdMeasurement>
</xrdMeasurements>
