<?xml version="1.0"?>
<xrdMeasurements xmlns="http://www.xrdml.com/XRDMeasurement/2.3" xmlns:xsi="http://www.w3.org/2001/XMLSchema-instance" xsi:schemaLocation="http://www.xrdml.com/XRDMeasurement/2.3 http://www.xrdml.com/XRDMeasurement/2.3/XRDMeasurement.xsd" status="Completed" recordIdentifier="{52A0471D-33A9-4E53-B68A-46CAE90D0193}">
	<comment>
		<entry/>
	</comment>
	<sample type="To be analyzed">
		<id>GPSS_Li1p4Mn0p8Nb0p2Cl4_112225_6921f967f4e53d1f72397d3b</id>
		<name></name>
		<preparedBy></preparedBy>
	</sample>
	<xrdMeasurement measurementType="Scan" status="Completed" sampleMode="Reflection">
		<usedWavelength intended="K-Alpha 1">
			<kAlpha1 unit="Angstrom">1.5405980</kAlpha1>
			<kAlpha2 unit="Angstrom">1.5444260</kAlpha2>
			<kBeta unit="Angstrom">1.3922500</kBeta>
			<ratioKAlpha2KAlpha1>0.5000</ratioKAlpha2KAlpha1>
		</usedWavelength>
		<incidentBeamPath>
			<radius unit="mm">145.00</radius>
			<xRayTube id="1010048" name="Empyrean Cu LFF HR (9430 033 7310x)">
				<tension unit="kV">40.0</tension>
				<current unit="mA">15.0</current>
				<anodeMaterial>Cu</anodeMaterial>
				<focus type="Line">
					<length unit="mm">12.0</length>
					<width unit="mm">0.4</width>
					<takeOffAngle unit="deg">6.0</takeOffAngle>
				</focus>
			</xRayTube>
			<sollerSlit id="21010002" name="Soller slits 0.04 rad.">
				<opening unit="rad">0.0400</opening>
			</sollerSlit>
			<mask id="22031000" name="Fixed mask 13 mm">
				<width unit="mm">9.00</width>
			</mask>
			<divergenceSlit id="22120001" name="Divergence slit 1°" xsi:type="fixedDivergenceSlitType">
				<distanceToSample unit="mm">50.00</distanceToSample>
				<height unit="mm">1.52</height>
			</divergenceSlit>
		</incidentBeamPath>
		<sampleMovement xsi:type="spinningSampleMovementType">
			<spinnerRevolutionTime unit="seconds">1.0</spinnerRevolutionTime>
		</sampleMovement>
		<diffractedBeamPath>
			<radius unit="mm">145.00</radius>
			<antiScatterSlit id="22090040" name="AS slit 9 mm (PIXcel)" xsi:type="fixedAntiScatterSlitType">
				<height unit="mm">9.00</height>
			</antiScatterSlit>
			<sollerSlit id="21020003" name="Large Soller slits 0.04 rad.">
				<opening unit="rad">0.0400</opening>
			</sollerSlit>
			<filter id="20030001" name="Large beta-filter Nickel">
				<material>Ni</material>
				<thickness unit="mm">0.020</thickness>
			</filter>
			<detector id="7010019" name="PIXcel1D-Medipix3 detector" xsi:type="rtmsDetectorType">
				<phd unit="keV">
					<lowerLevel>4.02</lowerLevel>
					<upperLevel>11.27</upperLevel>
				</phd>
				<mode>Scanning</mode>
				<activeLength unit="deg">5.542</activeLength>
			</detector>
		</diffractedBeamPath>
		<scan appendNumber="0" mode="Continuous" scanAxis="Gonio" status="Completed">
			<header>
				<startTimeStamp>2025-11-24T14:02:58-08:00</startTimeStamp>
				<endTimeStamp>2025-11-24T14:11:05-08:00</endTimeStamp>
				<author>
					<name>AutomatedUser</name>
				</author>
				<source>
					<applicationSoftware version="1.7b (136)">PANalytical Aeris Instrument Suite</applicationSoftware>
					<instrumentControlSoftware version="3.2.00000000 20240306">AERIS</instrumentControlSoftware>
					<instrumentID>950485</instrumentID>
				</source>
			</header>
			<dataPoints>
				<positions axis="2Theta" unit="deg">
					<startPosition>10.00943322</startPosition>
					<endPosition>99.99442286</endPosition>
				</positions>
				<positions axis="Omega" unit="deg">
					<startPosition>5.00471661</startPosition>
					<endPosition>49.99721143</endPosition>
				</positions>
				<commonCountingTime unit="seconds">12.495</commonCountingTime>
				<counts unit="counts">2767 2923 2885 2883 2987 2967 2981 2839 2901 2776 2767 2921 2837 2857 2883 2804 2847 2911 2761 2856 2920 2924 2961 2935 2958 2874 2840 2866 2868 2951 2883 2933 2873 2894 2882 3005 2909 2947 2875 2936 2947 2915 2949 2980 2950 2964 3080 3034 3049 2977 3027 2979 3103 3070 3003 3070 3030 3002 2976 3234 3226 3113 3247 3262 3181 3166 3191 3248 3406 3224 3367 3334 3294 3428 3379 3306 3287 3351 3364 3313 3364 3220 3307 3158 3312 3291 3279 3219 3172 3279 3286 3283 3329 3252 3331 3307 3234 3290 3255 3229 3276 3248 3200 3142 3310 3147 3276 3208 3070 3134 3061 3091 3062 3119 3013 3078 3025 3079 3126 3150 3075 3030 2983 2931 3034 2927 2945 2995 3016 3098 3098 3020 2973 3046 3065 3063 3018 2971 3017 3003 3000 3004 2943 3122 2956 3025 2965 3055 2983 2951 3007 2989 3008 2994 3073 2989 3045 3041 3089 3034 3049 3002 2965 3075 3043 3016 2936 2995 3046 2964 3108 3013 3190 2924 2989 2988 3048 3041 3025 3142 2942 2951 3046 3067 3085 2970 2968 3044 3091 3029 3032 2976 2968 2894 3019 2983 2816 3066 2887 2968 2944 3000 2921 3061 2976 2947 3072 3001 2990 3032 3076 2957 3087 2943 2949 2917 2990 2994 2875 3001 3020 3061 2989 3006 2891 3012 3009 2955 2891 2929 3018 2896 2973 2871 2853 2798 2967 2931 2926 2815 2930 2941 3089 2870 3020 2936 2911 2966 3059 2934 2992 2918 3011 2920 3003 2811 2971 2967 2993 2983 2916 2920 2870 3002 2946 3015 2945 2920 3071 2967 2923 3035 3045 2977 3037 2996 2951 2985 2926 2919 3007 3006 3026 2951 2881 2993 2948 2977 2998 3018 3043 3031 2999 2982 3047 2956 3054 2980 3079 3099 3061 3039 3084 3106 3148 3011 3044 3106 3057 3108 3127 3163 2984 3059 3120 3109 3274 3074 3021 3017 3160 2968 3198 3058 3132 3082 3049 3064 3022 3151 3152 3212 3058 3194 3205 3185 3231 3075 3136 3123 3129 3128 3072 3228 3300 3322 3265 3276 3260 3317 3142 3344 3334 3301 3278 3328 3265 3410 3266 3333 3296 3388 3263 3306 3297 3360 3409 3421 3485 3412 3337 3381 3332 3331 3373 3405 3352 3472 3483 3430 3359 3312 3403 3503 3403 3443 3491 3547 3463 3503 3448 3591 3525 3594 3590 3633 3601 3516 3635 3600 3534 3716 3714 3745 3762 3780 3757 3850 3820 3982 4095 3941 3984 4084 4133 4181 4283 4275 4295 4163 4219 4286 4454 4430 4443 4309 4319 4242 4267 4362 4273 4346 4373 4155 4273 4045 4251 4077 4074 4176 4029 4032 4095 4015 4088 4026 3958 3949 3826 4067 3978 3939 3944 3839 3913 3794 3774 3967 3795 3670 3698 3881 3797 3689 3698 3425 3608 3550 3580 3448 3472 3517 3472 3523 3437 3419 3401 3545 3386 3410 3324 3424 3356 3435 3385 3350 3376 3340 3288 3419 3331 3313 3328 3312 3320 3339 3320 3331 3361 3436 3310 3308 3349 3393 3229 3375 3383 3296 3291 3344 3339 3267 3219 3183 3208 3286 3345 3158 3306 3302 3317 3363 3222 3317 3204 3202 3262 3204 3287 3279 3188 3136 3246 3345 3180 3196 3239 3226 3142 3088 3237 3175 3172 3189 3124 3178 3192 3106 3215 3177 3101 3231 3159 3023 3065 3232 3114 3019 3142 3056 3087 3004 3102 3041 3116 3028 3038 3099 3059 3211 3055 3042 3162 3139 2981 2985 3020 2971 3044 3091 3106 3009 3074 3043 2971 3029 3013 3037 2975 2964 2924 2968 2974 2930 3006 2915 2984 3005 2919 3079 3020 3075 2912 2899 2896 2979 3105 2929 2913 2863 2923 2959 2949 2996 2848 3032 2915 2917 2938 2898 2958 2894 2935 3031 2938 3046 2961 2974 3002 2971 2914 3065 2896 2971 2978 2906 2802 2867 2882 2897 2915 3020 2898 3006 2931 2949 2923 2968 2940 2962 2970 2826 2985 2882 2881 2846 2920 2879 2849 2825 2930 2954 2759 2864 2875 2815 2940 2931 2957 2841 2832 2869 2954 2871 2854 2897 2943 2880 2820 2765 2958 2869 3027 2977 2879 2824 2895 2831 2827 2876 2789 2874 2821 2799 2864 2768 2764 2881 2914 2868 2758 2884 2865 2831 2809 2779 2791 2798 2856 2772 2802 2837 2870 2856 2853 2955 2860 2779 2827 2680 2800 2771 2864 2786 2851 2796 2816 2822 2845 2977 2857 2757 2749 2837 2811 2946 2773 2899 2847 2763 2869 2753 2782 2776 2773 2804 2916 2902 2852 2906 2806 2819 2772 2832 2760 2763 2782 2801 2761 2829 2882 2765 2876 2759 2773 2768 2801 2899 2746 2840 2691 2884 2770 2843 2890 2836 2757 2816 2774 2767 2831 2792 2816 2667 2905 2839 2808 2740 2802 2755 2773 2769 2649 2735 2672 2747 2702 2846 2789 2819 2821 2727 2811 2744 2676 2758 2786 2618 2813 2672 2767 2749 2633 2746 2707 2720 2878 2747 2731 2759 2753 2679 2664 2799 2655 2695 2772 2712 2679 2734 2793 2733 2762 2694 2707 2593 2675 2791 2749 2657 2690 2659 2787 2705 2726 2786 2689 2695 2641 2754 2641 2693 2744 2612 2660 2615 2657 2608 2612 2649 2662 2689 2683 2769 2594 2609 2724 2715 2722 2723 2714 2704 2661 2661 2615 2663 2559 2601 2669 2693 2647 2695 2792 2722 2647 2589 2635 2615 2595 2707 2699 2689 2643 2587 2663 2603 2551 2602 2583 2588 2609 2614 2591 2605 2522 2571 2457 2638 2526 2622 2611 2577 2636 2528 2595 2712 2624 2557 2505 2542 2611 2658 2565 2575 2623 2570 2540 2521 2542 2576 2664 2536 2577 2605 2592 2593 2541 2557 2493 2498 2510 2539 2580 2607 2510 2527 2604 2562 2500 2661 2513 2590 2561 2603 2529 2578 2411 2581 2540 2520 2589 2570 2560 2560 2587 2448 2670 2516 2470 2486 2459 2519 2524 2530 2505 2512 2535 2514 2519 2556 2442 2576 2513 2508 2604 2550 2628 2607 2462 2495 2480 2581 2502 2502 2606 2553 2554 2558 2517 2529 2562 2514 2525 2629 2507 2609 2610 2521 2538 2578 2569 2605 2552 2554 2618 2522 2548 2512 2517 2471 2573 2507 2516 2504 2537 2549 2540 2549 2553 2559 2620 2526 2585 2513 2609 2488 2508 2599 2533 2471 2577 2471 2478 2546 2496 2578 2527 2503 2543 2617 2572 2634 2491 2570 2550 2531 2697 2381 2545 2553 2610 2550 2468 2597 2524 2568 2543 2574 2607 2488 2568 2480 2560 2489 2568 2643 2512 2626 2642 2534 2540 2541 2546 2588 2596 2462 2528 2493 2552 2568 2599 2527 2499 2556 2655 2511 2506 2543 2544 2490 2529 2579 2636 2483 2439 2498 2474 2656 2574 2566 2505 2537 2498 2526 2561 2482 2542 2499 2534 2446 2454 2533 2491 2515 2423 2547 2422 2505 2501 2516 2438 2543 2588 2474 2441 2412 2387 2463 2421 2500 2411 2381 2468 2309 2382 2561 2320 2442 2424 2434 2352 2499 2338 2371 2450 2434 2370 2440 2362 2309 2368 2432 2424 2295 2387 2340 2341 2428 2467 2369 2386 2382 2240 2362 2369 2362 2315 2271 2291 2233 2360 2373 2333 2307 2318 2367 2303 2288 2341 2216 2266 2340 2154 2270 2313 2152 2224 2207 2245 2251 2231 2328 2245 2328 2240 2209 2233 2221 2249 2181 2179 2147 2146 2245 2155 2175 2135 2136 2211 2248 2053 2136 2159 2119 2145 2193 2209 2199 2200 2277 2084 2132 2152 2086 2171 2181 2159 2246 2097 2143 2116 2117 2051 2092 2140 2140 2113 2100 2049 2073 2150 2071 2185 1993 2119 2084 2009 1996 2031 2129 2064 2121 2104 1920 2056 2052 1997 2003 2048 1931 2009 2052 2033 1977 2033 2008 1987 1979 2005 2019 1919 1935 2001 1917 1992 2048 1973 2057 1977 1976 1903 1976 2021 2026 2036 1946 2001 1850 1948 1975 1979 1944 1895 2004 2002 1974 1905 1917 1982 1935 1877 1990 1886 1959 1903 1872 1944 1898 1866 1952 1894 1944 1925 1847 1987 2007 1933 1926 1891 1881 1934 1887 1977 1906 1864 1866 1932 2002 1844 1735 1879 1879 1858 1835 1833 1892 1941 1905 1840 1837 1885 1873 1818 1853 1932 1857 1927 1882 1927 1855 1884 1860 1945 1930 1903 1832 1882 1856 1846 1871 1810 1911 1851 1912 1884 1872 1814 1818 1867 1821 1812 1897 1901 1879 1886 1882 1850 1765 1763 1838 1877 1888 1897 1869 1895 1790 1853 1899 1864 1926 1841 1948 1920 1894 1875 1866 1828 1846 1850 1827 1850 1918 1901 1892 1894 1883 1931 1907 1822 1952 1870 1853 1905 1930 1867 1865 1823 1887 1871 1867 1824 1860 1907 1862 1876 1867 1915 1868 1896 1897 1899 1866 1850 1879 1863 1864 1900 1849 1852 1884 1817 1925 1875 1871 1823 1936 1929 1868 1892 1832 1918 1956 1861 1948 1902 1906 1862 1830 1923 1915 1897 1856 1863 1893 1859 1985 1906 1888 1830 1920 1853 1922 1845 1906 1900 1843 1862 1793 1897 1806 1814 1873 1875 1908 1896 1801 1897 1814 1876 1889 1881 1885 1967 1880 1826 1839 1769 1849 1859 1881 1908 1819 1860 1791 1877 1937 1865 1845 1905 1883 1950 1890 1791 1870 1970 1770 1781 1792 1862 1814 1764 1820 1777 1773 1872 1779 1737 1851 1803 1826 1828 1786 1733 1765 1732 1833 1743 1827 1855 1846 1811 1801 1809 1761 1806 1774 1746 1633 1718 1744 1794 1846 1722 1688 1744 1689 1719 1805 1711 1761 1686 1778 1713 1718 1747 1655 1750 1722 1658 1695 1792 1692 1664 1721 1747 1777 1640 1784 1753 1669 1695 1667 1649 1680 1700 1735 1608 1715 1727 1634 1607 1606 1663 1599 1732 1606 1631 1607 1554 1614 1608 1672 1637 1699 1585 1621 1602 1621 1697 1651 1632 1627 1631 1646 1611 1631 1682 1727 1627 1637 1658 1621 1651 1596 1597 1661 1703 1673 1687 1562 1598 1609 1621 1599 1693 1654 1610 1595 1747 1674 1676 1729 1788 1719 1758 1843 1844 1853 1916 1993 2030 2057 2225 2124 2258 2178 2299 2281 2200 2209 2282 2317 2270 2295 2303 2316 2262 2240 2134 2183 2178 2200 2075 2095 2140 2028 1975 1972 1901 1975 1872 1873 1851 1799 1763 1817 1755 1778 1728 1783 1700 1663 1739 1677 1684 1696 1705 1624 1636 1581 1555 1538 1638 1592 1553 1569 1612 1446 1478 1454 1461 1489 1496 1528 1526 1478 1466 1516 1463 1456 1470 1476 1481 1570 1447 1480 1431 1454 1488 1397 1350 1484 1462 1491 1464 1487 1442 1401 1497 1450 1474 1485 1397 1508 1436 1481 1434 1530 1455 1476 1474 1441 1567 1484 1547 1458 1525 1574 1556 1655 1711 1707 1756 1738 1913 2035 2096 2194 2352 2373 2430 2495 2506 2666 2716 2840 2783 2879 2884 2772 2854 2984 2878 2839 2824 2758 2726 2659 2614 2590 2466 2367 2305 2311 2254 2164 2130 2146 2050 2035 1998 2045 1964 1903 1785 1804 1825 1787 1855 1807 1800 1812 1809 1730 1639 1617 1626 1596 1658 1540 1519 1576 1502 1492 1516 1490 1518 1466 1395 1446 1475 1482 1385 1419 1427 1421 1421 1485 1450 1478 1393 1413 1419 1429 1417 1388 1353 1356 1340 1344 1376 1406 1332 1262 1312 1335 1269 1296 1293 1325 1336 1262 1257 1206 1299 1225 1284 1301 1279 1301 1273 1265 1264 1282 1289 1278 1201 1210 1222 1280 1218 1251 1239 1229 1235 1274 1280 1213 1303 1284 1300 1249 1220 1240 1216 1262 1272 1208 1297 1285 1230 1272 1236 1274 1207 1232 1167 1228 1283 1212 1276 1259 1175 1251 1274 1284 1188 1283 1199 1201 1247 1235 1228 1237 1221 1225 1227 1221 1224 1204 1181 1219 1236 1224 1199 1211 1215 1197 1236 1171 1261 1257 1139 1175 1171 1147 1186 1150 1255 1186 1203 1245 1220 1181 1232 1200 1177 1221 1188 1178 1207 1227 1265 1149 1167 1244 1204 1227 1171 1227 1221 1195 1199 1204 1239 1199 1214 1178 1200 1216 1182 1172 1173 1229 1199 1152 1276 1184 1244 1152 1154 1166 1271 1235 1115 1288 1167 1177 1210 1205 1207 1197 1177 1178 1261 1254 1198 1196 1259 1226 1267 1237 1184 1188 1236 1228 1259 1303 1361 1320 1253 1298 1261 1355 1330 1285 1302 1301 1330 1387 1379 1398 1471 1519 1541 1555 1504 1569 1640 1597 1688 1624 1653 1692 1769 1778 1701 1742 1659 1744 1727 1643 1681 1647 1757 1634 1619 1626 1560 1610 1586 1570 1522 1602 1541 1616 1548 1567 1492 1508 1577 1425 1470 1459 1430 1410 1465 1422 1434 1384 1467 1413 1356 1352 1386 1333 1309 1317 1254 1236 1258 1322 1320 1326 1261 1289 1209 1260 1273 1378 1237 1207 1229 1214 1236 1218 1215 1173 1215 1185 1205 1203 1226 1271 1292 1224 1296 1222 1231 1206 1185 1293 1185 1331 1281 1279 1154 1240 1235 1286 1209 1260 1280 1164 1210 1155 1274 1180 1192 1236 1234 1122 1224 1212 1156 1212 1137 1278 1169 1150 1186 1185 1181 1185 1258 1232 1210 1198 1214 1186 1304 1200 1320 1221 1231 1255 1205 1234 1294 1296 1139 1280 1244 1278 1278 1295 1280 1262 1301 1330 1308 1371 1389 1445 1470 1495 1550 1660 1686 1734 1793 2008 2064 2283 2368 2733 2918 3094 3367 3656 3782 4188 4418 4689 4681 5049 5233 5301 5606 5443 5630 5529 5523 5597 5462 5287 5180 5004 4861 4632 4603 4275 4183 3956 3753 3620 3433 3282 3184 3082 3002 2958 2894 2697 2677 2578 2495 2418 2353 2344 2264 2244 2202 2105 2111 1962 1998 1880 1813 1719 1709 1601 1631 1531 1453 1449 1466 1423 1372 1360 1355 1308 1293 1283 1268 1203 1242 1289 1199 1177 1245 1280 1195 1205 1149 1154 1168 1107 1096 1198 1155 1107 1106 1130 1196 1127 1139 1211 1142 1166 1182 1102 1119 1099 1090 1140 1110 1098 1155 1135 1048 1099 1066 1054 1090 1126 1112 1160 1078 1110 1093 1045 1118 1152 1165 1085 1081 1038 1088 1130 1123 1103 1101 1080 1127 1097 1054 1109 1133 1104 1096 1111 1207 1140 1146 1137 1145 1094 1121 1153 1102 1139 1094 1190 1132 1108 1108 1079 1212 1142 1104 1135 1166 1220 1153 1123 1122 1158 1125 1197 1163 1138 1115 1139 1150 1081 1180 1100 1204 1071 1072 1123 1123 1112 1123 1072 1132 1117 1062 1065 1104 1096 1051 1055 1063 1106 1140 1069 988 1107 1058 1100 1069 1003 1019 1111 997 1089 1137 1072 992 1100 1072 1032 1032 1043 1101 1078 1122 1044 1100 1003 1006 1100 1028 1047 1018 1080 1017 1057 1038 1048 1070 988 1039 1086 995 1075 985 1031 994 999 1046 1037 1010 1048 1018 1086 993 1023 1006 971 1002 978 1050 977 1011 1031 1034 1048 956 1032 1082 972 925 919 949 1000 970 959 1045 1028 1010 955 1004 1000 950 979 1034 1005 1011 961 1072 961 1003 1013 988 925 1009 961 1041 947 1037 983 1004 912 970 973 1051 1001 999 1042 995 996 1058 1019 1029 1056 1101 1083 1046 993 1018 1028 966 1049 1052 1052 1011 1024 1040 1012 1008 961 1034 1060 956 989 1019 1015 1034 966 1030 1032 1001 1008 1015 993 999 955 1019 940 958 1023 966 999 998 983 930 1009 970 1033 937 966 968 956 1043 903 943 921 962 1021 992 947 938 926 946 970 935 983 966 928 946 981 967 976 969 925 893 933 948 940 1033 972 979 956 997 952 941 972 948 929 944 934 917 980 908 892 906 962 1030 926 899 969 903 909 971 968 903 905 957 949 938 926 883 935 885 996 957 900 938 960 943 909 967 876 974 904 919 910 946 892 904 944 930 954 939 953 995 991 1001 928 940 898 919 903 873 930 941 953 935 965 953 962 920 851 918 970 925 936 891 862 988 971 938 887 930 922 907 897 967 957 942 940 925 903 920 915 914 893 889 927 930 928 939 922 909 946 920 959 887 900 963 909 948 941 965 924 934 904 954 931 947 942 923 953 908 891 968 913 925 946 861 921 957 924 930 915 929 864 911 905 885 890 884 881 906 886 900 946 930 928 900 943 938 967 898 916 891 900 939 893 893 844 892 884 939 921 918 932 933 883 895 888 859 905 946 881 951 966 891 919 954 939 931 906 891 911 912 867 951 901 931 879 927 930 958 878 826 908 927 889 895 945 908 896 922 903 978 917 929 959 882 970 902 912 925 917 823 886 874 904 853 897 914 882 849 920 889 916 939 942 900 851 845 912 900 922 815 871 897 876 932 904 864 967 896 886 914 901 956 928 891 930 948 855 921 913 907 896 910 892 877 898 902 846 887 952 898 823 886 892 898 897 871 828 899 865 906 918 906 836 838 875 923 881 928 830 916 906 871 958 906 898 892 923 902 897 912 901 925 848 872 927 869 906 881 879 872 909 865 893 905 886 916 874 922 896 851 893 903 880 924 885 917 903 916 901 873 862 901 887 884 866 894 877 898 848 942 901 888 836 905 881 860 926 885 860 860 861 915 824 893 859 833 933 790 913 844 869 887 863 921 886 979 896 841 873 901 838 882 854 854 908 878 833 909 915 866 865 880 892 870 897 871 884 898 899 923 893 866 871 862 899 863 944 889 850 891 904 896 885 902 901 944 912 808 910 907 895 901 894 922 882 891 860 897 811 847 907 848 844 827 888 906 866 885 913 934 872 878 871 889 884 905 929 885 883 883 930 925 894 887 858 880 913 879 874 913 887 854 916 852 892 849 885 910 885 837 933 911 881 862 873 873 930 810 845 946 853 908 849 897 865 885 911 878 897 934 908 845 930 855 895 915 875 940 903 902 924 874 863 877 893 957 904 877 836 880 897 906 903 956 896 851 824 894 915 909 879 900 962 890 977 880 977 888 927 913 974 967 923 899 919 951 947 1002 951 972 964 984 952 948 968 981 946 978 921 971 940 950 985 955 999 998 951 1032 946 936 909 1000 994 955 961 931 935 964 956 909 901 942 895 965 1010 942 945 953 937 937 878 943 930 1011 892 929 856 945 924 891 870 950 868 880 934 994 951 870 902 956 883 915 917 973 917 900 919 866 882 928 954 981 927 940 938 988 971 981 1062 1024 984 1025 1128 1082 1169 1160 1308 1259 1197 1305 1312 1386 1354 1341 1391 1404 1375 1398 1366 1417 1312 1304 1313 1267 1257 1271 1154 1144 1174 1225 1113 1104 1100 1124 1054 1060 1020 1025 1020 1027 990 1059 985 1000 996 1012 947 931 906 924 931 915 936 951 935 869 878 907 886 885 878 915 889 856 849 900 865 836 804 872 873 905 837 843 826 843 837 881 897 834 863 892 828 846 797 864 885 910 859 927 863 840 817 842 792 842 861 821 790 846 894 842 827 910 872 813 828 833 871 852 913 888 831 850 841 836 867 862 807 829 839 844 858 879 823 826 885 834 853 853 807 840 852 862 885 902 837 797 802 880 871 828 857 791 816 869 861 816 813 784 803 810 823 857 866 793 809 803 833 833 831 879 850 818 836 849 865 833 823 857 805 829 810 828 868 845 852 826 828 815 873 838 831 789 859 855 847 854 822 879 855 866 809 839 851 780 755 832 781 826 836 854 813 874 850 790 860 798 761 824 829 872 823 846 820 817 805 839 864 835 879 849 820 795 833 862 795 805 838 880 798 839 828 870 822 849 796 844 844 813 845 826 820 820 800 822 850 838 857 788 850 811 837 859 831 825 754 836 848 789 785 830 848 868 905 874 802 804 803 854 831 847 811 847 883 798 867 825 800 773 801 831 809 837 860 876 884 877 852 805 851 806 787 867 830 832 832 848 829 896 918 813 853 858 846 825 838 879 798 877 822 841 850 840 838 884 841 830 840 822 865 875 799 850 799 861 871 785 830 855 829 855 869 814 862 788 853 882 892 881 841 824 851 883 802 880 837 911 893 890 858 890 890 884 905 887 914 828 925 863 893 937 835 919 928 924 907 903 941 960 883 965 951 1004 904 1004 1050 1062 1073 1062 1134 1124 1209 1210 1275 1300 1472 1438 1598 1839 2027 2101 2332 2478 2598 2842 2907 3002 3182 3318 3331 3440 3405 3561 3638 3523 3515 3461 3448 3435 3290 3220 3027 3056 2893 2830 2776 2639 2493 2386 2349 2210 2161 2077 2020 1942 1909 1799 1699 1727 1627 1556 1512 1437 1432 1455 1414 1355 1308 1285 1213 1217 1226 1156 1124 1085 1122 1042 1051 1015 952 1008 993 982 930 894 886 838 878 867 871 931 886 789 818 856 840 842 932 875 799 801 827 854 861 868 842 791 825 850 808 902 823 866 822 824 843 853 869 873 764 802 825 815 835 829 889 800 904 836 907 850 837 872 923 856 835 858 867 852 851 856 851 828 838 787 891 937 834 876 904 843 898 862 875 863 872 881 840 870 809 859 867 879 845 827 890 835 827 847 881 862 850 815 821 860 847 861 829 812 891 809 790 836 837 874 797 870 852 859 838 826 827 813 895 838 807 816 797 813 839 792 838 815 796 826 790 814 789 757 837 767 803 855 822 795 777 773 847 780 864 772 870 779 784 804 778 850 828 794 812 806 803 836 774 867 812 818 838 817 826 862 887 880 892 974 946 962 959 1000 1024 982 1031 1013 1004 1079 1040 1071 1057 1008 1077 1025 1018 989 989 985 1007 955 970 933 951 945 968 880 954 867 920 888 900 941 934 867 905 875 894 835 814 863 839 845 817 822 851 788 808 834 750 879 771 816 812 849 740 793 771 773 792 772 747 774 807 751 798 761 809 786 737 782 781 761 796 754 726 761 751 780 756 822 706 790 800 740 756 776 762 769 784 755 758 806 729 755 741 801 723 745 788 777 739 767 838 820 749 744 737 742 800 751 731 769 737 807 769 792 735 775 792 789 781 759 732 726 705 773 755 772 745 790 748 756 722 758 666 785 747 744 802 736 676 756 766 725 691 722 794 745 823 807 757 746 777 804 712 792 725 769 753 720 757 691 805 745 707 811 713 776 738 749 798 744 778 737 784 769 747 767 755 743 743 778 737 751 794 745 748 735 749 764 752 796 760 782 760 774 794 733 740 762 809 782 771 778 731 727 793 751 745 758 770 799 735 773 765 799 720 735 708 698 740 771 741 725 736 783 788 807 778 763 737 802 728 775 742 724 736 745 757 724 743 749 710 739 772 741 754 765 763 698 759 753 754 716 715 776 727 733 721 771 752 728 746 763 754 776 751 722 764 730 765 695 724 776 712 760 779 747 742 658 740 800 743 734 682 732 738 746 787 742 732 749 795 741 730 710 722 805 777 762 756 787 730 693 730 749 813 718 705 750 704 691 748 761 719 741 728 721 726 711 753 744 681 712 700 749 766 706 696 765 753 745 731 718 760 756 733 734 752 732 782 758 732 708 711 726 694 766 731 753 688 735 740 732 748 739 761 721 723 723 768 668 721 689 692 752 743 749 680 710 733 719 751 728 733 749 714 725 770 717 718 736 708 665 694 741 687 697 722 715 679 728 723 738 742 725 703 727 699 691 676 708 745 749 745 799 739 715 730 758 757 641 734 713 758 688 698 718 717 775 752 751 716 714 681 774 743 706 722 774 733 683 714 767 745 761 712 728 712 745 735 755 723 687 739 714 713 750 678 709 760 694 682 702 664 702 698 737 713 725 701 731 742 652 713 733 734 697 758 706 729 749 727 757 671 722 689 735 728 744 681 715 732 756 708 720 722 691 712 727 703 722 686 703 698 719 746 744 685 702 753 753 653 698 700 790 715 689 703 703 749 716 732 716 773 746 712 660 753 701 707 680 725 706 713 741 701 694 719 739 749 714 774 715 751 702 800 690 733 724 770 705 739 718 706 776 780 779 687 722 693 743 716 746 809 725 799 792 818 781 690 773 724 776 782 787 808 768 808 814 765 759 772 808 741 808 745 820 830 788 819 779 709 771 738 794 713 824 725 738 744 790 736 737 768 753 745 706 712 771 770 725 728 737 752 760 764 772 735 804 776 731 772 733 846 838 744 823 808 827 841 805 872 964 935 932 970 1034 1004 1049 995 1049 1051 987 995 1035 1019 1027 1023 1009 976 1007 1016 968 957 972 923 931 938 926 947 840 888 901 885 858 896 804 864 783 767 819 785 855 778 782 787 775 813 742 791 764 780 777 703 780 779 790 702 796 732 744 755 746 751 708 737 743 750 696 789 750 724 743 761 773 742 701 752 711 705 743 736 775 703 745 762 782 764 752 738 687 750 742 722 790 730 788 723 742 793 716 753 763 728 723 708 759 712 771 718 763 748 735 712 729 739 733 748 735 693 721 709 764 746 682 718 746 770 749 775 709 730 691 771 717 725 702 749 711 720 740 670 771 739 764 760 707 714 749 736 702 793 717 794 719 729 696 745 734 754 745 707 693 719 697 734 735 758 727 753 701 715 712 719 791 724 753 703 732 701 702 732 742 771 665 708 758 742 739 740 719 752 728 760 748 758 717 740 778 751 787 699 722 775 730 701 713 706 717 705 680 753 753 723 768 765 739 709 767 732 692 773 729 774 729 691 731 664 686 729 767 740 715 791 713 724 813 753 755 778 720 767 745 750 742 720 714 762 799 775 787 790 758 761 832 753 820 793 811 916 879 921 1002 1051 1054 1162 1165 1193 1155 1290 1180 1293 1235 1302 1209 1268 1265 1268 1281 1323 1256 1297 1260 1225 1179 1213 1223 1181 1105 1103 1122 1079 1061 948 1034 1059 948 962 971 892 951 877 928 864 872 836 844 828 822 812 773 775 761 811 761 741 791 755 734 758 734 731 697 746 741 714 732 693 731 714 722 727 664 713 730 748 706 724 655 732 679 681 697 691 690 674 697 765 666 705 754 719 699 666 731 705 680 713 706 695 748 666 755 701 750 734 725 708 773 715 703 685 684 713 679 681 686 732 719 702 674 749 694 708 738 673 692 710 675 705 733 674 695 699 638 709 694 709 651 684 687 718 721 732 658 699 699 699 707 751 755 641 680 671 687 697 753 710 755 723 682 706 683 685 713 679 682 707 661 726 677 704 668 687 687 711 684 735 703 685 681 700 659 740 696 679 685 704 691 704 665 732 687 730 792 713 745 761 784 765 789 766 826 805 816 822 826 795 831 828 833 795 814 788 804 795 817 793 806 781 802 744 781 746 797 804 788 736 769 767 690 718 680 731 710 732 683 710 685 742 725 686 696 686 682 683 682 661 688 713 665 655 693 729 721 671 714 676 732 667 700 683 651 710 653 690 625 689 686 651 658 671 681 641 699 716 666 672 635 668 638 668 646 685 672 684 658 683 647 657 665 651 626 689 661 722 674 628 673 665 666 646 701 675 700 668 690 680 691 704 665 652 664 672 688 658 688 682 633 663 672 682 663 669 676 686 666 690 650 684 663 678 722 627 633 676 678 720 649 672 665 686 653 666 674 689 639 634 660 636 678 679 691 668 707 658 708 613 673 682 681 707 656 654 698 619 701 641 660 663 664 662 654 652 679 668 662 655 646 721 659 651 675 692 672 649 678 653 694 732 664 658 632 690 655 660 637 698 639 667 677 687 724 704 674 719 733 699 689 645 656 662 612 633 646 667 659 680 655 692 664 716 672 652 664 644 674 671 665 646 637 677 623 663 725 645 673 678 625 659 653 664 681 633 639 668 670 682 639 675 632 643 643 677 631 652 671 681 666 651 679 641 660 697 614 676 713 640 680 632 651 630 616 695 667 629 659 652 629 616 649 670 653 610 655 621 674 634 646 668 624 690 628 681 671 683 667 667 629 667 635 643 680 714 625 663 663 637 675 652 614 651 649 643 607 637 645 675 725 607 648 656 657 660 644 659 651 704 621 692 636 675 698 651 652 639 693 678 661 679 638 620 672 663 661 679 648 653 618 681 656 667 646 675 653 686 675 645 643 654 652 685 640 684 650 641 697 667 685 593 697 677 654 617 684 703 600 654 599 652 663 634 681 673 664 647 648 625 647 602 654 686 663 609 639 683 678 650 674 646 652 686 686 609 652 630 671 670 620 639 641 693 742 650 687 636 636 674 672 668 677 679 642 657 622 640 668 657 655 657 660 706 662 645 634 691 632 649 697 659 653 662 626 660 702 688 672 664 661 685 640 667 673 699 652 622 665 664 642 653 688 615 689 691 641 688 652 663 616 659 630 671 631 646 658 686 671 703 644 677 636 660 644 680 696 692 670 644 652 665 700 642 709 706 717 677 727 764 703 718 772 730 693 728 743 796 717 719 728 739 749 682 752 772 712 724 781 673 737 723 706 757 738 741 683 663 692 705 685 674 720 723 719 738 636 713 677 693 680 635 704 647 695 665 702 606 651 679 644 646 673 650 652 630 649 668 708 600 667 659 632 668 656 681 637 621 661 645 671 666 647 615 679 650 629 665 631 638 643 646 634 669 652 659 640 626 672 643 657 665 623 678 673 689 700 617 654 614 682 625 622 663 700 606 674 627 616 671 622 653 676 652 677 635 677 666 651 610 633 602 654 665 671 660 661 689 674 668 688 675 687 678 631 628 592 608 643 626 653 661 677 672 659 676 624 644 620 678 631 693 621 620 667 644 659 648 698 578 666 644 628 620 654 635 679 687 675 620 651 643 631 668 635 643 616 650 669 638 628 613 660 631 618 616 661 656 646 667 649 699 646 610 663 596 616 650 616 654 625 674 629 696 689 647 652 680 660 635 644 611 639 653 679 666 638 633 615 636 621 631 658 623 656 628 665 645 634 618 652 667 606 640 648 651 632 616 615 684 689 628 625 623 666 675 630 639 610 632 626 613 702 636 625 656 650 639 611 609 623 643 646 665 643 655 679 606 655 714 671 664 614 683 689 710 666 654 656 663 728 686 674 703 705 658 656 687 687 708 707 713 751 743 735 732 774 810 747 805 814 810 758 857 853 826 876 873 889 879 923 874 882 835 868 865 821 841 826 856 860 804 873 800 783 777 782 872 794 779 784 779 810 787 754 780 717 708 689 706 711 661 721 698 701 692 705 686 680 682 652 659 697 660 683 658 655 637 625 637 711 698 670 634 648 625 642 614 646 668 627 628 633 623 655 661 646 648 656 636 637 634 651 684 654 572 635 657 641 675 657 610 628 639 649 639 633 667 607 670 616 669 715 651 617 643 610 619 583 613 662 646 641 627 673 629 621 622 655 601 637 660 677 661 632 654 644 678 627 643 640 582 634 660 603 618 629 643 672 632 657 622 618 617 628 617 652 671 692 677 609 636 617 616 655 642 649 646 663 633 620 637 667 628 573 613 609 651 617 558 654 641 656 629 616 644 627 641 686 618 606 655 660 633 663 659 653 590 647 610 637 678 631 612 603 607 614 635 620 628 683 625 612 689 624 633 640 663 583 642 674 633 668 648 617 640 646 635 627 646 575 617 657 661 597 641 633 652 643 644 625 668 603 613 607 637 611 591 599 673 606 621 609 667 670 646 592 635 657 619 631 668 606 651 619 611 609 656 630 595 630 644 628 632 656 622 645 625 668 608 640 634 648 632 633 650 616 654 639 685 615 624 661 657 630 667 635 622 665 650 653 641 636 634 618 638 613 658 667 597 632 630 597 627 618 676 656 677 620 607 644 608 633 630 639 634 612 625 643 676 631 627 654 600 660 587 646 618 640 591 624 586 614 634 619 623 621 661 641 661 622 602 670 654 643 638 637 618 687 626 590 602 643 602 598 644 639 611 660 633 627 633 640 634 668 619 598 649 617 640 662 680 630 626 671 642 684 643 607 622 651 580 630 627 623 638 653 642 619 611 619 644 633 661 721 670 621 605 614 639 693 611 674 668 644 642 666 635 618 648 635 594 679 627 648 597 699 664 646 661 635 612 669 661 614 638 656 614 631 632 670 638 626 579 614 654 654 637 646 600 656 610 604 692 653 668 650 625 663 623 666 646 683 571 616 636 657 621 613 616 645 674 632 637 614 605 694 644 646 606 631 587 675 632 637 665 642 621 615 615 621 625 595 641 681 627 688 619 615 646 617 632 650 684 623 668 653 616 639 633 667 653 673 631 652 616 674 654 666 674 613 636 632 672 642 624 653 649 655 646 639 655 633 669 679 669 663 670 605 677 592 624 656 644 687 612 638 651 611 618 645 621 648 671 579 630 624 651 635 609 631 637 604 683 612 610 637 616 643 637 653 666 630 637 617 662 656 651 619 673 674 638 668 655 647 653 663 675 676 648 628 654 626 601 661 641 625 620 639 653 658 678 635 636 619 683 659 704 632 605 647 699 645 611 657 683 648 646 602 727 697 668 637 665 687 643 635 624 642 625 626 666 659 655 716 664 665 642 703 636 651 671 679 626 662 632 617 689 690 678 668 719 701 681 711 741 720 687 754 706 707 713 722 715 718 720 657 666 701 710 730 727 718 719 665 696 680 707 695 657 656 643 666 720 725 696 696 675 713 716 680 705 696 713 700 612 696 666 702 659 660 674 677 664 673 696 696 674 720 672 683 689 702 741 735 666 721 712 691 792 732 774 815 749 733 713 711 702 756 656 766 680 741 712 734 735 658 735 697 718 757 677 716 716 691 770 700 710 684 676 688 709 692 693 716 666 673 721 633 675 677 660 677 694 722 663 656 703 602 720 646 631 640 624 661 663 650 655 708 687 693 689 647 618 616 700 647 644 731 694 607 691 598 670 694 666 679 600 659 674 647 638 610 661 637 645 617 616 668 664 632 672 684 642 675 637 615 623 665 625 685 643 675 686 682 675 663 663 666 691 677 668 663 607 640 616 666 632 672 605 688 669 698 717 619 671 668 642 624 644 667 656 661 639 682 724 640 679 676 631 654 656 701 659 700 667 670 660 646 674 649 763 689 711 670 692 685 697 685 711 680 703 686 696 674 698 673 673 684 646 679 713 699 660 693 683 684 741 740 680 640 717 700 699 690 682 671 668 647 706 633 693 697 657 717 706 690 734 708 749 704 675 734 708 628 705 688 728 728 717 753 751 796 817 814 750 777 736 774 846 864 894 923 1004 985 985 1100 1080 1121 1166 1187 1161 1144 1116 1138 1084 1130 1027 1092 1010 1045 1008 999 981 963 998 1013 990 956 965 963 1023 984 990 971 984 990 961 941 939 859 850 907 901 799 857 781 773 755 819 755 756 733 727 753 748 709 767 735 726 757 682 672 650 689 707 700 707 673 717 697 678 689 707 723 650 665 692 673 672 682 717 686 674 680 682 675 604 682 645 651 654 664 666 686 651 640 680 673 638 637 659 697 656 655 673 652 651 720 661 658 608 668 700 673 687 687 642 671 661 680 681 651 630 636 673 699 678 657 629 638 648 656 680 659 678 626 663 614 670 640 714 672 659 642 640 621 627 653 673 682 653 679 649 665 650 657 691 624 680 652 700 632 653 660 656 651 673 656 620 661 658 657 667 622 697 655 711 665 699 773 657 687 718 666 705 666 655 660 700 661 666 676 680 657 719 701 672 662 697 649 708 668 627 689 691 665 649 684 725 706 665 635 640 662 656 696 640 624 691 655 693 655 652 675 638 665 632 659 651 658 628 626 660 659 712 660 653 648 645 622 643 642 624 635 637 593 653 592 610 633 659 586 634 663 669 637 615 626 625 655 633 652 613 622 648 651 628 635 624 608 661 649 653 652 678 648 627 647 642 609 588 674 583 651 625 643 652 637 637 651 604 634 624 681 625 632 649 622 656 616 618 658 641 649 632 680 638 648 618 631 641 625 620 619 634 623 631 614 645 625 617 674 623 623 631 655 630 639 604 623 586 583 614 643 678 599 641 613 642 616 627 650 623 605 577 649 624 576 641 651 585 608 619 591 638 605 637 629 626 642 655 589 654 640 655 663 645 619 653 611 617 641 649 645 642 600 683 645 667 615 689 601 683 605 657 626 613 661 615 637 612 627 631 633 635 669 616 651 617 615 661 587 672 656 589 604 609 635 646 597 608 681 617 631 652 614 661 651 649 621 661 628 628 629 635 639 636 668 640 614 635 622 648 621 653 630 649 592 613 615 610 613 649 605 665 624 617 571 630 653 607 627 615 665 612 592 641 623 626 623 604 609 631 612 652 581 664 605 618 582 652 647 641 651 590 630 617 629 604 628 644 616 630 604 636 627 596 620 635 632 622 647 581 621 601 605 640 646 622 616 586 564 649 589 617 597 581 656 636 636 658 646 610 623 566 594 642 591 622 668 623 630 635 648 596 652 639 608 625 656 622 666 651 622 670 631 630 617 592 638 595 669 631 668 636 627 647 633 641 607 646 609 579 592 608 593 616 625 595 630 602 687 645 653 639 601 647 642 638 637 641 622 640 627 609 627 658 640 624 639 593 668 655 644 633 614 646 588 588 632 657 623 611 637 610 650 629 647 648 673 631 664 684 624 653 645 682 628 609 644 663 643 641 645 693 666 646 660 609 658 619 639 663 642 664 653 609 664 645 669 689 667 679 740 706 721 665 686 699 713 721 656 602 682 699 651 689 675 654 621 670 652 654 700 695 682 685 651 679 666 671 672 666 665 650 660 688 667 606 663 629 633 604 725 618 672 640 622 630 641 620 667 656 665 658 604 668 632 676 642 617 617 654 656 623 623 643 633 632 622 612 663 630 612 653 616 600 606 662 649 654 646 602 628 580 623 653 694 641 646 633 654 658 669 614 619 594 596 631 638 628 641 622 642 632 638 660 644 658 630 619 669 628 633 554 631 624 666 630 610 609 611 624 663 688 671 641 641 616 614 587 602 631 626 629 667 663 660 616 657 596 696 656 650 638 679 626 618 605 631 639 598 638 625 607 618 620 611 603 584 619 653 561 629 596 661 612 585 616 629 615 645 581 677 654 650 593 612 630 613 626 616 678 679 604 676 602 636 617 669 620 669 607 696 599 626 620 627 609 627 619 647 611 668 649 617 654 616 616 634 645 617 598 629 657 615 655 610 653 603 644 648 625 603 646 614 626 635 615 651 592 678 620 704 664 590 626 587 631 625 678 599 656 679 634 599 635 721 614 675 637 604 674 611 678 695 610 653 651 639 671 653 620 670 639 662 652 689 679 654 656 646 706 671 668 735 722 724 772 807 764 786 828 870 856 943 903 944 891 986 963 1032 985 1007 1024 1006 1044 948 961 909 873 894 819 831 833 824 848 835 782 827 805 812 851 861 855 847 856 881 848 877 827 848 813 836 809 800 807 742 737 787 715 728 727 679 648 679 681 709 722 683 679 679 657 651 670 638 646 662 667 667 690 645 672 605 639 663 670 671 613 673 615 665 608 632 614 631 634 641 682 693 617 619 614 667 624 614 661 618 615 632 609 629 627 656 609 655 608 636 646 617 658 635 688 612 635 633 607 677 661 677 663 617 635 661 618 634 633 616 631 632 631 607 600 618 668 614 637 596 612 637 623 632 635 590 632 620 610 628 652 606 617 637 595 657 651 615 640 591 648 616 574 691 607 618 583 626 577 621 630 666 667 599 635 617 667 633 659 642 611 660 685 669 598 633 608 601 636 671 627 626 643 663 645 664 663 628 635 643 643 637 656 601 614 621 632 583 614 688 595 610 632 676 698 629 651 638 642 648 617 644 599 607 610 632 674 598 619 567 610 689 644 627 643 626 651 648 661 634 617 621 609 646 600 637 654 618 649 615 611 622 622 590 603 607 604 588 647 623 576 581 631 612 595 605 607 645 643 603 629 637 622 636 618 622 608 615 622 575 606 619 639 624 607 637 598 607 616 562 681 623 615 635 619 659 596 622 615 647 629 663 606 612 574 620 662 583 575 580 657 643 619 625 635 585 593 623 621 593 647 615 624 567 629 690 612 636 605 584 596 594 616 600 568 630 602 615 621 560 575 592 569 596 619 611 626 607 642 591 581 580 638 577 669 600 631 596 624 634 567 630 595 625 620 644 654 608 602 661 635 620 613 632 640 618 595 607 578 624 643 572 600 625 594 577 567 603 611 591 601 605 634 595 599 605 651 624 577 623 595 579 578 522 631 639 655 653 645 580 578 607 586 610 623 620 587 587 620 626 576 631 632 654 617 603 623 582 614 543 640 612 647 616 581 577 599 624 570 636 645 596 641 554 562 630 585 608 625 654 629 599 610 639 554 619 637 615 614 619 609 592 627 600 647 618 583 615 638 655 654 565 565 644 585 628 603 581 574 620 611 600 589 588 614 654 638 669 599 601 585 623 605 617 593 615 546 608 623 623 560 653 611 615 609 609 632 603 615 627 593 608 593 650 643 612 623 579 600 621 612 586 629 654 624 590 583 588 591 546 612 605 659 620 575 619 579 594 621 556 634 628 603 614 627 596 618 586 606 596 624 587 576 592 582 567 596 654 611 602 606 591 570 614 603 666 584 584 647 623 620 628 593 607 587 605 609 607 641 596 665 617 616 558 622 620 597 667 617 580 666 609 615 599 616 566 639 638 618 656 662 601 626 627 603 601 615 604 595 623 655 610 598 616 590 621 580 654 602 630 577 609 647 608 636 627 614 658 594 690 654 636 678 646 664 691 679 660 618 654 672 715 713 687 697 705 706 693 706 653 648 669 667 622 679 681 688 653 659 622 649 661 625 598 661 678 655 631 658 639 643 637 683 631 643 631 729 629 645 656 603 619 656 620 631 656 654 628 641 629 653 731 657 701 643 705 646 668 664 682 628 665 635 686 668 634 675 662 637 678 627 619 639 666 612 648 629 575 695 632 662 648 688 658 631 644 639 664 697 710 682 669 635 623 688 694 662 639 611 610 643 696 595 617 619 626 623 576 644 590 656 643 620 608 639 606 646</counts>
			</dataPoints>
		</scan>
	</xrdMeasurement>
</xrdMeasurements>
