<?xml version="1.0"?>
<xrdMeasurements xmlns="http://www.xrdml.com/XRDMeasurement/2.3" xmlns:xsi="http://www.w3.org/2001/XMLSchema-instance" xsi:schemaLocation="http://www.xrdml.com/XRDMeasurement/2.3 http://www.xrdml.com/XRDMeasurement/2.3/XRDMeasurement.xsd" status="Completed" recordIdentifier="{3EC1C896-A9C6-4199-ABF2-3E3E00DE84D7}">
	<comment>
		<entry/>
	</comment>
	<sample type="To be analyzed">
		<id>GPSS_Li1p8Fe0p8Cr0p2Cl4_111225_691549b847a6a0fd7c6580bd</id>
		<name></name>
		<preparedBy></preparedBy>
	</sample>
	<xrdMeasurement measurementType="Scan" status="Completed" sampleMode="Reflection">
		<usedWavelength intended="K-Alpha 1">
			<kAlpha1 unit="Angstrom">1.5405980</kAlpha1>
			<kAlpha2 unit="Angstrom">1.5444260</kAlpha2>
			<kBeta unit="Angstrom">1.3922500</kBeta>
			<ratioKAlpha2KAlpha1>0.5000</ratioKAlpha2KAlpha1>
		</usedWavelength>
		<incidentBeamPath>
			<radius unit="mm">145.00</radius>
			<xRayTube id="1010048" name="Empyrean Cu LFF HR (9430 033 7310x)">
				<tension unit="kV">40.0</tension>
				<current unit="mA">15.0</current>
				<anodeMaterial>Cu</anodeMaterial>
				<focus type="Line">
					<length unit="mm">12.0</length>
					<width unit="mm">0.4</width>
					<takeOffAngle unit="deg">6.0</takeOffAngle>
				</focus>
			</xRayTube>
			<sollerSlit id="21010002" name="Soller slits 0.04 rad.">
				<opening unit="rad">0.0400</opening>
			</sollerSlit>
			<mask id="22031000" name="Fixed mask 13 mm">
				<width unit="mm">9.00</width>
			</mask>
			<divergenceSlit id="22120001" name="Divergence slit 1°" xsi:type="fixedDivergenceSlitType">
				<distanceToSample unit="mm">50.00</distanceToSample>
				<height unit="mm">1.52</height>
			</divergenceSlit>
		</incidentBeamPath>
		<sampleMovement xsi:type="spinningSampleMovementType">
			<spinnerRevolutionTime unit="seconds">1.0</spinnerRevolutionTime>
		</sampleMovement>
		<diffractedBeamPath>
			<radius unit="mm">145.00</radius>
			<antiScatterSlit id="22090040" name="AS slit 9 mm (PIXcel)" xsi:type="fixedAntiScatterSlitType">
				<height unit="mm">9.00</height>
			</antiScatterSlit>
			<sollerSlit id="21020003" name="Large Soller slits 0.04 rad.">
				<opening unit="rad">0.0400</opening>
			</sollerSlit>
			<filter id="20030001" name="Large beta-filter Nickel">
				<material>Ni</material>
				<thickness unit="mm">0.020</thickness>
			</filter>
			<detector id="7010019" name="PIXcel1D-Medipix3 detector" xsi:type="rtmsDetectorType">
				<phd unit="keV">
					<lowerLevel>4.02</lowerLevel>
					<upperLevel>11.27</upperLevel>
				</phd>
				<mode>Scanning</mode>
				<activeLength unit="deg">5.542</activeLength>
			</detector>
		</diffractedBeamPath>
		<scan appendNumber="0" mode="Continuous" scanAxis="Gonio" status="Completed">
			<header>
				<startTimeStamp>2025-11-14T11:44:22-08:00</startTimeStamp>
				<endTimeStamp>2025-11-14T11:52:29-08:00</endTimeStamp>
				<author>
					<name>AutomatedUser</name>
				</author>
				<source>
					<applicationSoftware version="1.7b (136)">PANalytical Aeris Instrument Suite</applicationSoftware>
					<instrumentControlSoftware version="3.2.00000000 20240306">AERIS</instrumentControlSoftware>
					<instrumentID>950485</instrumentID>
				</source>
			</header>
			<dataPoints>
				<positions axis="2Theta" unit="deg">
					<startPosition>10.00943322</startPosition>
					<endPosition>99.99442286</endPosition>
				</positions>
				<positions axis="Omega" unit="deg">
					<startPosition>5.00471661</startPosition>
					<endPosition>49.99721143</endPosition>
				</positions>
				<commonCountingTime unit="seconds">12.495</commonCountingTime>
				<counts unit="counts">3406 3437 3361 3493 3480 3423 3532 3528 3451 3371 3519 3581 3573 3392 3532 3481 3461 3522 3521 3455 3434 3514 3452 3335 3559 3476 3453 3542 3490 3453 3473 3507 3481 3460 3584 3367 3532 3557 3355 3444 3466 3618 3473 3540 3617 3543 3506 3588 3557 3579 3503 3616 3659 3603 3500 3642 3578 3548 3618 3622 3699 3586 3635 3574 3588 3590 3649 3722 3742 3678 3693 3856 3621 3694 3628 3679 3714 3618 3700 3793 3757 3812 3762 3869 3793 3941 3829 3803 3750 3805 3900 3857 3782 3886 3901 3753 3702 3742 3757 3820 3827 3784 3771 3760 3804 3747 3857 3784 3719 3720 3785 3639 3729 3752 3673 3651 3812 3748 3675 3780 3729 3642 3679 3615 3807 3667 3770 3767 3873 3680 3862 3583 3590 3770 3726 3731 3783 3745 3671 3746 3748 3611 3825 3760 3780 3692 3680 3649 3657 3750 3658 3751 3699 3743 3827 3768 3770 3732 3727 3764 3914 3728 3757 3865 3692 3837 3859 3721 3745 3774 3763 3660 3933 3783 3754 3754 3754 3767 3794 3671 3734 3684 3772 3804 3809 3769 3837 3847 3744 3653 3821 3725 3858 3811 3845 3750 3796 3749 3711 3787 3683 3797 3746 3674 3798 3808 3854 3792 3736 3625 3707 3736 3808 3726 3764 3650 3790 3776 3713 3833 3737 3682 3761 3653 3744 3710 3793 3710 3704 3660 3700 3639 3666 3764 3735 3807 3686 3641 3802 3799 3659 3745 3640 3776 3756 3765 3759 3691 3740 3703 3758 3707 3701 3751 3742 3764 3715 3860 3694 3694 3781 3705 3763 3801 3805 3660 3743 3788 3722 3684 3747 3666 3719 3796 3681 3700 3736 3808 3727 3738 3743 3706 3762 3778 3702 3756 3855 3838 3714 3624 3784 3777 3834 3760 3648 3710 3832 3857 3846 3885 3746 3788 3742 3837 3865 3900 3886 3754 3824 3820 3913 3861 3915 3949 3933 3805 3801 3936 3910 3866 3831 3956 3795 3838 3955 3969 3959 4049 3849 3963 3985 4052 3983 3893 3901 3920 3935 4014 3958 4077 3947 4004 4037 4012 4067 4032 4031 4057 4007 4090 4095 4076 4087 3988 4131 4094 4005 4075 4016 4273 4135 4112 4117 4307 4182 4142 4141 4176 4209 4193 4143 4147 4099 4210 4420 4186 4145 4258 4202 4191 4197 4193 4268 4154 4342 4233 4291 4219 4196 4243 4315 4355 4317 4324 4280 4189 4372 4493 4318 4232 4379 4514 4424 4447 4463 4452 4362 4381 4356 4313 4437 4407 4581 4501 4500 4664 4556 4783 4704 4822 4819 4801 4783 4918 5076 4944 5191 5270 5411 5484 5537 5499 5684 5906 5901 6150 6435 6290 6249 6369 6518 6466 6665 6521 6767 6722 6396 6463 6344 6221 6180 5947 5816 5637 5564 5504 5306 5214 5143 5124 5126 5003 4934 4825 4936 4883 4882 4950 5047 4972 4866 5175 5331 5226 5367 5433 5464 5650 5562 5935 5709 5811 5915 5880 5797 5904 6003 5877 5842 5991 5667 5612 5401 5314 5079 4953 4809 4617 4479 4444 4473 4362 4260 4227 4205 4251 4089 4226 4059 4258 4110 4120 4154 4116 4155 4162 4057 4045 4000 4078 4031 4091 4103 4103 4019 4094 3939 4135 4049 4039 4101 4040 3992 4038 4082 4220 4136 4061 4163 4133 4127 4083 4143 4145 4017 4040 3989 3995 4048 4031 3950 4163 4022 4039 4107 4137 4078 4027 3973 4014 4129 4120 4032 3967 3960 3907 3956 4122 3996 4061 3932 3936 3910 3888 3811 3968 3973 3880 3845 3906 3903 3919 3850 3857 3856 3836 3958 3834 3955 3784 3840 3808 3775 3754 3655 3788 3756 3883 3909 3691 3728 3778 3796 3750 3622 3937 3747 3880 3802 3900 3839 3874 3775 3818 3887 3756 3747 3807 3748 3772 3799 3737 3902 3649 3812 3848 3845 3826 3863 3762 3816 3715 3762 3767 3771 3729 3657 3800 3850 3787 3789 3911 3849 3796 3790 3829 3859 3790 3915 3846 3850 3903 3875 3940 3953 3932 4047 3995 3930 4000 3925 4010 4010 3985 3900 3842 4010 4054 3970 3844 3902 3983 3905 3897 3805 3706 3835 3796 3893 3814 3741 3734 3735 3818 3687 3758 3702 3700 3818 3755 3702 3727 3733 3701 3620 3788 3734 3724 3713 3758 3729 3587 3808 3799 3836 3664 3779 3659 3642 3675 3830 3594 3739 3704 3531 3838 3673 3769 3745 3766 3717 3704 3720 3603 3731 3658 3589 3666 3721 3659 3711 3703 3732 3670 3740 3557 3646 3631 3788 3586 3678 3653 3679 3618 3632 3685 3593 3664 3696 3699 3631 3704 3762 3693 3681 3614 3704 3637 3630 3659 3615 3598 3755 3657 3629 3682 3631 3692 3564 3620 3839 3706 3656 3602 3762 3730 3656 3643 3603 3656 3680 3694 3648 3635 3603 3656 3663 3683 3601 3648 3662 3679 3617 3615 3646 3483 3711 3612 3598 3710 3600 3665 3653 3631 3630 3618 3608 3685 3679 3709 3543 3572 3577 3493 3644 3531 3524 3538 3626 3654 3590 3601 3529 3575 3594 3592 3657 3563 3575 3753 3596 3609 3586 3557 3451 3673 3604 3608 3436 3591 3634 3564 3618 3529 3621 3484 3561 3550 3536 3490 3571 3567 3662 3480 3401 3577 3576 3551 3535 3513 3540 3602 3532 3590 3545 3547 3417 3576 3562 3418 3533 3652 3580 3584 3651 3478 3509 3425 3501 3472 3524 3536 3484 3550 3536 3438 3410 3445 3540 3577 3491 3436 3553 3488 3457 3525 3560 3448 3622 3482 3520 3471 3426 3516 3657 3410 3535 3561 3510 3446 3545 3486 3516 3472 3438 3455 3459 3457 3595 3518 3539 3567 3348 3440 3418 3448 3535 3431 3580 3498 3489 3452 3566 3448 3404 3498 3458 3443 3447 3470 3495 3425 3380 3474 3418 3568 3515 3505 3421 3342 3461 3456 3552 3386 3333 3323 3466 3459 3395 3452 3424 3408 3507 3406 3454 3418 3436 3312 3490 3317 3523 3565 3373 3423 3533 3414 3442 3497 3395 3373 3421 3466 3584 3417 3475 3497 3516 3525 3441 3580 3498 3427 3537 3428 3463 3466 3527 3604 3490 3441 3436 3532 3407 3505 3398 3475 3449 3474 3447 3444 3495 3425 3445 3603 3542 3562 3368 3528 3519 3488 3396 3484 3407 3492 3500 3532 3553 3540 3453 3444 3425 3414 3407 3548 3429 3478 3469 3480 3572 3449 3506 3357 3547 3504 3428 3539 3430 3474 3414 3453 3481 3502 3439 3531 3532 3431 3499 3581 3417 3505 3524 3465 3500 3586 3424 3540 3533 3552 3536 3516 3475 3521 3468 3452 3458 3584 3523 3521 3503 3395 3429 3481 3453 3505 3489 3574 3413 3428 3476 3534 3426 3435 3493 3550 3387 3446 3452 3442 3457 3533 3480 3457 3561 3500 3492 3552 3415 3426 3485 3502 3442 3388 3508 3417 3378 3534 3501 3413 3425 3556 3442 3418 3336 3477 3446 3420 3488 3435 3408 3355 3343 3431 3336 3445 3399 3371 3407 3409 3383 3421 3345 3388 3412 3315 3473 3325 3314 3276 3320 3322 3411 3392 3380 3254 3336 3330 3338 3307 3311 3313 3337 3337 3280 3283 3283 3290 3276 3277 3426 3349 3254 3198 3296 3290 3247 3251 3242 3231 3230 3156 3222 3143 3299 3246 3320 3269 3204 3321 3141 3205 3160 3189 3232 3255 3233 3249 3118 3157 3165 3219 3143 3189 3119 3098 3231 3231 3141 3214 3050 3057 3161 3052 3088 3112 3101 3083 3027 3082 3152 3108 3134 3178 3068 3106 3046 3114 3112 3019 3129 3044 3052 3048 3020 3020 3063 3109 3043 3001 2950 2951 3035 3041 3013 2974 3038 3042 3096 2994 2976 2998 3029 3098 2960 2931 3033 3008 2958 3002 3074 2962 2941 2973 3030 2966 2996 2967 2991 2977 3116 2992 3000 2997 2911 2914 2977 2856 2943 2957 2896 2908 2912 2949 3016 2966 2964 2934 2830 2966 2942 2889 2925 2986 2867 2933 2986 2919 2993 2959 2974 2852 3014 2930 2895 2965 3008 2862 2955 3069 3037 3054 3016 2942 3011 3074 3010 3085 3165 2961 3065 3110 3050 3114 3139 3050 3092 3100 3086 3159 3127 3178 3088 3109 3090 3080 3006 3033 2992 2966 3065 3009 3042 2958 2913 2915 2880 2839 2914 2867 2905 3006 2874 2890 2916 2897 2948 2907 2961 2906 2843 2782 2952 2984 2884 2887 2876 2952 2859 2878 2813 2937 2822 2911 2819 2975 2953 2928 2806 2883 2837 2949 2822 2886 2862 2805 2843 2836 2820 2857 2844 2999 2822 2811 2837 2852 2769 2789 2936 2848 2871 2953 2819 2906 2844 2992 2791 2829 2902 2907 2888 2860 2834 2879 2797 2976 2780 2822 2886 2926 2879 2868 2971 2851 2908 2887 2856 2936 2950 2849 2917 2862 2927 2883 2830 2899 2949 2828 2949 2936 2915 2972 2848 2785 2869 2922 2911 2986 2947 2949 3002 2931 2827 2855 2949 2901 2946 2868 2990 2849 2891 2912 2998 2831 2802 2935 2940 2813 2851 2988 2897 2856 2879 2873 2941 2939 2839 2848 2948 2906 2903 2792 2854 2975 2850 3023 2881 2908 2960 3001 2876 2929 2875 2898 2961 2862 2910 2927 2971 2845 2898 2755 2912 2797 2753 2834 2947 2709 2820 2804 2852 2872 2828 2889 2880 2722 2843 2873 2892 2817 2828 2898 2828 2913 2834 2862 2741 2880 2833 2778 2897 2934 2850 2763 2871 2840 2743 2847 2907 2781 2784 2849 2801 2780 2927 2659 2814 2711 2811 2731 2825 2860 2854 2760 2796 2819 2763 2753 2765 2750 2798 2851 2733 2722 2781 2778 2749 2815 2709 2755 2722 2681 2757 2699 2787 2728 2747 2708 2779 2737 2828 2708 2783 2710 2737 2758 2682 2775 2645 2747 2791 2764 2748 2655 2683 2650 2669 2722 2660 2594 2686 2694 2688 2588 2662 2676 2743 2650 2628 2651 2666 2584 2717 2649 2665 2621 2579 2644 2612 2530 2664 2691 2608 2532 2591 2597 2646 2515 2599 2568 2516 2800 2676 2629 2608 2546 2595 2645 2504 2560 2665 2630 2578 2636 2586 2565 2557 2574 2558 2622 2545 2669 2561 2711 2578 2578 2641 2579 2520 2578 2591 2540 2616 2528 2610 2583 2622 2561 2605 2604 2553 2565 2655 2486 2553 2604 2520 2612 2595 2580 2630 2532 2544 2662 2595 2581 2636 2702 2796 2780 2847 2905 2988 2977 3107 3073 3215 3200 3192 3419 3383 3536 3532 3758 3789 3792 3919 3755 3800 3744 3868 3717 3632 3710 3637 3507 3493 3392 3253 3318 3205 3194 3134 3227 3046 3062 3016 2942 2904 2994 2889 2893 2869 2842 2871 2808 2689 2765 2623 2738 2556 2681 2542 2550 2594 2548 2577 2543 2596 2680 2517 2644 2533 2505 2553 2544 2533 2642 2511 2519 2527 2552 2562 2482 2485 2482 2453 2468 2524 2456 2492 2536 2483 2553 2488 2496 2466 2467 2473 2448 2396 2505 2479 2459 2436 2494 2414 2550 2515 2551 2419 2461 2465 2429 2419 2567 2445 2472 2532 2604 2555 2605 2649 2554 2705 2642 2687 2822 2819 2933 2982 3082 3092 3371 3372 3537 3653 3814 4095 4243 4405 4495 4717 4710 4785 5045 4988 5038 5023 4930 4841 4741 4674 4634 4606 4464 4396 4235 4268 4239 4170 4075 3997 4072 4024 4085 3908 3999 4006 3897 3786 3809 3628 3539 3450 3368 3314 3258 3035 2885 2904 2789 2800 2829 2624 2588 2512 2553 2474 2526 2443 2417 2389 2452 2398 2508 2501 2390 2508 2421 2486 2357 2400 2485 2326 2437 2288 2351 2427 2336 2224 2355 2359 2442 2403 2317 2382 2376 2532 2424 2331 2345 2433 2373 2448 2462 2614 2533 2509 2640 2637 2669 2628 2765 2677 2671 2762 2758 2829 2801 2853 2776 2678 2676 2594 2724 2542 2645 2543 2531 2418 2450 2442 2307 2341 2355 2312 2258 2318 2332 2387 2322 2254 2338 2315 2341 2217 2258 2339 2283 2237 2451 2399 2226 2275 2354 2261 2264 2307 2384 2335 2300 2333 2231 2223 2281 2317 2212 2397 2227 2449 2262 2249 2277 2209 2241 2192 2214 2177 2212 2333 2234 2186 2393 2338 2214 2232 2280 2240 2352 2316 2295 2239 2293 2232 2230 2228 2282 2344 2252 2309 2258 2293 2198 2248 2281 2303 2246 2240 2225 2267 2327 2283 2278 2165 2209 2300 2256 2165 2189 2258 2299 2253 2249 2196 2272 2260 2303 2317 2223 2322 2239 2248 2272 2323 2281 2171 2252 2179 2243 2208 2164 2236 2239 2258 2154 2237 2383 2187 2247 2236 2251 2233 2295 2234 2297 2179 2201 2186 2247 2231 2240 2249 2249 2256 2138 2264 2279 2284 2261 2214 2240 2341 2194 2247 2172 2244 2158 2306 2253 2164 2279 2157 2326 2300 2216 2255 2282 2260 2231 2249 2272 2221 2228 2390 2249 2217 2265 2256 2193 2262 2257 2288 2273 2216 2250 2250 2253 2355 2289 2202 2241 2227 2201 2207 2231 2318 2234 2264 2189 2212 2212 2267 2302 2291 2278 2211 2265 2235 2226 2262 2183 2186 2253 2203 2314 2197 2299 2308 2328 2287 2186 2276 2253 2236 2189 2285 2267 2243 2289 2161 2217 2246 2188 2280 2303 2349 2277 2195 2258 2328 2252 2250 2274 2248 2333 2373 2357 2178 2244 2212 2234 2271 2247 2252 2260 2267 2284 2322 2310 2357 2201 2278 2312 2329 2304 2227 2238 2252 2295 2253 2224 2293 2254 2299 2273 2317 2271 2237 2384 2256 2301 2286 2341 2376 2383 2371 2359 2320 2301 2356 2376 2406 2343 2286 2333 2364 2310 2345 2388 2430 2376 2529 2494 2490 2469 2463 2477 2533 2528 2554 2661 2574 2561 2678 2803 2839 2884 2948 3011 3111 3239 3489 3517 3741 3956 4200 4424 4745 5272 5701 6199 6657 7002 7724 8155 8780 9340 9891 10236 10730 11202 11445 11384 11592 11435 11267 10747 10527 10203 9708 9187 8925 8743 8182 8015 7675 7353 7154 7016 6896 6676 6678 6626 6765 6617 6578 6489 6515 6276 6290 6148 5949 5712 5578 5234 4950 4716 4550 4320 4115 3793 3717 3417 3329 3122 3023 2804 2876 2797 2793 2666 2637 2575 2573 2549 2591 2525 2529 2461 2398 2456 2476 2381 2603 2381 2440 2467 2443 2430 2450 2522 2369 2367 2322 2385 2370 2338 2352 2332 2274 2310 2230 2291 2323 2322 2432 2339 2353 2220 2335 2303 2339 2254 2235 2169 2217 2332 2210 2355 2330 2219 2253 2279 2262 2217 2207 2183 2256 2213 2229 2198 2289 2176 2214 2133 2289 2244 2309 2273 2297 2232 2167 2240 2145 2237 2220 2197 2318 2166 2248 2285 2177 2206 2249 2243 2186 2234 2257 2219 2197 2171 2273 2243 2295 2311 2231 2308 2181 2168 2210 2327 2207 2207 2166 2200 2203 2193 2265 2220 2247 2247 2245 2232 2379 2288 2185 2285 2252 2311 2249 2197 2243 2243 2268 2248 2252 2291 2309 2339 2258 2240 2308 2149 2227 2282 2294 2254 2186 2184 2233 2213 2178 2215 2192 2282 2204 2218 2188 2192 2184 2176 2176 2313 2137 2172 2069 2117 2129 2185 2188 2212 2108 2101 2082 2218 2114 2078 2075 2160 2110 2155 2132 2124 2123 2102 2163 2204 2172 2111 2215 2136 2086 2094 2127 2125 2084 2063 2122 2089 2066 2128 2149 2179 2073 2150 2104 2164 2011 2062 2098 2121 2215 2098 2188 2135 2194 2059 2158 2139 2111 2142 2081 2100 2115 2103 2170 2077 2143 2108 2127 2122 2060 2126 2155 2081 2125 2075 2039 2077 2088 2043 2041 2073 2135 2166 2138 2130 2164 2132 2305 2188 2200 2249 2186 2245 2241 2220 2189 2195 2217 2283 2204 2278 2105 2206 2210 2178 2126 2059 2185 2125 2166 2160 2170 2203 2159 2096 2160 2139 2136 2093 2182 2124 2225 2177 2153 2204 2098 2180 2139 2215 2176 2185 2157 2168 2116 2139 2067 1991 2101 2117 2032 2147 2146 2047 2001 2110 2067 2031 2104 2124 2046 2050 2034 2047 2061 2116 2101 1984 2053 2137 2007 2057 2120 2032 2153 2069 2101 2033 2103 2159 2082 2101 2001 2040 2056 2063 2032 2110 2034 2123 2152 2036 2061 2045 2107 2054 2039 2036 2066 2039 2026 2011 2090 2045 2139 1978 2101 2113 2094 2075 2042 2131 2164 2064 2081 2192 2220 2033 2087 2154 2194 2156 2103 2193 2207 2163 2125 2154 2183 2181 2223 2166 2228 2192 2137 2161 2117 2116 2022 2015 2114 2190 2086 2084 2157 2158 2075 2062 2110 2006 2081 2069 2083 1913 1961 1946 2012 2131 2002 2071 2023 1973 2090 2087 2058 2115 2008 2081 1995 2080 2068 1993 1998 1959 2043 2050 2070 2010 1930 2095 2051 2128 2038 2024 1993 1983 2028 2043 2012 1988 2092 2056 2076 1979 2059 2004 2001 2018 2038 2087 2070 2039 1997 2114 1981 1992 2048 1979 2058 2026 1972 2000 2099 2092 2121 1962 2040 2050 2065 2143 2085 2100 2033 2030 2017 2056 1977 2021 1996 2026 2050 2051 2069 2054 1978 2114 2038 2004 2076 2093 1987 2006 2025 1996 2067 2028 2014 2017 1983 2000 2078 2011 2053 2086 2065 2072 1934 1998 2039 2018 1971 1996 2029 2033 2025 2109 1968 2043 2002 1986 1978 1990 2035 2024 2019 1966 1946 1923 2031 2028 1946 2004 2024 1990 1967 1971 2015 1967 2022 2037 2046 1994 2061 2025 2031 1996 2017 2095 1990 2048 1931 2064 1987 2045 1981 2059 2012 2050 2024 1998 2088 2039 2071 2043 2089 1964 2037 2014 2078 2023 2017 2107 2017 2088 2055 2039 2088 1963 1985 1961 1982 2014 2015 2076 2059 2032 2033 2015 2018 1993 2005 2045 2069 1979 2015 2066 2018 2028 1960 2016 2046 2070 2003 2047 2021 1998 1990 2013 2028 2007 1941 1951 1958 2032 2064 2012 1946 2079 2028 2035 1958 2033 2027 1951 2083 2069 2029 2043 1993 2063 1973 1995 1937 2054 1951 2019 1944 2091 1976 2081 1989 2013 2025 2055 2069 2026 2010 2011 2047 2051 1976 2063 1951 2059 2044 1960 1937 2068 1996 2045 1960 2060 2003 2005 1959 2003 2073 1968 2029 2023 1976 1981 2010 1971 2010 1966 2090 2048 1999 2019 1972 2029 2016 2029 2097 1997 2071 2035 2055 2034 1982 1930 1978 1990 2032 2164 1992 2017 2017 1961 2098 2067 1980 2005 1962 2041 1953 2004 2063 1934 2059 1998 1987 2091 1948 2001 2045 2033 2023 2085 2053 2037 2022 2006 2027 2104 2109 2007 2076 2070 2059 2018 1981 2142 1984 2127 2037 2040 2013 2038 2052 2038 2085 2030 2051 1998 1993 2076 2070 2045 2044 1950 2127 1996 2060 2008 2044 2000 1992 1952 2008 1992 2004 2083 1996 2013 2046 1985 1995 2009 2087 2025 1929 2086 2020 1955 2034 2024 1982 1984 1986 2042 2035 2018 2021 2013 1979 1976 1976 1955 2048 1953 1990 1968 2071 2007 1986 1982 1974 1929 2017 2000 2006 2049 1936 2025 2004 2009 1981 1987 1977 2070 1938 1939 2119 1979 1977 1940 1982 1976 2050 2073 1944 2007 1986 2014 2042 1996 2014 2014 2046 2041 2020 1988 2009 1984 1994 1988 2055 1977 2072 2023 1974 2021 1988 1997 1988 1973 2032 1994 2015 2016 1996 2000 2028 2046 1975 2064 2001 2090 2015 1920 2065 2025 2036 1994 1955 2001 1972 2046 2012 1973 1991 1967 1935 2030 1969 2071 2034 1949 2072 2032 2070 2106 1959 2001 2014 1959 1993 2003 2022 1997 1974 1960 1935 2005 1990 2002 1951 2008 1973 2065 1950 2050 2038 1962 2037 1969 2061 1995 1918 1977 2009 2035 2063 1970 2033 2025 2026 1985 2021 2001 1959 2059 2064 1951 2073 2033 1986 1939 2052 2092 2070 2060 2040 2108 2039 2112 2044 2134 2147 2228 2152 2301 2348 2334 2481 2510 2397 2601 2524 2664 2722 2735 2738 2772 2873 2867 2814 2869 2765 2763 2767 2805 2687 2765 2653 2662 2595 2576 2676 2510 2589 2449 2455 2430 2369 2329 2274 2304 2284 2244 2309 2352 2348 2388 2345 2329 2393 2210 2284 2167 2315 2267 2313 2214 2231 2218 2141 2154 2196 2122 2075 2168 2136 2182 2057 2098 2040 2115 2117 2077 1949 2034 2071 2001 2018 1985 1990 2043 2015 2090 1930 1969 2014 2040 2029 2002 2012 1995 1963 1962 2027 1942 1940 1982 1985 1930 2029 1946 2035 1909 1947 1953 1976 2031 1980 2088 2075 1993 2094 1899 1899 1951 1964 2050 2035 2021 1975 2001 2009 1987 1949 2045 2009 1954 1918 1989 2048 1994 1929 2014 1872 2018 1992 1932 1821 1968 1992 2005 2046 2018 1992 1949 1953 1981 1922 1978 1998 1929 1977 1968 1913 2077 1983 2003 2005 1972 1971 2037 1917 2055 2073 1961 1923 2006 2055 1902 1957 1963 1940 2011 1998 1999 2036 1936 1966 2025 1992 2049 1925 1982 1932 1958 1999 1972 1994 1947 2021 2015 1985 2034 1934 1933 1927 1960 2009 1978 2026 2037 2038 1951 1934 2041 1989 2007 2050 2035 1971 1970 1957 1980 1961 2004 1921 2025 2044 1954 2037 2058 1942 2016 2001 2010 2018 2047 1974 1975 1923 2083 1972 1992 1883 1980 2022 2007 2014 2073 1974 1979 1950 2037 2033 1981 2056 2049 1978 1907 1934 1943 1994 1946 1960 1987 1992 1930 2005 2036 1946 1955 1954 1992 1961 1966 1999 1986 2048 2011 2037 2007 1948 1954 2010 1968 2064 1916 2037 1989 1962 2003 1990 2013 1951 2002 2034 2006 1980 1881 1926 2070 1970 2001 1986 1975 1975 1911 1967 1984 1925 2068 2010 1951 1974 1990 2021 1983 1940 1933 1940 2047 2017 2019 2063 1995 2001 1972 1969 2017 2016 1963 1929 1999 1934 1931 1987 2023 1989 1962 2019 1937 2037 2053 2048 1970 2001 2005 2092 2010 2030 1994 1928 2001 2027 1991 2018 1917 1931 1987 1958 2086 2005 2001 1993 1972 2017 1995 2038 1999 1997 2037 2056 1992 2010 1988 1987 2083 2007 2066 2122 2034 2043 2108 2013 2042 2156 2121 2050 2116 2094 2108 2204 2153 2038 2187 2204 2249 2293 2286 2203 2339 2437 2350 2544 2629 2570 2711 2859 2912 3177 3465 3606 3791 4004 4309 4711 4958 5157 5280 5460 5620 5606 5943 5928 5875 5824 5595 5678 5469 5386 5293 5002 4886 4905 4753 4744 4452 4366 4055 3926 3804 3611 3549 3469 3475 3415 3302 3267 3207 3213 3260 3181 3412 3346 3393 3417 3384 3496 3463 3482 3440 3358 3380 3214 3344 3240 3123 3066 3006 3011 2853 2789 2802 2625 2746 2663 2569 2538 2460 2466 2394 2284 2273 2305 2263 2182 2248 2121 2205 2165 2089 2139 2185 2069 2105 2140 2071 2101 2084 2116 2138 2040 2093 2107 2106 2128 2071 2067 2089 2104 2124 2163 2079 2172 2145 2126 2058 2067 2040 2091 2084 2067 2072 2039 2092 2045 2032 2072 2064 2113 2049 2088 1996 2008 2002 2007 1957 2017 2020 2059 1990 1998 2007 1999 2010 2051 1991 1981 1908 1974 1970 2020 2024 2026 1963 1943 2018 1943 2114 1971 2010 1942 1966 1985 2006 1996 1952 2045 1994 1920 1863 2011 1939 1984 1954 1933 1913 1984 1966 1985 1979 1961 2074 2018 2056 1969 2051 1989 2022 1971 1947 1940 1981 1945 1989 1944 2021 2025 1959 1965 2017 1970 1908 1972 1972 1971 1980 1947 2012 1995 1985 2007 1964 1966 2003 2009 2002 1961 1981 2011 1988 1938 2030 2031 2030 2000 1980 2100 2093 1983 2131 2148 2157 2079 2096 2175 2261 2211 2317 2197 2406 2368 2453 2364 2475 2392 2603 2440 2420 2409 2478 2336 2341 2352 2388 2365 2385 2299 2304 2334 2286 2316 2223 2195 2234 2200 2199 2224 2125 2158 2197 2129 2073 2127 2114 2081 2092 2157 2090 2156 2090 2166 2154 2040 2088 2130 2050 2147 2117 2104 2176 2120 2127 2121 2042 2048 2061 2123 2058 1982 2119 1982 1984 2079 1937 1972 1997 2015 2050 2013 1956 1941 2012 2040 1961 2028 1963 1951 1898 1933 2046 2015 2000 1931 1990 2049 2000 2035 2005 1987 1996 2014 1977 2054 1948 2019 2019 2032 2029 2055 1997 2093 2170 2033 2035 2065 2123 2100 2135 2086 1984 2042 2034 2046 2051 2054 2059 2023 2020 2030 2100 2040 2080 2019 1935 2007 2037 1955 1942 2001 1880 1990 2005 1949 1945 1926 1963 1945 1879 1943 1893 1942 1932 1993 1900 1907 1891 1869 2007 1966 1925 1853 1936 1966 1963 1885 1956 1935 1985 1941 1849 1850 1943 1917 1880 1887 1926 1915 1891 1832 1915 1884 1948 1922 1949 1880 1975 1947 1975 1981 1919 1998 1910 1950 1834 1943 1874 1943 1978 1905 1892 1905 1957 1912 1920 1911 1909 1852 1950 2015 1930 1921 1962 1852 1944 1940 1982 1925 1865 1878 1876 1921 1923 1890 1925 1915 1934 1916 1933 1925 1952 1924 1926 1977 1885 1881 1847 1895 1920 1949 1843 1922 1903 1893 1878 1810 1908 1960 1909 1914 1850 1859 1920 1881 1971 1927 1909 1897 1879 1939 1894 1969 1916 1888 1935 1903 1986 1838 1953 1941 1827 1973 1922 1888 1895 1874 1932 2000 1899 1853 1907 1903 1896 1849 1943 1919 1966 1833 1908 1923 1884 1876 1907 1861 1937 1982 1924 1907 1887 1922 1933 1876 1929 1946 1956 1921 1920 1898 1895 1949 1880 1957 1915 1889 1956 1906 1948 1893 1878 1790 1967 1892 1928 1957 1876 1896 1876 1946 1808 1891 1804 1913 2029 1893 1880 1887 1911 1894 1904 1962 1920 1866 1929 1876 1974 1906 1859 1890 1973 1964 1964 1838 1938 1899 1875 1891 1967 1845 1930 1927 1956 1913 1914 1934 2052 1888 1933 1862 1920 1872 2035 1878 1839 1929 1855 1886 1981 1846 1915 1852 1836 1883 1822 1903 1833 1907 1821 1879 1872 1954 1883 1888 1860 1880 1888 1831 1933 1932 1971 1903 1919 1878 1909 1829 1901 1828 1946 1851 1914 1861 1862 1952 1816 1923 1922 1874 1919 1960 1864 1893 1882 1996 1910 1992 1867 1877 1878 1900 1938 1857 1977 1918 1896 1906 1896 1857 1894 1967 1843 1872 1946 1855 1945 1853 1876 1916 1907 1903 1907 1873 1945 1896 1900 1964 1864 1890 1917 1868 1900 1872 1883 1903 1938 1841 1876 1874 1944 1851 1897 1851 1915 1794 1903 1779 1888 1895 1888 1935 1836 1887 1897 1917 1895 1857 1827 1846 1967 1907 1908 1876 1925 1876 1902 1890 1874 1855 1885 1849 1923 1948 1850 1952 1909 1857 1930 1881 1870 1860 1842 1922 1888 1916 1898 1867 1879 1875 1893 1864 1890 1970 1873 1834 1886 1860 1854 1836 1842 1930 1899 1784 1808 1931 1828 1944 1962 1794 1908 1831 1895 1897 1867 1923 1901 1884 1895 1917 1862 1900 1895 1844 1834 1816 1959 1846 1821 1877 1888 1912 1882 1852 1829 1857 1887 1873 1967 1878 1866 1963 1895 1866 1933 1874 1938 1971 1998 1971 1952 1972 1852 1959 1963 1958 2039 1926 1939 1994 1962 2059 2047 2000 2013 1946 1963 1873 1943 1937 1929 2026 1901 1922 1940 1981 1854 1900 1860 1862 1980 1878 1888 1932 1861 1957 1900 1918 1882 1919 1926 1946 1916 1899 1864 1938 1929 1935 1984 1948 1958 1938 1965 1932 2048 1959 1980 2040 1976 2020 2065 2041 2052 2057 2150 2121 2076 2155 2209 2169 2259 2263 2241 2269 2299 2331 2291 2218 2182 2278 2302 2315 2218 2202 2192 2199 2182 2205 2262 2210 2170 2165 2108 2149 2168 2094 2138 2101 2084 2093 2122 2109 2043 1986 2023 2057 2057 2034 2022 2046 2110 2091 2076 2194 2225 2133 2193 2142 2196 2231 2233 2177 2200 2165 2251 2252 2154 2194 2130 2212 2140 2002 2143 2052 2016 2129 2107 2016 2008 1954 2014 1960 1856 1964 1930 1964 2018 1981 1907 1943 1892 1770 2000 1870 1894 1867 1977 1887 1932 1939 1893 1862 1887 1892 1966 1893 1930 1945 1903 1902 1930 1842 1905 1866 1912 1957 1878 1869 1905 1849 1870 1838 1958 1915 1881 1855 1937 1960 1856 1945 1936 1912 1863 1910 1908 1914 1795 1810 1859 1923 1873 1873 1926 1852 1875 1868 1772 1940 1788 1864 1928 1906 1925 1852 1948 1872 1846 1904 1867 1825 1893 1891 1854 1921 1844 1832 1835 1880 1833 1824 1886 1840 1937 1886 1909 1852 1890 1841 1867 1831 1903 1881 1877 1997 1878 1843 1883 1951 1896 1940 1856 1884 1905 1889 1840 1914 1878 1912 1905 1882 1964 1993 1797 1866 1845 1876 1807 1846 1878 1829 1916 1888 1870 1878 1783 1872 1818 1847 1938 1888 1849 1795 1906 1880 1884 1889 1783 1945 1894 1941 1891 1968 1889 1894 1884 1955 1897 1932 1976 1818 1889 1967 1832 1879 1929 1930 1873 1900 1902 1869 1790 1971 1955 1957 1899 1957 1959 1917 1883 1939 1953 1975 1931 1952 2073 2026 2068 2097 2116 2209 2232 2211 2281 2180 2433 2555 2501 2690 2626 2753 2816 2771 2742 2870 2688 2719 2584 2654 2626 2634 2497 2521 2582 2581 2518 2481 2536 2518 2498 2370 2408 2279 2342 2405 2378 2242 2222 2197 2114 2137 2144 2172 2160 2169 2062 2104 2025 2187 2110 2145 2220 2038 2127 2210 2136 2209 2144 2248 2146 2218 2270 2161 2281 2232 2121 2149 2203 2180 2061 2157 2152 2075 2134 2162 2139 2071 2178 2091 1965 2011 2011 2000 1975 1982 2002 2114 1966 1958 1989 1930 1916 1970 1919 1952 2031 1873 1954 1914 1968 1936 1885 1860 1959 1930 1943 1865 1812 1905 1896 1920 1853 1942 1899 1905 1956 1917 1926 1920 1850 1903 1824 1932 1867 1940 1909 1887 1888 1817 1844 1904 1897 1949 1904 1952 1887 1879 1859 1972 1863 1903 1884 1937 1884 1878 1934 1875 1914 1876 1934 1838 1865 1874 1887 1891 1858 1871 1927 1895 1896 1921 1863 1857 1837 1923 1876 1843 1918 1942 1893 1929 1904 1922 1857 1845 1812 1877 2026 1989 1872 1917 1936 1909 1865 1932 1919 1883 1941 1950 1945 1943 1995 1854 1953 1973 1978 2018 2063 1972 1933 2029 2025 2060 2182 2135 2036 2036 2164 2177 2140 2175 2110 2124 2193 2188 2206 2208 2269 2223 2305 2252 2311 2353 2354 2324 2404 2318 2243 2213 2183 2058 2059 2187 2170 2134 2111 2082 2090 2062 2123 2036 2088 2066 2080 2091 2027 1922 1976 1925 1966 1938 1991 1935 2029 1950 1989 1929 1992 1924 1974 1957 1930 1828 2057 1988 1980 1957 1984 1841 1899 1922 1950 1929 1931 1901 1986 1987 1974 1906 1862 1968 1898 1815 1911 1953 2006 1908 1847 1930 1834 1870 1856 1880 1831 1880 1836 1857 1860 1945 1859 1873 1810 1846 1852 1816 1872 1857 1881 1796 1885 1871 1813 1832 1874 1932 1909 1938 1865 1811 1872 1896 1900 1821 1777 1861 1889 1848 1833 1790 1881 1906 1837 1880 1945 1873 1918 1826 1942 1815 1834 2032 1896 1811 1844 1791 1861 1841 1905 1862 1875 1790 1949 1887 1834 1881 1868 1845 1864 1868 1883 1842 1830 1822 1906 1902 1888 1941 1891 1814 1787 1833 1893 1895 1926 1883 1871 1856 1804 1928 1896 1884 1885 1860 1852 1871 1853 2003 1857 1831 1840 1820 1869 1854 1872 1814 1847 1891 1908 1905 1864 1761 1916 1805 1896 1807 1933 1821 1868 1855 1831 1836 1788 1885 1859 1826 1857 1906 1874 1889 1860 1837 1799 1826 1856 1907 1873 1909 1863 1759 1858 1799 1852 1812 1746 1822 1877 1836 1810 1841 1834 1851 1853 1832 1879 1853 1780 1898 1834 1842 1932 1888 1860 1815 1795 1889 1872 1825 1920 1919 1797 1916 1873 1825 1801 1841 1850 1857 1854 1906 1817 1929 1917 1845 1902 1882 1821 1806 1916 1894 1883 1885 1866 1803 1847 1836 1859 1892 1828 1848 1866 1841 1800 1860 1839 1800 1807 1835 1814 1809 1916 1824 1903 1888 1861 1845 1822 1883 1809 1839 1878 1871 1799 1806 1832 1866 1914 1874 1867 1794 1885 1796 1869 1831 1833 1848 1799 1875 1844 1889 1751 1850 1816 1950 1726 1752 1926 1804 1828 1858 1863 1721 1800 1808 1816 1839 1862 1871 1944 1835 1876 1778 1847 1928 1794 1824 1870 1840 1825 1835 1751 1822 1880 1801 1845 1828 1897 1895 1858 1893 1874 1833 1904 1862 1845 1855 1859 1854 1904 1815 1820 1824 1817 1851 1821 1842 1848 1816 1786 1826 1852 1829 1865 1833 1887 1820 1874 1809 1856 1851 1914 1867 1889 1914 1828 1914 1828 1844 1879 1801 1867 1867 1769 1809 1868 1825 1817 1807 1794 1866 1795 1869 1883 1809 1863 1813 1761 1961 1839 1785 1845 1788 1857 1813 1835 1809 1765 1888 1755 1831 1811 1791 1852 1834 1884 1859 1943 1910 1798 1846 1820 1832 1697 1842 1844 1774 1867 1914 1851 1869 1894 1875 1798 1907 1839 1799 1912 1830 1891 1842 1859 1842 1869 1750 1818 1811 1849 1853 1838 1822 1873 1811 1807 1839 1780 1826 1856 1886 1843 1846 1823 1858 1874 1835 1881 1910 1810 1898 1882 1819 1953 1808 1823 1870 1891 1915 1801 1860 1888 1923 1901 1998 1936 1994 2037 1986 1919 1994 1927 2026 1969 1884 1908 1997 1904 1918 1896 1928 1993 1907 1966 1922 1910 1902 1889 1893 1873 1953 1895 1922 1869 1912 1912 1852 1900 1894 1917 1804 1843 1859 1853 1873 1856 1837 1940 1801 1827 1819 1779 1870 1844 1790 1897 1803 1886 1848 1845 1895 1888 1864 1849 1909 1875 1900 1875 1846 1908 1870 1930 1931 1861 1894 1798 1819 1881 1861 1834 1875 1863 1856 1845 1917 1767 1912 1844 1862 1780 1791 1822 1841 1879 1867 1873 1801 1859 1848 1815 1800 1814 1838 1779 1819 1754 1845 1765 1784 1928 1854 1861 1825 1888 1881 1787 1837 1846 1782 1817 1865 1858 1836 1807 1768 1841 1850 1785 1879 1830 1830 1817 1751 1827 1818 1854 1886 1792 1775 1846 1736 1912 1779 1891 1800 1887 1840 1774 1845 1895 1810 1800 1767 1863 1811 1754 1830 1829 1831 1806 1876 1804 1844 1815 1844 1807 1842 1766 1877 1802 1865 1799 1827 1855 1824 1832 1863 1843 1835 1847 1766 1883 1779 1847 1869 1781 1833 1820 1806 1865 1855 1843 1810 1828 1797 1841 1794 1877 1824 1808 1803 1758 1793 1770 1769 1803 1773 1758 1837 1887 1812 1773 1809 1782 1768 1755 1794 1780 1838 1907 1839 1887 1750 1801 1900 1824 1886 1869 1807 1863 1847 1841 1821 1816 1840 1821 1842 1832 1836 1839 1845 1823 1907 1860 1800 1871 1802 1884 1851 1873 1852 1803 1738 1885 1880 1791 1915 1801 1814 1851 1833 1832 1861 1855 1811 1824 1837 1776 1888 1812 1880 1865 1879 1813 1749 1784 1888 1837 1765 1760 1876 1924 1796 1885 1845 1914 1900 1890 1879 1972 1855 1900 1843 1863 1909 1915 1833 1909 1861 1937 1920 2003 1924 1987 2067 2023 2099 1971 2145 2110 2082 2124 2089 2204 2104 2214 2244 2192 2221 2169 2108 2152 2185 2128 2163 2147 2137 2111 2137 2161 2136 2076 2140 2100 2119 2079 2101 2064 2118 2120 2051 2103 2065 2022 2027 1970 2000 1972 1940 1948 1992 1976 1988 1986 1949 1986 1911 1986 1932 2026 1953 1946 1986 1867 1917 1979 1955 1913 1964 1968 2027 1994 2024 1950 1933 2058 1954 1977 1927 1964 1999 1967 2057 1947 1911 1957 2024 1872 1930 1945 1866 1945 1937 1961 1935 1951 1930 1873 1948 1884 1880 1957 1958 1903 1923 1916 1916 1946 1899 1800 1921 1945 1848 1808 1770 1877 1860 1865 1826 1866 1895 1832 1835 1808 1811 1848 1797 1833 1821 1811 1780 1918 1884 1880 1814 1814 1831 1929 1903 1803 1826 1766 1817 1808 1924 1842 1904 1868 1795 1749 1874 1834 1834 1835 1866 1773 1809 1868 1834 1859 1877 1907 1763 1871 1732 1805 1871 1813 1775 1809 1799 1878 1898 1853 1859 1850 1801 1778 1920 1797 1940 1832 1825 1794 1796 1854 1893 1834 1808 1882 1860 1825 1803 1813 1799 1832 1905 1801 1803 1867 1893 1879 1865 1841 1835 1787 1789 1809 1822 1819 1830 1864 1836 1720 1788 1796 1815 1829 1842 1865 1778 1805 1797 1870 1834 1794 1814 1795 1814 1812 1773 1830 1858 1833 1838 1825 1873 1791 1838 1798 1787 1877 1809 1808 1834 1811 1761 1822 1844 1848 1807 1814 1877 1741 1781 1835 1873 1805 1869 1814 1853 1774 1930 1823 1826 1793 1857 1895 1788 1888 1791 1755 1806 1758 1780 1802 1866 1860 1869 1841 1756 1862 1814 1826 1735 1883 1866 1852 1827 1810 1762 1810 1856 1804 1818 1789 1833 1845 1812 1808 1825 1898 1842 1880 1792 1790 1937 1863 1836 1855 1840 1826 1824 1770 1832 1863 1784 1844 1789 1813 1793 1821 1789 1910 1807 1793 1793 1823 1785 1804 1866 1741 1914 1844 1814 1812 1877 1738 1724 1839 1862 1798 1812 1851 1850 1847 1871 1800 1832 1847 1825 1844 1736 1775 1750 1874 1837 1697 1725 1764 1858 1771 1868 1863 1843 1817 1774 1784 1899 1807 1849 1912 1796 1877 1824 1783 1811 1881 1809 1822 1755 1885 1756 1889 1815 1839 1855 1789 1832 1827 1707 1866 1732 1844 1911 1834 1905 1894 1791 1784 1922 1790 1837 1945 1873 1816 1833 1910 1874 1781 1783 1811 1842 1798 1882 1859 1815 1767 1873 1848 1760 1805 1866 1810 1806 1759 1817 1834 1838 1846 1789 1797 1823 1834 1891 1837 1784 1822 1824 1830 1832 1823 1768 1779 1823 1797 1773 1836 1800 1840 1788 1872 1862 1843 1821 1750 1864 1796 1795 1792 1826 1858 1832 1811 1771 1860 1798 1828 1821 1859 1817 1820 1773 1849 1899 1813 1836 1836 1843 1815 1888 1830 1875 1861 1807 1801 1815 1821 1905 1853 1826 1914 1932 1823 1873 1826 1877 1835 1793 1825 1816 1802 1792 1806 1826 1909 1764 1889 1866 1746 1839 1898 1839 1814 1862 1792 1871 1815 1832 1826 1847 1842 1853 1792 1838 1837 1868 1733 1885 1767 1886 1871 1835 1761 1870 1847 1841 1735 1790 1849 1878 1816 1811 1849 1777 1818 1778 1869 1775 1819 1794 1838 1880 1792 1846 1829 1810 1817 1795 1830 1824 1847 1826 1847 1898 1768 1855 1888 1772 1821 1817 1830 1822 1865 1901 1880 1742 1830 1882 1815 1851 1837 1794 1772 1885 1795 1854 1807 1803 1874 1931 1804 1773 1752 1842 1882 1846 1850 1820 1779 1861 1821 1876 1889 1880 1866 1840 1841 1842 1847 1736 1785 1877 1866 1867 1793 1884 1789 1827 1887 1814 1871 1733 1847 1815 1879 1814 1828 1905 1765 1831 1761 1851 1891 1835 1753 1809 1787 1838 1832 1783 1755 1872 1737 1840 1884 1866 1798 1797 1866 1853 1908 1874 1783 1893 1849 1918 1932 1902 1909 1910 1808 1924 1873 1936 1877 1903 1906 1886 1953 1899 1892 1944 1975 1829 1933 1966 1867 1872 1838 1791 1894 1894 1880 1828 1907 1828 1963 1905 1862 1854 1937 1829 1914 1910 1815 1928 1873 1893 1804 1918 1836 1841 1765 1891 1802 1894 1893 1864 1910 1891 1844 1940 1884 1838 1891 1972 1968 1870 1867 1852 1922 1917 1944 1935 1763 1940 1944 1918 2003 1978 1908 1859 1909 1959 1937 1876 1874 1927 1884 1924 1976 1887 1951 1934 1921 1931 1893 1924 2055 1987 1990 1961 1931 1936 1919 1875 1911 1894 1882 1878 1856 1899 1902 1887 1838 2004 1893 1879 1872 1903 1881 1960 1832 1935 1879 1856 1907 1863 1928 1899 1805 1858 1933 1851 1815 1868 1945 1778 1858 1789 1935 1902 1868 1995 1857 1845 1895 1910 1876 1896 1932 1948 1962 1958 1852 1931 1941 1964 1930 1934 1884 1880 1900 1900 1897 1840 1857 1874 1887 1878 1864 1836 1856 1824 1829 1910 1847 1924 1885 1868 1755 1799 1909 1865 1897 1869 1888 1800 1912 1844 1895 1847 1853 1777 1885 1892 1784 1846 1801 1874 1839 1796 1771 1905 1883 1883 1795 1775 1737 1818 1783 1908 1805 1863 1862 1834 1817 1899 1886 1833 1848 1857 1903 1819 1735 1831 1863 1820 1840 1894 1785 1878 1862 1865 1864 1867 1845 1909 1813 1859 1776 1787 1854 1848 1884 1895 1809 1859 1763 1921 1848 1832 1875 1909 1772 1918 1875 1869 1865 1798 1853 1830 1817 1870 1898 1908 1915 1906 1889 1897 1858 1810 1845 1780 1900 1810 1914 1915 1911 1829 1840 1848 1901 1986 1946 1897 1963 1844 1912 1889 1876 1920 1971 2017 2089 2009 1995 2001 2032 1995 2088 2053 2102 2166 2209 2184 2281 2350 2381 2378 2443 2465 2424 2473 2459 2475 2607 2503 2497 2474 2494 2493 2360 2379 2394 2441 2312 2329 2282 2437 2319 2299 2386 2346 2277 2407 2331 2302 2224 2280 2367 2311 2273 2247 2271 2162 2055 2187 2173 2163 2115 2079 2069 2034 2084 2031 2000 1954 2009 1991 2015 2068 2066 2059 2019 1966 2013 1966 2040 2001 2077 1992 2093 1917 2017 1979 1982 2096 2033 2038 2114 2113 2056 2045 2042 2076 2074 2089 2132 2070 2026 2069 2091 2077 2121 2059 2053 2006 2061 2051 1978 2023 2087 1977 1933 2021 1975 2028 1982 1975 1904 2004 2037 1903 1997 1935 2018 2003 2021 2028 1879 1965 1901 1992 1887 1990 2007 1933 1915 1910 1883 1878 1794 1968 1955 1931 1864 1884 1851 1900 1867 1855 1924 1909 1820 1877 1870 1882 1838 1834 1898 1864 1897 1857 1862 1931 1837 1862 1827 1939 1819 1819 1893 1853 1835 1835 1832 1868 1913 1834 1891 1839 1893 1822 1885 1892 1948 1919 1822 1950 1867 1952 1899 1875 1894 1829 1917 1945 1932 1919 2025 1993 2075 1964 1940 1986 1924 1882 1867 1907 1867 1897 1873 1895 1880 1929 1970 1909 1945 1910 1937 1933 1930 1861 1897 1863 1868 1873 1825 1840 1929 1963 1864 1974 1926 1920 1929 1945 1798 1853 1952 1870 1885 1841 1897 1841 1864 1853 1868 1884 1834 1885 1862 1888 1885 1911 1850 1847 1833 1939 1833 1946 1835 1763 1801 1808 1809 1983 1898 1930 1921 1848 1953 1825 1892 1831 1837 1763 1808 1838 1879 1763 1880 1911 1809 1917 1902 1932 1892 1853 1797 1867 1856 1851 1864 1865 1914 1881 1941 1893 1825 1788 1922 1882 1860 1904 1868 1917 1864 1847 1938 1911 1860 1910 1805 1862 1855 1855 1865 1806 1838 1929 1785 1828 1866 1761 1891 1861 1829 1835 1834 1846 1847 1816 1863 1802 1841 1763 1864 1835 1892 1836 1833 1815 1845 1835 1888 1856 1778 1798 1811 1717 1871 1895 1849 1818 1753 1896 1805 1799 1746 1872 1823 1860 1864 1804 1915 1840 1913 1891 1848 1852 1813 1784 1808 1895 1853 1829 1820 1783 1814 1812 1871 1803 1803 1881 1854 1789 1862 1829 1819 1790 1864 1865 1834 1778 1866 1782 1809 1912 1894 1818 1745 1819 1780 1873 1806 1923 1900 1894 1831 1851 1805 1842 1863 1849 1737 1819 1873 1835 1840 1913 1880 1794 1860 1827 1772 1942 1844 1878 1859 1848 1811 1826 1860 1791 1864 1779 1821 1901 1839 1758 1796 1771 1841 1773 1921 1839 1789 1856 1771 1892 1823 1796 1858 1880 1908 1841 1882 1852 1834 1905 1833 1897 1945 1793 1892 1780 1822 1879 1747 1870 1831 1874 1895 1862 1848 1856 1787 1866 1716 1823 1779 1856 1855 1954 1803 1885 1891 1819 1828 1860 1809 1905 1827 1792 1839 1862 1857 1896 1885 1790 1883 1888 1850 1797 1824 1830 1818 1816 1910 1845 1872 1773 1795 1860 1878 1806 1743 1762 1722 1804 1884 1785 1896 1806 1893 1870 1893 1850 1930 1849 1893 1905 1805 1845 1847 1886 1766 1797 1844 1781 1867 1787 1837 1876 1786 1818 1801 1790 1868 1868 1830 1873 1845 1823 1853 1832 1796 1848 1769 1801 1858 1822 1879 1829 1790 1856 1839 1892 1915 1900 1829 1836 1793 1829 1930 1816 1881 1813 1856 1765 1808 1874 1811 1789 1833 1895 1841 1836 1829 1842 1852 1805 1816 1803 1852 1812 1853 1872 1956 1816 1845 1857 1842 1794 1838 1810 1807 1859 1833 1849 1894 1863 1813 1897 1882 1815 1891 1753 1848 1861 1825 1783 1843 1879 1804 1871 1845 1860 1937 1822 1901 1877 1800 1809 1895 1898 1812 1905 1843 1889 1929 1811 1907 1860 1815 1800 1854 1857 1834 1818 1841 1890 1909 1871 1836 1837 1896 1813 1912 1949 1950 1926 1952 1870 1923 1923 1878 1976 1847 1974 1937 1871 1921 1848 1884 1891 1865 1882 1859 1931 1812 1861 1905 1917 1887 1915 2002 1947 1951 1931 1947 1899 1928 1909 1877 1835 1820 1954 1817 1831 1926 1923 1909 1949 1936 1856 1924 1879 1886 1861 1940 1867 1882 1835 1911 1878 1884 1875 1837 1771 1797 1889 1868 1897 1878 1896 1882 1931 1799 1859 1894 1819 1808 1861 1934 1958 1885 1833 1899 1845 1939 1900 1802 1809 1894 1838 1788 1919 1914 1813 1922 1858 1931 1816 1892 1850 1840 1919 1885 1862 1816 1845 1822 1840 1794 1783 1916 1815 1871 1854 1871 1865 1797 1850 1883 1872 1838 1812 1812 1847 1819 1847 1821 1823 1794 1876 1811 1800 1849 1928 1766 1830 1875 1759 1855 1851 1842 1750 1908 1771 1855 1796 1827 1793 1858 1878 1804 1826 1828 1804 1823 1802 1759 1829 1858 1856 1889 1870 1870 1887 1876 1803 1858 1819 1873 1888 1882 1777 1894 1828 1864 1843 1908 1868 1839 1828 1836 1773 1900 1855 1889 1818 1764 1882 1812 1880 1886 1819 1846 1867 1816 1780 1859 1876 1869 1840 1878 1814 1804 1778 1888 1841 1763 1871 1807 1851 1904 1777 1775 1829 1805 1877 1846 1862 1802 1808 1858 1860 1871 1785 1804 1769 1832 1853 1932 1865 1889 1877 1899 1827 1835 1788 1856 1892 1806 1853 1853 1773 1868 1850 1900 1847 1905 1862 1890 1940 1860 1899 1864 1977 1879 1863 1890 1839 1814 1862 1862 1862 1842 1829 1882 1882 1883 1865 1871 1904 1840 1904 1894 1857 1847 1864 2013 2011 1944 2001 1969 1970 1996 2016 2002 2116 2036 2115 2132 2133 2127 2226 2346 2289 2224 2304 2268 2363 2309 2266 2310 2271 2178 2234 2166 2217 2209 2120 2207 2183 2125 2132 2195 2181 2172 2197 2199 2233 2126 2091 2132 2215 2205 2147 2195 2055 2142 2135 2153 2086 2141 2038 2006 2014 2025 2061 2076 1964 2009 2051 1988 2025 1985 1987 2041 1945 1961 1957 1973 1882 1954 1985 1902 1979 1996 1880 1901 1941 1869 1973 1910 2020 1999 1976 2000 1928 1984 1925 1928 1955 2059 1964 1945 1903 1975 1975 2041 1953 1988 1933 1989 1924 1953 1962 2011 2066 1999 2035 2094 2051 2047 2005 2021 1994 1905 1981 2019 2063 1909 2027 1969 1946 1940 1925 1922 2016 1960 1852 1909 1877 1964 1880 1940 1895 1932 1966 2062 1856 1922 1951 1861 1967 1960 1905 1787 1917 1882 1879 1898 1869 1888 1933 1847 1934 1886 1829 1907 1903 1787 1825 1830 1856 1891 1888 1862 1790 1948 1864 1879 1793 1937 1904 1916 1810 1825 1905 1906 1912 1896 1855 1868 1860 1860 1836 1934 1899 1877 1881 1882 1891 1856 1878 1831 1937 1885 1880 1843 1867 1872 1877 1951 1950 1944 1896 1851 1862 1854 1875 1791 1938 1880 1850 1874 1876 1872 1873 1918 1887 1855 1931 1912 1930 1805 1832 1880 1888 1848 1849 1800 1833 1851 1861 1855 1806 1800 1871 1868 1887 1944 1963 1815 1861 1856 1834 1794 1839 1836 1816 1779 1841 1859 1828 1941 1820 1916 1913 1820 1835 1870 1852 1866 1848 1811 1845 1838 1806 1900 1783 1794 1805 1958 1800 1793 1842 1834 1922 1912 1839 1795 1945 1835 1850 1889 1930 1950 1788 1852 1856 1876 1756 1897 1877 1915 1876 1811 1821 1922 1772 1807 1833 1866 1883 1843 1900 1817 1822 1858 1837 1877 1856 1870 1796 1816 1803 1811 1877 1864 1819 1824 1803 1856 1851 1837 1823 1875 1882 1816 1832 1884 1859 1893 1838 1841 1886 1894 1909 1909 1910 1860 1750 1874 1850 1820 1832 1833 1885 1843 1881 1896 1791 1848 1843 1830 1836 1804 1854 1815 1874 1852 1930 1863 1816 1779 1881 1769 1793 1833 1908 1888 1853 1881 1823 1852 1806 1869 1824 1857 1899 1835 1823 1802 1915 1880 1796 1876 1867 1933 1891 1830 1801 1818 1832 1888 1830 1858 1877 1910 1862 1847 1891 1836 1904 1827 1900 1811 1905 1925 1863 1851 1874 1819 1781 1860 1799 1952 1803 1892 1797 1882 1864 1938 1743 1839 1872 1844 1832 1921 1802 1828 1845 1837 1889 1776 1913 1914 1965 1874 1910 1860 1899 1811 1787 1851 1766 1812 1849 1854 1859 1871 1827 1817 1884 1821 1880 1861 1881 1835 1796 1822 1883 1774 1879 1826 1891 1785 1758 1886 1869 1818 1805 1862 1864 1806 1881 1848 1823 1922 1833 1734 1868 1847 1878 1821 1878 1773 1832 1837 1846 1798 1833 1911 1840 1748 1885 1784 1898 1873 1836 1911 1794 1772 1828 1790 1858 1764 1758 1913 1813 1790 1875 1801 1801 1847 1805 1889 1842 1835 1903 1823 1847 1829 1759 1852 1834 1839 1855 1826 1843 1849 1757 1890 1847 1818 1893 1825 1924 1900 1911 1835 1850 1808 1760 1783 1823 1826 1800 1775 1803 1823 1857 1814 1827 1800 1776 1790 1861 1917 1882 1809 1928 1828 1821 1855 1860 1825 1868 1809 1852 1827 1794 1867 1785 1852 1811 1896 1901 1832 1888 1792 1907 1919 1831 1779 1842 1885 1795 1838 1829 1896 1912 1861 1808 1916 1828 1825 1837 1832 1858 1804 1817 1836 1899 1834 1814 1835 1926 1872 1904 1831 1878 1835 1866 1871 1925 1914 1891 1841 1873 1844 1860 1870 1812 1813 1897 1941 1925 1866 1824 1809 1961 1847 1779 1835</counts>
			</dataPoints>
		</scan>
	</xrdMeasurement>
</xrdMeasurements>
