<?xml version="1.0"?>
<xrdMeasurements xmlns="http://www.xrdml.com/XRDMeasurement/2.3" xmlns:xsi="http://www.w3.org/2001/XMLSchema-instance" xsi:schemaLocation="http://www.xrdml.com/XRDMeasurement/2.3 http://www.xrdml.com/XRDMeasurement/2.3/XRDMeasurement.xsd" status="Completed" recordIdentifier="{8DE9DD3E-93F5-4441-8F41-F3FE5F09E486}">
	<comment>
		<entry/>
	</comment>
	<sample type="To be analyzed">
		<id>GPSS_Li1p4Fe1p1Zr0p1Cl4_122325_694ae824ae15af25ac372776</id>
		<name></name>
		<preparedBy></preparedBy>
	</sample>
	<xrdMeasurement measurementType="Scan" status="Completed" sampleMode="Reflection">
		<usedWavelength intended="K-Alpha 1">
			<kAlpha1 unit="Angstrom">1.5405980</kAlpha1>
			<kAlpha2 unit="Angstrom">1.5444260</kAlpha2>
			<kBeta unit="Angstrom">1.3922500</kBeta>
			<ratioKAlpha2KAlpha1>0.5000</ratioKAlpha2KAlpha1>
		</usedWavelength>
		<incidentBeamPath>
			<radius unit="mm">145.00</radius>
			<xRayTube id="1010048" name="Empyrean Cu LFF HR (9430 033 7310x)">
				<tension unit="kV">40.0</tension>
				<current unit="mA">15.0</current>
				<anodeMaterial>Cu</anodeMaterial>
				<focus type="Line">
					<length unit="mm">12.0</length>
					<width unit="mm">0.4</width>
					<takeOffAngle unit="deg">6.0</takeOffAngle>
				</focus>
			</xRayTube>
			<sollerSlit id="21010002" name="Soller slits 0.04 rad.">
				<opening unit="rad">0.0400</opening>
			</sollerSlit>
			<mask id="22031000" name="Fixed mask 13 mm">
				<width unit="mm">9.00</width>
			</mask>
			<divergenceSlit id="22120001" name="Divergence slit 1°" xsi:type="fixedDivergenceSlitType">
				<distanceToSample unit="mm">50.00</distanceToSample>
				<height unit="mm">1.52</height>
			</divergenceSlit>
		</incidentBeamPath>
		<sampleMovement xsi:type="spinningSampleMovementType">
			<spinnerRevolutionTime unit="seconds">1.0</spinnerRevolutionTime>
		</sampleMovement>
		<diffractedBeamPath>
			<radius unit="mm">145.00</radius>
			<antiScatterSlit id="22090040" name="AS slit 9 mm (PIXcel)" xsi:type="fixedAntiScatterSlitType">
				<height unit="mm">9.00</height>
			</antiScatterSlit>
			<sollerSlit id="21020003" name="Large Soller slits 0.04 rad.">
				<opening unit="rad">0.0400</opening>
			</sollerSlit>
			<filter id="20030001" name="Large beta-filter Nickel">
				<material>Ni</material>
				<thickness unit="mm">0.020</thickness>
			</filter>
			<detector id="7010019" name="PIXcel1D-Medipix3 detector" xsi:type="rtmsDetectorType">
				<phd unit="keV">
					<lowerLevel>4.02</lowerLevel>
					<upperLevel>11.27</upperLevel>
				</phd>
				<mode>Scanning</mode>
				<activeLength unit="deg">5.542</activeLength>
			</detector>
		</diffractedBeamPath>
		<scan appendNumber="0" mode="Continuous" scanAxis="Gonio" status="Completed">
			<header>
				<startTimeStamp>2025-12-25T19:15:43-08:00</startTimeStamp>
				<endTimeStamp>2025-12-25T19:23:51-08:00</endTimeStamp>
				<author>
					<name>AutomatedUser</name>
				</author>
				<source>
					<applicationSoftware version="1.7b (136)">PANalytical Aeris Instrument Suite</applicationSoftware>
					<instrumentControlSoftware version="3.2.00000000 20240306">AERIS</instrumentControlSoftware>
					<instrumentID>950485</instrumentID>
				</source>
			</header>
			<dataPoints>
				<positions axis="2Theta" unit="deg">
					<startPosition>10.00943322</startPosition>
					<endPosition>99.99442286</endPosition>
				</positions>
				<positions axis="Omega" unit="deg">
					<startPosition>5.00471661</startPosition>
					<endPosition>49.99721143</endPosition>
				</positions>
				<commonCountingTime unit="seconds">12.495</commonCountingTime>
				<counts unit="counts">2957 3001 2896 2816 2931 2894 2988 2837 2955 2870 2966 2961 2908 2852 2927 2907 2898 2879 2962 2948 2928 2949 2932 2909 2902 2869 2835 2886 2915 2998 2866 2908 2869 2906 2947 3017 2791 2871 2782 2872 2972 2865 2921 3061 3009 2963 2924 2841 2920 2909 2909 3068 2908 2908 2983 2934 2911 3061 2965 2937 2925 2951 2928 2845 2959 2965 3017 2803 2887 2922 3025 2900 2975 2961 2991 2894 2910 3053 2923 2962 2947 3073 3031 3035 3038 2974 2925 3037 3033 2970 3002 3032 3046 2964 3140 3028 3140 3107 3027 3126 3021 3204 3045 3035 3121 3170 3058 3048 3094 3105 3072 3126 3148 3036 3136 3086 3087 3047 3079 3158 2983 3163 3008 3156 3036 3049 3101 3032 3030 2982 2972 2988 2958 3080 2940 2902 2980 3056 2893 3032 2903 2933 2948 3030 2879 2897 2882 2950 3174 2890 2923 2988 2880 2779 2897 2979 2964 2900 3004 3045 2861 2790 2777 2893 2891 2866 2878 2850 2820 2884 2796 2895 2829 2790 2972 2905 2963 2915 2952 2895 2834 2935 2855 2877 2893 2928 2866 2895 2897 2964 2906 2851 2893 2933 2950 2831 2909 2822 2856 2949 2816 2877 2957 2767 2831 2900 2835 2902 2826 2833 2826 2797 2909 2851 2884 2855 2870 2777 2757 2808 2935 2743 2864 2867 2826 2738 2767 2740 2735 2773 2786 2843 2733 2808 2749 2825 2827 2783 2789 2728 2887 2854 2898 2806 2848 2739 2900 2829 2684 2809 2869 2808 2719 2808 2803 2775 2831 2826 2944 2748 2798 2741 2820 2813 2821 2810 2780 2721 2699 2709 2800 2722 2836 2770 2861 2777 2829 2774 2859 2792 2825 2821 2773 2817 2816 2753 2792 2824 2871 2747 2844 2757 2806 2789 2796 2808 2761 2794 2796 2788 2829 2777 2790 2754 2818 2845 2746 2850 2821 2794 2867 2772 2836 2921 2871 2797 2795 2910 2882 2802 2812 2819 2872 2950 2887 2940 2866 2888 2845 2838 2825 2907 2990 2880 2875 2868 2861 2966 2932 2869 2923 2989 2963 2927 2985 2972 2966 3042 2924 2957 2932 2980 2997 3054 3056 3071 3067 2941 2997 2877 3077 3069 3043 3073 3014 3149 3124 3141 3055 2947 3032 2999 3100 3050 3036 3171 3034 3088 3121 3078 3099 3206 3152 3179 3273 3208 3267 3154 3130 3128 3174 3111 3264 3177 3199 3187 3164 3211 3144 3206 3105 3207 3310 3105 3281 3269 3196 3197 3163 3242 3381 3288 3274 3318 3281 3277 3329 3221 3284 3368 3239 3264 3334 3259 3243 3334 3303 3539 3327 3418 3462 3424 3267 3462 3510 3523 3502 3378 3542 3460 3352 3396 3443 3402 3538 3525 3357 3352 3515 3472 3547 3549 3509 3489 3488 3406 3539 3613 3493 3499 3634 3457 3488 3693 3607 3689 3769 3668 3688 3876 3806 3891 3848 4058 4029 4056 4062 4190 4211 4123 4028 4227 4108 4183 4050 3912 3797 3803 3729 3628 3622 3392 3524 3520 3361 3394 3310 3567 3346 3395 3367 3487 3318 3307 3413 3401 3370 3393 3267 3306 3316 3289 3298 3282 3319 3359 3252 3276 3217 3208 3269 3211 3238 3226 3163 3247 3210 3167 3106 3173 3152 3063 3214 3207 3217 3190 3179 3170 3125 3099 3217 3247 3086 3215 3006 3225 3135 3091 3172 3171 3118 3104 3085 3013 3091 3101 3052 3154 3162 3162 3136 3056 3026 3100 2987 3108 3120 3097 3201 3076 2986 3010 3055 3013 3078 3109 3065 3149 3017 3031 3012 3029 3060 3144 3002 3032 3033 3005 2929 2976 2996 2808 3034 2923 2933 2952 2933 3028 2935 2926 2826 2851 2964 2945 2825 2906 2895 2974 2890 2933 2918 2985 2944 2959 2902 2891 2839 2932 2854 2868 2911 2929 2885 2890 2835 2970 2839 2975 2914 2773 2926 2815 2920 2911 2948 2841 2831 2885 2872 2941 2768 2925 2876 2895 2882 2849 2913 2847 2816 2839 2861 2848 2816 2817 2771 2902 2909 2828 2833 2801 2783 2827 2779 2835 2903 2844 2703 2894 2879 2884 2932 2927 2918 2876 2920 2913 2813 2675 2862 2811 2771 2799 2888 2891 2863 2787 2810 2758 2792 2830 2745 2780 2836 2789 2743 2782 2908 2773 2721 2824 2761 2739 2745 2870 2839 2890 2816 2820 2697 2747 2741 2803 2853 2801 2751 2800 2783 2735 2840 2773 2865 2814 2808 2809 2796 2785 2705 2886 2790 2680 2842 2735 2677 2760 2838 2674 2764 2767 2812 2780 2750 2795 2696 2748 2780 2711 2968 2737 2747 2775 2661 2738 2689 2768 2758 2639 2791 2691 2759 2666 2813 2802 2803 2667 2693 2704 2824 2777 2714 2734 2797 2688 2827 2728 2706 2668 2721 2882 2774 2739 2738 2759 2754 2885 2663 2780 2753 2755 2760 2876 2663 2743 2697 2791 2669 2745 2726 2758 2756 2766 2791 2808 2831 2784 2712 2608 2731 2720 2758 2840 2705 2749 2779 2708 2649 2856 2759 2851 2704 2746 2697 2668 2720 2727 2691 2664 2720 2773 2767 2696 2769 2629 2862 2700 2687 2734 2643 2700 2722 2779 2745 2726 2675 2647 2604 2662 2729 2691 2685 2702 2763 2710 2712 2709 2692 2672 2806 2615 2639 2642 2647 2706 2577 2733 2716 2639 2740 2617 2663 2648 2792 2589 2659 2719 2576 2593 2614 2761 2732 2647 2675 2728 2585 2669 2620 2599 2752 2655 2629 2531 2686 2575 2637 2599 2725 2672 2684 2722 2623 2572 2638 2666 2642 2633 2499 2725 2657 2688 2672 2714 2600 2614 2607 2694 2660 2685 2667 2636 2613 2607 2640 2547 2553 2680 2751 2690 2593 2596 2584 2491 2540 2636 2643 2676 2592 2625 2696 2646 2624 2658 2599 2584 2669 2549 2599 2585 2677 2522 2636 2588 2572 2485 2555 2592 2562 2619 2578 2546 2661 2659 2622 2623 2573 2596 2540 2553 2598 2442 2631 2584 2570 2572 2538 2589 2617 2487 2588 2545 2568 2618 2619 2675 2582 2580 2615 2627 2603 2650 2508 2606 2599 2503 2600 2642 2592 2530 2589 2565 2580 2532 2613 2577 2656 2526 2532 2620 2551 2578 2481 2625 2631 2607 2534 2607 2594 2659 2532 2602 2518 2618 2603 2613 2614 2503 2554 2580 2589 2548 2507 2545 2569 2506 2548 2488 2588 2557 2590 2567 2680 2595 2705 2573 2631 2584 2673 2600 2604 2556 2510 2576 2639 2600 2606 2556 2663 2588 2537 2492 2556 2536 2645 2708 2602 2565 2645 2629 2572 2586 2654 2510 2631 2605 2691 2568 2484 2558 2539 2590 2591 2580 2574 2598 2607 2703 2562 2629 2553 2581 2589 2662 2582 2571 2493 2615 2513 2520 2604 2559 2650 2556 2603 2541 2541 2617 2620 2489 2574 2552 2527 2636 2570 2558 2603 2551 2557 2606 2615 2559 2588 2586 2610 2601 2554 2617 2570 2633 2665 2645 2574 2552 2447 2497 2502 2499 2563 2538 2582 2620 2584 2518 2525 2499 2388 2571 2578 2384 2547 2581 2636 2536 2520 2480 2483 2518 2470 2545 2518 2555 2553 2606 2539 2527 2575 2611 2480 2557 2542 2488 2548 2445 2547 2450 2533 2433 2524 2492 2502 2589 2462 2557 2541 2428 2494 2461 2442 2430 2470 2438 2479 2474 2462 2352 2492 2379 2406 2438 2502 2436 2436 2423 2464 2395 2513 2354 2384 2420 2385 2480 2327 2365 2344 2441 2410 2305 2395 2377 2438 2350 2331 2322 2325 2315 2281 2374 2346 2373 2340 2326 2319 2319 2269 2278 2205 2309 2317 2400 2227 2246 2302 2289 2320 2252 2211 2236 2259 2245 2256 2287 2234 2348 2325 2196 2172 2179 2211 2232 2212 2206 2146 2233 2137 2242 2153 2189 2146 2142 2153 2222 2137 2118 2217 2123 2160 2172 2212 2173 2194 2143 2162 2103 2129 2123 2141 2115 2130 2094 2127 2134 2168 2135 2097 2126 2152 2094 2054 2089 2177 2173 2129 2094 2090 2038 2103 2078 2088 2081 2031 2119 2087 2157 2089 2177 2033 1978 2034 2088 2045 2069 2075 2065 2122 2024 2157 2137 1996 1999 2021 2101 2127 2061 2078 2069 2104 2101 2046 2026 2108 2085 2073 2005 2096 2083 2051 2166 1984 2100 2050 2087 2027 2037 2042 1957 2030 2056 2003 2028 2069 2025 2089 2026 2046 2011 2043 2002 2113 2082 2048 2041 2110 2106 2026 2072 2026 2058 1983 2076 2051 2047 2094 2039 2027 2015 1977 2079 2070 2041 1961 2053 1994 2025 1978 2006 1968 2045 2008 2032 2009 2056 1990 1985 2026 1981 2044 1973 1950 2071 2020 2004 1949 2063 2012 1998 1995 2055 2033 2022 1966 2067 2008 1926 2062 2067 2079 2077 2046 1934 1963 2106 2056 2123 2093 2006 2017 2055 2037 2033 1996 2068 2082 1997 2052 2014 1933 2040 2080 2048 1969 2059 2086 2053 2058 2049 1997 2069 2101 1968 2067 2094 1968 2035 2145 1931 2058 2111 2050 2052 1988 2054 2073 2048 2098 2092 2100 2035 2109 2025 2089 2079 1992 2118 1955 2149 2036 2112 2085 2052 2029 2083 2013 2030 2041 2056 2027 2045 2018 1944 2111 2041 1971 2086 2035 2046 2119 2042 2087 2086 2026 2032 2118 1987 2071 2039 2005 2154 2012 2024 2007 2036 2035 2089 2012 2095 2066 2061 2011 2015 2110 1993 2033 2057 1935 2009 2057 2023 2051 2055 2038 2039 1993 1980 1974 1996 2045 1985 1972 1992 2051 2003 2032 2085 1909 2057 2037 1998 1931 1946 2033 2057 2001 2006 1943 1995 2005 1987 2027 1974 1980 2044 1926 2007 2065 1980 1969 1997 2013 1900 2053 1985 1946 1952 1966 1847 1986 1930 1867 1967 1942 1888 1855 1864 1921 1983 2080 1960 1953 1936 1908 1898 1903 1959 1907 1924 1922 1864 1877 1903 1949 1900 1889 1896 1815 1901 1857 1904 1860 1907 1882 1940 1846 1889 1845 1842 1836 1842 1878 1867 1829 1895 1828 1823 1803 1786 1961 1824 1812 1833 1842 1857 1822 1787 1816 1885 1778 1863 1785 1710 1785 1826 1894 1857 1860 1882 1813 1871 1849 1792 1799 1903 1769 1845 1824 1851 1799 1758 1775 1772 1858 1868 1834 1788 1772 1722 1816 1792 1809 1703 1742 1780 1800 1776 1677 1749 1799 1742 1869 1783 1756 1742 1832 1815 1821 1799 1789 1821 1811 1792 1889 1897 1788 1871 1789 1770 1882 1884 1845 1856 1792 1825 1844 1904 1807 1878 1841 1918 1834 1866 1912 1903 1835 1907 1833 1876 1852 1890 1936 1934 1914 1964 1835 1872 1988 2014 1949 1959 2035 2037 2038 2090 2007 2055 2101 2042 2006 1980 2059 2097 1933 1971 1955 1938 1983 1901 1887 1916 1811 1870 1795 1830 1813 1794 1792 1714 1804 1729 1776 1679 1793 1749 1778 1746 1677 1710 1848 1671 1776 1682 1748 1765 1708 1728 1763 1686 1666 1694 1748 1780 1704 1687 1741 1692 1755 1700 1724 1727 1771 1690 1711 1688 1734 1767 1706 1760 1718 1675 1822 1713 1682 1642 1782 1761 1783 1818 1788 1791 1811 1799 1863 1770 1810 1856 1864 1800 1819 1760 1811 1814 1776 1788 1869 1814 1765 1815 1854 1864 1834 1858 1843 1907 1853 1959 1918 1913 1925 1967 2023 2016 1943 1967 2036 2105 2098 2116 2181 2193 2215 2377 2325 2282 2360 2353 2438 2479 2405 2500 2357 2343 2368 2174 2219 2208 2202 2099 2095 2053 1984 1912 1933 1831 1927 1885 1898 1853 1816 1818 1842 1828 1769 1784 1816 1746 1861 1781 1786 1714 1727 1783 1808 1713 1761 1740 1652 1768 1776 1824 1730 1740 1748 1642 1665 1682 1755 1706 1667 1705 1704 1651 1628 1666 1682 1691 1755 1616 1678 1607 1706 1525 1732 1640 1653 1583 1627 1645 1566 1577 1517 1638 1585 1609 1626 1584 1580 1620 1593 1521 1568 1595 1576 1584 1548 1533 1577 1466 1580 1564 1628 1539 1523 1582 1537 1553 1468 1584 1496 1524 1604 1577 1561 1492 1507 1495 1547 1488 1498 1576 1469 1580 1539 1535 1545 1449 1496 1509 1523 1513 1505 1499 1523 1503 1536 1577 1524 1534 1548 1467 1519 1525 1455 1474 1504 1535 1495 1451 1517 1477 1504 1475 1477 1470 1462 1496 1505 1484 1515 1492 1503 1527 1464 1486 1489 1484 1512 1427 1430 1509 1473 1459 1477 1515 1412 1500 1378 1493 1491 1538 1507 1414 1454 1596 1471 1524 1472 1499 1409 1514 1510 1533 1483 1449 1454 1503 1567 1575 1546 1528 1511 1555 1458 1513 1519 1500 1563 1519 1527 1542 1519 1496 1555 1509 1495 1512 1626 1501 1535 1595 1585 1527 1528 1500 1657 1547 1549 1517 1648 1648 1524 1556 1596 1584 1578 1714 1564 1669 1670 1671 1576 1608 1544 1621 1547 1617 1584 1606 1608 1572 1556 1505 1632 1578 1652 1531 1594 1600 1643 1570 1633 1590 1610 1526 1560 1622 1550 1562 1539 1562 1566 1555 1621 1619 1513 1603 1611 1593 1567 1595 1615 1566 1578 1586 1587 1611 1551 1604 1626 1598 1579 1597 1538 1561 1681 1547 1525 1493 1609 1524 1524 1529 1556 1558 1441 1550 1553 1468 1483 1546 1491 1474 1530 1620 1472 1443 1454 1521 1530 1474 1487 1511 1482 1513 1493 1466 1441 1441 1543 1412 1481 1486 1553 1467 1521 1447 1446 1430 1482 1521 1499 1463 1466 1517 1477 1481 1514 1541 1444 1490 1507 1516 1476 1414 1440 1408 1504 1426 1512 1429 1560 1559 1565 1538 1402 1575 1543 1480 1503 1476 1525 1455 1520 1498 1550 1514 1547 1537 1527 1550 1589 1609 1536 1605 1571 1583 1586 1652 1670 1681 1754 1846 1855 1841 1879 1911 1974 1969 1964 1974 1973 2120 2173 2099 2090 2119 2136 2067 2248 2220 2234 2203 2285 2278 2345 2303 2317 2512 2479 2544 2668 2781 2797 2927 3034 3083 3150 3341 3399 3459 3666 3691 3798 3643 3617 3675 3780 3859 3857 3962 4048 3950 3897 3978 3826 3754 3681 3591 3476 3392 3276 3164 3099 2945 2781 2729 2605 2464 2425 2287 2221 2174 2117 2090 1991 2003 1976 1963 1902 1799 1779 1757 1791 1830 1804 1804 1776 1678 1791 1686 1679 1661 1629 1598 1696 1639 1547 1562 1625 1699 1617 1705 1656 1634 1730 1691 1605 1738 1640 1718 1595 1651 1655 1704 1676 1555 1660 1586 1717 1602 1574 1562 1603 1578 1559 1644 1573 1598 1573 1625 1434 1593 1529 1577 1508 1557 1547 1514 1466 1462 1463 1457 1471 1460 1563 1482 1470 1456 1447 1417 1522 1423 1503 1408 1469 1490 1503 1466 1474 1430 1444 1433 1485 1448 1502 1499 1503 1483 1509 1417 1491 1464 1462 1452 1516 1515 1474 1473 1417 1367 1450 1366 1440 1492 1451 1450 1412 1471 1417 1419 1381 1404 1385 1375 1473 1421 1498 1430 1453 1538 1459 1490 1462 1492 1378 1403 1456 1358 1512 1355 1406 1424 1413 1453 1354 1403 1349 1414 1503 1382 1480 1403 1367 1390 1395 1407 1425 1389 1443 1420 1500 1362 1403 1415 1407 1422 1446 1365 1371 1426 1463 1365 1365 1379 1418 1390 1358 1394 1376 1419 1381 1377 1349 1482 1397 1377 1349 1387 1327 1439 1459 1360 1393 1392 1382 1356 1412 1353 1337 1366 1396 1361 1410 1413 1362 1386 1457 1333 1430 1409 1405 1431 1381 1465 1405 1388 1450 1363 1405 1397 1383 1408 1394 1401 1409 1390 1373 1443 1426 1367 1430 1435 1504 1353 1410 1414 1419 1393 1463 1371 1449 1401 1327 1365 1410 1418 1348 1390 1398 1378 1481 1483 1447 1383 1396 1380 1351 1333 1453 1443 1436 1429 1446 1436 1378 1513 1419 1414 1476 1395 1359 1449 1447 1491 1474 1490 1443 1386 1431 1430 1474 1420 1467 1464 1454 1435 1464 1424 1451 1469 1379 1355 1432 1387 1438 1504 1389 1304 1359 1381 1417 1443 1468 1332 1462 1401 1410 1447 1411 1429 1354 1375 1378 1352 1378 1429 1349 1331 1427 1377 1423 1388 1366 1308 1434 1427 1371 1372 1391 1354 1442 1448 1377 1428 1416 1375 1373 1410 1421 1407 1407 1369 1437 1388 1359 1314 1276 1357 1364 1424 1418 1431 1411 1428 1335 1387 1418 1387 1404 1456 1369 1438 1349 1354 1424 1402 1376 1405 1424 1436 1428 1299 1407 1407 1440 1436 1459 1424 1357 1418 1440 1406 1319 1383 1399 1390 1377 1479 1394 1353 1377 1358 1444 1369 1431 1466 1424 1388 1346 1397 1378 1427 1411 1378 1314 1373 1398 1420 1388 1394 1402 1356 1437 1366 1371 1358 1331 1381 1360 1409 1384 1393 1386 1345 1326 1451 1364 1359 1409 1364 1420 1394 1400 1444 1408 1363 1403 1315 1359 1366 1435 1355 1396 1328 1317 1391 1343 1340 1408 1416 1459 1353 1350 1353 1395 1378 1409 1410 1376 1359 1318 1406 1435 1426 1386 1388 1488 1445 1414 1372 1376 1368 1376 1389 1368 1323 1408 1355 1391 1381 1381 1346 1433 1349 1338 1369 1426 1365 1360 1388 1310 1392 1345 1385 1302 1412 1371 1380 1349 1334 1404 1319 1340 1435 1358 1444 1271 1383 1370 1376 1387 1373 1321 1418 1374 1413 1362 1373 1371 1362 1420 1377 1472 1392 1355 1298 1350 1384 1365 1405 1361 1399 1438 1372 1359 1361 1359 1379 1376 1375 1345 1363 1345 1403 1418 1326 1418 1340 1366 1416 1476 1390 1417 1360 1427 1406 1331 1370 1403 1385 1369 1392 1358 1426 1395 1448 1408 1434 1452 1418 1393 1346 1369 1401 1426 1368 1400 1406 1344 1448 1414 1365 1469 1402 1422 1380 1384 1340 1352 1376 1412 1356 1357 1445 1369 1369 1386 1339 1439 1383 1396 1407 1372 1427 1372 1356 1312 1357 1392 1379 1374 1450 1450 1314 1407 1368 1407 1439 1352 1324 1396 1391 1326 1298 1333 1374 1422 1393 1340 1381 1365 1414 1425 1399 1382 1346 1338 1377 1381 1378 1385 1393 1435 1411 1412 1358 1353 1367 1342 1382 1393 1436 1350 1417 1370 1364 1387 1371 1406 1406 1317 1368 1384 1325 1395 1373 1369 1390 1444 1354 1424 1374 1350 1381 1389 1350 1357 1453 1399 1370 1432 1354 1401 1402 1379 1416 1352 1474 1392 1424 1409 1362 1430 1366 1388 1370 1342 1386 1388 1363 1346 1419 1446 1360 1330 1406 1416 1376 1392 1352 1351 1437 1342 1391 1328 1396 1393 1415 1381 1422 1457 1392 1352 1397 1391 1453 1384 1380 1415 1396 1338 1365 1334 1401 1445 1339 1384 1373 1464 1328 1319 1411 1442 1441 1419 1376 1334 1384 1375 1341 1421 1376 1432 1396 1395 1433 1406 1397 1397 1401 1383 1359 1408 1386 1343 1413 1420 1361 1368 1380 1370 1406 1449 1431 1438 1367 1392 1310 1332 1450 1401 1388 1412 1376 1335 1433 1361 1417 1389 1455 1402 1354 1379 1461 1377 1387 1423 1398 1438 1477 1431 1427 1466 1432 1410 1465 1378 1423 1395 1417 1394 1422 1385 1312 1370 1356 1383 1385 1400 1383 1400 1404 1348 1447 1402 1388 1404 1404 1366 1414 1406 1445 1459 1438 1391 1386 1342 1401 1421 1416 1453 1389 1415 1429 1412 1390 1475 1334 1406 1387 1400 1429 1363 1435 1445 1376 1403 1423 1395 1403 1370 1395 1440 1388 1367 1377 1345 1414 1396 1413 1351 1440 1343 1411 1397 1358 1446 1366 1379 1364 1438 1358 1355 1390 1426 1392 1357 1368 1442 1436 1490 1368 1356 1389 1387 1462 1407 1462 1418 1392 1328 1440 1363 1402 1372 1276 1342 1425 1431 1401 1375 1421 1388 1415 1428 1407 1376 1393 1394 1397 1376 1411 1425 1398 1369 1417 1316 1469 1363 1411 1481 1451 1462 1422 1446 1548 1458 1479 1519 1465 1508 1568 1550 1602 1497 1526 1514 1530 1570 1545 1564 1604 1512 1521 1556 1615 1528 1647 1594 1573 1572 1576 1591 1528 1565 1664 1674 1688 1635 1723 1696 1659 1781 1692 1733 1699 1761 1747 1646 1711 1651 1720 1734 1711 1696 1763 1685 1632 1580 1701 1556 1580 1524 1567 1493 1513 1532 1541 1544 1571 1493 1445 1507 1501 1444 1441 1479 1379 1518 1406 1537 1422 1437 1485 1373 1476 1398 1359 1461 1405 1409 1430 1348 1359 1370 1418 1381 1375 1450 1387 1421 1435 1382 1392 1414 1371 1339 1435 1403 1357 1375 1435 1372 1393 1433 1374 1462 1384 1419 1394 1378 1393 1360 1383 1349 1387 1351 1404 1469 1382 1369 1424 1353 1432 1425 1426 1421 1453 1451 1430 1380 1341 1412 1345 1417 1412 1371 1375 1393 1429 1399 1366 1472 1413 1387 1364 1409 1412 1394 1367 1453 1345 1355 1379 1324 1378 1395 1369 1410 1402 1437 1411 1434 1389 1458 1369 1437 1404 1379 1376 1427 1308 1365 1458 1403 1359 1376 1352 1381 1407 1414 1325 1393 1391 1357 1424 1386 1373 1353 1358 1408 1387 1413 1397 1372 1349 1391 1366 1270 1378 1419 1399 1322 1420 1377 1366 1425 1415 1423 1382 1454 1419 1359 1433 1413 1375 1344 1328 1391 1415 1364 1412 1372 1419 1426 1343 1443 1443 1361 1491 1344 1360 1425 1399 1399 1423 1448 1367 1379 1426 1426 1433 1374 1386 1399 1395 1416 1389 1351 1425 1462 1469 1382 1381 1456 1420 1456 1428 1401 1376 1440 1416 1362 1435 1462 1462 1497 1374 1460 1398 1349 1414 1460 1398 1453 1423 1456 1429 1401 1392 1445 1455 1383 1392 1376 1438 1387 1495 1450 1398 1433 1480 1428 1442 1440 1471 1343 1413 1450 1364 1414 1351 1403 1468 1456 1449 1368 1409 1443 1488 1387 1430 1440 1467 1340 1413 1456 1347 1469 1449 1370 1372 1425 1398 1448 1421 1407 1405 1434 1367 1387 1406 1487 1355 1481 1428 1417 1464 1504 1386 1467 1440 1458 1421 1423 1452 1491 1436 1389 1468 1428 1445 1408 1462 1487 1494 1512 1400 1436 1449 1474 1487 1360 1495 1361 1381 1438 1536 1425 1437 1473 1462 1467 1503 1498 1546 1473 1474 1558 1569 1493 1528 1625 1561 1652 1677 1611 1685 1695 1664 1753 1736 1762 1846 1793 1861 1979 1845 1981 1925 1928 2024 2014 2196 2107 2160 2118 2320 2164 2172 2142 2327 2315 2220 2252 2471 2424 2609 2721 2761 2860 3024 3344 3229 3351 3255 3229 3090 3155 3043 3100 3038 3097 3079 3199 3134 3121 3081 3025 2826 2870 2649 2636 2581 2453 2390 2383 2242 2202 2171 2046 2119 2024 2005 1986 1983 1897 1891 1933 1819 1794 1816 1824 1706 1755 1796 1665 1655 1764 1765 1742 1647 1672 1673 1742 1658 1565 1752 1657 1678 1632 1728 1673 1655 1686 1663 1761 1610 1705 1609 1628 1677 1606 1677 1622 1527 1608 1582 1603 1700 1603 1645 1578 1633 1616 1617 1580 1617 1594 1661 1578 1669 1618 1600 1640 1572 1611 1574 1597 1591 1607 1521 1609 1601 1569 1636 1590 1545 1637 1589 1563 1513 1637 1568 1518 1538 1489 1655 1586 1542 1605 1497 1564 1428 1570 1484 1568 1502 1551 1451 1483 1537 1504 1470 1517 1463 1512 1486 1473 1484 1556 1514 1499 1459 1527 1449 1455 1450 1453 1476 1455 1536 1473 1519 1454 1480 1455 1417 1458 1495 1451 1436 1499 1440 1408 1467 1374 1433 1407 1477 1479 1464 1424 1385 1502 1408 1475 1408 1423 1493 1369 1385 1409 1374 1417 1420 1417 1511 1471 1453 1445 1502 1512 1516 1495 1490 1431 1503 1357 1449 1460 1464 1559 1478 1484 1544 1557 1574 1538 1496 1442 1542 1544 1544 1524 1597 1556 1602 1560 1512 1584 1521 1549 1542 1544 1577 1590 1601 1615 1578 1614 1606 1592 1597 1602 1612 1602 1593 1666 1619 1595 1490 1579 1588 1521 1544 1582 1633 1535 1546 1605 1550 1458 1526 1511 1476 1590 1435 1408 1454 1519 1414 1407 1519 1454 1490 1501 1480 1570 1466 1492 1468 1499 1430 1392 1423 1459 1459 1421 1372 1423 1478 1451 1430 1480 1403 1516 1416 1484 1359 1492 1453 1369 1487 1483 1475 1447 1354 1404 1462 1464 1406 1464 1484 1508 1442 1453 1448 1438 1436 1457 1376 1440 1427 1453 1415 1452 1374 1362 1465 1457 1420 1441 1483 1509 1459 1511 1413 1477 1384 1506 1472 1445 1515 1499 1442 1408 1483 1420 1409 1417 1434 1398 1413 1495 1419 1479 1406 1437 1464 1402 1372 1425 1379 1385 1456 1468 1395 1376 1403 1377 1431 1401 1417 1415 1444 1398 1472 1372 1428 1514 1430 1356 1442 1468 1444 1369 1354 1411 1424 1418 1452 1411 1367 1403 1386 1318 1388 1445 1425 1488 1392 1347 1424 1463 1461 1430 1412 1450 1413 1452 1410 1407 1389 1494 1441 1428 1439 1477 1395 1431 1462 1391 1310 1408 1410 1432 1394 1386 1422 1388 1528 1475 1458 1410 1409 1430 1414 1371 1406 1491 1396 1512 1398 1404 1424 1470 1434 1450 1371 1377 1401 1416 1434 1438 1458 1386 1472 1416 1372 1418 1385 1504 1401 1418 1364 1449 1428 1434 1353 1439 1408 1439 1418 1423 1459 1363 1466 1400 1382 1435 1421 1355 1495 1481 1413 1373 1353 1441 1460 1369 1387 1416 1412 1447 1351 1489 1422 1400 1480 1445 1451 1477 1390 1399 1415 1517 1397 1461 1421 1440 1378 1409 1438 1371 1448 1447 1476 1467 1478 1428 1448 1393 1472 1474 1505 1395 1370 1382 1359 1419 1424 1390 1384 1424 1438 1392 1387 1409 1413 1484 1415 1473 1348 1422 1439 1482 1451 1390 1471 1439 1478 1469 1414 1452 1489 1428 1417 1432 1421 1394 1433 1374 1463 1432 1447 1388 1433 1379 1483 1411 1370 1396 1441 1460 1435 1404 1376 1486 1356 1413 1419 1387 1399 1439 1413 1497 1382 1445 1438 1381 1436 1427 1415 1438 1389 1481 1498 1438 1422 1481 1398 1432 1456 1414 1416 1420 1482 1364 1475 1390 1394 1406 1402 1426 1359 1437 1420 1373 1368 1396 1446 1398 1407 1514 1462 1468 1443 1404 1373 1425 1386 1479 1437 1421 1400 1470 1414 1483 1423 1521 1435 1435 1401 1414 1435 1488 1398 1413 1391 1442 1515 1410 1447 1473 1530 1467 1418 1415 1348 1461 1388 1426 1438 1379 1398 1436 1444 1464 1383 1387 1410 1412 1365 1441 1436 1432 1428 1478 1498 1458 1437 1458 1429 1422 1491 1429 1466 1442 1472 1465 1443 1431 1403 1391 1462 1465 1400 1455 1432 1423 1381 1382 1482 1359 1386 1392 1433 1480 1403 1476 1460 1474 1436 1482 1396 1452 1436 1473 1392 1443 1464 1427 1407 1402 1451 1462 1502 1465 1402 1466 1478 1434 1456 1496 1400 1463 1435 1432 1462 1452 1450 1516 1419 1379 1504 1488 1425 1493 1417 1473 1423 1464 1429 1376 1467 1436 1361 1393 1438 1417 1409 1455 1380 1401 1380 1402 1422 1476 1428 1446 1403 1430 1466 1415 1447 1437 1425 1472 1475 1441 1448 1440 1518 1397 1464 1421 1412 1447 1452 1429 1469 1427 1424 1448 1463 1461 1460 1437 1415 1494 1496 1516 1513 1518 1443 1499 1485 1457 1499 1471 1544 1476 1516 1549 1498 1449 1559 1450 1421 1445 1439 1538 1514 1515 1476 1560 1466 1482 1431 1520 1412 1431 1400 1487 1468 1523 1457 1462 1509 1548 1482 1439 1518 1564 1477 1490 1504 1450 1465 1484 1566 1499 1493 1563 1481 1488 1537 1436 1602 1595 1557 1536 1549 1661 1594 1536 1562 1604 1515 1634 1550 1549 1574 1591 1598 1625 1638 1536 1593 1595 1557 1699 1581 1619 1582 1680 1615 1647 1597 1651 1546 1601 1552 1562 1572 1616 1629 1522 1541 1602 1487 1461 1458 1585 1518 1466 1494 1500 1534 1494 1527 1412 1482 1484 1499 1504 1489 1520 1543 1502 1425 1471 1443 1500 1467 1485 1477 1521 1535 1552 1460 1479 1437 1513 1492 1513 1494 1496 1467 1489 1512 1464 1501 1436 1432 1543 1449 1439 1481 1440 1548 1514 1465 1498 1533 1533 1465 1490 1555 1365 1521 1550 1546 1540 1441 1511 1509 1498 1548 1489 1452 1475 1460 1501 1496 1486 1497 1476 1586 1498 1481 1527 1492 1450 1510 1551 1406 1589 1567 1504 1506 1495 1547 1517 1485 1485 1476 1545 1513 1448 1411 1524 1486 1447 1534 1421 1442 1481 1485 1494 1399 1461 1532 1435 1531 1514 1471 1516 1506 1485 1488 1473 1456 1513 1456 1497 1528 1482 1461 1462 1454 1534 1453 1446 1463 1502 1501 1460 1399 1484 1443 1473 1477 1486 1505 1485 1553 1482 1532 1419 1532 1485 1490 1492 1425 1384 1448 1445 1491 1479 1443 1412 1503 1489 1473 1466 1521 1423 1475 1488 1447 1449 1384 1449 1456 1352 1499 1483 1497 1495 1489 1432 1458 1525 1452 1526 1473 1483 1440 1483 1520 1508 1476 1501 1426 1455 1383 1513 1561 1477 1524 1519 1520 1544 1538 1535 1538 1536 1519 1553 1540 1514 1574 1584 1590 1616 1581 1601 1592 1588 1594 1687 1651 1622 1657 1722 1714 1636 1634 1701 1682 1700 1671 1717 1755 1718 1816 1754 1802 1886 1896 1793 1923 1875 1912 1941 1971 1881 1960 1964 1831 1837 1861 1957 1915 1809 1890 1848 1808 1831 1834 1835 1718 1774 1746 1719 1718 1674 1692 1701 1578 1624 1665 1610 1604 1564 1611 1652 1584 1548 1578 1525 1524 1496 1578 1501 1527 1551 1521 1519 1535 1539 1550 1508 1451 1525 1584 1543 1513 1610 1580 1512 1605 1569 1559 1592 1489 1519 1502 1499 1556 1504 1495 1512 1481 1480 1499 1491 1467 1446 1494 1536 1509 1547 1539 1526 1571 1572 1506 1580 1484 1539 1474 1530 1466 1482 1488 1556 1473 1447 1487 1549 1482 1533 1485 1551 1571 1516 1454 1452 1489 1460 1515 1516 1611 1486 1500 1413 1557 1520 1493 1500 1471 1493 1421 1490 1464 1486 1535 1435 1477 1539 1523 1477 1521 1470 1504 1527 1482 1428 1459 1490 1527 1489 1446 1393 1442 1446 1497 1501 1470 1563 1483 1499 1472 1510 1464 1551 1507 1493 1476 1518 1556 1474 1418 1538 1462 1515 1562 1470 1415 1493 1492 1449 1531 1472 1583 1471 1513 1550 1505 1615 1481 1499 1490 1516 1502 1524 1565 1457 1508 1477 1545 1525 1585 1594 1557 1680 1517 1600 1581 1580 1599 1598 1589 1601 1591 1647 1614 1537 1603 1560 1590 1555 1559 1532 1521 1524 1607 1529 1538 1533 1592 1517 1492 1443 1540 1504 1481 1464 1447 1402 1453 1555 1482 1425 1477 1446 1416 1484 1560 1499 1528 1516 1528 1489 1470 1494 1457 1486 1433 1420 1450 1525 1388 1457 1518 1450 1478 1445 1521 1495 1444 1477 1416 1396 1449 1472 1450 1489 1436 1469 1384 1531 1509 1492 1508 1506 1434 1482 1482 1493 1500 1451 1487 1472 1458 1454 1512 1459 1438 1454 1468 1384 1462 1414 1461 1432 1424 1454 1484 1520 1524 1405 1533 1551 1462 1444 1432 1485 1554 1445 1460 1497 1483 1479 1472 1474 1469 1435 1452 1496 1460 1417 1446 1436 1430 1463 1412 1550 1423 1393 1458 1450 1493 1537 1501 1431 1512 1498 1576 1384 1437 1421 1446 1459 1483 1428 1456 1457 1439 1482 1456 1444 1470 1509 1497 1477 1374 1461 1429 1424 1500 1416 1474 1393 1513 1452 1402 1449 1478 1430 1484 1429 1486 1488 1485 1497 1432 1490 1476 1477 1432 1450 1434 1447 1463 1426 1462 1498 1510 1440 1511 1427 1423 1518 1496 1483 1462 1457 1416 1437 1378 1501 1483 1404 1501 1535 1512 1467 1454 1491 1457 1435 1448 1485 1459 1489 1440 1472 1490 1452 1416 1405 1485 1380 1435 1411 1364 1468 1491 1520 1422 1473 1477 1392 1383 1506 1438 1474 1459 1379 1457 1386 1436 1511 1438 1441 1443 1537 1455 1448 1400 1436 1414 1420 1402 1440 1443 1493 1476 1471 1502 1507 1433 1391 1416 1467 1417 1522 1482 1463 1488 1433 1373 1447 1384 1456 1472 1494 1440 1475 1399 1439 1460 1463 1448 1534 1451 1477 1395 1485 1505 1517 1523 1429 1435 1487 1430 1443 1446 1379 1445 1448 1471 1466 1494 1415 1414 1503 1405 1408 1504 1415 1484 1487 1468 1441 1412 1453 1461 1466 1538 1510 1488 1424 1486 1528 1443 1452 1529 1439 1469 1445 1458 1448 1441 1416 1502 1407 1517 1435 1453 1467 1456 1465 1523 1417 1437 1484 1536 1427 1480 1478 1462 1409 1415 1444 1520 1437 1398 1431 1444 1472 1385 1479 1526 1413 1437 1499 1480 1472 1509 1508 1496 1441 1509 1515 1491 1491 1521 1442 1451 1520 1433 1452 1429 1466 1457 1445 1517 1460 1404 1512 1479 1517 1397 1505 1483 1456 1432 1485 1450 1463 1528 1543 1416 1495 1480 1442 1455 1497 1452 1458 1423 1479 1490 1425 1464 1495 1474 1546 1503 1446 1503 1484 1458 1476 1511 1564 1487 1488 1486 1431 1448 1521 1467 1416 1492 1528 1486 1427 1479 1494 1424 1446 1450 1442 1453 1581 1480 1448 1407 1483 1506 1442 1471 1449 1431 1502 1481 1468 1530 1414 1474 1422 1500 1498 1539 1463 1436 1500 1572 1432 1470 1444 1461 1574 1505 1427 1488 1433 1433 1494 1500 1532 1556 1487 1457 1568 1474 1554 1580 1541 1538 1488 1485 1553 1536 1526 1599 1569 1618 1633 1490 1558 1527 1596 1587 1467 1522 1460 1571 1496 1487 1573 1598 1473 1512 1503 1533 1510 1569 1608 1558 1468 1518 1518 1556 1527 1596 1536 1483 1410 1523 1568 1543 1482 1451 1473 1456 1481 1493 1545 1489 1517 1515 1550 1566 1516 1537 1480 1481 1449 1465 1502 1500 1467 1500 1540 1463 1571 1495 1492 1502 1493 1467 1492 1472 1490 1446 1413 1482 1470 1531 1515 1451 1420 1497 1453 1465 1506 1464 1442 1532 1520 1524 1510 1477 1453 1448 1503 1495 1531 1460 1509 1425 1536 1513 1532 1430 1438 1506 1472 1505 1406 1477 1466 1498 1416 1587 1577 1474 1479 1480 1463 1504 1486 1491 1487 1569 1469 1532 1503 1498 1491 1494 1500 1464 1444 1439 1495 1567 1513 1482 1474 1525 1497 1451 1413 1451 1522 1461 1471 1471 1496 1521 1420 1550 1476 1455 1550 1517 1554 1429 1505 1524 1461 1441 1519 1495 1482 1478 1556 1499 1501 1499 1430 1456 1507 1412 1490 1548 1563 1491 1445 1470 1400 1420 1407 1499 1448 1498 1471 1538 1466 1459 1489 1475 1427 1535 1496 1486 1464 1461 1394 1479 1459 1428 1504 1507 1507 1460 1505 1520 1479 1405 1510 1378 1435 1444 1460 1553 1527 1508 1486 1486 1456 1486 1498 1460 1473 1509 1530 1460 1528 1459 1452 1486 1403 1478 1466 1471 1514 1431 1456 1460 1522 1504 1482 1522 1411 1417 1523 1519 1528 1430 1480 1508 1522 1532 1549 1418 1523 1470 1476 1574 1484 1474 1491 1445 1474 1494 1481 1518 1525 1512 1486 1513 1592 1530 1524 1511 1562 1612 1531 1474 1543 1519 1525 1559 1509 1584 1523 1496 1529 1586 1577 1608 1569 1571 1561 1590 1606 1647 1612 1620 1640 1605 1716 1596 1696 1624 1673 1696 1651 1634 1647 1682 1639 1676 1667 1615 1754 1703 1727 1674 1709 1678 1734 1665 1735 1682 1718 1652 1630 1609 1640 1605 1656 1621 1589 1608 1583 1624 1706 1631 1686 1581 1557 1528 1620 1483 1547 1576 1526 1477 1523 1571 1601 1571 1542 1494 1488 1552 1561 1483 1561 1485 1475 1506 1518 1434 1509 1535 1582 1498 1575 1596 1479 1519 1517 1545 1452 1515 1573 1502 1493 1531 1543 1512 1540 1518 1530 1506 1451 1480 1517 1443 1533 1523 1541 1534 1599 1502 1474 1531 1536 1458 1471 1517 1579 1590 1489 1521 1530 1504 1560 1489 1513 1512 1516 1539 1507 1504 1422 1528 1549 1467 1514 1511 1469 1530 1441 1550 1495 1488 1540 1489 1552 1593 1469 1539 1533 1464 1465 1556 1555 1499 1576 1529 1517 1471 1496 1484 1493 1547 1459 1568 1439 1569 1513 1469 1482 1595 1468 1487 1483 1446 1535 1521 1557 1554 1505 1496 1564 1552 1505 1548 1485 1487 1547 1544 1520 1576 1536 1550 1565 1462 1532 1565 1510 1514 1517 1491 1507 1594 1469 1560 1421 1484 1556 1441 1502 1547 1381 1484 1450 1523 1523 1534 1526 1564 1576 1458 1569 1560 1530 1512 1464 1526 1397 1429 1499 1524 1552 1415 1443 1519 1547 1474 1509 1529 1537 1472 1494 1545 1498 1547 1477 1590 1552 1544 1520 1445 1471 1507 1506 1521 1546 1497 1485 1527 1546 1507 1478 1552 1533 1506 1472 1496 1490 1548 1520 1534 1554 1463 1503 1463 1555 1532 1478 1462 1461 1505 1490 1544 1498 1485 1551 1451 1512 1508 1585 1519 1512 1535 1520 1540 1545 1550 1497 1507 1511 1551 1512 1550 1586 1517 1477 1528 1497 1500 1532 1554 1473 1496 1419 1532 1596 1591 1402 1497 1522 1575 1470 1567 1475 1506 1474 1535 1487 1511 1403 1528 1491 1473 1478 1528 1503 1545 1576 1468 1506 1521 1500 1487 1437 1508 1481 1469 1531 1534 1537 1556 1476 1493 1518 1530 1629 1479 1438 1489 1497 1476 1526 1446 1506 1555 1599 1490 1473 1481 1489 1531 1531 1442 1469 1521 1568 1512 1484 1486 1543 1484 1482 1539 1477 1454 1523 1498 1508 1460 1482 1539 1569 1536 1496 1524 1458 1510 1548 1551 1479 1475 1501 1485 1576 1560 1503 1524 1550 1497 1530 1524 1544 1572 1526 1433 1527 1510 1519 1515 1506 1409 1612 1586 1462 1500 1563 1507 1481 1535 1447 1464 1560 1502 1555 1561 1528 1445 1537 1524 1472 1556 1534 1533 1535 1561 1578 1559 1520 1525 1459 1564 1504 1560 1594 1593 1539 1497 1394 1439 1489 1465 1474 1561 1546 1531 1452 1498 1426 1511 1541 1558 1542 1559 1551 1515 1561 1523 1504 1572 1513 1569 1548 1462 1500 1525 1514 1612 1515 1561 1449 1523 1557 1499 1529 1519 1559 1508 1517 1532 1498 1510 1460 1520 1495 1530 1553 1516 1531 1514 1484 1525 1616 1493 1528 1520 1462 1560 1459 1493 1544 1481 1532 1523 1595 1485 1500 1514 1522 1509 1487 1550 1515 1564 1576 1578 1554 1520 1537 1441 1489 1517 1559 1493 1558 1498 1528 1558 1568 1549 1519 1438 1477 1467 1519 1519 1480 1534 1502 1543 1516 1528 1550 1537 1570 1552 1541 1544 1509 1471 1524 1479 1545 1517 1546 1581 1515 1497 1520 1543 1523 1506 1488 1472 1520 1523 1547 1532 1517 1499 1573 1561 1543 1540 1560 1503 1472 1498 1444 1493 1522 1489 1445 1534 1497 1623 1571 1569 1557 1478 1567 1528 1541 1509 1560 1535 1579 1577 1519 1573 1494 1548 1567 1507 1479 1501 1581 1470 1550 1562 1530 1485 1517 1558 1531 1492 1496 1533 1529 1567 1516 1575 1532 1460 1499 1516 1643 1540 1539 1497 1571 1559 1586 1510 1518 1574 1514 1567 1549 1577 1498 1485 1572 1558 1609 1598 1580 1521 1491 1544 1643 1566 1600 1560 1554 1641 1532 1664 1512 1597 1644 1593 1589 1602 1552 1588 1560 1634 1570 1592 1578 1663 1527 1630 1606 1618 1659 1571 1593 1616 1608 1597 1585 1640 1602 1549 1631 1587 1622 1559 1636 1609 1619 1542 1601 1612 1640 1601 1549 1607 1564 1590 1621 1534 1551 1561 1558 1633 1621 1593 1684 1632 1589 1577 1588 1585 1700 1660 1620 1634 1655 1545 1615 1590 1581 1613 1564 1639 1605 1590 1608 1601 1601 1639 1641 1601 1626 1552 1575 1606 1551 1641 1577 1567 1521 1517 1607 1590 1627 1609 1626 1595 1626 1589 1588 1630 1605 1521 1573 1581 1592 1555 1587 1501 1562 1541 1537 1561 1587 1638 1629 1604 1615 1583 1562 1519 1544 1543 1561 1492 1596 1598 1558 1488 1558 1653 1574 1547 1572 1543 1570 1582 1566 1541 1594 1589 1566 1547 1654 1570 1583 1573 1583 1569 1604 1577 1555 1603 1599 1542 1597 1511 1539 1481 1562 1592 1613 1554 1549 1569 1594 1593 1630 1529 1596 1646 1549 1575 1509 1655 1531 1651 1561 1557 1562 1528 1541 1570 1634 1508 1607 1532 1603 1592 1642 1512 1518 1480 1593 1607 1618 1543 1532 1518 1586 1565 1503 1538 1609 1599 1610 1568 1607 1655 1519 1582 1575 1556 1552 1604 1565 1641 1591 1632 1608 1593 1543 1584 1559 1623 1610 1559 1628 1559 1589 1577 1600 1616 1580 1557 1635 1607 1615 1602 1530 1608 1664 1629 1585 1569 1616 1581 1580 1517 1615 1625 1573 1527 1658 1529 1623 1521 1571 1544 1574 1610 1588 1586 1560 1635 1635 1616 1651 1633 1618 1619 1680 1634 1678 1663 1628 1711 1595 1722 1650 1708 1704 1705 1842 1726 1736 1720 1773 1823 1879 1811 1871 1851 1865 1840 1825 1881 1870 1890 1933 2009 1950 2038 2092 1997 1995 2059 2051 2043 2002 2026 2065 1944 1913 2019 1970 1963 1930 1902 1933 1837 1929 1913 1883 1903 1888 1765 1900 1840 1883 1843 1861 1768 1805 1783 1772 1790 1850 1754 1756 1765 1744 1678 1732 1609 1633 1674 1736 1702 1640 1627 1680 1652 1627 1717 1631 1695 1616 1599 1633 1685 1641 1617 1664 1619 1682 1592 1676 1623 1626 1700 1596 1645 1649 1660 1612 1588 1598 1624 1586 1653 1621 1618 1681 1624 1673 1611 1586 1596 1599 1581 1622 1678 1638 1639 1619 1612 1638 1631 1692 1580 1613 1604 1632 1589 1641 1643 1617 1634 1589 1670 1578 1597 1576 1592 1649 1628 1648 1595 1583 1538 1570 1561 1643 1649 1626 1577 1598 1587 1661 1559 1650 1605 1641 1681 1571 1566 1589 1581 1556 1606 1615 1609 1603 1541 1620 1620 1629 1649 1695 1651 1616 1566 1626 1643 1590 1662 1601 1589 1606 1624 1624 1621 1611 1659 1633 1648 1606 1619 1665 1598 1653 1536 1584 1688 1659 1607 1718 1665 1700 1686 1673 1627 1645 1627 1586 1605 1628 1628 1735 1673 1660 1668 1604 1658 1613 1642 1643 1611 1648 1561 1665 1552 1668 1620 1585 1662 1593 1637 1553 1580 1533 1619 1628 1566 1639 1597 1590 1541 1590 1525 1621 1572 1595 1597 1571 1600 1618 1645 1562 1590 1622 1560 1587 1609 1584 1674 1646 1658 1602 1565 1595 1613 1544 1614 1549 1598 1618 1599 1576 1553 1578 1563 1565 1636 1550 1563 1624 1490 1544 1536 1552 1546 1587 1533 1588 1580 1549 1567 1582 1551 1569 1583 1602 1661 1632 1582 1598 1613 1563 1575 1596 1623 1547 1538 1568 1589 1597 1562 1548 1517 1518 1606 1594 1548 1564 1563 1586 1558 1576 1569 1559 1589 1590 1611 1646 1644 1579 1602 1477 1568 1568 1552 1594 1573 1538 1614 1620 1602 1669 1566 1586 1524 1580 1667 1574 1568 1588 1589 1566 1503 1630 1574 1641 1628 1520 1548 1619 1622 1539 1552 1559 1572 1588 1560 1554 1565 1558 1637 1591 1547 1592 1618 1542 1661 1564 1567 1546 1579 1606 1531 1489 1583 1618 1692 1562 1590 1542 1602 1533 1591 1535 1575 1599 1577 1537 1582 1580 1606 1609 1613 1596 1487 1625 1570 1621 1531 1582 1639 1577 1517 1581 1497 1610 1569 1604 1589 1562 1581 1602 1603 1609 1573 1537 1627 1565 1588 1631 1547 1612 1555 1566 1569 1677 1536 1586 1588 1548 1727 1663 1474 1568 1605 1585 1582 1578 1575 1556 1573 1581 1646 1610 1625 1569 1618 1553 1585 1524 1574 1553 1596 1548 1580 1544 1561 1576 1578 1652 1559 1573 1554 1640 1505 1588 1607 1556 1561 1587 1632 1611 1626 1578 1563 1647 1600 1551 1639 1576 1553 1571 1542 1525 1566 1571 1580 1628 1570 1554 1564 1586 1561 1597 1631 1532 1534 1585 1596 1577 1636 1650 1566 1622 1512 1631 1585 1524 1579 1657 1618 1575 1553 1585 1624 1606 1529 1577 1531 1544 1633 1605 1611 1560 1567 1622 1511 1631 1618 1609 1563 1574 1653 1521 1628 1553 1662 1564 1582 1566 1544 1477 1604 1615 1584 1533 1511 1591 1526 1563 1573 1631 1581 1637 1596 1527 1527 1517 1604 1601 1551 1581 1521 1542 1601 1552 1505 1560 1572 1561 1598 1612 1620 1624 1597 1589 1621 1583 1601 1620 1596 1592 1552 1638 1524 1529 1679 1591 1549 1624 1594 1594 1542 1591 1563 1594 1585 1597 1665 1620 1592 1552 1638 1561 1588 1569 1581 1657 1699 1561 1564 1635 1580 1631 1596 1575 1609 1615 1668 1595 1614 1615 1686 1621 1602 1604 1497 1565 1627 1660 1561 1657 1593 1569 1521 1624 1608 1609 1569 1602 1605 1645 1601 1630 1630 1696 1598 1670 1660 1602 1690 1620 1563 1715 1679 1627 1707 1700 1710 1571 1659 1597 1628 1648 1682 1604 1635 1565 1717 1655 1609 1676 1623 1637 1621 1608 1676 1607 1602 1603 1584 1564 1628 1580 1597 1625 1657 1535 1663 1595 1669 1641 1601 1643 1668 1611 1557 1663 1583 1553 1602 1633 1587 1651 1646 1629 1661 1636 1596 1568 1645 1580 1578 1630 1605 1612 1610 1600 1620 1607 1568 1539 1636 1584 1574 1550 1638 1609 1640 1590 1585 1599 1603 1543 1588 1593 1686 1629 1624 1661 1716 1543 1568 1649 1497 1586 1632 1611 1669 1617 1578 1576 1596 1542 1556 1558 1553 1585 1623 1602 1546 1668 1598 1605 1587 1618 1607 1590 1588 1607 1620 1601 1600 1508 1579 1666 1602 1603 1589 1639 1551 1629 1614 1628 1622 1555 1591 1629 1532 1573 1667 1511 1617 1596 1653 1606 1564 1579 1625 1629 1581 1510 1561 1491 1555 1654 1640 1654 1647 1614 1622 1525 1547 1569 1620 1572 1583 1592 1616 1545 1579 1591 1632 1610 1572 1634 1627 1559 1585 1575 1645 1606 1571 1600 1598 1602 1609 1597 1648 1562 1659 1630 1570 1589 1659 1560 1595 1582 1571 1646 1651 1588 1596 1592 1531 1599 1576 1551 1596 1535 1635 1670 1624 1579 1629 1682 1564 1635 1547 1592 1577 1562 1568 1571 1690 1647 1575 1607 1587 1604 1590 1628 1578 1590 1661 1652 1655 1614 1639 1644 1651 1616 1635 1696 1656 1618 1644 1605 1615 1552 1537 1555 1658 1595 1519 1518 1647 1719 1664 1699 1671 1547 1624 1686 1642 1687 1635 1609 1666 1660 1732 1661 1747 1709 1679 1711 1769 1674 1779 1837 1751 1756 1802 1748 1800 1805 1912 1819 1870 1871 1803 1889 1890 1860 1975 2003 1944 1896 1828 1964 1818 1958 1894 1984 1866 1930 1905 1935 1872 1842 1890 1898 1846 1864 1881 1853 1829 1807 1859 1809 1757 1805 1827 1806 1800 1797 1791 1792 1777 1761 1816 1783 1714 1764 1762 1797 1692 1716 1746 1780 1673 1649 1709 1719 1713 1708 1604 1700 1649 1638 1620 1665 1581 1698 1670 1605 1650 1657 1640 1552 1647 1690 1648 1698 1499 1615 1571 1585 1652 1718 1612 1646 1679 1642 1669 1654 1649 1764 1687 1789 1648 1655 1586 1612 1635 1622 1671 1630 1565 1632 1689 1653 1592 1579 1662 1590 1712 1587 1633 1704 1600 1700 1635 1676 1551 1608 1596 1647 1565 1633 1616 1588 1622 1665 1596 1760 1604 1586 1684 1683 1636 1687 1631 1626 1679 1629 1642 1664 1672 1658 1696 1666 1723 1625 1625 1573 1597 1653 1711 1635 1630 1662 1650 1653 1662 1656 1649 1725 1662 1645 1612 1667 1606 1677 1648 1675 1714 1557 1603 1653 1629 1611 1621 1686 1674 1606 1670 1662 1625 1634 1708 1671 1732 1607 1688 1675 1694 1610 1663 1633 1666 1664 1631 1612 1644 1696 1675 1668 1716 1609 1721 1627 1552 1653 1645 1613 1580 1680 1662 1734 1644 1631 1659 1580 1629 1593 1641 1708 1689 1692 1682 1725 1569 1686 1605 1641 1599 1703 1579 1746 1681 1627 1673 1644 1630 1591 1596 1688 1614 1681 1668 1680 1629 1729 1720 1565 1601 1683 1615 1632 1686 1653 1621 1640 1546 1637 1659 1637 1560 1673 1633 1579 1662 1566 1593 1597 1678 1679 1591 1738 1646 1634 1642 1596 1589 1623 1677 1556 1572 1594 1584 1708 1635 1646 1605 1608 1635 1647 1517 1561 1533 1696 1577 1533 1643 1613 1681 1691 1684 1555 1622 1652 1646 1549 1638 1673 1559 1683 1640 1617 1571 1545 1588 1559 1605 1655 1608 1649 1599 1596 1648 1556 1605 1635 1611 1641 1627 1675 1582 1570 1603 1581 1698 1613 1606 1575 1579 1626 1625 1657 1637 1552 1558 1572 1699 1635 1559 1608 1598 1668 1671 1611 1592 1589 1623 1610 1649 1620 1624 1613 1625 1531 1638 1593 1630 1571 1620 1524 1518 1609 1650 1603 1621 1635 1592 1663 1573 1627 1635 1639 1613 1607 1675 1624 1591 1658 1664 1672 1669 1659 1584 1584 1653 1634 1620 1597 1587 1578 1615 1562 1633 1656 1586 1607 1615 1668 1533 1566 1617 1632 1563 1602 1691 1730 1625 1636 1621 1631 1677 1546 1633 1627 1683 1661 1632 1633 1650 1641 1643 1650 1557 1588 1624 1662 1644 1587 1651 1619 1624 1631 1610 1625 1563 1661 1666 1633 1554 1616 1606 1612 1652 1603 1653 1699 1591 1611 1653 1663 1598 1588 1633 1587 1651 1648 1591 1677 1714 1572 1662 1630 1617 1675 1629 1603 1716 1595 1651 1644 1655 1603 1657 1627 1619 1629 1586 1582 1653 1614 1572 1630 1595 1612 1531 1587 1591 1671 1603 1648 1724 1581 1611 1612 1601 1711 1668 1704 1650 1580 1644 1652 1665 1599 1659 1682 1598 1628 1590 1653 1637 1669 1605 1686 1690 1656 1561 1621 1626 1623 1703 1573 1621 1631 1541 1637 1657 1686 1658 1695 1592 1653 1635 1645 1666 1661 1604 1632 1595 1666 1591 1548 1617 1685 1726 1611 1633 1663 1618 1693 1573 1652 1651 1656 1651 1664 1626 1643 1633 1708 1573 1631 1587 1659 1659 1633 1581 1618 1646 1657 1630 1649 1657 1676 1597 1662 1676 1653 1582 1644 1688 1694 1692</counts>
			</dataPoints>
		</scan>
	</xrdMeasurement>
</xrdMeasurements>
