<?xml version="1.0"?>
<xrdMeasurements xmlns="http://www.xrdml.com/XRDMeasurement/2.3" xmlns:xsi="http://www.w3.org/2001/XMLSchema-instance" xsi:schemaLocation="http://www.xrdml.com/XRDMeasurement/2.3 http://www.xrdml.com/XRDMeasurement/2.3/XRDMeasurement.xsd" status="Completed" recordIdentifier="{A8562768-10EF-4CF2-866F-26BCC2772815}">
	<comment>
		<entry/>
	</comment>
	<sample type="To be analyzed">
		<id>GPSS_Li1p3In0p4Co0p1Nb0p1Mn0p3Fe0p1Cl4_122625_694e531dae15af25ac374617</id>
		<name></name>
		<preparedBy></preparedBy>
	</sample>
	<xrdMeasurement measurementType="Scan" status="Completed" sampleMode="Reflection">
		<usedWavelength intended="K-Alpha 1">
			<kAlpha1 unit="Angstrom">1.5405980</kAlpha1>
			<kAlpha2 unit="Angstrom">1.5444260</kAlpha2>
			<kBeta unit="Angstrom">1.3922500</kBeta>
			<ratioKAlpha2KAlpha1>0.5000</ratioKAlpha2KAlpha1>
		</usedWavelength>
		<incidentBeamPath>
			<radius unit="mm">145.00</radius>
			<xRayTube id="1010048" name="Empyrean Cu LFF HR (9430 033 7310x)">
				<tension unit="kV">40.0</tension>
				<current unit="mA">15.0</current>
				<anodeMaterial>Cu</anodeMaterial>
				<focus type="Line">
					<length unit="mm">12.0</length>
					<width unit="mm">0.4</width>
					<takeOffAngle unit="deg">6.0</takeOffAngle>
				</focus>
			</xRayTube>
			<sollerSlit id="21010002" name="Soller slits 0.04 rad.">
				<opening unit="rad">0.0400</opening>
			</sollerSlit>
			<mask id="22031000" name="Fixed mask 13 mm">
				<width unit="mm">9.00</width>
			</mask>
			<divergenceSlit id="22120001" name="Divergence slit 1°" xsi:type="fixedDivergenceSlitType">
				<distanceToSample unit="mm">50.00</distanceToSample>
				<height unit="mm">1.52</height>
			</divergenceSlit>
		</incidentBeamPath>
		<sampleMovement xsi:type="spinningSampleMovementType">
			<spinnerRevolutionTime unit="seconds">1.0</spinnerRevolutionTime>
		</sampleMovement>
		<diffractedBeamPath>
			<radius unit="mm">145.00</radius>
			<antiScatterSlit id="22090040" name="AS slit 9 mm (PIXcel)" xsi:type="fixedAntiScatterSlitType">
				<height unit="mm">9.00</height>
			</antiScatterSlit>
			<sollerSlit id="21020003" name="Large Soller slits 0.04 rad.">
				<opening unit="rad">0.0400</opening>
			</sollerSlit>
			<filter id="20030001" name="Large beta-filter Nickel">
				<material>Ni</material>
				<thickness unit="mm">0.020</thickness>
			</filter>
			<detector id="7010019" name="PIXcel1D-Medipix3 detector" xsi:type="rtmsDetectorType">
				<phd unit="keV">
					<lowerLevel>4.02</lowerLevel>
					<upperLevel>11.27</upperLevel>
				</phd>
				<mode>Scanning</mode>
				<activeLength unit="deg">5.542</activeLength>
			</detector>
		</diffractedBeamPath>
		<scan appendNumber="0" mode="Continuous" scanAxis="Gonio" status="Completed">
			<header>
				<startTimeStamp>2025-12-27T13:04:17-08:00</startTimeStamp>
				<endTimeStamp>2025-12-27T13:12:25-08:00</endTimeStamp>
				<author>
					<name>AutomatedUser</name>
				</author>
				<source>
					<applicationSoftware version="1.7b (136)">PANalytical Aeris Instrument Suite</applicationSoftware>
					<instrumentControlSoftware version="3.2.00000000 20240306">AERIS</instrumentControlSoftware>
					<instrumentID>950485</instrumentID>
				</source>
			</header>
			<dataPoints>
				<positions axis="2Theta" unit="deg">
					<startPosition>10.00943322</startPosition>
					<endPosition>99.99442286</endPosition>
				</positions>
				<positions axis="Omega" unit="deg">
					<startPosition>5.00471661</startPosition>
					<endPosition>49.99721143</endPosition>
				</positions>
				<commonCountingTime unit="seconds">12.495</commonCountingTime>
				<counts unit="counts">3149 3091 3104 3125 3163 3118 3183 3190 3194 3256 3030 3276 3111 3227 3139 3187 3136 3122 3150 3172 3116 3169 3106 3117 3100 3111 3106 3157 3071 3134 3035 3195 3130 3141 3172 3179 3136 3164 3321 3194 3207 3225 3106 3251 3294 3125 3076 3091 3181 3214 3271 3226 3245 3216 3213 3148 3240 3249 3155 3271 3282 3286 3250 3152 3237 3233 3195 3255 3154 3284 3173 3178 3226 3241 3266 3230 3181 3217 3161 3163 3116 3280 3262 3292 3382 3212 3266 3297 3246 3259 3235 3306 3203 3262 3114 3290 3290 3142 3265 3218 3317 3194 3261 3237 3239 3213 3347 3292 3213 3353 3229 3213 3158 3209 3322 3353 3241 3340 3243 3298 3329 3290 3234 3289 3315 3219 3240 3195 3330 3302 3234 3334 3305 3370 3223 3319 3239 3304 3277 3301 3275 3165 3411 3224 3312 3328 3234 3394 3320 3272 3353 3325 3323 3229 3309 3233 3271 3236 3307 3252 3186 3212 3240 3233 3414 3245 3307 3314 3250 3184 3226 3245 3230 3172 3246 3240 3345 3211 3267 3159 3240 3339 3219 3338 3255 3198 3339 3233 3381 3160 3278 3235 3342 3123 3081 3225 3257 3240 3253 3361 3268 3188 3200 3350 3169 3272 3183 3269 3195 3178 3213 3202 3267 3218 3240 3180 3196 3192 3064 3231 3215 3226 3160 3127 3280 3170 3175 3196 3195 3195 3246 3166 3191 3126 3227 3215 3132 3136 3180 3169 3193 3085 3075 3157 3165 3255 3183 3204 3104 3064 3143 3247 3069 3134 3039 3069 3011 3160 3169 3125 3211 3203 3061 3147 3075 3141 3164 3129 3136 3187 3051 3139 3231 3111 3172 3164 3036 3045 3083 3143 3122 3178 3097 3132 3106 3207 3122 3102 3057 3028 3184 3147 3174 3134 3227 3157 3241 3079 3214 3060 3259 3277 3224 3154 3175 3256 3125 3154 3253 3192 3076 3203 3159 3272 3192 3178 3313 3285 3265 3333 3320 3178 3261 3225 3183 3290 3359 3224 3340 3244 3286 3309 3263 3340 3202 3232 3330 3301 3317 3302 3261 3428 3320 3299 3313 3186 3413 3323 3340 3264 3350 3400 3451 3354 3309 3342 3512 3431 3349 3418 3437 3530 3474 3466 3381 3424 3443 3514 3501 3450 3483 3535 3496 3447 3482 3633 3527 3444 3553 3557 3515 3571 3511 3594 3579 3594 3680 3704 3661 3611 3496 3730 3602 3599 3612 3571 3557 3699 3690 3558 3703 3663 3595 3597 3688 3729 3630 3669 3696 3753 3718 3711 3652 3797 3722 3726 3740 3843 3829 3863 3866 3939 3842 3906 3994 3974 3990 3958 4056 4118 4066 4078 4151 4044 4124 4137 4190 4283 4291 4234 4447 4470 4384 4421 4486 4564 4633 4640 4883 4719 4769 4850 4876 4933 4998 5010 5008 5058 5173 5233 5223 5249 5572 5392 5614 5481 5594 5574 5613 5516 5530 5425 5235 5334 5001 4742 4762 4805 4481 4382 4318 4190 4043 3932 3932 3946 3762 3934 3722 3819 3898 3941 3721 3798 3834 3829 3835 3780 3738 3816 3692 3694 3650 3699 3582 3780 3727 3654 3737 3698 3595 3697 3499 3638 3580 3502 3594 3520 3559 3597 3526 3501 3382 3481 3550 3551 3569 3439 3484 3436 3403 3426 3391 3522 3356 3362 3409 3336 3402 3566 3418 3420 3319 3399 3497 3362 3349 3367 3372 3409 3467 3344 3392 3312 3276 3306 3339 3398 3466 3321 3414 3251 3307 3323 3276 3379 3417 3436 3299 3370 3153 3230 3304 3346 3459 3275 3368 3367 3144 3343 3321 3240 3228 3318 3157 3247 3273 3225 3314 3217 3188 3203 3125 3082 3195 3204 3246 3132 3360 3184 3198 3333 3191 3267 3091 3190 3170 3226 3253 3326 3181 3197 3159 3215 3248 3129 3200 3210 3128 3227 3262 3197 3103 3175 3092 3206 3151 3196 3183 3064 3169 3193 3108 3268 3123 3023 3218 3268 3198 3164 3225 3180 3116 3183 3080 3176 3156 3123 3119 3173 3195 3184 3160 3254 3150 3099 3155 3155 3253 3039 3231 3128 3322 3186 3117 3181 3086 3190 3101 3083 3155 3107 3132 3170 3113 3149 3269 3084 3172 3020 3130 3183 3079 3113 3161 3255 3009 3105 3064 3076 3122 3169 3087 3110 3158 3148 3136 3162 3052 3110 3193 3101 3078 3182 3021 2979 3048 3066 3142 3108 3159 3061 3053 3121 3166 3038 3187 3076 3158 3082 3061 3150 3065 3026 3024 3051 3043 3012 3056 3078 3100 3026 3111 2974 3118 3082 3081 3003 3053 2958 3085 2992 2965 3015 3014 3033 3094 2998 3035 3061 2976 3097 3067 2964 3079 2917 3106 2974 2964 3057 2961 2934 2956 3019 2974 3111 3091 2983 2998 2893 2985 3077 3050 2994 2967 2939 3065 3033 2994 2971 3072 2922 3001 2884 2977 2970 3052 3003 3058 2979 3024 2985 2984 3010 2948 3002 2955 3003 3022 2912 2961 3060 3029 2988 2903 3037 2975 3010 3061 3011 3009 2972 2864 3004 2951 2917 3002 2980 2916 2885 2952 3053 2940 3065 3016 2896 3052 3017 2940 2847 2965 2921 3041 2901 2861 2953 2970 2941 2935 2919 2947 2994 2944 2945 2924 2949 2906 2920 2995 2859 2904 2924 2949 2880 2876 2966 2930 2956 2932 2857 2928 2944 2898 2943 2873 3003 2891 2922 2883 2888 2879 2885 2880 2905 2860 2793 2851 2904 2910 2800 2992 2880 2873 2927 2850 2881 2801 2868 2816 2860 2883 2872 2896 2818 2825 2825 2851 2766 2914 2851 2860 2873 2853 2817 2884 2936 2776 2806 2789 2999 2900 2904 2811 2898 2909 2795 2884 2753 2798 2771 2855 2808 2895 2837 2780 2735 2842 2775 2826 2866 2881 2810 2805 2813 2832 2774 2868 2725 2746 2823 2857 2771 2758 2745 2800 2692 2727 2845 2790 2869 2721 2866 2841 2769 2809 2847 2892 2783 2819 2780 2799 2710 2811 2757 2857 2727 2762 2765 2722 2794 2767 2768 2766 2820 2765 2806 2722 2799 2891 2848 2767 2775 2703 2764 2794 2759 2777 2796 2773 2772 2785 2744 2785 2790 2751 2673 2807 2617 2791 2776 2717 2820 2751 2827 2839 2811 2676 2716 2798 2836 2670 2815 2770 2751 2792 2690 2721 2724 2626 2698 2945 2675 2789 2715 2731 2864 2813 2801 2797 2844 2739 2799 2819 2748 2822 2808 2702 2731 2776 2765 2731 2675 2762 2829 2800 2717 2680 2817 2724 2876 2815 2794 2783 2759 2833 2726 2854 2853 2852 2776 2843 2857 2730 2901 2693 2789 2710 2773 2810 2839 2713 2863 2775 2813 2831 2821 2881 2798 2714 2770 2868 2874 2861 2773 2856 2862 2833 2824 2759 2819 2753 2832 2796 2780 2833 2832 2730 2856 2807 2808 2851 2833 2818 2853 2788 2796 2859 2873 2814 2811 2759 2748 2778 2857 2786 2741 2755 2776 2687 2883 2863 2729 2809 2750 2810 2740 2863 2678 2697 2816 2789 2768 2667 2802 2754 2721 2650 2785 2655 2843 2691 2747 2745 2770 2855 2783 2773 2700 2722 2675 2651 2743 2707 2715 2681 2686 2592 2774 2602 2765 2775 2639 2623 2667 2635 2722 2687 2661 2588 2616 2613 2661 2693 2667 2714 2638 2748 2670 2678 2638 2682 2595 2537 2588 2615 2630 2664 2660 2624 2614 2641 2617 2609 2694 2672 2612 2564 2473 2654 2625 2558 2660 2526 2591 2447 2605 2577 2484 2564 2615 2488 2623 2509 2469 2452 2605 2469 2537 2417 2578 2525 2480 2472 2428 2437 2441 2566 2443 2463 2437 2473 2452 2421 2388 2375 2457 2352 2465 2355 2387 2381 2426 2326 2424 2399 2421 2457 2332 2373 2435 2477 2372 2303 2377 2288 2343 2366 2446 2484 2458 2357 2409 2479 2356 2308 2427 2356 2304 2372 2427 2291 2366 2378 2339 2408 2228 2319 2306 2290 2303 2344 2279 2343 2313 2281 2306 2360 2289 2290 2242 2274 2273 2364 2286 2310 2397 2351 2363 2332 2354 2259 2250 2310 2269 2219 2210 2333 2256 2290 2256 2247 2275 2213 2311 2216 2263 2225 2188 2183 2253 2219 2290 2290 2269 2253 2261 2348 2201 2288 2290 2280 2191 2344 2288 2235 2239 2314 2373 2253 2289 2260 2233 2115 2305 2327 2264 2204 2290 2237 2258 2219 2208 2296 2188 2228 2276 2151 2295 2116 2183 2197 2227 2142 2201 2271 2210 2193 2281 2215 2192 2252 2215 2252 2129 2213 2204 2158 2211 2226 2249 2224 2258 2166 2200 2235 2203 2224 2275 2186 2209 2128 2308 2224 2194 2259 2162 2268 2262 2166 2170 2240 2177 2244 2288 2301 2259 2226 2210 2235 2216 2262 2142 2107 2066 2234 2098 2187 2159 2355 2164 2183 2220 2207 2268 2147 2179 2179 2330 2254 2214 2214 2230 2181 2204 2174 2239 2202 2122 2254 2230 2253 2166 2201 2199 2245 2168 2157 2155 2202 2214 2201 2216 2247 2330 2256 2171 2241 2150 2235 2170 2199 2220 2207 2196 2301 2261 2189 2266 2301 2114 2247 2169 2252 2271 2316 2187 2195 2176 2235 2282 2278 2215 2213 2208 2267 2183 2212 2158 2160 2282 2155 2252 2219 2258 2157 2241 2216 2248 2228 2213 2345 2187 2314 2242 2262 2247 2174 2113 2219 2217 2211 2106 2207 2208 2237 2176 2212 2243 2136 2225 2222 2177 2206 2229 2210 2143 2169 2165 2231 2092 2217 2139 2228 2163 2232 2204 2164 2228 2258 2204 2207 2117 2235 2145 2140 2211 2178 2200 2212 2112 2091 2112 2127 2034 2175 2082 2115 2170 2182 2089 2160 2097 2197 2055 2132 2170 2179 2118 2174 2159 2139 2079 2008 2070 2121 2096 2052 2122 2041 2117 2079 2048 2064 2074 2133 2050 2145 2031 2137 2072 2057 2065 2116 2109 1971 2048 2099 2055 2005 2066 2032 2039 1985 2021 2038 2074 2142 2018 2054 1992 2029 2096 1992 2001 2036 2082 2024 2001 2072 1927 2066 1937 2007 2020 2000 2052 1993 2034 1994 2024 1978 1949 2000 1975 1997 1919 2064 1924 1994 1962 1987 1998 1879 1978 1915 2036 1870 1947 1992 1974 1965 1900 1984 1965 1949 1957 1923 1991 1957 1940 1921 1844 1948 1976 1981 1912 1946 1896 1879 1968 1913 1986 1961 1936 1930 2023 1876 1903 1967 1993 2033 2020 2008 1981 2029 1980 2017 2098 2110 2074 2161 2027 2059 2026 2129 2064 2145 2222 2129 2137 2200 2227 2262 2166 2205 2261 2296 2286 2339 2307 2393 2483 2371 2477 2481 2467 2541 2514 2517 2604 2517 2529 2573 2612 2716 2631 2621 2584 2598 2631 2697 2619 2545 2602 2580 2580 2560 2503 2477 2296 2320 2218 2210 2116 2141 2159 2124 2081 1994 1995 1971 1974 1936 1936 1823 1931 1904 1875 1827 1933 1932 1854 1854 1973 1853 1928 1905 1882 1819 1934 1851 1809 1836 1835 1818 1794 1865 1846 1798 1801 1884 1786 1870 1868 1788 1817 1834 1801 1827 1858 1827 1843 1839 1843 1920 1849 1864 1851 1848 1921 1925 1944 1914 1944 1986 2008 1998 1932 2081 2056 2083 2071 2132 2226 2158 2104 2156 2231 2270 2309 2255 2311 2328 2326 2413 2474 2464 2540 2618 2515 2529 2647 2678 2621 2665 2687 2697 2794 2786 2771 2855 2919 2875 2910 2992 2880 2837 2951 2908 2971 3033 2924 2867 2831 2814 2847 2677 2622 2449 2464 2433 2361 2258 2173 2050 2022 2025 1911 1949 1912 1926 1834 1859 1723 1833 1715 1698 1666 1772 1794 1692 1796 1666 1769 1680 1692 1652 1632 1694 1737 1600 1729 1766 1675 1719 1723 1753 1733 1675 1754 1685 1690 1629 1585 1684 1656 1680 1641 1636 1709 1626 1695 1673 1651 1747 1620 1732 1692 1738 1602 1643 1575 1745 1605 1616 1705 1662 1835 1662 1668 1709 1674 1602 1675 1679 1661 1566 1660 1668 1666 1571 1627 1622 1678 1724 1663 1700 1684 1613 1657 1602 1718 1676 1631 1674 1689 1645 1646 1629 1603 1609 1633 1620 1657 1673 1596 1665 1672 1647 1613 1597 1611 1579 1595 1638 1653 1647 1674 1581 1658 1607 1673 1633 1688 1638 1542 1668 1586 1625 1645 1624 1620 1699 1622 1670 1563 1608 1650 1696 1590 1625 1657 1693 1636 1595 1606 1562 1646 1570 1617 1704 1622 1686 1619 1527 1570 1591 1551 1609 1643 1581 1595 1642 1578 1622 1593 1592 1582 1658 1627 1597 1598 1661 1557 1600 1586 1621 1520 1673 1581 1641 1611 1628 1607 1627 1561 1548 1654 1595 1633 1622 1581 1476 1579 1594 1588 1665 1607 1584 1592 1605 1625 1626 1611 1661 1563 1545 1566 1551 1573 1564 1582 1630 1568 1635 1576 1590 1606 1594 1546 1629 1511 1611 1613 1586 1569 1604 1583 1574 1678 1646 1508 1579 1621 1568 1602 1610 1604 1668 1564 1589 1555 1606 1587 1561 1543 1610 1517 1546 1599 1538 1616 1523 1576 1474 1560 1569 1594 1582 1603 1507 1524 1620 1505 1635 1613 1527 1532 1521 1512 1583 1548 1537 1577 1528 1554 1597 1523 1636 1594 1588 1565 1553 1619 1603 1536 1552 1549 1506 1585 1547 1569 1604 1601 1686 1606 1610 1595 1537 1581 1553 1633 1594 1621 1559 1575 1552 1609 1650 1551 1542 1573 1576 1629 1594 1613 1626 1660 1610 1618 1624 1651 1670 1591 1538 1609 1623 1567 1568 1627 1633 1590 1522 1614 1635 1602 1587 1609 1614 1573 1573 1625 1660 1648 1536 1563 1545 1612 1546 1671 1534 1619 1629 1661 1638 1727 1674 1607 1650 1662 1708 1682 1737 1683 1693 1701 1680 1762 1733 1754 1890 1777 1869 1838 1932 1979 2072 2086 2148 2180 2262 2278 2369 2494 2559 2669 2700 2806 2907 2980 2938 3064 3186 3377 3444 3589 3777 4067 4149 4550 4607 4669 4743 4772 5223 5213 5489 5627 5626 5649 5520 5533 5670 5790 5621 5821 5932 5837 6046 5980 5904 5940 5936 5969 5897 5868 5939 5921 5617 5590 5404 5295 5183 4916 4716 4366 4301 4057 3862 3539 3198 3174 2976 2762 2724 2470 2380 2220 2103 2141 2092 1978 1997 1806 1901 1776 1759 1763 1758 1735 1714 1721 1754 1687 1702 1723 1717 1702 1741 1737 1694 1702 1709 1745 1720 1677 1663 1703 1672 1649 1724 1660 1688 1698 1713 1631 1701 1711 1644 1710 1656 1719 1658 1649 1635 1705 1697 1661 1662 1684 1626 1625 1617 1633 1649 1610 1659 1600 1555 1558 1651 1546 1587 1627 1552 1576 1541 1557 1583 1530 1554 1646 1563 1575 1624 1609 1549 1635 1583 1641 1507 1629 1563 1581 1615 1490 1538 1493 1567 1514 1504 1577 1531 1553 1529 1529 1552 1554 1488 1461 1578 1526 1497 1563 1593 1587 1547 1598 1573 1504 1511 1668 1577 1489 1542 1512 1494 1563 1499 1591 1524 1490 1567 1552 1556 1534 1512 1597 1520 1460 1525 1631 1454 1455 1525 1490 1604 1589 1591 1556 1494 1534 1587 1549 1553 1492 1551 1508 1584 1530 1474 1559 1540 1498 1521 1539 1468 1495 1568 1576 1559 1544 1563 1456 1551 1439 1482 1515 1560 1502 1519 1467 1469 1553 1501 1548 1525 1485 1516 1510 1524 1516 1454 1481 1563 1558 1507 1558 1586 1553 1487 1582 1532 1568 1480 1437 1536 1462 1569 1524 1453 1544 1465 1495 1477 1487 1501 1580 1503 1515 1537 1521 1463 1549 1551 1487 1534 1507 1535 1520 1478 1478 1521 1521 1553 1566 1495 1526 1488 1575 1551 1550 1524 1565 1458 1484 1555 1528 1571 1522 1550 1592 1592 1509 1514 1553 1517 1588 1577 1553 1550 1558 1602 1566 1536 1657 1625 1540 1607 1590 1513 1580 1592 1531 1546 1594 1629 1656 1574 1604 1572 1604 1627 1626 1613 1596 1610 1588 1548 1549 1505 1601 1517 1550 1506 1527 1533 1612 1462 1469 1552 1471 1451 1471 1527 1542 1480 1544 1530 1489 1496 1529 1493 1500 1560 1502 1503 1469 1489 1550 1483 1464 1406 1510 1504 1502 1432 1426 1501 1489 1475 1473 1540 1540 1428 1522 1456 1502 1569 1460 1486 1434 1449 1454 1419 1540 1402 1567 1491 1506 1478 1523 1556 1457 1479 1523 1441 1477 1441 1428 1487 1436 1503 1448 1405 1510 1541 1472 1490 1452 1457 1405 1429 1396 1437 1458 1488 1552 1474 1479 1450 1460 1395 1475 1450 1466 1435 1454 1511 1462 1436 1473 1468 1414 1455 1446 1416 1502 1464 1468 1504 1440 1392 1437 1468 1510 1423 1468 1430 1499 1514 1404 1504 1513 1564 1471 1492 1508 1452 1534 1493 1507 1487 1494 1531 1494 1450 1438 1440 1483 1430 1460 1476 1492 1451 1432 1481 1526 1404 1484 1439 1444 1415 1449 1441 1492 1487 1524 1461 1456 1420 1433 1445 1402 1401 1550 1594 1461 1417 1558 1418 1495 1496 1433 1441 1471 1431 1454 1477 1425 1481 1533 1488 1480 1404 1404 1437 1458 1475 1495 1407 1470 1517 1490 1444 1454 1439 1437 1465 1455 1489 1427 1521 1469 1430 1381 1482 1413 1420 1456 1462 1463 1408 1471 1464 1477 1441 1489 1388 1488 1493 1510 1435 1510 1452 1474 1437 1537 1474 1466 1379 1458 1431 1432 1443 1480 1443 1450 1487 1507 1454 1431 1515 1516 1430 1486 1420 1426 1458 1496 1429 1428 1499 1467 1477 1479 1488 1464 1485 1437 1522 1450 1477 1466 1511 1491 1476 1454 1417 1481 1402 1416 1498 1435 1429 1411 1411 1469 1469 1423 1425 1417 1443 1416 1488 1493 1471 1510 1414 1447 1438 1468 1434 1430 1438 1425 1527 1421 1476 1477 1451 1414 1425 1410 1440 1390 1462 1477 1501 1483 1431 1474 1523 1450 1521 1464 1426 1420 1434 1457 1399 1474 1412 1483 1404 1390 1438 1472 1499 1428 1501 1460 1522 1449 1427 1503 1427 1415 1477 1507 1458 1414 1497 1422 1523 1380 1474 1427 1463 1446 1539 1432 1509 1457 1487 1428 1439 1378 1459 1406 1407 1345 1446 1417 1478 1487 1518 1469 1499 1472 1463 1424 1468 1373 1448 1411 1499 1487 1448 1421 1414 1555 1447 1463 1410 1440 1436 1428 1527 1482 1468 1466 1436 1536 1416 1467 1388 1436 1455 1391 1427 1438 1375 1492 1385 1447 1424 1469 1435 1500 1541 1525 1506 1463 1442 1445 1469 1427 1495 1437 1454 1464 1390 1466 1447 1476 1418 1488 1356 1551 1460 1495 1404 1454 1443 1490 1505 1447 1455 1468 1459 1511 1452 1457 1491 1465 1481 1393 1456 1379 1486 1433 1422 1455 1480 1428 1500 1509 1471 1342 1420 1440 1487 1425 1424 1433 1426 1397 1452 1431 1438 1510 1449 1458 1500 1391 1434 1422 1435 1486 1487 1404 1518 1486 1531 1389 1456 1444 1396 1483 1377 1494 1434 1421 1485 1504 1438 1477 1460 1455 1469 1416 1375 1463 1419 1430 1446 1456 1478 1429 1480 1421 1506 1447 1456 1451 1491 1550 1436 1400 1428 1449 1423 1448 1512 1429 1442 1449 1400 1469 1419 1432 1504 1480 1390 1365 1410 1414 1430 1424 1435 1440 1473 1428 1482 1428 1512 1487 1470 1448 1418 1485 1371 1414 1449 1379 1481 1472 1389 1450 1399 1437 1401 1436 1476 1499 1415 1410 1482 1487 1439 1379 1433 1452 1465 1425 1518 1466 1489 1400 1400 1451 1397 1381 1431 1354 1422 1444 1484 1523 1422 1417 1460 1416 1464 1403 1500 1452 1462 1420 1420 1497 1410 1431 1443 1456 1496 1454 1465 1497 1423 1438 1422 1440 1391 1461 1416 1428 1435 1384 1450 1427 1470 1418 1431 1451 1451 1445 1435 1502 1448 1481 1434 1491 1430 1463 1464 1429 1436 1528 1506 1442 1540 1459 1495 1524 1529 1583 1544 1565 1564 1535 1571 1638 1655 1688 1637 1727 1770 1801 1797 1740 1783 1718 1786 1775 1910 1915 1882 1997 1953 1943 1976 1881 1897 1979 1924 1928 1921 1900 1945 1937 1955 2082 1950 2014 1938 2036 1953 2014 1988 1895 1883 1911 1970 1972 1876 1828 1838 1852 1842 1856 1734 1728 1748 1719 1717 1634 1688 1660 1612 1581 1592 1547 1579 1592 1545 1534 1474 1462 1541 1449 1569 1428 1510 1460 1536 1475 1413 1545 1488 1440 1451 1494 1441 1411 1527 1466 1479 1487 1499 1417 1444 1418 1475 1405 1451 1450 1431 1436 1452 1419 1399 1440 1407 1415 1460 1410 1415 1452 1379 1363 1408 1383 1457 1457 1441 1425 1454 1427 1461 1487 1522 1387 1464 1434 1462 1396 1444 1453 1372 1447 1452 1421 1437 1425 1493 1433 1473 1499 1445 1413 1446 1423 1444 1468 1416 1513 1414 1509 1341 1443 1414 1432 1392 1443 1520 1427 1437 1401 1406 1417 1399 1450 1397 1418 1448 1390 1452 1403 1486 1457 1433 1393 1435 1419 1382 1439 1398 1477 1410 1465 1432 1431 1392 1433 1386 1353 1385 1409 1498 1380 1406 1409 1450 1426 1448 1437 1432 1491 1400 1426 1423 1482 1401 1446 1445 1376 1408 1436 1459 1441 1418 1404 1480 1461 1410 1460 1486 1453 1388 1491 1447 1464 1391 1383 1473 1415 1419 1482 1376 1472 1384 1418 1500 1412 1479 1356 1428 1462 1431 1433 1414 1472 1458 1466 1416 1422 1430 1450 1484 1494 1442 1526 1483 1448 1380 1451 1418 1419 1421 1475 1416 1389 1469 1499 1433 1469 1471 1473 1486 1429 1441 1475 1414 1426 1461 1444 1446 1470 1460 1477 1404 1427 1433 1407 1423 1439 1372 1460 1510 1393 1509 1436 1466 1457 1447 1421 1431 1464 1402 1455 1395 1398 1416 1461 1426 1469 1433 1451 1469 1464 1439 1477 1424 1444 1503 1468 1377 1486 1414 1441 1437 1418 1404 1411 1463 1440 1448 1349 1451 1399 1379 1434 1385 1512 1501 1420 1474 1435 1452 1493 1538 1443 1553 1375 1447 1392 1434 1435 1486 1516 1512 1471 1527 1505 1503 1528 1536 1424 1381 1484 1456 1507 1552 1458 1458 1463 1508 1552 1562 1509 1441 1533 1581 1523 1493 1583 1578 1528 1600 1639 1653 1639 1666 1605 1649 1665 1786 1797 1836 1890 1928 2045 2030 2042 2228 2342 2329 2487 2587 2732 2843 2951 2875 2890 2979 3017 3032 3219 3187 3261 3535 3459 3509 3623 3682 3847 3744 3858 3723 3934 3803 3776 3903 3748 3933 3824 3998 4110 4104 4086 4166 4066 3970 3969 3803 3716 3673 3598 3453 3401 3392 3249 3243 3151 3089 2880 2800 2641 2642 2484 2410 2373 2259 2148 2175 2057 2034 1921 1909 1869 1765 1795 1750 1731 1651 1656 1676 1567 1575 1614 1596 1612 1558 1627 1544 1552 1564 1605 1510 1556 1485 1577 1491 1565 1531 1548 1572 1443 1501 1525 1477 1463 1468 1483 1550 1483 1517 1474 1493 1522 1472 1463 1536 1550 1481 1520 1449 1441 1494 1525 1474 1463 1422 1543 1484 1561 1502 1487 1499 1501 1528 1488 1519 1458 1450 1466 1434 1429 1450 1535 1470 1499 1516 1438 1508 1487 1471 1385 1533 1547 1468 1437 1461 1452 1399 1493 1421 1450 1438 1440 1442 1480 1425 1447 1420 1449 1553 1456 1463 1431 1455 1506 1463 1437 1443 1425 1401 1461 1474 1448 1461 1437 1415 1448 1450 1420 1474 1453 1365 1425 1413 1401 1425 1404 1425 1368 1455 1431 1452 1445 1397 1402 1396 1459 1424 1433 1559 1397 1448 1373 1417 1477 1437 1493 1403 1445 1436 1497 1533 1474 1529 1431 1486 1492 1506 1532 1503 1477 1469 1530 1517 1506 1501 1605 1540 1511 1643 1656 1541 1638 1605 1591 1738 1705 1673 1581 1742 1734 1734 1693 1821 1678 1700 1830 1760 1723 1760 1718 1785 1738 1826 1716 1788 1818 1814 1784 1754 1765 1750 1644 1707 1667 1750 1690 1700 1629 1572 1615 1663 1568 1574 1585 1523 1534 1511 1584 1557 1548 1542 1587 1567 1436 1453 1435 1527 1455 1453 1510 1428 1434 1455 1424 1434 1415 1461 1439 1405 1496 1457 1399 1460 1344 1444 1417 1369 1416 1470 1451 1412 1424 1376 1397 1520 1444 1455 1462 1448 1423 1429 1406 1456 1461 1442 1392 1382 1376 1425 1407 1397 1402 1369 1417 1414 1396 1412 1487 1459 1395 1472 1459 1467 1363 1404 1448 1474 1425 1509 1402 1433 1385 1472 1419 1327 1395 1376 1406 1468 1466 1383 1452 1467 1407 1418 1431 1397 1348 1428 1441 1371 1463 1437 1394 1325 1418 1424 1397 1464 1380 1450 1441 1382 1447 1446 1414 1393 1364 1457 1319 1410 1422 1383 1341 1391 1372 1361 1383 1444 1392 1370 1393 1382 1458 1396 1406 1365 1396 1415 1390 1423 1415 1419 1374 1406 1407 1371 1389 1372 1453 1403 1433 1402 1371 1455 1439 1426 1429 1351 1376 1391 1467 1439 1433 1416 1425 1395 1411 1426 1424 1431 1345 1367 1382 1412 1381 1367 1437 1395 1326 1361 1438 1397 1473 1389 1396 1400 1419 1343 1400 1365 1368 1416 1369 1415 1383 1370 1397 1405 1362 1348 1375 1404 1423 1305 1334 1469 1441 1422 1378 1379 1408 1359 1419 1319 1394 1381 1380 1416 1349 1365 1331 1436 1421 1454 1423 1342 1376 1435 1408 1373 1427 1356 1385 1330 1322 1348 1458 1356 1419 1396 1401 1361 1407 1387 1349 1340 1396 1395 1370 1476 1458 1373 1475 1405 1305 1359 1344 1416 1384 1406 1422 1356 1396 1340 1423 1316 1310 1348 1382 1409 1356 1374 1372 1412 1384 1451 1377 1371 1357 1440 1386 1367 1374 1423 1372 1386 1371 1400 1446 1441 1317 1393 1436 1444 1430 1400 1388 1369 1371 1429 1374 1395 1455 1428 1432 1383 1394 1334 1361 1358 1375 1394 1355 1382 1339 1381 1326 1403 1342 1393 1370 1405 1403 1357 1354 1367 1370 1351 1385 1369 1360 1390 1369 1377 1311 1438 1350 1383 1372 1371 1358 1316 1356 1346 1293 1361 1363 1418 1320 1342 1358 1374 1426 1407 1374 1368 1345 1411 1368 1339 1389 1350 1388 1450 1305 1372 1458 1312 1329 1318 1363 1439 1328 1435 1350 1377 1406 1352 1393 1368 1361 1388 1385 1344 1344 1356 1386 1383 1343 1419 1384 1439 1398 1404 1334 1390 1353 1354 1435 1389 1316 1391 1328 1408 1344 1371 1375 1404 1355 1371 1382 1386 1431 1391 1343 1421 1416 1412 1367 1380 1423 1347 1403 1398 1351 1313 1385 1351 1390 1442 1328 1385 1413 1333 1446 1334 1329 1308 1382 1326 1310 1439 1367 1427 1341 1356 1439 1368 1441 1427 1448 1383 1422 1362 1373 1378 1358 1360 1392 1415 1384 1427 1397 1406 1387 1320 1383 1345 1370 1348 1345 1406 1325 1380 1404 1424 1367 1389 1340 1333 1292 1357 1307 1327 1384 1322 1397 1384 1415 1333 1338 1399 1361 1284 1329 1387 1377 1412 1361 1411 1419 1390 1428 1364 1366 1371 1407 1356 1384 1332 1397 1415 1402 1373 1378 1362 1385 1386 1466 1395 1399 1459 1400 1420 1500 1440 1398 1332 1387 1361 1375 1381 1405 1449 1459 1389 1451 1443 1391 1462 1412 1535 1409 1469 1442 1428 1477 1419 1474 1434 1533 1465 1438 1445 1392 1442 1464 1476 1461 1433 1447 1476 1412 1483 1429 1387 1403 1400 1411 1426 1448 1387 1429 1468 1397 1445 1472 1441 1487 1433 1439 1452 1437 1443 1553 1517 1404 1547 1519 1473 1464 1534 1527 1480 1522 1443 1454 1600 1533 1533 1616 1500 1585 1612 1628 1664 1562 1625 1603 1598 1638 1634 1544 1618 1561 1603 1634 1614 1581 1550 1660 1569 1632 1596 1583 1611 1520 1550 1559 1506 1544 1533 1549 1473 1477 1532 1548 1514 1512 1427 1473 1442 1508 1473 1402 1422 1419 1490 1377 1431 1413 1421 1442 1319 1475 1425 1418 1378 1490 1372 1338 1319 1410 1372 1350 1367 1400 1337 1342 1455 1396 1412 1353 1350 1382 1336 1371 1460 1384 1309 1360 1367 1363 1447 1290 1383 1339 1364 1333 1357 1430 1443 1430 1351 1419 1407 1383 1361 1375 1402 1387 1295 1380 1404 1427 1369 1424 1349 1330 1343 1465 1406 1348 1373 1379 1412 1324 1323 1340 1317 1329 1337 1371 1396 1401 1404 1384 1393 1447 1342 1371 1405 1309 1319 1345 1413 1475 1399 1335 1339 1332 1351 1438 1390 1402 1429 1412 1415 1429 1433 1372 1384 1331 1282 1482 1350 1395 1482 1360 1286 1319 1393 1365 1366 1335 1371 1355 1351 1401 1368 1472 1392 1347 1362 1342 1393 1392 1345 1367 1374 1350 1454 1345 1371 1347 1366 1436 1322 1361 1349 1335 1405 1398 1355 1415 1414 1458 1353 1392 1362 1371 1415 1398 1369 1379 1360 1353 1378 1386 1377 1329 1427 1423 1456 1400 1360 1405 1322 1422 1406 1430 1402 1363 1313 1399 1416 1471 1398 1451 1452 1370 1367 1359 1456 1427 1353 1453 1441 1373 1501 1406 1534 1447 1476 1569 1482 1491 1565 1475 1584 1567 1604 1590 1594 1555 1717 1756 1710 1702 1727 1717 1735 1806 1829 1796 1921 1872 2004 1936 1996 1945 1988 1902 2033 1999 2073 1964 2008 2060 1994 2014 1998 2050 2016 2084 2007 1986 1898 2021 2057 1985 1919 1902 1949 1838 1916 1848 1889 1794 1853 1766 1742 1795 1759 1692 1627 1734 1591 1659 1612 1575 1590 1516 1499 1625 1502 1548 1477 1481 1462 1366 1434 1454 1390 1466 1393 1435 1485 1409 1474 1475 1377 1406 1336 1417 1370 1371 1426 1394 1374 1428 1421 1427 1362 1375 1343 1392 1369 1415 1421 1372 1371 1418 1403 1358 1377 1468 1358 1358 1411 1411 1361 1400 1389 1359 1385 1364 1318 1334 1324 1368 1344 1383 1391 1393 1405 1415 1359 1345 1337 1370 1352 1363 1408 1355 1326 1408 1352 1363 1388 1344 1359 1421 1366 1361 1396 1390 1416 1396 1348 1385 1345 1378 1364 1380 1397 1394 1390 1362 1400 1365 1427 1377 1394 1376 1372 1342 1393 1386 1453 1366 1335 1407 1386 1354 1425 1450 1425 1415 1348 1417 1387 1354 1474 1399 1450 1430 1489 1385 1406 1332 1430 1375 1458 1428 1484 1475 1478 1504 1529 1470 1451 1454 1507 1532 1540 1484 1476 1512 1519 1587 1519 1511 1516 1500 1591 1547 1549 1575 1470 1607 1576 1607 1558 1544 1579 1588 1546 1598 1556 1500 1508 1619 1556 1448 1476 1476 1562 1571 1539 1483 1503 1467 1460 1532 1462 1500 1493 1568 1480 1369 1412 1500 1444 1464 1429 1427 1454 1423 1362 1423 1477 1417 1465 1382 1418 1413 1409 1354 1384 1430 1306 1418 1348 1385 1367 1437 1379 1394 1434 1340 1366 1387 1342 1416 1374 1353 1387 1413 1391 1394 1389 1334 1424 1399 1428 1380 1415 1375 1299 1369 1331 1444 1366 1372 1361 1328 1434 1358 1359 1390 1328 1359 1364 1347 1362 1387 1398 1355 1449 1338 1350 1383 1370 1378 1309 1406 1353 1347 1411 1324 1332 1324 1397 1348 1398 1343 1336 1346 1383 1357 1380 1401 1349 1331 1406 1319 1360 1377 1380 1349 1400 1347 1339 1404 1295 1360 1304 1334 1403 1333 1370 1339 1339 1334 1391 1386 1318 1323 1307 1354 1352 1330 1350 1321 1313 1380 1325 1417 1359 1351 1389 1323 1401 1323 1340 1334 1382 1364 1351 1396 1347 1375 1308 1402 1364 1339 1397 1351 1387 1379 1388 1329 1328 1374 1324 1349 1341 1352 1337 1331 1347 1393 1335 1305 1361 1303 1338 1371 1380 1371 1307 1360 1351 1370 1311 1315 1278 1366 1355 1368 1278 1356 1351 1375 1337 1316 1329 1361 1346 1438 1363 1272 1411 1376 1365 1360 1294 1305 1389 1375 1309 1344 1281 1386 1381 1330 1326 1436 1294 1379 1352 1383 1355 1466 1399 1398 1321 1366 1345 1442 1312 1416 1377 1328 1340 1300 1380 1330 1386 1321 1382 1322 1298 1391 1334 1373 1412 1431 1373 1362 1324 1389 1356 1365 1336 1409 1283 1352 1379 1429 1352 1328 1362 1344 1401 1410 1301 1387 1384 1297 1355 1398 1295 1386 1334 1321 1367 1350 1359 1387 1354 1312 1353 1351 1358 1293 1388 1375 1284 1417 1374 1377 1378 1370 1314 1382 1330 1358 1379 1347 1373 1287 1368 1320 1355 1341 1345 1332 1376 1353 1289 1415 1354 1355 1337 1388 1333 1340 1335 1384 1326 1380 1317 1422 1385 1405 1370 1373 1340 1357 1363 1264 1313 1355 1438 1409 1392 1376 1395 1357 1380 1339 1322 1331 1296 1355 1342 1419 1380 1385 1363 1349 1408 1361 1372 1337 1480 1321 1345 1348 1345 1352 1457 1415 1385 1419 1386 1331 1341 1359 1342 1373 1427 1327 1433 1367 1321 1375 1311 1358 1411 1325 1341 1331 1334 1374 1399 1380 1356 1403 1275 1306 1330 1358 1397 1365 1322 1366 1380 1386 1374 1301 1361 1348 1348 1359 1373 1302 1264 1331 1390 1369 1368 1314 1344 1322 1325 1396 1391 1349 1370 1348 1373 1339 1419 1333 1401 1339 1352 1357 1391 1400 1413 1363 1373 1392 1335 1342 1373 1332 1370 1370 1307 1292 1305 1292 1346 1353 1443 1353 1390 1344 1382 1374 1431 1394 1344 1386 1406 1463 1499 1450 1450 1419 1388 1448 1396 1441 1400 1427 1363 1408 1476 1425 1394 1488 1464 1432 1460 1435 1431 1481 1475 1432 1505 1443 1569 1507 1448 1470 1439 1458 1458 1467 1392 1473 1429 1436 1470 1372 1498 1501 1388 1402 1467 1424 1501 1407 1482 1400 1491 1383 1490 1456 1508 1345 1438 1389 1437 1322 1418 1438 1371 1434 1404 1398 1402 1310 1371 1399 1421 1383 1425 1362 1351 1354 1288 1362 1312 1336 1375 1343 1325 1337 1342 1412 1364 1345 1347 1349 1330 1361 1349 1392 1371 1399 1312 1313 1360 1413 1350 1394 1368 1382 1325 1371 1339 1333 1341 1369 1326 1372 1361 1358 1397 1404 1341 1384 1333 1317 1330 1333 1382 1307 1343 1281 1393 1303 1463 1390 1353 1392 1333 1269 1284 1386 1399 1349 1337 1393 1370 1339 1377 1286 1346 1374 1352 1341 1324 1291 1369 1387 1348 1339 1329 1370 1415 1325 1313 1350 1341 1334 1390 1376 1443 1335 1416 1316 1334 1401 1363 1388 1474 1300 1364 1392 1374 1356 1331 1335 1372 1377 1348 1423 1361 1393 1428 1360 1357 1324 1430 1369 1334 1305 1381 1374 1324 1294 1387 1294 1338 1334 1440 1318 1334 1386 1339 1336 1390 1309 1391 1463 1341 1338 1318 1337 1424 1377 1382 1353 1323 1313 1372 1352 1295 1338 1319 1362 1397 1349 1390 1373 1437 1300 1370 1375 1381 1427 1394 1325 1385 1344 1404 1388 1279 1272 1354 1288 1331 1315 1401 1326 1340 1385 1405 1364 1360 1423 1382 1376 1354 1409 1322 1287 1324 1355 1344 1450 1357 1362 1418 1391 1397 1340 1423 1389 1416 1385 1328 1310 1423 1363 1334 1349 1335 1444 1385 1391 1301 1321 1374 1417 1408 1395 1393 1336 1395 1420 1442 1427 1419 1459 1395 1454 1428 1449 1486 1467 1506 1484 1517 1476 1467 1603 1535 1561 1469 1556 1682 1595 1653 1541 1641 1670 1586 1575 1621 1570 1654 1620 1670 1567 1588 1657 1667 1648 1654 1634 1613 1668 1669 1649 1677 1672 1606 1560 1600 1567 1601 1632 1659 1623 1575 1603 1554 1604 1535 1532 1535 1499 1541 1542 1491 1543 1498 1472 1466 1508 1508 1485 1476 1491 1462 1461 1424 1425 1422 1463 1403 1458 1427 1413 1371 1368 1401 1385 1397 1363 1355 1455 1328 1371 1354 1366 1339 1418 1390 1379 1347 1337 1421 1360 1351 1431 1398 1336 1361 1351 1392 1303 1316 1314 1309 1418 1405 1376 1300 1328 1393 1345 1380 1393 1345 1388 1388 1325 1342 1400 1334 1320 1443 1363 1387 1372 1422 1373 1378 1364 1353 1396 1428 1365 1364 1375 1390 1436 1389 1359 1372 1307 1389 1379 1318 1315 1356 1356 1359 1289 1376 1346 1383 1390 1377 1244 1365 1372 1390 1405 1346 1324 1320 1395 1351 1284 1357 1393 1343 1420 1391 1344 1391 1318 1314 1415 1284 1412 1351 1347 1376 1435 1395 1285 1348 1341 1312 1354 1390 1305 1371 1374 1406 1406 1342 1317 1369 1347 1348 1343 1445 1375 1350 1409 1289 1385 1362 1391 1338 1410 1401 1310 1346 1403 1368 1361 1332 1464 1404 1327 1375 1336 1362 1319 1395 1331 1406 1362 1358 1393 1376 1338 1359 1389 1333 1409 1392 1338 1353 1326 1389 1368 1428 1299 1354 1398 1363 1398 1366 1383 1361 1303 1348 1348 1395 1389 1326 1400 1347 1383 1358 1300 1394 1379 1398 1347 1339 1317 1372 1387 1358 1358 1333 1376 1364 1398 1388 1290 1341 1385 1424 1413 1388 1374 1319 1398 1326 1333 1393 1375 1305 1357 1400 1358 1358 1357 1385 1301 1373 1351 1372 1358 1333 1356 1350 1360 1347 1375 1401 1373 1370 1332 1364 1411 1400 1303 1399 1350 1346 1378 1369 1338 1324 1322 1377 1422 1401 1364 1364 1354 1319 1345 1346 1321 1378 1322 1315 1355 1328 1330 1368 1386 1311 1372 1395 1390 1294 1343 1305 1379 1392 1432 1372 1380 1320 1350 1363 1312 1405 1408 1359 1376 1334 1403 1385 1390 1289 1361 1371 1358 1325 1412 1392 1376 1414 1388 1337 1396 1323 1357 1343 1408 1398 1379 1391 1331 1341 1329 1321 1363 1380 1448 1323 1405 1395 1320 1403 1371 1351 1330 1390 1330 1347 1326 1347 1317 1378 1393 1325 1357 1416 1395 1354 1379 1430 1344 1402 1398 1437 1320 1355 1390 1339 1304 1370 1309 1430 1313 1418 1349 1407 1390 1277 1350 1373 1365 1376 1358 1341 1382 1327 1431 1379 1374 1355 1364 1316 1399 1341 1391 1414 1358 1399 1359 1354 1298 1470 1382 1338 1374 1342 1330 1398 1393 1375 1422 1361 1452 1466 1293 1317 1345 1409 1356 1353 1373 1413 1422 1360 1302 1408 1373 1364 1366 1355 1340 1413 1284 1364 1368 1354 1399 1414 1345 1354 1376 1376 1351 1333 1350 1372 1375 1369 1386 1283 1381 1327 1410 1342 1369 1342 1329 1392 1305 1305 1355 1364 1364 1358 1349 1374 1315 1403 1414 1409 1315 1406 1335 1372 1307 1406 1369 1361 1413 1321 1376 1387 1304 1322 1432 1302 1387 1449 1371 1485 1358 1383 1335 1361 1380 1354 1381 1399 1370 1377 1398 1363 1354 1432 1321 1382 1414 1343 1338 1325 1361 1349 1334 1451 1403 1322 1401 1425 1317 1391 1365 1290 1405 1324 1373 1406 1422 1358 1428 1352 1403 1386 1354 1377 1348 1353 1363 1343 1364 1391 1399 1266 1357 1304 1368 1389 1330 1362 1424 1401 1406 1354 1326 1327 1396 1342 1379 1426 1374 1459 1404 1326 1393 1407 1354 1351 1338 1331 1316 1389 1376 1410 1323 1345 1478 1385 1413 1378 1380 1452 1375 1367 1332 1409 1369 1409 1436 1379 1396 1401 1418 1376 1456 1331 1444 1372 1410 1429 1378 1409 1444 1403 1410 1369 1391 1438 1374 1401 1389 1407 1441 1344 1412 1410 1438 1368 1431 1455 1465 1435 1481 1428 1447 1453 1387 1399 1437 1414 1399 1449 1532 1489 1471 1437 1447 1495 1533 1495 1528 1410 1474 1460 1452 1391 1490 1488 1447 1456 1448 1416 1402 1452 1389 1432 1458 1497 1474 1360 1454 1357 1434 1426 1477 1446 1422 1406 1474 1402 1515 1510 1439 1468 1484 1484 1484 1485 1416 1461 1461 1427 1494 1497 1454 1478 1463 1463 1397 1467 1506 1368 1462 1445 1507 1474 1436 1401 1461 1465 1483 1472 1435 1452 1463 1445 1449 1445 1445 1412 1436 1459 1472 1394 1428 1500 1351 1446 1345 1474 1440 1435 1435 1423 1421 1448 1429 1399 1392 1433 1435 1342 1408 1395 1380 1432 1396 1451 1420 1406 1356 1464 1378 1463 1391 1352 1405 1432 1354 1331 1403 1381 1410 1461 1418 1377 1381 1343 1385 1437 1421 1362 1421 1419 1343 1426 1380 1456 1396 1375 1358 1368 1448 1400 1442 1322 1375 1392 1397 1330 1435 1360 1304 1419 1328 1348 1403 1390 1422 1422 1382 1412 1427 1360 1425 1438 1355 1406 1426 1356 1372 1407 1422 1378 1430 1401 1402 1350 1362 1366 1399 1422 1410 1348 1382 1386 1426 1389 1353 1419 1431 1433 1366 1482 1325 1380 1399 1484 1411 1386 1428 1437 1408 1391 1402 1329 1412 1421 1445 1336 1407 1362 1371 1439 1460 1427 1412 1363 1379 1397 1440 1461 1360 1387 1387 1385 1437 1397 1415 1392 1466 1425 1462 1355 1410 1445 1423 1366 1431 1360 1432 1446 1451 1392 1462 1462 1511 1467 1452 1496 1499 1434 1497 1481 1441 1513 1535 1493 1557 1516 1616 1636 1606 1610 1589 1614 1691 1556 1718 1709 1725 1719 1698 1642 1722 1730 1760 1748 1745 1806 1792 1908 1923 1800 1897 1938 1913 1966 1887 1924 1905 1923 2021 2049 1943 1947 1905 1916 1986 1868 1918 1914 1897 1912 1930 1891 1890 1905 1873 1822 1805 1915 1870 1826 1786 1767 1764 1800 1765 1791 1772 1707 1712 1746 1654 1688 1608 1710 1666 1625 1639 1566 1561 1608 1590 1561 1523 1547 1568 1516 1552 1498 1504 1526 1529 1538 1508 1418 1471 1477 1450 1415 1507 1413 1401 1515 1417 1457 1478 1423 1363 1369 1453 1403 1478 1440 1430 1419 1486 1467 1444 1422 1460 1454 1486 1484 1443 1411 1360 1436 1448 1442 1443 1407 1422 1408 1379 1448 1361 1431 1390 1395 1341 1472 1446 1377 1399 1405 1431 1428 1404 1475 1403 1435 1380 1383 1444 1445 1350 1352 1424 1412 1423 1345 1320 1384 1384 1379 1363 1403 1446 1397 1399 1377 1472 1433 1469 1440 1468 1447 1410 1445 1388 1360 1408 1446 1442 1404 1366 1415 1494 1416 1388 1417 1407 1421 1467 1450 1468 1385 1505 1473 1374 1558 1450 1470 1480 1453 1439 1478 1478 1481 1509 1407 1404 1459 1457 1503 1457 1379 1412 1397 1393 1456 1467 1458 1469 1459 1476 1424 1469 1473 1534 1432 1464 1401 1483 1448 1476 1496 1437 1343 1441 1464 1498 1416 1415 1354 1428 1401 1382 1364 1501 1481 1471 1473 1374 1355 1411 1405 1371 1397 1384 1440 1392 1458 1448 1391 1404 1371 1463 1414 1396 1376 1433 1425 1462 1432 1415 1386 1360 1384 1431 1491 1398 1456 1388 1396 1426 1384 1392 1457 1438 1394 1418 1356 1407 1422 1391 1395 1425 1371 1343 1382 1344 1397 1396 1347 1370 1439 1347 1400 1358 1391 1388 1307 1428 1382 1428 1414 1373 1362 1338 1468 1356 1364 1404 1427 1415 1417 1409 1435 1406 1453 1373 1393 1480 1399 1419 1334 1346 1328 1394 1437 1418 1392 1436 1400 1380 1353 1424 1417 1415 1451 1424 1393 1379 1366 1445 1434 1387 1404 1375 1426 1432 1400 1446 1400 1397 1368 1336 1351 1370 1414 1392 1400 1455 1384 1389 1357 1467 1412 1406 1405 1440 1358 1386 1401 1380 1349 1444 1417 1371 1405 1430 1395 1348 1411 1320 1374 1337 1409 1410 1418 1453 1291 1384 1425 1373 1381 1366 1408 1445 1351 1465 1353 1361 1420 1373 1457 1369 1380 1366 1404 1386 1367 1402 1352 1411 1432 1400 1384 1337 1447 1326 1326 1372 1387 1415 1390 1467 1367 1420 1435 1404 1326 1496 1407 1415 1369 1345 1362 1394 1417 1409 1411 1317 1381 1319 1382 1346 1414 1446 1494 1364 1349 1411 1409 1393 1457 1375 1358 1406 1380 1448 1360 1376 1434 1399 1404 1399 1348 1425 1386 1341 1424 1377 1377 1374 1367 1353 1417 1341 1431 1413 1405 1412 1429 1363 1437 1489 1363 1414 1381 1349 1367 1374 1376 1347 1353 1371 1381 1446 1480 1360 1343 1452 1473 1340 1342 1370 1365 1445 1397 1414 1372 1378 1332 1413 1317 1431 1424 1440 1460 1404 1347 1368 1449 1416 1388 1368 1408 1368 1399 1374 1440 1353 1404 1398 1461 1395 1427 1353 1466 1407 1432 1424 1334 1414 1388 1421 1430 1332 1421 1426 1348 1399 1379 1330 1345 1314 1480 1469 1487 1304 1369 1342 1379 1394 1367 1356 1408 1339 1435 1375 1418 1363 1350 1393 1392 1387 1350 1409 1432 1386 1379 1375 1395 1372 1391 1392 1345 1408 1416 1451 1420 1467 1395 1344 1369 1407 1408 1382 1438 1423 1325 1344 1425 1442 1398 1347 1433 1390 1336 1431 1346 1401 1405 1341 1411 1396 1364 1386 1473 1429 1401 1351 1402 1370 1326 1472 1471 1361 1472 1437 1406 1444 1408 1470 1385 1405 1398 1431 1395 1373 1429 1394 1408 1395 1437 1453 1547 1429 1424 1521 1436 1478 1452 1432 1493 1396 1393 1453 1386 1390 1479 1489 1439 1418 1417 1484 1423 1478 1519 1463 1449 1518 1416 1405 1472 1471 1392 1485 1429 1411 1414 1501 1452 1496 1464 1435 1473 1445 1464 1472 1467 1421 1455 1470 1440 1406 1384 1400 1437 1427 1480 1368 1418 1420 1416 1420 1456 1423 1412 1423 1410 1514 1431 1342 1458 1379 1413 1351 1369 1451 1465 1384 1336 1414 1425 1411 1390 1365 1395 1407 1368 1384 1443 1417 1438 1379 1372 1397 1411 1388 1451 1354 1394 1415 1307 1398 1420 1352 1425 1385 1377 1339 1392 1401 1406 1406 1405 1439 1448 1347 1360 1375 1395 1394 1447 1338 1425 1372 1408 1396 1434 1386 1442 1430 1430 1386 1346 1390 1372 1431 1393 1374 1436 1411 1395 1358 1420 1407 1397 1375 1399 1421 1446 1398 1344 1403 1383 1381 1339 1413 1411 1404 1382 1390 1381 1453 1448 1420 1427 1393 1325 1411 1441 1417 1442 1387 1378 1398 1350 1379 1405 1425 1447 1411 1340 1370 1414 1355 1327 1356 1364 1376 1435 1383 1474 1419 1432 1392 1424 1427 1415 1399 1364 1378 1404 1409 1422 1384 1434 1396 1393 1399 1461 1421 1478 1407 1384 1470 1416 1330 1391 1381 1413 1372 1425 1366 1445 1336 1457 1447 1417 1403 1394 1427 1403 1404 1447 1404 1364 1387 1451 1446 1480 1419 1334 1418 1441 1366 1401 1423 1389 1390 1375 1416 1380 1412 1440 1436 1414 1455 1380 1433 1395 1442 1439 1463 1485 1393 1492 1489 1448 1465 1402 1469 1529 1507 1511 1509 1495 1529 1497 1571 1508 1589 1496 1609 1570 1481 1547 1545 1654 1595 1571 1656 1603 1620 1718 1595 1665 1630 1612 1687 1689 1707 1621 1746 1781 1778 1788 1697 1820 1743 1732 1664 1889 1746 1759 1723 1734 1754 1788 1783 1819 1801 1796 1690 1795 1744 1644 1705 1702 1746 1713 1751 1731 1668 1720 1656 1692 1729 1619 1689 1655 1635 1667 1693 1690 1619 1613 1582 1612 1647 1637 1656 1652 1565 1505 1622 1531 1580 1589 1497 1642 1496 1577 1537 1532 1546 1474 1448 1483 1455 1502 1498 1476 1448 1485 1390 1421 1361 1498 1389 1445 1466 1394 1433 1434 1460 1409 1402 1433 1431 1449 1452 1368 1426 1382 1362 1439 1393 1449 1429 1449 1440 1389 1423 1412 1450 1438 1435 1428 1443 1433 1409 1392 1417 1397 1423 1424 1405 1353 1398 1453 1416 1442 1429 1462 1514 1421 1418 1389 1384 1375 1427 1426 1351 1380 1377 1451 1435 1441 1465 1500 1457 1383 1395 1369 1458 1373 1416 1398 1403 1471 1446 1435 1416 1403 1442 1411 1410 1445 1486 1481 1377 1393 1407 1346 1417 1456 1389 1390 1404 1473 1419 1390 1458 1382 1439 1479 1433 1484 1440 1532 1464 1383 1346 1420 1431 1438 1396 1363 1411 1388 1467 1522 1387 1364 1449 1479 1468 1422 1498 1419 1434 1473 1398 1442 1464 1361 1419 1487 1428 1469 1409 1444 1490 1404 1398 1383 1393 1396 1458 1412 1394 1521 1466 1512 1426 1476 1440 1409 1354 1400 1472 1384 1483 1471 1471 1497 1329 1430 1433 1416 1413 1411 1450 1416 1444 1448 1460 1459 1415 1450 1393 1423 1417 1379 1411 1375 1411 1396 1431 1403 1417 1325 1384 1318 1442 1426 1394 1375 1431 1338 1469 1446 1424 1431 1413 1373 1405 1378 1439 1416 1379 1469 1427 1409 1375 1429 1420 1394 1369 1405 1366 1408 1424 1451 1405 1465 1335 1402 1364 1415 1422 1358 1426 1398 1362 1387 1481 1469 1356 1405 1294 1433 1421 1395 1345 1348 1388 1418 1415 1451 1391 1358 1489 1389 1417 1419 1373 1396 1446 1437 1412 1424 1423 1493 1481 1429 1400 1379 1426 1418 1453 1400 1456 1419 1401 1402 1403 1430 1348 1417 1415 1379 1399 1325 1261 1364 1375 1397 1411 1425 1396 1409 1405 1354 1405 1407 1400 1460 1357 1385 1451 1384 1471 1411 1453 1363 1389 1446 1331 1402 1418 1333 1413 1377 1385 1416 1412 1426 1328 1440 1363 1416 1352 1407 1403 1343 1450 1477 1372 1406 1417 1351 1363 1374 1346 1401 1356 1414 1418 1437 1497 1435 1390 1429 1440 1425 1408 1433 1364 1385 1367 1465 1421 1424 1385 1366 1430 1445 1437 1406 1394 1432 1401 1377 1383 1375 1351 1399 1448 1401 1411 1382 1358 1419 1432 1357 1419 1417 1446 1408 1397 1435 1387 1393 1372 1349 1440 1387 1453 1399 1394 1448 1428 1481 1423 1432 1376 1379 1450 1412 1436 1413 1394 1478 1354 1351 1449 1423 1450 1462 1336 1345 1441 1445 1398 1418 1435 1390 1443 1437 1351 1389 1387 1351 1425 1369 1393 1360 1449 1319 1413 1431 1450 1405 1414 1385 1398 1327 1413 1351 1420 1373 1394 1404 1318 1448 1433 1423 1451 1336 1415 1395 1424 1438 1406 1425 1344 1375 1370 1424 1447 1444 1414 1382 1425 1391 1505 1421 1364 1452 1493 1411 1365 1332 1382 1454 1413 1343 1456 1426 1409 1388 1442 1402 1412 1424 1380 1393 1327 1468 1352 1394 1451 1372 1463 1517 1446 1348 1465 1384 1356 1436 1408 1420 1480 1361 1471 1397 1384 1402 1426 1381 1439 1385 1464 1451 1396 1406 1364 1451 1448 1421 1397 1432 1417 1412 1456 1411 1366 1470 1452 1399 1452 1448 1442 1415 1485 1444 1464 1405 1391 1508 1381 1467 1417 1446 1385 1416 1425 1468 1446</counts>
			</dataPoints>
		</scan>
	</xrdMeasurement>
</xrdMeasurements>
