<?xml version="1.0"?>
<xrdMeasurements xmlns="http://www.xrdml.com/XRDMeasurement/2.3" xmlns:xsi="http://www.w3.org/2001/XMLSchema-instance" xsi:schemaLocation="http://www.xrdml.com/XRDMeasurement/2.3 http://www.xrdml.com/XRDMeasurement/2.3/XRDMeasurement.xsd" status="Completed" recordIdentifier="{3C000C07-C676-4D00-A382-075180862BD5}">
	<comment>
		<entry/>
	</comment>
	<sample type="To be analyzed">
		<id>GPSS_Li1p5Mg0p7V0p2Nb0p1Cl4_121325_693cb366f4d05ae3d69752b9</id>
		<name></name>
		<preparedBy></preparedBy>
	</sample>
	<xrdMeasurement measurementType="Scan" status="Completed" sampleMode="Reflection">
		<usedWavelength intended="K-Alpha 1">
			<kAlpha1 unit="Angstrom">1.5405980</kAlpha1>
			<kAlpha2 unit="Angstrom">1.5444260</kAlpha2>
			<kBeta unit="Angstrom">1.3922500</kBeta>
			<ratioKAlpha2KAlpha1>0.5000</ratioKAlpha2KAlpha1>
		</usedWavelength>
		<incidentBeamPath>
			<radius unit="mm">145.00</radius>
			<xRayTube id="1010048" name="Empyrean Cu LFF HR (9430 033 7310x)">
				<tension unit="kV">40.0</tension>
				<current unit="mA">15.0</current>
				<anodeMaterial>Cu</anodeMaterial>
				<focus type="Line">
					<length unit="mm">12.0</length>
					<width unit="mm">0.4</width>
					<takeOffAngle unit="deg">6.0</takeOffAngle>
				</focus>
			</xRayTube>
			<sollerSlit id="21010002" name="Soller slits 0.04 rad.">
				<opening unit="rad">0.0400</opening>
			</sollerSlit>
			<mask id="22031000" name="Fixed mask 13 mm">
				<width unit="mm">9.00</width>
			</mask>
			<divergenceSlit id="22120001" name="Divergence slit 1°" xsi:type="fixedDivergenceSlitType">
				<distanceToSample unit="mm">50.00</distanceToSample>
				<height unit="mm">1.52</height>
			</divergenceSlit>
		</incidentBeamPath>
		<sampleMovement xsi:type="spinningSampleMovementType">
			<spinnerRevolutionTime unit="seconds">1.0</spinnerRevolutionTime>
		</sampleMovement>
		<diffractedBeamPath>
			<radius unit="mm">145.00</radius>
			<antiScatterSlit id="22090040" name="AS slit 9 mm (PIXcel)" xsi:type="fixedAntiScatterSlitType">
				<height unit="mm">9.00</height>
			</antiScatterSlit>
			<sollerSlit id="21020003" name="Large Soller slits 0.04 rad.">
				<opening unit="rad">0.0400</opening>
			</sollerSlit>
			<filter id="20030001" name="Large beta-filter Nickel">
				<material>Ni</material>
				<thickness unit="mm">0.020</thickness>
			</filter>
			<detector id="7010019" name="PIXcel1D-Medipix3 detector" xsi:type="rtmsDetectorType">
				<phd unit="keV">
					<lowerLevel>4.02</lowerLevel>
					<upperLevel>11.27</upperLevel>
				</phd>
				<mode>Scanning</mode>
				<activeLength unit="deg">5.542</activeLength>
			</detector>
		</diffractedBeamPath>
		<scan appendNumber="0" mode="Continuous" scanAxis="Gonio" status="Completed">
			<header>
				<startTimeStamp>2025-12-17T10:40:54-08:00</startTimeStamp>
				<endTimeStamp>2025-12-17T10:49:01-08:00</endTimeStamp>
				<author>
					<name>AutomatedUser</name>
				</author>
				<source>
					<applicationSoftware version="1.7b (136)">PANalytical Aeris Instrument Suite</applicationSoftware>
					<instrumentControlSoftware version="3.2.00000000 20240306">AERIS</instrumentControlSoftware>
					<instrumentID>950485</instrumentID>
				</source>
			</header>
			<dataPoints>
				<positions axis="2Theta" unit="deg">
					<startPosition>10.00943322</startPosition>
					<endPosition>99.99442286</endPosition>
				</positions>
				<positions axis="Omega" unit="deg">
					<startPosition>5.00471661</startPosition>
					<endPosition>49.99721143</endPosition>
				</positions>
				<commonCountingTime unit="seconds">12.495</commonCountingTime>
				<counts unit="counts">2598 2642 2585 2595 2571 2621 2604 2701 2587 2639 2669 2636 2578 2623 2682 2615 2657 2569 2657 2633 2579 2682 2649 2580 2637 2650 2601 2664 2708 2667 2610 2570 2578 2685 2662 2683 2551 2595 2567 2675 2540 2565 2664 2549 2665 2578 2507 2642 2709 2601 2677 2624 2706 2659 2559 2572 2637 2639 2575 2628 2494 2650 2648 2683 2560 2597 2613 2647 2654 2582 2637 2552 2582 2692 2575 2689 2601 2552 2591 2660 2666 2546 2731 2646 2715 2548 2709 2651 2601 2648 2616 2649 2632 2502 2602 2549 2565 2530 2675 2529 2635 2645 2478 2647 2665 2651 2630 2625 2626 2589 2580 2701 2603 2708 2542 2706 2588 2744 2608 2582 2626 2686 2612 2637 2684 2632 2588 2648 2661 2661 2600 2680 2667 2681 2550 2599 2570 2651 2710 2659 2645 2641 2677 2596 2640 2539 2490 2566 2629 2699 2651 2582 2584 2599 2683 2620 2641 2670 2723 2673 2551 2512 2620 2559 2544 2653 2600 2616 2510 2605 2608 2613 2569 2565 2581 2614 2599 2528 2588 2532 2506 2603 2628 2590 2502 2599 2505 2580 2554 2440 2614 2622 2612 2622 2529 2619 2585 2473 2523 2632 2586 2514 2568 2639 2509 2553 2422 2589 2506 2542 2652 2532 2514 2492 2533 2611 2542 2501 2612 2520 2601 2479 2463 2496 2485 2547 2491 2573 2524 2520 2597 2461 2532 2479 2543 2450 2502 2497 2559 2532 2562 2532 2434 2456 2458 2448 2490 2431 2359 2473 2427 2372 2414 2339 2437 2536 2407 2503 2506 2520 2402 2424 2494 2504 2442 2550 2380 2507 2469 2451 2362 2381 2430 2461 2372 2505 2373 2524 2480 2519 2438 2436 2519 2381 2369 2387 2455 2444 2415 2390 2388 2362 2399 2441 2405 2441 2405 2357 2395 2462 2434 2462 2475 2417 2377 2485 2368 2558 2483 2427 2466 2539 2631 2442 2442 2531 2392 2405 2436 2411 2510 2529 2391 2611 2352 2394 2444 2420 2349 2475 2504 2489 2480 2398 2442 2457 2437 2491 2547 2423 2493 2435 2608 2455 2410 2484 2465 2404 2515 2449 2463 2429 2573 2477 2467 2602 2604 2474 2553 2485 2520 2536 2513 2586 2559 2580 2397 2518 2516 2558 2593 2595 2659 2560 2665 2475 2558 2617 2629 2578 2686 2576 2526 2607 2606 2592 2613 2610 2583 2598 2482 2564 2568 2681 2596 2607 2629 2669 2655 2572 2692 2635 2622 2615 2755 2682 2787 2705 2695 2687 2712 2803 2622 2821 2703 2720 2758 2807 2695 2820 2769 2847 2873 2767 2926 2910 2810 2894 2896 3050 3002 2987 3017 3027 3021 2941 3201 3090 3097 3183 3183 3208 3428 3268 3303 3359 3407 3502 3527 3553 3699 3818 3826 3927 3952 4105 4086 4286 4303 4278 4359 4260 4440 4577 4397 4445 4520 4332 4548 4610 4666 4734 4855 5010 5100 5229 5343 5408 5495 5691 5764 5857 6021 5994 6248 6055 5880 5753 5848 5779 5475 5510 5312 5296 5150 5048 4996 4855 4915 4661 4720 4480 4444 4246 4245 4203 4165 4072 3867 3906 3869 3827 3822 3693 3747 3828 3674 3781 3734 3739 3625 3639 3635 3579 3697 3387 3510 3501 3410 3540 3396 3342 3498 3418 3387 3301 3202 3246 3245 3162 3255 3196 3021 3002 3074 3045 3023 2971 2819 2878 2915 2862 2886 2849 2730 2791 2732 2664 2700 2747 2663 2698 2642 2681 2633 2665 2586 2569 2527 2594 2632 2614 2603 2604 2472 2632 2542 2546 2599 2507 2545 2500 2506 2541 2492 2629 2572 2470 2506 2465 2497 2569 2437 2554 2391 2427 2405 2457 2513 2553 2392 2512 2561 2523 2558 2516 2575 2376 2549 2468 2513 2440 2498 2490 2375 2486 2486 2397 2355 2351 2404 2391 2458 2363 2393 2475 2424 2432 2485 2471 2428 2394 2425 2446 2366 2478 2403 2403 2313 2411 2366 2369 2545 2417 2444 2359 2353 2420 2316 2350 2303 2339 2392 2371 2345 2393 2427 2351 2357 2402 2380 2377 2345 2388 2298 2341 2432 2368 2367 2381 2334 2370 2357 2386 2402 2334 2382 2326 2475 2386 2417 2393 2394 2323 2387 2305 2351 2423 2325 2438 2294 2320 2347 2325 2298 2246 2345 2265 2330 2308 2332 2276 2329 2349 2225 2307 2215 2279 2287 2239 2317 2283 2300 2330 2343 2314 2310 2271 2268 2192 2300 2322 2200 2271 2289 2263 2282 2305 2264 2422 2205 2326 2348 2266 2286 2265 2254 2241 2225 2192 2297 2230 2313 2345 2282 2221 2269 2223 2212 2225 2167 2325 2239 2243 2205 2223 2325 2229 2146 2252 2285 2182 2257 2290 2275 2187 2280 2192 2136 2259 2332 2287 2222 2265 2246 2255 2224 2250 2210 2244 2271 2248 2158 2286 2231 2290 2238 2206 2226 2274 2173 2208 2219 2133 2179 2183 2206 2219 2182 2182 2151 2275 2185 2210 2246 2125 2180 2193 2239 2288 2257 2310 2259 2218 2133 2250 2069 2206 2193 2243 2128 2190 2238 2183 2177 2278 2314 2091 2113 2220 2051 2166 2118 2071 2092 2106 2191 2085 2261 2103 2129 2160 2207 2190 2137 2248 2190 2127 2103 2152 2116 2142 2172 2177 2147 2248 2126 2166 2096 2110 2082 2241 2129 2102 2089 2104 2091 2113 2113 2194 2124 2193 2020 2103 2107 2058 2080 2076 2150 2096 2094 2162 2050 2149 2071 2044 2133 2073 2141 1979 2071 2108 2108 2105 2106 2012 2194 2038 2109 2080 2085 2116 2110 1966 2104 2067 2161 1973 1998 2127 2009 2082 2077 2064 2043 2105 2109 2106 1989 1977 1973 2068 2143 2056 2087 2094 2068 2040 2002 2056 2112 1997 2024 2062 2022 2042 2036 2058 2009 2049 1966 2044 2021 2016 1938 2033 1988 2009 1995 2011 2066 2058 2040 2031 2026 2020 1909 2003 1911 1993 2057 1970 2022 1992 1945 2081 2058 1990 1961 2031 1994 1946 2034 2012 1971 1958 2024 2041 1938 2056 2012 1890 2023 2036 1947 1966 2089 2006 1916 1968 1930 1905 1984 2062 2024 1948 1921 1966 1988 1994 1940 2051 1927 2070 1967 2037 1930 1951 1936 2027 1918 1951 1879 1966 1985 1981 1943 1934 1948 1930 1949 1918 1947 2008 2029 1974 1944 1967 1911 1967 1860 1827 1950 1884 1962 1860 2010 1930 1933 1966 1955 2013 1929 1920 1871 1881 1874 2015 1898 1957 1971 1961 1907 1943 1931 1825 1888 1972 1948 1929 1981 1896 1969 1871 1927 1910 1970 1961 1994 1976 1934 1974 1864 1934 1966 1927 1920 1997 1913 1915 1992 1969 1923 2030 1924 1922 1953 2097 1981 1962 1916 1977 2010 1996 1970 1904 1878 1927 1959 1923 1964 1890 1930 1991 1923 2000 1892 1957 1969 1992 1896 1978 1943 1983 1910 1967 1929 1953 1941 1977 1940 1968 1825 1892 1825 1942 1953 1984 1917 1905 1955 1904 1937 1888 1978 1941 1889 1961 1857 1912 1876 1942 1986 1839 1956 1872 1826 1941 1989 1817 1851 1921 1849 1812 1889 1910 1855 1765 1916 1846 1873 1902 1830 1873 1805 1885 1872 1938 1884 1853 1852 1781 1801 1907 1800 1809 1772 1835 1809 1920 1875 1808 1849 1777 1848 1837 1875 1841 1828 1817 1837 1792 1798 1801 1758 1850 1826 1732 1772 1837 1800 1713 1805 1743 1772 1696 1748 1706 1751 1767 1784 1741 1685 1723 1771 1791 1741 1723 1818 1651 1689 1705 1708 1715 1747 1664 1705 1680 1691 1715 1807 1679 1649 1698 1711 1659 1701 1655 1652 1609 1670 1696 1696 1648 1751 1648 1629 1629 1645 1637 1643 1673 1652 1643 1708 1623 1566 1636 1606 1618 1646 1560 1608 1574 1603 1608 1568 1568 1493 1571 1584 1559 1566 1602 1585 1567 1561 1624 1571 1577 1657 1547 1521 1566 1549 1524 1559 1438 1460 1493 1556 1561 1566 1534 1532 1549 1489 1454 1485 1500 1504 1470 1430 1517 1458 1530 1425 1406 1523 1492 1405 1397 1471 1449 1507 1507 1496 1503 1463 1437 1474 1585 1450 1440 1498 1419 1511 1426 1451 1521 1499 1496 1459 1490 1482 1481 1505 1478 1379 1392 1397 1455 1444 1440 1432 1474 1411 1375 1313 1365 1451 1337 1476 1512 1431 1442 1373 1428 1354 1427 1294 1414 1363 1471 1425 1444 1418 1405 1390 1381 1405 1327 1405 1430 1380 1389 1376 1401 1338 1331 1375 1409 1389 1430 1369 1395 1346 1374 1360 1360 1321 1386 1343 1376 1320 1372 1428 1348 1366 1294 1399 1355 1403 1404 1365 1492 1368 1394 1314 1341 1337 1389 1375 1363 1392 1380 1421 1434 1359 1344 1350 1363 1342 1405 1385 1374 1434 1296 1406 1351 1333 1350 1361 1427 1430 1472 1443 1378 1313 1335 1275 1382 1291 1315 1334 1342 1394 1317 1341 1363 1379 1349 1371 1381 1391 1462 1334 1362 1413 1421 1327 1357 1401 1343 1389 1372 1360 1370 1348 1377 1324 1397 1335 1434 1408 1338 1328 1409 1339 1368 1383 1359 1311 1367 1369 1273 1381 1375 1379 1374 1330 1347 1408 1430 1274 1299 1330 1378 1318 1307 1355 1317 1336 1327 1389 1333 1390 1410 1334 1347 1329 1401 1370 1347 1343 1402 1334 1336 1346 1332 1337 1360 1379 1286 1385 1411 1362 1407 1370 1439 1442 1393 1355 1318 1360 1333 1348 1355 1305 1339 1316 1379 1428 1306 1385 1361 1378 1322 1352 1336 1308 1324 1342 1344 1362 1355 1323 1308 1333 1288 1331 1354 1351 1354 1359 1329 1334 1271 1326 1343 1361 1321 1325 1316 1309 1312 1327 1280 1264 1341 1255 1341 1329 1344 1297 1258 1207 1308 1241 1310 1294 1286 1299 1304 1232 1325 1280 1313 1237 1311 1257 1256 1264 1205 1231 1232 1243 1264 1283 1191 1227 1242 1243 1219 1229 1245 1298 1153 1204 1152 1223 1185 1182 1248 1261 1307 1196 1212 1230 1205 1195 1174 1188 1219 1200 1132 1221 1127 1192 1137 1134 1164 1216 1161 1187 1135 1104 1187 1136 1114 1155 1129 1181 1121 1207 1177 1116 1212 1169 1203 1191 1222 1202 1133 1150 1170 1142 1152 1090 1153 1122 1165 1088 1086 1148 1188 1101 1111 1123 1101 1101 1151 1101 1061 1144 1126 1087 1133 1073 1114 1115 1083 1181 1174 1128 1133 1127 1113 1055 1167 1145 1175 1164 1126 1184 1188 1218 1203 1231 1284 1204 1226 1264 1317 1379 1403 1418 1360 1381 1391 1361 1357 1328 1371 1352 1399 1387 1347 1314 1284 1306 1300 1329 1272 1344 1274 1341 1253 1348 1245 1309 1304 1319 1341 1307 1267 1311 1300 1368 1342 1334 1244 1252 1234 1243 1208 1240 1253 1190 1173 1204 1220 1221 1129 1124 1211 1130 1083 1114 1169 1126 1187 1068 1145 1116 1113 1130 1084 1053 1126 1088 1137 1164 1170 1139 1084 1202 1083 1172 1116 1170 1148 1201 1177 1138 1233 1191 1177 1237 1163 1181 1352 1265 1339 1328 1316 1327 1340 1437 1450 1571 1595 1640 1646 1814 1830 1937 2062 2201 2380 2438 2662 2825 2953 3277 3508 3698 3930 4285 4528 4937 5244 5463 5793 6084 6110 6322 6384 6464 6555 6423 6289 6204 5937 6020 5643 5340 5429 5068 4908 4892 4605 4500 4460 4302 4452 4306 4305 4388 4380 4510 4607 4736 4837 5151 5221 5532 5422 5270 5184 5217 5115 4908 4850 4792 4724 4532 4329 4230 4243 4045 3962 3923 3868 3858 3754 3791 3732 3720 3658 3358 3344 3263 3203 3063 3086 2902 2776 2732 2622 2606 2402 2367 2199 2137 1985 1942 1873 1808 1697 1752 1621 1557 1582 1512 1471 1425 1494 1386 1433 1366 1369 1382 1327 1284 1338 1283 1245 1217 1312 1194 1208 1145 1181 1092 1223 1152 1146 1173 1030 1086 1038 1079 1047 1084 1020 1047 1019 1034 945 1022 989 1046 981 924 1064 921 980 944 936 991 919 887 923 878 952 859 875 881 903 835 855 884 900 842 848 871 927 846 900 839 861 859 898 819 875 830 842 880 875 845 839 832 882 840 887 793 860 831 885 783 942 816 907 845 813 800 867 743 830 782 851 774 859 860 807 831 839 872 832 819 802 835 803 867 771 841 784 789 840 838 868 802 876 824 811 810 859 846 797 848 788 812 792 823 792 784 795 806 868 821 820 864 831 788 797 802 776 819 796 788 800 856 767 805 815 817 827 775 786 807 877 817 826 852 828 846 776 778 795 807 777 821 758 803 857 812 797 810 824 813 832 805 862 827 813 821 819 773 810 819 863 825 821 829 821 840 785 841 820 782 794 802 817 793 859 809 770 776 752 789 751 800 821 813 871 838 826 829 825 862 869 811 848 820 837 799 789 869 862 845 850 825 806 815 850 756 821 859 859 845 892 904 888 884 911 905 857 919 894 875 911 888 908 910 962 934 914 969 901 943 947 934 973 966 928 904 990 957 906 940 896 896 919 953 917 872 915 894 968 903 908 908 916 908 877 873 905 922 894 920 873 893 961 970 924 951 861 974 899 940 948 886 989 939 910 907 974 932 1022 912 956 984 1020 995 981 976 975 1018 984 1081 1072 1107 1124 1064 1128 1107 1221 1174 1201 1268 1338 1331 1414 1387 1446 1471 1588 1664 1686 1772 1892 1919 2136 2174 2329 2476 2634 2914 3018 3311 3544 3712 4075 4370 4593 4905 5089 5350 5419 5843 5987 5841 5943 6095 5889 6072 5995 5858 5734 5580 5398 5296 5048 4953 4788 4558 4590 4420 4297 4408 4226 4294 4251 4249 4480 4446 4597 4766 5095 5292 5516 5815 5841 6183 6314 6388 6626 6812 6695 6791 6597 6749 6592 6613 6415 6327 6177 5941 5501 5323 5067 4862 4505 4323 4018 3845 3616 3482 3261 3110 2760 2758 2586 2478 2336 2304 2102 1900 1903 1878 1779 1773 1646 1625 1574 1546 1394 1425 1391 1325 1368 1359 1343 1223 1207 1227 1184 1211 1176 1128 1162 1121 1058 1103 985 1005 981 1018 1025 964 1005 994 955 983 920 890 920 941 915 941 885 873 858 872 823 826 823 798 782 758 789 758 771 819 739 715 719 734 763 735 754 713 748 717 744 732 708 755 725 776 715 744 693 712 770 679 778 664 742 669 668 731 738 677 666 677 703 698 696 696 622 652 690 692 715 696 679 687 646 729 664 722 659 672 696 668 652 655 717 648 678 660 664 696 668 743 669 766 649 645 648 636 685 617 634 613 615 622 662 671 659 617 668 670 668 645 645 662 681 658 584 664 665 666 632 636 617 585 615 645 641 604 645 641 634 627 609 646 609 614 625 583 615 639 645 555 606 617 579 595 579 626 581 570 601 627 587 642 636 610 674 626 613 592 593 611 631 602 610 622 622 629 598 607 625 618 570 614 603 639 676 610 591 593 633 619 620 612 622 558 607 565 592 602 565 585 597 576 668 548 588 582 590 643 576 615 663 585 605 607 586 613 580 647 568 568 565 619 587 551 581 534 559 563 635 563 565 563 571 615 578 572 589 635 620 627 565 587 590 556 606 552 641 603 579 600 573 620 563 591 594 628 629 624 630 611 592 605 617 561 566 612 611 598 593 639 547 597 555 550 573 558 575 556 599 552 598 554 550 550 654 553 584 504 584 567 588 544 548 557 557 588 572 530 557 563 577 553 569 511 559 515 584 551 514 549 553 577 529 553 544 557 547 554 524 518 563 562 489 564 539 533 543 526 526 507 579 511 527 498 510 554 535 568 586 577 526 546 571 498 538 559 530 529 550 530 514 527 480 529 495 543 507 510 528 520 521 527 547 514 541 535 495 486 520 493 519 514 543 510 483 510 467 557 535 542 502 507 461 545 500 504 564 482 534 492 512 506 548 520 515 519 545 477 507 531 536 502 528 541 492 519 515 516 522 478 512 509 493 488 515 512 516 498 500 551 511 507 547 506 498 525 559 502 534 511 502 543 528 504 482 506 520 514 491 499 489 465 464 500 521 480 482 515 514 472 519 487 521 533 536 490 512 484 499 474 524 460 477 511 497 520 541 537 528 450 500 496 487 519 512 523 516 447 492 481 493 507 561 458 456 515 527 457 498 518 543 519 488 444 515 508 508 480 517 495 501 488 524 483 504 486 547 541 524 525 479 533 514 517 474 490 478 478 476 549 496 530 506 516 493 506 520 542 493 478 495 536 529 494 476 503 511 485 488 467 506 490 450 497 502 522 510 486 512 468 458 514 526 505 486 494 519 481 504 502 531 502 541 466 503 500 474 516 501 504 511 480 482 472 503 500 501 483 461 500 485 553 481 487 498 510 487 469 490 514 488 494 533 514 477 500 511 468 515 501 441 508 497 474 487 465 430 523 487 484 495 518 517 459 509 473 493 468 501 489 481 485 505 443 464 493 491 469 478 519 428 477 480 484 488 502 505 492 483 469 494 486 481 511 501 535 480 498 507 497 492 510 496 475 505 478 482 474 513 502 487 493 481 511 508 461 501 515 498 471 522 544 532 503 512 495 524 473 515 529 476 500 520 463 522 489 491 497 490 501 519 524 535 525 534 520 482 500 477 485 511 510 538 536 515 506 537 542 530 525 497 514 519 547 492 466 497 499 501 524 522 527 505 501 526 509 476 489 490 504 522 482 500 470 480 489 504 475 513 497 507 482 519 499 514 472 528 488 461 464 486 526 494 441 533 474 464 492 501 465 465 440 474 488 466 476 452 459 488 474 504 457 472 475 463 480 449 483 459 448 508 475 473 502 490 515 504 492 452 443 497 440 461 470 453 476 433 471 454 438 461 462 443 439 483 464 506 464 431 450 473 447 475 467 456 467 450 476 479 497 466 445 486 470 457 468 497 471 485 474 459 464 442 420 451 468 453 493 496 457 433 442 432 494 449 531 439 476 467 430 454 446 425 485 491 491 471 474 504 464 462 463 470 424 487 475 493 442 452 498 469 467 495 496 454 484 521 513 497 477 501 501 523 499 530 492 548 555 566 575 557 595 536 592 610 605 652 656 715 714 695 756 741 801 797 830 874 835 867 887 887 865 887 903 875 864 860 808 832 888 851 778 811 755 720 688 696 682 647 645 634 626 672 626 635 618 591 562 555 580 569 571 568 587 594 593 589 602 604 544 555 547 633 608 624 540 560 594 578 613 626 617 657 663 632 697 669 653 632 669 645 728 746 675 734 778 749 720 786 693 690 750 681 680 691 692 668 654 655 638 633 637 636 578 605 571 540 540 525 565 576 513 551 515 541 546 482 478 490 488 520 556 501 493 478 514 409 463 493 475 460 486 444 446 463 458 419 465 460 465 460 517 445 458 481 462 444 426 475 454 421 478 400 472 428 440 424 447 440 440 439 424 406 441 434 450 418 412 449 454 419 415 454 405 421 435 422 417 404 461 437 431 397 458 399 424 411 421 455 404 412 406 385 409 420 398 386 419 394 411 403 461 409 446 401 427 430 380 415 415 405 384 418 383 379 414 423 418 456 417 447 427 421 414 433 398 428 410 433 432 390 405 383 447 442 376 403 391 383 439 395 409 376 428 395 420 404 410 416 424 439 448 454 433 445 404 437 407 431 404 433 415 427 455 418 436 426 440 438 439 437 425 422 408 432 434 448 427 462 434 403 423 410 420 412 400 425 453 424 442 460 443 440 419 411 414 409 434 441 431 430 451 474 461 429 416 412 473 445 458 414 433 456 401 446 420 418 449 434 468 467 446 457 407 425 439 460 475 477 415 465 487 436 459 428 440 422 454 432 433 431 426 500 453 458 453 485 489 478 485 459 465 506 504 469 471 478 473 486 490 459 522 472 500 468 503 468 493 535 543 515 566 554 610 589 620 630 624 628 688 652 676 622 727 753 764 828 789 904 906 966 1016 1154 1151 1285 1354 1531 1623 1658 1770 1944 2110 2232 2346 2589 2689 2750 2817 2937 3073 3135 3162 3290 3259 3311 3213 3368 3362 3283 3157 3186 3078 2920 2853 2671 2663 2644 2370 2446 2279 2046 1972 1957 1938 1790 1732 1782 1613 1469 1520 1437 1493 1499 1527 1524 1540 1545 1667 1667 1836 1904 1968 1979 2094 2189 2242 2287 2397 2343 2536 2525 2641 2678 2728 2609 2828 2647 2670 2627 2575 2515 2514 2487 2410 2333 2394 2219 2251 2201 2159 2074 2046 2016 1904 1965 1931 1853 1818 1790 1753 1689 1689 1593 1623 1550 1536 1494 1451 1444 1301 1371 1273 1263 1225 1181 1130 1154 1015 1050 1018 956 968 952 901 871 847 841 882 786 803 787 787 744 732 676 659 628 655 631 648 627 638 619 589 596 576 570 558 583 541 548 522 493 547 548 525 504 556 527 522 484 503 503 460 551 476 498 458 503 485 475 477 481 509 473 489 431 465 440 483 473 442 451 416 442 456 458 471 464 489 430 420 455 443 435 447 465 412 458 401 417 444 430 411 423 458 394 445 400 403 433 439 465 455 401 388 433 409 393 468 445 428 461 450 435 464 459 444 424 459 433 496 483 504 476 501 525 531 558 526 552 591 598 528 572 589 567 617 644 619 618 607 621 647 661 623 657 647 588 607 630 645 650 622 656 682 709 630 670 640 655 708 673 681 679 694 645 672 606 619 629 600 617 610 524 590 569 590 573 587 549 545 586 553 613 599 592 590 596 528 550 579 558 547 568 551 588 546 523 533 492 551 548 530 511 483 548 480 526 502 446 470 441 484 444 435 446 441 396 458 453 423 411 410 435 378 428 422 401 416 406 398 375 391 440 433 439 435 427 403 398 391 378 389 369 377 381 379 387 395 354 407 386 371 376 374 406 392 367 367 380 354 369 353 369 403 390 366 412 368 352 377 368 354 363 384 371 398 362 370 395 331 349 405 355 347 370 354 374 378 314 397 332 376 384 353 365 378 380 381 356 373 384 368 353 377 352 342 383 339 363 353 368 384 354 373 349 365 356 341 377 353 386 317 347 390 357 361 328 380 386 354 343 365 337 361 354 366 372 344 404 335 350 333 347 404 394 340 359 371 376 390 391 360 397 356 368 374 350 379 356 345 325 356 346 396 352 356 362 340 372 346 360 380 370 344 392 379 403 382 365 370 379 436 404 422 383 406 397 373 425 395 433 428 395 386 432 428 415 436 403 386 380 363 349 428 364 364 374 347 407 384 385 389 351 375 353 384 376 385 364 392 361 368 321 391 359 333 350 354 333 352 352 404 336 340 346 372 318 327 341 351 318 337 336 346 349 328 348 341 397 369 332 354 351 381 366 323 333 359 336 342 366 353 357 343 352 338 342 356 314 363 345 364 360 346 345 378 344 357 376 340 353 355 379 361 340 329 341 368 319 362 325 346 373 357 385 323 315 339 370 317 342 379 331 341 358 339 352 338 327 360 330 376 326 373 334 356 381 355 341 321 351 322 386 331 330 362 338 352 387 344 351 377 323 350 314 355 349 360 330 362 364 362 325 310 338 329 338 355 339 324 322 320 361 356 344 352 334 327 313 322 341 344 339 322 316 314 327 313 320 339 318 334 357 339 316 365 341 368 343 368 319 337 334 339 283 312 347 337 325 348 317 358 324 318 352 343 294 321 360 319 336 313 333 325 313 338 315 310 343 328 340 329 336 321 346 317 337 335 302 288 305 299 300 311 288 314 354 345 317 344 349 324 317 321 329 336 324 327 329 359 297 320 320 309 295 374 324 349 338 315 327 325 348 325 344 297 302 324 348 348 320 355 318 330 317 344 328 323 318 339 324 303 347 326 297 333 340 283 321 328 354 315 334 342 343 372 350 370 322 363 356 365 346 401 388 359 363 372 391 330 367 337 370 350 367 339 374 335 410 368 349 404 389 357 344 343 369 367 395 396 388 365 370 380 369 419 404 391 385 429 446 464 395 393 419 420 437 428 442 482 443 519 520 530 522 507 555 609 599 615 714 711 659 715 750 791 824 921 901 937 981 948 1005 1069 1049 1105 1176 1041 1091 1081 1020 1060 1028 1002 1072 1000 1024 1012 986 979 887 882 851 868 889 840 768 808 787 746 745 677 701 644 697 676 635 610 638 625 586 645 580 621 607 617 678 626 668 656 698 679 688 756 757 810 783 827 885 917 971 959 968 1055 1037 1104 1160 1207 1201 1244 1186 1214 1222 1255 1180 1168 1142 1126 1095 1124 1073 1021 1015 1022 976 986 937 919 924 835 801 832 771 778 698 693 707 698 666 626 609 548 602 555 568 526 534 557 536 478 542 469 469 476 435 484 419 502 455 452 438 435 422 422 423 427 413 394 393 368 380 386 373 359 386 411 365 332 392 356 349 333 367 357 351 364 362 366 328 374 366 341 341 329 331 307 360 319 363 339 300 340 341 352 320 317 320 310 315 368 333 323 292 315 353 323 329 308 313 329 318 321 300 313 294 312 280 313 331 331 313 281 353 322 297 319 345 313 318 292 304 311 331 349 329 325 318 315 300 350 306 325 344 336 346 333 312 337 310 382 361 304 347 362 337 354 328 314 333 307 347 358 377 365 348 354 374 351 372 344 371 394 382 381 436 426 460 413 397 499 471 477 527 567 568 578 647 700 698 746 817 833 853 895 992 980 985 1027 1069 1043 1040 1097 1137 1155 1133 1144 1060 1156 1100 1165 1159 1144 1079 1020 1030 1097 1006 931 965 953 881 875 818 761 756 795 764 701 710 701 681 658 671 608 563 604 634 588 571 563 568 536 590 562 577 519 586 594 630 606 551 582 619 626 622 662 720 696 730 782 789 842 857 881 944 960 1000 1032 987 962 985 951 1045 972 932 944 932 908 891 870 891 881 873 855 828 856 786 806 755 753 704 682 637 646 603 599 601 627 582 600 536 593 583 555 542 525 576 573 621 555 575 590 641 663 619 669 681 653 675 649 654 664 634 656 649 701 621 670 646 677 635 608 656 610 614 574 537 529 533 538 496 508 492 489 492 460 487 456 446 462 444 425 464 433 417 441 397 430 434 424 453 391 391 405 418 412 377 422 412 367 435 406 404 380 417 406 409 426 411 404 467 447 422 410 438 451 474 430 421 463 489 470 484 483 424 475 488 472 490 526 491 499 493 488 451 492 484 509 451 503 428 495 451 414 393 418 421 398 409 406 383 404 390 418 372 351 364 366 343 355 340 367 365 364 340 319 330 348 316 357 321 340 345 351 359 311 333 336 335 307 317 337 327 311 326 382 311 337 324 326 357 314 334 330 301 333 308 335 321 301 301 348 350 333 334 298 291 325 314 324 296 323 333 303 305 300 332 293 319 345 376 373 347 379 340 376 393 363 369 401 357 392 389 399 411 437 415 388 365 421 386 421 452 412 417 419 388 395 370 414 378 398 423 349 356 367 387 353 373 386 372 381 384 360 322 313 325 337 335 330 305 317 308 314 277 341 290 312 318 318 326 339 300 297 287 262 288 309 312 242 284 275 265 288 275 287 286 273 276 266 250 246 264 228 287 275 279 287 290 261 280 267 287 276 262 295 239 266 258 261 269 285 245 270 278 283 240 256 263 212 284 243 238 264 261 273 265 250 261 269 281 279 270 260 282 269 293 272 241 223 244 244 268 209 238 256 247 247 244 226 258 259 258 245 240 256 256 246 282 273 250 227 262 245 245 256 227 234 233 288 247 243 240 240 262 270 239 243 237 231 250 242 269 273 208 258 237 264 301 244 262 250 229 246 241 229 257 243 261 241 248 239 261 242 241 260 257 247 276 271 232 222 234 241 225 257 236 256 250 219 223 258 258 235 210 240 259 275 234 245 286 229 265 227 266 241 262 230 227 222 239 236 269 257 256 249 221 269 267 235 247 238 236 204 241 224 209 264 240 246 245 243 239 241 214 236 229 266 271 221 233 245 232 241 209 229 260 258 243 256 224 223 206 224 236 240 215 236 225 229 243 219 234 220 279 226 239 212 265 281 235 270 229 236 258 236 248 232 248 241 256 246 238 235 232 213 238 216 247 287 204 233 234 266 257 257 245 230 246 258 226 232 243 235 240 217 266 242 235 224 233 239 210 229 207 229 263 223 219 248 284 265 241 261 239 246 229 221 218 238 228 229 246 270 244 257 242 272 259 196 233 227 240 238 221 238 221 261 237 212 213 243 264 215 240 274 238 222 274 234 277 247 278 237 265 271 245 241 241 230 262 256 287 301 309 274 267 272 276 309 302 284 269 303 293 313 270 298 333 339 283 310 290 305 319 323 341 293 306 347 288 303 344 300 274 306 304 288 285 305 292 266 297 287 284 266 282 287 270 286 272 297 249 258 274 258 303 273 251 239 256 221 281 248 246 262 250 279 256 224 269 267 226 261 279 233 234 266 264 267 296 238 242 258 276 272 278 282 277 247 238 223 275 244 292 256 234 292 259 285 288 259 260 276 274 249 288 261 246 295 247 248 277 246 281 257 285 263 304 281 270 259 279 266 273 261 270 269 268 267 262 272 284 245 294 235 247 250 236 265 237 220 272 276 246 260 230 229 264 234 237 233 243 232 250 234 240 230 267 268 235 227 240 250 211 236 237 203 261 215 262 259 200 241 215 226 200 231 206 212 236 230 207 227 234 235 234 234 210 238 192 226 267 207 243 241 232 232 246 221 224 212 203 212 203 232 222 230 236 201 218 229 221 239 240 222 214 210 229 246 225 207 244 197 248 216 244 214 228 237 211 225 227 239 237 231 243 219 221 214 229 211 247 225 239 250 218 213 256 246 228 229 196 207 231 246 244 231 205 221 228 217 225 212 257 263 230 244 249 221 240 221 256 225 234 228 271 287 273 240 231 233 259 238 239 214 228 277 239 266 286 269 282 267 249 296 285 270 281 258 294 287 314 293 295 317 322 372 327 322 360 334 392 348 444 382 401 403 385 389 427 460 450 435 474 471 421 393 460 481 424 440 430 458 446 457 431 461 460 430 449 459 453 389 449 384 422 370 397 425 393 380 395 382 393 392 353 302 359 320 346 328 344 306 333 317 299 321 298 323 264 305 319 304 309 281 326 279 302 322 289 304 280 309 303 325 307 349 300 332 353 324 364 336 354 333 355 354 374 381 391 407 428 459 444 405 481 438 471 430 457 470 440 471 421 440 462 461 444 447 470 432 466 441 429 460 459 449 423 432 410 451 441 406 402 467 394 385 432 378 407 386 388 364 361 332 355 334 358 312 344 300 346 328 261 320 312 284 295 316 284 304 306 297 300 265 269 291 262 283 269 250 240 248 244 275 227 263 277 267 242 274 245 249 250 270 257 271 213 262 225 225 227 246 199 248 259 260 207 244 249 273 233 222 243 216 232 229 261 235 217 216 232 215 240 248 230 269 258 241 232 242 228 214 218 237 239 221 230 212 222 243 217 229 232 214 202 217 213 214 230 229 218 202 222 233 202 227 226 194 223 223 217 199 222 245 232 215 238 203 227 215 222 236 204 217 222 215 213 226 198 226 230 234 214 221 216 219 234 238 217 208 196 230 206 212 208 214 219 199 218 198 223 202 209 206 216 232 213 201 204 197 206 195 210 193 209 214 194 195 212 199 202 203 213 234 202 214 217 203 215 192 233 249 196 212 210 198 196 224 200 200 195 231 242 230 223 210 176 213 196 217 193 216 204 192 227 208 198 220 200 236 224 190 234 210 222 193 214 205 206 221 206 216 209 199 230 191 223 202 232 215 201 244 218 213 199 214 244 221 204 213 227 248 219 221 212 187 223 241 214 213 200 216 204 192 203 205 214 193 237 198 189 202 191 185 196 199 209 194 232 185 212 198 219 224 208 207 210 201 209 212 192 230 191 214 208 212 238 199 202 218 208 205 237 203 231 216 236 184 184 187 183 201 222 219 189 183 198 178 230 200 203 205 202 205 201 205 214 207 214 237 247 209 211 215 208 203 211 201 222 242 209 226 204 239 222 210 215 215 229 233 200 176 221 206 212 205 196 221 205 208 216 211 201 184 211 199 214 224 193 221 206 218 205 202 198 223 213 216 197 212 204 203 246 208 216 210 213 206 205 226 199 223 211 200 194 230 216 178 209 200 201 210 201 222 221 200 198 231 211 207 198 200 204 191 214 208 178 208 216 207 211 213 256 215 208 216 199 215 212 207 214 223 232 226 203 195 249 187 234 216 219 245 232 208 226 222 196 217 222 217 182 217 220 226 189 177 238 207 223 209 247 211 198 230 225 228 192 228 204 223 200 207 225 222 206 211 230 209 213 204 218 208 183 207 206 226 205 209 231 226 219 241 236 238 195 226 221 198 187 227 243 234 237 231 249 231 247 242 228 218 199 234 226 209 204 232 235 224 238 243 236 262 228 242 222 244 226 218 247 240 234 221 257 241 239 235 268 246 242 271 261 288 277 266 259 311 294 256 264 296 299 272 257 245 310 270 292 275 307 306 280 282 304 268 274 292 259 303 285 292 284 314 274 289 263 301 320 298 305 294 312 329 306 339 286 297 339 363 332 360 360 358 329 390 380 368 411 400 412 419 427 407 417 387 383 400 418 487 434 375 427 418 419 424 445 448 439 432 390 453 453 446 428 426 402 435 406 393 434 395 377 413 425 340 358 399 383 331 349 378 385 362 376 344 332 321 343 344 337 308 315 305 316 331 300 283 300 313 280 304 280 301 279 323 289 322 302 284 299 283 316 281 310 322 314 308 311 316 302 344 307 342 344 327 348 365 366 400 363 353 395 370 385 417 410 466 440 430 445 454 463 459 484 487 486 480 487 486 499 471 468 487 508 500 491 447 482 464 458 455 466 411 427 428 415 419 442 435 455 437 412 419 456 386 396 361 376 365 337 331 364 360 365 345 360 319 353 323 304 307 327 308 318 321 327 315 311 314 323 326 291 296 310 300 330 267 264 310 318 291 279 260 277 293 295 300 301 290 265 322 301 297 290 313 263 300 299 327 319 305 284 283 317 314 285 333 314 309 300 305 316 343 342 350 323 319 335 330 343 376 331 374 378 399 360 402 373 366 406 411 443 501 456 479 501 541 521 578 531 539 549 583 628 633 670 699 675 683 644 681 744 699 701 648 693 721 686 716 686 712 743 700 696 695 709 667 687 688 712 659 621 626 644 635 616 598 592 593 596 586 536 549 534 477 481 473 460 503 477 491 444 439 462 478 428 435 452 411 426 400 380 396 411 388 374 368 387 377 362 374 369 388 346 367 355 344 411 383 385 377 369 340 398 453 430 380 395 384 451 436 428 471 530 475 515 488 543 514 550 515 559 623 573 556 674 635 570 652 669 680 648 701 658 654 696 657 691 674 709 659 623 673 624 676 697 618 674 640 643 653 638 624 599 600 636 573 585 603 576 541 580 602 556 552 578 526 531 567 546 509 494 469 530 490 512 473 505 485 517 466 462 467 460 447 455 442 491 447 424 423 489 425 439 417 424 436 421 397 408 414 388 380 423 419 394 386 389 360 394 358 361 361 366 399 339 387 322 348 322 325 322 355 316 280 277 309 344 289 309 300 285 274 291 277 283 286 290 296 283 291 303 293 274 273 306 267 301 250 286 243 274 241 242 293 260 258 237 230 239 262 217 249 265 244 290 274 274 225 277 212 278 248 232 271 247 234 242 243 290 274 241 237 220 250 239 232 240 275 214 219 226 244 280 233 258 224 245 247 233 223 282 223 257 259 241 236 246 236 280 242 235 228 237 282 239 262 233 263 233 240 239 228 256 232 246 244 215 238 228 269 257 276 276 259 281 260 229 230 273 281 283 238 268 243 238 272 281 272 257 284 263 261 272 216 245 270 271 298 245 278 258 247 286 271 259 279 288 272 256 303 277 292 267 284 299 239 236 265 262 277 306 240 306 269 283 273 278 285 258 302 277 257 270 250 247 245 285 246 280 268 277 278 232 237 256 247 274 239 246 277 283 282 291 234 234 245 234 229 241 258 246 215 227 265 219 229 233 230 224 215 222 264 251 220 240 223 230 229 223 234 226 261 213 224 246 222 213 240 210 223 231 206 222 210 205 215 245 215 211 199 262 185 193 234 221 188 258 240 224 256 228 203 235 238 212 198 213 220 214 236 210 190 242 190 219 211 215 228 243 221 192 218 207 230 231 206 242 223 236 226 240 233 185 213 223 194 224 217 214 192 206 219 219 183 232 223 197 230 244 190 220 211 236 225 223 235 202 211 217 235 213 229 213 205 235 230 222 184 208 222 196 240 219 232 230 187 217 223 222 235 226 234 213 215 210 233 204 229 201 226 198 202 220 225 194 226 210 196 245 195 217 193 216 196 207 175 207 205 212 208 210 215 192 218 222 181 266 199 215 223 223 206 236 214 202 233 202 233 235 211 213 227 217 227 210 188 215 193 241 219 223 216 229 203 232 242 216 233 210 230 235 229 206 231 231 246 231 227 239 210 218 264 210 240 224 227 229 235 241 233 215 269 232 224 220 224 265 238 238 201 265 211 256 235 248 234 230 268 247 256 265 263 274 262 279 245 294 259 264 287 256 276 277 247 273 260 210 240 287 274 279 260 238 291 240 239 240 232 259 245 282 229 268 220 266 248 285 262 248 278 205 243 256 270 242 246 245 239 242 206 218 206 230 231 231 274 269 232 213 265 220 237 236 234 263 228 238 223 218 211 223 259 227 264 222 218 235 218 229 222 223 202 214 220 245 244 216 204 230 230 227 231 213 226 247 227 219 218 239 239 215 243 242 235 243 210 218 242 249 212 271 229 242 229 246 236 237 198 228 212 240 267 234 222 227 234 250 268 242 272 216 236 244 259 273 251 259 250 241 237 269 261 243 218 222 260 231 264 259 285 233 227 223 238 218 231 256 261 242 216 222 216 227 256 293 235 234 228 214 226 222 224 230 230 218 216 205 190 227 226 242 243 211 213 245 240 226 226 236 237 213 220 207 262 227 239 228 222 221 221 231 212 218 213 231 259 204 201 231 246 191 217 215 221 270 239 207 262 223 226 206 229 257 246 243 219 213 220 226 245 230 263 231 238 224 259 260 283 283 234 286 257 215 261 268 268 279 243 261 286 285 249 236 277 293 264 277 303 285 244 290 302 279 289 335 325 369 343 315 364 355 359 360 406 385 431 413 412 419 396 408 442 477 472 441 444 436 522 531 474 503 530 529 549 572 512 566 508 548 573 575 563 581 582 534 548 550 530 563 586 542 546 559 518 530 475 556 532 549 534 530 502 497 480 443 452 485 495 456 440 453 434 424 430 405 398 379 422 412 433 422 408 374 384 370 338 369 359 342 348 344 346 343 325 330 322 292 320 333 317 312 318 304 299 334 294 299 287 270 291 295 315 299 318 302 329 307 305 295 304 306 288 306 284 331 320 327 348 307 340 358 342 347 359 354 368 348 406 338 381 410 414 446 404 429 455 463 418 453 473 451 518 468 481 492 501 496 538 512 496 459 541 510 497 501 577 505 537 509 537 530 549 496 461 501 465 478 505 507 439 446 474 455 496 451 458 427 467 474 433 443 406 439 430 428 435 403 398 409 395 395 374 388 397 370 376 353 351 381 334 339 336 371 318 373 340 356 353 376 343 356 397 392 359 381 328 359 315 353 347 359 325 345 312 369 304 357 342 335 342 319 286 324 328 321 303 324 319 319 341 292 292 293 282 285 293 325 291 312 318 277 273 304 304 280 290 296 269 293 283 263 287 282 271 279 230 270 249 257 237 265 267 229 243 242 271 277 259 227 229 248 257 234 237 249 273 244 261 247 263 237 261 257 216 219 239 227 230 267 257 211 226 230 211 245 241 219 221 219 259 251 249 237 242 229 267 262 222 268 267 227 239 257 221 246 223 234 238 207 217 227 205 226 203 246 231 244 230 222 217 241 229 210 216 223 201 239 268 227 210 208 220 233 257 229 239 225 224 224 219 205 210 212 216 237 215 224 233 188 187 209 223 197 221 210 215 220 223 210 218 231 206 192 256 219 239 186 192 205 209 187 202 202 217 207 233 232 225 226 230 194 209 202 204 198 202 219 207 218 217 232 225 194 186 196 202 189 188 215 207 212 212 222 221 229 225 206 206 219 214 239 210 208 217 215 194 182 198 179 225 198 223 230 196 213 236 220 230 228 207 233 221 208 223 201 210 203 205 212 188 216 199 226 196 195 228 202 210 204 225 233 208 162 225 204 214 218 201 193 212 219 239 206 191 211 205 212 214 201 235 191 204 202 195 203 185 196 238 212 197 186 192 172 175 198 194 193 188 179 191 204 221 207 219 224 214 215 207 205 213 217 206 212 193 242 203 197 201 185 196 230 197 215 201 194 214 205 207 223 209 247 213 247 230 215 195 223 189 222 227 204 220 212 220 196 228 213 216 224 196 208 215 229 210 206 241 229 233 216 201 259 203 206 213 197 202 187 217 227 204 238 227 196 233 229 226 217 233 227 223 225 249 206 238 231 190 223 229 240 224 234 230 221 240 209 232 236 233 264 240 221 262 250 226 229 210 259 226 260 233 226 243 232 248 232 248 261 226 249 229 247 247 247 264 226 258 273 234 256 264 302 237 258 264 303 292 284 284 273 286 302</counts>
			</dataPoints>
		</scan>
	</xrdMeasurement>
</xrdMeasurements>
