<?xml version="1.0"?>
<xrdMeasurements xmlns="http://www.xrdml.com/XRDMeasurement/2.3" xmlns:xsi="http://www.w3.org/2001/XMLSchema-instance" xsi:schemaLocation="http://www.xrdml.com/XRDMeasurement/2.3 http://www.xrdml.com/XRDMeasurement/2.3/XRDMeasurement.xsd" status="Completed" recordIdentifier="{6F51D7F0-EA1D-40BC-BE36-1FC9F9DF031D}">
	<comment>
		<entry/>
	</comment>
	<sample type="To be analyzed">
		<id>GPSS_Li1p4Mg0p8Nb0p2Cl4_100825_68e6fdc007cf888582f941b4</id>
		<name></name>
		<preparedBy></preparedBy>
	</sample>
	<xrdMeasurement measurementType="Scan" status="Completed" sampleMode="Reflection">
		<usedWavelength intended="K-Alpha 1">
			<kAlpha1 unit="Angstrom">1.5405980</kAlpha1>
			<kAlpha2 unit="Angstrom">1.5444260</kAlpha2>
			<kBeta unit="Angstrom">1.3922500</kBeta>
			<ratioKAlpha2KAlpha1>0.5000</ratioKAlpha2KAlpha1>
		</usedWavelength>
		<incidentBeamPath>
			<radius unit="mm">145.00</radius>
			<xRayTube id="1010048" name="Empyrean Cu LFF HR (9430 033 7310x)">
				<tension unit="kV">40.0</tension>
				<current unit="mA">15.0</current>
				<anodeMaterial>Cu</anodeMaterial>
				<focus type="Line">
					<length unit="mm">12.0</length>
					<width unit="mm">0.4</width>
					<takeOffAngle unit="deg">6.0</takeOffAngle>
				</focus>
			</xRayTube>
			<sollerSlit id="21010002" name="Soller slits 0.04 rad.">
				<opening unit="rad">0.0400</opening>
			</sollerSlit>
			<mask id="22031000" name="Fixed mask 13 mm">
				<width unit="mm">9.00</width>
			</mask>
			<divergenceSlit id="22120001" name="Divergence slit 1°" xsi:type="fixedDivergenceSlitType">
				<distanceToSample unit="mm">50.00</distanceToSample>
				<height unit="mm">1.52</height>
			</divergenceSlit>
		</incidentBeamPath>
		<sampleMovement xsi:type="spinningSampleMovementType">
			<spinnerRevolutionTime unit="seconds">1.0</spinnerRevolutionTime>
		</sampleMovement>
		<diffractedBeamPath>
			<radius unit="mm">145.00</radius>
			<antiScatterSlit id="22090040" name="AS slit 9 mm (PIXcel)" xsi:type="fixedAntiScatterSlitType">
				<height unit="mm">9.00</height>
			</antiScatterSlit>
			<sollerSlit id="21020003" name="Large Soller slits 0.04 rad.">
				<opening unit="rad">0.0400</opening>
			</sollerSlit>
			<filter id="20030001" name="Large beta-filter Nickel">
				<material>Ni</material>
				<thickness unit="mm">0.020</thickness>
			</filter>
			<detector id="7010019" name="PIXcel1D-Medipix3 detector" xsi:type="rtmsDetectorType">
				<phd unit="keV">
					<lowerLevel>4.02</lowerLevel>
					<upperLevel>11.27</upperLevel>
				</phd>
				<mode>Scanning</mode>
				<activeLength unit="deg">5.542</activeLength>
			</detector>
		</diffractedBeamPath>
		<scan appendNumber="0" mode="Continuous" scanAxis="Gonio" status="Completed">
			<header>
				<startTimeStamp>2025-10-17T13:59:30-07:00</startTimeStamp>
				<endTimeStamp>2025-10-17T14:07:38-07:00</endTimeStamp>
				<author>
					<name>AutomatedUser</name>
				</author>
				<source>
					<applicationSoftware version="1.7b (136)">PANalytical Aeris Instrument Suite</applicationSoftware>
					<instrumentControlSoftware version="3.2.00000000 20240306">AERIS</instrumentControlSoftware>
					<instrumentID>950485</instrumentID>
				</source>
			</header>
			<dataPoints>
				<positions axis="2Theta" unit="deg">
					<startPosition>10.00943322</startPosition>
					<endPosition>99.99442286</endPosition>
				</positions>
				<positions axis="Omega" unit="deg">
					<startPosition>5.00471661</startPosition>
					<endPosition>49.99721143</endPosition>
				</positions>
				<commonCountingTime unit="seconds">12.495</commonCountingTime>
				<counts unit="counts">2865 2894 2775 2822 2881 2888 2889 2892 2864 2937 2978 2916 2865 2920 2818 2912 2905 2942 2877 2880 2962 2889 2941 2870 2847 2837 2955 2931 2938 2930 2841 2973 2784 2789 2844 2858 2920 2924 2963 2880 2877 2841 2931 2901 2910 2917 2971 2873 3052 2859 2889 2862 2905 2931 2919 3059 2905 3016 2926 2858 2921 2929 2948 2979 2913 2988 2889 3018 2972 2933 3087 3007 2965 3018 3015 2996 3079 2980 3029 2988 2983 2950 2990 3045 2980 3061 2998 2910 3022 3066 2960 2978 3118 3024 3050 3013 3064 2994 2977 3057 3068 3123 3177 3043 3001 3039 3114 3075 3146 3050 3056 2968 3067 3044 3054 3107 3071 3158 3033 3093 3025 3061 3117 3056 3021 2999 3100 3033 3032 3139 3095 3095 3250 3158 3103 3096 3099 3126 3082 3127 3170 3214 3126 3161 3151 3172 3218 3079 3157 3098 3196 3129 3174 3084 3168 3273 3194 3073 3200 3104 3117 3049 3163 3066 3139 3141 3097 3081 3075 3003 3145 3106 3059 3150 3130 3129 3094 3128 3105 3131 3166 3173 2999 3094 3069 3071 3071 3078 3124 3065 3131 3169 3126 3116 3038 2976 3197 3003 3133 2978 3062 3017 3035 3090 3097 3016 3150 3147 3070 3110 3053 3114 3089 3098 3017 3075 3145 3114 2954 3097 3114 2945 3041 3090 3032 3035 2967 3106 3048 3107 3082 2931 3108 2984 3041 3058 2994 2981 3064 3131 2941 2894 2949 2963 3048 3014 3025 2913 3061 3117 2997 3002 2957 2967 3018 3062 3016 2951 3003 2947 2946 3033 3088 3075 2926 3055 3079 2994 3092 3060 3025 2989 3027 3045 3037 2997 3027 3091 3135 3067 3007 3074 3118 3094 3066 3180 3049 3025 3036 3088 3050 3069 3054 3106 3012 3170 3084 3140 3077 3166 3110 3097 3111 3095 3118 3211 3118 3213 3106 3238 3021 3012 3201 3094 3121 3176 3186 3141 3189 3088 3178 3275 3127 3175 3336 3187 3250 3211 3263 3199 3171 3317 3246 3173 3182 3361 3203 3274 3225 3292 3319 3336 3249 3338 3383 3320 3358 3294 3241 3389 3313 3306 3394 3401 3351 3383 3434 3333 3446 3294 3375 3388 3354 3342 3418 3498 3427 3463 3301 3399 3483 3431 3373 3364 3420 3448 3544 3446 3529 3539 3476 3367 3533 3425 3481 3440 3524 3460 3537 3508 3494 3602 3473 3493 3554 3574 3608 3569 3637 3601 3508 3537 3610 3647 3644 3725 3780 3830 3765 3727 3695 3877 3896 3951 4023 3967 3997 4093 4232 4347 4433 4503 4427 4602 4741 4832 5110 5219 5266 5349 5705 5866 5803 6102 6239 6205 6349 6113 5989 6050 5752 5635 5455 5243 5034 5057 4854 4787 4756 4628 4646 4582 4432 4474 4225 4265 4350 4263 4141 4196 4006 4072 4092 3963 3944 3954 3856 4024 3866 3795 3747 3712 3691 3710 3621 3686 3643 3565 3588 3570 3425 3439 3407 3416 3425 3453 3411 3351 3460 3314 3432 3421 3352 3406 3294 3422 3179 3291 3339 3284 3251 3256 3148 3307 3216 3319 3210 3192 3225 3242 3252 3181 3132 3247 3193 3089 3112 3118 3066 3055 3213 3137 3149 3165 3135 3066 3130 3147 3080 3067 3016 3210 3086 3066 3081 3023 3066 3122 3052 3068 3094 3067 3100 2943 3068 2968 3064 2986 2992 3218 3051 3128 2964 2953 3041 3082 2992 2946 3042 2984 3034 2973 3028 2893 3015 2933 2935 2886 2989 2913 2916 2993 2954 2931 2949 2905 2808 2880 2779 2955 2883 2914 2865 2836 2815 2909 2822 2974 2926 2873 2737 2881 2800 2912 2861 3010 2864 2926 2797 2833 2783 2893 2809 2851 2839 2853 2808 2851 2766 2855 2829 2780 2767 2959 2836 2686 2711 2793 2853 2791 2772 2874 2732 2760 2828 2696 2819 2840 2804 2827 2728 2812 2791 2737 2804 2733 2636 2780 2851 2781 2787 2755 2797 2699 2723 2699 2683 2691 2831 2666 2730 2659 2827 2724 2795 2653 2802 2664 2847 2711 2718 2707 2657 2775 2623 2787 2679 2739 2733 2682 2777 2655 2745 2738 2626 2709 2679 2745 2684 2689 2638 2728 2663 2714 2732 2660 2728 2652 2820 2709 2617 2711 2592 2706 2677 2657 2710 2703 2708 2705 2658 2770 2619 2757 2540 2693 2682 2717 2628 2621 2675 2650 2681 2730 2687 2635 2669 2718 2734 2744 2730 2665 2624 2739 2681 2651 2707 2707 2655 2658 2581 2717 2584 2689 2579 2688 2643 2569 2625 2628 2674 2590 2694 2689 2527 2532 2583 2589 2576 2613 2638 2665 2520 2602 2501 2656 2556 2602 2605 2709 2495 2556 2565 2614 2576 2518 2534 2560 2520 2577 2571 2651 2561 2643 2610 2624 2508 2507 2489 2547 2460 2556 2610 2591 2513 2642 2511 2598 2491 2582 2535 2479 2489 2529 2541 2506 2533 2499 2505 2537 2538 2539 2544 2555 2443 2513 2550 2581 2454 2478 2538 2462 2451 2534 2519 2490 2472 2600 2563 2436 2404 2421 2547 2491 2568 2489 2551 2619 2422 2448 2506 2410 2517 2448 2535 2526 2435 2426 2459 2533 2590 2496 2442 2400 2447 2502 2485 2455 2487 2417 2473 2424 2371 2524 2464 2335 2437 2462 2510 2491 2545 2528 2476 2419 2369 2472 2461 2441 2346 2493 2446 2472 2391 2428 2285 2287 2389 2410 2389 2291 2473 2422 2361 2397 2423 2361 2392 2436 2327 2412 2387 2399 2402 2413 2339 2335 2355 2343 2284 2390 2453 2362 2376 2347 2350 2301 2298 2275 2387 2409 2294 2280 2365 2303 2355 2305 2312 2215 2352 2343 2414 2303 2390 2361 2407 2307 2331 2362 2318 2361 2393 2313 2312 2308 2307 2321 2297 2273 2335 2275 2281 2312 2313 2275 2304 2364 2259 2282 2346 2381 2260 2224 2314 2304 2247 2286 2247 2317 2244 2265 2340 2285 2238 2303 2245 2242 2272 2306 2274 2270 2267 2342 2146 2226 2291 2218 2284 2301 2163 2322 2279 2258 2248 2354 2278 2298 2309 2190 2233 2192 2281 2307 2314 2290 2252 2265 2192 2216 2360 2297 2245 2266 2240 2259 2257 2282 2277 2304 2303 2285 2311 2299 2209 2305 2266 2230 2223 2231 2274 2262 2304 2267 2300 2235 2387 2270 2261 2233 2256 2206 2348 2199 2255 2367 2358 2319 2306 2286 2321 2398 2250 2243 2290 2185 2332 2170 2226 2280 2270 2234 2250 2296 2330 2147 2187 2165 2285 2345 2223 2238 2260 2220 2205 2224 2284 2242 2311 2257 2292 2385 2233 2356 2267 2291 2245 2274 2263 2226 2324 2279 2384 2210 2301 2198 2263 2235 2273 2171 2249 2309 2191 2240 2232 2193 2214 2120 2294 2241 2225 2219 2310 2119 2229 2160 2198 2238 2321 2107 2199 2274 2153 2246 2175 2270 2247 2218 2192 2244 2137 2214 2133 2184 2152 2100 2175 2117 2122 2178 2212 2031 2154 2298 2135 2199 2137 2140 2171 2219 2189 2157 2125 2072 2177 2093 2118 2169 2133 2105 2136 2137 2102 2154 2172 2140 2050 2074 1988 2121 2027 2014 2054 2088 2072 2133 1997 2084 2119 2043 2117 2090 2023 1934 2030 2026 2002 1945 1922 1908 2036 1953 1995 2029 1952 2025 2026 1902 1957 1898 1924 1887 1885 1931 1993 1898 1969 1977 1993 1869 1868 1936 1832 1853 1926 1850 1855 1827 1821 1815 1877 1868 1864 1798 1846 1802 1856 1723 1830 1898 1836 1742 1816 1753 1749 1733 1812 1809 1748 1814 1707 1745 1759 1767 1732 1686 1700 1732 1717 1814 1728 1717 1747 1780 1726 1745 1733 1688 1699 1742 1690 1704 1732 1662 1713 1656 1652 1635 1638 1661 1727 1671 1721 1732 1653 1751 1596 1720 1568 1722 1641 1623 1658 1660 1689 1673 1604 1620 1633 1674 1646 1629 1589 1680 1686 1638 1556 1573 1566 1671 1590 1714 1513 1598 1647 1670 1682 1711 1665 1560 1633 1591 1550 1584 1635 1615 1624 1594 1625 1606 1635 1695 1579 1487 1584 1622 1607 1575 1617 1563 1568 1471 1571 1600 1552 1485 1549 1579 1514 1622 1516 1629 1521 1532 1554 1598 1576 1568 1549 1547 1624 1504 1562 1524 1515 1558 1538 1557 1515 1654 1537 1579 1596 1501 1564 1540 1471 1480 1566 1525 1568 1527 1544 1462 1516 1511 1512 1468 1499 1536 1523 1518 1545 1528 1444 1479 1535 1537 1503 1559 1570 1460 1495 1470 1504 1433 1485 1597 1538 1467 1489 1529 1514 1584 1504 1511 1500 1480 1520 1494 1483 1479 1493 1489 1513 1509 1477 1542 1475 1504 1476 1551 1554 1484 1578 1508 1587 1554 1499 1527 1509 1515 1498 1486 1499 1552 1442 1513 1526 1542 1445 1545 1550 1499 1463 1513 1590 1500 1482 1569 1542 1549 1477 1475 1546 1555 1522 1520 1519 1585 1488 1551 1484 1507 1507 1494 1540 1524 1481 1516 1575 1547 1521 1524 1557 1561 1484 1489 1526 1525 1520 1456 1579 1540 1478 1495 1500 1511 1507 1578 1492 1521 1465 1625 1529 1550 1517 1474 1473 1449 1456 1565 1442 1475 1504 1604 1540 1454 1586 1488 1502 1446 1505 1498 1454 1478 1509 1480 1499 1490 1528 1577 1529 1499 1545 1452 1568 1471 1433 1529 1450 1557 1431 1461 1422 1473 1427 1486 1427 1483 1489 1405 1499 1376 1404 1477 1417 1468 1427 1510 1368 1447 1417 1469 1456 1464 1492 1446 1408 1511 1393 1375 1418 1380 1429 1382 1351 1401 1419 1265 1376 1362 1317 1396 1347 1343 1360 1332 1376 1369 1341 1421 1337 1367 1310 1378 1304 1343 1273 1311 1331 1331 1353 1303 1277 1296 1265 1287 1273 1319 1361 1347 1301 1266 1251 1284 1215 1275 1327 1243 1166 1242 1260 1280 1229 1266 1210 1256 1216 1187 1217 1213 1290 1208 1239 1252 1192 1192 1221 1253 1185 1218 1246 1213 1179 1191 1191 1211 1218 1163 1184 1293 1195 1226 1212 1215 1150 1199 1243 1212 1132 1191 1187 1177 1134 1236 1198 1253 1203 1176 1166 1166 1135 1134 1094 1146 1133 1112 1235 1126 1114 1189 1137 1104 1161 1178 1116 1180 1175 1158 1091 1201 1170 1123 1206 1170 1133 1181 1254 1228 1301 1316 1321 1385 1308 1428 1517 1481 1624 1644 1659 1716 1754 1741 1808 1854 1877 1828 1744 1747 1667 1675 1695 1493 1591 1483 1406 1434 1351 1339 1215 1280 1211 1247 1282 1282 1219 1318 1214 1184 1169 1167 1239 1186 1241 1147 1165 1209 1074 1136 1172 1113 1155 1169 1103 1158 1148 1183 1139 1133 1154 1176 1094 1094 1072 1162 1119 1108 1193 1144 1133 1108 1187 1156 1072 1113 1145 1131 1154 1144 1146 1146 1212 1213 1186 1169 1289 1202 1235 1297 1256 1270 1220 1263 1291 1354 1390 1314 1356 1315 1321 1353 1469 1405 1430 1442 1528 1555 1635 1745 1740 1980 2053 2179 2421 2569 2896 3402 3579 4188 4545 5276 5900 6597 7486 8364 9379 10742 11735 12922 14356 15028 15752 16339 17009 16925 16835 16240 15519 14538 13489 12421 11485 10388 9463 8156 7270 6437 5919 5344 4775 4325 3962 3747 3423 3293 3060 3023 2983 2943 2867 2915 2917 2815 2769 2870 2749 2762 2719 2643 2651 2546 2486 2402 2268 2167 2011 2028 1914 1798 1718 1773 1614 1546 1405 1377 1440 1344 1323 1331 1364 1272 1264 1249 1235 1159 1125 1108 1124 1099 1120 1078 1065 1044 1073 999 1017 1063 983 990 993 978 1015 958 937 982 951 942 928 958 902 913 913 903 904 914 925 905 952 954 894 877 912 900 894 982 872 874 908 908 888 856 914 858 906 858 868 889 903 891 889 916 912 858 969 902 906 907 871 887 887 887 846 866 829 890 838 875 881 888 872 916 864 899 889 857 809 844 827 813 816 855 851 874 871 839 840 853 854 842 861 777 811 856 837 874 804 813 836 829 852 837 850 795 847 830 826 823 843 781 821 790 808 791 819 800 846 818 833 793 776 829 809 779 798 749 850 871 823 856 810 838 799 843 739 849 769 798 768 832 775 819 778 784 844 853 776 815 813 820 803 802 710 817 842 836 819 811 867 830 827 875 842 832 801 783 787 868 774 809 823 827 831 810 797 791 841 786 782 761 797 807 775 838 796 813 775 771 865 817 790 789 801 799 796 741 795 812 821 733 751 784 761 743 827 722 772 783 744 769 729 748 787 719 709 775 792 740 756 756 741 751 753 708 764 739 767 753 738 758 791 743 777 695 753 759 739 734 725 756 804 771 735 728 722 771 747 751 718 732 765 717 775 755 738 798 796 757 762 725 797 807 794 735 805 800 831 742 783 789 750 813 785 815 813 802 896 786 852 779 809 777 759 795 836 758 798 826 823 788 848 791 802 783 755 776 789 775 822 793 765 848 770 774 796 820 833 790 809 870 814 856 895 808 796 841 837 832 910 856 913 920 974 979 949 969 947 963 988 1034 1055 1091 1047 1053 1063 1127 1166 1149 1182 1300 1340 1363 1505 1498 1661 1659 1851 2015 2179 2397 2755 2891 3359 3602 4202 4608 5252 5901 6560 7443 8188 9141 9881 10693 11287 12101 12686 13087 13509 13748 13377 13113 12509 11987 11272 10533 9715 9104 8470 7801 6906 6256 5438 5004 4511 4133 3746 3400 3046 2765 2726 2663 2551 2214 2253 2205 2263 2151 2154 2112 2137 2108 2190 2149 2155 2238 2293 2315 2282 2288 2299 2234 2113 2135 2069 1987 2038 1887 1803 1754 1692 1568 1437 1417 1360 1361 1281 1169 1162 1069 1082 1023 1026 992 993 933 924 914 921 858 904 846 891 855 892 779 826 780 806 782 805 816 752 750 754 717 700 748 719 742 772 705 721 749 757 663 769 686 697 706 697 716 678 694 729 682 694 728 682 702 658 724 671 725 638 716 637 720 627 693 705 688 673 697 635 682 610 729 697 706 687 625 647 689 685 702 636 697 648 648 625 674 623 623 605 677 635 581 634 689 645 643 626 625 635 665 680 575 612 596 611 616 646 621 630 652 648 690 671 669 600 663 573 625 665 619 645 640 648 607 580 611 603 584 633 649 623 604 613 625 618 640 635 624 624 605 677 636 624 614 637 586 634 602 602 650 611 594 619 606 604 626 624 612 575 606 650 570 604 638 579 604 578 636 568 617 561 607 563 587 586 589 620 540 635 573 586 625 614 625 649 602 603 600 605 610 582 592 612 617 554 586 596 600 589 569 593 579 572 622 592 613 640 609 565 590 622 580 613 588 572 610 574 594 593 585 576 581 552 574 561 600 587 564 541 631 592 586 614 576 595 546 546 584 620 582 612 565 560 614 560 566 578 574 570 559 551 545 578 538 619 550 558 562 538 548 554 582 567 554 553 540 557 610 570 532 519 543 611 596 601 544 563 560 526 554 544 550 562 532 532 530 542 532 523 547 559 537 559 568 551 541 505 538 556 580 537 505 556 559 527 544 558 534 536 596 475 513 498 556 528 479 503 463 533 540 513 513 516 491 538 519 516 533 534 508 531 503 559 506 499 456 545 522 512 483 574 499 537 515 521 541 499 535 505 517 505 552 524 507 492 515 521 541 506 532 515 475 490 507 490 517 510 514 508 527 501 469 531 504 514 465 485 513 492 492 525 488 534 510 510 502 465 521 543 532 492 541 518 496 462 520 512 472 473 488 518 449 482 495 505 481 522 514 490 492 491 467 494 494 491 539 533 467 478 476 474 475 497 489 480 487 491 448 466 502 467 453 465 504 479 459 476 480 501 493 468 472 458 493 470 466 516 468 507 463 469 479 481 481 471 477 468 489 458 484 503 459 500 453 477 456 431 506 501 475 476 443 454 487 493 513 488 513 458 515 448 533 505 507 501 486 443 454 497 461 469 513 504 481 475 477 482 497 490 520 490 506 481 489 461 453 489 498 478 494 496 470 493 498 481 486 492 477 535 468 498 539 505 469 440 503 486 481 497 534 507 484 525 478 507 497 475 491 549 496 458 503 503 494 476 500 486 476 478 505 505 467 513 519 514 492 508 504 544 477 470 477 494 505 476 486 496 477 496 535 462 474 496 450 441 449 479 443 447 500 453 446 460 444 463 501 457 456 457 461 464 488 477 499 520 468 504 466 461 482 457 469 504 442 425 478 479 448 456 494 466 483 438 458 483 445 506 462 460 427 472 435 450 465 437 435 496 449 428 462 431 479 440 468 463 460 433 490 483 451 465 461 488 487 518 443 463 467 477 499 469 466 419 417 443 437 487 455 412 424 463 474 450 459 463 457 457 463 513 439 460 426 466 472 449 428 474 417 434 479 497 451 441 437 471 454 448 462 455 470 489 455 445 476 427 407 424 476 477 452 462 458 485 440 462 462 459 435 448 420 460 479 462 455 440 423 440 425 439 440 430 462 427 466 449 421 466 440 503 446 427 444 457 413 464 423 473 429 447 442 451 420 436 431 451 453 439 444 469 440 456 520 439 425 404 434 426 439 439 428 474 442 415 427 440 452 461 449 422 411 482 398 413 433 401 417 422 431 466 454 452 420 451 425 430 418 444 429 443 452 413 444 451 438 455 461 418 431 428 421 438 410 396 465 449 427 419 407 490 429 437 452 395 452 418 464 475 402 431 401 470 425 436 393 433 436 442 449 444 439 408 458 408 427 424 426 457 413 476 459 399 435 468 403 441 502 415 425 438 427 430 439 476 428 487 457 442 420 437 448 415 480 473 437 448 448 451 426 450 484 482 484 428 456 414 423 463 457 456 450 452 435 454 452 513 433 442 448 450 446 449 455 441 423 448 457 446 438 446 468 425 437 463 532 478 493 467 478 488 505 543 528 541 503 551 573 580 628 596 662 678 741 709 870 925 1026 1103 1178 1129 1267 1353 1432 1385 1441 1492 1430 1485 1482 1387 1388 1410 1377 1291 1242 1142 1134 1069 983 920 964 862 837 799 739 668 708 571 569 582 570 574 524 532 535 503 467 506 466 464 460 466 441 479 484 428 441 439 461 411 449 444 439 474 426 425 472 447 470 453 431 438 454 451 417 427 470 439 415 441 454 420 457 434 453 460 429 414 460 467 426 446 439 468 438 435 404 433 392 454 427 396 415 463 409 440 436 413 387 439 443 421 413 395 398 391 412 423 413 467 395 430 424 375 430 441 443 409 383 421 402 420 366 405 382 402 404 394 422 408 429 401 394 412 367 403 395 403 411 385 401 384 402 452 397 390 403 398 407 402 417 410 392 357 409 368 396 411 418 419 379 382 420 380 387 361 368 352 415 398 400 372 396 381 394 407 416 347 396 416 353 366 413 389 413 395 399 410 336 431 411 372 386 359 399 416 388 358 416 395 415 370 403 401 383 419 368 393 413 382 469 416 408 357 379 400 393 409 415 405 378 442 388 409 445 393 422 404 370 414 397 419 432 385 388 412 442 399 443 442 426 418 457 456 407 395 367 448 407 413 438 447 436 449 399 431 443 428 450 437 446 468 449 435 409 402 447 418 434 425 434 444 426 469 445 432 415 416 461 390 444 395 445 393 412 401 416 447 432 426 396 427 410 435 415 454 446 425 410 431 451 455 438 468 422 435 418 450 438 451 427 446 436 413 415 428 461 438 417 460 443 453 426 420 412 430 430 430 458 465 486 468 436 497 465 481 444 479 471 494 518 492 503 479 497 498 489 507 550 539 510 562 583 525 564 555 615 571 634 613 665 601 600 694 658 666 718 734 767 816 825 821 809 903 971 1027 1012 1111 1207 1289 1531 1632 1818 2005 2272 2639 2933 3396 3765 4314 4813 5434 5806 6311 6850 7069 7204 7551 7406 7480 7409 7245 6947 6511 6548 6076 5793 5579 5237 4947 4656 4395 4169 3672 3550 3121 2781 2536 2194 2079 1835 1621 1501 1347 1289 1115 1095 1034 1005 1010 974 932 925 873 850 867 792 808 866 810 813 823 860 850 858 821 874 857 958 962 969 980 1045 1005 1062 1019 979 1034 1052 1044 1015 1022 1029 1008 998 893 884 900 911 835 844 833 787 761 767 760 756 759 667 646 645 658 620 613 589 563 598 583 541 561 544 510 546 510 508 508 493 492 544 492 448 466 499 436 447 497 463 441 470 421 440 434 456 421 437 428 443 466 444 387 428 426 438 389 404 428 412 423 361 394 419 430 413 435 446 428 413 357 401 353 440 406 439 386 405 381 374 415 357 361 393 403 395 380 382 387 376 364 368 374 390 422 429 409 414 396 424 384 396 382 433 380 400 406 425 401 381 389 396 376 379 368 390 405 370 351 369 398 414 388 397 425 353 403 431 357 356 399 400 418 400 433 418 424 437 401 448 461 500 464 600 551 631 565 645 672 694 713 699 740 768 720 742 780 731 756 761 707 720 725 663 686 660 625 627 599 559 622 530 546 493 520 498 463 415 447 426 443 431 412 439 384 396 380 393 382 407 392 424 385 397 426 390 410 420 382 419 366 377 395 453 357 360 366 357 398 370 399 391 391 373 387 386 389 354 383 388 440 384 396 400 402 379 401 402 366 345 386 395 355 355 402 357 353 372 367 326 402 389 346 345 374 341 379 337 342 354 370 307 341 343 370 366 353 340 340 355 341 361 342 341 376 316 352 331 362 382 356 347 349 342 331 362 363 321 364 383 352 332 313 353 324 356 334 325 331 321 328 350 335 331 315 358 366 349 348 356 349 379 338 380 344 352 362 345 327 347 332 345 354 336 340 346 346 343 333 360 339 348 368 330 315 346 331 331 313 331 358 305 324 310 348 347 363 331 342 336 320 312 322 352 307 279 304 337 339 359 372 332 343 325 287 339 323 330 325 352 318 348 328 326 335 296 340 304 346 339 352 348 332 352 290 332 295 345 301 346 346 343 332 346 332 340 319 320 367 318 343 386 336 340 322 284 317 352 303 353 334 344 350 317 319 340 288 363 332 301 303 340 296 326 278 315 337 303 355 304 316 324 360 332 303 315 308 282 347 313 323 298 326 312 339 317 322 324 334 320 320 345 335 312 333 329 337 368 296 320 317 308 342 328 315 312 331 328 351 354 304 304 318 318 327 300 297 308 303 321 329 289 346 312 303 294 320 307 356 286 327 315 303 304 312 318 300 312 305 323 292 277 297 324 307 288 301 301 321 333 284 311 310 309 338 296 292 303 336 298 315 318 310 312 295 286 323 296 316 306 319 320 306 315 334 324 316 315 297 296 290 309 294 334 322 333 318 270 307 302 320 308 295 286 355 310 280 294 284 292 316 278 303 281 293 307 313 321 301 344 284 303 288 280 292 334 307 356 311 285 318 298 311 306 291 318 315 309 298 282 314 261 316 319 317 308 298 329 315 303 318 275 270 313 301 342 331 328 307 311 302 309 312 286 298 327 336 309 297 334 319 318 324 290 307 306 292 309 343 304 309 311 327 307 286 311 327 377 315 341 320 326 321 325 318 298 301 338 277 311 278 280 340 300 289 302 289 319 318 302 297 279 288 316 295 288 349 318 316 345 295 331 278 274 323 321 350 343 270 312 316 328 314 326 303 310 289 308 295 312 328 306 289 302 317 312 336 338 292 323 313 294 281 313 335 317 314 298 338 319 315 305 334 333 362 306 338 352 334 371 367 391 358 392 403 375 362 385 391 357 347 377 414 373 411 403 365 362 373 337 385 368 378 364 361 392 369 384 385 352 402 396 371 386 375 378 388 394 385 393 400 398 408 413 397 448 431 452 507 473 518 526 508 548 560 561 574 702 736 771 850 845 988 1096 1244 1402 1455 1556 1669 1857 2064 2217 2308 2216 2382 2374 2402 2352 2400 2285 2209 2193 2060 1948 1923 1901 1876 1756 1643 1709 1639 1524 1431 1435 1338 1279 1181 1113 986 871 873 730 665 690 631 639 537 535 545 492 471 499 465 483 487 454 470 446 412 439 423 427 421 421 420 373 420 395 433 397 412 400 397 416 446 464 462 496 451 473 469 528 504 521 528 536 553 550 607 589 548 609 576 614 575 594 575 592 576 597 544 572 492 530 501 519 487 445 504 458 478 421 458 410 443 404 397 377 355 325 397 353 354 361 332 391 346 336 363 343 305 313 316 327 333 346 314 334 292 312 311 264 324 325 319 297 316 309 307 318 314 340 315 320 314 276 312 312 301 299 287 300 339 283 326 312 279 285 306 296 300 291 298 289 343 290 315 315 324 329 297 326 315 240 302 283 304 310 316 312 310 289 286 303 297 303 305 256 336 305 298 296 302 346 326 277 323 291 305 300 270 328 274 290 303 293 278 355 323 313 300 334 318 303 335 356 344 319 329 314 346 342 299 336 344 348 299 350 329 368 309 361 355 355 347 365 387 358 402 368 366 404 352 398 437 413 382 408 430 467 539 507 524 530 605 626 680 772 826 949 1049 1143 1255 1395 1586 1643 1831 1962 1985 2158 2167 2225 2224 2247 2227 2227 2133 2125 2048 1918 1894 1753 1622 1585 1483 1553 1540 1487 1454 1416 1291 1238 1177 1121 1026 958 799 841 696 691 678 565 533 510 537 492 443 423 413 444 431 402 419 390 361 366 397 368 363 328 367 364 377 363 360 364 397 348 391 372 386 378 395 371 380 374 413 387 387 429 440 421 434 414 458 431 447 431 418 423 475 445 454 429 408 452 437 445 377 428 447 395 430 386 422 419 398 391 367 370 353 371 381 330 345 358 312 322 327 335 347 319 306 363 348 319 302 326 302 326 349 334 305 306 304 335 307 342 306 344 323 325 314 308 307 305 292 319 289 324 303 318 319 281 270 305 264 300 310 295 305 290 287 290 295 280 304 294 272 262 314 308 262 310 284 319 315 279 324 288 317 277 316 313 291 341 350 333 311 339 338 356 367 390 394 398 465 456 503 514 476 568 542 573 564 560 595 604 559 552 539 591 569 525 512 548 469 511 505 507 479 478 469 461 451 434 436 411 374 405 377 317 327 328 321 320 330 315 293 301 282 269 289 304 299 274 313 277 310 281 273 296 296 267 258 256 264 327 268 236 273 279 281 256 266 287 312 285 258 249 270 277 260 239 267 247 250 240 280 244 286 279 279 285 270 239 272 288 246 259 259 277 249 258 277 266 260 273 276 245 244 273 263 268 265 273 241 270 270 242 261 268 246 286 247 249 267 273 250 272 240 276 262 247 239 281 249 268 262 235 243 231 241 260 242 229 264 271 280 273 245 242 249 234 266 289 243 264 227 220 257 246 247 224 263 230 280 234 257 219 225 230 279 238 284 274 234 233 236 270 257 249 237 225 234 234 233 231 282 226 237 238 269 239 242 264 234 259 202 235 228 249 221 216 233 262 219 240 276 225 241 242 242 216 210 214 223 229 267 276 263 263 219 267 242 260 260 271 228 266 234 222 248 225 245 250 287 242 241 230 235 256 213 234 205 222 244 241 224 269 259 272 249 227 219 259 261 226 229 242 230 200 196 226 235 231 243 216 241 257 228 218 268 219 223 237 246 231 233 203 225 235 266 225 215 213 221 234 208 228 205 220 257 241 261 218 268 238 222 235 188 266 227 222 243 229 239 239 214 270 219 231 238 210 221 274 235 237 232 231 226 235 266 237 212 264 247 261 219 244 236 240 242 233 223 232 278 267 226 235 222 239 259 278 233 220 227 247 230 217 232 231 245 246 234 234 268 239 274 207 226 227 232 240 235 227 263 250 247 240 213 236 242 221 240 239 236 235 203 213 205 223 237 240 225 245 208 235 221 220 243 224 210 210 238 234 233 242 235 237 228 251 233 217 232 212 266 283 215 250 219 231 226 237 203 226 212 222 208 210 212 244 223 208 211 257 257 222 222 214 235 193 211 211 225 226 235 263 247 216 183 215 264 234 241 227 232 214 238 247 196 211 234 239 259 244 209 268 181 194 234 211 221 246 183 221 196 218 222 210 212 240 235 239 227 223 213 210 249 233 233 258 249 243 234 240 266 245 236 225 242 226 226 213 228 192 235 225 234 226 241 304 263 272 278 269 326 294 335 346 351 356 327 390 391 368 406 387 414 425 379 418 432 397 410 395 398 380 354 378 378 363 357 339 363 362 358 346 326 332 317 330 319 311 319 322 301 285 274 262 271 234 248 267 245 257 234 232 241 208 197 247 243 268 243 241 218 234 213 225 230 195 232 206 222 233 200 220 200 210 203 217 219 226 214 238 215 217 217 211 210 218 224 225 209 208 218 196 244 224 201 225 192 226 230 215 188 223 202 228 194 216 227 207 206 228 194 270 226 264 226 249 198 215 185 232 205 229 235 209 218 216 203 190 199 203 211 226 219 204 230 222 248 227 233 217 223 222 233 210 225 242 230 228 231 218 230 245 216 236 208 219 232 239 187 210 221 208 206 194 216 223 235 189 241 236 236 212 228 207 191 217 209 228 195 238 212 221 215 216 194 217 215 211 241 196 197 194 226 207 218 209 223 211 242 208 216 201 209 210 239 207 228 202 233 215 235 188 214 198 205 193 206 225 219 239 208 227 232 225 198 206 218 204 224 235 185 215 193 224 201 225 226 219 217 235 219 202 218 202 205 233 216 215 219 214 203 227 230 241 224 212 229 235 219 217 203 213 209 225 226 223 248 241 238 223 189 229 245 219 229 226 223 242 233 293 248 260 261 235 273 248 278 271 269 278 258 269 317 272 256 319 309 322 299 376 335 380 379 391 419 456 485 494 515 552 568 630 641 659 647 723 723 642 759 721 747 742 765 669 673 676 632 603 627 594 639 578 597 556 520 603 558 554 528 516 504 475 502 484 433 409 402 383 388 396 351 308 322 321 297 304 268 256 270 277 262 256 239 239 243 266 268 273 278 244 260 225 266 242 226 203 260 218 242 223 256 265 243 241 259 263 231 265 223 231 229 229 233 236 221 234 233 223 221 246 249 238 237 265 215 218 245 235 241 291 233 279 272 241 242 264 261 272 258 256 270 295 237 246 248 222 235 244 266 231 287 246 270 239 245 289 259 231 261 216 242 222 259 229 245 229 239 210 249 216 237 219 209 237 230 258 224 201 218 232 219 213 201 208 258 212 220 196 230 235 249 249 259 220 209 220 221 213 218 245 202 228 241 223 268 213 248 256 248 221 248 240 274 238 247 288 222 251 260 256 272 231 261 264 262 233 268 266 243 219 240 241 232 245 227 198 243 229 215 249 221 244 217 217 235 221 230 230 213 212 223 227 220 186 228 222 230 225 217 201 202 222 227 218 206 206 198 214 204 215 219 217 213 209 206 217 193 228 215 221 214 200 186 229 200 199 204 212 226 185 204 205 223 214 207 186 187 213 188 207 211 221 199 215 200 188 230 210 213 200 207 239 223 213 210 235 231 201 232 179 205 186 219 219 232 211 200 213 228 191 200 178 213 195 189 216 196 188 198 217 217 220 198 206 193 197 196 184 194 205 198 204 204 179 194 222 205 196 203 205 186 203 233 196 210 221 201 199 210 203 179 201 215 210 205 214 222 221 184 184 200 196 212 223 206 206 197 208 207 224 192 228 186 203 183 198 199 197 194 238 210 222 230 190 214 192 191 189 195 211 200 184 205 218 188 210 192 195 208 208 214 210 220 208 195 209 208 201 194 211 205 232 211 198 222 214 210 209 189 230 190 201 201 199 201 184 228 200 185 206 218 194 205 199 190 177 207 221 193 216 209 200 225 192 211 196 216 218 195 183 200 216 235 216 207 209 229 222 206 212 194 214 203 222 199 203 232 198 218 191 231 215 207 207 191 200 196 201 215 210 220 209 220 229 214 216 200 208 191 213 220 196 247 214 220 196 189 209 194 232 212 208 213 198 219 187 227 204 204 211 210 261 206 218 183 220 206 224 200 211 220 199 200 238 212 201 207 236 234 201 259 225 189 236 206 216 204 195 260 188 230 202 202 198 241 219 230 204 202 217 215 198 219 186 185 227 229 205 199 213 206 184 217 218 208 200 193 222 227 209 214 192 239 229 216 211 223 191 200 244 194 199 203 212 200 197 211 187 227 213 228 209 230 196 202 222 207 208 210 215 225 206 237 223 222 207 173 209 202 216 220 196 221 197 236 218 215 206 218 221 206 196 188 208 241 199 202 202 220 205 208 229 212 215 239 233 269 230 238 238 214 216 187 234 216 216 241 250 224 245 231 232 215 247 219 250 210 240 296 277 279 277 312 325 301 354 296 333 330 329 336 332 318 333 338 352 362 361 364 358 329 373 348 319 308 304 291 310 314 349 320 319 349 313 318 321 332 309 339 310 338 310 340 285 337 329 342 319 316 359 308 315 322 394 400 397 419 462 446 497 537 533 615 651 623 665 704 734 749 692 704 744 758 736 714 704 711 707 711 625 638 566 577 618 585 560 590 537 552 567 577 538 548 532 496 542 516 503 458 468 458 432 469 396 361 376 347 354 336 325 311 293 275 269 266 295 301 267 296 269 334 290 266 267 233 291 260 260 272 295 240 272 268 282 275 241 262 246 242 231 259 261 261 293 241 250 219 237 267 244 257 243 226 261 268 229 300 259 258 237 256 258 265 272 263 264 257 291 270 277 289 291 275 272 295 268 288 261 280 311 308 319 288 284 277 328 317 312 334 274 275 303 277 286 292 293 309 290 266 269 265 267 274 309 266 259 303 298 299 278 291 247 273 298 258 287 264 260 246 263 268 261 281 261 243 259 279 263 270 269 295 269 274 272 281 275 259 243 247 258 265 258 277 265 286 268 279 281 270 293 271 274 269 269 290 269 301 287 288 286 296 317 313 302 302 331 343 328 340 314 331 325 334 371 366 384 394 362 382 381 408 462 442 496 501 517 544 604 641 616 693 763 837 907 965 1051 1108 1080 1134 1191 1253 1259 1326 1286 1290 1381 1375 1322 1352 1279 1291 1136 1180 1190 1084 1110 1056 1035 962 980 959 904 963 924 908 916 904 904 868 824 849 870 817 746 749 716 643 593 626 576 549 497 485 455 432 418 430 419 398 371 355 343 310 306 344 373 297 342 335 297 342 307 276 278 278 279 296 291 271 305 307 287 249 298 292 293 283 232 289 277 316 237 280 257 282 299 264 275 285 277 287 277 290 295 273 266 307 279 305 308 305 302 300 294 292 327 346 300 293 294 320 319 324 334 342 353 337 340 342 366 330 361 352 359 360 347 343 326 341 330 332 357 333 360 338 320 324 319 328 307 322 315 334 332 294 298 314 312 325 320 326 279 302 289 286 278 295 286 280 278 318 274 278 298 348 343 283 300 313 343 311 331 322 298 329 362 337 313 384 323 317 339 294 322 319 358 309 318 312 302 293 312 311 307 300 266 264 309 295 275 289 297 279 308 295 240 256 284 258 276 237 321 267 268 250 237 231 268 227 263 274 250 217 224 229 219 240 219 260 250 233 210 231 230 243 195 214 225 232 186 214 211 237 217 208 220 220 217 237 237 240 226 217 203 221 207 210 187 234 207 245 202 240 195 233 198 196 214 201 211 243 234 176 221 232 224 245 245 211 220 203 190 209 210 205 232 224 229 223 205 234 220 211 222 220 219 220 227 200 198 229 207 225 231 223 209 224 206 195 215 209 201 225 203 218 205 216 200 224 197 192 212 198 224 227 210 210 217 220 233 181 199 210 218 178 192 202 258 216 185 198 209 209 235 234 224 225 226 212 202 202 192 208 223 216 217 191 201 220 207 191 233 213 225 196 195 201 236 205 209 205 206 243 212 191 215 197 199 208 202 203 202 212 194 230 213 187 206 200 227 201 211 215 189 212 206 207 195 205 232 208 187 241 227 237 191 220 210 228 220 232 204 234 188 226 199 197 202 230 220 195 198 180 187 192 191 204 198 226 196 197 203 204 194 208 205 205 211 219 235 207 210 211 178 223 188 184 203 212 222 206 177 202 222 215 191 204 198 203 217 193 223 189 220 204 213 209 191 216 204 206 218 209 192 210 183 210 196 221 212 212 188 217 209 194 195 196 199 200 209 181 202 194 185 192 195 200 207 221 184 207 188 185 216 236 209 234 183 198 211 196 191 188 219 197 216 190 195 184 205 205 186 203 203 171 204 194 207 177 190 216 229 216 202 201 188 231 205 208 210 201 222 205 189 192 207 224 196 200 198 203 214 210 225 190 212 199 214 197 182 200 205 189 212 219 222 206 214 206 225 193 194 174 175 199 216 232 215 212 220 209 191 192 214 225 229 217 197 218 208 224 214 221 201 209 185 211 218 234 225 219 213 223 193 216 223 230 215 233 221 247 217 234 198 239 243 225 267 246 228 249 259 221 262 245 250 271 225 233 257 274 313 320 297 320 317 323 300 350 346 296 296 298 307 293 299 270 281 299 287 271 269 314 274 258 236 268 241 285 288 236 271 270 293 271 246 259 275 271 274 287 269 245 264 259 234 225 227 210 241 237 228 216 219 192 229 196 228 241 246 207 182 190 220 212 224 218 216 206 202 226 212 204 217 180 244 218 227 237 197 209 210 208 223 209 206 236 230 222 209 219 198 203 204 186 199 189 181 214 205 191 214 193 223 185 215 210 202 210 207 225 258 184 219 201 201 197 219 202 222 202 204 216 216 177 194 194 214 236 210 215 202 183 228 228 203 216 242 220 200 242 213 220 206 226 210 203 191 239 212 237 226 202 189 220 199 220 191 211 234 200 234 222 207 215 196 210 219 220 212 232 206 241 256 217 209 231 210 216 222 203 201 209 217 204 197 203 222 202 207 197 207 203 231 178 221 206 239 216 209 199 227 234 204 205 227 211 223 233 228 248 232 227 227 222 215 237 217 204 237 214 205 226 237 248 230 262 215 215 199 265 227 229 260 247 246 242 224 241 231 259 214 244 238 267 263 246 246 258 248 262 245 301 262 260 248 271 259 283 292 260 269 277 301 291 316 321 319 298 301 303 326 329 348 336 365 374 417 422 464 476 530 509 570 603 652 690 729 713 774 840 873 917 930 941 993 964 1001 987 993 1003 1064 964 1014 954 962 900 864 872 795 770 806 731 738 683 731 716 733 719 689 688 687 745 683 725 649 690 692 680 629 627 667 635 605 542 536 523 513 529 422 417 414 434 432 380 353 375 345 341 322 291 304 313 288 336 287 267 275 284 250 277 256 304 262 283 247 246 267 235 257 236 256 260 242 223 219 229 232 228 277 249 267 208 244 234 238 259 251 222 213 260 216 233 240 235 234 227 224 232 239 209 222 242 230 239 247 271 276 264 260 214 257 244 257 273 268 265 243 268 257 286 265 273 258 294 280 275 283 282 264 245 289 295 273 279 286 276 299 269 283 272 280 289 280 287 301 308 310 274 305 268 271 305 275 294 284 326 356 275 290 299 282 294 301 271 304 296 332 288 302 293 271 278 277 304 278 288 280 231 278 317 296 286 248 277 256 258 247 249 274 274 261 258 233 237 237 248 264 260 270 225 234 264 238 279 244 244 210 219 228 264 209 222 233 217 218 233 218 242 241 227 240 220 235 220 213 206 200 219 221 221 192 207 205 181 213 219 228 226 205 206 216 233 205 207 205 186 181 233 219 220 226 207 256 181 232 221 201 214 188 215 222 206 195 181 192 183 199 200 191 205 208 200 203 212 208 214 187 209 183 186 211 181 222 207 188 188 191 237 183 211 189 222 226 201 209 224 203 213 219 211 191 211 182 198 191 237 175 223 200 177 187 193 224 173 207 233 201 208 212 188 219 196 212 207 188 186 221 233 180 194 198 188 199 192 218 203 203 205 229 172 199 177 193 186 190 202 208 205 191 201 186 198 179 198 182 208 181 222 221 200 205 192 173 209 200 209 187 188 183 208 198 197 192 201 170 217 189 202 199 193 186 225 203 185 182 215 187 213 180 208 196 203 215 199 187 203 178 197 198 186 195 191 211 201 227 201 210 216 227 196 206 224 199 192 207 187 175 201 189 181 192 170 207 200 192 174 198 195 190 198 199 192 192 213 196 187 192 209 201 173 179 195 202 191 197 192 201 196 160 195 192 222 177 204 188 202 221 192 221 177 198 198 190 215 186 184 225 203 194 209 173 219 219 197 201 209 207 177 203 204 224 211 191 197 222 227 223 204 222 194 183 206 215 218 207 194 192 211 192 195 225 202 221 206 189 205 190 186 206 179 202 210 189 223 179 200 184 208 212 205 155 212 196 183 229 187 215 171 214 214 201 206 234 183 228 200 208 195 213 200 199 197 174 190 193 195 206 191 199 185 192 187 215 201 204 233 210 180 215 204 198 210 197 175 204 206 237 223 193 198 190 216 216 168 222 214 179 194 170 211 199 189 202 205 228 222 221 237 230 219 179 225 249 231 243 229 231 218 235 231 234 202 239 228 226 246 214 246 242 263 243 248 280 261 264 269 288 266 293 309 298 290 334 365 348 360 380 394 379 375 394 401 377 401 419 402 471 454 411 426 425 421 422 430 389 396 401 383 376 353 336 398 360 401 320</counts>
			</dataPoints>
		</scan>
	</xrdMeasurement>
</xrdMeasurements>
