<?xml version="1.0"?>
<xrdMeasurements xmlns="http://www.xrdml.com/XRDMeasurement/2.3" xmlns:xsi="http://www.w3.org/2001/XMLSchema-instance" xsi:schemaLocation="http://www.xrdml.com/XRDMeasurement/2.3 http://www.xrdml.com/XRDMeasurement/2.3/XRDMeasurement.xsd" status="Completed" recordIdentifier="{589C0559-AC58-40E0-A2DA-EF3D990327C7}">
	<comment>
		<entry/>
	</comment>
	<sample type="To be analyzed">
		<id>GPSS_Li1p6Ni0p6Y0p2In0p2Cl4_121825_6943d914f4d05ae3d69790b4</id>
		<name></name>
		<preparedBy></preparedBy>
	</sample>
	<xrdMeasurement measurementType="Scan" status="Completed" sampleMode="Reflection">
		<usedWavelength intended="K-Alpha 1">
			<kAlpha1 unit="Angstrom">1.5405980</kAlpha1>
			<kAlpha2 unit="Angstrom">1.5444260</kAlpha2>
			<kBeta unit="Angstrom">1.3922500</kBeta>
			<ratioKAlpha2KAlpha1>0.5000</ratioKAlpha2KAlpha1>
		</usedWavelength>
		<incidentBeamPath>
			<radius unit="mm">145.00</radius>
			<xRayTube id="1010048" name="Empyrean Cu LFF HR (9430 033 7310x)">
				<tension unit="kV">40.0</tension>
				<current unit="mA">15.0</current>
				<anodeMaterial>Cu</anodeMaterial>
				<focus type="Line">
					<length unit="mm">12.0</length>
					<width unit="mm">0.4</width>
					<takeOffAngle unit="deg">6.0</takeOffAngle>
				</focus>
			</xRayTube>
			<sollerSlit id="21010002" name="Soller slits 0.04 rad.">
				<opening unit="rad">0.0400</opening>
			</sollerSlit>
			<mask id="22031000" name="Fixed mask 13 mm">
				<width unit="mm">9.00</width>
			</mask>
			<divergenceSlit id="22120001" name="Divergence slit 1°" xsi:type="fixedDivergenceSlitType">
				<distanceToSample unit="mm">50.00</distanceToSample>
				<height unit="mm">1.52</height>
			</divergenceSlit>
		</incidentBeamPath>
		<sampleMovement xsi:type="spinningSampleMovementType">
			<spinnerRevolutionTime unit="seconds">1.0</spinnerRevolutionTime>
		</sampleMovement>
		<diffractedBeamPath>
			<radius unit="mm">145.00</radius>
			<antiScatterSlit id="22090040" name="AS slit 9 mm (PIXcel)" xsi:type="fixedAntiScatterSlitType">
				<height unit="mm">9.00</height>
			</antiScatterSlit>
			<sollerSlit id="21020003" name="Large Soller slits 0.04 rad.">
				<opening unit="rad">0.0400</opening>
			</sollerSlit>
			<filter id="20030001" name="Large beta-filter Nickel">
				<material>Ni</material>
				<thickness unit="mm">0.020</thickness>
			</filter>
			<detector id="7010019" name="PIXcel1D-Medipix3 detector" xsi:type="rtmsDetectorType">
				<phd unit="keV">
					<lowerLevel>4.02</lowerLevel>
					<upperLevel>11.27</upperLevel>
				</phd>
				<mode>Scanning</mode>
				<activeLength unit="deg">5.542</activeLength>
			</detector>
		</diffractedBeamPath>
		<scan appendNumber="0" mode="Continuous" scanAxis="Gonio" status="Completed">
			<header>
				<startTimeStamp>2025-12-20T14:09:27-08:00</startTimeStamp>
				<endTimeStamp>2025-12-20T14:17:34-08:00</endTimeStamp>
				<author>
					<name>AutomatedUser</name>
				</author>
				<source>
					<applicationSoftware version="1.7b (136)">PANalytical Aeris Instrument Suite</applicationSoftware>
					<instrumentControlSoftware version="3.2.00000000 20240306">AERIS</instrumentControlSoftware>
					<instrumentID>950485</instrumentID>
				</source>
			</header>
			<dataPoints>
				<positions axis="2Theta" unit="deg">
					<startPosition>10.00943322</startPosition>
					<endPosition>99.99442286</endPosition>
				</positions>
				<positions axis="Omega" unit="deg">
					<startPosition>5.00471661</startPosition>
					<endPosition>49.99721143</endPosition>
				</positions>
				<commonCountingTime unit="seconds">12.495</commonCountingTime>
				<counts unit="counts">3087 3117 3109 2992 3118 3134 3098 3195 3106 3105 3185 3030 3051 3204 3132 2991 3186 3128 3110 3221 3061 3164 3065 3196 3053 3208 3207 3182 3172 3065 3175 3152 3276 3103 3083 3159 3105 3184 3255 3131 3140 3121 3106 3114 3086 3090 3175 3075 3199 3107 3141 3188 3086 3159 3081 3181 3072 3217 3238 3232 3042 3140 3114 3084 3164 3102 3255 3143 3208 3198 3124 3095 3127 3162 3317 3121 3205 3237 3136 3293 3075 3260 3133 3244 3213 3119 3160 3294 3220 3211 3220 3238 3243 3276 3124 3233 3264 3286 3122 3256 3270 3230 3208 3249 3301 3275 3252 3197 3225 3148 3213 3137 3252 3195 3236 3219 3212 3158 3298 3214 3315 3233 3269 3256 3197 3377 3271 3161 3200 3158 3165 3188 3257 3191 3213 3254 3271 3153 3125 3195 3199 3287 3241 3234 3304 3310 3268 3370 3231 3245 3166 3295 3256 3275 3293 3248 3324 3300 3274 3121 3330 3354 3216 3160 3196 3281 3340 3346 3263 3321 3296 3261 3131 3290 3296 3245 3280 3298 3210 3276 3221 3358 3247 3332 3245 3251 3270 3201 3277 3240 3265 3311 3326 3259 3192 3203 3249 3142 3186 3243 3195 3236 3176 3190 3284 3185 3219 3269 3186 3213 3242 3178 3315 3263 3366 3230 3272 3269 3282 3185 3216 3146 3143 3258 3302 3190 3200 3231 3198 3104 3319 3219 3226 3127 3272 3205 3226 3168 3193 3275 3169 3149 3246 3150 3115 3259 3252 3348 3151 3122 3216 3231 3247 3130 3278 3248 3279 3144 3206 3181 3175 3290 3276 3270 3220 3209 3234 3201 3244 3184 3125 3199 3307 3232 3272 3257 3230 3307 3344 3260 3254 3179 3348 3350 3302 3250 3353 3394 3309 3410 3372 3522 3401 3429 3559 3346 3513 3547 3433 3581 3524 3621 3589 3551 3500 3550 3638 3558 3629 3676 3552 3606 3562 3625 3654 3584 3602 3833 3796 3680 3695 3687 3718 3743 3581 3565 3601 3717 3707 3649 3662 3607 3634 3710 3709 3705 3625 3470 3669 3463 3573 3546 3486 3567 3485 3608 3587 3545 3491 3566 3590 3543 3494 3676 3622 3605 3683 3513 3628 3479 3658 3571 3754 3592 3674 3633 3638 3560 3630 3556 3725 3677 3694 3644 3712 3765 3557 3662 3692 3725 3786 3786 3636 3720 3767 3567 3617 3716 3702 3739 3775 3761 3731 3809 3684 3758 3675 3643 3746 3715 3766 3667 3660 3729 3910 3824 3790 3762 3811 3861 3855 3660 3786 3918 3745 3878 3716 3879 3829 3761 3787 3888 3737 3870 3853 3797 3857 3972 3859 3825 3929 4054 3958 3895 3978 3991 3946 4122 4068 4231 4197 4142 4259 4215 4123 4248 4203 4259 4309 4247 4282 4330 4256 4462 4342 4421 4504 4530 4641 4593 4708 4714 4843 4907 4883 4950 5105 5121 5146 5322 5434 5579 5624 5734 5824 5825 6002 5805 5918 5876 5785 6110 5900 6000 6087 6374 6374 6462 6628 6552 6710 6571 6746 6779 7003 6968 7037 6939 6924 6897 6979 6936 6863 6764 6705 6645 6417 6488 6045 6152 5775 5710 5371 5283 5006 4884 4540 4598 4250 4190 4046 3941 3865 3809 3712 3739 3552 3575 3601 3595 3438 3512 3545 3617 3538 3537 3545 3507 3519 3466 3485 3529 3537 3451 3415 3416 3409 3409 3385 3465 3356 3388 3267 3366 3446 3225 3350 3396 3436 3306 3337 3312 3442 3303 3382 3353 3303 3154 3264 3286 3267 3343 3327 3231 3383 3309 3318 3282 3336 3301 3320 3308 3256 3344 3276 3244 3261 3304 3289 3322 3324 3204 3292 3160 3195 3259 3223 3310 3216 3117 3246 3113 3196 3120 3329 3217 3192 3213 3239 3279 3211 3204 3330 3169 3128 3147 3309 3250 3145 3105 3101 3301 3164 3143 3160 3142 3232 3192 3224 3206 3256 3272 3145 3104 3218 3153 3141 3088 3163 3236 3289 3074 3064 3111 3202 3173 3108 3191 3189 3244 3211 3139 3201 3131 3091 3336 3275 3258 3201 3211 3134 3231 3186 3285 3320 3230 3233 3209 3179 3299 3176 3203 3139 3286 3307 3215 3247 3287 3209 3131 3250 3142 3334 3195 3242 3343 3231 3283 3181 3235 3170 3244 3137 3230 3160 3198 3186 3138 3068 3155 3198 3203 3138 3150 3165 3110 3141 3098 3094 3048 3096 3092 3102 3080 3137 3168 3092 3007 3159 3051 3106 3147 2991 3080 3121 2999 3004 3125 3158 3141 3078 2983 3039 2991 3089 3044 3104 3060 3120 3010 3092 3079 3065 3133 3020 3183 3114 3086 3071 2947 2991 3016 2976 3026 2963 3157 2991 2992 3101 2957 2986 3048 3059 2981 3071 2974 2914 3043 3011 3023 3064 3000 3016 3029 3050 3024 3120 2960 3114 3044 3100 2999 3012 2942 3046 3015 2958 2889 3038 3021 2935 3058 2986 3021 2976 3052 3042 3096 2883 2939 3074 2943 3001 2913 3032 2971 2949 2956 2987 3005 3020 2977 3019 3009 2895 2960 2931 2991 2984 2999 2950 3096 2981 3031 2910 3041 3003 2959 2988 2976 2928 3022 3032 2989 3071 2932 2937 2945 3045 2916 2976 2825 2987 2989 2980 2977 2936 2987 2925 2930 3040 2922 2928 2937 2915 2969 2884 2881 2957 2902 2838 2891 2857 2886 2912 2953 2818 2847 2856 2833 2911 2860 2831 2798 2879 2883 2931 2934 2781 2805 2732 2863 2853 2926 2821 2860 2858 2796 2935 2763 2889 2899 2863 2877 2834 2843 2782 2945 2792 2866 2727 2820 2843 2819 2836 2720 2797 2838 2833 2806 2870 2751 2761 2816 2822 2732 2814 2808 2757 2710 2869 2749 2737 2805 2807 2864 2895 2760 2893 2798 2731 2823 2808 2833 2727 2832 2820 2833 2754 2726 2882 2866 2826 2798 2744 2747 2746 2805 2783 2731 2711 2806 2845 2724 2779 2719 2849 2732 2870 2752 2762 2776 2762 2736 2688 2709 2799 2673 2786 2701 2649 2761 2729 2735 2652 2712 2752 2732 2780 2681 2775 2879 2751 2737 2765 2713 2791 2705 2732 2727 2675 2781 2684 2722 2731 2672 2610 2744 2758 2663 2744 2765 2826 2742 2677 2723 2805 2869 2749 2742 2777 2688 2803 2710 2890 2712 2769 2778 2729 2723 2757 2737 2647 2764 2790 2686 2742 2806 2783 2745 2679 2823 2697 2778 2668 2795 2718 2749 2678 2775 2813 2683 2681 2772 2752 2730 2708 2877 2693 2848 2732 2686 2709 2943 2799 2697 2745 2729 2694 2698 2741 2738 2797 2698 2806 2715 2685 2806 2746 2713 2802 2759 2786 2741 2747 2669 2728 2760 2803 2751 2697 2775 2700 2869 2816 2738 2806 2755 2753 2783 2827 2747 2801 2661 2738 2758 2745 2748 2758 2757 2679 2757 2701 2803 2754 2681 2685 2813 2736 2673 2763 2804 2671 2723 2710 2724 2678 2856 2774 2817 2682 2735 2813 2632 2697 2754 2632 2658 2670 2668 2739 2670 2585 2655 2619 2662 2620 2652 2607 2660 2637 2525 2625 2633 2634 2687 2605 2564 2603 2633 2598 2605 2531 2558 2632 2498 2538 2473 2630 2587 2453 2491 2547 2575 2551 2613 2612 2533 2552 2507 2555 2486 2488 2526 2527 2470 2526 2480 2483 2408 2527 2500 2445 2521 2470 2440 2402 2379 2554 2445 2483 2436 2369 2494 2424 2486 2404 2509 2481 2344 2484 2440 2414 2414 2462 2395 2378 2315 2280 2460 2381 2394 2358 2438 2350 2346 2387 2451 2277 2307 2384 2291 2325 2236 2312 2317 2316 2363 2317 2305 2296 2281 2266 2276 2302 2261 2290 2323 2216 2228 2302 2318 2224 2260 2219 2201 2176 2217 2109 2178 2196 2151 2235 2146 2234 2253 2237 2193 2125 2252 2142 2165 2124 2268 2247 2196 2222 2229 2134 2228 2223 2199 2204 2153 2203 2187 2131 2198 2254 2110 2107 2231 2179 2150 2114 2132 2147 2144 2114 2069 2097 2140 2118 2182 2070 2181 2099 2072 2168 2142 2080 2129 2031 2070 2095 2166 2090 2033 2140 2189 2051 2078 2127 2132 2133 2065 2016 2088 2172 2096 2130 2058 2100 2106 2097 2125 2098 2162 2046 2109 2181 2253 2115 2207 2118 2023 2221 2189 2084 2167 2194 2214 2100 2149 2053 2230 2154 2130 2180 2070 2098 2157 2185 2194 2109 2131 2135 2113 2113 2126 2058 2038 2050 2080 2095 2000 2046 2123 2089 2069 2090 2017 2116 2066 1995 2086 1998 2005 2135 2065 2043 2066 2135 2125 2005 2076 1994 2082 1997 1964 2092 2049 2020 2075 1996 2109 2014 2044 2014 2054 2007 2051 1997 2085 1999 2059 2028 2048 1987 2099 2024 2011 2050 2092 1960 2077 2003 1991 2049 2100 2056 2089 2072 2074 2001 2111 2003 1975 2046 2051 2063 2015 2050 2043 2037 1947 2010 2026 1993 2005 2091 2065 1988 2141 2108 2015 2114 2127 2046 2034 2024 1964 2155 2119 2137 2019 2076 1987 2088 2139 2097 2056 2142 2088 2039 1991 2071 2028 2177 2089 1988 2109 2107 2129 2011 2061 2010 2111 2164 2048 2064 2067 2127 2081 2123 2004 2087 2021 2066 2203 2119 2151 2234 2112 2167 2173 2258 2175 2268 2345 2327 2294 2450 2350 2459 2460 2515 2458 2463 2498 2471 2418 2448 2484 2531 2570 2505 2502 2510 2504 2454 2463 2494 2421 2560 2404 2506 2397 2512 2403 2496 2406 2383 2329 2420 2428 2346 2387 2327 2300 2274 2246 2176 2230 2223 2087 2182 2183 2108 2149 1989 2028 2016 1992 1946 1912 2006 1929 2011 1977 1955 1942 1952 1932 1954 1970 1920 1903 1925 1886 1936 1838 1872 1948 1902 1965 1861 1907 1867 1870 1845 1894 1821 1890 1873 1893 1875 1829 1815 1834 1839 1774 1785 1829 1767 1812 1763 1923 1782 1770 1758 1743 1744 1844 1755 1729 1801 1849 1737 1894 1791 1726 1811 1747 1722 1791 1751 1699 1733 1774 1735 1716 1641 1730 1713 1686 1782 1717 1822 1677 1748 1760 1739 1747 1756 1729 1725 1731 1727 1669 1755 1748 1704 1637 1699 1665 1821 1731 1685 1667 1676 1668 1685 1723 1698 1680 1748 1633 1713 1712 1702 1681 1661 1672 1610 1659 1673 1594 1574 1618 1656 1621 1649 1570 1626 1637 1655 1605 1639 1570 1584 1654 1543 1546 1617 1677 1539 1557 1596 1563 1565 1610 1554 1649 1555 1626 1593 1579 1566 1555 1506 1589 1553 1646 1599 1601 1628 1610 1601 1557 1618 1571 1629 1561 1525 1647 1646 1563 1681 1687 1648 1677 1685 1715 1658 1606 1667 1618 1699 1695 1605 1647 1664 1614 1588 1581 1653 1616 1634 1653 1651 1628 1661 1679 1574 1630 1618 1666 1622 1586 1619 1652 1605 1677 1559 1639 1592 1571 1583 1523 1550 1650 1597 1532 1489 1477 1448 1463 1495 1485 1479 1441 1449 1439 1580 1534 1490 1520 1574 1479 1506 1468 1371 1596 1569 1565 1468 1586 1555 1464 1482 1470 1488 1494 1542 1613 1533 1516 1524 1509 1521 1491 1517 1564 1465 1570 1505 1465 1511 1540 1477 1569 1485 1613 1599 1619 1560 1624 1697 1762 1761 1842 1888 1940 2045 2237 2237 2457 2489 2741 2861 3072 3204 3367 3472 3651 3526 3583 3652 3889 3883 3806 3937 3886 3905 3966 3899 3843 3929 3908 3872 3972 4042 4060 3995 3974 3854 3952 3940 3965 3945 3958 3833 3675 3727 3620 3438 3443 3439 3403 3144 3002 2923 2760 2711 2513 2420 2376 2184 2093 2052 1949 1781 1888 1750 1729 1621 1538 1616 1539 1534 1540 1458 1446 1495 1499 1332 1495 1430 1335 1347 1400 1341 1393 1426 1477 1377 1455 1333 1397 1333 1393 1404 1386 1481 1368 1376 1392 1364 1336 1437 1393 1366 1459 1329 1416 1367 1374 1360 1350 1361 1358 1282 1289 1293 1365 1349 1379 1342 1342 1386 1341 1430 1423 1396 1433 1374 1426 1452 1420 1424 1377 1445 1402 1365 1467 1432 1389 1434 1438 1480 1430 1369 1335 1402 1422 1391 1379 1481 1455 1402 1451 1387 1419 1426 1399 1398 1358 1450 1370 1384 1442 1343 1391 1381 1393 1317 1355 1413 1344 1328 1378 1364 1328 1360 1328 1300 1262 1350 1291 1398 1342 1308 1293 1258 1330 1306 1308 1360 1189 1241 1216 1281 1339 1253 1264 1334 1227 1290 1229 1281 1277 1251 1269 1229 1247 1283 1260 1339 1310 1275 1332 1307 1270 1342 1351 1445 1385 1459 1376 1422 1532 1545 1629 1690 1708 1799 1722 1767 1841 1875 1813 1904 1824 1839 1905 1874 1877 1808 1843 1859 1771 1897 1762 1863 1750 1803 1770 1880 1822 1753 1826 1707 1665 1769 1759 1708 1677 1726 1668 1643 1673 1526 1541 1550 1485 1506 1563 1443 1410 1364 1377 1386 1396 1347 1284 1277 1302 1285 1296 1312 1252 1245 1293 1289 1303 1250 1251 1278 1225 1228 1230 1262 1185 1191 1233 1189 1180 1184 1147 1180 1208 1193 1183 1159 1153 1193 1201 1230 1174 1161 1177 1110 1180 1075 1139 1135 1101 1147 1170 1141 1144 1156 1155 1176 1131 1117 1177 1150 1144 1197 1174 1196 1120 1166 1125 1174 1184 1162 1123 1178 1110 1178 1115 1147 1160 1112 1116 1177 1147 1208 1129 1129 1087 1065 1101 1168 1172 1108 1196 1167 1103 1118 1174 1125 1167 1140 1136 1156 1125 1158 1128 1175 1142 1154 1118 1182 1145 1131 1123 1120 1073 1158 1156 1086 1100 1161 1151 1131 1205 1182 1126 1108 1130 1125 1142 1214 1154 1216 1119 1133 1197 1106 1206 1140 1162 1130 1126 1084 1191 1164 1143 1174 1172 1134 1116 1206 1275 1168 1174 1113 1184 1194 1128 1154 1146 1213 1153 1186 1225 1275 1207 1215 1215 1278 1287 1241 1243 1255 1282 1329 1302 1380 1474 1495 1524 1587 1627 1802 1880 1934 2062 2292 2214 2384 2424 2553 2533 2655 2619 2673 2755 2842 2875 2899 3031 3044 3049 3022 3067 2964 2989 3094 3059 2988 2960 2869 3018 2904 2926 3007 2893 2931 2829 2756 2741 2680 2629 2606 2565 2414 2354 2353 2319 2240 2215 2116 2122 2108 2041 1880 1867 1794 1835 1788 1827 1719 1785 1760 1722 1754 1713 1836 1729 1816 1858 1892 1872 2046 2024 2007 2055 2014 2174 2187 2144 2139 2090 2096 2149 2245 2215 2146 2129 2092 2101 2049 2107 2055 2032 2088 2106 2025 2009 2099 1993 2099 1949 1946 2005 2020 1837 1916 1855 1767 1830 1745 1778 1769 1685 1587 1619 1539 1539 1630 1516 1468 1582 1475 1573 1574 1625 1567 1607 1675 1558 1799 1752 1785 1966 1963 2112 2156 2180 2414 2360 2424 2426 2428 2456 2424 2446 2579 2511 2529 2510 2442 2426 2406 2380 2367 2270 2242 2239 2225 2215 2320 2189 2121 2089 2070 2008 1951 1874 1957 1893 1950 1808 1694 1728 1633 1696 1644 1549 1486 1559 1404 1351 1328 1297 1243 1206 1224 1254 1163 1227 1118 1215 1129 1139 1210 1124 1099 1100 1054 1073 1113 1051 1080 1110 1058 1102 1117 1079 1078 1048 1019 1027 1049 1088 1069 1039 1049 1079 1076 975 990 1016 1013 1061 1047 1090 1013 1007 1039 1048 1079 1019 1004 1037 1019 1036 970 1022 1054 1091 1024 976 1001 1030 988 1007 1038 1042 1028 995 1052 1017 984 1032 964 1033 997 1001 1066 1062 1029 1049 960 1030 987 960 980 953 1017 941 1030 991 1047 1049 1015 989 1064 1008 967 1091 1008 1002 1021 958 915 1066 959 1030 1047 948 1020 978 1004 970 1067 931 948 1007 999 987 1061 966 988 981 982 929 1002 971 985 953 999 1011 974 1012 998 1032 971 1018 980 1026 979 982 953 1000 1036 1010 1023 1020 962 947 1001 1039 1008 1004 991 1018 949 993 972 936 897 963 950 982 989 1001 1047 961 1020 1004 969 1005 1012 976 939 978 993 938 1024 969 974 921 922 961 985 978 949 986 894 934 959 923 950 961 925 936 959 962 917 992 937 992 956 980 1016 954 945 977 955 966 948 975 942 951 928 991 963 965 962 889 915 916 923 956 958 940 929 968 961 1013 959 925 930 964 960 986 937 947 952 1034 939 962 953 1008 977 1000 931 991 1016 940 988 978 927 1013 936 940 907 993 943 1052 989 991 1042 1060 987 990 1014 1058 1085 1002 952 1074 1006 1063 1060 1040 997 1044 1003 1028 1026 985 1013 955 999 990 1013 1005 954 1021 975 969 983 983 1028 927 992 1007 911 1002 931 1013 946 936 906 960 1014 938 928 931 933 884 965 959 864 910 935 910 927 840 912 926 982 943 950 878 793 897 897 909 876 936 933 919 875 841 863 909 919 910 894 913 879 901 887 886 870 922 862 910 912 881 953 926 951 920 901 929 876 905 845 910 909 881 903 950 922 888 840 885 927 921 953 918 854 875 939 957 903 913 924 965 951 921 931 934 901 937 904 922 946 877 907 899 913 902 931 977 925 912 916 895 967 901 939 927 936 1011 994 915 916 936 927 872 860 871 915 889 906 875 947 853 870 911 850 948 929 867 906 910 858 887 957 897 920 840 856 843 890 866 832 879 854 888 928 903 930 934 833 845 809 848 888 855 901 872 873 879 922 896 843 830 863 871 840 847 848 867 840 815 861 897 820 849 865 892 853 893 901 877 848 847 874 871 899 942 829 930 888 888 878 843 829 889 882 904 883 848 912 893 917 880 840 863 819 843 832 892 825 911 896 868 807 844 851 878 877 879 853 895 849 863 935 838 852 844 841 874 868 866 962 875 936 895 909 886 932 922 930 868 867 1022 957 945 943 1015 981 972 963 1040 999 1031 1043 1058 1062 976 1041 978 993 1011 968 999 983 1026 959 1009 962 940 992 954 981 1022 981 964 954 962 926 920 928 897 931 969 924 902 860 900 913 874 913 871 912 923 870 896 874 829 799 907 887 846 903 839 793 899 813 892 878 834 873 815 904 832 816 871 877 876 829 879 840 883 849 855 877 821 910 851 852 830 846 831 876 821 826 878 839 779 802 822 792 822 798 860 861 825 828 836 818 850 760 799 827 802 805 807 826 804 809 844 798 805 831 826 782 825 813 818 874 761 871 815 887 871 824 805 752 793 790 826 822 844 834 844 820 848 761 850 845 787 810 850 822 841 848 821 807 826 829 826 834 849 811 879 877 888 837 865 884 912 981 967 1077 1126 1146 1160 1148 1083 1042 962 986 958 1124 1039 1128 1078 1129 1138 1037 1081 1028 993 1011 1074 1048 1001 1025 1015 958 966 961 941 970 992 1006 960 947 896 963 897 891 891 882 866 857 868 813 916 815 847 876 917 825 844 827 799 808 804 806 754 779 800 827 834 822 766 773 792 809 801 799 826 789 808 762 812 812 770 789 789 761 770 803 779 715 774 786 823 759 820 779 797 793 798 822 787 777 799 771 756 720 804 831 803 784 787 756 806 828 765 807 750 811 806 752 807 812 764 806 807 809 839 799 784 806 793 794 825 832 791 792 737 774 764 796 854 850 788 881 863 760 866 841 855 887 810 952 815 889 882 875 868 866 875 836 833 898 881 867 840 846 857 885 881 891 809 912 864 903 858 922 847 819 852 839 861 858 915 874 849 898 898 925 920 1000 988 1041 1030 1020 1038 1020 1058 1104 1068 1043 1065 1073 1077 1099 1079 1085 1074 1128 1070 1051 1070 1066 1007 1066 1037 1005 980 1013 1016 1026 965 1068 969 1020 1021 942 972 1017 998 994 998 953 902 902 876 903 926 869 868 841 888 834 841 855 824 830 861 881 733 838 755 837 801 856 815 796 869 828 831 825 784 823 836 806 795 849 823 867 876 842 811 832 878 823 845 851 860 893 823 901 857 957 998 932 939 1029 915 985 909 1005 957 940 988 930 954 988 909 1032 941 1010 913 916 933 991 890 920 957 928 933 936 886 901 907 913 864 861 938 922 820 866 885 845 760 828 794 837 814 803 871 815 837 763 760 842 790 839 802 783 789 806 782 810 836 759 816 808 759 802 825 774 864 842 792 843 779 814 800 790 787 776 727 746 780 736 787 771 772 781 748 783 727 805 794 788 731 786 797 793 759 757 803 769 722 761 766 800 790 778 805 770 806 841 776 842 855 847 847 815 809 786 793 808 794 829 794 841 825 827 784 769 776 816 739 829 827 823 805 779 773 774 733 796 827 761 797 766 726 739 773 732 735 760 796 745 788 784 774 799 732 770 696 739 726 743 765 758 756 719 765 729 779 730 744 719 707 756 712 714 715 784 746 731 773 759 739 727 744 746 788 725 781 711 781 733 800 751 769 766 736 743 733 723 754 701 755 730 754 763 830 746 758 728 736 743 706 723 786 730 748 685 766 780 801 796 783 769 755 752 812 823 742 796 739 777 726 823 780 775 837 804 801 910 880 918 919 1016 986 1030 1087 1124 1165 1209 1260 1235 1259 1324 1291 1312 1296 1285 1333 1382 1448 1371 1483 1435 1527 1500 1510 1385 1460 1534 1511 1492 1525 1483 1393 1462 1411 1460 1466 1440 1374 1313 1406 1344 1293 1262 1299 1221 1221 1129 1195 1112 1146 1134 1137 1042 968 1039 1010 972 1101 957 939 868 867 871 849 813 874 828 827 840 781 744 808 819 769 797 773 787 732 717 740 670 734 759 760 732 746 727 709 668 726 693 679 728 654 711 702 740 754 721 676 704 688 741 698 692 722 782 701 711 751 661 723 685 754 732 716 710 687 778 734 726 745 712 718 755 713 720 726 741 670 762 724 734 757 742 762 716 769 755 738 767 711 768 707 717 719 802 766 775 781 771 813 788 734 798 786 773 793 846 824 867 877 841 865 950 929 967 946 946 967 1083 1067 1151 1175 1190 1160 1198 1062 1174 1155 1093 1074 1117 1127 1107 1108 1146 1105 1101 1156 1162 1076 1136 1135 1080 1065 1004 994 974 918 1023 886 940 954 900 951 964 935 884 929 865 881 861 833 807 777 800 805 739 842 800 824 835 823 836 853 953 890 947 1055 1027 1029 1084 1079 1093 1105 1053 1136 1055 1026 1108 1118 1154 1117 1093 1103 1167 1095 1193 1226 1147 1180 1098 1089 1100 1070 1055 1060 1068 1064 1048 1035 1057 958 955 1097 982 996 927 880 888 870 935 880 942 877 869 873 869 862 832 844 848 862 860 813 869 794 783 836 825 784 804 821 834 831 792 836 796 783 824 817 822 811 842 811 793 818 747 790 799 791 796 776 723 830 771 793 751 741 762 815 736 777 665 745 771 724 739 740 724 732 800 689 766 716 687 668 718 714 718 667 690 694 721 678 685 719 739 742 673 714 657 685 707 666 713 632 719 686 694 693 657 686 652 706 741 705 709 691 674 677 739 667 670 718 668 701 677 687 758 691 732 733 751 739 716 728 746 756 831 769 747 764 755 731 722 769 796 773 779 790 773 778 810 798 767 829 736 795 810 738 759 782 744 824 773 772 757 682 698 695 766 734 721 676 715 731 698 729 695 708 677 712 700 730 724 689 742 643 679 666 679 668 651 688 654 715 703 685 736 621 716 647 739 748 716 739 671 713 742 722 762 809 780 917 777 822 865 830 847 787 808 828 802 805 843 762 904 792 846 837 791 840 790 849 808 808 774 766 831 863 816 752 794 755 748 710 708 746 763 705 719 706 700 718 718 705 646 706 672 681 687 683 703 670 672 673 682 656 682 716 669 670 682 676 639 663 645 650 692 692 648 637 685 707 683 654 662 661 657 657 609 645 659 666 682 663 669 624 631 659 631 664 666 628 701 644 618 682 656 609 628 638 699 651 630 635 674 594 677 618 612 624 590 644 643 593 637 651 661 658 632 630 622 682 662 666 637 635 662 659 665 620 655 682 673 630 599 642 636 658 683 624 642 657 653 665 633 640 695 648 651 592 708 706 657 587 700 611 586 678 616 613 664 633 669 613 684 635 656 667 657 627 633 648 604 611 642 665 680 618 638 659 603 663 599 662 660 675 639 603 642 644 589 648 644 628 634 632 626 631 627 643 607 601 626 609 624 611 648 624 682 725 622 634 632 633 691 609 574 589 626 610 634 622 668 655 659 609 622 608 642 620 633 636 620 620 648 600 672 627 647 636 620 641 574 603 630 641 615 586 629 585 645 632 632 657 606 594 659 678 620 630 591 614 672 609 660 631 632 626 589 599 600 569 635 671 596 595 630 645 654 612 645 601 660 648 570 548 580 597 628 648 596 610 611 611 637 620 632 586 583 592 617 600 608 630 638 622 599 608 625 597 613 596 640 625 590 621 608 650 592 602 650 575 649 649 608 627 626 610 639 608 635 572 637 606 612 637 618 594 609 569 617 629 593 620 683 604 657 601 574 638 633 651 604 620 661 635 636 603 572 630 585 641 639 657 590 614 595 647 643 642 628 605 606 588 650 710 589 640 604 644 601 635 652 675 602 662 606 666 618 649 608 646 660 600 626 632 647 657 666 647 682 734 662 688 758 737 730 780 777 779 857 881 861 901 964 933 935 874 906 922 884 908 938 889 956 929 1011 942 988 988 984 963 1025 1060 1052 1033 1041 1037 1091 1112 1097 1062 1159 1098 1074 990 994 1016 995 1056 985 1021 1029 966 1077 999 1029 1025 979 1008 924 972 1012 871 878 869 868 910 850 853 864 846 781 771 760 717 813 746 755 689 766 717 718 654 659 673 664 657 703 640 662 659 668 637 641 663 627 644 659 620 587 641 639 626 631 623 649 648 570 610 574 593 636 609 605 619 647 593 594 616 635 654 636 624 557 650 621 624 644 681 658 654 696 646 613 654 663 658 663 655 631 648 649 655 646 704 616 687 651 626 669 685 615 716 635 612 651 614 644 635 619 675 655 652 634 660 620 622 555 630 609 572 583 622 587 604 608 653 644 616 641 628 636 644 656 620 534 614 568 636 601 562 607 571 604 598 604 621 569 631 525 609 571 611 574 560 591 531 651 593 566 613 583 599 602 628 629 600 617 595 635 693 661 625 620 651 605 587 601 618 663 629 611 644 614 589 633 646 580 628 617 586 586 607 633 550 592 606 599 637 598 652 616 628 629 584 585 611 606 596 645 606 611 601 625 594 600 626 599 591 636 572 550 608 673 619 614 633 707 625 674 658 725 716 733 704 731 699 702 684 695 697 722 771 709 681 751 804 745 737 752 786 737 751 790 801 781 739 820 759 802 769 756 721 745 755 797 719 705 742 766 714 711 738 714 714 683 691 732 680 666 674 678 664 688 654 664 644 646 666 658 669 632 625 640 642 624 618 599 611 584 648 612 682 631 624 563 594 637 612 588 613 586 605 605 645 584 570 589 605 634 602 626 575 595 595 619 588 605 593 618 586 587 597 603 560 569 582 599 630 531 631 607 593 588 582 560 581 573 565 616 588 551 573 607 582 589 588 524 604 597 569 572 610 574 562 550 605 574 626 578 562 582 629 607 593 545 581 612 579 575 565 566 586 557 603 539 560 577 568 587 565 584 567 572 558 575 559 573 547 586 607 574 609 582 631 652 671 644 613 613 646 623 593 625 636 601 616 568 612 598 648 666 660 650 635 680 627 658 639 660 674 612 625 624 638 600 624 584 628 628 609 632 650 573 650 599 646 601 597 617 627 597 589 639 564 650 602 567 582 608 605 595 571 549 584 590 593 589 614 615 550 629 556 567 602 602 576 619 600 613 561 580 607 591 609 612 625 639 607 565 562 565 587 607 579 582 628 597 601 571 568 549 591 581 613 600 598 584 587 704 612 661 639 663 672 705 705 684 655 701 681 662 717 672 643 650 687 705 731 668 689 703 698 716 733 688 715 653 651 643 689 672 663 695 669 718 679 656 660 605 682 650 647 634 647 639 616 645 599 623 674 602 623 656 628 643 583 623 617 590 626 609 596 581 613 574 585 591 550 602 552 596 595 572 567 574 579 540 579 556 627 561 526 601 604 561 552 546 573 522 543 575 555 570 609 532 607 545 542 530 537 559 556 517 538 536 560 493 562 519 555 507 558 523 558 545 583 572 571 547 587 542 555 547 539 491 554 585 582 612 608 591 616 551 580 574 623 573 609 619 555 589 627 542 606 560 555 550 621 581 548 606 584 594 575 561 544 572 623 547 534 576 581 591 547 608 541 563 563 541 537 555 574 544 554 551 549 613 540 567 560 568 533 547 515 556 563 554 513 522 539 554 562 529 552 550 521 564 523 565 527 585 518 574 585 577 569 601 597 667 556 619 602 653 597 592 616 627 550 584 575 585 592 587 549 605 630 635 610 636 631 591 608 579 618 568 609 611 608 612 604 631 593 568 596 589 618 548 580 572 592 555 566 553 558 564 533 544 562 560 560 536 558 535 534 556 596 530 548 546 547 563 542 553 550 573 543 572 543 520 588 526 530 536 563 561 544 600 531 526 597 518 549 534 523 545 516 540 540 573 565 549 542 527 525 555 522 546 536 572 536 525 541 584 540 534 522 543 547 544 485 561 541 550 582 506 530 537 548 517 522 534 507 527 500 557 525 512 562 481 576 531 511 526 528 553 502 549 535 487 556 497 514 516 530 530 529 500 550 517 536 520 539 526 563 538 556 518 490 510 517 540 538 482 514 539 514 533 548 547 514 488 502 537 516 544 572 522 562 504 487 541 532 545 557 548 578 544 516 531 534 515 527 480 541 500 505 542 524 492 508 521 548 502 530 496 525 542 540 539 538 532 507 525 549 540 546 528 502 513 529 488 494 543 515 521 536 505 519 545 528 536 533 532 515 496 558 533 542 527 552 564 564 534 548 530 499 536 549 540 516 543 547 539 548 532 558 519 536 579 561 551 537 529 511 544 562 539 571 540 516 544 509 516 525 560 493 517 508 496 541 528 513 500 565 568 508 507 504 531 532 537 535 468 510 526 520 525 529 488 500 507 501 555 465 568 544 478 516 536 533 526 533 534 466 518 487 512 485 504 534 522 511 542 525 506 528 518 508 518 539 520 498 554 485 567 547 541 545 484 539 515 511 569 533 568 497 553 532 535 508 508 525 549 461 548 549 532 478 518 498 472 549 501 558 518 548 480 512 514 495 536 517 515 528 527 491 551 500 497 551 522 523 543 505 491 515 514 501 478 472 503 516 533 506 531 513 541 493 466 507 503 529 516 517 538 528 503 555 494 517 542 486 518 523 528 544 519 492 539 518 498 553 493 475 556 526 477 535 565 538 526 510 540 519 555 484 548 529 501 514 469 502 511 534 546 501 510 517 553 568 551 500 515 497 566 549 524 511 481 517 518 503 522 496 482 509 491 500 558 489 551 540 555 529 529 502 551 492 531 510 535 530 531 488 555 524 511 514 518 507 515 543 504 494 577 523 523 522 538 514 526 504 497 563 479 543 517 548 565 514 543 514 518 539 533 530 563 534 517 561 572 548 535 557 531 581 551 555 559 572 553 613 582 587 601 538 544 526 567 574 579 581 617 592 597 582 595 599 585 570 596 600 592 616 586 590 562 598 619 600 593 548 577 577 608 573 593 547 623 548 602 577 571 559 568 525 555 560 583 625 566 574 574 604 569 583 521 542 589 577 614 531 520 526 532 605 507 566 587 514 553 488 543 538 533 538 558 513 538 596 559 572 558 498 529 536 568 513 556 541 508 566 537 518 498 481 584 516 565 582 572 498 543 492 497 509 534 499 529 453 546 477 484 546 490 503 506 529 503 503 490 523 518 505 556 533 522 516 523 537 533 510 547 503 513 490 478 480 531 534 499 495 530 495 553 518 506 530 555 530 552 522 560 523 546 551 560 518 518 533 555 535 528 549 544 554 526 485 558 517 510 564 534 542 521 539 561 506 535 531 542 571 573 522 519 500 524 546 580 520 505 524 516 546 519 509 527 550 533 520 519 538 551 494 508 534 515 489 528 500 522 518 534 503 504 501 534 506 567 520 569 540 501 530 534 540 570 566 545 500 543 523 529 548 496 547 504 531 545 554 551 509 529 533 575 506 496 495 538 534 547 590 565 577 601 542 569 590 536 517 523 546 560 524 550 558 532 541 569 509 543 542 564 582 602 593 525 572 613 581 557 583 545 556 523 526 582 581 580 499 519 538 501 526 486 518 520 559 550 531 551 551 545 586 559 550 522 556 587 560 523 598 495 541 520 544 570 540 529 581 564 600 608 516 590 579 580 590 566 616 593 636 587 635 590 605 624 586 626 619 603 592 566 600 628 583 564 597 572 617 587 560 563 540 585 631 595 587 596 614 566 559 529 582 562 531 609 522 531 562 515 570 561 543 600 553 594 530 555 574 481 570 530 526 487 541 526 516 525 539 487 537 511 525 529 472 514 508 520 537 491 518 493 547 519 519 523 556 532 540 523 499 498 479 489 484 496 531 510 484 515 506 516 554 532 533 498 547 533 494 512 546 501 493 518 515 509 512 549 538 497 538 516 488 505 507 521 484 532 541 505 539 521 552 534 524 546 548 507 486 516 520 524 533 546 534 555 554 536 530 545 513 483 496 513 554 501 505 510 494 508 570 537 550 520 524 516 477 509 494 574 565 553 527 547 541 554 529 555 584 552 554 536 543 535 536 547 571 567 572 580 556 574 607 546 536 555 566 554 579 565 566 542 601 587 574 538 599 564 581 562 544 543 538 518 568 528 594 572 529 504 599 545 560 522 549 538 554 537 571 535 552 536 540 540 499 543 531 536 509 552 539 522 550 526 524 530 539 546 497 537 523 523 520 559 568 532 535 557 518 513 539 552 552 600 556 544 588 588 555 557 561 511 604 559 550 520 557 543 556 589 655 593 600 533 605 567 536 573 527 507 585 519 509 576 542 575 588 541 545 514 533 542 559 531 515 532 552 550 544 543 565 516 574 546 548 570 504 543 517 528 505 533 547 499 526 495 545 532 558 531 523 535 502 559 545 566 531 531 503 528 558 539 517 512 533 508 539 551 547 545 505 514 546 564 519 527 515 482 537 501 541 542 516 511 521 526 515 540 535 532 527 502 514 525 507 511 513 540 571 543 525 571 519 529 517 520 582 534 596 515 520 543 503 536 506 581 522 516 546 550 555 544 577 532 527 546 546 560 582 564 600 581 631 601 584 574 605 587 592 597 600 602 640 569 618 580 597 546 592 574 605 603 589 575 561 601 620 614 603 585 584 594 558 583 608 639 594 580 577 607 581 595 598 560 576 558 597 585 593 559 596 564 592 516 613 569 569 596 537 611 569 529 523 515 569 572 548 544 516 512 518 520 523 605 549 557 562 550 581 554 541 503 522 520 576 546 526 527 566 529 506 508 526 529 536 503 529 522 552 485 498 507 537 515 467 511 537 513 542 500 506 459 510 501 507 490 539 510 504 488 533 506 519 519 519 516 544 532 477 487 553 519 508 475 486 481 490 510 500 531 547 469 532 482 535 533 520 536 519 509 541 500 511 525 511 507 532 549 555 490 520 506 498 480 503 473 523 547 503 514 510 475 546 575 554 551 532 525 487 520 525 507 527 517 532 584 520 557 554 554 551 547 551 563 538 502 534 538 554 557 534 560 555 550 553 543 574 541 561 588 552 529 546 580 547 551 557 569 542 521 566 546 543 530 521 517 539 546 562 554 577 525 591 566 570 603 589 595 601 590 579 579 578 606 646 639 600 570 613 627 616 618 618 650 618 609 589 664 605 655 596 620 602 558 598 624 614 628 598 650 646 636 614 607 629 571 601 611 591 597 587 535 578 624 599 630 576 587 613 627 590 590 615 578 578 628 556 587 608 579 560 550 574 561 597 575 523 593 546 560 540 562 544 548 503 518 569 557 541 521 546 522 539 561 507 520 554 535 499 524 523 510 485 531 523 495 521 531 527 528 496 538 519 510 524 468 522 514 517 509 500 523 518 534 480 523 500 536 488 511 528 463 497 505 525 526 526 536 517 516 522 509 517 525 508 507 511 498 509 503 508 526 472 559 508 493 534 526 538 504 506 520 477 518 535 515 501 529 534 489 542 524 531 500 507 524 500 485 511 495 497 516 468 507 511 478 553 516 518 554 494 517 486 496 495 497 531 517 488 514 535 510 510 523 513 495 505 506 513 513 477 459 479 538 515 545 503 508 509 525 514 527 537 477 529 497 511 467 476 511 497 516 473 538 491 512 465 532 501 474 514 494 488 457 521 500 564 543 500 466 480 478 505 510 434 533 490 487 448 496 538 498 527 510 519 474 496 520 500 508 516 496 486 517 547 490 496 493 517 462 559 510 510 506 490 467 492 463 504 503 477 494 512 472 488 459 485 478 517 524 491 474 470 481 471 486 510 510 490 480 541 536 516 479 503 504 487 562 477 515 490 535 504 492 480 512 501 476 538 506 501 513 520 511 515 503 530 540 520 552 485 530 546 544 537 532 573 562 569 562 594 525 574 513 512 610 596 538 573 518 569 522 550 499 526 506 479 516 495 530 527 541 561 569 547 507 541 544 531 539 499 514 533 543 545 512 546 543 516 525 517 530 508 498 463 509 493 510 497 507 538 542 506 491 514 472 481 479 495 490 509 488 470 479 516 474 474 497 507 473 492 491 490 466 515 472 485 512 533 499 552 524 498 539 513 549 533 561 552 526 530 537 526 585 590 489 499 551 571 531 565 544 550 538 586 510 552 501 559 537 548 546 520 559 553 536 529 542 535 535 533 560 524 546 535 522 556 475 510 540 493 533 496 541 527 514 508 533 528 512 504 528 516 517 509 490 519 487 502 503 505 512 489 510 510 479 556 460 497 506 462 502 457 502 518 480 537 526 488 492 535 497 506 509 473 481 519 478 531 562 507 480 532 490 494 480 494 468 525 527 490 515 464 506 451 496 511 499 481 475 517 452 521 468 474 495 487 492 522 511 505 507 502 499 503 496 515 498 505 536 491 462 502 476 506 497 472 504 465 505 485 474 508 468 490 503 485 550 499 481 488 477 470 502 500 489 486 534 432 476 491 487 484 510 478 532 482 462 464 563 501 519 481 497 474 453 491 490 493 451 477 465 489 498 483 494 485 497 502 490 489 471 467 508 498 476 468 480 472 482 502 510 522 507 502 471 461 444 500 475 467 493 478 485 496 508 486 478 459 472 514 507 501 463 480 485 488 517 538 490 474 497 508 481 518 497 506 515 471 523 531 502 457 494 474 471 519 456 498 510 513 489 473 505 508 493 525 568 490 505 453 530 520 514 495 481 510 515 477 477 503 509 485 484 482 487 482 476 444 472 510 473 498 454 491 489 524 474 456 501 487 443 492 470 475 439 449 461 501 509 486 504 472 480 504 485 515 463 464 497 486 463 474 510 478 464 435 513 468 485 419 492 501 509 504 498 473 488 498 497 461 470 454 471 491 498 499 500 510 482 528 450 460 497 481 494 468 491 461 486 540 493 481 497 499 464 472 502 479 487 492 468 474 513 492 482 491 496 471 453 499 474 490 481 466 535 503 520 568 532 519 521 507 512 540 511 510 502 494 491 534 525 513 446 514 481 512 472 509 520 494 498 468 510 442 482 526 468 500 480 481 512 505 467 532 477 453 515 483 488 502 518 526 512 485 495 527 466 453 486 500 493 473 528 484 452 491 522 493 471 457 481 480 496 501 479 464 472 495 479 462 468 484 490 453 505 478 469 461 484 458 504 446 432 453 493 435 506 484 529 481 503 512 451 502 446 454 474 517 487 497 509 503 497 492 471 504 486 466 519 475 499 443 500 524 481 518 531 508 492 481 525 510 502 505 486 523 533 517 496 525 493 489 523 519 518 518 530 492 561 530 493 556 510 543 536 548 514 566 507 569 541 529 514 539 523 514 504 536 498 521 505 530 547 506 511 569 521 511 510 525 562 556 504 546 538 543 567 529 535 528 541 531 547 539 533 522 532 562 522 530 541 544 500 541 522 510 500 502 482 513 468 493 487 528 480 501 487 512 480 460 497 513 539 476 498 488 475 451 507 520 484 517 516 516 474 484 473 483 455 503 490 530 490 513 481 492 492 500 489 430 492 501 462 469 496 449 423 514 469 467 428 465 456 470 476 498 454 515 455 491 481 461 468 456 464 480 435 468 470 449 454 515 472 532 442 452 475 446 485 467 437 495 416 480 484 448 454 446 454 475 489 443 433 504 447 476 451 458 473 495 487 466 486 452 480 485 485 506 484 497 462 477 495 470 453 524 491 516 503 476 464 529 479 467 447 452 492 473 469 474 456 506 501 477 465 491 466 470 469 506 463 478 509 490 513 479 483 482 461 483 460 477 487 487 446 509 495 493 488 486 511 463 522 505 474 493 510 512 534 489 526 533 504 518 523 532 494 519 517 521 531 530 480 503 529 508 487 493 492 465 534 474 522 497 488 525 533 482 501 461 543 487 480 504 512 506 528 478 524 502 485 460 541 468 515 478 494 434 487 511 493 444 484 471 463 521 488 463 532 511 486 475 477 489 454 496 479 464 478 485 524 469 459 489 509 505 481 486 471 465 484 503 462 526 493 478 459 475 464 493 511 492 485 503 454 466 463 482 513 495 494 464 462 504 487 487 511 482 517 485 492 487 523 471 497 462 443 514 501 458 476 469 509 466 516 484 463 521 491 470 489 480 503 499 473 492 469 521 508 472 530 487 461 521 467 452 495 483 481 513 482 494 497 431 491 486 446 479 446 466 442 447 519 444 467 491 462 439 461 436 472 505 461 466 478 462 462 461 486 506 461 459 463 497 483 455 476 484 497 445 460 461 458 485 435 460 446 454 437 480 462 468 475 497 477 412 453 483 433 421 474 453 480 443 449 473 453 477 490 447 432 461 474 498 452 486 465 477 418 461 433 452 469 479 483 452 496 468 456 448 457 488 436 441 465 503 486 512 489 473 460 481 474 471 485 498 500 481 465 503 471 482 498 467 502 457 523 499 524 500 529 478 567 508 520 483 466 474 457 506 415 520 511 522 519 564 500 499 499 491</counts>
			</dataPoints>
		</scan>
	</xrdMeasurement>
</xrdMeasurements>
