<?xml version="1.0"?>
<xrdMeasurements xmlns="http://www.xrdml.com/XRDMeasurement/2.3" xmlns:xsi="http://www.w3.org/2001/XMLSchema-instance" xsi:schemaLocation="http://www.xrdml.com/XRDMeasurement/2.3 http://www.xrdml.com/XRDMeasurement/2.3/XRDMeasurement.xsd" status="Completed" recordIdentifier="{94323CE8-8187-444D-AB01-B0153E8E66C9}">
	<comment>
		<entry/>
	</comment>
	<sample type="To be analyzed">
		<id>GPSS_Li1p8Cr0p2Mg0p8Cl4_110325_69093a3ff040177efa2b52dc</id>
		<name></name>
		<preparedBy></preparedBy>
	</sample>
	<xrdMeasurement measurementType="Scan" status="Completed" sampleMode="Reflection">
		<usedWavelength intended="K-Alpha 1">
			<kAlpha1 unit="Angstrom">1.5405980</kAlpha1>
			<kAlpha2 unit="Angstrom">1.5444260</kAlpha2>
			<kBeta unit="Angstrom">1.3922500</kBeta>
			<ratioKAlpha2KAlpha1>0.5000</ratioKAlpha2KAlpha1>
		</usedWavelength>
		<incidentBeamPath>
			<radius unit="mm">145.00</radius>
			<xRayTube id="1010048" name="Empyrean Cu LFF HR (9430 033 7310x)">
				<tension unit="kV">40.0</tension>
				<current unit="mA">15.0</current>
				<anodeMaterial>Cu</anodeMaterial>
				<focus type="Line">
					<length unit="mm">12.0</length>
					<width unit="mm">0.4</width>
					<takeOffAngle unit="deg">6.0</takeOffAngle>
				</focus>
			</xRayTube>
			<sollerSlit id="21010002" name="Soller slits 0.04 rad.">
				<opening unit="rad">0.0400</opening>
			</sollerSlit>
			<mask id="22031000" name="Fixed mask 13 mm">
				<width unit="mm">9.00</width>
			</mask>
			<divergenceSlit id="22120001" name="Divergence slit 1°" xsi:type="fixedDivergenceSlitType">
				<distanceToSample unit="mm">50.00</distanceToSample>
				<height unit="mm">1.52</height>
			</divergenceSlit>
		</incidentBeamPath>
		<sampleMovement xsi:type="spinningSampleMovementType">
			<spinnerRevolutionTime unit="seconds">1.0</spinnerRevolutionTime>
		</sampleMovement>
		<diffractedBeamPath>
			<radius unit="mm">145.00</radius>
			<antiScatterSlit id="22090040" name="AS slit 9 mm (PIXcel)" xsi:type="fixedAntiScatterSlitType">
				<height unit="mm">9.00</height>
			</antiScatterSlit>
			<sollerSlit id="21020003" name="Large Soller slits 0.04 rad.">
				<opening unit="rad">0.0400</opening>
			</sollerSlit>
			<filter id="20030001" name="Large beta-filter Nickel">
				<material>Ni</material>
				<thickness unit="mm">0.020</thickness>
			</filter>
			<detector id="7010019" name="PIXcel1D-Medipix3 detector" xsi:type="rtmsDetectorType">
				<phd unit="keV">
					<lowerLevel>4.02</lowerLevel>
					<upperLevel>11.27</upperLevel>
				</phd>
				<mode>Scanning</mode>
				<activeLength unit="deg">5.542</activeLength>
			</detector>
		</diffractedBeamPath>
		<scan appendNumber="0" mode="Continuous" scanAxis="Gonio" status="Completed">
			<header>
				<startTimeStamp>2025-11-05T12:27:03-08:00</startTimeStamp>
				<endTimeStamp>2025-11-05T12:35:10-08:00</endTimeStamp>
				<author>
					<name>AutomatedUser</name>
				</author>
				<source>
					<applicationSoftware version="1.7b (136)">PANalytical Aeris Instrument Suite</applicationSoftware>
					<instrumentControlSoftware version="3.2.00000000 20240306">AERIS</instrumentControlSoftware>
					<instrumentID>950485</instrumentID>
				</source>
			</header>
			<dataPoints>
				<positions axis="2Theta" unit="deg">
					<startPosition>10.00943322</startPosition>
					<endPosition>99.99442286</endPosition>
				</positions>
				<positions axis="Omega" unit="deg">
					<startPosition>5.00471661</startPosition>
					<endPosition>49.99721143</endPosition>
				</positions>
				<commonCountingTime unit="seconds">12.495</commonCountingTime>
				<counts unit="counts">2636 2599 2672 2607 2728 2626 2659 2609 2637 2670 2641 2549 2726 2601 2700 2632 2659 2639 2704 2584 2535 2572 2537 2594 2601 2641 2695 2677 2601 2609 2652 2638 2597 2611 2640 2679 2507 2630 2713 2683 2674 2618 2582 2564 2552 2590 2551 2654 2589 2571 2621 2600 2534 2647 2575 2508 2615 2567 2559 2666 2694 2636 2667 2552 2663 2654 2671 2597 2597 2633 2687 2651 2575 2712 2565 2672 2560 2630 2654 2633 2575 2521 2625 2584 2631 2539 2581 2691 2658 2645 2649 2468 2677 2557 2568 2610 2589 2619 2597 2627 2658 2541 2696 2589 2605 2642 2611 2555 2532 2684 2592 2504 2671 2585 2591 2524 2659 2530 2558 2637 2648 2601 2660 2656 2610 2598 2576 2630 2651 2504 2503 2592 2662 2579 2667 2642 2690 2490 2635 2589 2611 2640 2587 2596 2551 2584 2575 2667 2591 2613 2660 2583 2602 2617 2531 2615 2610 2552 2576 2585 2603 2560 2603 2596 2613 2509 2577 2610 2612 2639 2654 2588 2544 2561 2615 2613 2591 2551 2483 2600 2636 2576 2609 2570 2629 2565 2531 2547 2550 2565 2619 2569 2478 2556 2561 2575 2560 2544 2543 2498 2702 2576 2568 2617 2630 2573 2562 2526 2597 2649 2656 2522 2677 2588 2637 2674 2600 2670 2467 2526 2600 2606 2480 2554 2630 2512 2481 2467 2480 2554 2506 2564 2477 2513 2510 2565 2579 2567 2453 2541 2498 2440 2528 2491 2594 2533 2503 2508 2497 2451 2490 2468 2568 2510 2477 2485 2506 2531 2473 2495 2468 2435 2474 2513 2531 2524 2474 2546 2482 2484 2606 2560 2571 2518 2522 2400 2458 2627 2494 2504 2549 2534 2498 2547 2486 2490 2502 2616 2502 2602 2471 2464 2526 2589 2503 2544 2530 2622 2519 2471 2514 2415 2574 2548 2557 2533 2531 2543 2549 2497 2554 2482 2457 2386 2630 2542 2547 2517 2514 2554 2529 2659 2501 2523 2614 2540 2532 2491 2557 2617 2489 2629 2556 2509 2611 2684 2559 2520 2542 2594 2486 2506 2560 2551 2563 2550 2518 2475 2503 2524 2620 2543 2624 2567 2608 2608 2506 2592 2604 2592 2591 2655 2588 2691 2707 2674 2609 2610 2617 2672 2680 2712 2722 2688 2700 2653 2630 2624 2704 2654 2688 2709 2694 2619 2626 2722 2833 2736 2834 2657 2668 2763 2753 2738 2672 2763 2716 2740 2845 2673 2785 2703 2775 2862 2856 2906 2778 2802 2913 2821 2875 2884 2835 2915 2849 2965 2920 2850 2965 2900 2919 3011 3044 3010 3047 2921 3108 3073 3138 3197 3191 3344 3217 3304 3356 3345 3349 3279 3532 3513 3431 3466 3553 3605 3572 3671 3789 3551 3715 4008 3907 3901 4001 4062 4209 4274 4262 4378 4334 4402 4445 4260 4508 4565 4525 4660 4627 4782 4643 4622 4762 4840 4838 4982 4976 5033 5132 5161 5115 5221 5351 5548 5431 5468 5641 5476 5559 5562 5526 5494 5573 5560 5452 5506 5423 5348 5452 5329 5559 5406 5461 5340 5349 5234 5163 5023 5097 4960 4903 4841 4591 4679 4659 4530 4395 4339 4297 4299 4157 4248 4094 4177 4062 4053 3971 3988 3928 3779 3736 3546 3611 3532 3346 3257 3292 3130 3157 3130 3035 2971 3020 2935 3034 2880 2974 2997 2857 2849 2897 2891 2905 2919 2877 2841 2817 2823 2735 2831 2820 2732 2764 2691 2684 2719 2660 2693 2749 2659 2757 2663 2594 2773 2659 2657 2719 2715 2701 2677 2718 2690 2629 2737 2609 2647 2651 2565 2598 2669 2619 2638 2618 2615 2679 2664 2586 2505 2538 2498 2626 2635 2570 2640 2676 2565 2529 2577 2631 2667 2541 2563 2522 2637 2579 2579 2671 2581 2566 2482 2528 2546 2514 2580 2477 2532 2590 2516 2447 2475 2407 2506 2559 2483 2469 2498 2549 2480 2503 2489 2425 2432 2477 2506 2497 2519 2504 2464 2460 2502 2436 2440 2468 2368 2492 2400 2532 2409 2433 2473 2415 2512 2537 2535 2567 2397 2471 2530 2494 2465 2481 2578 2412 2291 2471 2366 2497 2453 2395 2483 2501 2459 2443 2457 2435 2413 2418 2482 2398 2398 2539 2470 2363 2327 2459 2368 2378 2409 2367 2325 2454 2350 2356 2437 2445 2408 2374 2337 2410 2336 2479 2404 2396 2394 2481 2330 2394 2336 2323 2356 2501 2319 2426 2322 2390 2407 2400 2373 2466 2229 2346 2342 2332 2458 2324 2363 2307 2382 2370 2400 2274 2266 2359 2399 2400 2319 2390 2330 2319 2347 2288 2418 2354 2372 2321 2378 2369 2438 2242 2299 2425 2394 2340 2390 2304 2373 2261 2304 2329 2278 2377 2353 2307 2355 2280 2240 2301 2301 2365 2378 2372 2293 2333 2342 2276 2314 2310 2332 2325 2307 2320 2287 2305 2262 2277 2358 2305 2366 2311 2289 2289 2304 2207 2329 2269 2256 2322 2294 2327 2267 2228 2253 2194 2288 2178 2298 2233 2304 2165 2291 2328 2361 2288 2330 2327 2380 2256 2237 2265 2241 2250 2202 2218 2278 2313 2243 2316 2224 2205 2188 2235 2260 2258 2292 2243 2279 2262 2250 2222 2250 2217 2176 2228 2161 2221 2131 2253 2248 2204 2260 2214 2189 2163 2206 2121 2172 2139 2250 2156 2235 2173 2150 2175 2211 2118 2251 2155 2204 2114 2266 2145 2218 2080 2151 2149 2176 2105 2239 2084 2188 2110 2170 2143 2160 2240 2210 2111 2173 2109 2111 2133 2129 2097 2148 2149 2208 2159 2105 2109 2158 2064 2112 2224 2052 2143 2083 2090 2083 2088 2087 2144 2142 2160 2095 2101 2132 2075 2058 2069 2123 2181 2181 2206 2139 2070 2118 2055 2163 2093 2117 2136 2175 2147 2124 2071 2132 2138 2022 2090 2151 2087 1997 2136 2100 2128 2132 2081 1987 2136 2097 2067 2111 2157 2065 2181 2160 2112 2145 2120 2117 2143 1992 2102 2080 2077 2038 2071 2002 2013 2132 2012 2083 2113 1989 2085 2018 2139 2073 2048 2031 2044 1987 2090 2079 2026 2082 2075 2058 2110 2108 2025 2086 2006 2093 1975 1984 2029 2137 2082 2057 2098 2058 2048 2028 2050 2063 2079 1932 2003 2077 2099 2052 1940 2056 2020 2090 2025 2024 2004 1914 1950 2039 2020 2009 2065 2064 1970 2068 2098 2141 2030 1992 2031 2033 1975 2089 2031 2009 2033 2072 2031 1984 2035 1999 2034 2007 1977 2095 1990 2045 2007 2024 1995 1987 2098 2171 2030 2066 2012 2029 2108 1967 1972 2020 2064 2034 2083 2088 2008 2090 2004 2106 2044 1986 1980 2120 2092 1972 2081 2113 2008 2033 2049 1996 2037 2048 2068 1992 2045 2055 1986 2079 2076 2046 2061 2096 2131 2057 2042 2068 1992 2018 2078 1986 2055 2015 2064 2111 1951 2048 2030 1956 1984 2037 1989 2029 1974 2021 1908 2049 2056 2068 2018 2029 2066 2029 1982 2087 2041 1978 2051 1971 1923 2005 2126 2012 1942 1977 1920 2054 2025 2001 2005 2003 2009 1871 1932 1943 1981 2075 1943 2016 1963 1943 1908 1984 1916 2023 1964 1921 1884 1933 1863 1977 1916 1855 1960 1947 1875 1967 1938 1955 1959 1923 1845 1797 1961 1882 1934 1849 1859 1892 1875 1828 1899 1896 1932 1898 1867 1881 1907 1807 1744 1913 1826 1846 1834 1785 1887 1877 1911 1836 1877 1754 1810 1755 1885 1799 1788 1769 1742 1789 1769 1821 1762 1831 1665 1776 1765 1740 1726 1752 1754 1709 1724 1825 1722 1747 1788 1739 1774 1782 1777 1805 1722 1771 1829 1710 1748 1729 1709 1694 1664 1712 1696 1692 1698 1663 1714 1773 1581 1680 1683 1667 1661 1690 1662 1667 1596 1665 1592 1528 1582 1577 1573 1605 1615 1642 1600 1596 1580 1545 1615 1558 1605 1587 1579 1615 1603 1633 1566 1566 1503 1572 1567 1566 1471 1574 1533 1569 1549 1565 1584 1552 1527 1570 1626 1541 1561 1528 1527 1546 1460 1489 1596 1457 1549 1555 1626 1507 1541 1477 1540 1503 1534 1451 1453 1635 1442 1528 1593 1496 1512 1543 1429 1479 1484 1581 1499 1382 1531 1480 1467 1505 1492 1494 1480 1493 1522 1408 1518 1542 1510 1458 1435 1476 1520 1429 1473 1518 1534 1436 1436 1481 1368 1506 1428 1503 1416 1378 1453 1410 1388 1494 1468 1460 1469 1419 1448 1510 1431 1485 1486 1383 1390 1461 1399 1377 1435 1416 1467 1422 1478 1429 1381 1424 1374 1407 1387 1469 1388 1480 1376 1415 1381 1427 1434 1390 1379 1420 1494 1439 1411 1416 1428 1430 1449 1408 1432 1426 1435 1457 1377 1403 1408 1447 1415 1389 1325 1463 1452 1432 1459 1500 1487 1440 1374 1400 1382 1433 1413 1417 1389 1414 1450 1445 1439 1422 1486 1381 1431 1480 1386 1436 1346 1389 1422 1469 1416 1505 1413 1364 1477 1389 1404 1330 1371 1411 1465 1466 1430 1458 1468 1488 1411 1450 1441 1410 1415 1470 1448 1470 1368 1490 1411 1407 1459 1375 1440 1470 1413 1427 1337 1409 1496 1471 1397 1391 1382 1398 1390 1551 1384 1410 1454 1382 1412 1419 1406 1438 1409 1391 1376 1456 1407 1422 1408 1364 1438 1437 1392 1424 1403 1438 1392 1405 1360 1468 1485 1471 1427 1444 1507 1429 1417 1416 1415 1421 1449 1415 1490 1495 1447 1339 1433 1385 1443 1437 1377 1415 1394 1461 1330 1360 1444 1339 1371 1439 1378 1382 1368 1345 1442 1433 1356 1407 1421 1318 1421 1333 1353 1409 1424 1358 1360 1316 1398 1426 1310 1361 1401 1352 1420 1382 1397 1301 1301 1404 1282 1338 1350 1277 1407 1278 1321 1290 1324 1259 1300 1332 1289 1266 1300 1325 1265 1249 1228 1344 1290 1286 1305 1243 1268 1360 1259 1308 1243 1317 1250 1316 1205 1281 1204 1233 1212 1250 1228 1193 1217 1225 1320 1243 1190 1289 1227 1210 1215 1268 1197 1166 1185 1119 1224 1216 1193 1187 1156 1181 1187 1216 1261 1184 1213 1209 1139 1192 1176 1139 1212 1161 1169 1128 1234 1197 1147 1147 1169 1177 1199 1203 1156 1156 1206 1138 1188 1132 1154 1190 1135 1197 1148 1133 1141 1111 1191 1212 1211 1194 1211 1115 1146 1126 1192 1117 1204 1198 1192 1212 1154 1222 1190 1269 1166 1226 1287 1251 1295 1304 1284 1305 1346 1269 1318 1296 1398 1370 1328 1355 1343 1360 1379 1318 1299 1321 1356 1399 1347 1247 1284 1278 1439 1315 1316 1303 1269 1372 1268 1264 1249 1283 1238 1223 1249 1289 1177 1254 1240 1224 1205 1290 1138 1161 1260 1202 1254 1144 1216 1278 1169 1159 1150 1210 1123 1162 1116 1139 1190 1150 1154 1174 1133 1137 1151 1114 1082 1152 1120 1128 1163 1158 1188 1092 1216 1141 1192 1260 1239 1237 1275 1198 1220 1316 1314 1354 1354 1391 1432 1498 1502 1603 1593 1654 1654 1784 1856 1989 1935 2052 2183 2198 2364 2461 2572 2709 2826 2997 3041 3218 3293 3512 3559 3792 3910 4155 4260 4455 4699 4689 4836 5237 5419 5550 5934 6169 6360 6584 6737 6783 6956 6861 6870 6893 6884 6809 7014 6761 6710 6689 6659 6526 6469 6560 6301 6142 6150 5952 5948 5790 5519 5416 5256 5222 5008 4976 4908 4714 4718 4727 4716 4522 4487 4316 4337 4265 4168 4139 4060 3994 3932 3700 3701 3639 3578 3450 3482 3308 3126 3154 3083 2961 2795 2681 2684 2620 2584 2405 2407 2311 2248 2131 2200 2072 2111 2047 2019 1931 1916 1877 1805 1760 1564 1695 1643 1656 1618 1449 1424 1472 1512 1345 1357 1243 1318 1265 1238 1231 1249 1220 1271 1277 1278 1219 1208 1261 1288 1258 1306 1287 1282 1324 1270 1302 1192 1189 1249 1272 1217 1165 1146 1143 1174 1119 1102 1148 1101 1097 1071 992 1033 1029 1012 1035 947 969 951 933 986 970 936 948 927 957 901 927 941 914 922 908 902 975 923 893 914 850 914 950 861 826 817 851 832 877 834 845 845 862 834 823 913 890 874 886 877 860 877 873 836 873 858 890 893 864 826 897 888 859 894 873 806 849 828 839 837 789 877 836 835 860 827 845 813 835 842 862 873 892 806 824 829 830 845 817 789 850 790 846 824 819 769 838 805 798 832 832 831 814 780 844 845 779 773 813 841 792 820 815 826 773 812 791 757 768 786 766 803 790 797 802 802 785 806 787 807 794 731 748 815 720 762 783 776 815 764 782 811 732 816 773 776 803 786 768 822 759 736 759 720 719 744 839 765 789 721 774 707 760 729 758 800 755 732 799 719 797 750 749 733 723 805 866 751 780 750 743 772 732 753 756 723 751 760 771 692 735 786 756 743 723 777 734 775 810 759 788 779 777 721 734 736 812 794 771 851 801 772 813 766 788 756 755 751 770 752 792 787 736 756 745 778 792 760 821 760 807 808 759 757 792 778 819 756 826 767 811 839 789 777 786 861 759 800 803 809 819 832 814 804 855 917 805 875 902 835 841 836 903 878 937 907 935 932 1037 971 1023 981 1088 1026 1080 1061 1218 1127 1198 1278 1282 1399 1461 1545 1526 1594 1777 1730 1816 1985 2030 2149 2279 2372 2541 2608 2817 2924 3001 3363 3359 3538 3516 3849 3927 4032 4265 4537 4882 5127 5182 5537 5571 5788 5738 5921 6235 6250 6326 6393 6291 6406 6348 6438 6458 6452 6439 6271 6273 6052 6221 6168 5923 5975 5605 5529 5374 5205 5262 5074 4839 4737 4610 4597 4432 4323 4269 4241 4194 4176 4171 4201 4259 4309 4352 4453 4321 4533 4366 4301 4381 4284 4308 4158 4031 3924 3940 3725 3615 3617 3388 3282 3200 3021 2908 2774 2560 2545 2378 2237 2092 1991 1913 1841 1730 1691 1579 1565 1477 1394 1405 1264 1258 1239 1230 1171 1081 1124 1116 1016 1026 996 1039 1018 977 938 980 906 868 876 893 877 855 888 864 813 861 882 852 871 841 770 805 770 824 799 772 840 788 706 800 784 815 763 824 786 804 767 782 807 747 726 800 765 799 752 717 808 781 778 781 797 763 822 723 789 750 819 869 783 768 801 781 767 817 765 829 791 760 817 800 844 798 798 799 806 758 833 789 841 788 825 838 814 906 825 855 850 775 879 915 876 863 928 870 854 854 896 857 841 929 809 877 899 890 910 885 829 933 884 869 853 934 881 932 812 862 799 821 807 822 850 825 861 768 809 737 800 823 785 695 801 760 803 738 732 706 744 741 720 690 703 673 732 675 706 743 720 725 671 666 673 633 700 647 710 616 621 651 619 634 659 700 651 595 594 617 623 654 663 640 613 642 660 670 683 650 576 642 637 693 602 668 645 665 664 639 656 648 604 631 614 644 615 637 626 590 654 609 561 653 647 629 653 631 621 621 603 611 631 643 612 630 642 628 598 616 634 629 644 615 575 611 593 603 630 598 601 635 565 615 604 606 635 566 606 620 592 577 588 548 618 615 614 580 596 568 571 591 613 594 626 602 613 586 602 579 610 583 576 625 597 587 550 584 612 618 590 546 573 582 606 557 547 587 562 561 555 578 603 556 591 566 546 582 577 573 557 573 541 522 565 565 570 577 579 587 574 539 548 567 555 578 551 552 520 538 544 550 600 589 576 566 571 553 524 525 570 546 522 540 556 544 533 599 532 578 568 544 561 569 576 555 529 533 536 587 554 528 550 523 510 558 539 583 528 563 543 540 544 543 559 545 564 593 520 573 576 515 542 562 524 544 509 551 541 534 566 554 543 554 499 507 524 529 530 527 506 566 464 538 579 515 550 555 515 512 492 574 517 523 561 525 544 493 537 534 541 513 508 543 496 503 512 534 513 543 527 542 533 537 546 535 530 491 523 492 499 560 566 519 528 500 506 561 521 540 532 560 522 551 558 542 511 525 517 542 512 522 529 520 563 513 542 497 562 526 519 511 535 483 530 521 490 548 505 512 507 508 499 522 538 547 518 508 490 543 498 492 507 507 524 541 494 549 490 484 517 514 490 541 501 551 462 499 509 496 536 534 475 480 536 551 476 502 528 505 512 491 522 516 513 501 521 496 542 484 521 453 487 538 485 512 506 488 513 485 516 496 488 560 490 473 504 481 504 521 526 457 491 511 488 489 502 471 483 486 476 484 493 506 538 498 475 488 536 491 436 494 490 503 527 480 489 495 495 504 486 529 508 498 464 470 472 472 504 480 490 502 455 466 526 491 533 488 474 487 510 507 537 559 484 496 455 491 503 459 494 487 516 492 495 511 497 519 477 483 486 510 471 525 499 513 472 492 484 462 479 477 474 530 508 534 492 543 480 481 496 506 498 469 488 529 534 493 489 503 434 463 485 484 502 458 462 501 492 492 489 503 468 489 473 505 517 458 524 516 491 493 511 511 487 486 491 472 480 475 463 466 458 490 499 500 470 473 482 493 517 496 431 481 485 498 487 477 490 483 500 490 514 511 485 518 451 468 498 435 476 448 475 450 503 494 454 448 495 444 470 457 477 482 499 447 449 453 484 454 447 455 514 445 498 465 474 498 437 506 510 477 504 445 493 469 485 447 495 495 501 467 456 448 472 452 457 518 420 500 433 437 485 492 497 447 490 432 463 514 464 462 440 493 472 470 467 467 426 458 462 491 471 443 465 467 494 440 488 442 443 450 435 473 428 444 517 453 429 469 480 473 432 447 446 492 454 455 482 430 454 470 481 441 488 446 499 466 448 470 436 494 451 444 466 448 437 470 400 424 424 462 435 458 470 449 452 462 442 466 442 478 484 462 472 497 491 444 450 441 474 466 469 509 512 426 495 479 466 451 469 437 497 468 455 472 502 442 479 451 481 443 462 476 488 469 457 461 426 446 439 460 493 504 462 487 450 471 444 473 482 485 489 492 458 486 500 472 501 514 473 528 541 555 513 571 521 605 599 640 637 648 642 663 650 682 710 699 677 746 750 753 799 768 800 838 841 870 867 823 866 866 938 911 931 904 859 898 868 928 843 897 913 866 833 825 890 805 860 795 762 749 768 687 651 698 676 710 650 641 651 616 578 583 582 598 627 592 577 587 568 520 516 558 534 591 574 555 601 563 529 520 544 564 553 542 509 561 550 566 580 560 563 582 595 584 586 564 573 604 613 595 607 590 619 611 607 579 557 604 546 578 591 600 564 558 550 573 591 575 520 514 518 489 539 559 497 511 506 467 498 485 495 515 496 492 496 486 481 466 485 433 472 433 436 440 461 458 472 466 443 462 426 446 468 438 457 468 447 432 458 460 428 458 447 452 424 466 448 481 467 471 436 442 452 464 441 435 449 438 444 454 434 445 438 417 415 449 429 523 444 444 485 469 462 427 441 450 503 459 477 456 476 418 461 461 439 436 477 450 470 459 432 513 487 451 467 475 475 448 452 438 454 464 502 452 466 483 427 437 477 456 477 477 488 503 454 496 449 459 479 489 512 475 466 464 482 512 501 489 502 475 481 462 482 492 489 479 471 464 473 457 485 460 484 498 479 494 518 493 453 497 440 438 428 470 471 456 456 489 449 461 489 482 482 437 477 456 461 466 487 422 477 434 478 451 508 468 449 466 460 437 465 462 454 489 470 478 489 505 421 439 444 446 508 454 419 433 478 450 454 463 449 455 473 437 436 508 409 433 470 487 434 509 466 435 465 485 491 443 477 454 453 462 503 487 471 471 463 480 445 512 506 495 443 462 435 487 480 460 476 519 525 487 486 483 486 539 544 508 501 508 538 541 500 542 533 568 561 539 615 581 641 580 648 651 658 669 699 676 694 770 818 863 851 959 977 1070 1063 1157 1238 1334 1443 1479 1538 1706 1825 1876 1995 1996 2126 2114 2351 2334 2362 2537 2681 2793 2888 2971 3097 3198 3205 3319 3394 3337 3380 3424 3506 3421 3479 3400 3472 3251 3324 3244 3256 3095 2897 2881 2845 2710 2653 2551 2447 2262 2280 2168 2048 2100 1894 1921 1778 1772 1703 1662 1590 1557 1500 1516 1519 1560 1502 1504 1588 1559 1518 1473 1457 1499 1519 1506 1570 1535 1499 1593 1573 1634 1618 1647 1656 1680 1607 1635 1603 1690 1603 1627 1705 1538 1583 1610 1548 1583 1617 1592 1499 1517 1455 1456 1525 1415 1327 1457 1317 1356 1318 1334 1280 1255 1225 1240 1220 1173 1134 1095 1036 1029 1035 963 948 921 851 840 878 843 862 794 726 731 740 711 703 692 688 669 561 634 561 565 562 572 608 566 520 559 481 507 526 512 527 472 543 499 520 519 481 500 470 452 454 495 487 482 451 465 479 472 460 444 437 441 435 489 448 441 489 460 448 443 423 443 479 443 433 450 416 446 404 418 424 439 495 402 427 427 438 406 413 448 486 440 440 452 422 445 432 401 446 450 450 457 444 450 471 474 452 484 466 500 466 520 457 482 491 500 516 500 478 510 546 494 538 538 570 597 578 627 558 615 601 627 605 688 660 621 656 643 630 636 653 662 634 669 672 699 634 647 683 622 678 609 649 623 637 621 607 647 610 632 617 534 574 573 564 587 602 519 534 532 569 529 561 562 553 603 479 519 451 493 503 491 503 524 490 553 453 480 471 567 476 464 514 495 529 559 497 540 483 512 498 474 527 474 497 485 485 464 438 416 480 494 487 446 452 443 473 433 436 434 475 435 469 436 467 447 453 432 458 423 452 453 447 504 491 419 448 461 431 437 427 464 508 481 451 431 442 447 490 454 481 501 500 523 545 466 496 503 463 502 496 489 480 529 461 461 461 467 490 470 456 490 456 447 467 418 464 466 405 457 427 406 435 380 419 417 408 430 425 383 395 368 377 382 397 405 360 372 381 427 403 421 398 351 387 391 404 392 409 367 358 338 420 419 373 388 418 367 367 408 391 423 364 400 390 412 393 357 373 370 359 411 378 378 345 363 341 371 366 378 377 392 332 368 389 428 407 361 344 372 372 366 333 392 350 353 355 359 350 358 352 378 356 396 346 384 354 394 357 376 357 366 332 392 341 365 378 369 372 398 377 360 379 361 356 409 377 374 337 352 371 369 363 321 336 374 333 339 359 366 348 308 352 369 358 382 366 349 347 337 339 372 398 350 368 356 368 368 351 375 366 346 362 363 364 350 383 348 342 391 377 336 387 351 350 348 329 364 369 369 326 345 374 369 328 353 376 372 391 383 359 365 346 340 322 391 365 311 370 364 363 350 346 359 332 401 385 369 374 370 394 367 375 371 357 362 367 358 353 381 379 325 388 376 360 379 377 386 375 371 364 386 363 344 361 354 356 390 382 373 399 318 336 347 378 356 335 348 360 369 345 310 373 346 344 350 336 398 357 361 366 342 367 353 354 339 328 351 316 334 355 309 360 365 358 344 326 337 357 371 308 371 353 315 333 330 312 333 331 306 338 378 337 333 321 346 344 340 318 336 360 332 334 314 337 344 334 351 330 386 306 331 362 365 356 311 381 328 366 357 330 334 337 309 372 349 361 333 347 297 361 301 330 333 340 342 339 325 318 355 346 326 366 341 387 337 325 331 343 320 307 334 358 366 365 347 357 357 371 368 347 355 326 334 357 368 314 313 342 309 373 333 358 350 322 331 343 302 358 366 349 340 328 339 345 382 314 387 345 322 341 328 309 324 347 349 336 332 371 351 360 328 343 316 358 352 354 306 319 293 326 362 358 352 341 348 355 350 344 348 362 357 360 338 328 388 378 355 388 393 384 327 342 388 358 382 391 388 411 388 379 407 369 383 390 403 415 385 392 415 418 368 442 368 389 373 395 409 370 420 389 433 428 418 392 383 419 484 425 428 447 436 421 455 470 465 436 539 507 506 465 542 516 625 582 618 692 673 725 715 763 735 839 896 917 934 980 966 964 1100 1050 1043 1119 1151 1223 1234 1261 1170 1259 1210 1226 1291 1323 1242 1312 1354 1289 1310 1212 1154 1230 1239 1266 1152 1155 1049 1049 1001 983 914 954 954 912 874 843 861 858 786 714 742 744 671 698 684 699 638 625 640 640 584 636 670 653 611 625 620 585 684 640 698 701 649 700 708 724 740 768 758 776 758 788 832 853 782 863 860 903 894 917 983 905 907 895 929 854 877 930 892 911 930 816 887 829 823 807 819 788 862 785 768 762 720 745 705 695 659 668 598 618 603 610 570 570 508 541 543 523 472 530 483 454 478 473 467 447 440 427 398 450 423 396 400 399 435 366 359 383 400 375 340 385 403 350 347 385 405 336 367 337 355 335 372 356 358 349 366 328 350 325 366 352 326 349 345 368 332 308 331 368 340 378 329 347 312 361 328 313 323 325 356 341 354 286 319 337 328 337 342 344 288 343 327 366 339 317 305 280 332 323 353 305 340 333 322 348 328 298 331 339 373 348 377 325 335 342 344 349 330 358 358 333 339 336 368 338 376 343 358 357 368 395 354 330 379 375 367 409 389 397 482 448 448 405 425 425 429 453 482 491 499 527 539 558 587 608 643 667 718 763 756 813 804 889 869 970 986 981 965 1013 990 1103 1136 1131 1169 1209 1258 1278 1289 1292 1307 1340 1334 1362 1219 1240 1118 1168 1178 1146 1138 1053 1092 1053 1044 1063 1041 1049 929 926 883 824 810 790 793 740 698 709 695 675 665 621 650 595 605 575 580 533 544 541 564 513 587 554 529 492 533 513 508 542 527 591 563 537 560 617 552 568 601 646 682 620 636 673 667 676 652 710 628 697 663 728 705 708 694 726 686 702 696 652 695 660 640 650 587 621 576 589 606 561 584 575 520 560 531 549 526 542 526 564 534 531 520 488 511 506 522 487 482 485 506 532 532 509 575 588 571 572 562 607 540 530 533 561 553 543 532 568 540 528 553 555 499 515 527 512 453 521 450 485 454 454 459 444 431 393 437 435 418 423 406 424 387 404 400 387 374 359 389 393 369 366 391 414 407 352 368 358 400 379 407 398 399 411 427 394 373 445 411 447 450 424 445 443 476 457 480 484 485 487 496 476 533 538 486 483 469 532 457 501 454 502 500 466 513 515 474 469 551 475 505 460 516 471 494 522 451 438 539 453 487 548 554 570 572 609 586 603 575 618 590 506 536 581 545 559 564 513 561 510 514 494 547 476 533 428 507 461 470 449 440 378 417 371 372 363 390 362 385 355 358 375 375 299 338 337 343 327 341 314 337 349 301 309 296 314 312 307 324 291 353 324 351 326 325 316 371 342 348 332 344 326 374 365 351 342 381 377 394 365 386 381 339 378 403 372 346 366 343 374 370 388 364 387 380 359 342 411 409 369 337 354 363 364 404 350 359 354 355 351 347 385 388 348 302 318 341 303 354 315 340 344 310 318 285 324 312 316 339 314 291 322 312 307 291 326 281 307 315 274 279 272 329 296 320 311 317 292 321 304 298 318 297 339 304 305 302 298 281 291 302 307 305 296 336 313 344 293 280 309 281 326 296 291 301 294 299 283 322 318 303 286 287 293 326 313 294 244 307 290 304 296 307 309 320 318 299 342 316 296 309 297 290 294 319 310 313 315 311 284 330 305 304 286 309 298 285 277 294 299 306 317 286 256 266 295 292 324 279 281 301 300 310 272 303 316 297 322 297 291 289 302 291 303 233 291 286 304 300 289 313 300 311 316 312 289 286 323 288 313 313 299 338 290 316 287 305 262 283 307 304 326 315 295 300 301 289 297 298 304 321 299 298 307 283 288 296 278 325 289 302 286 304 306 291 273 302 303 312 246 307 288 286 296 277 278 289 281 303 288 278 268 293 280 265 289 287 291 284 276 257 279 263 294 295 287 287 276 268 305 293 275 284 284 230 261 229 265 299 257 285 237 291 280 277 274 258 277 294 287 285 274 273 259 238 276 293 290 287 279 262 268 262 287 260 278 271 260 282 278 262 270 245 263 295 266 271 268 263 274 287 258 278 299 256 274 265 321 270 267 290 229 274 281 271 270 295 284 262 296 281 279 272 275 261 266 289 263 289 262 281 294 260 281 258 261 246 273 259 270 257 278 287 249 277 272 233 266 242 258 280 276 300 227 238 267 262 258 241 280 268 248 267 263 316 262 297 286 258 267 292 279 330 343 287 305 318 290 313 275 285 320 307 348 326 322 342 389 382 307 337 336 328 346 407 376 359 377 370 342 377 353 346 394 327 366 352 363 384 339 349 342 348 308 358 324 329 350 312 285 347 299 325 300 307 280 290 290 287 292 283 276 311 274 287 277 267 298 270 237 280 266 286 281 271 258 306 281 259 266 237 272 240 268 285 258 258 274 305 267 248 267 274 265 249 270 281 246 271 277 248 240 258 272 268 250 250 274 286 264 296 249 258 284 280 277 263 257 287 261 263 276 262 248 258 265 283 237 270 229 271 266 240 281 239 250 245 212 268 266 263 262 237 286 306 256 261 269 220 281 282 243 286 234 290 214 236 265 279 267 271 272 269 257 230 267 231 236 278 234 235 244 235 268 236 234 285 235 249 228 234 238 232 248 238 232 248 221 236 224 234 220 231 281 248 267 271 235 246 264 241 245 269 269 229 241 241 234 215 257 218 275 232 267 262 272 264 266 263 235 267 248 242 229 210 276 213 244 251 257 282 281 270 233 227 286 260 248 228 245 210 267 275 247 244 239 258 236 246 206 270 248 257 212 220 245 256 237 265 246 275 230 257 239 258 282 229 236 281 246 233 222 248 230 256 249 271 280 268 256 242 279 281 303 303 296 269 271 274 270 305 260 266 288 302 313 307 322 324 308 316 277 340 327 352 348 352 365 374 383 416 371 411 398 429 466 509 441 472 497 501 454 493 531 506 500 482 549 575 565 545 530 529 560 576 538 544 534 498 497 565 536 529 539 538 544 486 489 519 497 446 453 437 442 452 416 428 412 348 408 383 375 370 338 362 375 352 318 369 332 315 336 303 328 312 301 302 316 294 332 309 298 305 311 308 287 307 331 246 286 304 288 311 327 317 324 352 337 308 301 313 308 351 322 337 320 348 337 289 329 301 373 336 357 370 351 353 376 388 388 409 375 395 371 399 415 403 409 371 396 391 376 394 414 374 390 410 397 370 388 390 393 414 384 353 389 368 363 366 320 310 355 345 297 346 334 323 340 334 329 301 296 315 300 325 285 284 295 288 278 309 292 282 299 316 283 303 260 282 276 309 271 241 248 257 285 256 304 282 276 277 273 268 262 280 263 266 277 294 307 285 228 261 285 290 242 245 283 278 269 281 251 246 250 313 267 289 267 264 261 291 248 286 264 233 273 275 280 261 274 259 271 263 248 239 272 239 275 246 251 263 226 218 270 261 243 225 235 236 259 238 235 266 256 232 232 232 245 227 233 258 236 237 238 237 240 221 227 257 242 244 249 240 240 233 236 216 245 234 237 262 262 222 223 249 218 263 220 220 261 239 242 232 257 215 238 261 274 230 257 213 227 225 224 236 260 223 229 217 233 222 240 216 232 197 240 214 268 228 275 245 208 215 227 224 244 259 228 259 296 234 263 267 210 246 228 245 241 237 237 241 220 262 223 241 224 224 238 222 214 229 197 268 237 243 228 205 277 229 265 236 219 230 215 238 242 242 240 234 239 247 264 247 228 226 206 237 237 229 260 240 238 234 249 242 232 228 238 205 256 223 212 233 192 228 218 236 246 229 242 239 240 263 234 234 231 220 212 216 225 236 259 226 265 199 240 218 234 235 212 226 220 239 241 231 210 243 242 292 242 225 222 219 211 179 233 232 211 207 239 213 242 220 243 207 258 276 236 222 230 276 228 229 223 221 225 217 205 264 224 226 248 239 238 267 212 268 251 229 259 247 240 221 267 210 243 248 216 214 231 239 239 248 203 265 262 265 261 221 235 238 229 244 247 241 264 271 285 240 273 242 248 222 239 238 225 245 245 267 257 238 278 220 216 261 231 248 220 244 229 269 263 261 220 268 237 249 244 226 226 225 266 243 280 238 258 265 270 240 258 245 224 238 262 229 220 227 267 242 303 231 271 243 256 243 259 216 237 260 262 220 266 270 225 259 243 239 233 243 247 230 243 258 241 248 267 240 217 244 264 213 265 229 228 256 261 217 231 237 257 245 261 217 229 257 250 236 221 241 258 236 240 271 220 268 237 240 223 264 280 242 239 246 218 225 245 251 214 265 259 204 265 238 223 246 219 257 259 239 218 265 229 274 215 231 277 265 240 266 245 257 245 277 264 257 256 230 265 272 236 259 270 257 261 261 258 268 249 294 230 294 243 284 273 269 286 267 279 311 312 313 298 328 330 289 314 283 307 281 312 294 336 310 346 298 341 300 363 335 320 342 345 354 292 322 331 312 302 299 338 315 292 330 290 301 323 346 311 291 356 338 325 306 334 332 348 377 335 358 386 381 380 359 408 431 396 455 427 419 514 485 473 470 473 491 551 509 462 521 503 549 521 510 558 565 505 491 493 550 540 539 488 542 513 507 523 465 477 426 447 465 474 411 412 431 422 437 414 404 437 387 376 362 412 370 355 381 331 344 338 353 332 344 344 320 322 319 297 340 302 319 326 294 297 267 295 314 307 315 305 313 289 301 309 280 279 267 273 298 325 296 283 311 291 305 296 323 318 310 315 315 330 335 334 344 345 389 362 385 371 372 409 338 360 428 428 440 404 432 377 422 407 424 458 427 438 451 453 484 454 441 465 478 453 492 453 437 507 433 450 414 429 439 429 398 424 399 352 391 397 436 416 356 351 416 390 427 361 335 325 332 379 343 341 379 359 317 333 348 332 334 324 328 326 322 323 329 333 320 282 341 343 319 303 316 279 325 289 318 299 307 279 304 315 301 327 300 329 281 306 301 334 308 317 323 341 332 361 306 355 347 343 330 355 340 367 349 363 394 378 356 385 403 368 386 396 431 431 469 465 480 488 505 517 532 536 559 583 555 600 604 673 693 717 740 729 762 787 841 783 763 847 891 812 910 840 845 865 853 842 874 848 791 838 825 812 815 773 819 773 715 762 789 758 733 741 716 680 693 669 698 651 668 634 675 649 596 608 618 572 547 499 547 538 491 534 468 472 453 441 403 455 419 428 389 429 436 390 388 399 398 432 397 381 350 367 382 370 364 360 312 368 334 322 337 335 344 350 364 373 364 391 342 339 357 397 356 393 397 355 373 384 428 429 419 421 429 435 427 443 444 496 495 466 521 472 512 553 541 529 481 499 527 500 546 540 534 508 496 505 531 546 536 546 518 465 574 520 526 524 467 498 483 512 510 492 530 504 492 496 454 458 452 480 442 520 471 474 462 473 447 477 452 453 462 467 420 437 432 439 430 438 411 418 403 430 410 406 413 377 414 410 436 407 403 391 402 385 369 363 398 392 362 376 368 366 371 342 319 362 366 343 339 339 353 282 355 316 319 293 339 333 328 306 338 299 313 273 313 314 267 329 297 304 292 259 293 272 274 306 241 276 307 289 236 281 272 288 264 314 264 283 264 246 236 316 270 250 256 278 281 247 270 237 299 224 278 232 241 273 240 245 257 248 270 262 265 262 266 239 232 259 286 269 260 228 258 242 241 267 274 293 264 237 244 234 244 275 246 224 248 274 260 259 296 264 259 263 256 266 273 251 238 245 242 273 259 263 257 271 309 260 276 268 275 235 312 263 249 278 248 264 238 290 258 233 276 282 283 279 259 250 264 242 271 240 278 221 269 240 248 275 256 283 234 257 236 245 250 264 269 275 279 286 256 236 280 246 222 261 245 242 268 235 274 258 246 245 259 238 266 246 246 235 243 240 257 291 264 246 232 261 264 229 226 231 245 240 261 234 267 250 250 242 217 268 257 268 234 225 237 218 214 238 224 233 270 246 237 226 238 275 263 246 245 208 230 218 221 244 272 247 249 256 234 259 245 204 246 278 261 248 268 268 260 225 233 247 260 231 237 224 246 251 268 242 229 249 257 240 240 228 272 243 258 233 266 258 268 271 265 260 274 272 238 279 256 262 272 247 287 282 294 247 288 287 288 267 306 260 282 295 298 290 279 298 292 302 266 295 296 305 275 278 282 300 258 285 287 279 290 303 276 274 288 276 256 282 312 271 295 261 280 245 284 286 279 298 277 250 274 260 257 241 237 243 258 284 235 263 263 226 259 248 229 244 247 241 235 267 264 230 243 242 267 233 245 233 231 232 248 229 257 241 241 244 273 241 238 233 249 238 263 235 247 247 244 267 241 229 279 242 268 244 243 262 215 293 267 245 242 216 267 241 243 270 233 242 243 263 258 235 260 248 237 277 272 236 229 225 227 245 230 246 266 238 285 242 233 256 274 241 245 245 243 237 234 266 288 274 240 245 263 267 271 279 265 293 300 305 246 266 314 249 274 295 307 314 293 289 295 270 311 291 300 331 316 330 316 284 284 318 311 339 309 299 313 320 306 290 319 305 304 306 298 329 299 306 243 297 305 334 308 308 327 286 293 302 258 282 267 285 290 264 275 275 282 237 281 266 292 284 274 242 275 244 273 263 242 266 245 287 242 230 265 228 240 271 226 246 251 247 273 272 270 263 274 291 238 229 240 264 284 249 248 222 259 236 256 230 269 267 249 258 234 218 286 207 262 237 221 195 242 259 264 291 265 208 260 271 246 248 237 250 261 260 245 219 274 271 243 247 265 266 281 285 248 268 263 247 269 267 291 237 258 270 269 271 259 247 235 235 246 270 227 268 262 242 238 250 238 247 277 269 294 278 228 240 261 244 236 263 259 264 274 239 277 220 285 259 226 270 240 241 250 250 220 241 221 233 241 237 263 245 226 258 264 251 275 211 242 216 236 259 244 217 234 261 237 241 222 244 242 250 243 247 239 259 248 228 225 257 246 257 228 275 214 265 244 239 241 261 270 272 243 221 257 246 287 266 289 293 247 247 276 263 275 259 259 226 270 313 258 263 269 280 287 246 264 240 268 266 302 284 318 291 307 302 311 303 296 342 323 314 358 349 314 332 368 335 428 397 388 390 429 464 441 438 480 489 479 492 521 545 544 574 568 582 640 647 645 656 630 620 674 658 677 718 663 701 703 742 673 677 681 667 680 658 656 671 605 612 623 651 591 579 657 589 528 587 578 527 589 554 546 542 488 572 516 513 514 522 462 433 452 463 460 419 445 446 430 403 384 428 388 349 373 336 354 371 348 335 353 314 327 324 289 331 274 337 310 310 287 296 290 297 309 322 335 286 274 299 312 295 284 317 305 301 287 277 282 304 290 287 306 297 308 317 307 295 306 299 321 280 344 326 307 304 336 325 314 336 380 349 341 355 365 339 353 359 349 375 385 362 372 386 377 393 391 436 387 430 432 422 454 420 457 446 429 456 441 443 434 423 418 461 453 442 411 432 465 430 427 448 460 418 472 406 426 399 399 375 406 395 430 399 458 419 407 385 410 432 407 377 367 372 394 376 377 390 348 392 353 366 395 310 365 331 344 357 316 341 368 375 331 371 355 337 352 341 334 380 300 314 312 348 348 293 338 330 366 347 340 343 322 346 310 348 313 329 294 312 311 294 306 310 313 329 319 286 277 325 283 299 299 313 308 282 283 286 291 281 290 299 241 305 281 303 284 285 292 248 271 261 267 233 302 273 274 259 238 245 238 238 288 248 275 268 249 246 260 266 228 263 262 230 248 224 258 248 237 267 229 231 216 248 244 260 264 247 240 266 242 246 265 248 262 242 236 237 250 249 225 272 245 274 251 260 242 268 233 287 266 245 244 248 267 258 265 241 269 276 213 245 289 262 264 247 279 276 246 244 233 249 257 263 244 260 275 224 256 246 223 220 259 220 248 240 258 215 251 227 250 286 245 263 251 242 239 241 240 239 270 244 232 242 222 241 211 256 264 242 273 239 248 244 247 251 259 258 232 229 247 225 249 243 239 241 257 261 269 218 241 238 260 276 263 217 286 232 270 237 270 247 211 271 207 247 240 217 249 246 244 249 249 238 281 269 262 246 296 274 246 256 258 283 244 258 230 272 238 242 273 243 234 227 260 243 283 281 278 276 269 263 287 280 311 258 276 307 245 267 273 277 260 301 259 264 264 299 242 272 273 276 276 285 290 305 281 269 295 279 251 273 291 291 263 241 279 237 291 272 268 268 269 275 248 260 256 257 250 257 291 269 238 240 263 266 291 240 243 226 224 266 248 272 277 236 235 297 240 232 241 280 288 268 219 269 274 248 271 215 246 241 247 266 224 242 244 236 219 263 265 211 261 240 260 272 243 285 256 250 234 268 244 222 223 224 201 227 211 230 237 232 258 245 220 268 238 232 236 218 228 272 228 283 249 287 240 245 267 262 259 241 225 228 240 237 248 263 266 232 282 248 239 236 234 272 270 290 250 264 281 212 272 228 275 272 287 247 248 267 278 274 266 237 277 265 273 258 269 297 256 248 250 260 305 276 263 280 274 288 301 286 303 312 323 297 283 287 315 342 324 299 361 305 359 352 340 362 330 356 332 362 359</counts>
			</dataPoints>
		</scan>
	</xrdMeasurement>
</xrdMeasurements>
