<?xml version="1.0"?>
<xrdMeasurements xmlns="http://www.xrdml.com/XRDMeasurement/2.3" xmlns:xsi="http://www.w3.org/2001/XMLSchema-instance" xsi:schemaLocation="http://www.xrdml.com/XRDMeasurement/2.3 http://www.xrdml.com/XRDMeasurement/2.3/XRDMeasurement.xsd" status="Completed" recordIdentifier="{812C78CC-C66F-4C49-AD60-2B982DFD4AA0}">
	<comment>
		<entry/>
	</comment>
	<sample type="To be analyzed">
		<id>GPSS_Li1p4Fe0p7Mn0p1Nb0p2Cl4_110325_69093a3ff040177efa2b52db</id>
		<name></name>
		<preparedBy></preparedBy>
	</sample>
	<xrdMeasurement measurementType="Scan" status="Completed" sampleMode="Reflection">
		<usedWavelength intended="K-Alpha 1">
			<kAlpha1 unit="Angstrom">1.5405980</kAlpha1>
			<kAlpha2 unit="Angstrom">1.5444260</kAlpha2>
			<kBeta unit="Angstrom">1.3922500</kBeta>
			<ratioKAlpha2KAlpha1>0.5000</ratioKAlpha2KAlpha1>
		</usedWavelength>
		<incidentBeamPath>
			<radius unit="mm">145.00</radius>
			<xRayTube id="1010048" name="Empyrean Cu LFF HR (9430 033 7310x)">
				<tension unit="kV">40.0</tension>
				<current unit="mA">15.0</current>
				<anodeMaterial>Cu</anodeMaterial>
				<focus type="Line">
					<length unit="mm">12.0</length>
					<width unit="mm">0.4</width>
					<takeOffAngle unit="deg">6.0</takeOffAngle>
				</focus>
			</xRayTube>
			<sollerSlit id="21010002" name="Soller slits 0.04 rad.">
				<opening unit="rad">0.0400</opening>
			</sollerSlit>
			<mask id="22031000" name="Fixed mask 13 mm">
				<width unit="mm">9.00</width>
			</mask>
			<divergenceSlit id="22120001" name="Divergence slit 1°" xsi:type="fixedDivergenceSlitType">
				<distanceToSample unit="mm">50.00</distanceToSample>
				<height unit="mm">1.52</height>
			</divergenceSlit>
		</incidentBeamPath>
		<sampleMovement xsi:type="spinningSampleMovementType">
			<spinnerRevolutionTime unit="seconds">1.0</spinnerRevolutionTime>
		</sampleMovement>
		<diffractedBeamPath>
			<radius unit="mm">145.00</radius>
			<antiScatterSlit id="22090040" name="AS slit 9 mm (PIXcel)" xsi:type="fixedAntiScatterSlitType">
				<height unit="mm">9.00</height>
			</antiScatterSlit>
			<sollerSlit id="21020003" name="Large Soller slits 0.04 rad.">
				<opening unit="rad">0.0400</opening>
			</sollerSlit>
			<filter id="20030001" name="Large beta-filter Nickel">
				<material>Ni</material>
				<thickness unit="mm">0.020</thickness>
			</filter>
			<detector id="7010019" name="PIXcel1D-Medipix3 detector" xsi:type="rtmsDetectorType">
				<phd unit="keV">
					<lowerLevel>4.02</lowerLevel>
					<upperLevel>11.27</upperLevel>
				</phd>
				<mode>Scanning</mode>
				<activeLength unit="deg">5.542</activeLength>
			</detector>
		</diffractedBeamPath>
		<scan appendNumber="0" mode="Continuous" scanAxis="Gonio" status="Completed">
			<header>
				<startTimeStamp>2025-11-05T12:35:46-08:00</startTimeStamp>
				<endTimeStamp>2025-11-05T12:43:53-08:00</endTimeStamp>
				<author>
					<name>AutomatedUser</name>
				</author>
				<source>
					<applicationSoftware version="1.7b (136)">PANalytical Aeris Instrument Suite</applicationSoftware>
					<instrumentControlSoftware version="3.2.00000000 20240306">AERIS</instrumentControlSoftware>
					<instrumentID>950485</instrumentID>
				</source>
			</header>
			<dataPoints>
				<positions axis="2Theta" unit="deg">
					<startPosition>10.00943322</startPosition>
					<endPosition>99.99442286</endPosition>
				</positions>
				<positions axis="Omega" unit="deg">
					<startPosition>5.00471661</startPosition>
					<endPosition>49.99721143</endPosition>
				</positions>
				<commonCountingTime unit="seconds">12.495</commonCountingTime>
				<counts unit="counts">3028 3071 3011 3084 3098 3066 2969 3036 3082 2970 3068 3038 3023 2968 3006 3064 3042 3142 3076 2965 3141 3154 3089 3037 3030 3102 2941 3056 3030 3070 3133 3064 3131 3175 3052 2967 3046 3113 3043 3133 3207 3078 3037 3040 3070 3165 3033 3123 3137 3087 3144 3106 3057 3205 2995 3221 3152 3106 3102 3132 3139 3122 3117 3203 3164 3202 3227 3152 3202 3115 3227 3272 3195 3187 3139 3204 3180 3190 3237 3222 3308 3269 3114 3248 3325 3220 3256 3236 3198 3251 3244 3274 3179 3231 3210 3237 3401 3275 3239 3339 3346 3238 3263 3177 3375 3355 3358 3201 3284 3220 3376 3266 3312 3321 3131 3197 3293 3251 3173 3187 3300 3272 3195 3345 3237 3217 3152 3289 3190 3217 3187 3166 3295 3346 3153 3210 3190 3234 3227 3193 3269 3216 3183 3227 3276 3218 3220 3036 3156 3198 3271 3198 3180 3150 3168 3183 3245 3203 3171 3144 3158 3122 3191 3151 3243 3191 3205 3126 3172 3132 3180 3275 3348 3141 3209 3140 3236 3177 3272 3200 3186 3234 3127 3231 3248 3213 3164 3201 3165 3166 3095 3152 3190 3181 3215 3105 3186 3153 3244 3232 3239 3108 3179 3219 3127 3209 3129 3192 3202 3113 3215 3174 3120 3243 3063 3100 3158 3125 3138 3060 3061 3061 3195 3141 3041 3100 3021 3081 3143 3080 3227 3078 3073 3285 3017 3147 3142 3095 3145 3133 3113 3159 3191 3234 3087 3224 3164 3145 3022 3105 3164 3049 3160 3161 3122 3148 3129 3196 3099 3081 3102 3161 3158 3140 3214 3126 3124 3100 3175 3279 3127 3056 3000 3225 3070 3148 3173 3107 3120 3144 3049 3092 3121 3075 3087 3172 3049 3152 3211 3164 2983 3231 3100 3249 3123 3211 3174 3137 3161 3042 3225 3143 3223 3193 3202 3219 3176 3167 3262 3259 3143 3256 3167 3210 3191 3177 3202 3241 3190 3225 3237 3313 3336 3247 3177 3323 3215 3291 3224 3300 3211 3222 3411 3340 3191 3322 3270 3293 3294 3208 3354 3283 3273 3379 3415 3314 3326 3321 3463 3319 3384 3331 3334 3422 3369 3322 3440 3384 3423 3380 3396 3546 3442 3462 3408 3511 3480 3555 3591 3528 3478 3328 3457 3612 3558 3451 3480 3513 3462 3523 3613 3559 3603 3507 3576 3595 3726 3730 3678 3544 3713 3652 3488 3553 3612 3589 3537 3641 3685 3615 3560 3737 3753 3665 3725 3790 3680 3722 3782 3708 3741 3891 3795 3869 3894 3811 3974 3951 3964 3917 4074 4108 4243 4237 4300 4318 4255 4360 4390 4493 4483 4490 4427 4418 4416 4344 4320 4203 4198 4258 4217 4116 4221 4068 4084 4132 4167 4279 4186 4216 4168 4247 4177 4508 4384 4459 4524 4532 4571 4668 4677 4616 4759 4662 4727 4745 4544 4664 4369 4406 4206 4348 4386 4042 4098 4048 4036 4019 4024 3914 3967 3817 3888 3965 3759 3851 3938 3761 3736 3901 3852 3924 3741 3854 3755 3801 3755 3723 3858 3804 3659 3762 3724 3593 3714 3702 3671 3652 3647 3596 3604 3545 3501 3538 3594 3497 3487 3517 3542 3525 3461 3441 3465 3502 3390 3387 3586 3449 3625 3414 3408 3450 3428 3447 3361 3339 3471 3291 3371 3339 3385 3322 3509 3448 3316 3368 3234 3268 3447 3367 3161 3337 3346 3421 3287 3272 3248 3265 3275 3273 3323 3246 3287 3286 3290 3283 3282 3189 3216 3331 3293 3278 3193 3209 3249 3250 3247 3189 3263 3288 3160 3109 3201 3191 3233 3196 3206 3174 3210 3187 3268 3263 3181 3237 3154 3190 3189 3112 3191 3167 3148 3169 3105 3140 3160 3164 3151 3145 3117 3116 3183 3089 3211 3128 3055 3160 3044 3182 3256 3178 3192 3201 3256 3115 3090 3149 3069 3145 3148 3137 3121 3068 3049 3117 3098 3117 3147 3126 3127 3132 3087 3021 3065 3176 3216 3070 3120 3170 3052 3061 3123 3109 3196 3081 3177 3050 3083 3107 3105 3193 3261 3013 3122 3139 3179 3203 3058 3149 3159 3113 3144 3075 3123 3101 3040 3055 3104 3108 3100 3041 3070 3088 3010 3080 3095 3022 3098 3069 3095 2934 3042 2966 3106 3041 3058 3017 3146 3036 3047 3195 3048 3063 3082 2951 3073 3054 3092 3059 2952 3019 3043 2956 3012 2995 3099 3003 3051 2958 3063 3094 3050 3072 3015 3005 3007 3117 3068 3042 3020 3055 2897 3062 3038 2930 3001 3004 2964 3114 2950 3057 2979 3066 2897 2942 2982 3099 2962 3008 3039 2962 2990 2886 2974 3084 2921 2968 3106 2917 3017 3007 3000 2997 3139 2921 3083 2989 2975 3040 2972 3105 2998 2951 2911 2974 3026 3007 2932 2942 2956 2972 2911 3032 3028 3063 2986 3035 2964 2998 3012 2960 3000 2969 2889 3027 3032 3031 2942 2946 3079 3028 3027 3038 2983 2937 3016 2962 2985 2951 2998 2974 2988 3040 2916 2928 2870 2994 2979 3002 3053 2810 2935 2984 2954 2982 2833 3022 2795 2893 3041 2901 2958 2983 2896 2917 3027 2939 2912 2969 2969 2963 2941 2900 2942 2950 2866 2904 3019 2920 3007 2907 2845 2838 2934 2895 2929 2896 2866 3050 2872 3021 2966 2923 2775 2934 2882 2917 2901 2795 2947 2891 2868 2860 2819 2909 2838 2972 2840 3021 2887 2889 2821 2837 2819 2982 2839 2893 2963 2831 2837 2851 2854 2992 2771 2812 2823 2833 2851 2877 2791 2818 2822 2799 2904 2825 2730 2876 2842 2808 2818 2797 2931 2789 2715 2799 2800 2740 2811 2776 2925 2813 2892 2865 2852 2826 2876 2746 2806 2855 2844 2796 2811 2796 2790 2805 2761 2914 2775 2817 2836 2789 2880 2792 2820 2862 2835 2766 2858 2809 2658 2817 2811 2714 2748 2783 2744 2751 2716 2868 2760 2778 2820 2824 2739 2837 2747 2762 2691 2786 2696 2721 2788 2752 2811 2891 2790 2796 2693 2771 2834 2750 2761 2758 2766 2758 2872 2788 2794 2746 2751 2704 2825 2801 2695 2708 2774 2734 2737 2747 2764 2752 2680 2737 2722 2743 2762 2826 2714 2798 2736 2696 2774 2746 2739 2695 2849 2816 2797 2764 2719 2854 2688 2806 2815 2767 2744 2775 2688 2816 2767 2731 2815 2657 2790 2674 2768 2777 2845 2773 2719 2720 2750 2849 2756 2723 2777 2767 2800 2827 2868 2709 2837 2815 2730 2823 2824 2983 2846 2768 2856 2848 2749 2789 2768 2827 2805 2782 2830 2820 2765 2825 2781 2771 2764 2779 2917 2828 2793 2873 2824 2779 2740 2825 2839 2807 2832 2811 2833 2740 2827 2782 2739 2806 2757 2784 2819 2812 2848 2725 2659 2873 2915 2887 2787 2762 2817 2714 2765 2828 2804 2799 2801 2622 2678 2820 2750 2899 2807 2834 2747 2781 2787 2863 2758 2816 2834 2762 2806 2628 2795 2678 2772 2758 2788 2746 2758 2657 2734 2634 2852 2734 2638 2791 2771 2689 2733 2797 2762 2662 2739 2854 2818 2785 2697 2640 2643 2652 2741 2600 2743 2703 2679 2660 2764 2692 2659 2575 2638 2573 2706 2659 2639 2707 2747 2558 2705 2700 2630 2550 2600 2657 2640 2656 2529 2687 2614 2534 2538 2595 2688 2574 2523 2526 2604 2598 2574 2580 2571 2586 2548 2582 2539 2504 2583 2563 2458 2556 2521 2551 2459 2419 2526 2545 2491 2525 2500 2483 2472 2469 2557 2509 2586 2561 2498 2539 2470 2486 2410 2504 2477 2453 2428 2393 2383 2536 2515 2412 2372 2445 2430 2420 2349 2362 2442 2402 2488 2369 2387 2406 2329 2372 2344 2344 2365 2419 2230 2390 2399 2335 2298 2333 2367 2342 2317 2348 2275 2343 2373 2351 2322 2172 2231 2267 2342 2280 2296 2394 2315 2256 2291 2294 2264 2227 2321 2309 2372 2393 2247 2287 2308 2246 2281 2285 2315 2373 2258 2316 2195 2337 2229 2334 2288 2225 2253 2412 2305 2266 2299 2247 2293 2205 2315 2272 2278 2185 2315 2222 2317 2226 2309 2179 2287 2284 2235 2215 2203 2199 2129 2209 2260 2262 2165 2269 2239 2204 2218 2136 2128 2141 2190 2243 2286 2222 2275 2249 2153 2121 2221 2137 2166 2128 2202 2146 2248 2200 2105 2305 2240 2149 2094 2166 2093 2223 2177 2055 2244 2129 2096 2211 2179 2103 2188 2132 2143 2222 2185 2151 2150 2205 2225 2169 2135 2174 2179 2227 2237 2197 2181 2202 2128 2179 2191 2141 2091 2191 2108 2110 2089 2158 2099 2157 2155 2177 2152 2125 2184 2149 2266 2253 2184 2208 2149 2185 2233 2163 2193 2263 2345 2125 2124 2167 2121 2172 2117 2226 2139 2090 2208 2231 2140 2223 2243 2143 2200 2169 2213 2221 2195 2264 2177 2228 2163 2142 2154 2150 2242 2134 2210 2204 2183 2181 2200 2140 2385 2201 2141 2316 2191 2176 2154 2257 2221 2210 2163 2192 2230 2229 2241 2226 2241 2139 2267 2142 2179 2190 2233 2263 2257 2209 2258 2197 2236 2191 2219 2250 2164 2162 2178 2253 2232 2194 2130 2212 2192 2162 2216 2276 2160 2207 2155 2224 2205 2204 2152 2215 2080 2268 2221 2161 2166 2184 2236 2239 2163 2228 2137 2116 2180 2186 2247 2154 2152 2141 2193 2148 2229 2118 2195 2183 2179 2221 2156 2221 2121 2098 2119 2156 2160 2164 2184 2136 2145 2174 2137 2112 2222 2169 2175 2144 2134 2152 2109 2147 2138 2073 2151 2181 2144 2093 2084 2134 2145 2109 2117 2153 2055 2068 2049 2066 2087 2057 2071 2071 2056 2123 2097 2009 2120 2041 2028 2042 2032 1990 2005 2033 2011 2054 1964 1993 2088 2035 2127 2071 2029 2094 1913 1939 1975 1995 2071 1970 1957 1954 1975 2014 1976 1975 1983 1974 2001 1929 2004 1929 1928 1949 1998 1906 2012 2002 2008 1954 1993 1928 1963 1979 2027 2005 1895 1967 1861 1940 2016 1907 1967 1971 1947 1953 1911 1941 1950 1894 1952 1951 1955 1845 1902 1917 1954 1952 1907 1947 2027 1830 1938 1917 1927 1908 1899 1974 1888 1958 1786 1898 1958 1913 2031 1934 2004 1851 1968 1895 1889 1897 1946 1929 2071 2041 2050 2046 2089 2084 2138 2183 2258 2213 2182 2340 2377 2282 2372 2379 2358 2298 2411 2447 2361 2379 2335 2242 2273 2263 2225 2148 2211 2200 2109 2024 2154 2021 2098 2021 2093 1992 2038 2035 2125 2092 2078 2097 2085 2072 2045 2131 1939 2039 2080 2108 1989 1993 2022 2087 1954 1938 1906 1963 2044 1957 2020 1975 2073 1918 1948 1927 1895 1980 1929 1890 1836 1898 1927 1837 1844 1881 1799 1822 1844 1870 1822 1847 1843 1782 1842 1818 1716 1752 1769 1763 1847 1750 1752 1786 1780 1845 1786 1768 1777 1822 1732 1885 1792 1794 1791 1786 1767 1835 1786 1758 1790 1759 1756 1865 1938 1822 1939 1953 2018 1998 2087 2105 2112 2224 2226 2294 2444 2451 2596 2503 2700 2708 2806 2741 2771 2757 2857 2779 2832 2844 2827 2750 2541 2645 2604 2465 2357 2460 2455 2477 2374 2439 2405 2382 2395 2352 2455 2444 2528 2480 2607 2533 2615 2593 2568 2566 2570 2589 2466 2405 2457 2428 2303 2305 2163 2135 2147 2021 2045 2021 2059 1988 2013 1872 1876 1838 1867 1831 1882 1839 1891 1825 1728 1793 1820 1824 1762 1764 1751 1733 1749 1692 1754 1685 1751 1734 1733 1696 1691 1721 1665 1589 1736 1638 1559 1675 1586 1611 1637 1660 1576 1638 1553 1579 1603 1615 1639 1629 1651 1565 1663 1675 1633 1584 1513 1591 1554 1621 1569 1596 1534 1600 1571 1579 1520 1619 1676 1657 1609 1639 1596 1529 1618 1553 1513 1624 1704 1637 1587 1634 1556 1529 1567 1601 1521 1564 1543 1570 1588 1569 1647 1494 1599 1594 1561 1628 1506 1593 1537 1553 1559 1631 1514 1541 1514 1516 1505 1590 1600 1553 1544 1517 1571 1475 1563 1560 1542 1465 1483 1545 1574 1591 1517 1588 1679 1603 1568 1550 1516 1524 1523 1537 1478 1478 1511 1463 1549 1513 1594 1525 1553 1622 1543 1576 1550 1515 1583 1555 1519 1588 1494 1528 1513 1551 1569 1516 1541 1462 1517 1510 1578 1534 1504 1554 1532 1535 1482 1542 1523 1529 1465 1521 1499 1506 1509 1498 1578 1535 1508 1579 1458 1531 1579 1562 1542 1470 1540 1507 1611 1576 1542 1522 1524 1505 1515 1611 1460 1641 1514 1500 1516 1533 1454 1564 1556 1508 1558 1558 1523 1519 1542 1577 1636 1478 1545 1600 1594 1564 1596 1572 1597 1620 1569 1558 1594 1538 1575 1570 1563 1612 1581 1658 1627 1664 1659 1611 1598 1591 1546 1584 1587 1516 1567 1534 1596 1618 1611 1563 1611 1616 1503 1541 1512 1545 1549 1559 1612 1598 1493 1555 1487 1492 1518 1588 1485 1559 1537 1569 1545 1504 1503 1507 1565 1596 1583 1610 1567 1504 1514 1516 1566 1555 1539 1584 1544 1555 1516 1545 1535 1564 1564 1525 1475 1570 1615 1500 1499 1426 1592 1485 1596 1543 1472 1536 1521 1590 1479 1478 1507 1508 1539 1551 1488 1533 1561 1572 1556 1590 1514 1481 1477 1594 1518 1535 1583 1516 1556 1562 1520 1567 1525 1561 1550 1568 1477 1591 1551 1489 1499 1575 1549 1539 1619 1566 1476 1565 1556 1531 1545 1610 1617 1648 1503 1597 1619 1591 1629 1611 1667 1649 1673 1669 1631 1704 1739 1791 1866 1805 1967 2026 2030 2049 2189 2265 2315 2489 2606 2728 2813 3033 3180 3374 3650 3819 3870 4149 4200 4298 4309 4342 4388 4617 4478 4463 4420 4342 4233 4165 4059 3892 3702 3645 3575 3586 3385 3255 3289 3227 3169 3218 3168 3116 3204 3154 3210 3238 3116 3295 3244 3309 3177 3181 3231 3167 3060 3057 3084 2904 2865 2806 2633 2517 2515 2523 2413 2372 2221 2204 2141 2056 2031 1977 2047 2000 1985 1865 1876 1927 1902 1869 1896 1902 1932 1974 1922 1952 1873 1902 1900 1965 1942 1867 1912 1808 1817 1769 1695 1746 1755 1750 1740 1776 1687 1623 1644 1648 1569 1627 1574 1492 1595 1608 1515 1561 1533 1650 1565 1625 1515 1513 1491 1555 1489 1531 1496 1534 1534 1514 1482 1431 1476 1484 1449 1438 1460 1500 1447 1433 1427 1461 1477 1485 1433 1384 1473 1520 1389 1412 1472 1436 1498 1512 1477 1446 1450 1425 1426 1405 1490 1491 1461 1421 1403 1449 1474 1458 1411 1398 1449 1444 1506 1462 1494 1459 1435 1397 1390 1392 1469 1392 1409 1455 1379 1404 1423 1405 1508 1388 1465 1455 1452 1419 1425 1378 1489 1438 1388 1445 1501 1465 1417 1434 1418 1360 1368 1386 1388 1394 1442 1541 1433 1440 1378 1411 1448 1447 1457 1389 1489 1410 1394 1455 1414 1394 1410 1441 1431 1440 1371 1401 1507 1409 1394 1412 1421 1452 1442 1397 1414 1449 1405 1366 1423 1409 1407 1395 1389 1372 1411 1350 1376 1404 1423 1383 1386 1404 1323 1315 1438 1439 1360 1419 1448 1416 1450 1404 1371 1473 1414 1501 1452 1368 1359 1385 1432 1448 1329 1372 1429 1443 1376 1445 1421 1408 1379 1373 1428 1355 1391 1370 1447 1390 1407 1356 1404 1385 1435 1343 1381 1415 1388 1477 1377 1390 1382 1315 1335 1456 1407 1409 1398 1442 1395 1366 1427 1441 1436 1432 1448 1481 1461 1434 1431 1426 1428 1383 1369 1412 1458 1348 1381 1363 1331 1420 1395 1402 1357 1354 1358 1403 1441 1417 1398 1418 1386 1409 1411 1409 1391 1390 1398 1347 1313 1319 1322 1426 1381 1383 1374 1292 1320 1389 1387 1285 1369 1436 1369 1428 1329 1262 1358 1357 1381 1346 1369 1375 1389 1344 1368 1372 1369 1381 1366 1404 1346 1373 1330 1374 1370 1331 1365 1410 1351 1375 1354 1288 1400 1381 1368 1429 1465 1296 1340 1372 1312 1417 1327 1401 1355 1350 1359 1345 1345 1399 1406 1427 1366 1365 1415 1368 1420 1333 1332 1266 1372 1306 1339 1281 1323 1312 1399 1397 1319 1315 1348 1386 1398 1400 1261 1375 1302 1296 1354 1335 1286 1392 1359 1389 1375 1374 1292 1296 1396 1319 1324 1361 1372 1379 1309 1329 1309 1310 1355 1377 1277 1400 1320 1359 1273 1370 1316 1316 1292 1374 1373 1359 1293 1353 1378 1301 1358 1349 1304 1297 1279 1352 1359 1327 1296 1313 1333 1310 1308 1324 1358 1270 1304 1342 1326 1375 1346 1336 1320 1318 1313 1299 1299 1316 1280 1327 1354 1274 1292 1315 1353 1323 1321 1282 1268 1317 1310 1339 1278 1281 1358 1364 1387 1346 1345 1399 1335 1302 1289 1358 1336 1318 1362 1313 1342 1288 1309 1252 1299 1289 1369 1276 1271 1342 1319 1328 1366 1365 1300 1371 1312 1317 1343 1307 1343 1349 1318 1347 1292 1272 1310 1282 1256 1281 1301 1345 1330 1326 1299 1295 1341 1326 1321 1340 1294 1295 1350 1360 1268 1316 1325 1343 1364 1354 1326 1230 1338 1331 1351 1297 1276 1273 1321 1338 1264 1362 1404 1320 1334 1355 1270 1303 1319 1286 1220 1365 1310 1284 1266 1309 1310 1303 1392 1274 1284 1338 1258 1361 1293 1298 1258 1314 1297 1289 1357 1301 1295 1254 1283 1304 1325 1285 1313 1266 1337 1241 1297 1275 1281 1311 1309 1330 1353 1259 1288 1304 1327 1271 1342 1292 1331 1309 1300 1276 1374 1287 1310 1336 1269 1276 1259 1267 1330 1257 1339 1280 1270 1313 1264 1323 1342 1324 1279 1334 1283 1258 1277 1327 1285 1326 1300 1309 1263 1277 1323 1346 1301 1269 1309 1290 1269 1266 1218 1298 1297 1393 1247 1369 1339 1294 1329 1303 1344 1289 1324 1287 1319 1299 1304 1372 1352 1272 1326 1348 1259 1266 1288 1256 1401 1268 1315 1285 1272 1246 1312 1212 1280 1270 1250 1330 1326 1279 1267 1305 1286 1241 1374 1357 1253 1228 1220 1263 1311 1286 1322 1303 1241 1285 1259 1311 1307 1333 1344 1337 1268 1369 1350 1248 1286 1291 1275 1342 1297 1314 1278 1247 1349 1261 1343 1305 1306 1273 1342 1270 1397 1273 1294 1297 1283 1320 1372 1251 1278 1329 1310 1231 1316 1319 1292 1292 1328 1332 1304 1277 1236 1304 1275 1311 1254 1324 1280 1291 1277 1336 1298 1233 1284 1280 1303 1343 1275 1328 1222 1233 1267 1299 1325 1252 1236 1255 1324 1337 1264 1316 1295 1289 1357 1264 1326 1277 1284 1334 1315 1276 1307 1283 1279 1290 1267 1246 1304 1348 1262 1325 1258 1256 1281 1281 1300 1304 1247 1234 1257 1292 1250 1251 1272 1242 1304 1338 1296 1323 1317 1258 1281 1321 1309 1304 1240 1303 1253 1273 1324 1243 1275 1270 1290 1299 1304 1305 1317 1274 1235 1327 1277 1274 1305 1323 1297 1288 1316 1312 1311 1272 1254 1263 1349 1328 1244 1317 1270 1343 1331 1373 1283 1303 1292 1293 1258 1311 1250 1284 1271 1329 1310 1339 1309 1254 1318 1293 1272 1279 1363 1261 1194 1260 1303 1212 1245 1276 1281 1326 1274 1270 1244 1199 1324 1294 1332 1290 1249 1317 1305 1249 1313 1256 1322 1282 1272 1308 1285 1314 1224 1271 1281 1296 1250 1251 1315 1326 1289 1255 1267 1331 1292 1357 1242 1317 1314 1264 1278 1267 1326 1341 1225 1286 1341 1226 1271 1262 1335 1299 1313 1299 1354 1294 1265 1342 1351 1312 1346 1424 1366 1362 1401 1341 1396 1412 1484 1426 1472 1477 1511 1557 1548 1606 1638 1607 1637 1683 1592 1542 1612 1640 1658 1613 1590 1530 1578 1584 1577 1570 1437 1516 1506 1525 1472 1392 1435 1471 1494 1416 1429 1456 1421 1400 1351 1424 1390 1389 1428 1423 1338 1368 1445 1312 1310 1348 1340 1315 1335 1374 1346 1432 1357 1286 1315 1284 1367 1308 1390 1306 1289 1356 1266 1274 1316 1267 1293 1284 1285 1259 1296 1338 1300 1279 1333 1224 1269 1293 1288 1335 1292 1249 1278 1193 1275 1241 1253 1272 1254 1233 1262 1262 1279 1265 1278 1262 1267 1270 1307 1281 1280 1256 1324 1310 1308 1314 1285 1359 1275 1262 1307 1251 1238 1345 1252 1332 1309 1259 1324 1286 1254 1317 1226 1256 1294 1326 1252 1299 1258 1275 1249 1197 1287 1235 1236 1272 1205 1280 1206 1243 1265 1303 1255 1260 1242 1282 1281 1214 1292 1216 1232 1263 1271 1302 1281 1299 1236 1239 1273 1258 1216 1272 1214 1282 1315 1309 1249 1226 1296 1269 1307 1240 1252 1340 1247 1212 1252 1204 1248 1217 1295 1227 1244 1241 1204 1236 1322 1285 1318 1225 1244 1237 1250 1209 1209 1245 1190 1253 1263 1291 1156 1294 1226 1286 1231 1170 1204 1204 1246 1263 1285 1240 1174 1233 1222 1229 1281 1236 1233 1263 1230 1214 1218 1259 1243 1245 1263 1197 1227 1163 1271 1263 1237 1250 1255 1226 1259 1214 1333 1281 1220 1298 1248 1212 1259 1281 1261 1221 1207 1270 1270 1231 1177 1257 1255 1285 1271 1273 1243 1294 1194 1276 1286 1314 1227 1233 1243 1291 1312 1193 1204 1266 1219 1323 1246 1242 1228 1262 1202 1266 1225 1255 1175 1241 1237 1215 1245 1312 1213 1253 1245 1278 1295 1235 1251 1227 1251 1255 1250 1225 1219 1304 1361 1287 1288 1201 1247 1205 1244 1229 1341 1250 1263 1253 1194 1299 1213 1219 1290 1214 1298 1210 1196 1344 1247 1256 1312 1244 1275 1266 1211 1318 1271 1288 1286 1217 1343 1206 1282 1243 1263 1288 1222 1257 1323 1196 1315 1243 1303 1214 1247 1302 1319 1252 1313 1286 1315 1283 1223 1329 1289 1232 1334 1298 1346 1384 1279 1332 1316 1430 1361 1394 1433 1418 1474 1416 1479 1494 1499 1519 1512 1567 1665 1658 1764 1763 1853 1907 1984 2031 2144 2230 2278 2428 2580 2649 2642 2792 2693 2758 2754 2759 2731 2845 2806 2760 2762 2716 2791 2736 2736 2623 2551 2552 2500 2390 2309 2262 2267 2311 2204 2149 2066 2093 2027 2075 1944 2013 1980 1854 1911 1809 1885 1834 1879 1867 1806 1856 1896 1792 1786 1772 1759 1766 1827 1799 1736 1796 1680 1673 1689 1589 1622 1605 1612 1618 1550 1522 1584 1564 1579 1555 1433 1484 1471 1417 1479 1487 1416 1459 1344 1367 1365 1362 1342 1354 1335 1390 1334 1328 1352 1300 1355 1327 1316 1369 1342 1429 1334 1356 1290 1367 1404 1408 1325 1344 1352 1287 1272 1325 1318 1279 1316 1281 1395 1338 1329 1392 1376 1398 1391 1324 1354 1330 1366 1349 1377 1359 1332 1370 1259 1357 1269 1325 1277 1312 1288 1381 1286 1245 1329 1336 1269 1266 1265 1252 1257 1290 1284 1276 1295 1215 1274 1247 1248 1320 1259 1202 1261 1276 1238 1206 1261 1146 1293 1254 1300 1199 1229 1278 1229 1257 1159 1237 1229 1227 1210 1209 1190 1327 1258 1276 1209 1203 1260 1266 1215 1211 1169 1209 1176 1264 1272 1217 1249 1264 1302 1213 1239 1216 1149 1218 1211 1251 1272 1243 1286 1201 1210 1214 1240 1221 1250 1202 1187 1212 1244 1240 1277 1251 1237 1328 1251 1230 1311 1326 1265 1365 1278 1380 1440 1363 1376 1430 1396 1405 1429 1454 1430 1365 1372 1413 1388 1358 1379 1331 1375 1351 1350 1367 1398 1313 1338 1349 1283 1395 1298 1280 1296 1272 1306 1286 1384 1274 1275 1220 1234 1262 1289 1312 1236 1234 1291 1268 1298 1261 1248 1287 1206 1257 1225 1288 1256 1220 1169 1233 1273 1275 1279 1279 1208 1244 1221 1240 1191 1214 1212 1247 1247 1254 1233 1171 1224 1230 1223 1187 1197 1185 1198 1188 1246 1257 1208 1199 1242 1189 1192 1203 1251 1203 1207 1196 1236 1194 1187 1231 1214 1206 1181 1211 1212 1178 1245 1233 1197 1262 1273 1294 1210 1193 1192 1205 1308 1184 1199 1238 1225 1288 1297 1217 1255 1192 1262 1231 1219 1207 1169 1178 1193 1223 1187 1095 1237 1197 1184 1201 1177 1188 1240 1186 1260 1235 1255 1164 1135 1177 1239 1232 1181 1208 1202 1201 1162 1167 1166 1187 1159 1184 1158 1174 1169 1095 1207 1178 1202 1150 1201 1157 1180 1184 1193 1167 1225 1227 1235 1205 1196 1192 1163 1136 1191 1204 1080 1201 1192 1110 1187 1153 1098 1150 1251 1182 1180 1175 1199 1093 1125 1179 1185 1135 1216 1218 1151 1177 1186 1092 1181 1204 1175 1165 1145 1177 1237 1117 1152 1174 1123 1148 1205 1179 1239 1238 1181 1157 1221 1220 1183 1172 1190 1284 1134 1231 1190 1211 1200 1157 1126 1187 1239 1198 1163 1095 1201 1203 1183 1198 1105 1159 1136 1139 1196 1131 1189 1158 1150 1127 1167 1120 1146 1199 1132 1164 1154 1154 1169 1155 1141 1172 1160 1117 1190 1128 1128 1185 1198 1141 1112 1201 1101 1158 1165 1118 1206 1142 1138 1146 1150 1223 1219 1165 1151 1185 1147 1195 1166 1144 1184 1199 1116 1123 1144 1164 1164 1163 1107 1137 1160 1168 1153 1144 1143 1162 1243 1108 1217 1217 1154 1175 1211 1170 1135 1120 1163 1102 1191 1174 1146 1134 1158 1150 1166 1144 1136 1183 1144 1175 1105 1166 1124 1182 1167 1151 1177 1199 1182 1136 1201 1252 1108 1164 1162 1138 1155 1186 1162 1155 1132 1192 1194 1155 1104 1156 1129 1119 1146 1192 1130 1179 1190 1114 1102 1180 1166 1144 1099 1195 1201 1065 1149 1117 1119 1141 1139 1178 1174 1146 1161 1163 1184 1276 1173 1157 1142 1165 1186 1171 1192 1164 1155 1202 1181 1211 1171 1132 1174 1121 1157 1195 1138 1182 1159 1119 1115 1191 1169 1122 1173 1151 1127 1131 1115 1194 1155 1122 1193 1108 1158 1122 1111 1215 1127 1161 1113 1070 1200 1189 1167 1166 1101 1123 1120 1127 1129 1206 1159 1221 1203 1183 1187 1160 1183 1193 1148 1195 1170 1149 1134 1144 1153 1141 1219 1187 1114 1184 1119 1152 1175 1180 1144 1157 1157 1179 1099 1155 1152 1097 1194 1119 1217 1207 1104 1138 1179 1197 1107 1150 1131 1056 1149 1132 1175 1115 1198 1106 1145 1166 1127 1174 1165 1164 1128 1156 1087 1137 1149 1133 1127 1154 1161 1120 1186 1100 1193 1130 1168 1164 1151 1162 1153 1225 1154 1089 1198 1149 1127 1080 1127 1120 1210 1106 1123 1125 1166 1117 1072 1167 1158 1146 1140 1180 1121 1167 1131 1130 1207 1184 1146 1083 1146 1182 1134 1203 1113 1165 1105 1165 1173 1103 1108 1179 1182 1180 1184 1211 1192 1156 1222 1163 1165 1180 1130 1158 1227 1142 1216 1194 1197 1171 1218 1143 1237 1181 1185 1172 1121 1182 1244 1175 1169 1225 1121 1151 1214 1137 1135 1158 1201 1181 1166 1159 1153 1239 1161 1145 1197 1148 1191 1153 1150 1153 1173 1183 1241 1177 1172 1207 1178 1185 1203 1171 1171 1190 1174 1198 1206 1194 1212 1265 1207 1265 1267 1282 1343 1255 1234 1319 1320 1284 1278 1306 1295 1297 1368 1313 1308 1296 1314 1316 1247 1300 1304 1266 1334 1303 1302 1316 1281 1276 1251 1289 1256 1248 1199 1210 1222 1197 1277 1196 1189 1228 1229 1252 1262 1227 1213 1197 1200 1199 1234 1218 1250 1237 1201 1216 1299 1237 1202 1248 1223 1232 1219 1183 1273 1242 1243 1244 1274 1263 1278 1267 1252 1242 1310 1282 1316 1247 1269 1287 1296 1230 1202 1261 1219 1229 1251 1195 1262 1153 1250 1265 1159 1155 1174 1186 1248 1167 1251 1149 1172 1151 1112 1143 1189 1183 1219 1091 1199 1192 1146 1195 1140 1148 1177 1144 1194 1141 1167 1192 1127 1198 1144 1155 1121 1193 1192 1119 1212 1117 1124 1135 1199 1147 1072 1153 1155 1103 1140 1105 1117 1084 1135 1147 1163 1165 1087 1113 1060 1135 1115 1140 1107 1144 1088 1154 1138 1091 1138 1169 1057 1088 1097 1099 1152 1123 1163 1132 1138 1123 1096 1130 1144 1115 1135 1121 1129 1134 1102 1107 1147 1168 1151 1114 1112 1149 1131 1112 1038 1121 1107 1059 1139 1175 1151 1171 1194 1116 1141 1092 1163 1142 1150 1165 1075 1088 1157 1214 1103 1152 1113 1122 1174 1159 1098 1182 1139 1165 1144 1187 1208 1110 1199 1082 1146 1109 1174 1172 1175 1151 1160 1124 1095 1146 1117 1187 1110 1141 1130 1171 1181 1154 1135 1097 1147 1170 1179 1156 1192 1177 1162 1167 1189 1161 1227 1235 1198 1182 1172 1202 1144 1223 1296 1232 1286 1289 1316 1246 1477 1374 1424 1348 1482 1389 1438 1399 1467 1528 1458 1490 1490 1441 1529 1549 1495 1604 1541 1558 1472 1498 1541 1447 1479 1434 1508 1427 1435 1391 1411 1319 1359 1367 1418 1336 1349 1276 1319 1335 1358 1386 1339 1281 1286 1292 1295 1268 1266 1220 1273 1253 1279 1293 1196 1193 1259 1192 1296 1191 1225 1185 1173 1175 1244 1171 1162 1144 1225 1255 1239 1198 1277 1220 1227 1243 1214 1217 1248 1199 1235 1158 1167 1182 1208 1179 1167 1118 1194 1229 1195 1176 1214 1158 1185 1095 1170 1181 1209 1196 1176 1155 1130 1162 1129 1127 1213 1154 1080 1163 1122 1082 1182 1111 1118 1108 1117 1177 1135 1198 1115 1115 1146 1135 1134 1153 1154 1082 1150 1180 1158 1142 1156 1133 1158 1163 1146 1122 1124 1121 1162 1098 1166 1148 1128 1118 1110 1179 1172 1119 1127 1137 1086 1212 1138 1129 1154 1118 1133 1193 1201 1140 1160 1200 1144 1183 1214 1151 1162 1165 1153 1198 1189 1229 1216 1194 1159 1187 1115 1155 1166 1137 1160 1192 1178 1190 1162 1179 1175 1198 1169 1175 1229 1211 1228 1229 1196 1218 1217 1198 1184 1173 1183 1250 1165 1191 1229 1207 1273 1167 1254 1174 1166 1196 1198 1167 1218 1225 1213 1173 1226 1249 1197 1198 1193 1165 1147 1173 1183 1237 1198 1146 1160 1200 1158 1212 1182 1178 1207 1144 1123 1121 1111 1190 1169 1156 1171 1122 1151 1182 1138 1111 1148 1157 1134 1130 1162 1089 1139 1085 1099 1143 1106 1157 1108 1127 1106 1144 1093 1088 1023 1142 1125 1122 1102 1107 1125 1128 1154 1070 1092 1098 1144 1125 1060 1060 1080 1083 1070 1064 1074 1094 1102 1084 1100 1150 1103 1046 1077 1125 1189 1076 1129 1074 1096 1114 1058 1084 1114 1118 1071 1101 1162 1158 1062 1099 1150 1069 1067 1105 1126 1075 1091 1030 1124 1136 1115 1105 1128 1119 1079 1044 1152 1102 1065 1086 1100 1105 1099 1042 1130 1101 1074 1056 1116 1168 1067 1075 1119 1109 1121 1173 1114 1132 1098 1106 1094 1110 1199 1202 1065 1134 1123 1135 1094 1128 1133 1057 1051 1159 1101 1070 1104 1154 1082 1114 1090 1113 1084 1099 1105 1119 1069 1101 1129 1045 1095 1061 1153 1082 1132 1087 1122 1092 1124 1121 1039 1120 1134 1087 1088 1110 1056 1056 1085 1137 1078 1056 1096 1108 1095 1031 1106 1111 1040 1144 1040 1111 1104 1134 1086 1099 1055 1113 1118 1060 1080 1043 1074 1132 1119 1127 1080 1095 1161 1079 1037 1100 1028 1094 1073 1120 1068 1113 1057 1102 1064 1093 1083 1065 1082 1076 1069 1038 1137 1080 1046 1142 1121 1097 1047 1072 1081 1100 1023 1053 1101 1141 1087 1109 1067 1086 1065 1107 1076 1097 1062 1126 1085 1070 1054 1065 1161 1059 1077 1054 1055 1010 1113 1065 1141 1080 1074 1065 1115 1026 1052 1065 1078 1064 1046 1140 1089 1089 1075 1111 1069 1058 1111 1090 1055 1070 1035 1065 1055 1055 1075 1101 1073 1005 1133 1124 1130 1073 1095 990 1109 1078 985 1114 1045 1172 1054 1114 1058 1051 1066 1154 1064 1087 1094 1100 1031 1110 1111 1100 996 1041 1053 1056 1088 1098 1051 1120 1141 1070 1051 1047 1059 1068 1070 1060 1112 1120 1117 1053 1051 1022 1095 1032 1090 1032 1080 1102 1061 1005 1096 1174 1059 1088 1104 1064 1055 1074 1006 1108 1098 1135 1134 1078 1094 1036 1065 1090 1018 973 1041 1062 1096 1037 1156 1110 1058 1104 1040 1072 1050 1051 1122 1058 1080 1035 1082 1040 1075 1077 1068 1093 1060 1088 1108 1166 1070 1071 1066 1113 1064 988 1075 1035 1089 1143 1064 1101 1161 1142 1085 1069 1072 1143 1066 1063 1089 1041 1032 1090 1056 988 1070 1087 1060 1040 1076 1073 1069 1049 1043 1105 1025 1083 1049 1099 1111 1092 1085 1075 1102 1082 1032 1082 1068 1045 1035 1114 1054 1063 1042 1075 1039 1087 1149 1114 1092 1051 1140 1098 1133 1070 1051 1112 1146 1116 1077 1081 1066 1106 1021 1052 1120 1130 1053 1160 1160 1169 1095 1130 1106 1216 1148 1128 1138 1065 1168 1159 1120 1082 1130 1125 1105 1088 1164 1092 1126 1136 1095 1123 1067 1137 1095 1130 1138 1114 1134 1136 1157 1100 1122 1093 1100 1151 1138 1083 1108 1167 1101 1081 1130 1119 1062 1071 1058 1051 1048 1014 1060 1115 1059 1091 1101 1043 1087 1053 1065 1061 1052 1034 1100 1050 1000 1069 1187 1128 1061 1070 1098 1120 1096 1049 1066 1050 1067 1040 1114 1076 1028 1109 1064 1065 1090 1085 1126 1034 1082 1101 1106 1072 1123 1017 1034 1052 1014 1060 1098 1061 1115 1091 990 1053 1034 1074 1069 1096 1055 1154 1051 1096 997 1093 1107 1095 1065 1087 1112 1070 1094 1103 1078 1099 989 1105 1042 1061 1060 1117 1064 1081 1054 1044 1087 1119 1035 1048 1072 1016 1032 1061 1051 1121 1108 1084 1089 1057 1064 1055 1045 1057 1030 1082 1011 1054 1055 1047 1075 1088 1137 1036 1052 1011 1070 1065 1058 1068 1031 1043 1102 1059 1121 1098 1063 1014 1080 1083 1034 1075 1084 1029 1062 1078 1071 1099 1097 1105 1075 1140 1096 1051 1070 1094 1018 1026 1057 1091 1074 1041 1115 1018 1056 1045 1110 1021 1093 1094 1089 1074 1022 1061 997 1071 1057 1076 1027 1054 981 1105 1105 1094 1115 1026 1064 1028 1110 1135 1015 1080 1058 1087 1117 1045 1108 1125 1038 1131 1049 1085 1090 1113 1072 1047 1069 1028 1068 1015 1076 1094 1016 1096 1041 1070 1149 1014 1094 1047 1100 1046 1113 1054 1051 1120 1157 1100 1055 1048 1082 1057 1116 1075 1080 1011 1113 1071 1026 1043 1057 1077 1056 1083 1068 1044 1054 1110 1097 1124 1038 1081 1063 1213 1047 1129 1108 1085 1064 1103 1130 1147 1128 1135 1119 1153 1167 1220 1160 1127 1167 1188 1179 1132 1117 1148 1162 1158 1162 1192 1169 1224 1160 1141 1258 1152 1150 1192 1173 1199 1109 1233 1144 1138 1176 1172 1227 1115 1173 1146 1135 1046 1145 1086 1125 1198 1109 1127 1176 1120 1107 1085 1137 1053 1120 1111 1111 1127 1089 1088 1124 1119 1104 1086 1088 1083 1097 1056 1041 1104 1089 1087 1036 1063 1082 1160 1052 1107 1100 1122 1122 1091 1089 1052 1026 1087 1060 1109 1108 1108 1068 1063 1051 1116 1118 1058 1118 1077 1152 1072 1129 1085 1044 1051 1089 1114 1136 1053 1052 1102 1038 1053 1089 1065 1058 1096 1075 1108 1080 1118 1103 1134 1052 1080 1066 1039 1088 1121 1053 1047 1083 1027 1091 1074 1063 1065 1031 1052 1041 1045 967 1010 993 1099 1064 1081 1075 1064 1046 1027 1053 1080 1090 1026 1021 1053 1064 1097 993 1066 1071 1008 1081 1074 1081 1051 1068 1034 1054 1077 1063 1069 1117 1106 1092 1039 1026 1089 1066 1092 1077 1050 1080 1104 1016 1055 1071 1114 1051 1015 1063 1077 1042 1081 1061 1087 1106 1053 1021 1088 1011 1037 1089 1019 1041 1088 1052 1047 1074 1022 1078 1048 1065 1085 1026 1011 1097 1099 1037 1035 1056 1057 1070 1044 1036 1020 1072 1067 1041 1072 1017 1034 1084 1054 1041 985 1051 1040 1018 1038 1066 1069 1063 1065 1025 1047 1025 1043 1060 1045 1092 1061 1024 1074 1050 1014 1040 1061 994 1022 1058 1019 1044 1055 1047 1070 983 1068 1054 1089 1080 1063 1052 1109 1006 1026 1077 1013 1084 1052 1028 1076 1090 1081 1020 1017 1040 1071 1059 1031 1026 1031 1086 1087 1125 1104 1075 1062 1120 1008 1039 1087 1019 1063 1059 1033 1010 1041 985 998 1037 1046 1053 991 1086 1033 1078 1062 1067 1065 1059 998 1045 1160 1065 1070 966 1053 1046 1095 1068 999 1048 1057 1044 1026 1109 1016 1025 1069 1045 1077 1048 1076 1033 953 1050 1027 1041 1001 1104 1093 1058 963 1024 1135 1027 1068 980 1026 1031 1090 1063 1047 1108 1016 1033 1027 1064 1049 1032 1056 1002 1084 1033 1071 1103 1010 1075 1082 1067 1006 989 1049 1078 1046 1064 1037 1059 1063 1047 998 1036 1056 1074 1061 1032 1094 1100 1072 1111 1080 1019 1081 1039 1067 1059 1072 1036 1113 1011 1028 1047 1014 1045 1010 1049 1043 1046 1132 1026 1064 1102 1049 1082 1059 1087 1051 1053 1005 1110 1066 1036 1037 1087 1040 1031 1087 986 1055 1028 1106 1055 1027 1057 1041 1139 1089 1126 1089 1007 1020 1082 1024 1060 1035 1033 1078 1016 997 1048 1012 1048 1046 1046 1024 1036 1082 1015 1049 1033 1071 1066 1076 968 1062 1010 1055 1075 1066 1038 1065 1014 1077 988 1034 1045 1053 1082 1068 1022 1016 1028 1084 1072 1041 1080 1060 1077 1048 1004 1076 1005 1070 1072 989 1037 1020 1074 1034 1080 1090 1072 1033 1064 1061 1030 1063 1066 1070 1012 1069 995 1001 1035 1093 1050 1015 1045 1059 1075 1064 1050 1073 988 1083 1060 1025 1044 1110 1068 1031 997 1029 1035 1058 1081 1061 1049 1179 1040 1092 1053 1083 1048 1025 1084 1078 1073 1012 1049 1038 1090 1023 1066 1021 1063 1053 1038 1062 1064 1024 1032 1035 1028 1057 1032 1042 957 1054 1027 1031 1031 1053 1071 1026 1069 1073 1073 1020 1027 1051 1107 1050 1111 1037 1086 1116 1037 1072 1039 1107 1034 1091 1105 997 1064 1046 1025 1066 1047 1046 1052 1081 1046 1034 1079 1062 1058 1059 1055 1029 1074 1070 1049 1030 1050 1078 1094 998 1085 1123 1033 1043 1053 1089 1067 1046 1077 1028 1099 1032 1080 1081 1070 1090 1056 1060 1106 1043 1046 1074 1039 1069 1073 1049 1090 1070 1087 1108 1059 1084 1045 1033 1048 1060 1096 1024 1088 1127 1062 1036 1070 1097 1155 1139 1046 1096 1079 1095 1106 1144 1121 1018 1157 1066 1072 1084 1079 1058 1090 1042 1084 1124 1068 1149 1113 1116 1077 1135 1096 1147 1100 1038 1119 1133 1157 1117 1028 1067 1116 1096 1117 1104 1060 1085 1013 1086 1060 1023 1069 1080 1058 1134 1084 1113 1059 1106 1070 1124 1128 1116 1117 1146 1063 1149 1101 1055 1086 1097 1056 1105 1119 1116 1031 1085 1180 1144 1063 1034 1081 1104 1027 1054 1024 1129 1051 1078 1060 1042 1101 1083 1081 1008 1072 1048 1078 1068 1075 1057 1109 1072 1068 1055 1059 1072 1057 1060 1055 1107 1100 1099 1084 1090 1049 1068 1073 1066 1074 1069 1107 1133 1112 1055 1041 1071 1017 1064 1075 1094 1067 1068 1059 1116 1047 1079 1030 1037 1125 1035 1115 1156 1059 1058 1091 1036 1095 1049 1121 1119 1034 1077 1070 1114 1077 1085 1093 1114 1044 1069 1107 1088 1071 1111 1061 1048 1106 1070 1055 1119 1049 1098 1076 1009 1069 1012 1104 1085 1114 1051 1004 1096 1074 1079 1038 1094 1018 1041 1085 1064 1032 1042 1018 1086 1042 1038 1052 1070 1080 1054 1114 1109 1080 1009 1011 1051 1107 1059 1053 1044 993 1069 1073 1080 1061 1067 1041 1095 1088 1020 1094 1090 1043 1031 1105 1103 1072 1029 1042 1050 1093 1125 1126 1079 1092 1082 1123 1061 1059 1062 1011 1124 1136 1034 1075 1079 1073 1085 1062 1133 1091 1155 1098 1151 1113 1134 1125 1074 1103 1037 1082 1074 1097 1112 1178 1174 1139 1162 1142 1092 1164 1170 1125 1153 1160 1201 1184 1190 1206 1172 1245 1191 1235 1255 1260 1302 1255 1257 1188 1214 1260 1233 1223 1223 1300 1284 1286 1299 1282 1326 1222 1273 1316 1299 1307 1280 1261 1243 1234 1286 1285 1258 1227 1355 1292 1248 1245 1246 1296 1196 1265 1250 1172 1219 1234 1258 1247 1195 1206 1155 1215 1149 1237 1164 1149 1112 1191 1157 1158 1169 1178 1119 1129 1050 1197 1100 1100 1078 1154 1185 1130 1124 1115 1130 1090 1132 1096 1149 1138 1042 1141 1111 1137 1099 1109 1045 1110 1082 1152 1147 1145 1061 1046 1088 1080 1104 1064 1059 1152 1174 1117 1156 1043 1131 1135 1048 1061 1081 1099 1087 1086 1056 1070 1050 1108 1098 1093 1009 1069 1118 1071 1175 1031 1087 1002 1127 1070 1088 1050 1079 1037 1136 1124 1065 1130 1060 1124 1128 1062 1045 1044 1074 1104 1088 1066 1031 1044 1059 1063 1073 1070 1070 1045 1052 1082 1094 1037 1028 1078 1047 993 1076 1051 1083 1096 1087 1035 1058 1056 1040 1108 1049 1087 1036 1091 1102 1078 1099 1091 1038 1104 1133 1079 1086 1125 1174 1062 1064 1140 1096 1053 1070 1078 1060 1113 1005 1043 1088 1102 1108 1054 1093 1123 1100 1090 1072 1082 1085 1089 1087 1134 1051 1049 1125 1067 1062 1100 1035 1067 1119 1052 1041 1061 1062 1078 1070 1090 1037 1075 1092 1024 1064 1065 1123 1052 1085 1036 1087 1085 1085 1072 1073 1119 1056 1057 1034 1081 1065 1102 1066 1096 1099 1129 1058 1063 1088 1056 1063 1109 1010 1072 1146 1052 993 1053 1032 1070 979 1072 1041 1083 1068 1051 1014 1002 937 993 1036 1014 1026 1116 1062 1060 1096 1033 991 992 1042 1041 1074 1072 993 1043 1014 1008 1057 1012 1076 1056 1082 1038 1079 973 1038 1083 1041 976 1068 1030 1044 1047 1064 1038 1042 1010 1084 990 1050 1046 1049 1077 1037 1014 1052 1034 1047 1023 1078 1036 1049 1003 1061 1077 1025 997 1051 980 995 1009 1072 1005 1040 1006 1030 1033 1033 1042 1110 1032 1074 1037 1007 1060 1014 1067 980 1036 1025 1025 1027 1027 1039 1013 1070 1034 1055 1006 1056 1012 976 1053 1074 1054 1041 1067 991 1074 1006 988 999 1030 1047 989 980 1054 1076 1071 1070 1053 972 1039 1053 1040 1048 976 1011 1005 988 1048 1021 1043 1024 989 1037 1052 997 1071 1045 1017 1003 1030 1105 1023 1045 1048 1019 978 1020 1006 1086 1025 1104 1102 1073 1057 1054 1057 968 1034 1011 1070 961 1015 1054 1031 1057 1049 1016 997 1035 1010 1089 1092 1078 995 1079 1001 1051 1072 1040 1048 1017 1012 1032 1078 1026 1023 1067 1042 1030 1061 979 1006 1003 1078 1012 1032 1024 977 1059 1017 1027 1029 1015 1041 1003 1050 1071 1059 1022 1110 974 1044 1019 985 1064 1038 975 1054 1049 1022 1025 989 1053 1053 1068 1028 1030 1005 981 1001 994 1005 1050 1050 946 970 965 1013 1000 936 1038 1023 1047 1039 1023 994 1008 1027 1023 1016 1018 1039 997 1047 963 1056 975 1001 1076 1003 1046 984 1115 1008 1040 997 1067 996 1046 985 1057 1012 1053 1068 985 994 986 1024 1005 997 1015 1109 1081 1052 1004 1047 1057 1070 1010 1017 1094 1024 996 1077 1060 1069 1026 1090 999 1031 1033 1043 961 1052 1044 983 991 1022 1004 976 1013 994 1004 1001 968 1033 1006 1096 1045 948 1026 1029 1087 1009 1066 1011 1086 1029 1009 1036 1041 1019 1083 1041 1033 1066 1030 1021 1013 1020 1024 1095 1029 989 1015 998 1076 1120 1052 1044 1081 1039 1041 1032 1012 1012 1019 1060 1065 1059 1048 1070 1049 987 1010 1003 994 1043 1000 1011 1073 1098 1071 1055 1044 1044 982 1110 1063 1019 1085 1021 1060 1024 1062 1073 1004 1072 1159 1036 1050 1052 1121 1021 1037 1141 1045 1099 1094 1070 1027 1047 1097 1071 973 1035 1040 1072 1054 1054 1005 1065 1024 1102 1064 1023 1066 1126 1064 976 1036 1070 1051 1101 1050 1065 996 1025 1070 1054 1039 1035 1041 1061 974 1079 1012 1083 982 1072 1058 1072 1015 992 970 1051 982 1061 973 1021 1041 1045 1042 1099 1088 1001 1030 1063 1036 1047 1082 1064 996 1003 945 981 1013 1093 979 1076 945 1092 988 1077 1045 978 1068 1030 1002 1050 1027 1013 1025 989 1043 985 1014 1032 1018 1026 993 1051 971 990 1008 1020 1030 1027 1037 1015 1034 1032 1020 1022 1021 1055 1035 1011 1025 1033 1003 1054 1000 1055 1026 1052 1036 1063 1024 1011 1053 1017 1049 1032 993 1057 999 1101 1052 1036 1017 1056 1041 1005 1065 1051 981 1007 1056 1042 1036 1058 1001 1005 1017 1059 985 1001 1015 1021 1067 1009 1021 1017 992 1000 993 1085 988 1009 974 1079 1048 1024 1034 1010 1086 1091 1011 984 1032 1042 1029 987 1044 1005 984 968 1006 1050 982 1016 970 993 974 987 1065 997 1046 991 1006 1050 1096 1004 1038 1038 1040 1014 1004 1001 967 1059 1038 1044 1017 1018 1062 1065 1050 1052 1060 1060 1059 998 1008 1008 1043 1020 1074 1054 1078 1046 1023 1082 1038 1013 1040 1013 1025 1068 1052 1054 1022 999 1024 1036 1025 1046 1013 1028 1044 1085 1099 1041 1071 1059 1102 1068 1155 1081 1109 1075 1171 1076 1097 1086 1102 1113 1083 1198 1127 1165 1207 1123 1160 1129 1171 1169 1126 1178 1131 1239 1162 1214 1209 1220 1094 1234 1169 1180 1168 1231 1210 1215 1157 1209 1204 1158 1183 1217 1167 1136 1169 1175 1201 1122 1134 1231 1190 1194 1175 1158 1165 1141 1081 1134 1067 1111 1123 1110 1151 1107 1124 1142 1105 1134 1145 1075 1089 1054 1029 1122 1076 1085 1058 1041 1043 1113 1055 1045 1090 1088 1062 1028 1042 1067 1058 1017 1097 1056 1016 1088 1024 1034 1073 1005 1050 1015 1039 1048 1025 1030 1022 1088 1002 1063 945 1028 1069 1041 1058 1071 1052 1050 1016 999 1034 997 1068 1066 1063 1054 1037 1099 1062 1077 1031 1060 1099 1034 1014 1096 1030 1106 1031 1104 1061 1061 1027 1082 1027 1084 1097 1047 1000 1028 1053 1072 1029 1026 1026 1058 1093 1039 1083 1045 1070 1007 1077 1053 1058 1045 1062 1038 1046 1087 1046 1032 1055 1018 1072 1001 1022 994 1070 974 1060 1021 1050 1075 1027 1083 1112 1049 1025 996 1051 1054 1081 1017 1064 1023 1013 1046 1046 1001 1028 1062 986 1068 1021 1067 972 989 1015 1038 1009 1054 1070 1052 1048 1010 970 1066 1009 1038 1107 1003 1041 975 960 1063 982 1053 1000 1021 1018 1063 1016 1029 1003 986 1017 1019 984 1029 1036 1061 1044 1047 996 1069 1003 1046 1017 966 1059 1025 1008 1088 1074 1050 1024 1040 1042 1084 1050 1014 1001 994 1123 940 1073 1010 1017 970 1056 1088 993 1068 984 1097 1014 1024 1065 991 1051 1000 1029 1051 1045 1026 973 1066 1022 1077 1009 1058 1081 1074 1043 1002 1041 1033 996 1057 965 1014 1032 989 1021 1057 1057 1088 1055 1099 1099 1000 1018 1092 1015 1054 1045 1054 1016 1041 973 1009 953 978 1033 1052 1040 1024 1014 1014 1028 1038 1020 1031 1033 991 1061 1060 1044 1057 988 1062 982 1034 992 1025 1023 1027 943 989 1016 979 1076 1067 1035 1047 967 1035 1032 1100 1010 1009 1027 1019 999 988 979 1093 1035 1012 1077 1009 981 1036 989 1068 1055 974 1030 1012 1057 1035 960 967 1047 962 959 1010 1036 983 952 1015 1038 1016 1061 1020 1023 996 1004 996 1010 1059 1097 1015 1010 1027 1006 1068 1048 1010 1031 1067 971 1000 1031 1010 1058 950 1002 1024 998 1014 1039 1020 1012 1012 1007 1018 990 1009 1001 1050 986 981 1025 975 1013 1035 986 992 1036 1022 991 1026 984 1009 1004 1033 1003 1034 986 1008 996 1002 963 1021 1036 1017 1030 998 1014 958 994 969 990 1013 924 1022 1029 978 993 994 1019 1070 1014 1033 1041 1073 1016 1035 983 1026 1001 1005 1007 1059 1024 1003 1032 1003 1004 994 1006 1021 975 997 967 1025 964 986 991 1041 1035 1004 1068 1010 1010 967 1016 975 1008 1005 1017 1022 989 1010 1027 978 1002 991 966 1030 1026 978 1018 996 1049 985 926 1047 1039 1030 1030 1003 1021 998 1017 991 978 990 996 1074 1006 961 1014 1000 973 1088 983 1024 987 1048 1068 1056 1011 974 1000 965 962 951 1013 1062 1062 1020 999 1037 1051 1024 1068 1007 985 977 1076 1070 971 957 981 979 1112 988 948 976 1010 999 1028 980 959 981 1021 989 1056 994 1011 1036 1018 1021 1058 1025 993 1036 1061 980 1031 982 949 979 1017 984 1057 1040 1027 990 1015 1040 1039 1035 999 1031 990 952 1032 992 1098 980 1038 1041 1045 1045 1039 981 1034 994 997 1028 1050 1045 1080 1021 1023 1010 966 1025 1059 1045 997 990 1015 1005 1006 1028 1075 1095 1010 1001 1016 1040 1063 1006 1005 1029 1049 1034 1035 1056 1023</counts>
			</dataPoints>
		</scan>
	</xrdMeasurement>
</xrdMeasurements>
