<?xml version="1.0"?>
<xrdMeasurements xmlns="http://www.xrdml.com/XRDMeasurement/2.3" xmlns:xsi="http://www.w3.org/2001/XMLSchema-instance" xsi:schemaLocation="http://www.xrdml.com/XRDMeasurement/2.3 http://www.xrdml.com/XRDMeasurement/2.3/XRDMeasurement.xsd" status="Completed" recordIdentifier="{0A2C6F64-675E-4DFF-BFA4-B015955C4F1E}">
	<comment>
		<entry/>
	</comment>
	<sample type="To be analyzed">
		<id>GPSS_Li1p4Hf0p1Mg0p3Fe0p5Mn0p3Cl4_122125_69474145f4d05ae3d697aeed</id>
		<name></name>
		<preparedBy></preparedBy>
	</sample>
	<xrdMeasurement measurementType="Scan" status="Completed" sampleMode="Reflection">
		<usedWavelength intended="K-Alpha 1">
			<kAlpha1 unit="Angstrom">1.5405980</kAlpha1>
			<kAlpha2 unit="Angstrom">1.5444260</kAlpha2>
			<kBeta unit="Angstrom">1.3922500</kBeta>
			<ratioKAlpha2KAlpha1>0.5000</ratioKAlpha2KAlpha1>
		</usedWavelength>
		<incidentBeamPath>
			<radius unit="mm">145.00</radius>
			<xRayTube id="1010048" name="Empyrean Cu LFF HR (9430 033 7310x)">
				<tension unit="kV">40.0</tension>
				<current unit="mA">15.0</current>
				<anodeMaterial>Cu</anodeMaterial>
				<focus type="Line">
					<length unit="mm">12.0</length>
					<width unit="mm">0.4</width>
					<takeOffAngle unit="deg">6.0</takeOffAngle>
				</focus>
			</xRayTube>
			<sollerSlit id="21010002" name="Soller slits 0.04 rad.">
				<opening unit="rad">0.0400</opening>
			</sollerSlit>
			<mask id="22031000" name="Fixed mask 13 mm">
				<width unit="mm">9.00</width>
			</mask>
			<divergenceSlit id="22120001" name="Divergence slit 1°" xsi:type="fixedDivergenceSlitType">
				<distanceToSample unit="mm">50.00</distanceToSample>
				<height unit="mm">1.52</height>
			</divergenceSlit>
		</incidentBeamPath>
		<sampleMovement xsi:type="spinningSampleMovementType">
			<spinnerRevolutionTime unit="seconds">1.0</spinnerRevolutionTime>
		</sampleMovement>
		<diffractedBeamPath>
			<radius unit="mm">145.00</radius>
			<antiScatterSlit id="22090040" name="AS slit 9 mm (PIXcel)" xsi:type="fixedAntiScatterSlitType">
				<height unit="mm">9.00</height>
			</antiScatterSlit>
			<sollerSlit id="21020003" name="Large Soller slits 0.04 rad.">
				<opening unit="rad">0.0400</opening>
			</sollerSlit>
			<filter id="20030001" name="Large beta-filter Nickel">
				<material>Ni</material>
				<thickness unit="mm">0.020</thickness>
			</filter>
			<detector id="7010019" name="PIXcel1D-Medipix3 detector" xsi:type="rtmsDetectorType">
				<phd unit="keV">
					<lowerLevel>4.02</lowerLevel>
					<upperLevel>11.27</upperLevel>
				</phd>
				<mode>Scanning</mode>
				<activeLength unit="deg">5.542</activeLength>
			</detector>
		</diffractedBeamPath>
		<scan appendNumber="0" mode="Continuous" scanAxis="Gonio" status="Completed">
			<header>
				<startTimeStamp>2025-12-22T14:57:38-08:00</startTimeStamp>
				<endTimeStamp>2025-12-22T15:05:45-08:00</endTimeStamp>
				<author>
					<name>AutomatedUser</name>
				</author>
				<source>
					<applicationSoftware version="1.7b (136)">PANalytical Aeris Instrument Suite</applicationSoftware>
					<instrumentControlSoftware version="3.2.00000000 20240306">AERIS</instrumentControlSoftware>
					<instrumentID>950485</instrumentID>
				</source>
			</header>
			<dataPoints>
				<positions axis="2Theta" unit="deg">
					<startPosition>10.00943322</startPosition>
					<endPosition>99.99442286</endPosition>
				</positions>
				<positions axis="Omega" unit="deg">
					<startPosition>5.00471661</startPosition>
					<endPosition>49.99721143</endPosition>
				</positions>
				<commonCountingTime unit="seconds">12.495</commonCountingTime>
				<counts unit="counts">3026 2989 3005 2926 2930 2899 2995 3008 3009 2898 2993 2913 2897 2968 2935 2939 3028 3085 3064 2986 2975 3093 2972 2980 2905 2978 2978 2978 3086 2940 3015 2991 2929 2955 2999 2987 2966 2972 2833 3034 2936 2897 2996 2879 2869 2870 2900 3008 2905 2918 2994 2869 2937 2928 2957 2906 2968 3056 2913 2987 2986 2980 3023 2979 3004 2903 2906 2894 2983 2949 2897 2993 3014 2927 2978 2925 2923 3066 3085 2995 3034 2999 2906 2827 2835 3002 2894 2955 3011 2897 2925 2922 2984 2947 3046 2878 2914 3014 2898 2927 2903 2961 2992 2996 2985 3053 2922 3041 2915 2874 2954 2997 2991 2925 2903 2935 2937 2923 2820 2966 2981 2870 3017 2804 2887 2960 3023 2924 2975 2881 2989 3031 3127 2914 2915 3051 2852 2929 2990 2987 2883 2869 2911 2963 2970 2946 3004 2825 2923 2904 2898 2911 3050 2918 2965 2847 2806 2805 2884 2899 2835 3017 2950 2980 2851 2936 3017 2935 2978 3107 2911 2813 2929 2860 3052 2916 2837 2882 2870 2886 2950 2873 2850 2815 2909 2907 2824 2834 2940 2935 2917 2900 2951 2805 2738 2920 2897 2839 2775 2904 2909 2871 2780 2968 2674 2932 2876 2853 2815 2923 2858 2875 2907 2759 2857 2797 2872 2912 2854 2812 2870 2955 2876 2800 2848 2887 2747 2796 2861 2824 2721 2799 2732 2821 2781 2784 2790 2768 2857 2795 2798 2816 2939 2757 2870 2745 2929 2829 2786 2717 2779 2742 2742 2838 2789 2833 2808 2784 2800 2725 2796 2845 2799 2791 2780 2840 2844 2857 2751 2827 2884 2760 2725 2868 2737 2768 2787 2759 2804 2775 2884 2826 2792 2810 2826 2750 2789 2754 2841 2867 2812 2746 2805 2809 2887 2804 2933 2976 2836 2913 2783 2863 2877 2947 2919 2823 2904 2804 2838 2828 2841 2926 2897 2856 2906 2944 2883 2931 2879 2804 2813 2933 2917 2860 2814 2967 2910 2810 3000 2909 3015 2993 2936 2880 3003 3086 2971 3061 2942 3038 2998 2996 3098 3049 3043 3070 3033 3063 3003 2982 2967 3148 3080 3022 3072 3002 3049 3089 3038 3182 3121 3048 3090 3103 3030 3075 3113 3212 3163 3166 3090 3171 3205 3112 3214 3138 3270 3168 3297 3200 3221 3282 3204 3243 3190 3147 3196 3148 3139 3185 3271 3142 3280 3209 3198 3323 3381 3367 3378 3348 3407 3342 3420 3308 3347 3344 3266 3506 3326 3454 3323 3326 3283 3412 3409 3475 3425 3554 3460 3604 3584 3464 3604 3450 3573 3632 3642 3655 3792 3807 3687 3645 3763 3689 3828 3685 3784 3871 3808 3679 3799 3846 3972 3862 3888 3897 3975 3979 3914 3971 4122 4119 4151 4078 4139 4222 4104 4295 4341 4282 4154 4241 4227 4260 4241 4233 4183 4123 4104 4168 4082 4191 4171 4147 4112 4060 4106 4088 4082 3903 4016 3849 3958 3886 3945 3981 4093 4037 4034 4053 3952 3994 4028 3996 4059 4130 3915 4076 4118 4025 3927 3969 3938 3882 3724 3741 3664 3671 3603 3618 3428 3555 3482 3429 3322 3347 3354 3266 3370 3263 3174 3121 3202 3208 3152 3178 3213 3223 3182 3242 3141 3096 3013 3014 3159 3156 3109 3101 3127 3053 3171 3077 3137 3001 3051 3171 3120 3094 3111 3070 3005 3020 3054 3067 3164 3007 3088 3082 3066 3064 3034 3053 3062 3001 3092 3054 3090 2995 2944 3058 2932 2954 3047 2938 2974 2927 3026 2965 2980 3014 3051 3048 2962 2975 3000 2966 2965 2935 2906 2983 2928 2991 2986 2991 2947 2885 2942 2850 2890 2871 2919 2812 2986 2875 3032 2914 2959 3026 2968 2884 2935 2924 2952 2904 2961 2918 2919 2946 2926 2858 2855 2893 2891 2802 2740 2922 2894 2967 2820 2906 2921 2867 2898 2785 2945 2823 2857 2866 2897 2802 2839 2881 2674 2829 2878 2779 2865 2855 2875 2827 2769 2809 2813 2807 2894 2984 2782 2767 2795 2767 2722 2844 2821 2828 2827 2831 2811 2811 2732 2851 2820 2827 2769 2773 2905 2904 2757 2836 2823 2808 2864 2727 2799 2880 2845 2942 2816 2842 2773 2854 2747 2737 2812 2648 2784 2850 2791 2795 2721 2838 2706 2727 2813 2752 2827 2777 2802 2785 2846 2849 2796 2704 2755 2756 2798 2702 2736 2788 2741 2729 2838 2842 2640 2776 2854 2804 2846 2819 2702 2793 2713 2730 2853 2812 2930 2790 2782 2708 2863 2768 2712 2727 2833 2736 2749 2755 2813 2762 2712 2725 2724 2774 2779 2764 2832 2834 2926 2814 2848 2766 2740 2815 2684 2760 2750 2755 2767 2732 2755 2695 2778 2754 2750 2737 2742 2711 2742 2751 2774 2821 2786 2690 2667 2743 2698 2788 2729 2823 2612 2863 2666 2794 2653 2808 2640 2715 2736 2679 2811 2735 2730 2681 2702 2749 2728 2802 2738 2664 2744 2675 2706 2775 2691 2823 2717 2712 2654 2743 2742 2779 2781 2713 2730 2680 2694 2572 2781 2711 2660 2711 2791 2703 2770 2626 2732 2749 2634 2662 2682 2710 2654 2722 2671 2706 2814 2683 2700 2703 2650 2696 2661 2699 2620 2691 2703 2690 2658 2680 2697 2746 2671 2738 2651 2631 2707 2643 2636 2742 2630 2757 2727 2689 2731 2685 2703 2660 2583 2548 2708 2528 2590 2626 2656 2584 2706 2663 2739 2634 2649 2621 2591 2599 2642 2673 2615 2651 2651 2563 2673 2648 2638 2645 2600 2559 2585 2615 2612 2693 2637 2666 2632 2682 2566 2526 2620 2649 2573 2501 2563 2564 2611 2586 2705 2616 2589 2638 2574 2652 2546 2661 2579 2604 2570 2557 2522 2614 2531 2582 2637 2571 2581 2632 2620 2529 2474 2580 2552 2599 2487 2525 2574 2524 2481 2509 2533 2562 2574 2501 2563 2562 2549 2673 2577 2607 2607 2569 2530 2472 2650 2530 2553 2544 2640 2633 2545 2579 2581 2468 2623 2500 2579 2530 2529 2660 2580 2572 2625 2609 2583 2592 2460 2586 2514 2578 2517 2576 2583 2547 2482 2588 2562 2549 2656 2488 2463 2544 2432 2580 2506 2570 2563 2510 2456 2533 2576 2536 2615 2567 2493 2544 2548 2536 2515 2581 2590 2541 2578 2579 2557 2563 2479 2459 2507 2569 2533 2503 2544 2484 2525 2587 2602 2613 2586 2562 2487 2511 2545 2591 2553 2600 2568 2576 2652 2587 2562 2597 2582 2560 2584 2566 2563 2557 2559 2599 2642 2628 2666 2642 2542 2631 2566 2652 2592 2522 2612 2627 2552 2618 2530 2612 2597 2594 2580 2557 2553 2489 2652 2562 2593 2650 2661 2509 2548 2508 2577 2641 2640 2527 2635 2592 2526 2690 2566 2596 2586 2595 2619 2610 2673 2554 2632 2583 2604 2631 2547 2573 2589 2631 2512 2652 2615 2640 2657 2616 2504 2553 2587 2561 2577 2595 2580 2504 2507 2590 2580 2589 2541 2477 2611 2540 2540 2522 2622 2594 2511 2544 2598 2553 2492 2564 2617 2562 2516 2542 2483 2421 2584 2441 2529 2500 2513 2451 2358 2451 2467 2435 2434 2490 2441 2580 2496 2575 2446 2466 2425 2430 2476 2382 2343 2489 2475 2427 2414 2355 2282 2434 2454 2348 2463 2450 2434 2352 2367 2390 2305 2446 2302 2413 2310 2371 2361 2394 2385 2305 2267 2304 2361 2307 2404 2416 2397 2325 2319 2304 2299 2354 2243 2282 2344 2315 2275 2272 2264 2200 2347 2286 2290 2230 2254 2294 2266 2259 2272 2231 2245 2238 2235 2273 2256 2225 2166 2141 2269 2206 2152 2186 2196 2106 2246 2161 2211 2169 2132 2280 2158 2144 2208 2166 2206 2198 2126 2130 2142 2170 2147 2086 2161 2151 2146 2089 2110 2148 2141 2178 2195 2071 2171 2119 2150 2110 2079 2133 2161 2113 2128 2169 2134 2075 2065 2095 2098 2081 2057 2111 2060 2047 2097 2059 2128 2101 1998 2051 2170 2125 2083 2080 2042 2010 2103 2009 2044 2148 2033 2126 2075 2042 2107 2039 2053 2054 2039 2105 2121 2021 2054 2048 2069 2021 2127 2035 2043 2011 1995 2028 2065 2096 1969 1996 2049 1986 2064 1994 2030 1953 1941 2011 1929 1985 1932 2046 1958 2028 2004 1984 1922 2006 2016 1954 2026 2000 1999 1988 2106 2063 1967 2075 2042 2000 1974 2008 1993 2024 2089 1956 1955 2031 2036 2060 2005 2050 2051 1965 2055 2013 2047 2014 2032 1935 1983 2008 2012 1961 2006 2017 2072 1966 2009 1944 1947 1944 2012 2000 1928 1994 1977 1914 1916 1974 2030 1974 1971 2052 1938 1957 1960 1937 1995 1962 2027 1866 1896 2012 1978 1964 2069 1972 2045 2048 2060 1962 1966 2009 2001 1929 2051 1994 1995 2021 2007 2098 1935 2057 2078 2008 2073 1932 2075 1941 1993 2067 2075 2024 2007 2001 1975 1998 2046 2002 2000 1997 2033 1945 2037 2010 1959 1878 2054 1973 2002 2047 2081 1961 2044 1997 2038 1998 2050 1983 2025 1944 2144 2099 2018 1999 2051 2037 2087 2064 1954 2034 2107 2029 2015 1932 2072 1988 2039 1997 1997 2027 2023 1978 1992 2062 1957 2036 2012 2113 2007 2061 1966 2004 1945 2009 1930 2072 1973 2046 1999 1976 1996 1951 1981 2011 1964 1994 2087 1958 2026 2019 1984 1980 2007 2039 1936 1958 2006 1972 1953 1990 2041 1955 2005 1956 1964 1971 1994 1988 2013 1955 1986 1905 1920 1908 1932 1913 2017 1980 1965 2028 1794 1922 1897 1882 1967 1916 1874 1921 1900 1856 1928 1920 1991 1925 1788 1834 1933 1859 1966 1940 1929 1864 1938 1947 1906 1890 1824 1895 1823 1851 1910 1742 1855 1838 1864 1923 1828 1829 1715 1824 1941 1797 1856 1806 1879 1877 1874 1800 1887 1769 1755 1962 1924 1717 1848 1841 1841 1877 1925 1832 1870 1833 1863 1724 1844 1817 1721 1769 1846 1808 1771 1749 1679 1742 1728 1856 1834 1808 1756 1777 1752 1708 1764 1757 1818 1824 1734 1849 1782 1822 1837 1722 1751 1794 1661 1761 1702 1803 1762 1733 1786 1749 1734 1767 1829 1780 1795 1851 1804 1759 1779 1883 1841 1796 1848 1762 1855 1870 1922 1806 1882 1962 1927 2009 1801 1956 1920 1964 1919 1900 1987 2068 1917 2050 2046 2032 2028 2075 2032 2068 2069 2092 2089 2024 2069 1992 2084 2120 2120 2163 2076 2022 1992 2119 2117 2182 2095 2072 2066 2072 2101 2048 2119 2004 2033 1996 2046 2033 2036 1987 1956 1977 2011 1960 1932 2002 1909 1859 1841 1947 1856 1815 1870 1810 1813 1997 1812 1846 1810 1928 1842 1855 1894 1827 1808 1899 1877 1823 1841 1919 1841 1793 1786 1820 1740 1834 1818 1792 1762 1818 1882 1788 1845 1658 1702 1758 1630 1755 1762 1728 1733 1735 1695 1697 1622 1728 1865 1814 1713 1799 1803 1787 1818 1792 1868 1890 1934 2052 2005 1926 2108 2096 2159 2175 2276 2250 2299 2285 2342 2356 2318 2340 2421 2469 2520 2447 2535 2512 2574 2468 2597 2563 2508 2494 2513 2677 2622 2748 2645 2674 2686 2771 2811 2797 2865 2828 2850 2928 2817 2857 2907 2725 2826 2725 2803 2701 2621 2665 2553 2699 2538 2470 2452 2416 2323 2420 2252 2275 2215 2193 2180 2172 2093 2199 2042 2099 2060 2170 2108 2093 2062 2082 2017 2076 2029 2029 2007 2072 1972 1947 1949 2016 1985 2028 2045 2012 1994 1975 1983 2019 1885 1958 2017 2008 1949 2001 1918 1861 1897 1873 1922 1809 1874 1848 1808 1910 1850 1914 1863 1802 1735 1847 1797 1712 1745 1755 1732 1713 1696 1700 1672 1669 1649 1744 1735 1670 1693 1685 1694 1684 1651 1697 1683 1659 1604 1628 1645 1638 1562 1620 1636 1600 1531 1501 1605 1585 1533 1606 1579 1612 1535 1525 1658 1532 1588 1542 1591 1501 1604 1508 1543 1593 1496 1518 1555 1585 1497 1501 1524 1511 1514 1554 1565 1589 1567 1528 1589 1560 1576 1536 1555 1582 1564 1455 1532 1541 1414 1521 1533 1450 1529 1522 1425 1532 1419 1574 1519 1502 1442 1519 1489 1522 1568 1481 1510 1514 1474 1496 1554 1438 1561 1451 1408 1495 1504 1578 1498 1456 1500 1494 1483 1492 1544 1448 1509 1464 1493 1501 1482 1479 1456 1508 1468 1443 1506 1443 1504 1454 1496 1388 1469 1497 1439 1499 1514 1448 1491 1452 1499 1406 1457 1483 1493 1481 1426 1493 1485 1378 1436 1474 1484 1440 1488 1509 1444 1505 1411 1398 1428 1432 1474 1429 1386 1375 1461 1396 1391 1412 1494 1466 1512 1385 1484 1471 1426 1455 1435 1468 1377 1420 1447 1452 1425 1350 1424 1432 1397 1381 1355 1391 1418 1453 1362 1384 1443 1399 1460 1377 1454 1452 1363 1374 1394 1388 1418 1406 1413 1396 1391 1474 1419 1340 1428 1414 1375 1454 1401 1439 1383 1370 1432 1401 1360 1360 1393 1443 1333 1391 1351 1433 1403 1417 1376 1444 1374 1429 1321 1409 1420 1428 1412 1448 1343 1304 1411 1393 1333 1483 1405 1411 1424 1371 1456 1370 1444 1394 1394 1414 1428 1447 1386 1392 1343 1384 1396 1358 1357 1371 1407 1405 1401 1456 1446 1426 1321 1414 1426 1457 1427 1447 1393 1442 1432 1460 1405 1410 1421 1406 1438 1402 1484 1370 1477 1382 1428 1462 1385 1416 1455 1458 1418 1494 1455 1531 1513 1492 1580 1505 1591 1567 1610 1694 1593 1700 1701 1751 1766 1839 1843 1916 1864 2058 2188 2207 2217 2380 2304 2459 2481 2657 2588 2784 2823 2854 2969 3053 3130 3118 3254 3242 3247 3275 3299 3227 3464 3403 3482 3473 3589 3646 3575 3759 3925 3714 3804 3797 3895 3797 3901 3804 3865 3855 3849 3793 3787 3700 3763 3568 3579 3589 3344 3418 3320 3274 3334 3124 3087 3058 3075 2887 2859 2778 2818 2730 2768 2707 2586 2538 2631 2466 2529 2540 2521 2476 2431 2475 2440 2457 2434 2358 2369 2501 2470 2332 2417 2484 2421 2330 2303 2285 2387 2350 2394 2263 2362 2285 2235 2311 2095 2175 2143 2149 2147 2139 2067 2083 1994 1967 2011 1940 1859 1871 1900 1838 1828 1747 1746 1744 1796 1746 1712 1726 1628 1634 1687 1634 1608 1571 1614 1662 1534 1548 1560 1508 1472 1525 1455 1448 1460 1488 1464 1511 1440 1461 1473 1476 1356 1489 1482 1428 1456 1465 1362 1399 1370 1455 1457 1449 1373 1377 1452 1462 1449 1376 1375 1373 1359 1364 1405 1324 1373 1383 1329 1335 1264 1394 1341 1370 1341 1346 1387 1335 1365 1393 1361 1297 1387 1389 1337 1337 1386 1325 1353 1272 1342 1352 1333 1321 1324 1303 1333 1340 1305 1364 1323 1394 1323 1349 1308 1324 1285 1363 1247 1386 1322 1311 1272 1365 1337 1363 1356 1232 1318 1338 1298 1340 1299 1320 1325 1388 1299 1280 1305 1376 1363 1385 1335 1268 1307 1257 1374 1275 1316 1298 1293 1270 1327 1277 1290 1305 1317 1286 1249 1278 1266 1271 1342 1308 1330 1245 1293 1252 1301 1294 1296 1276 1329 1359 1315 1336 1331 1333 1278 1338 1342 1262 1316 1332 1336 1259 1280 1310 1316 1265 1297 1327 1339 1361 1334 1367 1331 1292 1198 1377 1266 1243 1357 1292 1283 1303 1330 1310 1290 1313 1238 1296 1330 1277 1314 1295 1242 1269 1276 1248 1256 1312 1313 1325 1271 1316 1225 1321 1359 1249 1270 1321 1238 1299 1242 1244 1385 1245 1349 1218 1287 1319 1275 1269 1335 1343 1371 1347 1288 1301 1254 1290 1343 1297 1270 1346 1329 1298 1272 1281 1401 1351 1351 1285 1298 1265 1253 1311 1282 1344 1305 1366 1296 1268 1325 1289 1260 1293 1244 1303 1295 1301 1312 1350 1331 1329 1287 1269 1323 1245 1355 1272 1327 1240 1410 1355 1318 1251 1256 1317 1252 1302 1290 1222 1312 1338 1322 1390 1283 1277 1328 1271 1294 1204 1287 1335 1252 1221 1286 1240 1276 1293 1253 1274 1238 1210 1257 1225 1227 1235 1264 1354 1206 1332 1207 1278 1233 1241 1277 1276 1198 1206 1218 1224 1252 1189 1256 1252 1266 1251 1251 1195 1258 1194 1235 1245 1243 1224 1233 1265 1192 1177 1276 1240 1267 1296 1224 1189 1278 1292 1295 1211 1286 1230 1262 1255 1289 1202 1193 1281 1189 1211 1187 1207 1206 1275 1193 1247 1226 1218 1277 1259 1236 1236 1167 1180 1254 1203 1183 1210 1242 1306 1245 1199 1214 1185 1208 1189 1246 1144 1207 1219 1254 1279 1238 1234 1206 1229 1235 1260 1246 1242 1184 1214 1237 1150 1135 1263 1200 1223 1202 1223 1236 1182 1218 1178 1146 1270 1226 1227 1224 1243 1215 1240 1290 1197 1251 1233 1242 1192 1203 1266 1212 1125 1217 1208 1158 1229 1233 1190 1133 1223 1209 1206 1278 1155 1214 1161 1228 1223 1212 1227 1214 1244 1265 1258 1227 1230 1181 1228 1200 1216 1191 1238 1146 1308 1251 1215 1226 1259 1182 1193 1222 1181 1223 1278 1159 1221 1214 1150 1169 1211 1190 1230 1277 1237 1194 1234 1198 1251 1236 1244 1260 1202 1196 1348 1195 1220 1215 1273 1274 1228 1220 1290 1245 1250 1283 1200 1209 1229 1216 1286 1253 1208 1255 1166 1203 1231 1177 1181 1237 1293 1219 1192 1201 1214 1274 1252 1238 1240 1294 1200 1250 1223 1225 1254 1122 1262 1232 1198 1231 1197 1166 1193 1251 1226 1188 1237 1204 1257 1199 1200 1256 1226 1212 1161 1191 1252 1212 1190 1213 1241 1201 1210 1296 1174 1226 1206 1237 1240 1232 1172 1228 1206 1220 1227 1190 1189 1185 1131 1227 1229 1255 1181 1215 1296 1227 1209 1259 1192 1207 1193 1270 1190 1262 1239 1141 1164 1159 1083 1158 1175 1134 1181 1141 1195 1175 1180 1218 1167 1223 1186 1201 1194 1228 1181 1233 1231 1250 1223 1220 1172 1149 1171 1176 1186 1192 1131 1170 1235 1176 1228 1148 1200 1153 1153 1161 1214 1163 1160 1201 1222 1201 1246 1242 1174 1181 1179 1181 1171 1263 1197 1237 1211 1141 1192 1176 1164 1165 1174 1189 1219 1224 1258 1181 1169 1215 1142 1202 1185 1160 1276 1098 1219 1105 1160 1205 1214 1243 1228 1225 1169 1214 1183 1215 1142 1179 1257 1216 1148 1161 1156 1190 1204 1222 1195 1248 1172 1135 1249 1175 1234 1198 1199 1187 1269 1131 1167 1241 1160 1160 1194 1234 1156 1204 1153 1160 1228 1196 1193 1200 1188 1183 1187 1210 1182 1201 1207 1157 1175 1183 1215 1186 1169 1243 1186 1184 1190 1202 1203 1235 1134 1149 1179 1193 1117 1214 1192 1161 1208 1155 1146 1195 1193 1156 1186 1153 1136 1193 1206 1176 1208 1201 1160 1193 1237 1141 1117 1165 1173 1187 1182 1234 1195 1179 1257 1212 1222 1192 1147 1200 1201 1117 1200 1177 1190 1138 1143 1152 1177 1209 1185 1220 1221 1120 1123 1215 1218 1164 1180 1177 1219 1141 1197 1198 1132 1174 1174 1117 1199 1234 1193 1145 1174 1199 1227 1210 1122 1187 1140 1168 1171 1183 1175 1210 1201 1177 1154 1181 1267 1163 1132 1150 1175 1151 1180 1169 1216 1219 1182 1216 1251 1216 1128 1170 1206 1107 1199 1162 1212 1212 1143 1219 1188 1148 1185 1247 1198 1161 1171 1209 1182 1224 1201 1170 1301 1147 1295 1244 1276 1232 1211 1254 1232 1279 1236 1221 1230 1236 1255 1324 1280 1303 1302 1285 1312 1290 1379 1315 1241 1358 1369 1426 1282 1372 1402 1410 1369 1406 1397 1420 1365 1392 1392 1419 1391 1384 1390 1404 1457 1450 1419 1425 1458 1519 1405 1474 1465 1382 1433 1463 1413 1495 1424 1394 1435 1410 1404 1314 1362 1367 1380 1408 1327 1345 1262 1314 1232 1226 1279 1279 1341 1292 1282 1277 1293 1271 1301 1243 1284 1306 1243 1225 1271 1187 1196 1192 1251 1267 1232 1189 1180 1206 1262 1234 1253 1182 1222 1218 1180 1245 1221 1246 1255 1255 1256 1314 1212 1214 1295 1261 1304 1305 1286 1219 1244 1302 1258 1277 1217 1301 1284 1242 1242 1246 1290 1224 1247 1239 1301 1236 1273 1301 1268 1340 1284 1380 1279 1230 1247 1191 1277 1231 1243 1280 1300 1262 1263 1260 1224 1314 1135 1186 1185 1161 1168 1236 1227 1216 1247 1270 1180 1276 1223 1097 1268 1195 1201 1230 1201 1187 1215 1217 1209 1163 1208 1191 1236 1209 1130 1215 1174 1173 1159 1245 1187 1208 1230 1202 1179 1172 1154 1208 1148 1099 1183 1193 1211 1162 1165 1159 1140 1106 1166 1185 1199 1226 1194 1226 1268 1169 1196 1187 1174 1137 1175 1226 1135 1193 1260 1172 1211 1194 1187 1214 1183 1136 1169 1110 1173 1186 1084 1176 1120 1187 1146 1173 1167 1196 1141 1180 1161 1237 1153 1213 1147 1156 1200 1150 1216 1110 1175 1144 1132 1185 1203 1178 1159 1144 1177 1179 1244 1219 1196 1164 1203 1151 1258 1162 1157 1181 1176 1137 1151 1143 1194 1177 1161 1207 1159 1113 1164 1202 1163 1198 1173 1160 1150 1124 1224 1162 1180 1150 1223 1103 1129 1167 1208 1207 1139 1193 1185 1180 1193 1152 1221 1197 1124 1179 1187 1196 1158 1136 1176 1174 1224 1170 1214 1213 1144 1166 1182 1160 1226 1262 1236 1291 1198 1162 1246 1223 1263 1178 1192 1204 1195 1221 1160 1220 1201 1185 1192 1217 1195 1215 1157 1222 1188 1276 1171 1170 1251 1131 1194 1246 1226 1218 1274 1238 1196 1238 1189 1170 1168 1208 1195 1227 1272 1250 1190 1229 1239 1232 1233 1258 1293 1228 1318 1242 1322 1283 1344 1296 1312 1295 1314 1325 1373 1354 1389 1408 1409 1415 1379 1493 1466 1510 1549 1539 1629 1610 1714 1690 1701 1857 1886 1860 1893 2011 2027 1965 2137 2116 2183 2259 2327 2355 2379 2503 2503 2586 2595 2573 2682 2615 2540 2689 2674 2681 2725 2670 2766 2831 2676 2815 2843 2818 2743 2750 2717 2740 2789 2792 2669 2630 2580 2558 2522 2452 2361 2410 2293 2315 2258 2289 2166 2098 2049 2030 1926 1984 1939 1808 1818 1761 1718 1837 1808 1682 1762 1666 1694 1691 1658 1518 1713 1659 1684 1725 1683 1667 1648 1677 1742 1723 1688 1745 1664 1774 1753 1710 1756 1800 1774 1785 1748 1715 1818 1726 1717 1765 1704 1760 1774 1860 1754 1793 1832 1820 1834 1802 1811 1810 1741 1769 1808 1743 1797 1818 1761 1776 1806 1755 1718 1720 1797 1737 1713 1692 1638 1691 1721 1720 1664 1671 1720 1655 1719 1636 1553 1610 1605 1582 1585 1552 1516 1561 1609 1539 1565 1537 1496 1486 1518 1502 1450 1453 1459 1462 1466 1422 1446 1429 1403 1372 1369 1400 1403 1335 1381 1345 1327 1328 1305 1331 1346 1303 1274 1305 1227 1306 1348 1309 1309 1258 1287 1246 1319 1218 1261 1246 1277 1226 1235 1242 1240 1239 1236 1239 1241 1250 1213 1228 1228 1269 1204 1247 1239 1254 1338 1238 1265 1163 1282 1208 1264 1210 1250 1227 1250 1241 1275 1297 1212 1272 1281 1292 1265 1284 1220 1311 1273 1304 1275 1313 1319 1321 1234 1303 1298 1332 1267 1348 1342 1360 1339 1308 1424 1356 1346 1314 1411 1355 1400 1324 1328 1342 1377 1304 1348 1315 1319 1385 1349 1345 1295 1289 1276 1281 1358 1362 1225 1315 1335 1290 1279 1284 1322 1285 1244 1267 1269 1208 1302 1321 1210 1262 1253 1286 1271 1259 1189 1273 1235 1190 1291 1226 1204 1235 1198 1195 1220 1283 1255 1309 1247 1200 1185 1164 1208 1184 1212 1213 1270 1229 1274 1190 1226 1266 1220 1179 1264 1208 1207 1314 1247 1275 1250 1277 1259 1232 1251 1254 1247 1237 1196 1208 1255 1211 1213 1205 1316 1211 1244 1235 1193 1158 1267 1276 1200 1189 1182 1212 1191 1174 1226 1222 1193 1207 1196 1245 1233 1150 1143 1200 1144 1162 1236 1211 1210 1202 1228 1181 1088 1224 1144 1191 1148 1190 1186 1201 1130 1172 1131 1132 1136 1182 1124 1192 1131 1196 1257 1174 1124 1066 1139 1168 1051 1143 1123 1164 1174 1148 1165 1108 1184 1147 1163 1112 1172 1129 1209 1071 1150 1145 1110 1145 1148 1158 1108 1089 1178 1067 1162 1175 1159 1167 1121 1200 1146 1160 1159 1179 1115 1168 1131 1215 1145 1122 1133 1126 1157 1133 1176 1152 1137 1086 1176 1076 1131 1150 1208 1183 1185 1067 1136 1148 1062 1100 1132 1155 1112 1136 1132 1162 1163 1163 1193 1103 1105 1203 1149 1138 1139 1102 1127 1188 1094 1137 1151 1197 1154 1127 1119 1155 1121 1111 1136 1144 1119 1164 1137 1071 1147 1189 1212 1158 1097 1136 1174 1122 1051 1098 1176 1164 1127 1103 1143 1128 1159 1166 1149 1131 1118 1080 1175 1123 1115 1186 1154 1109 1078 1106 1197 1214 1123 1144 1154 1151 1140 1122 1107 1081 1074 1114 1114 1121 1069 1108 1121 1128 1090 1058 1097 1107 1131 1126 1207 1082 1182 1186 1154 1121 1168 1179 1155 1140 1128 1149 1181 1182 1092 1122 1187 1133 1134 1100 1126 1133 1146 1083 1124 1093 1083 1178 1135 1177 1173 1115 1181 1157 1109 1152 1149 1059 1170 1162 1119 1110 1112 1137 1061 1164 1125 1111 1141 1220 1119 1128 1178 1151 1174 1140 1109 1123 1101 1162 1095 1130 1104 1105 1127 1089 1146 1065 1129 1083 1159 1116 1078 1072 1157 1124 1135 1044 1150 1124 1119 1142 1113 1164 1084 1076 1152 1128 1175 1070 1143 1138 1143 1131 1142 1187 1163 1067 1143 1125 1089 1195 1148 1107 1146 1064 1106 1106 1079 1145 1132 1128 1066 1119 1088 1169 1066 1099 1128 1131 1099 1131 1104 1116 1100 1138 1189 1122 1076 1156 1091 1143 1144 1081 1142 1123 1189 1195 1176 1053 1077 1172 1110 1131 1111 1103 1083 1070 1044 1125 1120 1196 1141 1119 1137 1110 1097 1099 1098 1166 1117 1177 1067 1139 1177 1160 1115 1095 1045 1161 1139 1146 1120 1188 1092 1175 1153 1168 1144 1082 1112 1146 1096 1053 1113 1112 1171 1034 1160 1159 1122 1129 1157 1150 1102 1077 1146 1112 1067 1160 1088 1086 1168 1121 1096 1139 1157 1116 1095 1092 1119 1116 1149 1137 1082 1042 1075 1140 1125 1152 1155 1052 1099 1138 1135 1093 1116 1151 1164 1164 1160 1132 1184 1113 1126 1104 1063 1119 1110 1120 1109 1155 1138 1163 1173 1157 1164 1134 1104 1172 1140 1161 1115 1162 1166 1159 1194 1110 1218 1179 1231 1117 1115 1133 1143 1096 1205 1173 1186 1108 1178 1164 1177 1131 1207 1159 1170 1166 1168 1167 1205 1172 1179 1232 1125 1154 1163 1172 1205 1137 1137 1164 1194 1167 1150 1137 1237 1174 1116 1188 1227 1113 1161 1218 1215 1158 1180 1194 1158 1212 1239 1217 1244 1203 1176 1261 1299 1330 1278 1304 1299 1272 1260 1364 1268 1366 1323 1354 1293 1359 1311 1333 1365 1332 1366 1372 1316 1384 1389 1400 1347 1430 1467 1463 1380 1340 1377 1264 1409 1398 1388 1367 1301 1407 1368 1317 1320 1333 1328 1370 1330 1301 1323 1342 1338 1335 1274 1268 1195 1269 1225 1278 1267 1300 1258 1218 1243 1274 1208 1213 1234 1199 1177 1179 1211 1207 1244 1181 1270 1214 1237 1254 1227 1208 1249 1243 1260 1275 1223 1225 1252 1275 1274 1237 1218 1273 1220 1273 1270 1271 1266 1248 1254 1335 1246 1230 1195 1241 1229 1231 1228 1198 1251 1236 1258 1308 1236 1222 1234 1266 1255 1220 1216 1188 1262 1226 1277 1231 1255 1227 1164 1207 1209 1280 1195 1254 1267 1175 1231 1243 1222 1218 1272 1221 1193 1241 1173 1221 1180 1226 1169 1169 1186 1207 1293 1171 1221 1233 1223 1202 1256 1224 1237 1194 1293 1219 1207 1212 1285 1265 1276 1191 1250 1208 1248 1183 1239 1186 1174 1294 1225 1258 1273 1274 1202 1196 1210 1235 1213 1138 1236 1154 1178 1198 1222 1243 1232 1220 1233 1239 1206 1216 1223 1234 1152 1191 1161 1192 1163 1164 1179 1241 1130 1143 1173 1172 1183 1169 1169 1134 1223 1158 1202 1176 1201 1191 1146 1147 1164 1188 1249 1162 1186 1154 1198 1152 1167 1160 1186 1138 1237 1152 1197 1185 1143 1221 1146 1196 1257 1199 1193 1213 1223 1246 1199 1208 1172 1152 1197 1208 1236 1229 1249 1339 1272 1285 1274 1300 1276 1320 1209 1274 1303 1308 1374 1365 1342 1415 1329 1392 1425 1479 1514 1464 1437 1420 1449 1407 1454 1433 1538 1547 1549 1480 1540 1493 1460 1476 1524 1503 1502 1543 1499 1502 1521 1503 1482 1453 1369 1479 1450 1490 1522 1375 1403 1417 1463 1394 1396 1379 1371 1370 1327 1287 1319 1308 1312 1296 1300 1263 1283 1266 1243 1205 1253 1253 1258 1243 1265 1188 1180 1200 1131 1157 1123 1149 1164 1122 1180 1229 1161 1193 1178 1212 1214 1152 1203 1149 1215 1183 1249 1218 1180 1231 1200 1201 1206 1217 1166 1271 1225 1232 1245 1202 1279 1281 1256 1271 1259 1220 1216 1204 1236 1231 1285 1218 1216 1206 1217 1229 1213 1176 1193 1176 1235 1276 1242 1271 1235 1177 1208 1270 1168 1228 1252 1189 1233 1229 1191 1219 1181 1275 1214 1190 1186 1282 1224 1156 1230 1226 1219 1185 1159 1157 1166 1203 1203 1196 1154 1194 1217 1194 1146 1173 1246 1175 1233 1225 1184 1175 1166 1165 1148 1213 1227 1114 1196 1244 1215 1215 1166 1164 1174 1264 1195 1257 1205 1233 1211 1228 1177 1119 1223 1210 1201 1227 1193 1259 1250 1197 1235 1203 1173 1215 1242 1225 1219 1174 1259 1217 1239 1239 1226 1232 1227 1188 1244 1254 1255 1263 1245 1223 1232 1217 1220 1213 1189 1153 1270 1251 1213 1213 1277 1229 1178 1203 1222 1168 1260 1205 1210 1237 1071 1177 1058 1168 1210 1122 1185 1162 1168 1216 1191 1224 1111 1098 1097 1161 1096 1121 1121 1104 1035 1086 1112 1104 1114 1173 1128 1155 1103 1102 1105 1086 1143 1141 1121 1144 1156 1117 1091 1156 1143 1128 1097 1073 1096 1113 1154 1155 1096 1075 1123 1085 1112 1158 1122 1102 1058 1133 1124 1120 1036 1054 1103 1100 1098 1119 1099 1160 1044 1106 1109 1148 1059 1089 1139 1103 1058 1103 1126 1073 1156 1072 1131 1114 1109 1137 1108 1178 1099 1164 1028 1117 1023 1141 1154 1132 1131 1112 1140 1124 1153 1047 1109 1107 1178 1105 1147 1112 1131 1063 1142 1103 1141 1096 1151 1096 1130 1155 1141 1128 1198 1090 1143 1143 1199 1065 1162 1075 1133 1155 1123 1144 1116 1100 1123 1154 1162 1127 1175 1077 1113 1111 1143 1052 1142 1115 1103 1151 1076 1168 1082 1112 1098 1110 1146 1145 1119 1112 1089 1041 1143 1061 1125 1111 1179 1111 1089 1139 1113 1094 1118 1098 1075 1111 1090 1179 1034 1150 1068 1074 1116 1157 1111 1139 1141 1119 1102 1128 1062 1122 1045 1063 1065 1106 1015 1119 1108 1097 1062 1154 1037 1138 1128 1070 1065 1070 1099 1060 1020 1107 1073 1052 1112 1053 1145 1183 1043 1072 1090 1085 1099 1115 1081 1129 1135 1053 1095 1053 1108 1088 1098 1097 1136 1086 1009 1085 1077 1088 1139 1055 1103 1090 1056 1086 1105 1053 1143 1047 1073 1075 1094 1089 1113 1126 1031 1105 1042 1086 1075 1045 1077 1072 1072 1100 1086 1107 1086 1020 1090 1092 1086 1086 1108 1065 1062 1074 1072 1095 1063 1142 1017 1053 1063 1088 1038 1032 1078 1062 1134 1038 1031 1036 1049 988 1091 1052 1124 1082 1023 1056 1084 1099 1105 1101 1049 1116 975 1067 1043 1029 1013 1099 1094 1104 1060 1050 1082 1077 1114 1070 1064 1067 1124 1075 1114 1052 1062 1146 1104 1021 1129 1063 1128 1074 1083 1120 1079 1084 1101 1001 1126 1025 1100 1084 1019 1116 1089 1078 1061 1080 1102 1056 1025 1059 1012 1081 1063 1088 1089 1002 1089 1130 1040 1085 1097 1101 1067 1055 1062 1115 1077 1040 1082 1045 1089 1104 1028 1128 1120 1068 1046 1113 1055 1112 1077 1062 1082 1090 1083 1090 1020 1097 1079 1063 1068 1050 1101 1103 1103 1078 1077 1097 1088 1144 1096 1075 1073 1086 1069 1120 1136 1072 1132 1080 1059 1064 1065 1060 1094 1063 1063 1133 1097 1072 1097 1058 1061 1055 1152 1058 1117 1074 1107 1089 1059 1096 1117 1062 1105 1106 1054 1095 1045 1099 1055 1134 1101 1121 1033 1107 1123 1136 1086 1117 1105 1063 1138 1146 1077 1137 1130 1111 1127 1123 1147 1075 1138 1125 1089 1073 1161 1091 1137 1079 1133 1143 1128 1076 1104 1129 1118 1159 1130 1144 1134 1205 1094 1165 1096 1068 1043 1153 1120 1167 1090 1156 1154 1153 1141 1194 1170 1111 1100 1078 1094 1117 1166 1119 1121 1126 1078 1097 1118 1108 1061 1071 1114 1093 1111 1077 1061 1097 1110 1095 1027 1102 1061 1137 1008 1126 1123 1087 1079 1075 1108 1077 1094 1086 1147 1089 1107 1095 1106 1157 1032 1158 1034 1104 1089 1028 1067 1078 1128 1086 1093 1063 1096 1169 1080 1104 1059 1039 1104 1143 1081 1093 985 1098 1072 1067 1158 1065 1094 1025 1089 1098 1109 1080 1065 1138 1084 1090 1142 1128 1099 1120 1077 1125 1081 1105 1115 1036 1118 1089 1112 1128 1107 1022 1162 1142 1116 1069 1072 1067 1043 1071 1067 1117 1044 1067 1106 1093 1032 1058 1051 1142 1128 1147 1100 1112 1121 1116 1021 1075 1033 1052 1065 1104 1064 1086 1086 1130 1069 1092 1112 1136 1091 1042 1079 1113 1057 1141 1102 1120 1134 1009 1075 1124 1118 1087 1122 1056 1098 1083 1056 1069 1122 1075 1065 1092 1122 1089 1072 1058 1110 1142 1141 1083 1056 1104 1055 1083 1033 1127 1075 1118 1092 1089 1102 1047 1051 1088 1049 1079 1044 1158 1081 1093 1084 1086 1077 1095 1116 1169 1099 1019 1134 1082 1059 1152 1058 1129 1087 1110 1085 1068 1115 1097 1116 979 1096 1058 1067 1053 1052 1066 1104 1083 1074 1163 1055 1125 1128 1137 1161 1018 1076 1015 1130 1086 1157 1140 1099 1082 1071 1101 1080 1112 1068 1124 1108 1067 1073 1086 1129 1112 1103 1220 1131 1145 1132 1108 1103 1085 1076 1087 1201 1152 1100 1086 1115 1089 1158 1163 1145 1165 1179 1175 1180 1219 1176 1216 1161 1213 1194 1192 1245 1201 1169 1182 1184 1154 1201 1222 1230 1214 1200 1211 1226 1305 1192 1239 1236 1213 1222 1206 1212 1180 1146 1169 1221 1226 1196 1211 1219 1242 1192 1156 1162 1162 1212 1127 1201 1079 1132 1196 1124 1142 1072 1164 1167 1159 1149 1100 1164 1129 1174 1138 1121 1076 1062 1131 1091 1047 1160 1119 1128 1098 1119 1128 1087 1056 1071 1085 1097 1122 1099 1092 1086 1098 1091 1045 1142 1075 1103 1146 1104 1110 1099 1094 1126 1083 1125 1241 1150 997 1070 1090 1108 1176 1121 1125 1087 1055 1132 1087 1194 1119 1102 1124 1078 1068 1169 1141 1087 1161 1175 1120 1075 1098 1115 1159 1105 1154 1121 1132 1143 1109 1112 1164 1098 1118 1087 1136 1107 1121 1134 1156 1159 1120 1138 1093 1123 1106 1108 1106 1095 1111 1120 1157 1134 1093 1059 1166 1157 1112 1119 1051 1114 1122 1120 1120 1107 1098 1080 1143 1124 1128 1121 1135 1117 1094 1075 1102 1087 1129 1119 1036 1101 1071 1107 1104 1145 1075 1091 1103 1058 1161 1096 1108 1136 1159 1077 1166 1013 1098 1162 1142 1076 1096 1107 1098 1108 1088 1113 1077 1123 1138 1055 1097 1090 1138 1097 1118 1094 1100 1073 1063 1090 1080 1083 1150 1115 1108 1089 1018 1055 1112 1062 1076 1110 1125 1079 1070 1107 1057 1125 1057 1121 1131 1066 1098 1126 1078 1058 1111 1090 1148 1062 1147 1083 1117 1147 1082 1077 1087 1047 1055 1093 1122 1134 1065 1116 1042 1065 1096 1061 1151 1097 1094 1060 1142 1041 1153 1138 1113 1064 1043 1094 1064 1125 1091 1174 1069 1111 1187 1062 1056 1125 1088 1077 1072 1124 1079 1093 1074 1137 1046 1111 1080 1074 1062 1085 1102 1041 1084 1057 1040 1142 1081 1092 1041 1122 1076 1085 1050 1119 1092 1018 1104 1049 1036 1107 1148 1050 1084 1144 1099 1076 1066 1094 1088 1099 1078 1056 1114 1048 1092 1117 1049 1120 1091 1076 1030 1107 1070 1081 1104 1061 1096 1109 1009 1052 1129 1079 1095 1098 1031 1077 1042 1103 1061 1094 1014 1062 1154 1043 1039 1104 1054 1064 1053 1107 1121 1024 1111 1060 1082 1169 1101 1113 1178 1107 1066 1088 1101 1072 1036 1087 1077 1043 1113 1126 1037 1122 1113 1059 1101 1026 1081 1048 1025 1047 1096 1084 1104 1096 1068 1062 1082 1106 1097 1064 1103 1108 1085 1082 1053 1041 1129 1085 1134 1095 1018 1112 1071 1142 1034 1027 1100 1076 1080 1092 1079 1106 1069 1009 1037 1066 1110 1156 1080 1089 1118 1106 1097 1061 1086 1089 1124 1025 1120 1110 1071 1094 1097 1041 1126 1002 1048 1097 1040 1083 1151 1136 1098 1070 1018 1094 1095 1092 1089 1086 1094 1115 1114 1049 1137 1092 1128 1074 1057 1067 1083 1035 1050 1028 1114 1076 1116 1055 1083 1024 1075 1096 1091 1071 1132 1094 1110 1000 1094 1076 1080 1137 1127 1070 994 1104 1084 1101 1148 1091 1156 1066 1051 1100 1088 1131 1069 1094 1101 1067 1150 1051 1006 1114 1076 1081 1059 1100 1077 1051 1105 1126 1102 1072 1113 1094 1043 1155 1059 1152 1074 1122 1140 1086 1092 1043 1095 1097 1066 1020 1102 1071 1083 1060 1074 1064 1095 1094 1087 1045 1102 1061 1113 1081 1138 1104 1032 1065 1087 1069 1118 1045 1023 1084 1106 1063 1098 1080 1094 1060 1101 1053 1019 1093 1085 1118 1096 1107 1121 1121 1120 1062 1110 1072 1142 1128 1137 1110 1097 1131 1089 1077 1144 1085 1071 1065 1123 1072 1043 1093 1072 1116 1002 1085 1081 1115 1104 1133 1085 1107 1135 1079 1089 1099 1093 1131 1098 1104 1080 1162 1103 1154 1110 1060 1059 1098 1131 1113 1041 1089 1105 1150 1063 1093 1135 1131 1052 1080 1102 1098 1161 1080 1187 1064 1155 1120 1203 1118 1162 1167 1118 1140 1111 1117 1171 1108 1126 1062 1135 1142 1140 1134 1137 1138 1127 1141 1148 1190 1100 1105 1191 1156 1164 1082 1125 1134 1104 1153 1128 1133 1088 1155 1133 1104 1174 1142 1204 1122 1220 1198 1146 1110 1158 1190 1121 1149 1113 1102 1184 1170 1222 1152 1133 1151 1128 1125 1154 1131 1150 1168 1252 1177 1129 1177 1193 1195 1261 1169 1214 1130 1183 1174 1205 1144 1154 1144 1100 1158 1162 1169 1182 1159 1212 1111 1140 1144 1129 1213 1131 1157 1161 1243 1209 1111 1115 1184 1058 1105 1152 1108 1185 1139 1160 1143 1136 1125 1131 1092 1213 1143 1093 1151 1110 1088 1158 1141 1078 1157 1106 1150 1171 1059 1100 1096 1092 1153 1167 1103 1076 1088 1183 1130 1158 1114 1106 1124 1112 1087 1120 1091 1164 1155 1112 1118 1108 1120 1084 1086 1096 1124 1175 1150 1145 1099 1160 1159 1140 1117 1174 1146 1166 1120 1123 1135 1168 1152 1166 1116 1118 1149 1108 1158 1118 1153 1123 1169 1185 1161 1112 1144 1070 1132 1102 1152 1136 1204 1090 1113 1119 1109 1164 1116 1136 1141 1076 1104 1167 1184 1163 1160 1174 1132 1190 1083 1167 1148 1093 1144 1159 1172 1143 1137 1124 1119 1166 1065 1111 1060 1095 1189 1143 1136 1111 1177 1126 1187 1132 1154 1169 1174 1139 1121 1224 1253 1142 1233 1183 1207 1262 1184 1191 1210 1162 1187 1128 1160 1206 1185 1233 1154 1180 1191 1212 1202 1188 1192 1187 1122 1192 1207 1243 1238 1284 1286 1197 1298 1211 1229 1319 1254 1258 1266 1234 1309 1352 1308 1316 1354 1284 1309 1387 1429 1415 1371 1373 1368 1366 1403 1396 1416 1491 1386 1390 1434 1419 1525 1398 1484 1506 1462 1495 1501 1461 1469 1472 1477 1568 1435 1456 1412 1471 1366 1413 1473 1444 1429 1386 1458 1442 1424 1312 1394 1376 1422 1324 1322 1388 1301 1427 1265 1286 1312 1323 1256 1301 1279 1269 1323 1337 1319 1228 1261 1169 1196 1308 1193 1232 1239 1200 1176 1183 1169 1165 1213 1169 1209 1156 1183 1173 1129 1169 1232 1164 1186 1171 1130 1128 1208 1105 1148 1192 1173 1169 1135 1191 1148 1148 1170 1149 1211 1138 1144 1170 1157 1096 1147 1197 1190 1164 1194 1209 1161 1167 1218 1178 1147 1169 1188 1238 1193 1160 1229 1231 1161 1196 1142 1193 1190 1227 1263 1267 1221 1224 1177 1208 1226 1171 1203 1208 1222 1200 1239 1200 1226 1245 1224 1273 1239 1216 1234 1282 1260 1221 1216 1215 1178 1221 1227 1217 1207 1246 1174 1152 1199 1215 1209 1224 1226 1177 1292 1232 1209 1192 1220 1195 1243 1199 1139 1215 1193 1255 1229 1235 1174 1245 1270 1198 1223 1178 1208 1195 1252 1228 1195 1206 1223 1249 1190 1195 1185 1207 1261 1233 1197 1300 1174 1267 1234 1214 1183 1237 1316 1235 1281 1125 1175 1181 1183 1212 1185 1215 1210 1294 1288 1208 1175 1237 1190 1228 1205 1210 1218 1167 1196 1186 1158 1184 1155 1159 1193 1138 1212 1162 1202 1197 1167 1223 1225 1202 1176 1196 1126 1216 1159 1263 1120 1220 1167 1160 1178 1147 1125 1148 1155 1183 1105 1250 1118 1147 1115 1145 1138 1104 1144 1138 1196 1139 1155 1201 1160 1174 1163 1144 1151 1161 1103 1082 1154 1139 1171 1091 1108 1150 1166 1145 1077 1148 1102 1094 1147 1148 1154 1202 1115 1117 1159 1129 1178 1133 1115 1127 1043 1055 1077 1110 1125 1146 1096 1112 1168 1130 1125 1138 1125 1173 1105 1119 1108 1091 1139 1065 1195 1148 1108 1087 1142 1125 1116 1110 1122 1162 1106 1123 1104 1090 1059 1174 1131 1099 1094 1102 1083 1087 1156 1132 1119 1086 1117 1151 1170 1171 1050 1121 1165 1070 1134 1169 1121 1133 1117 1135 1078 1133 1039 1162 1116 1094 1153 1092 1103 1129 1171 1116 1222 1139 1142 1119 1091 1104 1103 1160 1153 1099 1106 1165 1179 1204 1148 1094 1076 1158 1167 1136 1159 1100 1083 1140 1088 1161 1115 1098 1062 1092 1142 1122 1099 1157 1121 1139 1126 1096 1149 1092 1160 1099 1074 1134 1117 1120 1166 1104 1153 1150 1126 1131 1046 1117 1153 1116 1158 1109 1095 1080 1100 1110 1111 1094 1171 1075 1104 1077 1188 1066 1150 1147 1106 1083 1140 1093 1106 1121 1076 1102 1095 1176 1131 1133 1152 1103 1136 1125 1089 1153 1176 1108 1145 1098 1098 1094 1103 1108 1128 1133 1183 1116 1096 1146 1118 1096 1166 1092 1111 1085 1133 1108 1141 1143 1073 1103 1082 1138 1087 1119 1132 1084 1076 1105 1058 1162 1077 1125 1097 1080 1076 1089 1076 1160 1140 1115 1088 1131 1147 1127 1139 1101 1143 1065 1194 1127 1031 1146 1060 1120 1106 1084 1190 1083 1129 1111 1131 1072 1157 1109 1103 1059 1083 1149 1158 1079 1109 1131 1102 1076 1102 1075 1136 1140 1089 1133 1081 1129 1093 1141 1170 1133 1094 1096 1133 1112 1161 1144 1112 1178 1110 1078 1200 1141 1149 1115 1159 1119 1100 1142 1065 1123 1166 1111 1140 1110 1125 1132 1114 1093 1093 1166 1061 1118 1059 1133 1104 1030 1150 1161 1103 1158 1126 1098 1164 1075 1116 1167 1125 1128 1114 1140 1177 1179 1164 1131 1088 1122 1148 1112 1143 1198 1150 1155 1091 1117 1173 1138 1138 1139 1158 1121 1105 1138 1141 1144 1154 1110 1118 1091 1110 1171 1132 1110 1103 1135 1131 1108 1127 1108 1114 1220 1140 1159 1234 1196 1140 1137 1089 1158 1173 1119 1087 1130 1112 1165 1119 1143 1104 1143 1162 1102 1113 1136 1152 1117 1140 1171 1101 1171 1147 1174 1138 1108 1174 1143 1113 1102 1103 1093 1098 1089 1151 1106 1135 1114 1143 1159 1154 1178 1157 1072 1146 1117 1139 1087 1131 1057 1096 1188 1115 1166 1177 1115 1115 1195 1166 1105 1062 1161 1158 1154 1104 1115 1134 1071 1180 1094 1209 1121 1221 1118 1095 1193 1158 1197 1116 1120 1094 1103 1145 1107 1133 1163 1139 1189 1103 1133 1114 1121 1088 1131 1167 1176 1095 1132 1100 1147 1120 1103 1133 1100 1073 1073 1140 1126 1142 1099 1065 1065 1139 1097 1127 1037 1126 1078 1114 1067 1129 1085 1151 1096 1160 1123 1162 1177 1149 1124 1079 1109 1080 1114 1131 1104 1164 1113 1143 1135 1120 1112 1128 1115 1131 1129 1140 1060 1122 1141 1117 1089 1098 1129 1135 1120 1148 1055 1113 1072 1154 1126 1110 1131 1113 1054 1112 1145 1125 1110 1154 1106 1142 1105 1090 1109 1115 1120 1105 1112 1140 1108 1091 1147 1094 1104 1123 1140 1033 1071 1109 1097 1142 1138 1208 1224 1113 1080 1173 1092 1080 1147 1163 1112 1183 1196 1144 1159 1090 1188 1158 1177 1157 1184 1133 1118 1156 1207 1128 1135 1161 1114 1085 1195 1198 1145 1229 1168 1147 1184 1199 1121 1164 1119 1224 1155 1187 1156 1182 1129 1144 1258 1199 1147 1187 1260 1199 1236 1178 1213 1168 1197 1260 1185 1271 1252 1153 1290 1334 1255 1305 1285 1276 1247 1273 1284 1323 1365 1367 1334 1360 1359 1379 1360 1360 1303 1395 1354 1407 1350 1453 1360 1437 1352 1416 1437 1362 1395 1434 1402 1381 1401 1418 1380 1369 1370 1354 1406 1382 1377 1325 1380 1281 1325 1343 1310 1335 1350 1333 1298 1292 1318 1258 1320 1314 1298 1323 1304 1209 1276 1366 1226 1206 1203 1181 1245 1212 1252 1213 1279 1183 1148 1210 1146 1198 1235 1141 1191 1157 1180 1223 1225 1167 1124 1171 1168 1169 1140 1161 1170 1203 1156 1139 1161 1158 1190 1193 1135 1148 1123 1186 1129 1166 1199 1212 1180 1138 1115 1118 1222 1173 1130 1100 1136 1157 1162 1181 1128 1116 1121 1126 1092 1135 1225 1083 1149 1172 1138 1167 1209 1228 1194 1236 1239 1141 1212 1169 1199 1146 1211 1217 1162 1247 1163 1155 1193 1177 1212 1192 1196 1193 1179 1232 1150 1252 1230 1220 1154 1194 1171 1198 1257 1203 1183 1247 1246 1152 1186 1259 1221 1209 1228 1219 1231 1306 1254 1267 1224 1168 1244 1235 1167 1203 1229 1182 1177 1206 1168 1189 1187 1249 1227 1183 1150 1154 1182 1174 1169 1185 1184 1236 1166 1161 1147 1223 1194 1171 1229 1205 1174 1227 1226 1190 1186 1169 1204 1223 1195 1168 1216 1200 1196 1164 1206 1265 1232 1168 1154 1101 1179 1171 1118 1188 1158 1172 1184 1164 1135 1055 1137 1183 1161 1191 1220 1134 1156 1162 1154 1144 1197 1166 1168 1170 1134 1208 1207 1168 1181 1170 1188 1168 1229 1147 1107 1148 1233 1131 1183 1186 1189 1173 1194 1133 1180 1202 1161 1185 1159 1158 1164 1190 1129 1160 1168 1200 1156 1178 1162 1203 1184 1165 1105 1169 1169 1164 1139 1202 1235 1175 1159 1177 1131 1202 1148 1201 1172 1139 1170 1169 1128 1123 1136 1119 1145 1187 1126 1184 1115 1097 1138 1183 1115 1086 1103 1150 1136 1102 1176 1087 1117 1119 1145 1121 1193 1167 1183 1168 1127 1084 1167 1080 1164 1177 1161 1166 1116 1143 1153 1182 1156 1151 1132 1148 1178 1140 1230 1101 1114 1148 1127 1095 1137 1111 1174 1169 1197 1183 1140 1088 1082 1098 1141 1103 1159 1140 1105 1162 1146 1126 1134 1176 1202 1106 1121 1113 1089 1162 1184 1158 1113 1099 1156 1190 1166 1130 1134 1180 1118 1145 1040 1154 1088 1108 1148 1116 1131 1141 1096 1121 1149 1134 1118 1123 1160 1086 1105 1168 1104 1079 1150 1098 1122 1077 1090 1172 1135 1160 1126 1206 1147 1141 1125 1117 1082 1150 1092 1109 1095 1120 1166 1128 1119 1161 1134 1114 1132 1139 1113 1074 1103 1148 1182 1078 1156 1165 1130 1112 1163 1135 1073 1117 1165 1048 1050 1108 1162 1209 1153 1090 1139 1186 1101 1180 1141 1151 1065 1140 1138 1115 1101 1126 1082 1125 1082 1184 1144 1142 1140 1115 1155 1118 1080 1134 1091 1081 1143 1145 1103 1186 1116 1167 1143 1120 1131 1128 1131 1134 1071 1145 1122 1167 1127 1090 1074 1131 1129 1120 1197 1100 1120 1074 1146 1090 1174 1107 1162 1141 1101 1054 1038 1083 1074 1084 1097 1145 1141 1149 1112 1119 1138 1111 1142 1203 1119 1116 1178 1101 1115 1148 1142 1198 1081 1186 1099 1111 1084 1186 1149 1146 1093 1134 1124 1145 1096 1069 1117 1109 1144 1118 1131 1088 1110 1094 1114 1162 1140 1125 1083 1120 1135 1093 1143 1140 1147 1141 1059 1114 1148 1079 1147 1111 1053 1177 1092 1074 1116 1118 1117 1075 1153 1127 1199 1097 1158 1123 1122 1140 1134 1078 1133 1150 1078 1136 1118 1124 1129 1115 1179 1216 1211 1148 1133 1187 1151 1152 1181 1096 1126 1123 1200 1168 1072 1171 1208 1184 1116 1091 1100 1162 1184 1106 1124 1178 1113 1143 1190 1119 1142 1147 1203 1186 1131 1144 1168 1248 1237 1198 1185 1198 1214 1168 1215 1154 1221 1185</counts>
			</dataPoints>
		</scan>
	</xrdMeasurement>
</xrdMeasurements>
