<?xml version="1.0"?>
<xrdMeasurements xmlns="http://www.xrdml.com/XRDMeasurement/2.3" xmlns:xsi="http://www.w3.org/2001/XMLSchema-instance" xsi:schemaLocation="http://www.xrdml.com/XRDMeasurement/2.3 http://www.xrdml.com/XRDMeasurement/2.3/XRDMeasurement.xsd" status="Completed" recordIdentifier="{8594DB60-DCD3-49F2-9618-64597FFAFC89}">
	<comment>
		<entry/>
	</comment>
	<sample type="To be analyzed">
		<id>GPSS_Li2Co0p5Mg0p5Cl4_100725_68e5a8e007cf888582f935cb</id>
		<name></name>
		<preparedBy></preparedBy>
	</sample>
	<xrdMeasurement measurementType="Scan" status="Completed" sampleMode="Reflection">
		<usedWavelength intended="K-Alpha 1">
			<kAlpha1 unit="Angstrom">1.5405980</kAlpha1>
			<kAlpha2 unit="Angstrom">1.5444260</kAlpha2>
			<kBeta unit="Angstrom">1.3922500</kBeta>
			<ratioKAlpha2KAlpha1>0.5000</ratioKAlpha2KAlpha1>
		</usedWavelength>
		<incidentBeamPath>
			<radius unit="mm">145.00</radius>
			<xRayTube id="1010048" name="Empyrean Cu LFF HR (9430 033 7310x)">
				<tension unit="kV">40.0</tension>
				<current unit="mA">15.0</current>
				<anodeMaterial>Cu</anodeMaterial>
				<focus type="Line">
					<length unit="mm">12.0</length>
					<width unit="mm">0.4</width>
					<takeOffAngle unit="deg">6.0</takeOffAngle>
				</focus>
			</xRayTube>
			<sollerSlit id="21010002" name="Soller slits 0.04 rad.">
				<opening unit="rad">0.0400</opening>
			</sollerSlit>
			<mask id="22031000" name="Fixed mask 13 mm">
				<width unit="mm">9.00</width>
			</mask>
			<divergenceSlit id="22120001" name="Divergence slit 1°" xsi:type="fixedDivergenceSlitType">
				<distanceToSample unit="mm">50.00</distanceToSample>
				<height unit="mm">1.52</height>
			</divergenceSlit>
		</incidentBeamPath>
		<sampleMovement xsi:type="spinningSampleMovementType">
			<spinnerRevolutionTime unit="seconds">1.0</spinnerRevolutionTime>
		</sampleMovement>
		<diffractedBeamPath>
			<radius unit="mm">145.00</radius>
			<antiScatterSlit id="22090040" name="AS slit 9 mm (PIXcel)" xsi:type="fixedAntiScatterSlitType">
				<height unit="mm">9.00</height>
			</antiScatterSlit>
			<sollerSlit id="21020003" name="Large Soller slits 0.04 rad.">
				<opening unit="rad">0.0400</opening>
			</sollerSlit>
			<filter id="20030001" name="Large beta-filter Nickel">
				<material>Ni</material>
				<thickness unit="mm">0.020</thickness>
			</filter>
			<detector id="7010019" name="PIXcel1D-Medipix3 detector" xsi:type="rtmsDetectorType">
				<phd unit="keV">
					<lowerLevel>4.02</lowerLevel>
					<upperLevel>11.27</upperLevel>
				</phd>
				<mode>Scanning</mode>
				<activeLength unit="deg">5.542</activeLength>
			</detector>
		</diffractedBeamPath>
		<scan appendNumber="0" mode="Continuous" scanAxis="Gonio" status="Completed">
			<header>
				<startTimeStamp>2025-10-09T14:22:52-07:00</startTimeStamp>
				<endTimeStamp>2025-10-09T14:31:00-07:00</endTimeStamp>
				<author>
					<name>AutomatedUser</name>
				</author>
				<source>
					<applicationSoftware version="1.7b (136)">PANalytical Aeris Instrument Suite</applicationSoftware>
					<instrumentControlSoftware version="3.2.00000000 20240306">AERIS</instrumentControlSoftware>
					<instrumentID>950485</instrumentID>
				</source>
			</header>
			<dataPoints>
				<positions axis="2Theta" unit="deg">
					<startPosition>10.00943322</startPosition>
					<endPosition>99.99442286</endPosition>
				</positions>
				<positions axis="Omega" unit="deg">
					<startPosition>5.00471661</startPosition>
					<endPosition>49.99721143</endPosition>
				</positions>
				<commonCountingTime unit="seconds">12.495</commonCountingTime>
				<counts unit="counts">3538 3579 3364 3435 3399 3431 3452 3559 3509 3433 3487 3488 3514 3572 3349 3359 3488 3377 3362 3372 3408 3412 3478 3571 3530 3445 3460 3447 3490 3412 3342 3420 3487 3557 3509 3594 3482 3554 3366 3508 3539 3551 3525 3487 3510 3616 3499 3494 3510 3543 3590 3600 3444 3466 3482 3559 3553 3499 3604 3621 3600 3541 3519 3477 3557 3508 3523 3562 3556 3592 3590 3445 3639 3520 3589 3562 3597 3459 3583 3706 3658 3606 3687 3519 3668 3687 3681 3685 3557 3526 3647 3641 3514 3663 3698 3747 3562 3650 3650 3535 3708 3684 3658 3634 3582 3625 3685 3792 3648 3680 3762 3711 3744 3677 3624 3810 3718 3756 3673 3780 3758 3727 3707 3757 3624 3738 3595 3771 3671 3707 3686 3804 3689 3762 3725 3719 3777 3712 3786 3610 3759 3756 3796 3729 3794 3847 3669 3778 3745 3766 3705 3778 3737 3840 3762 3793 3854 3835 3825 3767 3698 3835 3694 3687 3799 3680 3763 3710 3829 3679 3837 3783 3730 3690 3728 3840 3738 3715 3809 3819 3772 3691 3743 3754 3670 3729 3731 3755 3699 3738 3746 3747 3758 3706 3773 3838 3591 3704 3903 3791 3800 3890 3777 3597 3716 3786 3641 3913 3706 3696 3808 3700 3848 3719 3714 3713 3755 3826 3815 3719 3849 3781 3674 3795 3740 3809 3838 3710 3708 3786 3879 3706 3805 3657 3858 3825 3757 3798 3806 3789 3750 3714 3743 3797 3911 3761 3825 3741 3803 3741 3690 3823 3712 3784 3697 3888 3737 3742 3841 3825 3811 3777 3765 3691 3770 3719 3930 3807 3717 3929 3824 3834 3791 3805 3733 3764 3746 3744 3695 3776 3871 3893 3783 3863 3736 3808 3936 3682 3854 3784 3799 3746 3784 3781 3835 3820 3840 3751 3843 3848 3742 3901 3832 3821 3915 3877 3885 4046 3946 3872 3851 3883 3853 3922 3897 3871 3914 4030 4060 3924 3895 3926 3865 3993 3967 4017 3920 3939 3914 3982 3945 4036 3898 4042 3877 4086 4075 4023 3995 4050 4011 4099 3951 4082 4058 4166 4144 4070 4188 4168 4116 4025 4088 4072 4124 4083 4047 4084 4131 4241 4194 4190 4101 4221 4148 4231 4269 4179 4225 4149 4286 4301 4272 4287 4288 4288 4266 4285 4232 4363 4287 4311 4236 4341 4142 4373 4284 4293 4244 4298 4376 4412 4357 4470 4422 4208 4435 4352 4451 4302 4289 4447 4361 4351 4358 4428 4496 4460 4451 4566 4395 4530 4550 4573 4559 4425 4534 4542 4459 4634 4577 4583 4458 4654 4506 4674 4608 4627 4716 4734 4752 4878 4835 4743 4875 5022 4838 4948 4939 4951 5020 5187 5016 5108 5082 5296 5446 5424 5479 5428 5381 5603 5575 5525 5529 5470 5577 5550 5590 5688 5666 5722 5830 5842 5795 5938 6047 6044 5940 5998 6199 6232 6169 6056 6084 6167 6119 6144 6109 6036 6073 6152 6017 6039 5949 5915 5798 5880 5791 5642 5746 5750 5706 5558 5784 5592 5558 5657 5421 5548 5448 5508 5444 5460 5471 5516 5325 5261 5245 5221 5191 5280 5029 5074 4922 4943 4758 4762 4829 4658 4733 4587 4695 4654 4381 4451 4395 4414 4352 4278 4450 4297 4312 4288 4320 4236 4183 4263 4274 4323 4169 4161 4256 4262 4401 4265 4239 4210 4214 4100 4253 4189 4306 4165 4091 4183 4117 4241 4140 4190 4127 4252 4202 4233 4217 4036 4096 4043 4041 4141 4062 4182 4108 4190 4134 4085 3979 4183 4152 4108 4097 4085 4066 3964 4088 4051 3993 4196 4069 4006 4026 4049 4073 4160 4062 4036 4085 4059 4040 3991 4057 4059 4039 4046 4023 3994 4185 3933 3977 4012 3975 4008 4110 4034 3934 4092 3948 4005 4128 4058 3978 4058 3958 3941 4081 4067 4010 4109 3881 3989 4102 3879 3977 3918 3977 4012 4018 3977 4081 3967 3990 4037 3975 3976 3973 3908 3929 4008 3985 4153 4119 4081 4147 4079 3997 3992 3950 3977 4042 3994 3941 4083 4118 3953 4103 3980 4096 3909 4012 3905 4060 4088 4001 3982 3995 4056 4123 4002 4088 3888 3979 3939 4056 3925 4123 3990 4135 3926 3948 4002 4135 4013 4090 3954 3976 3916 4005 4050 4005 3990 4060 3926 4014 4019 4054 3849 3927 3993 4056 3935 3956 3913 3928 3882 3891 3884 3939 3981 3858 4008 3994 3964 3922 3950 3926 3949 3858 3826 3828 3995 3897 4026 3816 3851 3848 3857 3891 3998 3919 3985 3811 3878 3906 3914 3933 4108 3945 3920 3943 3974 4031 3863 3911 3900 3946 3923 3963 3982 3903 3956 3987 3909 3911 4026 3813 3984 3911 3875 3946 3923 3824 3921 3985 3841 3923 3987 3880 3966 3812 3844 3817 3912 3922 3768 3851 3919 3840 3954 3883 3929 3896 3882 3993 3820 4037 3816 3878 3935 3912 3783 3936 3946 3909 3940 3798 3819 3909 3899 3883 3836 3924 3826 3855 3934 3895 3791 3873 3844 3876 3965 3870 3909 3802 3870 3940 3746 3748 3837 3825 3790 3897 3774 3956 3876 3848 3871 3860 3887 3750 3865 3876 3803 3811 3849 3737 4013 3820 3736 3814 3834 3809 3917 3854 3806 3864 3863 3792 3705 3865 3804 3854 3841 3744 3801 3857 3693 3799 3873 3839 3892 3868 3798 3846 3890 3827 3809 3746 3856 3852 3661 3767 3693 3852 3795 3763 3690 3803 3754 3837 3742 3873 3666 3780 3824 3621 3878 3704 3769 3729 3709 3823 3795 3762 3749 3736 3702 3719 3737 3797 3762 3713 3702 3675 3665 3674 3661 3821 3797 3741 3769 3813 3653 3721 3797 3771 3803 3783 3721 3723 3784 3780 3797 3749 3712 3842 3776 3729 3789 3717 3735 3898 3725 3700 3748 3730 3679 3676 3731 3716 3749 3679 3738 3723 3673 3742 3627 3756 3739 3671 3638 3660 3797 3679 3732 3690 3770 3593 3817 3718 3634 3645 3782 3695 3791 3691 3719 3627 3666 3687 3795 3760 3587 3731 3801 3748 3610 3737 3628 3683 3743 3896 3632 3720 3689 3767 3722 3609 3765 3731 3736 3615 3589 3758 3615 3739 3582 3669 3713 3815 3770 3719 3807 3718 3639 3748 3660 3830 3749 3645 3768 3683 3784 3619 3601 3707 3791 3884 3774 3845 3745 3762 3652 3760 3755 3833 3713 3738 3767 3600 3627 3683 3794 3745 3834 3688 3810 3769 3652 3787 3773 3816 3745 3814 3733 3672 3689 3815 3736 3807 3716 3715 3669 3758 3891 3788 3853 3784 3730 3926 3730 3685 3786 3688 3826 3806 3869 3802 3789 3752 3588 3720 3811 3842 3766 3678 3851 3740 3713 3778 3919 3818 3846 3805 3818 3792 3786 3901 3772 3771 3828 3830 3807 3803 3668 3843 3817 3707 3778 3791 3729 3761 3874 3637 3770 3825 3692 3741 3761 3728 3670 3765 3692 3770 3683 3672 3721 3749 3742 3766 3701 3793 3791 3856 3807 3688 3629 3730 3666 3789 3743 3708 3689 3696 3674 3718 3625 3624 3756 3678 3752 3787 3642 3636 3678 3742 3657 3703 3802 3644 3772 3683 3600 3680 3653 3653 3708 3546 3617 3656 3774 3563 3576 3592 3687 3679 3649 3676 3624 3623 3783 3699 3613 3683 3581 3687 3572 3665 3536 3650 3654 3590 3628 3542 3472 3503 3643 3537 3609 3568 3600 3621 3602 3622 3562 3549 3616 3398 3452 3518 3410 3523 3545 3497 3477 3603 3426 3406 3441 3450 3422 3522 3451 3528 3441 3575 3439 3519 3509 3330 3406 3528 3422 3447 3378 3353 3430 3540 3491 3484 3465 3480 3408 3509 3420 3488 3403 3439 3346 3368 3448 3394 3416 3271 3376 3330 3402 3310 3318 3352 3387 3245 3364 3324 3351 3190 3497 3321 3297 3350 3431 3277 3426 3371 3413 3295 3395 3363 3302 3253 3401 3340 3430 3355 3315 3338 3349 3257 3384 3292 3219 3221 3201 3179 3225 3327 3278 3291 3277 3338 3365 3273 3295 3335 3341 3377 3266 3260 3406 3270 3352 3407 3342 3361 3356 3411 3302 3220 3241 3260 3281 3276 3322 3339 3254 3279 3228 3252 3289 3211 3343 3324 3370 3236 3287 3328 3298 3200 3370 3315 3218 3314 3316 3305 3247 3222 3394 3256 3297 3298 3277 3329 3315 3310 3256 3331 3262 3331 3337 3255 3336 3191 3321 3304 3145 3324 3400 3379 3349 3379 3236 3237 3212 3291 3316 3181 3193 3215 3240 3162 3233 3266 3291 3130 3274 3230 3273 3165 3285 3294 3320 3296 3193 3308 3275 3259 3306 3284 3260 3277 3278 3121 3316 3317 3257 3240 3345 3235 3222 3295 3163 3191 3240 3231 3160 3247 3241 3250 3221 3254 3231 3229 3288 3245 3289 3301 3228 3161 3159 3230 3327 3062 3170 3256 3188 3208 3262 3233 3297 3244 3278 3213 3168 3292 3220 3242 3175 3260 3183 3198 3274 3222 3198 3218 3337 3370 3241 3201 3314 3322 3264 3345 3203 3253 3165 3207 3099 3275 3255 3249 3221 3280 3211 3141 3217 3302 3224 3283 3366 3358 3310 3322 3244 3261 3211 3258 3202 3154 3348 3276 3243 3230 3280 3241 3230 3317 3236 3309 3336 3355 3223 3310 3320 3219 3268 3304 3296 3295 3214 3270 3261 3291 3180 3295 3163 3292 3288 3166 3276 3286 3352 3174 3240 3361 3148 3288 3318 3332 3275 3220 3325 3101 3152 3124 3256 3238 3214 3174 3202 3147 3270 3228 3159 3221 3232 3196 3164 3111 3157 3208 3241 3217 3252 3298 3274 3207 3187 3118 3193 3172 3281 3196 3164 3215 3181 3109 3195 3199 3250 3135 3235 3244 3173 3224 3087 3119 3228 3126 3169 3140 3098 3209 3064 3142 3141 3183 3085 3192 3165 3171 3192 3094 3003 3138 3018 3105 3143 3104 3211 3079 3069 3084 3218 3075 3116 3077 3156 3187 3031 3009 3001 2936 2984 3091 3143 3126 3072 3089 3063 3115 3151 3049 3043 3137 3153 3010 3085 2981 3031 3056 2969 3142 2957 3011 3104 3123 3077 2954 3067 3074 2996 3094 3072 3014 3016 2977 2967 2954 3091 3027 3055 3074 2971 3088 3044 3024 2981 3037 2953 2902 3068 3033 2966 2954 3046 2940 2942 2960 3022 3025 3025 2955 3023 2961 2959 3064 2950 2968 3008 2980 2956 2997 3033 2954 2935 3001 3033 2956 2903 2866 2997 2982 3013 2944 2985 2933 2993 2932 3032 2971 3014 3085 2934 3012 3045 3048 3108 3051 3020 3163 3056 3137 3112 3098 3102 3153 3191 3211 3143 3234 3193 3099 3188 3258 3137 3181 3249 3230 3293 3194 3243 3256 3293 3207 3249 3360 3311 3228 3318 3166 3278 3319 3232 3340 3260 3260 3253 3324 3294 3172 3372 3316 3163 3189 3237 3232 3100 3161 3189 3140 3155 3111 3142 3202 3110 3098 3195 3154 3151 3137 3155 3168 3161 3061 3111 3053 3222 3108 3103 3052 3024 3180 3056 3119 3181 3018 3041 3089 3151 3085 3030 3106 3091 3035 3011 3044 2971 3121 2992 2895 3018 3007 3121 3076 3093 3190 3057 3159 3106 3225 3219 3173 3263 3355 3446 3323 3372 3551 3572 3646 3719 3861 3885 3928 3912 4089 4149 4225 4228 4330 4518 4435 4565 4684 4501 4591 4617 4624 4670 4809 4855 4972 4812 5093 5028 5216 5160 5287 5245 5391 5691 5591 5630 5748 5714 5750 5672 5643 5593 5667 5487 5770 5565 5353 5339 5363 5111 5208 5120 5029 5053 4961 4904 4767 4694 4613 4538 4722 4560 4363 4357 4263 4192 4137 4169 4089 3978 3949 3909 3851 3738 3603 3630 3601 3591 3572 3426 3438 3441 3301 3275 3353 3249 3211 3207 3150 3196 3141 3117 3057 2994 2996 2986 3008 2933 3093 2921 3054 2911 2904 2885 3020 2911 2975 2914 2933 2964 2905 2839 2859 2907 2879 2889 2846 2840 2879 2840 2785 2869 2780 2813 2879 2799 2786 2809 2710 2795 2735 2724 2824 2780 2780 2779 2792 2784 2644 2748 2750 2788 2645 2853 2778 2701 2796 2770 2738 2757 2785 2843 2795 2687 2825 2714 2756 2811 2709 2756 2767 2772 2710 2746 2796 2781 2757 2792 2845 2771 2776 2826 2717 2713 2699 2728 2752 2737 2761 2739 2675 2742 2847 2661 2793 2776 2772 2783 2786 2819 2803 2754 2749 2730 2684 2713 2718 2744 2774 2680 2785 2699 2748 2728 2818 2694 2708 2665 2707 2672 2849 2785 2745 2760 2628 2652 2762 2652 2723 2750 2789 2846 2728 2779 2759 2733 2732 2698 2773 2702 2717 2706 2596 2681 2715 2792 2906 2806 2635 2742 2696 2653 2759 2694 2740 2808 2644 2675 2697 2735 2697 2749 2753 2656 2842 2779 2686 2672 2684 2762 2703 2637 2735 2739 2678 2691 2713 2779 2762 2555 2692 2616 2685 2742 2735 2851 2701 2827 2720 2678 2720 2640 2693 2722 2664 2735 2673 2698 2715 2789 2738 2795 2563 2744 2701 2817 2721 2617 2694 2698 2765 2644 2665 2730 2734 2666 2688 2672 2618 2672 2765 2722 2846 2719 2726 2700 2749 2666 2675 2781 2782 2716 2679 2606 2737 2762 2749 2735 2733 2732 2661 2658 2630 2623 2642 2730 2652 2760 2656 2683 2618 2753 2566 2629 2718 2733 2715 2731 2655 2681 2794 2727 2724 2694 2736 2712 2691 2690 2718 2779 2761 2700 2758 2711 2782 2755 2669 2691 2725 2767 2775 2712 2684 2784 2754 2772 2793 2820 2663 2770 2703 2771 2834 2681 2779 2856 2862 2721 2726 2780 2780 2798 2719 2734 2713 2791 2758 2836 2782 2690 2864 2788 2766 2781 2775 2694 2798 2750 2729 2800 2862 2833 2872 2826 2896 2796 2927 2878 2808 2911 3023 2953 2992 2977 3025 2988 3046 3115 3106 3156 3134 3353 3338 3504 3547 3463 3728 3781 3927 4053 4004 4187 4315 4369 4441 4745 4696 4844 5021 4960 5203 5134 5292 5381 5528 5394 5470 5582 5717 5835 5960 5873 5986 6114 6182 6251 6496 6641 6780 6620 7064 7024 7211 7178 7204 7294 7297 7266 7240 7302 7250 7129 6960 6923 6754 6798 6491 6495 6349 6541 6330 6233 6173 6172 6016 6107 5831 5970 5963 5695 5630 5662 5579 5565 5499 5199 5319 5149 4999 4862 4854 4963 4855 4723 4588 4513 4313 4309 4343 4232 4239 4253 4148 3980 4008 3966 3966 3794 3779 3829 3791 3560 3623 3593 3549 3591 3548 3492 3457 3455 3416 3413 3343 3283 3304 3370 3128 3323 3203 3123 3105 3260 3198 3081 3076 3063 3085 3123 3097 2955 3176 3019 2968 2918 2945 2995 2985 2935 2999 2844 2986 2930 2833 2894 2849 2850 2790 2904 2841 2857 2934 2742 2812 2827 2739 2739 2804 2738 2804 2775 2810 2673 2773 2755 2775 2728 2576 2702 2814 2767 2677 2780 2778 2646 2685 2701 2766 2671 2702 2685 2669 2709 2727 2777 2628 2684 2680 2786 2638 2692 2814 2801 2612 2768 2677 2759 2758 2580 2671 2745 2661 2670 2685 2659 2721 2699 2729 2658 2779 2713 2675 2795 2745 2718 2707 2664 2735 2708 2632 2704 2571 2700 2673 2562 2659 2744 2727 2747 2679 2618 2669 2630 2683 2757 2649 2711 2719 2664 2717 2784 2716 2685 2643 2772 2715 2605 2770 2606 2738 2687 2702 2661 2624 2664 2732 2692 2665 2746 2550 2577 2734 2593 2635 2626 2682 2590 2748 2726 2683 2623 2641 2652 2679 2693 2598 2747 2719 2760 2712 2640 2685 2679 2651 2601 2650 2704 2669 2740 2729 2593 2631 2647 2794 2695 2634 2642 2738 2605 2730 2677 2611 2684 2705 2697 2684 2729 2745 2731 2650 2636 2704 2705 2736 2724 2703 2653 2721 2672 2645 2653 2682 2572 2668 2645 2569 2655 2706 2689 2629 2590 2712 2722 2688 2727 2638 2665 2602 2761 2653 2688 2687 2711 2743 2678 2702 2721 2692 2760 2730 2684 2736 2695 2681 2739 2634 2684 2634 2637 2739 2728 2677 2795 2621 2709 2689 2714 2693 2711 2692 2704 2696 2733 2761 2751 2679 2749 2567 2673 2688 2758 2677 2543 2649 2714 2708 2663 2617 2634 2708 2599 2678 2640 2677 2688 2537 2649 2671 2642 2596 2650 2744 2676 2629 2653 2747 2616 2576 2602 2708 2580 2627 2632 2579 2671 2659 2687 2717 2643 2640 2605 2577 2610 2643 2534 2589 2647 2612 2645 2629 2624 2697 2742 2670 2683 2648 2645 2634 2702 2630 2729 2608 2684 2646 2702 2660 2669 2618 2689 2692 2690 2680 2652 2684 2700 2591 2697 2698 2731 2695 2694 2707 2698 2596 2728 2603 2688 2680 2703 2568 2657 2687 2563 2511 2752 2652 2730 2689 2706 2652 2600 2602 2688 2575 2613 2628 2579 2626 2621 2621 2613 2626 2642 2664 2609 2579 2565 2673 2658 2630 2706 2576 2564 2568 2494 2556 2535 2701 2599 2660 2704 2582 2629 2620 2617 2538 2686 2707 2502 2591 2608 2571 2520 2566 2647 2579 2646 2633 2655 2566 2594 2594 2598 2575 2577 2568 2593 2632 2575 2564 2680 2572 2608 2637 2687 2492 2631 2527 2564 2539 2579 2519 2606 2590 2550 2676 2613 2578 2571 2580 2580 2567 2536 2599 2668 2613 2565 2566 2620 2511 2548 2568 2633 2607 2518 2587 2651 2538 2678 2676 2557 2636 2626 2602 2564 2481 2642 2617 2539 2584 2561 2578 2614 2593 2600 2676 2500 2622 2686 2540 2523 2577 2553 2659 2653 2664 2574 2573 2616 2613 2513 2555 2519 2641 2713 2572 2513 2535 2585 2658 2610 2595 2563 2548 2566 2635 2557 2579 2616 2536 2735 2631 2672 2613 2526 2634 2513 2633 2529 2603 2669 2634 2535 2583 2698 2637 2552 2572 2606 2624 2687 2582 2595 2678 2580 2708 2643 2663 2569 2634 2610 2551 2543 2623 2557 2675 2645 2550 2458 2561 2737 2618 2528 2617 2526 2607 2500 2718 2572 2594 2559 2604 2543 2608 2573 2463 2680 2652 2614 2611 2476 2522 2593 2654 2605 2714 2649 2646 2614 2662 2631 2517 2541 2636 2653 2618 2488 2622 2583 2558 2508 2645 2582 2602 2593 2574 2538 2616 2658 2594 2583 2647 2659 2607 2622 2695 2497 2597 2701 2645 2486 2571 2652 2576 2613 2504 2571 2525 2642 2597 2559 2614 2616 2572 2554 2611 2637 2627 2635 2599 2714 2674 2545 2564 2464 2576 2521 2498 2552 2550 2609 2548 2640 2577 2569 2592 2572 2632 2623 2597 2618 2600 2653 2551 2618 2576 2620 2648 2621 2544 2693 2619 2722 2661 2693 2647 2657 2585 2655 2630 2716 2623 2754 2587 2650 2735 2571 2673 2678 2669 2594 2695 2672 2726 2625 2737 2721 2706 2572 2616 2772 2610 2683 2703 2613 2636 2640 2571 2749 2791 2659 2753 2638 2683 2642 2623 2674 2648 2660 2630 2622 2651 2547 2593 2638 2593 2642 2582 2568 2648 2713 2660 2445 2671 2596 2680 2584 2549 2591 2653 2571 2508 2635 2586 2559 2591 2581 2571 2599 2531 2550 2587 2643 2520 2620 2585 2665 2611 2660 2592 2544 2574 2603 2602 2554 2622 2600 2575 2566 2640 2640 2602 2622 2548 2512 2499 2589 2598 2536 2558 2524 2615 2600 2644 2582 2512 2668 2610 2525 2633 2616 2605 2582 2524 2624 2586 2537 2629 2570 2606 2638 2623 2631 2558 2574 2536 2621 2594 2627 2589 2527 2584 2632 2635 2628 2660 2581 2527 2578 2639 2608 2628 2548 2542 2546 2558 2588 2459 2632 2595 2536 2536 2555 2560 2548 2581 2556 2566 2593 2683 2635 2663 2682 2592 2647 2494 2592 2615 2570 2693 2545 2582 2655 2542 2597 2450 2556 2623 2576 2640 2639 2546 2611 2477 2601 2534 2628 2591 2624 2611 2595 2513 2570 2544 2670 2641 2614 2624 2671 2665 2553 2613 2575 2658 2613 2662 2649 2613 2591 2608 2646 2578 2672 2717 2663 2729 2650 2645 2715 2674 2692 2734 2812 2759 2803 2800 2846 2830 2897 2820 2794 2822 2814 2937 2934 2879 2935 2904 2924 2842 2766 2929 2863 2959 2936 2868 2914 2939 2989 2964 2926 2871 2836 3001 2855 2968 2972 2976 2960 3027 2945 2942 2999 2899 2863 2874 2894 2901 3008 2863 2905 2932 2942 2907 2967 2853 2841 2893 2770 2763 2774 2893 2820 2851 2789 2852 2773 2772 2793 2860 2784 2796 2763 2759 2813 2679 2777 2760 2863 2779 2668 2720 2784 2706 2709 2724 2782 2682 2683 2677 2719 2716 2770 2666 2590 2671 2752 2761 2679 2594 2590 2644 2652 2666 2592 2672 2653 2608 2622 2737 2678 2709 2715 2636 2567 2701 2628 2664 2654 2743 2644 2594 2707 2660 2698 2562 2600 2634 2679 2622 2624 2581 2616 2569 2700 2694 2634 2654 2706 2628 2639 2567 2669 2606 2615 2616 2661 2690 2638 2652 2588 2633 2627 2668 2561 2524 2577 2639 2551 2568 2558 2521 2644 2524 2589 2551 2574 2537 2526 2665 2536 2634 2613 2537 2676 2546 2586 2619 2667 2609 2544 2628 2602 2585 2543 2574 2593 2731 2504 2578 2614 2542 2601 2617 2633 2618 2561 2583 2610 2642 2556 2577 2711 2554 2621 2663 2539 2618 2529 2583 2650 2614 2593 2550 2578 2588 2621 2544 2608 2553 2596 2592 2674 2544 2577 2624 2649 2571 2556 2677 2550 2573 2585 2721 2612 2598 2626 2618 2598 2580 2664 2632 2558 2524 2613 2551 2604 2619 2617 2507 2643 2628 2565 2662 2724 2576 2592 2546 2587 2580 2637 2542 2526 2520 2513 2593 2606 2625 2600 2610 2629 2626 2553 2642 2587 2514 2524 2638 2525 2621 2577 2585 2628 2481 2591 2614 2581 2680 2575 2539 2470 2659 2588 2515 2575 2619 2630 2603 2564 2613 2627 2574 2540 2615 2602 2606 2542 2624 2707 2674 2521 2548 2570 2591 2552 2583 2635 2560 2631 2542 2631 2693 2591 2606 2558 2600 2576 2555 2684 2671 2611 2611 2624 2625 2567 2675 2594 2569 2640 2656 2664 2656 2623 2593 2632 2611 2640 2592 2674 2730 2609 2599 2648 2725 2656 2745 2660 2658 2646 2626 2740 2696 2634 2709 2632 2761 2758 2665 2679 2584 2647 2719 2730 2757 2731 2699 2821 2812 2781 2835 2828 2884 2793 2893 2930 3058 2971 3093 3034 3089 3174 3235 3292 3354 3274 3386 3439 3581 3689 3499 3689 3692 3798 3934 3939 3904 3919 4007 4016 4107 4135 4053 4051 4176 4218 4251 4171 4340 4280 4227 4247 4139 4412 4223 4402 4283 4493 4419 4438 4324 4393 4476 4430 4521 4420 4478 4521 4534 4653 4616 4513 4548 4542 4316 4366 4138 4290 4200 4234 4174 4055 4101 4238 4113 4113 4068 3879 3945 3985 3890 3823 3950 3970 3812 3863 3873 3797 3791 3728 3773 3682 3773 3618 3717 3688 3575 3492 3425 3451 3474 3369 3347 3382 3344 3330 3318 3206 3328 3211 3252 3139 3135 3230 3086 3187 3006 3114 3012 3107 3094 3043 3049 3051 3022 3095 2978 3004 3038 2964 2952 2951 3005 2957 3056 3054 2932 3022 3034 2946 3093 2949 2886 2969 3032 2902 2904 2935 3018 3001 2985 2928 2850 2874 2906 3001 2942 2873 2995 2820 2855 2852 3029 2894 2799 2861 2797 2887 2829 2808 2792 2789 2656 2795 2854 2818 2751 2866 2849 2734 2707 2753 2771 2813 2679 2753 2719 2646 2819 2771 2695 2647 2698 2703 2649 2711 2758 2746 2727 2735 2629 2667 2691 2684 2628 2554 2629 2521 2599 2666 2605 2627 2672 2634 2687 2609 2609 2665 2627 2697 2563 2605 2512 2670 2590 2668 2603 2535 2642 2673 2654 2639 2640 2653 2586 2598 2766 2653 2614 2536 2661 2610 2635 2673 2717 2623 2719 2727 2669 2737 2720 2716 2794 2766 2694 2645 2592 2727 2778 2704 2744 2740 2689 2790 2722 2687 2760 2669 2761 2774 2750 2734 2823 2797 2795 2780 2648 2683 2733 2742 2714 2766 2709 2797 2721 2739 2706 2679 2652 2659 2730 2628 2685 2764 2807 2813 2746 2708 2708 2703 2757 2789 2742 2785 2857 2748 2769 2789 2668 2692 2753 2738 2716 2754 2646 2710 2627 2726 2675 2713 2628 2723 2682 2734 2746 2735 2575 2713 2681 2674 2701 2643 2680 2666 2675 2651 2646 2628 2614 2694 2674 2743 2617 2681 2633 2639 2611 2601 2702 2649 2679 2598 2649 2600 2659 2671 2635 2614 2625 2535 2652 2632 2581 2680 2617 2653 2694 2605 2674 2591 2748 2667 2688 2562 2580 2686 2691 2655 2628 2582 2581 2617 2533 2622 2640 2676 2639 2661 2625 2638 2686 2588 2653 2575 2653 2575 2713 2596 2651 2654 2709 2669 2581 2543 2608 2619 2562 2522 2564 2686 2611 2600 2571 2661 2665 2594 2539 2577 2634 2611 2609 2536 2720 2580 2588 2578 2584 2561 2571 2658 2635 2676 2635 2573 2580 2598 2630 2640 2556 2638 2541 2618 2603 2669 2550 2555 2482 2523 2539 2598 2482 2511 2544 2600 2632 2607 2455 2552 2598 2618 2557 2502 2555 2534 2552 2569 2514 2591 2639 2440 2534 2568 2538 2578 2582 2573 2606 2602 2575 2617 2617 2542 2547 2523 2512 2524 2584 2606 2636 2489 2612 2632 2601 2566 2573 2473 2545 2526 2568 2549 2537 2538 2691 2552 2529 2525 2591 2613 2535 2526 2555 2514 2498 2628 2544 2465 2618 2563 2584 2552 2659 2491 2555 2606 2570 2522 2584 2589 2474 2588 2525 2567 2722 2489 2589 2506 2575 2579 2618 2564 2629 2459 2543 2578 2557 2622 2635 2563 2583 2496 2622 2565 2553 2628 2601 2624 2581 2580 2528 2542 2572 2492 2486 2604 2482 2549 2565 2473 2571 2469 2590 2553 2675 2499 2539 2541 2635 2533 2574 2500 2608 2591 2501 2523 2455 2512 2478 2547 2519 2589 2479 2521 2547 2607 2542 2541 2497 2544 2565 2626 2531 2631 2587 2539 2586 2552 2568 2608 2494 2518 2543 2603 2524 2598 2624 2629 2518 2546 2544 2535 2513 2561 2534 2609 2568 2508 2585 2603 2553 2623 2579 2532 2605 2593 2486 2561 2589 2502 2536 2554 2462 2548 2514 2555 2614 2615 2576 2521 2532 2520 2507 2637 2567 2551 2616 2561 2502 2612 2537 2636 2560 2580 2584 2542 2643 2553 2617 2597 2501 2580 2526 2556 2554 2522 2573 2569 2598 2697 2510 2564 2690 2537 2517 2538 2491 2543 2546 2544 2511 2508 2535 2542 2577 2570 2640 2538 2595 2553 2620 2451 2597 2594 2600 2574 2559 2552 2570 2547 2486 2572 2611 2495 2594 2539 2531 2515 2692 2598 2579 2553 2630 2574 2670 2529 2509 2530 2566 2556 2524 2425 2586 2539 2542 2579 2587 2533 2579 2489 2560 2593 2521 2540 2540 2608 2605 2575 2539 2638 2460 2523 2551 2623 2575 2574 2509 2539 2620 2567 2591 2495 2515 2542 2593 2587 2492 2535 2558 2545 2522 2510 2502 2472 2558 2595 2489 2571 2422 2488 2541 2572 2597 2529 2563 2452 2558 2559 2552 2591 2575 2538 2544 2475 2514 2573 2581 2581 2483 2520 2655 2614 2554 2636 2550 2514 2428 2560 2601 2576 2565 2598 2542 2627 2597 2594 2573 2485 2541 2510 2605 2611 2603 2545 2565 2581 2533 2595 2592 2531 2552 2738 2595 2515 2498 2612 2584 2534 2550 2580 2562 2608 2527 2521 2630 2538 2617 2581 2661 2638 2638 2581 2633 2588 2589 2646 2484 2581 2612 2699 2715 2637 2645 2560 2568 2576 2671 2681 2710 2661 2707 2626 2689 2763 2767 2692 2667 2759 2745 2797 2737 2735 2756 2824 2816 2913 2882 2886 2927 2838 2833 2859 2889 2901 2886 2958 2884 2907 2986 2903 2914 2950 2946 2992 2901 2811 2822 2922 2937 2891 2948 2932 2930 2857 2902 2838 2894 2926 2854 2903 2850 2854 2813 2862 2809 2962 2956 2931 2944 2997 2801 2880 2919 2898 2945 2980 2854 2966 2942 2886 2965 2999 3004 2963 2981 3041 2919 2990 2957 3051 3015 2974 3005 2897 2989 2992 2846 2941 2943 2944 2839 2930 2942 2947 2902 2874 2709 2929 2831 2800 2779 2756 2899 2780 2657 2680 2718 2698 2785 2755 2737 2646 2696 2708 2699 2754 2693 2717 2583 2703 2637 2718 2625 2636 2587 2729 2534 2553 2563 2598 2601 2568 2567 2678 2546 2595 2603 2598 2589 2659 2666 2625 2559 2591 2517 2605 2651 2554 2546 2555 2554 2535 2550 2546 2566 2585 2617 2485 2651 2459 2512 2596 2555 2643 2494 2572 2499 2629 2600 2498 2473 2527 2584 2492 2566 2648 2593 2536 2480 2498 2561 2496 2581 2637 2529 2399 2423 2512 2547 2573 2388 2634 2540 2476 2524 2466 2509 2542 2568 2538 2554 2547 2621 2600 2539 2642 2688 2575 2522 2645 2478 2538 2465 2552 2556 2558 2511 2557 2514 2564 2540 2635 2511 2502 2585 2585 2514 2537 2569 2530 2646 2612 2558 2469 2533 2477 2564 2577 2546 2631 2582 2513 2553 2529 2505 2528 2591 2594 2548 2630 2589 2519 2571 2562 2641 2536 2508 2622 2593 2668 2561 2623 2648 2704 2605 2673 2647 2689 2636 2758 2641 2789 2817 2672 2735 2654 2748 2747 2698 2844 2947 2892 2927 2910 2905 2831 2848 2966 2925 2998 3007 2885 3021 2982 2836 3034 3009 2916 2978 3135 3038 3119 3014 3045 3035 3096 3084 2993 2949 2999 2970 2977 2994 3004 2988 2972 3030 3056 3036 2992 3009 2977 2933 2985 2932 2926 2911 2793 2971 2866 2945 2881 2973 2932 2954 2950 2955 2997 2826 2876 2889 2883 2840 2924 2942 2895 2922 2805 2959 2903 2975 2912 2980 2813 2913 2916 2903 2876 2816 2922 2911 2865 2754 2933 2901 2715 2752 2819 2883 2836 2808 2830 2770 2748 2769 2742 2766 2721 2632 2831 2691 2734 2722 2742 2687 2778 2679 2672 2719 2616 2790 2724 2697 2706 2728 2656 2580 2729 2741 2652 2757 2547 2713 2730 2623 2685 2694 2726 2626 2725 2681 2664 2722 2593 2743 2644 2679 2697 2720 2635 2669 2637 2565 2624 2660 2633 2636 2695 2627 2572 2734 2559 2645 2659 2620 2625 2610 2449 2671 2597 2577 2560 2594 2658 2622 2578 2612 2610 2722 2604 2608 2581 2534 2610 2598 2677 2585 2536 2598 2648 2714 2579 2631 2655 2642 2522 2579 2690 2661 2627 2661 2686 2555 2715 2664 2616 2602 2651 2676 2688 2663 2591 2702 2613 2665 2660 2743 2777 2631 2712 2635 2667 2653 2616 2563 2648 2763 2612 2660 2635 2587 2670 2674 2620 2696 2613 2756 2613 2694 2742 2632 2697 2709 2640 2707 2639 2721 2671 2612 2682 2574 2636 2690 2665 2664 2601 2569 2680 2697 2640 2531 2673 2658 2666 2658 2666 2717 2713 2577 2648 2588 2661 2614 2627 2688 2610 2586 2610 2533 2567 2632 2662 2549 2576 2692 2699 2607 2656 2606 2674 2649 2586 2479 2619 2525 2612 2640 2613 2589 2558 2562 2506 2621 2553 2500 2676 2529 2640 2649 2595 2467 2508 2497 2561 2614 2563 2474 2584 2572 2592 2503 2634 2574 2629 2536 2510 2627 2540 2429 2560 2488 2575 2503 2464 2617 2454 2563 2533 2587 2539 2547 2507 2546 2564 2607 2645 2632 2553 2539 2577 2518 2613 2639 2553 2477 2555 2564 2592 2610 2654 2532 2557 2524 2557 2468 2594 2555 2613 2600 2558 2544 2549 2523 2527 2584 2511 2592 2536 2492 2456 2659 2542 2605 2496 2657 2540 2490 2544 2596 2513 2627 2636 2575 2552 2450 2544 2508 2587 2562 2501 2583 2471 2590 2519 2486 2547 2566 2596 2596 2557 2567 2522 2551 2499 2479 2608 2552 2600 2535 2514 2504 2514 2589 2539 2507 2589 2554 2547 2574 2543 2583 2441 2591 2516 2500 2524 2573 2523 2526 2518 2463 2540 2623 2506 2515 2486 2510 2563 2407 2426 2561 2508 2544 2459 2588 2449 2516 2497 2513 2452 2544 2512 2544 2543 2583 2542 2478 2498 2505 2548 2557 2517 2448 2440 2530 2646 2531 2534 2573 2525 2562 2550 2491 2559 2602 2557 2558 2511 2566 2481 2577 2382 2612 2419 2561 2467 2588 2553 2448 2514 2530 2567 2518 2515 2523 2479 2495 2558 2555 2465 2514 2604 2501 2410 2610 2555 2559 2523 2517 2384 2560 2526 2599 2553 2629 2461 2562 2542 2482 2519 2507 2569 2424 2571 2441 2572 2511 2634 2542 2474 2557 2524 2484 2487 2520 2555 2545 2498 2585 2485 2560 2449 2489 2416 2587 2549 2502 2572 2464 2515 2568 2501 2515 2579 2542 2489 2493 2522 2596 2491 2528 2433 2503 2508 2573 2485 2497 2637 2496 2573 2520 2639 2434 2472 2465 2544 2513 2519 2495 2529 2516 2526 2456 2540 2505 2489 2578 2437 2427 2616 2537 2479 2505 2644 2504 2511 2478 2535 2622 2503 2506 2546 2559 2580 2528 2559 2513 2516 2514 2565 2512 2525 2518 2469 2523 2466 2530 2510 2489 2525 2524 2551 2480 2467 2564 2458 2510 2483 2403 2487 2466 2524 2489 2499 2526 2564 2498 2527 2537 2419 2483 2506 2514 2449 2477 2475 2471 2481 2497 2516 2414 2528 2532 2486 2592 2493 2530 2472 2556 2613 2512 2503 2517 2535 2467 2568 2517 2454 2549 2460 2468 2517 2582 2463 2466 2527 2433 2587 2483 2510 2485 2474 2478 2469 2601 2518 2655 2523 2394 2575 2420 2526 2529 2412 2559 2528 2561 2665 2613 2551 2418 2477 2480 2558 2591 2563 2465 2534 2556 2621 2592 2547 2485 2654 2511 2553 2647 2584 2542 2562 2496 2558 2492 2588 2610 2559 2606 2573 2502 2525 2572 2523 2568 2596 2543 2459 2582 2615 2610 2613 2569 2603 2512 2546 2414 2524 2497 2530 2515 2522 2594 2570 2503 2556 2610 2520 2520 2635 2487 2599 2476 2615 2474 2492 2566 2551 2525 2604 2533 2513 2563 2575 2410 2575 2530 2530 2566 2539 2426 2526 2548 2557 2593 2530 2623 2551 2577 2542 2533 2538 2564 2491 2525 2585 2591 2556 2572 2573 2474 2539 2638 2544 2524 2474 2533 2474 2531 2655 2645 2547 2548 2594 2539 2538 2604 2543 2694 2497 2455 2480 2545 2499 2613 2513 2444 2572 2570 2632 2520 2528 2525 2597 2458 2489 2463 2463 2563 2463 2545 2582 2619 2543 2573 2547 2561 2451 2531 2554 2552 2667 2449 2506 2596 2569 2596 2644 2502 2506 2541 2608 2531 2432 2559 2515 2442 2526 2596 2500 2497 2483 2484 2579 2563 2517 2561 2473 2540 2617 2594 2399 2511 2438 2544 2510 2583 2527 2506 2559 2526 2536 2495 2572 2530 2574 2487 2604 2566 2527 2511 2591 2536 2509 2469 2574 2421 2543 2551 2548 2527 2590 2512 2517 2532 2462 2572 2485 2585 2615 2509 2541 2470 2586 2528 2601 2509 2495 2503 2625 2542 2523 2564 2515 2501 2499 2501 2575 2530 2555 2517 2560 2603 2497 2528 2488 2469 2570 2565 2491 2516 2479 2495 2523 2498 2449 2582 2436 2493 2538 2507 2578 2538 2448 2508 2613 2512 2569 2512 2523 2486 2483 2447 2536 2591 2433 2632 2505 2532 2482 2494 2655 2575 2515 2543 2488 2487 2556 2563 2555 2595 2615 2533 2512 2613 2637 2553 2651 2548 2685 2553 2660 2549 2674 2498 2577 2653 2601 2605 2589 2519 2727 2637 2699 2596 2680 2614 2517 2621 2643 2678 2713 2599 2701 2696 2644 2724 2769 2665 2674 2693 2707 2732 2740 2625 2681 2637 2624 2727 2707 2696 2648 2592 2626 2585 2766 2646 2627 2768 2714 2683 2770 2621 2662 2633 2689 2565 2611 2674 2664 2682 2655 2678 2625 2637 2560 2731 2628 2525 2709 2647 2657 2806 2570 2613 2661 2714 2660 2721 2641 2718 2650 2696 2738 2673 2770 2747 2603 2632 2665 2660 2693 2650 2733 2671 2750 2683 2736 2771 2716 2754 2664 2608 2611 2692 2718 2600 2615 2667 2649 2614 2659 2641 2593 2656 2687 2536 2661 2554 2579 2668 2712 2626 2598 2695 2626 2574 2605 2592 2678 2518 2577 2645 2610 2645 2604 2508 2538 2627 2555 2606 2610 2616 2599 2596 2567 2557 2459 2400 2656 2572 2553 2553 2677 2643 2437 2539 2510 2499 2476 2595 2601 2533 2649 2607 2621 2492 2512 2469 2563 2583 2491 2543 2593 2563 2596 2576 2588 2533 2579 2620 2556 2557 2485 2576 2528 2623 2585 2576 2747 2582 2513 2511 2627 2544 2550 2494 2524 2563 2542 2611 2556 2465 2511 2622 2535 2588 2603 2494 2502 2539 2566 2497 2581 2533 2500 2521 2581 2592 2479 2607 2440 2523 2589 2529 2545 2528 2484 2597 2569 2544 2527 2560 2492 2491 2544 2488 2536 2594 2482 2521 2508 2430 2626 2467 2650 2478 2547 2537 2591 2484 2442 2563 2540 2487 2564 2463 2533 2537 2562 2480 2511 2503 2565 2503 2543 2521 2525 2574 2600 2598 2506 2523 2495 2483 2524 2546 2535 2458 2487 2523 2484 2588 2603 2547 2492 2497 2522 2506 2524 2508 2468 2499 2525 2476 2554 2565 2529 2507 2519 2461 2528 2559 2511 2514 2555 2510 2592 2498 2557 2429 2488 2515 2578 2462 2536 2559 2525 2495 2600 2486 2554 2533 2517 2600 2530 2483 2499 2548 2529 2625 2529 2578 2500 2492 2517 2493 2496 2518 2559 2616 2516 2508 2531 2497 2522 2538 2511 2530 2523 2488 2439 2440 2513 2440 2540 2535 2513 2515 2468 2613 2557 2523 2536 2500 2527 2512 2480 2506 2560 2585 2613 2538 2474 2515 2483 2543 2564 2538 2552 2427 2519 2567 2523 2482 2412 2519 2482 2570 2533 2497 2515 2559 2600 2516 2474 2548 2547 2490 2502 2473 2540 2498 2464 2570 2563 2446 2449 2566 2471 2527 2483 2530 2473 2516 2580 2446 2475 2533 2517 2530 2536 2412 2565 2536 2477 2499 2563 2574 2519 2532 2411 2520 2545 2406 2552 2511 2547 2637 2563 2537 2535 2531 2462 2526 2529 2611 2438 2497 2547 2543 2462 2531 2553 2440 2509 2466 2547 2424 2479 2510 2540 2462 2526 2513 2474 2528 2520 2544 2550 2499 2553 2532 2531 2512 2482 2501 2449 2520 2407 2528 2526 2615 2516 2479 2514 2454 2592 2509 2451 2479 2582 2566 2555 2476 2548 2591 2581 2549 2513 2560 2477 2439 2560 2497 2518 2517 2489 2561 2543 2515 2621 2505 2574 2651 2504 2525 2615 2575 2523 2554 2499 2538 2488 2451 2545 2542 2557 2544 2461 2502 2534 2500 2459 2493 2519 2443 2497 2543 2471 2575 2480 2554 2544 2531 2485 2514 2538 2634 2463 2487 2536 2566 2502 2567 2615 2554 2566 2413 2550 2517 2523 2518 2512 2508 2498 2465 2500 2535 2481 2617 2426 2539 2474 2508 2571 2512 2531 2488 2542 2437 2472 2572 2565 2473 2526 2441 2532 2480 2564 2527 2520 2524 2498 2603 2628 2541 2528 2538 2572 2573 2531 2547 2437 2517 2502 2508 2438 2449 2553 2542 2551 2575 2500 2517 2498 2444 2510 2542 2396 2578 2551 2465 2537 2473 2475 2550 2549 2616 2522 2559 2475 2567 2511 2511 2551 2438 2520 2536 2480 2584 2474 2547 2561 2622 2569 2535 2403 2511 2553 2467 2561 2564 2529 2510 2536 2497 2502 2501 2500 2546 2494 2568 2592 2547 2571 2413 2602 2552 2596 2582 2567 2506 2562 2636 2557 2609 2599 2628 2538 2662 2615 2523 2602 2554 2665 2606 2570 2591 2570 2621 2454 2581 2451 2569 2611 2617 2655 2550 2594 2610 2571 2582 2560 2526 2584 2531 2575 2616 2582 2721 2531 2571 2573 2608 2604 2509 2568 2575 2582 2628 2516 2582 2641 2558 2606 2512 2684 2620 2608 2620 2603 2639 2619 2692 2649 2685 2611 2599 2637 2809 2587 2569 2644 2618 2549 2645 2684 2686 2689 2594 2662 2625 2686 2679 2716 2631 2676 2600 2629 2656 2542 2677 2538 2624 2647 2604 2733 2658 2631 2555 2703 2698 2678 2607 2572 2600 2595 2592 2623 2632 2578 2592 2628 2604 2669 2512 2501 2629 2568 2631 2576 2551 2566 2611 2663 2638 2529 2716 2625 2610 2735 2568 2689 2696 2636 2653 2724 2668 2648 2635 2678 2666 2717 2710 2672 2643 2639 2610 2708 2743 2656 2663 2781 2694 2698 2612 2603 2680 2606 2649 2748 2704 2698 2612 2641 2542 2650 2692 2624 2631 2617 2580 2559 2645 2554 2712 2632 2638 2521 2599 2542 2525 2563 2644 2529 2565 2638 2627 2533 2584 2565 2627 2616 2579 2575 2575 2493 2637 2588 2637 2582 2550 2548 2593 2534 2544 2526 2670 2663 2578 2563 2627 2531 2577 2616 2639 2444 2513 2597 2610 2536 2490 2570 2618 2575 2592 2621 2570 2598 2544 2602 2625 2505 2559 2631 2512 2639 2592 2581 2557 2610 2558 2501 2543 2597 2570 2523 2551 2663 2601 2533 2563 2616 2600 2585 2670 2570 2567 2578 2577 2692 2537 2642 2605 2561 2614 2537 2604 2597 2629 2603 2614 2715 2581 2723 2634 2666 2608 2640 2664 2716 2625 2696 2646 2767 2840 2737 2849 2792 2700 2860 2671 2718 2753 2742 2762 2813 2747 2811 2819 2874 2929 2928 2929 2908 2996 2975 2914 2868 2857 2862 2949 2971 2929 3042 2896 3027 2877 2907 2883 2845 2977 2934 2926 2907 2877 2802 2882 2861 2897 2867 2871 2820 2790 2915 2830 2879 2877 2777 2776 2818 2772 2715 2673 2795 2674 2866 2751 2826 2821 2710 2757 2857 2807 2791 2773 2693 2663 2766 2782 2874 2727 2758 2664 2713 2764 2835 2865 2827 2798 2875 2874 2875 2870 2843 2793 2890 2802 2862 2878 2878 2806 2885 2712 2896 2860 2845 2902 2831 2871 2785 2938 2921 2912 2802 2823 2840 2818 2856 2890 2851 2842 2770 2819 2779 2798 2680 2755 2722 2782 2762 2795 2735 2728 2695 2662 2735 2686 2709 2763 2749 2619 2720 2686 2671 2694 2713 2751 2699 2682 2750 2692 2597 2672 2685 2738 2595 2709 2722 2603 2663 2641 2705 2571 2675 2673 2556 2685 2673 2580 2612 2614 2640 2628 2693 2576 2722 2686 2634 2526 2670 2546 2586 2604 2570 2513 2727 2631 2610 2666 2641 2670 2634 2589 2678 2640 2608 2681 2659 2679 2647 2576 2641 2577 2634 2634 2621 2735 2714 2638 2614 2618 2747 2674 2683 2679 2580 2608 2611 2572 2576 2647 2572 2630 2612 2584 2590 2609 2637 2595 2661 2628 2628 2660 2623 2625 2572 2532 2614 2660 2638 2609 2606 2575 2736 2583 2487 2612 2628 2603 2583 2618 2727 2578 2532 2659 2602 2588 2578 2560 2670 2644 2658 2637 2595 2536 2539 2658 2632 2586 2618 2569 2576 2556 2574 2589 2533 2536 2554 2578 2531 2611 2617 2574 2547 2521 2650 2571 2603 2627 2589 2500 2709 2585 2580 2650 2674 2660 2609 2506 2611 2541 2715 2662 2558 2632 2567 2574 2533 2560 2653 2530 2587 2597 2682 2587 2598 2550 2628 2559 2698 2547 2551 2494 2503 2563 2532 2544 2627 2595 2498 2608 2627 2581 2540 2586 2478 2524 2439 2597 2589 2567 2564 2570 2580 2531 2604 2575 2599 2482 2595 2548 2578 2540 2612 2502 2508 2540 2509 2627 2519 2543 2558 2495 2556 2629 2598 2540 2578 2562 2422 2443 2492 2621 2516 2571 2574 2498 2629 2505 2505 2528 2569 2502 2599 2540 2512 2613 2603 2566 2530 2584 2573 2498 2536 2477 2527 2535 2599 2536 2480 2483 2477 2536 2524 2568 2609 2566 2543 2415 2494 2471 2603 2500 2566 2602 2513 2561 2591 2603 2554 2502 2542 2554 2514 2539 2489 2499 2613 2566 2560 2491 2638 2532 2581 2512 2624 2497 2532 2533 2529 2519 2572 2589 2584 2449 2616 2458 2614 2596 2585 2584 2466 2564 2537 2573 2485 2597 2643 2549 2547 2590 2513 2503 2495 2557 2515 2537 2511 2560 2549 2616 2521 2528 2498 2490 2538 2523 2490 2547 2550 2575 2551 2460 2500 2496 2547 2646 2549 2584 2547 2561 2403 2504 2509 2503 2571 2508 2551 2484 2498 2589 2516 2590 2631 2625 2503 2552 2628 2566 2521 2502 2592 2473 2564 2583 2562 2510 2486 2598 2502 2505 2546 2496 2545 2478 2564 2589 2426 2539 2599 2576 2632 2577 2464 2456 2637 2526 2553 2590 2571 2611 2530 2525 2580 2386 2488 2563 2481 2651 2541 2534 2600 2581 2517 2446 2581 2491 2557 2527 2492 2515 2499 2542 2655 2568 2520 2562 2574 2577 2600 2599 2542 2520 2466 2500 2523 2583 2496 2444 2577 2594 2615 2579 2548 2583 2598 2473 2604 2545 2531 2532 2555 2578 2596 2628 2597 2475 2484 2501 2556 2610 2523 2505 2543 2564 2620 2502 2519 2548 2525 2563 2489 2553 2572 2591 2505 2457 2550 2535 2491 2538 2482 2608 2571 2585 2462 2624 2567 2565 2551 2597 2475 2539 2569 2539 2607 2524 2519 2501 2544 2536 2486 2585 2477 2488 2572 2645 2658 2658 2669 2583 2455 2618 2574 2496 2616 2499 2520 2607 2514 2573 2551 2491 2636 2544 2539 2515 2579 2502 2593 2468 2607 2569 2623 2520 2563 2456 2596 2630 2569 2595 2558 2531 2620 2599 2512 2621 2535 2529 2509 2539 2654 2506 2622 2597 2572 2534 2590 2608 2649 2566 2618 2517 2582 2602 2645 2613 2481 2604 2582 2564 2533 2510 2552 2414 2576 2652 2525 2578 2525 2528 2521 2518 2574 2564 2585 2521 2483 2627 2519 2506 2532 2582 2572 2573 2577 2590 2596 2561 2637 2591 2502 2514 2543 2488 2718 2492 2513 2623 2653 2599 2576 2575 2545 2589 2651 2561 2572 2563 2608 2665 2463 2604 2561 2593 2590 2573 2577 2643 2623 2514 2591 2468 2608 2608 2535 2506 2541 2506 2526 2537 2613 2523 2512 2553 2477 2503 2621 2555 2603 2399 2555 2506 2636 2587 2507 2628 2595 2511 2539 2584 2574 2496 2567 2557 2529 2519 2467 2639 2527 2470 2564 2596 2606 2485 2590 2518 2553 2551 2605 2532 2594 2541 2536 2635 2582 2611 2611 2549 2535 2540 2577 2527 2553 2463 2537 2498 2510 2506 2610 2495 2603 2546 2634 2597 2592 2625 2508 2556 2494 2528 2617 2516 2630 2611 2484 2464 2567 2481 2539 2622 2545 2609 2472 2571 2506 2557 2545 2571 2540 2451 2564 2591 2449 2575 2573 2567 2516 2616 2489 2562 2529 2617 2656 2586 2505 2540 2692 2573 2609 2544 2554 2576 2513 2548 2577 2577 2535 2623 2582 2571 2536 2508 2592 2612 2532 2603 2495 2586 2557 2592 2574 2610 2620 2604 2554 2547 2581 2577 2600 2640 2558 2613 2594 2577 2606 2608 2602 2630 2562 2588 2638 2593 2680 2573 2641 2627 2679 2759 2620 2670 2708 2666 2623 2733 2758 2785 2780 2744 2826 2731 2735 2716 2774 2815 2766 2774 2823 2748 2735 2843 2734 2803 2819 2713 2737 2831 2752 2715 2783 2795 2733 2790 2718 2746 2822 2753 2785 2743 2722 2797 2804 2698 2696 2856 2772 2694 2763 2697 2780 2643 2728 2746 2682 2722 2696 2685 2802 2662 2617 2668 2792 2818 2630 2622 2687 2781 2601 2704 2680 2652 2622 2826 2661 2672 2607 2719 2674 2705 2691 2686 2653 2677 2775 2747 2620 2553 2776 2673 2702 2738 2760 2745 2854 2686 2835 2727 2806 2654 2777 2711 2708 2699 2778 2890 2863 2799 2763 2821 2849 2694 2768 2813 2747 2703 2779 2776 2774 2723 2780 2696 2718 2802 2741 2733 2815 2743 2799 2832 2783 2674 2807 2809 2678 2696 2695 2738 2735 2743 2777 2640 2659 2755 2754 2628 2603 2657 2628 2682 2749 2703 2617 2651 2735 2674 2601 2671 2727 2671 2742 2640 2599 2578 2662 2533 2573 2623 2669 2561 2636 2625 2640 2755 2678 2513 2679 2664 2610 2684 2626 2640 2732 2626 2624 2571 2596 2562 2561 2626 2576 2583 2804 2668 2659 2619 2640 2589 2667 2646 2614 2632 2609 2682 2621 2743 2668 2554 2622 2645 2627 2635 2560 2520 2649 2554 2747 2614 2711 2604 2696 2688 2631 2570 2602 2561 2589 2515 2624 2551 2622 2529 2651 2487 2617 2648 2580 2602 2604 2564 2624 2573 2705 2596 2602 2580 2626 2667 2580 2618 2591 2489 2586 2507 2588 2585 2607 2609 2576 2662 2643 2627 2637 2628 2576 2590 2501 2613 2598 2496 2656 2554 2477 2623 2493 2580 2666 2592 2527 2513 2586 2641 2623 2658 2583 2565 2609 2586 2541 2476 2516 2640 2610 2643 2596 2565 2613 2596 2601 2450 2559 2622 2539 2584 2578 2631 2598 2587 2613 2599 2646 2480 2647 2517 2606 2510 2499 2557 2560 2544 2643 2579 2563 2620 2603 2531 2546 2617 2447 2545 2652 2573 2537 2640 2529 2638 2515 2593 2546 2588 2540 2624 2585 2660 2608 2508 2562 2616 2501 2614 2659 2535 2541 2578 2517 2483 2568 2690 2618 2545 2517 2574 2587 2557 2503 2494 2545 2600 2705 2568 2537 2613 2522 2604 2515 2648 2553 2659 2570 2586 2563 2544 2526 2593 2655 2644 2573 2606 2535 2582 2580 2634 2510 2509 2476 2510 2548 2567 2542 2585 2553 2591 2485 2533 2638 2666 2563 2626 2522 2675 2525 2557 2492 2674 2500 2571 2533 2505 2554 2590 2641 2574 2559 2516 2493 2549 2525 2566 2488 2514 2563 2543 2483 2684 2464 2515 2490 2526 2555 2632 2521 2551 2471 2535 2592 2498 2596 2484 2629 2540 2552 2589 2573 2576 2610 2632 2631 2599 2634 2564 2526 2464 2577 2623 2585 2549 2514 2532 2607 2569 2619 2519 2661 2530 2597 2556 2534 2547 2569 2494 2623 2576 2639 2594 2572 2591 2541 2473 2554 2514 2519 2563 2585 2503 2550 2605 2513 2508 2573 2546 2619 2552 2574 2478 2557 2636 2555 2570 2468 2514 2573 2560 2539 2509 2488 2483 2512 2491 2533 2518 2579 2552 2510 2484 2525 2529 2612 2582 2514 2539 2507 2519 2550 2634 2577 2510 2566 2642 2538 2620 2520 2512 2612 2528 2586 2528 2648 2575 2600 2512 2562 2586 2499 2545 2658 2481 2503 2449 2556 2499 2547 2636 2604 2570 2539 2524 2430 2676 2533 2581 2515 2589 2453 2598 2533 2551 2543 2605 2537 2507 2549 2582 2539 2571 2577 2594 2635 2593 2606 2732 2559 2543 2559 2570 2581 2589 2554 2588 2523 2569 2534 2556 2651 2587 2627 2686 2623 2483 2562 2616 2587</counts>
			</dataPoints>
		</scan>
	</xrdMeasurement>
</xrdMeasurements>
