<?xml version="1.0"?>
<xrdMeasurements xmlns="http://www.xrdml.com/XRDMeasurement/2.3" xmlns:xsi="http://www.w3.org/2001/XMLSchema-instance" xsi:schemaLocation="http://www.xrdml.com/XRDMeasurement/2.3 http://www.xrdml.com/XRDMeasurement/2.3/XRDMeasurement.xsd" status="Completed" recordIdentifier="{F9BFE5D4-2889-49DD-8556-835F191010A8}">
	<comment>
		<entry/>
	</comment>
	<sample type="To be analyzed">
		<id>GPSS_Li1p8Mn0p8Cr0p2Cl4_111225_691549b847a6a0fd7c6580c2</id>
		<name></name>
		<preparedBy></preparedBy>
	</sample>
	<xrdMeasurement measurementType="Scan" status="Completed" sampleMode="Reflection">
		<usedWavelength intended="K-Alpha 1">
			<kAlpha1 unit="Angstrom">1.5405980</kAlpha1>
			<kAlpha2 unit="Angstrom">1.5444260</kAlpha2>
			<kBeta unit="Angstrom">1.3922500</kBeta>
			<ratioKAlpha2KAlpha1>0.5000</ratioKAlpha2KAlpha1>
		</usedWavelength>
		<incidentBeamPath>
			<radius unit="mm">145.00</radius>
			<xRayTube id="1010048" name="Empyrean Cu LFF HR (9430 033 7310x)">
				<tension unit="kV">40.0</tension>
				<current unit="mA">15.0</current>
				<anodeMaterial>Cu</anodeMaterial>
				<focus type="Line">
					<length unit="mm">12.0</length>
					<width unit="mm">0.4</width>
					<takeOffAngle unit="deg">6.0</takeOffAngle>
				</focus>
			</xRayTube>
			<sollerSlit id="21010002" name="Soller slits 0.04 rad.">
				<opening unit="rad">0.0400</opening>
			</sollerSlit>
			<mask id="22031000" name="Fixed mask 13 mm">
				<width unit="mm">9.00</width>
			</mask>
			<divergenceSlit id="22120001" name="Divergence slit 1°" xsi:type="fixedDivergenceSlitType">
				<distanceToSample unit="mm">50.00</distanceToSample>
				<height unit="mm">1.52</height>
			</divergenceSlit>
		</incidentBeamPath>
		<sampleMovement xsi:type="spinningSampleMovementType">
			<spinnerRevolutionTime unit="seconds">1.0</spinnerRevolutionTime>
		</sampleMovement>
		<diffractedBeamPath>
			<radius unit="mm">145.00</radius>
			<antiScatterSlit id="22090040" name="AS slit 9 mm (PIXcel)" xsi:type="fixedAntiScatterSlitType">
				<height unit="mm">9.00</height>
			</antiScatterSlit>
			<sollerSlit id="21020003" name="Large Soller slits 0.04 rad.">
				<opening unit="rad">0.0400</opening>
			</sollerSlit>
			<filter id="20030001" name="Large beta-filter Nickel">
				<material>Ni</material>
				<thickness unit="mm">0.020</thickness>
			</filter>
			<detector id="7010019" name="PIXcel1D-Medipix3 detector" xsi:type="rtmsDetectorType">
				<phd unit="keV">
					<lowerLevel>4.02</lowerLevel>
					<upperLevel>11.27</upperLevel>
				</phd>
				<mode>Scanning</mode>
				<activeLength unit="deg">5.542</activeLength>
			</detector>
		</diffractedBeamPath>
		<scan appendNumber="0" mode="Continuous" scanAxis="Gonio" status="Completed">
			<header>
				<startTimeStamp>2025-11-16T14:21:53-08:00</startTimeStamp>
				<endTimeStamp>2025-11-16T14:30:00-08:00</endTimeStamp>
				<author>
					<name>AutomatedUser</name>
				</author>
				<source>
					<applicationSoftware version="1.7b (136)">PANalytical Aeris Instrument Suite</applicationSoftware>
					<instrumentControlSoftware version="3.2.00000000 20240306">AERIS</instrumentControlSoftware>
					<instrumentID>950485</instrumentID>
				</source>
			</header>
			<dataPoints>
				<positions axis="2Theta" unit="deg">
					<startPosition>10.00943322</startPosition>
					<endPosition>99.99442286</endPosition>
				</positions>
				<positions axis="Omega" unit="deg">
					<startPosition>5.00471661</startPosition>
					<endPosition>49.99721143</endPosition>
				</positions>
				<commonCountingTime unit="seconds">12.495</commonCountingTime>
				<counts unit="counts">2876 2908 2900 3022 2974 2905 2988 2890 2928 2885 2868 2934 2947 2920 2993 2899 2843 2935 3020 2918 2948 3035 2937 2875 2994 2857 2951 2872 2913 2901 3048 2914 2961 2969 2934 2957 2907 2874 2888 2929 2920 2876 2898 2945 2891 2879 2924 2979 2905 2950 2913 2978 2973 2997 3010 2938 3027 2958 2995 3009 2990 2880 2939 2920 2954 2844 2962 3008 2853 3037 3007 2896 2996 3004 3045 2943 2982 3109 2836 2983 2861 3009 3055 2936 3033 3022 2999 3092 3023 3042 2999 3009 2944 3132 3050 3025 2968 3025 3126 2966 2958 2943 3020 3149 3135 3026 3109 3051 3016 3095 2999 3032 3018 2976 3019 2992 3081 3090 3023 3018 3038 3059 3108 3031 3106 3040 3055 3084 3089 3114 3103 3015 3082 3094 3153 3230 3185 3092 3107 3162 3156 3203 3150 3193 3168 3041 3110 3143 3037 3195 3132 3003 3087 3100 3056 3076 3087 3062 3133 3099 3135 3083 3109 3121 3141 3154 3066 3110 2993 3156 3147 3122 3049 3205 3065 3039 3027 3144 3185 3083 3082 3168 3066 3175 3024 3042 3069 3042 3059 3069 3073 3066 3062 3074 3211 3054 3127 3105 3167 3018 3068 3162 3055 3107 3050 3116 2963 3158 3035 3050 3189 3018 3000 3044 3091 3075 3094 3007 2987 3060 3024 3003 2968 3044 2978 3108 2948 3035 2927 3053 3037 3063 2935 3026 3072 3065 2973 3116 2961 3114 2972 3070 3073 2955 3098 3002 2944 3010 3039 2980 3070 3087 3009 2952 2903 2995 2975 2892 2904 2948 3060 3059 3016 2940 2983 2879 3019 2898 2984 2954 3025 2973 2887 2945 2960 2983 2982 2877 2969 2845 2992 2995 2940 2957 2931 3066 2963 2992 2942 2991 2975 3003 2999 3038 2994 3018 2952 2915 3024 2920 2970 2994 2942 2835 2932 2952 3032 2947 3049 3010 3056 3024 3109 2968 3030 2968 3025 2952 3064 3012 3103 3048 3017 3048 3083 3058 3118 3113 3016 3035 3034 2962 3022 3163 2969 3118 3147 2992 3126 3027 3076 3011 3043 3038 3153 3077 3067 3120 3150 3129 3176 3138 3093 3119 3178 3092 3094 3022 3133 3029 3194 3137 3034 3123 3122 3197 3159 3232 3319 3197 3146 3232 3196 3160 3149 3153 3210 3260 3332 3176 3229 3198 3341 3152 3275 3221 3102 3164 3287 3283 3351 3287 3293 3335 3368 3279 3330 3338 3351 3287 3301 3291 3410 3345 3389 3482 3445 3502 3395 3556 3501 3419 3629 3602 3653 3683 3539 3753 3636 3788 3681 3749 3955 3856 3832 3897 3875 3977 4032 3971 3939 4162 3906 4176 4147 4289 4180 4304 4279 4450 4373 4347 4419 4271 4259 4358 4220 4143 4089 4019 3987 3973 3878 3853 3840 3740 3868 3801 3818 3739 3796 3775 3919 3904 3924 3777 3819 3769 3845 3923 3985 3877 3986 3982 3970 3851 4004 3949 4026 4092 4020 4090 4141 4249 4311 4130 4153 4218 4251 4287 4128 4278 4097 4254 4211 4197 4219 4195 4161 4039 4041 4141 3971 4002 3940 3953 3852 3832 3815 3649 3629 3596 3547 3458 3447 3413 3448 3402 3390 3454 3342 3440 3318 3366 3324 3293 3216 3270 3200 3317 3154 3190 3245 3243 3121 3178 3155 3182 3049 3142 3171 3030 3212 3053 3117 3184 3079 3067 3111 3095 3166 3083 3124 3151 3157 2971 2987 2996 3083 2989 3066 3056 3024 3047 2982 2920 3056 2997 2945 2965 2908 3011 2933 2998 3014 2942 3005 3026 3049 2968 3025 2968 2935 2944 2970 3007 2907 2981 2857 2863 2890 2989 3011 2842 2932 2893 2856 2897 2945 2875 2796 2957 2866 2853 2803 3025 2907 2910 2941 2899 2940 3001 2879 2763 2851 2885 2985 2897 2911 2798 2835 2892 2853 2827 2823 2852 2890 2821 2851 2776 2890 2812 2730 2861 2774 2852 2724 2929 2819 2791 2727 2782 2736 2762 2723 2744 2732 2877 2786 2775 2811 2836 2713 2901 2726 2653 2837 2796 2703 2802 2788 2721 2736 2734 2803 2826 2754 2770 2804 2677 2757 2800 2784 2794 2800 2784 2751 2825 2748 2834 2850 2695 2804 2782 2795 2890 2827 2612 2873 2733 2709 2735 2773 2761 2704 2774 2717 2708 2710 2726 2719 2719 2728 2628 2745 2604 2628 2714 2791 2740 2608 2719 2717 2696 2664 2738 2683 2755 2649 2735 2697 2763 2655 2723 2645 2756 2764 2746 2685 2688 2660 2709 2655 2606 2630 2545 2711 2675 2602 2690 2679 2699 2635 2651 2634 2701 2551 2640 2656 2591 2665 2560 2646 2667 2740 2716 2651 2699 2669 2587 2698 2694 2693 2636 2733 2636 2645 2612 2595 2621 2606 2556 2555 2577 2627 2680 2658 2646 2542 2694 2628 2695 2645 2627 2635 2560 2547 2602 2558 2495 2524 2482 2589 2591 2544 2655 2590 2554 2565 2548 2594 2616 2612 2634 2515 2673 2591 2545 2498 2503 2540 2580 2540 2659 2424 2506 2603 2541 2549 2552 2489 2448 2529 2604 2438 2497 2459 2510 2502 2507 2571 2471 2489 2564 2543 2490 2612 2533 2520 2509 2494 2527 2543 2466 2575 2489 2517 2490 2479 2517 2501 2453 2546 2414 2466 2478 2579 2527 2488 2488 2497 2494 2434 2493 2455 2485 2486 2459 2442 2522 2395 2410 2453 2528 2411 2482 2345 2554 2445 2464 2454 2468 2461 2497 2383 2323 2480 2470 2326 2443 2437 2446 2409 2375 2416 2387 2326 2341 2457 2441 2500 2557 2316 2543 2394 2476 2459 2434 2447 2384 2440 2437 2401 2325 2423 2418 2400 2360 2411 2423 2351 2374 2453 2388 2362 2446 2410 2440 2347 2367 2326 2424 2452 2317 2309 2403 2351 2327 2423 2317 2368 2336 2386 2342 2312 2376 2374 2373 2411 2303 2487 2324 2345 2409 2368 2296 2365 2364 2313 2258 2329 2340 2343 2298 2291 2349 2293 2336 2395 2282 2350 2397 2341 2369 2240 2276 2315 2289 2295 2229 2274 2444 2342 2414 2325 2331 2299 2283 2303 2330 2250 2318 2246 2294 2323 2294 2228 2355 2239 2267 2299 2327 2322 2252 2304 2351 2271 2245 2285 2216 2266 2258 2288 2312 2307 2289 2354 2323 2280 2233 2189 2257 2320 2260 2265 2212 2272 2307 2316 2319 2272 2196 2260 2279 2285 2223 2332 2246 2267 2303 2210 2206 2229 2203 2376 2212 2208 2247 2318 2303 2319 2332 2280 2297 2281 2311 2270 2211 2286 2225 2262 2249 2249 2257 2210 2185 2204 2275 2250 2196 2274 2365 2269 2351 2240 2305 2315 2301 2215 2312 2202 2295 2270 2264 2308 2220 2260 2278 2215 2275 2171 2243 2259 2187 2261 2242 2295 2318 2296 2264 2216 2281 2272 2240 2246 2221 2186 2202 2304 2250 2200 2143 2300 2159 2207 2276 2269 2158 2109 2272 2170 2189 2186 2227 2243 2256 2234 2256 2093 2252 2179 2149 2212 2152 2182 2236 2142 2193 2168 2145 2223 2171 2196 2216 2231 2222 2157 2149 2193 2066 2201 2194 2142 2161 2047 2166 2171 2202 2204 2183 2143 2164 2142 2156 2176 2173 2211 2128 2089 2184 2115 2165 2113 2127 2125 2081 2087 2178 2113 2027 2122 2124 2090 2035 2086 2129 2117 2077 2115 2019 2079 2098 2091 2066 2104 2100 2161 2112 2055 2013 2126 2104 2099 2026 2123 2023 2035 1994 2039 2030 2065 2176 2032 2011 1998 2036 1977 1983 2030 2033 2078 2025 2066 2008 2080 2020 2060 2040 1975 1968 2009 1944 1876 1994 2044 1970 2008 2025 1916 1926 2012 2034 2003 2030 1981 1948 1969 2026 2022 1976 1972 1939 1941 1901 2003 1908 2041 1861 1900 1937 1889 1890 1905 1926 1987 1904 1934 1971 1921 1912 1862 1862 1831 1927 1858 1854 1852 1869 1963 1888 1910 1804 1931 1851 1899 1905 1875 1882 1901 1840 1839 1856 1906 1883 1922 1816 1853 1799 1767 1878 1820 1832 1861 1919 1898 1857 1919 1806 1784 1873 1852 1803 1834 1885 1827 1839 1889 1746 1745 1837 1781 1771 1764 1792 1866 1892 1834 1840 1877 1794 1793 1835 1720 1834 1776 1772 1768 1793 1806 1759 1866 1740 1768 1803 1780 1692 1778 1819 1714 1803 1762 1781 1781 1761 1822 1787 1756 1784 1781 1708 1836 1796 1788 1683 1762 1683 1692 1747 1771 1673 1727 1830 1755 1742 1722 1778 1696 1719 1715 1724 1748 1779 1711 1746 1763 1759 1668 1740 1786 1750 1703 1719 1791 1813 1736 1801 1817 1744 1731 1690 1788 1733 1723 1816 1723 1705 1754 1694 1755 1779 1836 1841 1703 1791 1707 1741 1723 1732 1710 1785 1701 1753 1711 1744 1723 1703 1719 1725 1787 1657 1717 1732 1722 1720 1719 1673 1769 1747 1683 1729 1726 1713 1712 1755 1772 1661 1749 1775 1801 1698 1818 1810 1675 1683 1824 1810 1749 1755 1732 1675 1820 1653 1745 1676 1744 1762 1747 1758 1764 1834 1712 1738 1760 1725 1737 1712 1815 1788 1768 1794 1739 1766 1736 1716 1692 1686 1689 1765 1789 1732 1803 1775 1762 1843 1719 1759 1711 1731 1748 1754 1764 1751 1776 1744 1823 1690 1768 1639 1748 1725 1726 1670 1675 1820 1760 1763 1712 1812 1718 1736 1763 1772 1746 1634 1733 1730 1686 1756 1712 1752 1725 1739 1740 1664 1763 1699 1759 1756 1699 1758 1745 1685 1690 1741 1756 1680 1739 1630 1758 1707 1690 1695 1664 1754 1776 1683 1714 1710 1661 1715 1821 1727 1685 1674 1679 1692 1676 1769 1741 1649 1656 1733 1692 1743 1663 1644 1684 1715 1744 1703 1739 1689 1724 1701 1711 1634 1600 1676 1660 1619 1690 1684 1676 1719 1665 1665 1709 1746 1674 1716 1663 1706 1657 1724 1648 1646 1729 1673 1612 1641 1646 1603 1590 1674 1671 1643 1680 1588 1677 1716 1736 1660 1651 1652 1660 1625 1622 1647 1596 1589 1654 1607 1630 1632 1675 1590 1654 1521 1560 1586 1580 1709 1635 1608 1705 1615 1604 1659 1718 1673 1692 1729 1693 1798 1769 1651 1749 1743 1770 1779 1725 1796 1766 1863 1796 1804 1853 1933 1860 1945 1938 2028 2047 2139 2170 2259 2306 2356 2339 2405 2591 2491 2591 2707 2788 2759 2844 2876 2959 2760 2759 2767 2735 2698 2679 2550 2509 2440 2315 2292 2214 2024 1901 1956 1935 1802 1760 1758 1722 1721 1666 1672 1680 1646 1686 1637 1687 1613 1663 1645 1618 1505 1673 1645 1607 1522 1577 1554 1509 1545 1594 1588 1572 1593 1571 1539 1506 1508 1516 1542 1493 1566 1530 1575 1529 1525 1554 1553 1529 1490 1488 1498 1525 1504 1582 1656 1576 1501 1559 1599 1577 1592 1571 1563 1589 1572 1533 1554 1576 1610 1618 1663 1641 1581 1617 1706 1753 1665 1796 1833 1795 1872 1846 1908 1966 1966 1980 2069 2066 2171 2230 2304 2378 2575 2574 2715 2738 2998 3052 3088 3217 3255 3382 3466 3448 3575 3573 3602 3569 3547 3483 3508 3107 3148 2927 2853 2599 2528 2444 2287 2151 2010 1993 1914 1820 1828 1774 1801 1734 1739 1757 1771 1770 1689 1756 1697 1745 1731 1790 1739 1802 1818 1789 1796 1865 1857 1894 1942 1986 1932 2036 2076 2134 2249 2286 2301 2335 2400 2478 2524 2537 2577 2581 2797 2624 2807 2753 2676 2752 2690 2395 2448 2293 2168 2032 2059 1929 1831 1697 1786 1748 1522 1555 1552 1581 1546 1527 1520 1504 1484 1481 1442 1453 1508 1532 1474 1524 1516 1477 1519 1490 1462 1528 1414 1462 1425 1442 1473 1435 1455 1433 1478 1461 1442 1437 1512 1515 1486 1466 1504 1471 1542 1533 1515 1516 1585 1612 1586 1648 1608 1564 1543 1685 1609 1550 1561 1485 1496 1554 1497 1429 1416 1510 1404 1361 1380 1351 1410 1375 1321 1348 1311 1329 1378 1402 1362 1322 1361 1386 1369 1262 1346 1327 1263 1277 1325 1396 1283 1247 1319 1293 1320 1355 1334 1252 1344 1324 1335 1330 1387 1335 1351 1332 1310 1250 1323 1269 1305 1364 1330 1313 1327 1323 1315 1280 1376 1344 1385 1327 1291 1315 1325 1277 1333 1270 1217 1341 1318 1287 1337 1262 1347 1311 1262 1384 1269 1309 1295 1337 1313 1311 1328 1273 1373 1311 1274 1297 1294 1271 1341 1226 1284 1275 1243 1244 1272 1307 1224 1256 1259 1258 1315 1263 1261 1244 1307 1272 1285 1290 1298 1310 1347 1232 1274 1299 1299 1280 1218 1247 1326 1262 1280 1239 1272 1307 1274 1322 1283 1318 1233 1240 1248 1173 1264 1259 1319 1320 1301 1265 1277 1259 1262 1275 1214 1268 1242 1295 1252 1278 1322 1196 1255 1242 1261 1249 1261 1199 1231 1209 1285 1278 1300 1259 1269 1265 1340 1321 1318 1257 1242 1237 1192 1307 1279 1217 1311 1348 1292 1248 1245 1361 1235 1324 1244 1227 1257 1300 1263 1315 1246 1359 1316 1264 1310 1251 1185 1282 1348 1324 1299 1275 1250 1273 1280 1345 1347 1282 1272 1251 1251 1263 1318 1277 1331 1358 1289 1299 1377 1320 1346 1287 1271 1336 1287 1278 1407 1327 1302 1358 1320 1366 1373 1372 1269 1338 1326 1359 1356 1363 1281 1340 1283 1334 1380 1334 1319 1385 1349 1400 1402 1448 1461 1422 1472 1531 1523 1500 1533 1558 1632 1647 1698 1713 1719 1711 1801 1939 1902 1974 2107 2104 2230 2340 2435 2542 2691 2786 3069 3203 3455 3666 3887 4212 4402 4757 5159 5533 5778 6174 6377 7020 7255 7501 7928 8268 8603 8770 8719 8725 8738 8624 8182 7966 7399 7037 6330 6043 5642 5183 4964 4603 4265 3707 3535 3366 3129 3114 2830 2816 2817 2723 2679 2717 2711 2692 2711 2731 2770 2780 2884 2936 2865 2894 2867 2988 2837 2826 2913 2767 2688 2905 2669 2680 2723 2551 2582 2603 2685 2577 2627 2651 2731 2800 2808 2979 2916 3028 3043 3109 3091 3093 3254 3239 3068 3165 3061 3003 2958 2843 2768 2588 2535 2500 2387 2256 2067 1961 1873 1892 1860 1759 1738 1723 1679 1656 1569 1563 1490 1527 1405 1515 1480 1482 1402 1424 1465 1420 1428 1402 1427 1350 1378 1394 1377 1391 1405 1357 1442 1388 1323 1342 1409 1358 1324 1390 1328 1257 1333 1306 1326 1323 1315 1321 1292 1307 1272 1315 1289 1308 1294 1336 1261 1270 1315 1262 1302 1268 1324 1269 1240 1312 1262 1276 1261 1297 1238 1356 1224 1248 1296 1294 1299 1240 1250 1273 1270 1187 1297 1288 1296 1191 1341 1255 1220 1279 1242 1212 1252 1173 1238 1251 1237 1268 1250 1288 1222 1323 1340 1303 1241 1254 1266 1290 1306 1304 1248 1231 1312 1295 1337 1260 1253 1327 1353 1262 1271 1294 1253 1230 1255 1288 1312 1288 1254 1252 1312 1278 1324 1297 1304 1342 1245 1283 1311 1293 1275 1293 1324 1267 1269 1237 1276 1287 1242 1252 1298 1275 1240 1244 1208 1196 1184 1226 1257 1242 1254 1174 1270 1225 1273 1128 1271 1249 1235 1168 1229 1226 1228 1294 1290 1171 1174 1241 1231 1199 1213 1210 1166 1191 1157 1170 1205 1227 1198 1199 1163 1189 1146 1200 1203 1235 1193 1211 1201 1274 1230 1251 1211 1258 1225 1302 1269 1232 1272 1297 1238 1257 1274 1165 1235 1276 1218 1269 1313 1302 1191 1276 1220 1194 1247 1186 1226 1204 1160 1212 1217 1251 1160 1203 1212 1232 1171 1214 1182 1232 1236 1226 1244 1212 1206 1178 1234 1146 1192 1219 1187 1243 1237 1219 1247 1222 1222 1209 1204 1272 1229 1260 1248 1263 1250 1273 1218 1267 1280 1298 1307 1240 1271 1237 1225 1227 1217 1237 1242 1158 1207 1138 1184 1198 1182 1174 1138 1138 1175 1195 1157 1167 1160 1145 1211 1212 1155 1157 1176 1148 1116 1133 1124 1162 1184 1192 1149 1140 1194 1135 1127 1148 1117 1181 1145 1151 1144 1177 1109 1202 1147 1149 1158 1135 1152 1102 1146 1157 1140 1115 1137 1176 1156 1103 1144 1100 1164 1112 1089 1115 1073 1059 1102 1079 1090 1111 1158 1082 1117 1127 1083 1149 1103 1160 1068 1142 1108 1180 1096 1138 1148 1113 1152 1170 1104 1171 1040 1078 1079 1135 1136 1084 1119 1098 1130 1127 1110 1085 1049 1109 1148 1171 1190 1096 1078 1102 1103 1110 1076 1087 1077 1104 1106 1090 1112 1071 1179 1131 1103 1116 1148 1134 1115 1142 1071 1079 1126 1131 1132 1137 1146 1085 1121 1097 1162 1135 1106 1172 1129 1117 1080 1113 1060 1092 1065 1108 1084 1031 1093 1081 1081 1095 1072 1086 1082 1041 1072 1088 1060 1124 1145 1101 1034 1110 1087 1095 1116 1042 1087 1082 1059 1093 1112 1081 1072 1102 1104 1102 1069 1054 1114 1006 1066 1140 1112 1090 1104 1112 1161 1110 1003 1090 1062 1127 1022 1150 1106 1112 1143 1040 1114 1151 1110 1068 1064 1084 1065 1081 1084 1051 1061 1081 1086 1049 1083 1072 1058 1114 1041 1074 1044 1028 1073 1125 1074 1064 1114 1071 1082 1081 1069 1048 1000 1083 1023 1071 1026 1093 1056 1070 1085 1073 1081 1087 1069 1081 1074 1036 1095 1123 1042 1037 1030 1102 1074 1088 1119 1082 1103 1066 1089 1125 1033 1093 1019 1107 1068 1153 1003 1068 1112 1082 1081 1063 1054 1024 1087 1051 1113 1058 1116 1043 1082 1098 1079 1088 1087 1048 1095 1082 1075 1074 1084 1053 1104 1085 1054 1096 1100 1066 1078 1082 1078 1061 1094 1026 1045 1099 1082 1097 1088 1071 1058 1055 1081 1041 1053 1108 1059 1117 1081 1102 1121 1043 1042 1077 1048 1051 1044 1037 1075 1096 1053 1045 1087 1060 1070 1121 1055 1096 1044 1059 1122 1015 1097 999 1117 1135 1110 1030 1095 1025 1105 1038 1003 1076 1004 1079 1021 1130 1080 1068 1067 1058 1081 1035 1064 1092 1114 1093 1053 1124 1105 1073 1113 1103 1051 1063 1056 1055 1085 1091 1157 1080 1115 1080 1067 1128 1019 1069 1110 1060 1141 1077 1106 1050 1058 1088 1058 1071 1041 1051 1074 1080 1040 1056 1032 1021 1093 1067 1120 1075 986 1083 1058 1073 991 1110 1097 1029 1099 1017 1087 1078 1115 1079 1027 1084 1073 1063 1017 1081 1133 1111 1078 1073 1088 1118 1099 1064 988 1025 1090 1073 1032 1051 1074 1046 1074 1093 1078 1075 1086 1056 1052 1114 1128 1028 1070 1022 1078 1091 1046 1147 1093 1031 1096 1119 1054 1030 1034 1066 1069 1081 1023 1093 1042 1027 1077 1120 987 1025 1075 1065 1044 1069 1093 1096 1065 995 1022 988 1049 1096 1043 1024 1078 1020 1004 1042 961 1020 1024 1015 1050 1101 1016 1046 1077 1058 1084 1042 1016 1026 1066 1060 1042 1045 1132 1088 1037 1041 1061 1086 1048 1047 1067 1053 984 1019 1077 1050 1055 1081 1095 1028 1045 1069 1052 1038 1079 989 1024 1028 1075 1086 1064 1030 1037 1037 1164 1114 1095 1049 1079 1071 1100 986 1080 1029 1080 1130 1038 1023 1039 1029 1058 1055 1051 1104 1118 1007 1079 1037 1091 1015 1044 1047 1040 1081 1081 1031 1042 1098 1097 1055 1062 1010 1017 1066 1114 1118 1102 1113 1113 1083 1109 1121 1144 1118 1134 1191 1179 1223 1235 1197 1222 1147 1230 1292 1325 1397 1446 1417 1404 1477 1504 1609 1574 1730 1690 1741 1769 1830 1884 1886 1822 1850 1798 1778 1782 1712 1684 1577 1561 1496 1519 1489 1434 1382 1432 1308 1348 1294 1251 1196 1166 1171 1156 1172 1174 1201 1112 1154 1062 1147 1110 1124 1101 1141 1128 1069 1132 1111 1059 1060 1069 1098 1076 1144 1101 1103 1048 1121 1077 1105 1101 1057 1060 1094 1063 1077 1116 1128 1117 1069 1050 1070 1067 1088 1100 1091 1092 1123 1008 1080 1172 1009 1097 1190 1119 1149 1173 1141 1184 1121 1160 1179 1140 1188 1168 1197 1148 1215 1216 1163 1222 1195 1121 1213 1115 1182 1143 1105 1147 1138 1115 1117 1127 1187 1109 1145 1066 1134 1141 1063 1096 1093 1046 1020 1007 1047 1129 1067 1070 1091 1055 1026 1065 1002 1019 1060 1120 1084 1084 1068 1034 1044 1046 1071 1057 1106 1062 1058 1031 1072 1075 1034 1098 1021 1122 1081 1112 1071 1084 1045 1124 1086 1027 1025 1010 1075 1038 1111 1062 1012 1083 1064 1090 1108 1064 1068 1079 1069 1037 1066 1065 1140 1010 1053 1071 1041 1056 976 1027 1069 1039 1065 1017 1107 1087 995 1046 1085 1089 1056 1005 986 1000 1108 1034 987 1058 1076 1074 1066 1043 1031 1055 1056 1088 1102 1031 1073 1058 1051 1098 1032 1101 1118 1080 1057 1059 1079 1072 1069 1067 1035 1049 1084 1092 1083 1107 1106 1054 1035 1022 1085 1078 1063 1105 1071 1134 1057 1049 1011 1087 1060 1073 1071 1084 1047 1103 1135 1080 1106 1009 1139 1072 1081 1045 1113 1123 1047 1073 1078 1089 996 1105 1070 1056 1107 1103 1070 1076 1096 1095 1145 1064 1031 1029 1117 1039 994 1041 1099 1067 1072 1012 1052 1049 1107 1073 1050 1090 1044 1089 1025 1069 1015 1087 1118 1057 1086 1018 1056 1128 1073 1082 1061 1037 1080 1049 1155 1065 1013 1058 1043 1114 1043 1051 1062 1101 1089 1088 1021 1090 1073 1068 1082 1064 1126 1092 1045 1109 1130 1087 1122 1067 1085 1069 1102 1106 1155 1099 1132 1140 1149 1170 1202 1245 1135 1153 1173 1119 1140 1189 1188 1200 1230 1207 1259 1278 1347 1314 1339 1431 1405 1522 1522 1525 1665 1621 1718 1841 1817 2062 2041 2282 2396 2662 2825 3096 3250 3572 3833 4211 4374 4709 4882 5104 5181 5396 5560 5501 5408 5360 5355 5059 4985 4697 4374 4159 3942 3883 3643 3491 3331 3170 2997 2835 2643 2355 2131 1995 1883 1791 1713 1492 1566 1456 1512 1403 1417 1414 1366 1345 1383 1322 1270 1295 1297 1227 1340 1177 1241 1289 1270 1181 1270 1250 1269 1206 1287 1251 1195 1265 1208 1338 1203 1188 1256 1191 1190 1292 1235 1193 1212 1265 1289 1228 1241 1196 1197 1230 1230 1293 1207 1215 1264 1289 1341 1349 1340 1397 1360 1401 1392 1458 1444 1552 1486 1606 1613 1689 1602 1686 1759 1803 1816 1823 1816 1813 1912 1779 1852 1797 1835 1783 1838 1752 1698 1644 1743 1632 1713 1683 1542 1624 1537 1520 1466 1431 1392 1324 1342 1268 1258 1222 1238 1207 1191 1173 1198 1225 1152 1084 1163 1133 1203 1188 1114 1132 1144 1100 1091 1120 1139 1025 1131 1091 1102 1053 1113 984 1092 1088 1083 1093 1092 1048 1046 1074 1022 1061 1026 1098 1065 1140 1041 1055 1076 1138 1121 1062 1070 1080 1036 1101 1041 1100 1033 1053 1076 1064 1042 998 1041 1076 1048 1086 1070 1148 1116 1036 1065 1086 1083 1058 1108 1035 1106 1154 1081 1151 1132 1129 1081 1077 1147 1090 1145 1262 1269 1276 1202 1268 1298 1455 1370 1398 1420 1482 1489 1452 1463 1424 1465 1522 1528 1559 1509 1521 1550 1488 1433 1495 1447 1426 1421 1467 1389 1343 1312 1259 1220 1250 1214 1276 1290 1190 1188 1188 1164 1145 1162 1103 1150 1116 1129 1143 1118 1159 1081 1120 1124 1098 1105 1087 987 1086 1116 1128 1053 1090 1119 1078 1091 1057 1162 995 1123 1088 1100 1107 1048 1058 1077 1043 1028 1012 1028 1068 1021 1050 1008 1044 1053 1011 1014 1043 1036 1059 1068 1010 1006 1006 1044 1080 1015 1022 1102 1054 1102 1004 1048 1096 1027 981 996 1034 1016 1038 1079 1027 1003 1065 934 996 999 989 1024 995 1042 1026 1002 1051 996 997 995 951 1001 986 988 1012 973 1006 1053 1002 957 969 1042 1034 1013 1029 1040 1018 986 1055 996 979 965 944 1032 993 1020 975 989 990 988 951 1057 1065 1068 1017 1027 1030 1075 1052 1042 1038 984 1049 1112 1050 1051 1080 1027 1070 1061 1021 1027 1059 1113 1028 1071 1058 1063 1029 1018 950 1006 1010 976 1070 1019 947 1014 996 1016 1038 986 959 1003 991 1007 1045 981 1030 1024 1002 943 996 979 980 997 952 1000 1024 978 986 1002 1010 1017 963 986 1001 996 1005 957 970 1100 1010 960 996 999 973 964 1004 964 978 1059 938 928 983 954 951 906 962 1018 995 942 891 997 986 1003 996 970 1037 1026 950 974 981 994 968 991 911 1029 1011 1027 986 859 963 965 994 982 949 976 981 960 960 1016 990 923 949 963 955 1009 965 1031 962 978 982 929 966 981 961 989 941 934 967 968 949 1029 983 980 953 970 922 972 1002 975 940 996 1017 995 965 1025 932 968 965 942 946 964 969 926 983 1047 946 952 947 1043 985 992 951 983 961 918 931 983 907 982 958 966 1009 900 905 927 1010 898 971 921 967 929 946 955 987 903 961 886 1019 932 911 923 906 970 977 948 949 941 967 959 1003 998 969 981 998 1030 943 946 948 914 985 957 1009 1013 966 938 933 992 1002 980 940 967 944 918 928 1003 993 955 951 934 974 937 944 988 1004 903 975 1010 969 947 966 947 923 959 997 964 980 1004 950 948 959 943 916 982 935 945 998 892 948 899 989 998 1016 936 978 956 948 969 946 963 907 924 1006 995 939 920 935 1019 1002 960 942 933 1025 997 952 983 1002 964 968 934 981 986 996 970 902 927 922 945 972 896 989 963 1018 931 945 977 979 981 896 932 936 945 956 990 959 891 921 962 1004 919 957 955 891 982 895 978 917 996 935 931 896 965 926 931 959 929 875 932 913 901 893 911 947 942 907 929 947 921 929 979 968 947 936 990 933 949 933 957 935 942 933 953 954 955 940 975 956 978 950 981 945 953 911 988 977 966 974 957 967 993 999 943 996 887 950 977 949 1009 1010 986 997 1082 988 1013 1090 1049 1109 1062 1018 1119 1108 1133 1077 1088 1126 1087 1094 1023 1084 1013 1032 1059 1082 986 1004 1077 1062 977 1041 1009 1047 997 976 951 1015 938 999 966 1017 1004 905 1026 1008 1019 964 961 1006 1000 955 1027 980 966 1054 1011 1010 1004 1064 1085 1047 1050 1099 1054 1069 1126 1174 1191 1135 1178 1230 1228 1358 1332 1372 1424 1371 1360 1449 1458 1487 1467 1452 1510 1440 1407 1391 1381 1355 1375 1277 1270 1281 1266 1249 1265 1190 1222 1205 1168 1146 1091 1068 1064 1101 1033 1055 1035 1010 1003 1045 978 1026 999 986 941 930 1005 986 986 937 997 988 923 980 951 980 982 977 971 1040 976 961 933 988 965 988 998 895 997 949 1003 983 991 935 993 1014 981 1019 948 982 910 994 913 986 966 995 1019 961 977 902 982 956 968 1004 938 970 948 1015 931 963 1032 932 936 998 1008 1018 1014 1017 1069 1029 1034 1060 1037 1097 1062 1098 1174 1172 1157 1187 1254 1198 1254 1261 1263 1296 1241 1229 1301 1258 1306 1261 1214 1233 1275 1204 1278 1191 1225 1175 1209 1182 1128 1107 1124 1040 1124 1101 1062 1108 1061 1046 1052 1018 1034 1039 1027 1047 1014 1010 985 1073 973 996 1024 949 928 901 981 949 956 1025 902 1026 984 940 973 934 952 909 915 955 922 1014 982 973 890 923 960 959 932 903 974 943 995 924 915 910 946 924 982 977 929 934 944 965 971 967 926 928 922 895 927 929 982 952 879 913 976 962 993 921 958 942 963 889 941 966 1050 955 903 985 965 929 1029 1015 956 1020 953 994 955 1004 998 1015 991 988 1046 1059 1059 1085 1127 1082 1079 1106 1150 1081 1191 1219 1273 1275 1328 1364 1475 1534 1614 1609 1740 1763 1799 1859 1888 1911 1884 1887 1909 1898 1941 1810 1823 1773 1712 1747 1703 1606 1679 1645 1521 1627 1553 1561 1565 1610 1477 1406 1431 1380 1354 1255 1246 1286 1223 1207 1184 1163 1143 1195 1139 1172 1153 1051 1063 1153 1112 1086 1070 1115 1064 1038 1103 1064 1005 1006 989 1034 1035 1036 1001 1038 1017 1025 988 993 962 991 944 963 978 1048 961 1016 992 918 970 1008 1033 1020 988 962 984 995 942 991 977 948 990 942 975 997 958 1005 965 925 969 1021 964 1013 958 968 1008 966 970 1027 985 925 979 973 953 942 982 984 954 976 1020 1001 1056 1021 1027 1038 1016 1023 1040 1082 1022 1107 1113 1157 1047 1149 1142 1143 1110 1155 1102 1171 1054 1096 1110 1100 1061 1058 1086 1075 1036 1086 1065 1089 1053 1043 1108 1012 1050 1030 1036 1013 1016 966 1043 952 963 901 1004 1023 942 966 937 950 946 930 1015 964 969 980 946 1004 1016 986 1102 1034 1021 1011 1010 1071 1021 1052 1073 1021 1160 1136 1202 1207 1182 1227 1205 1201 1141 1161 1220 1161 1154 1170 1115 1120 1196 1110 1129 1114 1128 1091 1148 1046 1067 1087 1140 1105 1025 1043 1036 1051 1076 1009 959 1012 948 1007 983 989 1000 971 1020 929 1047 1001 1021 999 946 991 1015 949 1024 986 991 967 921 969 901 958 938 984 933 962 931 964 924 985 929 986 932 958 961 961 936 1014 899 942 926 957 936 978 1029 963 969 1000 966 1058 1021 1004 1111 1016 1090 1056 1059 1064 1029 1114 1075 1101 1071 1097 1101 1136 1039 1094 1040 1117 1016 1033 1017 1034 1008 1030 1055 1012 1022 997 985 949 1008 956 972 952 936 954 964 922 928 940 956 958 985 921 926 939 946 891 961 944 953 930 939 912 934 933 887 903 911 911 922 917 970 893 943 905 895 921 955 908 948 858 971 939 950 883 915 935 914 984 975 949 929 955 925 958 990 944 949 972 973 945 993 924 935 961 970 900 918 966 968 930 942 975 960 973 930 951 935 947 1007 966 940 932 917 967 931 939 910 946 919 960 901 914 907 902 950 914 913 926 939 928 965 920 908 981 946 935 935 926 904 922 920 982 885 910 886 850 855 936 962 871 935 930 944 912 948 942 868 903 954 894 948 893 892 866 919 936 928 873 933 926 923 994 963 862 902 889 906 947 970 884 957 917 915 908 902 908 900 912 891 939 983 923 960 955 852 902 950 925 948 905 942 926 971 971 913 929 985 813 891 934 896 971 886 939 932 904 922 896 911 934 910 908 922 950 927 941 880 911 936 840 864 927 946 958 900 878 961 884 950 913 880 981 890 927 902 946 939 934 900 917 906 925 905 950 932 878 988 866 870 939 945 936 894 966 977 860 900 943 882 902 948 880 968 916 911 863 965 924 917 981 949 892 928 953 935 924 875 913 934 878 938 885 853 889 896 928 920 892 932 918 921 903 953 889 930 909 910 904 947 911 925 951 910 918 889 869 896 904 960 894 897 940 910 891 900 936 888 793 935 945 913 937 939 919 931 899 880 931 859 838 898 958 897 852 878 879 899 896 903 900 863 895 901 874 894 928 897 930 953 886 842 904 906 957 888 855 931 973 866 874 928 933 903 932 853 903 978 908 925 950 964 909 923 898 948 926 875 888 914 904 873 862 905 889 921 932 901 1020 925 940 978 902 995 979 982 972 965 970 1032 1028 1002 981 1055 1000 1053 1013 1007 1016 1045 1011 951 1007 969 959 1010 1015 990 977 966 1010 916 938 962 975 1024 963 941 959 949 940 911 950 918 890 940 924 946 883 943 844 892 872 907 861 942 992 867 923 877 919 978 893 911 941 901 891 891 947 921 909 876 954 869 943 849 975 945 894 950 892 890 945 911 965 946 942 957 925 907 891 913 922 931 925 925 874 921 935 918 921 924 880 949 927 945 924 850 904 900 890 859 925 851 950 936 882 919 961 953 885 919 900 887 933 874 871 911 900 913 890 951 921 916 932 938 954 941 922 897 916 924 877 948 935 926 872 927 918 879 900 919 894 920 873 901 940 934 901 905 940 874 883 898 877 908 867 888 877 886 895 921 838 884 893 865 924 864 918 874 936 880 864 912 913 895 882 872 900 867 864 881 867 898 896 922 922 891 881 883 884 911 980 865 840 930 881 871 869 878 878 881 902 939 918 864 921 869 844 900 895 909 890 935 866 879 844 910 897 883 869 886 853 903 876 909 880 869 841 908 900 873 920 952 896 886 889 844 963 902 922 916 879 877 941 903 951 930 933 929 896 881 899 916 903 886 924 898 882 921 885 891 881 904 922 954 890 958 931 1014 898 945 914 934 907 886 929 970 885 925 950 915 994 932 973 935 1004 1012 1030 978 1056 1088 1060 1091 1103 1080 1055 1163 1240 1189 1273 1254 1260 1290 1357 1312 1276 1322 1311 1375 1277 1274 1241 1203 1172 1170 1205 1166 1189 1132 1136 1176 1160 1184 1236 1165 1135 1151 1159 1185 1050 1133 1060 1062 1109 982 951 1042 956 943 985 955 923 988 933 873 933 906 918 918 882 922 979 920 927 946 887 916 957 947 870 862 924 906 980 885 909 897 943 941 953 911 961 978 888 958 929 869 925 940 950 961 954 956 980 953 937 974 920 925 957 970 988 923 953 984 977 962 930 986 1014 943 977 955 930 963 956 970 1037 902 934 945 902 940 908 874 952 908 965 886 901 940 935 864 929 924 919 913 902 898 870 959 899 990 982 872 913 865 939 966 936 930 922 962 929 963 934 925 983 964 967 919 909 970 892 996 989 947 970 994 995 1007 970 983 986 1014 987 945 948 950 994 962 955 987 894 963 991 1020 913 881 933 950 942 964 991 948 898 951 964 944 879 947 895 931 942 906 910 944 908 865 876 902 917 916 911 906 868 869 921 851 882 869 850 901 929 895 967 897 879 916 886 907 881 900 884 888 872 888 859 920 873 913 923 926 928 875 909 885 934 888 937 877 927 924 895 935 902 853 904 825 863 896 894 920 880 898 863 872 920 849 958 883 854 944 889 924 859 896 894 904 862 881 881 887 931 848 886 858 880 907 906 845 868 868 888 915 868 851 893 880 878 812 879 924 877 882 854 895 918 831 867 860 869 843 870 883 859 918 856 867 913 883 945 831 885 842 899 901 912 890 940 888 858 861 883 876 890 862 929 818 870 818 829 853 854 914 868 906 822 859 908 866 890 890 863 889 847 919 853 943 817 847 939 936 905 917 864 875 895 910 893 914 896 815 849 865 889 932 926 863 852 881 855 916 885 915 903 865 910 879 910 841 891 917 904 809 914 846 844 864 880 876 895 906 846 864 859 919 850 820 927 917 883 890 929 846 926 847 840 891 908 947 878 841 862 883 937 886 934 937 951 907 874 933 897 870 856 886 866 889 900 949 905 915 892 877 883 899 861 949 892 832 895 876 891 900 876 896 882 920 867 907 902 844 894 862 876 881 871 908 876 883 855 894 855 895 927 911 840 914 905 864 915 832 926 878 901 850 897 909 815 887 892 901 902 897 884 898 939 869 854 908 924 919 864 880 913 918 882 903 914 824 857 906 880 937 849 878 928 852 869 909 861 853 883 836 847 892 840 884 923 870 829 906 832 872 951 870 851 881 913 839 925 858 912 905 920 838 873 961 896 873 890 879 871 849 913 881 920 903 921 891 851 959 876 930 923 860 893 923 907 911 951 896 882 863 886 922 860 886 877 895 892 858 856 854 882 845 868 869 900 854 881 911 895 896 894 825 842 851 883 917 901 953 884 896 908 875 878 901 914 915 905 884 866 900 896 917 908 856 880 877 886 913 888 931 929 914 949 877 854 875 920 855 909 912 870 922 901 902 938 934 867 898 904 899 900 901 942 923 929 961 947 944 1012 993 1005 1036 959 1033 1042 1061 991 1039 1022 954 1016 976 983 1007 943 990 969 995 938 1007 962 883 981 997 953 942 991 924 983 959 977 960 984 954 933 906 956 971 924 884 929 987 943 896 889 898 954 950 948 972 993 981 966 954 943 1091 986 975 1068 1050 1074 1064 1035 1058 1048 1071 1040 1052 1040 1018 1002 1005 931 1027 955 1045 950 963 998 1011 1007 983 936 967 964 1061 970 1002 950 967 914 900 995 938 972 961 917 918 936 939 924 944 909 899 904 906 902 939 883 926 873 902 850 937 868 927 982 961 905 857 867 941 909 921 909 905 921 886 942 886 890 987 862 866 888 939 917 912 896 864 931 917 923 881 856 884 900 901 969 876 911 941 904 945 890 905 834 891 871 858 905 899 925 904 900 949 970 888 910 894 922 878 959 913 972 912 950 883 932 880 936 888 947 865 903 931 863 924 992 893 886 907 911 868 914 892 933 946 895 902 932 950 898 946 969 929 965 902 917 960 908 933 897 958 931 928 890 873 924 939 1012 924 993 945 963 971 975 948 945 959 987 955 956 986 1013 1006 917 974 995 1006 1008 1027 1002 1013 1006 988 1059 1016 1018 1000 1008 1079 1000 969 1060 1016 981 986 1027 1036 1062 971 1056 1031 1037 1073 1061 980 1066 1058 1055 1108 1019 1141 1156 1081 1171 1128 1185 1198 1286 1216 1307 1367 1411 1499 1558 1570 1701 1665 1710 1733 1707 1705 1800 1667 1656 1626 1689 1537 1543 1437 1400 1408 1402 1406 1348 1410 1428 1497 1429 1454 1581 1588 1462 1486 1478 1433 1433 1428 1287 1328 1254 1276 1257 1200 1197 1174 1084 1079 1082 1088 1088 1020 1085 1085 1051 1089 1092 1073 1021 1027 1000 1006 993 1024 1038 988 969 1017 930 929 945 942 932 997 969 927 997 961 985 919 939 954 988 963 930 917 997 912 976 952 985 974 921 927 958 982 946 981 885 855 949 931 934 931 931 907 957 862 956 895 984 956 916 913 946 912 889 933 960 946 958 974 949 1008 970 979 974 905 948 936 951 897 992 922 973 950 921 946 897 900 985 922 931 984 937 933 954 923 970 920 947 940 959 926 915 939 919 897 863 930 945 992 882 945 951 964 946 963 969 956 973 1006 1000 1008 987 1078 1001 1061 1028 1064 1005 1083 1068 1070 1124 1118 1090 1057 1077 1143 1073 1118 1153 1138 1162 1069 1139 1066 1207 1210 1195 1200 1207 1239 1189 1216 1157 1233 1166 1154 1105 1151 1111 1098 1119 1105 1077 1049 1082 1034 1029 997 1032 1018 1039 1108 1047 1072 1051 1015 1002 1015 978 948 943 901 1011 1001 982 932 995 926 934 921 937 938 928 928 938 935 935 931 941 917 924 864 923 881 915 871 899 939 896 913 877 905 908 905 906 859 940 906 896 869 908 948 919 913 966 886 955 864 918 882 903 910 852 943 863 922 959 873 915 909 912 934 859 897 897 935 893 885 939 927 907 944 887 904 916 909 913 902 935 862 947 895 905 923 939 945 888 904 970 890 936 935 961 862 916 845 891 864 918 936 933 975 891 894 922 915 907 937 918 905 945 914 902 946 933 867 880 885 900 887 900 944 917 881 909 905 850 818 948 933 880 936 902 908 920 834 945 897 919 891 917 851 942 883 904 882 878 862 874 890 949 873 878 904 901 961 902 910 900 944 899 878 926 921 868 923 892 826 867 918 916 890 928 902 854 913 898 881 871 854 878 882 900 900 879 896 919 894 892 931 920 866 901 907 867 959 871 878 863 897 930 841 864 897 913 855 882 874 898 848 886 914 896 908 878 892 910 905 947 911 839 908 897 853 923 925 870 923 882 852 865 925 934 906 918 896 910 918 906 891 912 832 876 913 855 901 871 866 914 880 920 845 850 911 941 898 881 881 869 851 906 877 889 912 838 930 867 922 871 932 841 933 912 901 947 861 838 881 905 869 845 920 854 935 889 929 883 909 870 887 855 864 876 899 878 895 937 873 922 893 847 869 872 878 873 877 887 888 870 933 895 885 879 928 901 913 916 867 894 905 933 924 912 918 903 897 922 905 922 904 895 916 871 917 923 927 897 962 899 966 923 973 912 881 955 930 887 917 911 893 909 908 882 940 935 924 937 881 905 918 909 937 922 869 918 903 913 854 890 924 924 873 866 912 867 872 912 919 868 944 916 855 930 912 883 980 924 931 916 869 975 917 911 954 963 1031 965 951 1002 961 965 1003 1025 1013 952 998 956 1002 948 979 945 957 910 968 910 913 913 903 940 925 948 972 948 905 925 944 971 949 942 1042 978 933 951 964 925 882 944 933 947 886 927 919 915 959 959 899 904 887 880 884 869 924 930 884 916 939 901 896 918 926 920 876 913 881 961 949 931 911 917 927 891 881 915 882 941 866 870 893 886 909 937 873 906 903 945 918 895 877 883 903 908 896 890 908 896 949 921 911 912 904 946 959 864 905 942 874 878 902 914 894 957 917 860 854 885 891 871 926 904 827 917 849 868 937 918 874 880 889 878 879 877 924 833 887 914 885 887 931 894 869 956 916 898 910 892 878 838 868 844 917 940 895 898 909 911 881 873 862 898 890 946 942 887 876 922 897 913 863 880 900 923 882 928 857 895 877 943 897 940 875 920 889 858 908 909 878 929 926 916 915 899 891 930 882 886 909 880 872 903 866 873 944 881 926 917 966 913 886 924 922 914 877 821 889 902 932 874 878 894 883 871 926 872 933 903 922 865 944 939 908 893 904 903 959 895 922 930 927 862 886 936 920 954 924 979 934 926 915 919 968 951 952 922 951 928 895 949 952 960 949 958 979 948 1012 988 969 1001 982 1023 1066 1014 1037 1104 1082 1134 1204 1172 1283 1285 1233 1322 1403 1417 1474 1512 1476 1569 1531 1515 1518 1440 1432 1317 1327 1263 1221 1224 1228 1193 1145 1178 1131 1077 1072 1153 1156 1199 1156 1238 1217 1246 1213 1295 1232 1178 1252 1241 1233 1196 1162 1148 1131 1158 1074 1010 1033 977 991 1029 999 967 1013 1025 1021 981 970 965 927 910 971 939 918 927 936 977 943 907 948 956 905 936 920 942 937 885 949 944 940 946 948 991 972 981 949 964 916 955 903 946 952 972 972 938 985 952 960 976 987 957 930 965 961 963 935 908 978 889 894 935 928 927 978 910 977 892 1024 911 903 897 950 942 910 870 908 911 955 907 912 935 934 904 918 950 930 988 918 902 907 925 915 891 911 860 897 938 922 907 873 875 869 870 863 819 900 907 923 913 882 888 879 897 898 880 922 939 899 944 941 888 933 925 907 965 931 919 933 922 926 932 1015 920 955 944 945 979 955 934 880 980 980 926 899 986 1007 994 923 900 949 885 964 884 935 922 916 994 967 936 925 945 1003 914 961 942 929 990 990 991 1001 977 971 972 910 964 1010 1002 997 997 992 959 959 916 981 1026 943 960 998 995 933 987 942 942 985 1009 919 919 943 906 923 966 996 953 913 937 972 921 971 968 974 959 987 966 925 893 972 915 971 890 932 930 930 906 890 926 908 924 910 934 930 897 876 877 934 871 936 951 917 888 899 919 872 882 881 843 945 909 883 864 883 901 907 898 908 887 901 867 949 910 852 896 900 918 894 900 934 863 907 880 898 861 896 920 892 918 909 940 949 860 902 913 868 877 908 848 838 920 885 895 907 888 891 916 859 893 917 915 916 922 860 919 932 875 892 859 866 915 948 918 925 879 919 889 831 915 906 933 950 929 863 913 889 922 892 912 884 886 912 888 895 867 898 864 878 830 959 894 931 882 879 886 883 937 972 886 923 887 891 826 952 843 875 867 861 865 887 926 881 913 875 900 928 884 921 871 898 921 871 916 889 903 922 905 909 914 917 829 874 906 823 913 889 881 828 879 897 877 903 868 900 863 840 869 850 901 862 925 903 925 905 917 940 872 898 937 898 909 889 904 917 913 874 872 840 832 884 880 902 815 854 885 898 892 872 955 915 869 901 946 888 894 831 857 838 906 916 911 889 844 957 894 913 885 912 961 871 900 896 877 857 875 856 865 886 883 893 926 905 908 895 930 905 833 904 954 915 917 864 830 892 885 912 896 854 846 917 885 850 887 886 910 957 915 900 887 893 946 906 920 922 885 887 854 914 876 884 868 900 914 925 923 893 886 901 906 905 930 866 891 933 855 871 828 930 907 956 925 859 865 873 886 858 889 935 906 908 861 885 907 834 928 884 844 887 912 906 891 839 857 911 877 925 870 914 894 882 871 916 941 860 884 897 864 925 907 921 937 877 907 891 846 913 880 948 972 848 948 907 876 900 925 913 939 907 900 924 969 998 987 1008 1016 1019 987 1011 989 1023 1016 1021 1064 1060 907 956 975 942 990 952 927 973 930 932 877 920 887 969 919 977 953 983 980 947 947 922 968 968 896 1000 1015 928 1038 1006 944 977 901 896 937 946 961 899 935 926 976 947 948 953 965 1025 945 984 901 977 961 995 941 1047 1051 1046 997 980 969 970 967 1026 958 982 973 932 898 979 939 919 920 912 941 878 952 871 934 985 991 940 968 955 918 992 936 922 926 898 952 942 939 926 946 911 913 878 917 959 944</counts>
			</dataPoints>
		</scan>
	</xrdMeasurement>
</xrdMeasurements>
