<?xml version="1.0"?>
<xrdMeasurements xmlns="http://www.xrdml.com/XRDMeasurement/2.3" xmlns:xsi="http://www.w3.org/2001/XMLSchema-instance" xsi:schemaLocation="http://www.xrdml.com/XRDMeasurement/2.3 http://www.xrdml.com/XRDMeasurement/2.3/XRDMeasurement.xsd" status="Completed" recordIdentifier="{CF330CE7-BAED-4DD2-80AF-FAC17618F1C0}">
	<comment>
		<entry/>
	</comment>
	<sample type="To be analyzed">
		<id>GPSS_Li1p4Co0p1Mg0p4Hf0p1Fe0p2Zr0p2Cl4_122625_694e531dae15af25ac374616</id>
		<name></name>
		<preparedBy></preparedBy>
	</sample>
	<xrdMeasurement measurementType="Scan" status="Completed" sampleMode="Reflection">
		<usedWavelength intended="K-Alpha 1">
			<kAlpha1 unit="Angstrom">1.5405980</kAlpha1>
			<kAlpha2 unit="Angstrom">1.5444260</kAlpha2>
			<kBeta unit="Angstrom">1.3922500</kBeta>
			<ratioKAlpha2KAlpha1>0.5000</ratioKAlpha2KAlpha1>
		</usedWavelength>
		<incidentBeamPath>
			<radius unit="mm">145.00</radius>
			<xRayTube id="1010048" name="Empyrean Cu LFF HR (9430 033 7310x)">
				<tension unit="kV">40.0</tension>
				<current unit="mA">15.0</current>
				<anodeMaterial>Cu</anodeMaterial>
				<focus type="Line">
					<length unit="mm">12.0</length>
					<width unit="mm">0.4</width>
					<takeOffAngle unit="deg">6.0</takeOffAngle>
				</focus>
			</xRayTube>
			<sollerSlit id="21010002" name="Soller slits 0.04 rad.">
				<opening unit="rad">0.0400</opening>
			</sollerSlit>
			<mask id="22031000" name="Fixed mask 13 mm">
				<width unit="mm">9.00</width>
			</mask>
			<divergenceSlit id="22120001" name="Divergence slit 1°" xsi:type="fixedDivergenceSlitType">
				<distanceToSample unit="mm">50.00</distanceToSample>
				<height unit="mm">1.52</height>
			</divergenceSlit>
		</incidentBeamPath>
		<sampleMovement xsi:type="spinningSampleMovementType">
			<spinnerRevolutionTime unit="seconds">1.0</spinnerRevolutionTime>
		</sampleMovement>
		<diffractedBeamPath>
			<radius unit="mm">145.00</radius>
			<antiScatterSlit id="22090040" name="AS slit 9 mm (PIXcel)" xsi:type="fixedAntiScatterSlitType">
				<height unit="mm">9.00</height>
			</antiScatterSlit>
			<sollerSlit id="21020003" name="Large Soller slits 0.04 rad.">
				<opening unit="rad">0.0400</opening>
			</sollerSlit>
			<filter id="20030001" name="Large beta-filter Nickel">
				<material>Ni</material>
				<thickness unit="mm">0.020</thickness>
			</filter>
			<detector id="7010019" name="PIXcel1D-Medipix3 detector" xsi:type="rtmsDetectorType">
				<phd unit="keV">
					<lowerLevel>4.02</lowerLevel>
					<upperLevel>11.27</upperLevel>
				</phd>
				<mode>Scanning</mode>
				<activeLength unit="deg">5.542</activeLength>
			</detector>
		</diffractedBeamPath>
		<scan appendNumber="0" mode="Continuous" scanAxis="Gonio" status="Completed">
			<header>
				<startTimeStamp>2025-12-27T13:13:02-08:00</startTimeStamp>
				<endTimeStamp>2025-12-27T13:21:09-08:00</endTimeStamp>
				<author>
					<name>AutomatedUser</name>
				</author>
				<source>
					<applicationSoftware version="1.7b (136)">PANalytical Aeris Instrument Suite</applicationSoftware>
					<instrumentControlSoftware version="3.2.00000000 20240306">AERIS</instrumentControlSoftware>
					<instrumentID>950485</instrumentID>
				</source>
			</header>
			<dataPoints>
				<positions axis="2Theta" unit="deg">
					<startPosition>10.00943322</startPosition>
					<endPosition>99.99442286</endPosition>
				</positions>
				<positions axis="Omega" unit="deg">
					<startPosition>5.00471661</startPosition>
					<endPosition>49.99721143</endPosition>
				</positions>
				<commonCountingTime unit="seconds">12.495</commonCountingTime>
				<counts unit="counts">3164 3085 3154 3245 3121 3044 3276 3209 3141 3201 3145 3147 3174 3188 3093 3293 3263 3209 3183 3218 3100 3203 3226 3241 3249 3154 3289 3221 3221 3170 3283 3227 3193 3104 3295 3242 3363 3271 3233 3255 3229 3309 3268 3288 3216 3291 3274 3236 3356 3344 3305 3287 3292 3332 3314 3266 3292 3295 3292 3380 3360 3274 3177 3352 3215 3261 3321 3340 3204 3262 3374 3309 3304 3284 3454 3423 3393 3419 3372 3387 3398 3392 3442 3338 3349 3447 3350 3284 3407 3487 3409 3432 3443 3431 3386 3362 3429 3395 3373 3518 3368 3394 3543 3306 3530 3467 3458 3454 3389 3353 3533 3393 3494 3427 3401 3589 3468 3503 3491 3451 3628 3387 3463 3444 3433 3419 3379 3477 3476 3500 3551 3521 3571 3440 3553 3522 3505 3418 3444 3441 3523 3618 3368 3564 3523 3606 3471 3482 3596 3562 3484 3450 3477 3443 3542 3540 3562 3457 3497 3441 3494 3540 3490 3382 3532 3568 3539 3529 3405 3424 3496 3531 3522 3487 3503 3478 3464 3491 3525 3563 3640 3516 3451 3414 3492 3433 3461 3420 3427 3552 3406 3403 3457 3428 3394 3501 3456 3468 3537 3435 3552 3373 3408 3435 3438 3435 3336 3414 3452 3402 3449 3484 3270 3390 3439 3359 3474 3428 3421 3444 3441 3376 3520 3314 3436 3394 3357 3289 3378 3405 3375 3275 3292 3363 3400 3330 3350 3388 3405 3351 3292 3236 3337 3330 3315 3262 3333 3229 3304 3493 3256 3325 3262 3268 3315 3255 3246 3304 3419 3235 3263 3207 3307 3221 3204 3200 3185 3205 3188 3285 3235 3174 3303 3244 3214 3225 3182 3163 3318 3302 3245 3209 3295 3254 3365 3222 3158 3134 3263 3249 3209 3253 3231 3147 3218 3105 3232 3196 3207 3246 3086 3320 3227 3255 3245 3211 3240 3330 3291 3258 3266 3294 3235 3289 3296 3193 3308 3224 3281 3258 3200 3268 3199 3245 3260 3152 3406 3279 3281 3209 3253 3264 3237 3283 3175 3231 3235 3234 3214 3197 3244 3220 3259 3235 3258 3272 3168 3221 3205 3342 3215 3304 3217 3154 3298 3250 3297 3184 3312 3281 3318 3285 3302 3382 3324 3347 3390 3277 3452 3323 3291 3381 3333 3399 3292 3301 3277 3329 3466 3471 3352 3358 3390 3342 3343 3401 3412 3382 3328 3428 3453 3428 3361 3372 3427 3380 3423 3450 3430 3434 3367 3452 3365 3325 3447 3425 3508 3545 3512 3386 3529 3475 3562 3422 3658 3519 3578 3523 3594 3526 3567 3448 3628 3566 3467 3509 3675 3516 3660 3546 3645 3633 3604 3626 3586 3761 3599 3574 3647 3576 3578 3609 3628 3520 3680 3766 3705 3698 3796 3672 3674 3713 3777 3725 3856 3874 3805 3922 3936 3909 3856 3931 3997 3945 3946 3909 3946 4123 3887 4057 4011 4074 3975 4037 3862 3922 3862 3964 3857 3890 3809 3821 3767 3729 3814 3758 3787 3790 3815 3722 3795 3872 3775 3850 3742 3633 3854 3653 3697 3702 3674 3692 3605 3665 3599 3491 3409 3313 3378 3478 3487 3428 3381 3498 3397 3324 3415 3303 3265 3280 3352 3348 3334 3398 3274 3331 3344 3212 3201 3248 3185 3187 3251 3112 3281 3192 3225 3200 3084 3246 3211 3179 3200 3260 3049 3109 3172 3096 3219 3139 3105 3148 3144 3031 3092 3139 3094 3167 3081 3097 3132 3079 3026 3183 3039 3023 3020 3030 3089 3038 2961 3068 3018 3113 3093 3043 3027 3013 2919 2937 2970 3041 3028 2975 3012 3056 2994 3076 3018 2891 3016 2966 2995 2932 3012 2953 2870 2981 2897 2956 2858 2944 2928 2924 2909 2913 2888 2961 2991 2947 2991 2917 2771 2965 2916 2899 2878 2877 2918 2933 2860 2911 2919 2844 2839 2823 2896 2958 2813 2977 2924 2916 2811 2804 2864 2878 2864 2867 2790 2838 2878 2836 2834 2807 2887 2861 2778 2714 2867 2774 2729 2843 2747 2842 2801 2832 2739 2752 2862 2788 2729 2758 2807 2825 2714 2746 2772 2770 2723 2785 2764 2790 2749 2732 2771 2774 2791 2807 2725 2821 2790 2796 2804 2765 2771 2816 2679 2777 2727 2762 2867 2799 2666 2765 2675 2731 2692 2707 2754 2678 2686 2772 2672 2755 2662 2759 2726 2819 2769 2726 2727 2720 2791 2755 2799 2706 2722 2733 2739 2828 2721 2852 2691 2745 2808 2684 2668 2722 2666 2602 2629 2636 2638 2721 2741 2728 2698 2592 2673 2758 2684 2716 2675 2649 2744 2654 2744 2735 2658 2620 2732 2748 2710 2716 2604 2654 2767 2725 2646 2652 2673 2641 2554 2664 2714 2658 2653 2688 2557 2558 2631 2757 2680 2678 2706 2670 2655 2676 2629 2548 2675 2547 2584 2641 2709 2666 2685 2676 2685 2586 2668 2596 2611 2657 2601 2518 2634 2630 2665 2656 2564 2622 2596 2620 2596 2636 2592 2560 2592 2661 2582 2539 2632 2595 2572 2496 2588 2598 2549 2586 2532 2596 2622 2552 2538 2604 2555 2561 2677 2578 2550 2537 2502 2688 2537 2497 2511 2592 2565 2497 2528 2616 2604 2534 2549 2610 2512 2427 2524 2504 2524 2534 2538 2647 2447 2428 2532 2484 2527 2460 2537 2455 2584 2526 2571 2448 2574 2445 2548 2506 2471 2440 2424 2500 2479 2456 2461 2459 2567 2552 2607 2496 2620 2481 2466 2533 2416 2489 2491 2447 2413 2516 2481 2585 2521 2482 2508 2393 2554 2429 2484 2456 2415 2502 2440 2499 2467 2512 2407 2456 2384 2461 2377 2405 2429 2413 2362 2394 2446 2349 2415 2448 2481 2519 2471 2494 2416 2478 2542 2425 2478 2373 2412 2426 2429 2438 2413 2477 2378 2394 2386 2352 2382 2454 2414 2428 2336 2442 2405 2308 2377 2340 2462 2356 2363 2418 2322 2355 2298 2345 2347 2433 2283 2356 2365 2366 2347 2324 2377 2442 2294 2389 2377 2340 2392 2319 2273 2346 2331 2354 2369 2317 2330 2325 2373 2400 2352 2370 2421 2444 2370 2372 2338 2331 2352 2378 2378 2340 2307 2286 2317 2373 2351 2272 2361 2297 2373 2332 2375 2238 2327 2399 2400 2292 2250 2396 2243 2385 2332 2259 2324 2302 2343 2381 2334 2456 2277 2414 2325 2367 2346 2355 2347 2352 2356 2369 2287 2316 2314 2313 2421 2393 2363 2329 2315 2322 2369 2265 2415 2281 2268 2352 2313 2228 2400 2359 2364 2331 2356 2322 2290 2333 2340 2334 2297 2353 2314 2331 2345 2313 2338 2288 2401 2276 2354 2227 2337 2214 2267 2320 2312 2239 2293 2264 2305 2321 2339 2284 2260 2313 2319 2327 2244 2218 2334 2241 2272 2354 2371 2308 2283 2376 2278 2285 2250 2352 2348 2281 2309 2264 2307 2304 2411 2364 2347 2231 2310 2269 2284 2287 2275 2346 2262 2338 2264 2250 2286 2327 2250 2302 2253 2290 2192 2357 2237 2274 2341 2282 2223 2314 2208 2206 2239 2189 2322 2208 2164 2265 2231 2219 2219 2161 2235 2242 2247 2211 2206 2306 2217 2200 2369 2172 2250 2295 2228 2247 2345 2201 2127 2281 2263 2211 2189 2215 2216 2233 2149 2156 2100 2194 2241 2236 2247 2079 2170 2193 2148 2138 2150 2121 2226 2103 2189 2140 2124 2032 2262 2095 2253 2254 2154 2206 2272 2030 2042 2105 2145 2129 2120 2016 2109 2199 2102 2061 2092 2018 2123 2095 2093 2066 2078 2107 2084 2033 2068 2008 2064 2051 2007 2096 2144 2151 2124 2014 2004 2009 2154 1989 2026 1963 2057 1944 1948 2054 1996 1993 1927 2088 1994 2008 2025 1932 1973 1975 1979 1986 2051 2033 1916 1981 1983 1912 1980 1932 2007 1942 1919 1934 1900 2007 1947 1994 1902 1946 2023 1915 1889 2070 1969 1900 1939 1948 1909 2014 1919 1935 1951 1920 1853 1970 1862 1910 1804 1913 1863 1878 1893 1815 1915 1885 1867 1927 1849 1860 1897 1938 1854 1892 1858 1771 1862 1860 1819 1880 1881 1853 1892 1848 1954 1861 1901 1904 1878 1859 1939 1914 1854 1787 1861 1798 1865 1847 1838 1879 1850 1798 1896 1821 1878 1806 1734 1925 1778 1858 1895 1847 1826 1809 1799 1885 1859 1844 1782 1821 1777 1909 1888 1853 1823 1828 1815 1843 1802 1785 1798 1727 1832 1840 1750 1883 1732 1706 1839 1809 1804 1754 1755 1758 1880 1752 1820 1830 1857 1748 1789 1837 1837 1824 1827 1804 1787 1727 1827 1872 1751 1827 1753 1760 1874 1898 1853 1833 1768 1727 1798 1800 1780 1828 1772 1791 1778 1854 1789 1836 1739 1780 1810 1773 1750 1781 1736 1724 1857 1778 1774 1794 1760 1777 1816 1882 1862 1790 1820 1824 1844 1737 1786 1781 1792 1781 1759 1737 1813 1768 1759 1812 1814 1760 1828 1816 1843 1829 1787 1806 1826 1847 1827 1783 1784 1794 1821 1837 1849 1795 1828 1869 1853 1829 1712 1752 1843 1808 1829 1785 1829 1803 1743 1819 1798 1787 1758 1855 1848 1810 1871 1825 1800 1907 1767 1793 1798 1742 1821 1780 1853 1754 1735 1762 1839 1784 1824 1829 1814 1783 1870 1888 1764 1704 1832 1746 1900 1852 1922 1805 1793 1721 1827 1822 1830 1788 1745 1833 1852 1861 1835 1875 1817 1788 1777 1858 1834 1815 1780 1859 1844 1790 1818 1747 1741 1780 1815 1734 1838 1842 1677 1702 1804 1714 1699 1790 1774 1749 1833 1722 1788 1796 1797 1780 1671 1826 1804 1780 1733 1791 1787 1726 1799 1749 1785 1784 1724 1788 1738 1719 1788 1686 1731 1691 1750 1704 1712 1754 1831 1818 1829 1746 1784 1652 1691 1759 1710 1776 1779 1703 1798 1693 1805 1746 1665 1771 1606 1727 1660 1663 1675 1690 1730 1715 1720 1728 1720 1652 1661 1662 1654 1750 1660 1683 1650 1633 1698 1710 1664 1639 1610 1659 1677 1688 1672 1729 1642 1633 1595 1613 1648 1659 1658 1612 1693 1657 1628 1652 1639 1655 1687 1633 1646 1630 1671 1610 1614 1580 1664 1652 1623 1712 1711 1603 1608 1528 1562 1580 1580 1631 1630 1577 1635 1518 1607 1687 1555 1633 1671 1658 1592 1602 1598 1600 1654 1605 1631 1718 1568 1559 1612 1606 1607 1603 1641 1619 1627 1637 1742 1700 1626 1631 1590 1655 1608 1669 1636 1643 1630 1613 1575 1598 1656 1629 1618 1620 1608 1623 1628 1732 1728 1577 1703 1689 1690 1650 1698 1713 1817 1734 1748 1812 1904 1760 1839 1799 1804 1776 1743 1752 1721 1690 1780 1762 1695 1726 1692 1693 1623 1644 1677 1666 1729 1596 1565 1628 1647 1560 1623 1700 1585 1674 1608 1695 1617 1659 1677 1597 1588 1617 1610 1665 1657 1686 1629 1633 1653 1569 1643 1621 1583 1616 1589 1634 1600 1595 1575 1584 1586 1643 1526 1567 1651 1585 1578 1673 1640 1635 1634 1619 1669 1682 1680 1698 1708 1721 1749 1784 1845 1937 1931 1899 1978 2034 2066 2079 2115 2123 2107 2116 2025 2041 2030 1959 2005 2052 2027 2102 2112 2048 2159 2170 2053 2228 2258 2271 2360 2419 2348 2522 2592 2718 2771 2894 3010 3099 3202 3281 3393 3316 3492 3555 3568 3739 3777 3775 3669 3649 3565 3442 3299 3312 3248 3051 3033 2843 2783 2676 2708 2557 2568 2590 2442 2550 2459 2421 2431 2595 2635 2700 2621 2757 2771 2619 2621 2585 2523 2558 2498 2481 2321 2348 2318 2275 2289 2180 2227 2207 2151 2177 2104 2115 2064 1976 2073 1884 1939 1913 1887 1861 1875 1854 1806 1787 1767 1828 1917 1771 1747 1740 1788 1693 1662 1790 1560 1617 1556 1551 1616 1627 1670 1559 1523 1551 1541 1570 1549 1552 1534 1519 1591 1512 1535 1457 1496 1488 1430 1510 1481 1479 1517 1463 1468 1470 1491 1484 1431 1435 1427 1471 1390 1435 1445 1480 1407 1392 1403 1366 1460 1319 1373 1368 1359 1336 1378 1406 1415 1403 1455 1459 1338 1390 1388 1380 1413 1398 1339 1419 1352 1384 1345 1391 1346 1402 1398 1390 1277 1253 1321 1324 1323 1323 1352 1371 1320 1399 1363 1361 1347 1291 1370 1367 1331 1365 1312 1405 1359 1368 1327 1431 1325 1310 1353 1347 1409 1363 1273 1345 1323 1313 1258 1260 1359 1314 1311 1296 1254 1296 1355 1387 1343 1302 1376 1331 1316 1363 1353 1292 1248 1387 1342 1326 1308 1349 1336 1374 1377 1326 1321 1340 1291 1323 1370 1324 1310 1310 1345 1381 1390 1301 1327 1293 1350 1280 1295 1297 1263 1306 1290 1316 1329 1253 1274 1415 1246 1287 1324 1334 1290 1326 1338 1354 1296 1224 1266 1263 1265 1336 1235 1272 1246 1310 1260 1291 1304 1339 1306 1338 1315 1326 1317 1207 1313 1318 1274 1274 1267 1249 1244 1287 1315 1272 1295 1309 1238 1260 1274 1334 1343 1266 1274 1348 1285 1379 1257 1288 1325 1277 1264 1236 1347 1292 1244 1244 1296 1234 1334 1287 1274 1289 1252 1323 1266 1294 1329 1306 1330 1365 1313 1240 1242 1328 1309 1324 1295 1366 1245 1258 1357 1261 1278 1282 1284 1339 1321 1219 1226 1289 1237 1304 1370 1307 1239 1374 1316 1304 1340 1307 1352 1332 1327 1300 1272 1327 1297 1293 1300 1277 1363 1312 1308 1294 1311 1309 1359 1293 1335 1345 1316 1308 1340 1329 1298 1306 1324 1355 1307 1286 1336 1366 1311 1361 1355 1352 1321 1323 1393 1347 1381 1431 1377 1413 1390 1404 1458 1473 1468 1541 1459 1572 1593 1747 1733 1799 1926 1942 2101 2069 2149 2230 2282 2366 2254 2362 2436 2450 2383 2471 2372 2484 2464 2417 2419 2448 2446 2523 2496 2534 2471 2592 2634 2769 2774 2894 3028 3143 3254 3410 3585 3787 3851 3969 4094 4268 4298 4527 4588 4748 4623 4864 4804 4761 4603 4573 4336 4373 3976 3936 3783 3660 3424 3243 3113 3058 2899 2758 2685 2581 2520 2511 2467 2385 2415 2404 2426 2396 2399 2531 2351 2436 2385 2373 2470 2488 2506 2473 2390 2403 2439 2407 2245 2265 2291 2222 2182 2203 2160 2121 2238 2015 2027 2003 1948 2028 1993 1972 1908 1874 1898 1920 1856 1861 1888 1763 1828 1774 1773 1774 1676 1636 1692 1681 1649 1562 1746 1590 1573 1594 1574 1594 1545 1479 1471 1553 1451 1519 1452 1465 1377 1438 1363 1453 1518 1385 1403 1420 1360 1416 1407 1346 1392 1342 1341 1388 1350 1386 1330 1304 1385 1281 1341 1387 1327 1340 1340 1291 1299 1321 1244 1295 1236 1334 1329 1358 1285 1323 1309 1336 1221 1382 1300 1366 1315 1260 1349 1288 1339 1325 1271 1276 1262 1252 1258 1339 1211 1303 1269 1295 1226 1258 1263 1226 1255 1258 1220 1289 1281 1279 1328 1286 1286 1178 1326 1263 1282 1321 1222 1246 1203 1239 1238 1304 1244 1250 1278 1273 1247 1248 1216 1283 1263 1237 1309 1160 1312 1247 1223 1283 1277 1219 1295 1285 1241 1228 1264 1231 1300 1250 1280 1166 1261 1259 1219 1294 1251 1247 1257 1221 1256 1269 1207 1249 1241 1241 1227 1267 1231 1281 1234 1171 1256 1239 1200 1208 1201 1226 1170 1244 1183 1196 1297 1205 1166 1201 1231 1290 1281 1245 1240 1257 1281 1241 1270 1274 1195 1220 1239 1161 1252 1226 1219 1211 1256 1201 1256 1234 1231 1241 1260 1242 1286 1292 1237 1296 1209 1235 1242 1241 1217 1215 1234 1235 1229 1224 1197 1204 1292 1242 1221 1274 1222 1232 1208 1194 1181 1226 1275 1244 1246 1262 1223 1335 1265 1222 1198 1235 1255 1241 1230 1192 1189 1145 1310 1235 1186 1252 1212 1239 1205 1236 1188 1291 1213 1310 1181 1217 1235 1191 1146 1192 1230 1209 1220 1235 1265 1271 1170 1229 1277 1289 1198 1243 1238 1235 1217 1264 1233 1272 1234 1190 1217 1244 1249 1202 1152 1274 1239 1260 1222 1192 1187 1277 1247 1230 1256 1226 1284 1193 1161 1235 1286 1192 1123 1234 1269 1214 1183 1177 1173 1218 1231 1225 1267 1211 1172 1232 1172 1111 1180 1202 1231 1161 1131 1248 1211 1228 1199 1187 1145 1217 1193 1199 1162 1219 1282 1216 1088 1223 1161 1197 1177 1207 1240 1155 1211 1192 1212 1199 1189 1147 1213 1188 1203 1295 1194 1130 1104 1164 1194 1166 1161 1215 1131 1174 1178 1164 1156 1229 1178 1231 1193 1174 1271 1251 1191 1179 1193 1170 1224 1224 1263 1193 1168 1256 1280 1219 1235 1262 1186 1136 1208 1192 1208 1220 1155 1209 1246 1180 1184 1146 1227 1238 1184 1218 1197 1193 1170 1217 1179 1166 1179 1207 1165 1228 1221 1231 1267 1230 1173 1161 1183 1214 1199 1224 1173 1151 1207 1159 1173 1160 1237 1205 1253 1219 1252 1221 1165 1180 1247 1207 1198 1209 1236 1188 1202 1185 1216 1194 1210 1157 1247 1180 1169 1177 1188 1135 1225 1234 1221 1183 1210 1206 1229 1203 1157 1127 1203 1228 1210 1236 1187 1254 1171 1158 1176 1186 1236 1216 1268 1241 1163 1211 1159 1191 1248 1170 1188 1210 1192 1246 1234 1223 1184 1190 1151 1208 1163 1193 1187 1212 1216 1243 1222 1200 1132 1104 1142 1240 1152 1256 1192 1177 1229 1226 1160 1196 1177 1234 1217 1253 1231 1169 1155 1162 1179 1258 1161 1185 1193 1214 1196 1238 1195 1263 1212 1240 1188 1212 1151 1256 1183 1159 1224 1217 1193 1184 1161 1206 1131 1192 1195 1178 1183 1228 1194 1217 1166 1166 1221 1169 1207 1140 1161 1189 1234 1198 1181 1191 1135 1165 1137 1165 1200 1203 1209 1210 1209 1207 1162 1223 1292 1155 1114 1147 1157 1156 1149 1198 1211 1136 1206 1123 1221 1123 1221 1180 1136 1178 1237 1153 1208 1242 1171 1194 1217 1135 1164 1134 1184 1184 1154 1179 1191 1187 1220 1154 1190 1203 1151 1141 1214 1174 1153 1217 1132 1181 1172 1193 1147 1196 1159 1220 1153 1179 1175 1149 1158 1085 1192 1204 1161 1192 1195 1143 1154 1237 1209 1212 1168 1228 1233 1197 1180 1151 1213 1126 1191 1217 1217 1196 1218 1182 1233 1209 1187 1207 1213 1152 1194 1226 1158 1268 1137 1232 1132 1193 1104 1174 1179 1129 1208 1211 1222 1136 1166 1161 1208 1180 1203 1132 1205 1162 1263 1136 1210 1218 1183 1188 1203 1172 1191 1241 1274 1204 1197 1184 1169 1187 1186 1252 1171 1160 1171 1169 1237 1222 1221 1152 1183 1128 1180 1243 1213 1189 1232 1185 1168 1246 1169 1220 1100 1198 1188 1130 1200 1237 1105 1170 1274 1174 1178 1213 1162 1203 1136 1182 1208 1181 1172 1192 1258 1223 1210 1173 1260 1194 1125 1175 1179 1153 1184 1208 1238 1193 1187 1217 1167 1210 1185 1173 1129 1170 1175 1194 1240 1229 1232 1173 1109 1134 1183 1205 1261 1176 1185 1174 1141 1101 1191 1223 1148 1266 1142 1218 1132 1198 1143 1288 1151 1223 1185 1235 1131 1164 1196 1150 1205 1212 1176 1154 1165 1191 1170 1179 1188 1203 1101 1213 1209 1157 1159 1186 1236 1241 1179 1235 1230 1201 1217 1185 1128 1178 1158 1137 1199 1189 1213 1232 1186 1183 1186 1190 1115 1208 1218 1194 1212 1165 1183 1160 1245 1171 1122 1206 1200 1231 1229 1183 1198 1221 1208 1174 1193 1180 1241 1281 1122 1248 1203 1233 1185 1173 1176 1211 1205 1181 1185 1203 1201 1204 1217 1277 1205 1150 1220 1246 1246 1223 1234 1261 1208 1197 1258 1239 1307 1191 1287 1269 1303 1262 1353 1274 1282 1282 1294 1332 1319 1365 1319 1351 1343 1368 1358 1309 1327 1356 1312 1370 1390 1410 1409 1409 1417 1432 1430 1546 1476 1477 1491 1495 1530 1578 1610 1577 1610 1501 1549 1493 1540 1524 1465 1566 1531 1500 1469 1349 1462 1371 1362 1399 1328 1319 1340 1348 1260 1311 1288 1334 1314 1325 1264 1292 1275 1274 1268 1300 1272 1205 1303 1237 1312 1237 1263 1252 1274 1386 1240 1249 1304 1256 1273 1274 1280 1300 1232 1235 1195 1218 1270 1247 1271 1286 1275 1262 1317 1239 1253 1236 1301 1279 1250 1205 1247 1265 1242 1196 1150 1211 1242 1217 1186 1259 1270 1262 1183 1294 1273 1238 1196 1228 1277 1195 1229 1229 1251 1262 1258 1249 1237 1208 1252 1205 1229 1251 1214 1231 1117 1238 1205 1176 1156 1213 1223 1169 1195 1187 1205 1200 1265 1190 1214 1203 1195 1204 1235 1201 1250 1255 1171 1183 1158 1194 1158 1226 1146 1206 1198 1227 1238 1225 1231 1200 1116 1239 1214 1163 1209 1155 1201 1176 1194 1180 1278 1207 1150 1217 1168 1233 1197 1217 1190 1146 1229 1175 1216 1207 1161 1255 1209 1188 1232 1198 1217 1138 1187 1207 1181 1196 1150 1172 1219 1168 1153 1223 1192 1190 1192 1264 1240 1216 1232 1226 1226 1165 1150 1184 1172 1165 1171 1164 1146 1181 1138 1194 1226 1229 1170 1205 1143 1202 1141 1143 1207 1150 1222 1178 1240 1262 1159 1187 1124 1215 1192 1229 1227 1172 1204 1233 1218 1241 1207 1173 1200 1200 1158 1278 1175 1226 1145 1256 1217 1249 1161 1251 1288 1204 1222 1186 1215 1235 1187 1206 1219 1222 1243 1183 1195 1291 1179 1215 1160 1178 1209 1220 1229 1212 1162 1182 1215 1304 1267 1264 1239 1241 1234 1256 1201 1215 1260 1196 1247 1252 1232 1234 1249 1171 1149 1225 1202 1170 1198 1167 1190 1192 1217 1240 1178 1183 1197 1205 1132 1250 1235 1276 1241 1215 1191 1183 1228 1196 1232 1176 1184 1272 1160 1280 1189 1290 1251 1155 1226 1255 1286 1152 1202 1246 1215 1247 1202 1257 1229 1276 1269 1311 1244 1241 1244 1261 1319 1204 1207 1268 1288 1287 1291 1331 1392 1370 1397 1462 1516 1445 1526 1497 1543 1623 1675 1680 1608 1710 1798 1723 1785 1851 1899 1788 1833 1930 1904 1960 1882 1964 1925 1951 2057 2020 2093 2170 2174 2209 2298 2336 2455 2455 2503 2679 2731 2785 2904 2969 3137 3017 3274 3382 3403 3434 3551 3480 3517 3341 3478 3412 3315 3188 3115 2986 3072 3013 2930 2769 2628 2594 2522 2382 2377 2361 2220 2277 2190 2097 1991 1923 1983 1892 1992 1922 1925 1889 1873 1925 1905 1937 1961 1958 1938 1978 2140 2082 1991 2056 2101 2081 2150 2088 2176 2130 2180 2151 2185 2060 2100 2091 2026 1996 2062 2032 1911 1910 1941 1818 1841 1855 1832 1745 1725 1744 1823 1708 1686 1682 1678 1725 1655 1734 1698 1687 1619 1730 1707 1721 1603 1655 1673 1690 1675 1609 1675 1680 1594 1687 1583 1651 1710 1588 1586 1570 1618 1552 1548 1593 1508 1562 1479 1460 1432 1433 1489 1524 1471 1488 1414 1447 1447 1466 1393 1417 1394 1481 1414 1449 1309 1378 1354 1359 1340 1358 1392 1359 1314 1288 1324 1325 1344 1306 1373 1304 1322 1389 1354 1271 1299 1337 1316 1292 1216 1305 1206 1305 1321 1324 1252 1247 1297 1255 1250 1207 1275 1232 1352 1311 1220 1253 1209 1262 1292 1230 1309 1281 1263 1241 1200 1291 1288 1240 1251 1314 1273 1225 1260 1241 1317 1280 1221 1240 1243 1249 1276 1299 1311 1185 1274 1251 1215 1258 1259 1244 1316 1186 1274 1283 1241 1305 1305 1291 1299 1276 1357 1322 1359 1287 1329 1312 1347 1358 1380 1356 1326 1300 1427 1446 1411 1411 1374 1387 1458 1341 1421 1394 1324 1314 1287 1302 1348 1323 1257 1307 1283 1281 1275 1286 1326 1315 1281 1209 1263 1216 1262 1286 1228 1224 1246 1248 1301 1263 1221 1282 1196 1251 1255 1254 1230 1172 1264 1230 1262 1276 1225 1307 1228 1340 1245 1277 1244 1259 1253 1249 1233 1255 1237 1205 1260 1296 1247 1232 1258 1269 1224 1191 1264 1226 1231 1239 1236 1150 1248 1208 1248 1311 1260 1250 1245 1224 1270 1287 1295 1224 1255 1198 1252 1197 1281 1205 1254 1239 1244 1196 1236 1250 1193 1217 1230 1293 1215 1261 1256 1213 1250 1213 1249 1203 1238 1169 1202 1170 1164 1183 1179 1202 1206 1189 1142 1203 1279 1229 1203 1243 1187 1206 1220 1220 1229 1264 1212 1261 1213 1173 1220 1150 1204 1176 1170 1180 1181 1202 1182 1175 1185 1206 1245 1184 1182 1209 1196 1190 1222 1170 1217 1199 1206 1161 1202 1188 1222 1172 1201 1195 1244 1178 1219 1182 1165 1141 1279 1177 1184 1156 1200 1204 1159 1200 1201 1185 1175 1223 1173 1201 1163 1209 1245 1190 1208 1136 1160 1138 1265 1189 1192 1205 1193 1154 1131 1178 1211 1154 1090 1181 1177 1175 1195 1161 1204 1215 1201 1141 1229 1192 1154 1160 1162 1203 1120 1164 1147 1210 1225 1136 1166 1127 1179 1207 1204 1160 1183 1156 1187 1195 1191 1252 1196 1186 1177 1156 1210 1199 1142 1212 1211 1198 1163 1149 1184 1233 1207 1156 1186 1178 1154 1199 1188 1204 1182 1161 1206 1169 1214 1187 1179 1225 1157 1144 1228 1144 1167 1219 1222 1208 1209 1127 1171 1158 1196 1118 1228 1152 1194 1134 1192 1193 1183 1103 1189 1150 1131 1129 1140 1162 1097 1211 1110 1188 1244 1198 1193 1148 1181 1170 1176 1126 1221 1192 1184 1184 1178 1182 1221 1248 1187 1180 1156 1197 1126 1217 1179 1139 1165 1191 1129 1156 1214 1138 1195 1213 1164 1178 1216 1218 1216 1193 1186 1195 1203 1188 1172 1204 1174 1243 1075 1195 1186 1192 1247 1126 1123 1201 1121 1150 1164 1172 1135 1156 1170 1194 1112 1180 1159 1188 1219 1169 1151 1216 1219 1177 1145 1070 1147 1217 1175 1165 1175 1153 1148 1190 1205 1164 1175 1170 1191 1186 1186 1194 1115 1153 1101 1104 1156 1239 1209 1136 1149 1172 1150 1157 1173 1135 1162 1134 1177 1194 1173 1180 1150 1188 1171 1124 1207 1171 1163 1167 1151 1182 1163 1224 1209 1169 1203 1135 1176 1169 1150 1174 1175 1139 1221 1211 1160 1112 1127 1168 1140 1158 1133 1123 1198 1197 1169 1199 1152 1142 1208 1121 1179 1155 1194 1248 1209 1110 1180 1133 1186 1199 1163 1165 1213 1210 1194 1198 1159 1189 1196 1193 1245 1187 1213 1147 1178 1235 1189 1140 1223 1184 1182 1146 1186 1199 1184 1156 1221 1199 1172 1209 1179 1165 1121 1166 1210 1166 1251 1153 1169 1187 1191 1202 1253 1150 1231 1179 1192 1184 1177 1206 1174 1261 1154 1195 1219 1191 1122 1156 1232 1157 1190 1139 1161 1215 1204 1193 1170 1229 1227 1147 1216 1265 1212 1156 1218 1161 1191 1176 1211 1200 1218 1168 1257 1186 1178 1158 1266 1119 1129 1290 1217 1243 1229 1166 1270 1184 1217 1199 1181 1184 1208 1224 1203 1253 1184 1236 1219 1242 1243 1240 1243 1151 1219 1275 1228 1231 1217 1252 1227 1246 1256 1216 1224 1263 1290 1284 1275 1237 1235 1291 1204 1267 1234 1240 1283 1212 1343 1306 1300 1301 1306 1364 1402 1332 1303 1298 1357 1334 1379 1369 1355 1384 1413 1471 1486 1385 1508 1513 1462 1486 1599 1525 1594 1629 1639 1628 1600 1649 1700 1697 1764 1732 1701 1776 1670 1663 1682 1623 1663 1686 1627 1591 1686 1610 1554 1595 1578 1443 1545 1550 1512 1490 1466 1523 1408 1426 1417 1469 1529 1463 1413 1398 1376 1469 1412 1436 1411 1437 1373 1436 1407 1466 1375 1512 1423 1529 1491 1531 1448 1441 1483 1485 1496 1522 1433 1471 1447 1500 1518 1501 1400 1450 1443 1413 1469 1433 1382 1425 1357 1385 1368 1401 1490 1424 1386 1320 1355 1370 1442 1407 1351 1294 1301 1350 1302 1300 1356 1248 1315 1328 1317 1342 1290 1385 1268 1325 1348 1291 1299 1294 1310 1291 1300 1329 1287 1315 1294 1344 1293 1283 1296 1348 1415 1301 1275 1313 1352 1319 1350 1312 1277 1347 1314 1270 1332 1313 1288 1311 1249 1324 1307 1240 1279 1334 1320 1244 1263 1253 1261 1254 1292 1232 1280 1272 1235 1287 1275 1290 1234 1276 1207 1292 1238 1243 1239 1299 1220 1236 1161 1237 1203 1280 1187 1211 1226 1242 1210 1222 1164 1282 1186 1266 1172 1304 1165 1253 1234 1246 1202 1216 1211 1238 1178 1188 1218 1226 1301 1226 1230 1256 1224 1254 1188 1230 1207 1179 1208 1212 1169 1213 1154 1247 1172 1220 1209 1147 1219 1220 1225 1215 1208 1221 1198 1203 1178 1240 1247 1185 1273 1258 1205 1266 1170 1215 1282 1207 1255 1289 1324 1236 1255 1327 1335 1346 1279 1352 1301 1343 1314 1303 1336 1452 1384 1294 1393 1344 1411 1342 1432 1425 1455 1423 1503 1436 1520 1547 1536 1577 1534 1649 1605 1752 1656 1603 1735 1684 1794 1752 1776 1760 1862 1762 1765 1747 1781 1731 1701 1683 1646 1594 1679 1598 1558 1573 1563 1499 1516 1496 1441 1429 1428 1410 1396 1396 1404 1392 1442 1319 1361 1338 1307 1271 1325 1317 1333 1325 1356 1330 1332 1316 1336 1409 1359 1381 1319 1319 1361 1365 1318 1356 1365 1385 1368 1435 1414 1412 1397 1500 1485 1522 1426 1576 1449 1402 1441 1410 1382 1383 1344 1370 1300 1387 1344 1363 1391 1355 1327 1337 1378 1371 1365 1324 1339 1301 1297 1248 1294 1284 1269 1278 1289 1263 1238 1354 1241 1280 1267 1351 1273 1237 1224 1260 1264 1338 1292 1270 1279 1243 1322 1330 1240 1337 1236 1266 1264 1237 1297 1241 1296 1312 1259 1262 1287 1296 1234 1320 1297 1239 1289 1288 1253 1196 1272 1201 1248 1236 1113 1302 1230 1216 1248 1279 1169 1229 1250 1175 1225 1280 1240 1247 1195 1192 1233 1213 1264 1234 1209 1230 1176 1224 1349 1278 1270 1235 1287 1234 1245 1224 1232 1235 1305 1227 1207 1312 1222 1301 1246 1248 1295 1276 1225 1320 1313 1310 1278 1254 1320 1329 1369 1273 1292 1326 1275 1213 1323 1340 1279 1367 1347 1271 1274 1356 1238 1265 1352 1272 1239 1348 1235 1254 1244 1363 1319 1293 1317 1224 1273 1309 1255 1218 1318 1260 1188 1205 1190 1258 1176 1211 1135 1152 1211 1194 1203 1181 1183 1183 1206 1204 1170 1194 1199 1195 1167 1207 1206 1157 1146 1181 1199 1179 1141 1190 1257 1208 1246 1233 1137 1240 1177 1189 1167 1232 1180 1247 1207 1218 1202 1181 1157 1236 1153 1159 1168 1198 1156 1217 1181 1173 1142 1250 1115 1180 1194 1202 1210 1206 1221 1199 1137 1222 1169 1129 1088 1174 1128 1227 1183 1180 1161 1180 1145 1197 1185 1173 1151 1223 1201 1177 1109 1191 1176 1216 1181 1161 1267 1124 1195 1270 1188 1113 1109 1152 1212 1197 1175 1168 1247 1179 1142 1192 1216 1187 1187 1197 1183 1174 1217 1242 1205 1144 1170 1191 1202 1224 1167 1180 1138 1156 1144 1151 1196 1171 1201 1181 1156 1196 1240 1200 1192 1163 1204 1137 1168 1127 1164 1243 1177 1161 1217 1206 1153 1210 1206 1173 1153 1214 1172 1179 1239 1206 1242 1106 1163 1169 1189 1208 1169 1155 1217 1175 1202 1180 1200 1157 1155 1163 1132 1183 1225 1176 1162 1134 1234 1228 1134 1178 1146 1219 1203 1100 1117 1129 1173 1153 1180 1188 1160 1142 1146 1144 1132 1200 1221 1119 1198 1203 1151 1163 1191 1203 1176 1129 1132 1186 1196 1156 1104 1198 1093 1175 1214 1110 1196 1201 1207 1169 1202 1129 1143 1158 1093 1208 1182 1177 1221 1171 1142 1168 1178 1122 1186 1120 1172 1196 1189 1132 1201 1146 1174 1126 1183 1144 1236 1157 1131 1150 1187 1171 1210 1193 1123 1126 1241 1125 1160 1174 1180 1155 1149 1151 1223 1149 1239 1103 1221 1181 1093 1145 1207 1154 1123 1135 1244 1183 1171 1186 1197 1173 1203 1140 1190 1127 1216 1154 1198 1173 1147 1170 1140 1120 1178 1157 1105 1212 1217 1209 1159 1150 1180 1166 1168 1120 1168 1241 1207 1149 1163 1187 1253 1228 1183 1136 1121 1177 1165 1149 1191 1178 1196 1183 1135 1176 1174 1155 1186 1145 1131 1124 1105 1192 1165 1146 1197 1200 1113 1143 1172 1099 1133 1145 1147 1167 1170 1182 1217 1184 1217 1245 1139 1175 1123 1237 1195 1173 1206 1184 1157 1156 1156 1191 1225 1211 1159 1199 1135 1165 1155 1205 1218 1157 1196 1216 1127 1111 1178 1166 1114 1207 1190 1197 1159 1151 1067 1164 1149 1133 1160 1084 1237 1142 1147 1166 1171 1157 1213 1183 1179 1164 1199 1162 1165 1128 1219 1208 1158 1146 1170 1113 1165 1155 1187 1139 1088 1159 1208 1249 1146 1139 1169 1133 1100 1146 1239 1198 1129 1168 1146 1211 1195 1126 1186 1189 1179 1196 1226 1220 1196 1159 1195 1119 1193 1209 1174 1206 1161 1226 1224 1244 1160 1295 1196 1204 1229 1198 1174 1256 1280 1221 1238 1192 1288 1258 1228 1190 1211 1220 1250 1256 1221 1236 1224 1269 1285 1189 1243 1181 1232 1222 1214 1226 1220 1236 1271 1259 1245 1147 1163 1236 1219 1201 1177 1178 1176 1126 1112 1196 1213 1165 1203 1211 1177 1121 1130 1218 1170 1212 1187 1185 1238 1157 1210 1176 1140 1247 1193 1232 1189 1185 1194 1138 1167 1198 1288 1105 1178 1179 1194 1206 1226 1159 1244 1136 1152 1187 1219 1194 1176 1211 1236 1180 1175 1197 1114 1116 1194 1133 1205 1200 1168 1158 1168 1185 1187 1185 1124 1179 1152 1172 1196 1157 1115 1216 1150 1134 1180 1179 1152 1179 1144 1186 1156 1153 1157 1179 1193 1242 1153 1181 1154 1191 1228 1214 1199 1239 1165 1218 1202 1154 1213 1178 1125 1214 1180 1216 1205 1171 1138 1126 1229 1163 1185 1191 1160 1102 1183 1218 1120 1203 1202 1146 1170 1211 1130 1161 1181 1201 1157 1187 1251 1201 1171 1131 1131 1128 1207 1173 1186 1176 1192 1166 1210 1202 1244 1220 1212 1178 1189 1189 1172 1162 1186 1145 1146 1133 1205 1106 1138 1219 1186 1139 1181 1196 1158 1149 1151 1132 1185 1141 1202 1183 1165 1207 1140 1188 1172 1165 1190 1164 1154 1125 1139 1136 1205 1162 1198 1184 1223 1122 1253 1207 1178 1197 1114 1161 1151 1147 1250 1205 1191 1116 1215 1177 1196 1205 1168 1215 1083 1155 1141 1171 1145 1194 1182 1161 1192 1206 1186 1185 1135 1180 1168 1158 1115 1202 1164 1192 1143 1167 1087 1112 1105 1132 1216 1261 1263 1141 1167 1191 1189 1240 1202 1156 1175 1193 1217 1243 1188 1201 1257 1311 1200 1199 1255 1218 1212 1261 1238 1215 1236 1239 1273 1297 1198 1287 1226 1320 1298 1335 1282 1295 1358 1341 1318 1263 1427 1372 1352 1363 1401 1382 1383 1451 1378 1385 1388 1362 1427 1414 1375 1340 1417 1403 1348 1379 1395 1411 1418 1328 1381 1346 1303 1362 1353 1377 1317 1254 1314 1338 1216 1291 1231 1278 1263 1288 1308 1233 1193 1181 1223 1247 1300 1266 1237 1290 1220 1229 1165 1246 1189 1221 1251 1257 1199 1253 1241 1238 1297 1221 1243 1272 1226 1214 1180 1304 1227 1280 1278 1220 1169 1184 1215 1254 1244 1260 1188 1198 1235 1216 1236 1193 1218 1159 1185 1261 1228 1238 1130 1206 1205 1191 1198 1170 1195 1197 1226 1248 1164 1204 1201 1211 1246 1181 1181 1239 1198 1252 1152 1180 1238 1179 1164 1228 1157 1220 1219 1241 1226 1143 1229 1145 1253 1159 1232 1192 1160 1189 1235 1203 1218 1162 1197 1194 1201 1255 1256 1234 1243 1220 1223 1213 1198 1194 1144 1256 1256 1228 1234 1203 1203 1179 1279 1198 1234 1234 1244 1244 1238 1165 1232 1255 1164 1308 1164 1189 1132 1194 1239 1229 1224 1257 1253 1226 1233 1189 1225 1219 1204 1268 1246 1198 1225 1188 1169 1252 1211 1202 1199 1229 1193 1239 1133 1188 1216 1196 1206 1176 1219 1177 1122 1209 1202 1095 1199 1185 1216 1236 1183 1216 1171 1133 1214 1194 1174 1208 1144 1206 1186 1231 1205 1158 1220 1224 1121 1108 1129 1186 1134 1186 1196 1121 1180 1162 1140 1163 1216 1211 1196 1196 1218 1205 1188 1230 1192 1166 1206 1138 1154 1169 1173 1170 1203 1242 1240 1160 1180 1130 1201 1232 1202 1157 1228 1221 1131 1173 1194 1096 1171 1167 1175 1179 1149 1136 1172 1178 1245 1146 1141 1132 1125 1112 1135 1156 1158 1179 1179 1192 1198 1137 1163 1239 1184 1179 1185 1202 1169 1225 1220 1184 1152 1137 1142 1153 1182 1192 1189 1192 1157 1162 1169 1138 1185 1184 1171 1138 1144 1203 1225 1190 1169 1143 1173 1135 1156 1154 1180 1141 1170 1182 1184 1218 1200 1162 1141 1203 1158 1140 1180 1197 1232 1197 1117 1180 1057 1171 1170 1134 1208 1197 1189 1118 1168 1163 1170 1235 1156 1172 1191 1205 1099 1122 1181 1196 1185 1121 1169 1204 1236 1133 1120 1187 1154 1194 1169 1148 1216 1192 1113 1151 1151 1174 1244 1224 1170 1129 1147 1192 1231 1151 1130 1172 1200 1170 1186 1181 1228 1165 1205 1143 1212 1168 1180 1217 1238 1186 1150 1211 1200 1204 1256 1122 1201 1192 1193 1170 1221 1218 1208 1246 1202 1106 1202 1177 1189 1170 1147 1226 1189 1168 1227 1247 1184 1242 1178 1197 1169 1256 1152 1170 1172 1158 1197 1162 1122 1181 1182 1185 1228 1187 1179 1180 1156 1183 1177 1185 1138 1107 1224 1185 1221 1118 1248 1127 1120 1146 1103 1158 1147 1152 1199 1170 1189 1213 1172 1175 1230 1193 1123 1216 1219 1123 1183 1183 1176 1257 1241 1190 1229 1164 1169 1202 1203 1203 1118 1139 1175 1164 1185 1221 1204 1187 1108 1246 1157 1152 1207 1120 1114 1168 1144 1171 1185 1181 1173 1138 1196 1210 1161 1235 1130 1186 1246 1169 1145 1169 1194 1097 1137 1181 1137 1161 1191 1152 1200 1169 1231 1161 1264 1152 1159 1223 1220 1172 1168 1182 1172 1177 1223 1167 1175 1179 1203 1186 1174 1188 1134 1241 1186 1211 1225 1243 1218 1214 1163 1170 1116 1212 1200 1210 1130 1177 1215 1142 1201 1170 1151 1202 1164 1103 1215 1162 1150 1154 1168 1144 1160 1180 1235 1183 1240 1187 1209 1225 1184 1251 1196 1205 1164 1194 1264 1223 1183 1189 1184 1180 1173 1184 1170 1169 1208 1216 1189 1124 1218 1207 1215 1226 1208 1206 1199 1180 1241 1178 1195 1259 1208 1211 1185 1202 1279 1284 1159 1301 1191 1221 1287 1213 1199 1209 1222 1204 1203 1188 1145 1233 1117 1198 1310 1285 1234 1194 1278 1227 1249 1328 1223 1196 1289 1230 1248 1267 1296 1242 1223 1228 1317 1151 1305 1213 1285 1275 1235 1199 1285 1293 1253 1249 1237 1265 1277 1269 1204 1299 1255 1254 1209 1240 1234 1262 1258 1309 1295 1275 1249 1253 1270 1224 1253 1276 1268 1288 1263 1331 1306 1289 1231 1299 1233 1319 1289 1289 1289 1335 1280 1269 1329 1330 1349 1360 1363 1446 1316 1400 1368 1330 1312 1378 1335 1389 1279 1320 1247 1288 1329 1258 1365 1323 1206 1288 1316 1279 1307 1304 1161 1279 1204 1245 1280 1177 1271 1277 1342 1241 1275 1230 1207 1202 1296 1243 1239 1216 1243 1229 1217 1290 1181 1145 1292 1280 1149 1183 1226 1193 1192 1214 1190 1195 1251 1247 1274 1248 1228 1278 1271 1248 1253 1195 1171 1309 1240 1271 1276 1220 1160 1244 1282 1257 1255 1282 1286 1355 1271 1293 1283 1250 1290 1279 1306 1263 1304 1262 1288 1298 1220 1269 1355 1217 1259 1265 1296 1273 1206 1271 1266 1266 1317 1321 1259 1294 1214 1241 1225 1320 1312 1265 1232 1212 1321 1224 1247 1253 1267 1293 1271 1212 1265 1175 1239 1265 1228 1219 1247 1267 1230 1248 1296 1293 1248 1282 1199 1235 1264 1188 1266 1252 1282 1291 1259 1248 1256 1252 1258 1235 1268 1266 1236 1293 1276 1225 1283 1274 1223 1281 1261 1222 1210 1282 1259 1342 1230 1283 1293 1271 1258 1276 1269 1283 1200 1239 1253 1255 1304 1314 1258 1283 1264 1303 1242 1301 1265 1320 1303 1317 1366 1267 1290 1301 1330 1244 1320 1282 1339 1364 1384 1339 1451 1370 1364 1424 1395 1333 1437 1375 1525 1447 1463 1471 1520 1507 1597 1553 1593 1507 1590 1681 1628 1604 1577 1689 1637 1666 1624 1625 1712 1673 1627 1677 1644 1689 1704 1690 1643 1658 1583 1687 1581 1642 1528 1614 1535 1497 1572 1563 1508 1553 1484 1507 1535 1504 1520 1568 1469 1470 1432 1462 1408 1328 1390 1421 1412 1384 1335 1366 1306 1322 1321 1341 1312 1230 1332 1314 1290 1293 1261 1339 1294 1352 1272 1276 1281 1327 1344 1359 1371 1331 1323 1256 1300 1273 1321 1278 1329 1366 1406 1395 1403 1315 1269 1275 1379 1319 1325 1377 1347 1306 1286 1367 1362 1339 1343 1336 1335 1297 1359 1364 1430 1311 1271 1293 1352 1372 1318 1353 1278 1381 1381 1377 1356 1291 1298 1299 1229 1301 1312 1359 1309 1305 1330 1358 1238 1259 1245 1292 1347 1285 1266 1238 1315 1283 1181 1292 1235 1287 1281 1309 1255 1346 1278 1260 1262 1269 1318 1321 1267 1281 1265 1269 1326 1321 1304 1272 1331 1247 1309 1374 1328 1288 1377 1351 1268 1341 1317 1291 1289 1291 1358 1267 1319 1339 1352 1355 1313 1242 1307 1330 1347 1340 1336 1383 1323 1293 1321 1318 1365 1304 1328 1294 1275 1310 1311 1269 1265 1283 1343 1344 1304 1241 1327 1302 1259 1266 1291 1368 1308 1265 1210 1276 1305 1229 1340 1321 1320 1269 1244 1251 1243 1207 1350 1245 1350 1219 1302 1135 1201 1260 1230 1205 1224 1249 1178 1204 1170 1218 1224 1144 1213 1201 1281 1229 1224 1245 1201 1169 1247 1298 1271 1305 1275 1227 1250 1257 1247 1293 1212 1161 1261 1185 1155 1189 1263 1175 1257 1148 1237 1190 1203 1261 1236 1192 1218 1200 1262 1250 1248 1161 1184 1212 1243 1260 1184 1260 1213 1245 1219 1221 1244 1216 1214 1199 1282 1196 1171 1208 1180 1159 1209 1207 1247 1190 1269 1252 1208 1206 1262 1200 1267 1163 1261 1166 1200 1229 1182 1193 1345 1202 1212 1245 1197 1218 1301 1215 1189 1227 1201 1253 1157 1250 1268 1191 1242 1177 1240 1159 1165 1236 1180 1204 1189 1197 1171 1222 1245 1185 1193 1209 1213 1184 1292 1213 1252 1254 1258 1183 1222 1268 1236 1238 1255 1244 1238 1180 1194 1242 1189 1183 1150 1187 1242 1252 1200 1202 1219 1216 1175 1248 1198 1214 1130 1292 1219 1188 1201 1210 1170 1203 1260 1222 1261 1225 1204 1217 1177 1217 1199 1255 1184 1248 1177 1174 1175 1199 1154 1235 1207 1178 1226 1172 1126 1235 1245 1296 1237 1188 1226 1205 1235 1207 1141 1250 1181 1199 1138 1246 1173 1164 1199 1221 1311 1208 1226 1243 1198 1145 1295 1125 1164 1215 1148 1194 1214 1243 1172 1187 1205 1232 1216 1182 1180 1200 1242 1224 1174 1156 1154 1189 1221 1235 1218 1283 1205 1123 1237 1221 1209 1214 1216 1213 1163 1195 1238 1259 1201 1252 1173 1277 1199 1163 1193 1244 1201 1206 1231 1192 1205 1129 1139 1221 1189 1155 1195 1206 1199 1103 1239 1197 1212 1222 1168 1195 1212 1257 1196 1183 1271 1202 1220 1226 1253 1139 1250 1166 1149 1188 1224 1168 1184 1241 1205 1152 1234 1322 1220 1181 1181 1261 1211 1188 1178 1185 1204 1224 1157 1173 1231 1207 1210 1216 1181 1181 1224 1215 1212 1179 1241 1206 1235 1209 1221 1197 1140 1141 1179 1218 1182 1202 1196 1201 1248 1160 1202 1245 1196 1191 1205 1255 1177 1208 1204 1203 1152 1178 1258 1186 1153 1234 1217 1218 1175 1229 1251 1192 1140 1130 1214 1220 1248 1234 1158 1237 1113 1219 1200 1179 1220 1269 1244 1211 1226 1238 1111 1187 1251 1238 1190 1197 1233 1223 1237 1213 1224 1207 1239 1277 1229 1255 1238 1202 1194 1188 1222 1156 1249 1248 1239 1226 1181 1284 1267 1242 1262 1198 1275 1268 1250 1213 1322 1205 1206 1237 1273 1304 1233 1331 1222 1277 1275 1248 1241 1318 1182 1221 1257 1263 1272 1187 1211 1225 1248 1254 1274 1290 1262 1180 1289 1225 1268 1219 1240 1253 1216 1215 1296 1300 1243 1251 1285 1187 1216 1212 1194 1214 1225 1249 1213 1208 1246 1239 1182 1210 1126 1237 1191 1280 1209 1180 1221 1238 1225 1196 1115 1261 1240 1268 1218 1234 1202 1218 1215 1234 1249 1195 1223 1222 1173 1163 1228 1233 1218 1267 1227 1199 1190 1260 1227 1241 1233 1236 1215 1120 1239 1188 1197 1241 1233 1218 1196 1189 1162 1190 1262 1151 1168 1196 1163 1162 1249 1204 1226 1185 1226 1235 1221 1155 1184 1153 1140 1328 1177 1215 1223 1185 1228 1221 1223 1201 1270 1193 1260 1221 1175 1179 1162 1191 1231 1225 1199 1225 1241 1192 1158 1205 1197 1172 1250 1223 1249 1150 1211 1202 1201 1238 1184 1262 1193 1227 1228 1225 1183 1167 1195 1211 1265 1157 1262 1163 1214 1195 1170 1251 1205 1204 1183 1194 1226 1187 1195 1227 1198 1174 1207 1197 1188 1258 1201 1197 1174 1203 1149 1233 1208 1195 1152 1199 1195 1298 1235 1199 1222 1228 1223 1217 1133 1247 1182 1246 1176 1152 1212 1208 1210 1257 1280 1287 1207 1344 1159 1245 1214 1292 1268 1222 1251 1261 1174 1208 1278 1213 1193 1264 1236 1298 1252 1222 1232 1146 1187 1179 1228 1186 1279 1269 1195 1283 1305 1223 1155 1256 1262 1237 1225 1325 1263 1278 1264 1239 1235 1278 1322 1299 1288 1243 1265 1318 1405 1370 1335 1351 1342 1393 1384 1406 1388 1465 1382 1446 1448 1488 1514 1518 1489 1545 1556 1543 1547 1487 1564 1545 1521 1544 1509 1565 1559 1568 1485 1502 1553 1495 1552 1560 1523 1476 1494 1487 1470 1486 1457 1509 1424 1402 1476 1471 1500 1416 1485 1426 1359 1429 1418 1380 1427 1414 1418 1416 1358 1415 1398 1430 1398 1454 1338 1365 1408 1365 1364 1298 1324 1316 1281 1260 1334 1321 1333 1292 1226 1260 1317 1223 1266 1313 1269 1254 1279 1297 1263 1297 1299 1283 1171 1246 1348 1317 1297 1276 1274 1307 1277 1271 1261 1244 1288 1229 1360 1317 1298 1237 1264 1349 1256 1302 1273 1335 1326 1319 1336 1329 1273 1318 1317 1304 1280 1293 1286 1315 1311 1270 1329 1359 1288 1331 1320 1305 1322 1271 1312 1270 1213 1249 1251 1342 1278 1346 1299 1294 1266 1257 1317 1254 1264 1293 1277 1239 1317 1285 1294 1267 1350 1270 1309 1264 1231 1285 1291 1298 1314 1314 1308 1299 1259 1297 1241 1258 1273 1255 1373 1277 1263 1285 1296 1328 1282 1318 1281 1251 1321 1280 1281 1341 1286 1331 1235 1319 1289 1279 1272 1294 1301 1240 1361 1384 1282 1349 1252 1256 1282 1313 1290 1230 1298 1239 1332 1313 1338 1259 1210 1345 1306 1245 1301 1391 1320 1257 1290 1333 1310 1277 1261 1306 1328 1324 1343 1253 1313 1256 1307 1274 1292 1291 1353 1283 1264 1335 1248 1294 1242 1199 1273 1319 1202 1291 1266 1324 1294 1194 1220 1283 1289 1346 1221 1314 1243 1290 1260 1283 1206 1266 1279 1282 1183 1271 1211 1256 1245 1222 1193 1190 1241 1288 1278 1210 1284 1214 1243 1239 1208 1229 1257 1226 1185 1199 1177 1234 1267 1209 1227 1201 1213 1226 1208 1162 1278 1258 1229 1188 1259 1217 1243 1246 1265 1208 1198 1233 1249 1260 1250 1238 1256 1223 1238 1260 1204 1216 1229 1121 1197 1215 1178 1204 1280 1213 1193 1212 1204 1255 1179 1205 1225 1219 1220 1231 1247 1202 1259 1198 1175 1269 1208 1320 1218 1201 1239 1198 1186 1266 1213 1266 1209 1227 1210 1262 1150 1214 1236 1260 1187 1251 1267 1266 1197 1227 1206 1171 1181 1283 1274 1267 1264 1248 1241 1285 1251 1262 1286 1180 1222 1211 1169 1210 1270 1216 1197 1239 1209 1237 1223 1167 1262 1249 1200 1219 1282 1251 1187 1208 1230 1240 1280 1228 1243 1234 1193 1198 1172 1220 1219 1180 1221 1238 1196 1212 1209 1258 1216 1192 1250 1295 1208 1165 1190 1179 1244 1267 1262 1200 1210 1200 1140 1087 1218 1158 1175 1178 1227 1221 1255 1173 1211 1219 1227 1200 1209 1205 1224 1224 1243 1241 1225 1174 1211 1252 1212 1288 1171 1154 1239 1334 1206 1257 1219 1257 1226 1298 1189 1200 1173 1195 1275 1254 1249 1227 1212 1215 1174 1235 1221 1186 1151 1278 1230 1200 1195 1212 1168 1227 1231 1262 1249 1245 1276 1166 1261 1229 1178 1136 1143 1225 1219 1248 1217 1207 1206 1205 1175 1217 1223 1280 1204 1274 1211 1182 1220 1205 1141 1188 1213 1241 1233 1223 1290 1230 1170 1211 1234 1175 1172 1218 1190 1272 1232 1260 1266 1187 1204 1206 1187 1185 1214 1247 1209 1253 1186 1253 1237 1186 1180 1212 1196 1221 1234 1156 1219 1215 1163 1227 1293 1190 1231 1232 1303 1294 1254 1285 1275 1292 1221 1226 1163 1224 1154 1237 1194 1232 1225 1209 1146 1296 1206 1136 1238 1284 1270 1225 1219 1197 1286 1190 1261 1262 1241 1228 1254 1201 1243 1243 1229 1186 1206 1218 1188 1233 1237 1253 1153 1262 1164 1278 1252 1213 1255 1162 1223 1243 1256 1217 1261 1224 1209 1235 1213 1278</counts>
			</dataPoints>
		</scan>
	</xrdMeasurement>
</xrdMeasurements>
