<?xml version="1.0"?>
<xrdMeasurements xmlns="http://www.xrdml.com/XRDMeasurement/2.3" xmlns:xsi="http://www.w3.org/2001/XMLSchema-instance" xsi:schemaLocation="http://www.xrdml.com/XRDMeasurement/2.3 http://www.xrdml.com/XRDMeasurement/2.3/XRDMeasurement.xsd" status="Completed" recordIdentifier="{0FFE8F63-A233-4758-A149-1056787BE121}">
	<comment>
		<entry/>
	</comment>
	<sample type="To be analyzed">
		<id>GPSS_Li1p6Fe0p8Mn0p4Cl4_110625_690d9f07f040177efa2b78f1</id>
		<name></name>
		<preparedBy></preparedBy>
	</sample>
	<xrdMeasurement measurementType="Scan" status="Completed" sampleMode="Reflection">
		<usedWavelength intended="K-Alpha 1">
			<kAlpha1 unit="Angstrom">1.5405980</kAlpha1>
			<kAlpha2 unit="Angstrom">1.5444260</kAlpha2>
			<kBeta unit="Angstrom">1.3922500</kBeta>
			<ratioKAlpha2KAlpha1>0.5000</ratioKAlpha2KAlpha1>
		</usedWavelength>
		<incidentBeamPath>
			<radius unit="mm">145.00</radius>
			<xRayTube id="1010048" name="Empyrean Cu LFF HR (9430 033 7310x)">
				<tension unit="kV">40.0</tension>
				<current unit="mA">15.0</current>
				<anodeMaterial>Cu</anodeMaterial>
				<focus type="Line">
					<length unit="mm">12.0</length>
					<width unit="mm">0.4</width>
					<takeOffAngle unit="deg">6.0</takeOffAngle>
				</focus>
			</xRayTube>
			<sollerSlit id="21010002" name="Soller slits 0.04 rad.">
				<opening unit="rad">0.0400</opening>
			</sollerSlit>
			<mask id="22031000" name="Fixed mask 13 mm">
				<width unit="mm">9.00</width>
			</mask>
			<divergenceSlit id="22120001" name="Divergence slit 1°" xsi:type="fixedDivergenceSlitType">
				<distanceToSample unit="mm">50.00</distanceToSample>
				<height unit="mm">1.52</height>
			</divergenceSlit>
		</incidentBeamPath>
		<sampleMovement xsi:type="spinningSampleMovementType">
			<spinnerRevolutionTime unit="seconds">1.0</spinnerRevolutionTime>
		</sampleMovement>
		<diffractedBeamPath>
			<radius unit="mm">145.00</radius>
			<antiScatterSlit id="22090040" name="AS slit 9 mm (PIXcel)" xsi:type="fixedAntiScatterSlitType">
				<height unit="mm">9.00</height>
			</antiScatterSlit>
			<sollerSlit id="21020003" name="Large Soller slits 0.04 rad.">
				<opening unit="rad">0.0400</opening>
			</sollerSlit>
			<filter id="20030001" name="Large beta-filter Nickel">
				<material>Ni</material>
				<thickness unit="mm">0.020</thickness>
			</filter>
			<detector id="7010019" name="PIXcel1D-Medipix3 detector" xsi:type="rtmsDetectorType">
				<phd unit="keV">
					<lowerLevel>4.02</lowerLevel>
					<upperLevel>11.27</upperLevel>
				</phd>
				<mode>Scanning</mode>
				<activeLength unit="deg">5.542</activeLength>
			</detector>
		</diffractedBeamPath>
		<scan appendNumber="0" mode="Continuous" scanAxis="Gonio" status="Completed">
			<header>
				<startTimeStamp>2025-11-09T12:58:38-08:00</startTimeStamp>
				<endTimeStamp>2025-11-09T13:06:45-08:00</endTimeStamp>
				<author>
					<name>AutomatedUser</name>
				</author>
				<source>
					<applicationSoftware version="1.7b (136)">PANalytical Aeris Instrument Suite</applicationSoftware>
					<instrumentControlSoftware version="3.2.00000000 20240306">AERIS</instrumentControlSoftware>
					<instrumentID>950485</instrumentID>
				</source>
			</header>
			<dataPoints>
				<positions axis="2Theta" unit="deg">
					<startPosition>10.00943322</startPosition>
					<endPosition>99.99442286</endPosition>
				</positions>
				<positions axis="Omega" unit="deg">
					<startPosition>5.00471661</startPosition>
					<endPosition>49.99721143</endPosition>
				</positions>
				<commonCountingTime unit="seconds">12.495</commonCountingTime>
				<counts unit="counts">2967 3112 3105 3041 3145 3171 3178 3096 3144 3126 3081 3115 3055 3148 3035 3099 2989 3118 3148 3063 3183 3200 3049 3039 3207 3100 3088 3071 2985 3095 3030 3070 3081 3043 3149 3208 3052 3088 3056 3088 3149 2991 3224 3186 3097 3118 3146 3080 3064 3130 3159 3118 3016 3249 3089 3030 3184 3162 3214 3066 3124 3101 3104 3177 3103 3294 3195 3174 3103 3129 3162 3102 3080 3125 3133 3327 3158 3262 3023 3195 3171 3215 3259 3278 3146 3073 3161 3137 3092 3113 3217 3107 3210 3168 3191 3162 3177 3191 3128 3222 3238 3181 3120 3044 3151 3112 3115 3099 3086 3098 3131 3053 3090 3134 3094 3112 3126 3118 3192 2995 3081 3117 3081 3173 3147 3021 2984 3085 3118 3051 3173 3070 3085 2980 3102 3029 3043 3052 3116 3114 3125 3071 3063 3071 3079 3193 3085 2962 3080 3192 3118 2976 3170 3056 3022 3049 3079 3064 3008 3088 3059 3136 3121 3069 3077 3120 3087 2957 2987 3074 3024 3058 3139 3054 3072 3018 3095 3097 3001 3113 2969 3119 2952 2925 3119 3080 3083 3131 3082 2976 2991 3008 3012 3100 3122 3044 3071 3037 3107 2977 3075 3102 3012 3052 3000 2995 3002 2979 3090 3033 3088 3063 3176 3186 3014 2997 3115 3028 3120 3013 3007 3005 3060 2945 3028 3116 3055 2985 3170 3013 3108 3113 3063 3069 3105 3091 3002 2966 3058 2993 2987 3117 2872 2926 2984 3028 3032 3057 3048 3036 2954 3033 3034 2935 2967 2925 2937 2947 2940 3065 2985 2960 3030 2925 3039 2974 3070 2912 2908 2953 3032 2884 3020 2894 3089 2971 2891 2966 3081 2981 3003 2900 3066 2897 3048 2938 3037 2994 2953 2923 3037 2957 2965 3003 2989 2941 2941 2848 2919 2966 3093 2997 3013 3120 3003 3008 2990 2929 3011 2992 3078 3096 2874 3052 2994 3004 2915 3017 2896 3041 2899 3000 2940 2906 2886 3007 2832 3066 2906 3059 2933 2972 3002 3062 3002 2937 2974 2966 2986 2973 2981 2990 2975 3029 2903 2980 2955 2986 3053 3024 3053 2871 2952 3017 2996 3050 2938 3059 2959 3119 2903 3063 2949 3106 3079 3016 3066 3087 3093 3036 3110 3071 3036 3064 3099 3067 3119 3107 3050 3127 3117 3071 3016 3059 3016 3104 3160 3119 3068 3072 3161 3258 3231 3216 2997 3269 3290 3116 3219 3221 3282 3281 3317 3321 3370 3354 3331 3458 3499 3561 3511 3509 3669 3760 3790 3881 4005 3921 4249 4337 4506 4618 4822 4844 5027 5231 5284 5344 5517 5682 5552 5584 5683 5488 5394 5318 5197 5237 5265 5189 5177 4834 4776 4626 4559 4458 4390 4309 4071 4151 3915 3902 3845 3703 3916 3882 3775 3839 3720 3783 3810 3761 3787 3666 3802 3713 3684 3740 3770 3704 3754 3640 3647 3736 3708 3653 3556 3498 3461 3467 3599 3594 3503 3495 3455 3443 3501 3437 3368 3338 3248 3313 3370 3334 3382 3303 3386 3303 3316 3295 3180 3191 3242 3412 3237 3198 3297 3192 3263 3225 3322 3301 3135 3179 3261 3262 3371 3246 3200 3259 3249 3149 3290 3218 3139 3177 3347 3187 3297 3247 3256 3155 3269 3204 3343 3163 3290 3159 3157 3207 3247 3149 3217 3172 3233 3164 3154 3155 3163 3169 3164 3188 3166 3150 3044 3150 3110 3241 3192 3162 3155 3156 3202 3178 3104 3149 3132 3155 3138 2982 3087 3200 3095 3013 3094 3082 3035 3064 3087 3107 3140 3093 3105 2974 3167 3092 3084 3014 3098 3123 3135 3039 3107 3138 3023 3092 3015 3063 3032 3013 3096 2990 3090 2971 3067 2956 2975 3060 3061 2996 3175 3027 3173 3072 3088 3090 3089 3001 3036 2987 3111 3105 3058 3093 3014 2929 3044 3104 3056 3056 3013 2939 3053 3073 3008 3135 2962 3009 2972 3155 3099 2879 3129 2943 2971 3015 3076 3007 3084 2996 2967 3065 2925 2987 3010 3071 3007 3002 2983 3020 2991 2994 3185 3007 2968 3101 2934 3004 2921 2965 2907 3031 3022 2985 2940 3041 2852 3027 2924 2894 3015 3068 3015 3037 3089 2969 2915 3001 2958 2880 3018 2969 2932 2854 2894 2940 3028 2913 2847 2945 2912 2938 2878 2882 2954 3028 2958 3001 2870 2963 2909 2926 2941 2931 3009 2946 3063 2960 2880 2918 2918 2833 2907 2898 2965 2805 2816 2896 2850 2983 2966 2849 2939 2863 3005 2933 2918 2843 2933 2883 2861 2911 2791 2895 2917 2854 2893 2897 2913 2924 2866 2774 2768 2903 2773 2874 2881 2812 2932 2838 2824 2839 2826 2818 2812 2863 2864 2814 2914 2920 2988 2889 2905 2850 2888 2840 2939 2882 2908 2831 2829 2922 2857 2776 2787 2829 2792 2844 2835 2765 2802 2782 2828 2846 2822 2806 2810 2753 2869 2747 2792 2906 2783 2839 2909 2796 2761 2813 2783 2786 2916 2690 2772 2710 2785 2809 2740 2832 2856 2770 2739 2707 2731 2829 2739 2916 2778 2764 2838 2839 2884 2820 2823 2723 2747 2813 2763 2862 2809 2813 2764 2779 2787 2766 2805 2883 2665 2779 2769 2728 2867 2843 2767 2813 2744 2734 2837 2663 2824 2693 2759 2703 2754 2747 2776 2769 2840 2705 2770 2719 2680 2793 2654 2737 2777 2811 2780 2708 2682 2699 2797 2721 2712 2762 2716 2767 2716 2697 2699 2833 2757 2684 2669 2717 2703 2698 2753 2776 2736 2678 2723 2822 2786 2770 2712 2702 2674 2732 2718 2633 2712 2728 2749 2692 2720 2760 2718 2780 2716 2713 2658 2743 2639 2723 2779 2684 2703 2704 2724 2724 2631 2750 2729 2669 2660 2693 2671 2660 2634 2717 2659 2673 2597 2771 2691 2729 2597 2763 2681 2660 2656 2615 2663 2632 2754 2649 2726 2686 2680 2657 2680 2764 2598 2768 2568 2686 2620 2605 2716 2611 2673 2607 2539 2562 2776 2659 2613 2712 2622 2673 2681 2670 2612 2705 2675 2696 2672 2622 2690 2602 2698 2542 2625 2617 2607 2569 2678 2707 2523 2616 2693 2658 2571 2592 2658 2624 2612 2627 2666 2596 2745 2699 2594 2557 2563 2673 2599 2632 2592 2652 2614 2540 2603 2595 2554 2570 2686 2675 2659 2622 2553 2589 2722 2665 2663 2666 2661 2620 2651 2533 2616 2687 2652 2599 2525 2558 2616 2666 2486 2614 2585 2613 2552 2594 2657 2622 2551 2665 2513 2611 2551 2440 2569 2677 2665 2606 2530 2635 2668 2576 2572 2589 2593 2647 2563 2604 2600 2648 2591 2625 2578 2709 2674 2526 2542 2641 2553 2537 2602 2641 2662 2611 2545 2668 2649 2602 2611 2588 2652 2543 2590 2604 2561 2494 2555 2517 2508 2648 2560 2518 2603 2614 2746 2567 2644 2608 2543 2594 2568 2630 2606 2638 2613 2574 2600 2521 2618 2519 2626 2507 2591 2572 2621 2569 2561 2564 2526 2535 2573 2571 2633 2529 2554 2599 2642 2571 2610 2602 2536 2611 2618 2458 2632 2586 2508 2502 2527 2590 2542 2498 2484 2600 2630 2520 2581 2569 2560 2596 2604 2510 2581 2520 2574 2464 2555 2513 2518 2559 2525 2620 2554 2553 2570 2409 2497 2502 2580 2567 2545 2519 2523 2604 2465 2602 2555 2607 2549 2470 2540 2521 2472 2443 2477 2522 2445 2540 2489 2439 2494 2471 2525 2466 2426 2543 2435 2412 2396 2481 2491 2472 2535 2483 2463 2410 2550 2584 2447 2471 2520 2496 2533 2493 2608 2497 2503 2545 2426 2531 2480 2528 2490 2490 2566 2460 2469 2491 2389 2486 2496 2574 2432 2446 2532 2603 2509 2470 2460 2498 2546 2419 2448 2440 2510 2481 2450 2505 2443 2501 2413 2353 2530 2389 2493 2461 2575 2381 2468 2449 2513 2367 2485 2482 2445 2394 2427 2413 2450 2496 2577 2389 2367 2453 2394 2477 2465 2431 2482 2457 2479 2447 2396 2438 2402 2536 2508 2399 2436 2477 2433 2451 2439 2401 2530 2463 2509 2468 2517 2338 2340 2440 2490 2358 2502 2375 2427 2466 2383 2369 2422 2396 2464 2409 2484 2416 2393 2370 2383 2439 2461 2412 2359 2453 2386 2445 2405 2420 2505 2390 2441 2401 2420 2354 2422 2408 2448 2368 2363 2422 2382 2410 2364 2382 2396 2337 2436 2310 2371 2389 2376 2292 2351 2360 2442 2508 2350 2407 2393 2499 2452 2467 2402 2382 2311 2353 2315 2367 2341 2374 2327 2326 2376 2441 2385 2398 2426 2338 2356 2375 2308 2413 2360 2409 2366 2293 2352 2374 2391 2432 2434 2277 2418 2352 2410 2324 2372 2403 2409 2396 2352 2380 2308 2391 2393 2341 2390 2404 2371 2308 2456 2346 2375 2490 2396 2384 2398 2391 2357 2346 2381 2330 2242 2388 2391 2361 2428 2357 2376 2360 2354 2341 2357 2298 2371 2294 2291 2388 2354 2427 2396 2311 2419 2362 2314 2279 2325 2438 2365 2269 2404 2347 2392 2366 2325 2303 2280 2277 2401 2433 2304 2318 2443 2433 2297 2338 2359 2448 2406 2245 2314 2324 2369 2347 2353 2339 2328 2337 2336 2419 2269 2381 2368 2398 2326 2370 2347 2360 2359 2434 2388 2251 2335 2387 2447 2406 2260 2384 2325 2359 2313 2356 2326 2410 2349 2342 2283 2396 2276 2333 2367 2361 2341 2334 2347 2390 2266 2393 2399 2405 2459 2348 2339 2414 2388 2455 2210 2352 2383 2314 2426 2306 2360 2314 2298 2419 2391 2319 2326 2402 2346 2363 2383 2358 2349 2316 2293 2386 2383 2328 2332 2394 2344 2351 2392 2327 2327 2359 2387 2349 2290 2369 2416 2427 2268 2293 2350 2374 2414 2360 2405 2310 2317 2310 2343 2379 2394 2319 2306 2410 2318 2321 2332 2320 2356 2383 2371 2311 2336 2341 2366 2337 2346 2312 2396 2310 2322 2336 2365 2303 2284 2272 2378 2339 2327 2388 2343 2375 2334 2340 2342 2323 2372 2347 2407 2265 2345 2390 2314 2352 2342 2337 2291 2300 2412 2428 2305 2347 2362 2339 2319 2273 2244 2295 2389 2359 2422 2326 2307 2353 2402 2270 2374 2353 2430 2460 2395 2452 2463 2379 2406 2345 2425 2399 2564 2518 2603 2706 2729 2997 2948 3026 3042 3023 3148 3193 3351 3478 3371 3550 3550 3500 3457 3605 3621 3598 3608 3551 3471 3587 3461 3383 3355 3124 3189 3138 3014 2889 2907 2814 2787 2706 2734 2702 2604 2562 2534 2534 2483 2417 2475 2451 2479 2491 2530 2546 2512 2469 2435 2391 2483 2531 2374 2488 2326 2444 2499 2466 2389 2449 2456 2341 2344 2294 2391 2308 2355 2335 2301 2323 2377 2342 2415 2302 2302 2380 2268 2301 2303 2303 2309 2310 2384 2404 2353 2413 2327 2331 2299 2430 2342 2340 2352 2246 2484 2385 2442 2437 2361 2355 2401 2346 2409 2410 2376 2318 2389 2523 2479 2584 2576 2583 2632 2639 2655 2777 2869 2970 3131 3235 3309 3506 3601 3864 4052 4139 4251 4340 4215 4429 4532 4455 4482 4473 4497 4414 4296 4148 4198 3892 3878 3763 3678 3545 3388 3297 3150 3080 2928 2876 2825 2675 2566 2542 2482 2378 2513 2403 2411 2423 2393 2380 2384 2350 2395 2354 2415 2383 2407 2276 2353 2284 2232 2304 2236 2286 2287 2251 2239 2230 2185 2278 2289 2306 2209 2207 2265 2165 2261 2266 2275 2136 2271 2209 2240 2247 2260 2181 2184 2236 2243 2257 2262 2224 2203 2244 2253 2242 2185 2284 2270 2235 2251 2226 2276 2282 2228 2163 2279 2290 2193 2274 2134 2165 2255 2133 2255 2305 2250 2160 2268 2127 2232 2171 2187 2194 2295 2172 2214 2206 2267 2214 2208 2208 2216 2131 2258 2192 2129 2130 2179 2206 2130 2155 2219 2283 2112 2213 2152 2176 2162 2115 2148 2144 2244 2162 2203 2144 2093 2199 2148 2156 2149 2150 2198 2122 2188 2152 2124 2102 2120 2154 2079 2071 2135 2250 2180 2097 2050 2096 2212 2003 2138 2160 2148 2165 2099 2118 2158 2060 2145 2069 2185 2124 2108 2095 2053 2086 2077 2128 2170 2138 2124 2030 2144 2130 2080 2199 2137 2154 2100 2126 2018 2102 2116 2107 2064 2031 2171 2114 2094 2098 2066 2057 2149 2045 2101 2022 2110 2088 2142 2141 2178 2103 2075 2076 2190 2291 2063 2086 2102 2161 2083 2129 2012 2046 2117 2047 2108 2122 2237 2058 2135 2049 2134 2113 2077 2133 2086 2083 2076 2106 2178 2119 2071 2041 2153 2046 2176 2054 2058 2080 2210 2143 2078 2056 2103 2080 1996 2099 2158 2106 2163 2134 2110 2109 2108 2103 2162 2185 2041 2088 2087 2046 2094 2109 2096 2068 2172 2160 2120 2104 2070 2071 2157 2065 2107 2114 2067 2025 2077 2075 2110 2110 2039 2050 2086 2102 2159 2040 2172 2092 2044 2053 2033 2137 2080 2115 2126 2039 2108 2049 2123 2072 2077 2134 2063 2031 2048 2085 2089 2010 2094 2063 2158 2147 2058 2067 2175 2083 2085 2126 2101 2070 2100 2152 2085 2151 2152 2162 2123 2183 2151 2167 2145 2039 2185 2141 2215 2117 2131 2239 2203 2135 2082 2090 2093 2140 2155 2192 2166 2095 2130 2205 2072 2127 2017 2134 2095 2148 2164 2212 2116 2143 2262 2213 2112 2172 2179 2071 2206 2206 2226 2239 2256 2230 2257 2226 2271 2232 2322 2252 2281 2348 2340 2247 2297 2260 2434 2258 2374 2307 2422 2363 2370 2446 2411 2505 2529 2570 2665 2626 2953 2883 2983 3138 3171 3355 3581 3805 4170 4226 4664 4985 5541 5815 6291 6787 6921 7566 7891 8221 8663 8915 9140 9432 9493 9544 9617 9707 9288 9298 9296 8691 8479 8071 7925 7267 6802 6485 6174 5774 5434 4938 4762 4281 4176 3817 3733 3472 3274 3325 3142 3011 2946 2922 2838 2810 2733 2843 2750 2723 2705 2732 2650 2707 2750 2682 2758 2663 2722 2630 2736 2765 2597 2678 2586 2632 2722 2664 2539 2556 2627 2490 2561 2574 2601 2627 2447 2614 2499 2568 2439 2476 2464 2547 2450 2486 2551 2518 2422 2411 2405 2407 2382 2393 2392 2346 2370 2328 2293 2298 2282 2381 2409 2363 2362 2293 2286 2281 2370 2292 2293 2199 2317 2295 2326 2314 2319 2389 2265 2326 2245 2365 2212 2242 2220 2217 2234 2171 2153 2243 2233 2158 2200 2253 2193 2245 2210 2235 2225 2256 2227 2161 2236 2159 2205 2243 2177 2125 2128 2160 2079 2200 2115 2163 2205 2205 2143 2049 2071 2173 2037 2150 2047 2096 2142 2107 2105 2045 2157 2141 2095 1959 2085 2080 2149 2055 2005 2013 2068 2086 1973 2028 1986 2107 2066 2100 2037 2109 2063 2048 2045 2007 2058 2112 2054 2087 2078 2123 1977 2065 2074 2002 2091 1934 2010 1930 2002 2027 2078 2012 1972 2073 2054 2016 2061 2043 2003 2049 2026 2022 1983 1990 2110 2037 2029 1976 1987 1984 2026 2004 2068 2015 2000 1951 2027 2054 2014 2007 2008 1971 2025 1966 2099 1940 1995 2028 1988 2042 2021 1960 2000 1957 2016 1979 1985 1977 2035 1953 1978 1886 1980 1992 1979 1986 1934 2043 2013 1987 1972 1978 1979 1927 1976 2031 1975 1916 1942 1981 1964 2021 1979 2021 1980 2055 2021 1918 1935 2030 1930 2047 2016 1971 1967 2055 2013 2054 2055 1965 2021 2088 2056 2121 1942 2146 2039 2060 2067 2103 2168 2007 2036 2065 2067 2034 2074 2126 2053 2127 2092 2060 2119 2141 2039 2023 1985 2033 1957 1947 1956 1938 1944 2002 2046 2113 1923 1947 2025 2029 2013 1940 1937 1962 1917 1979 1899 1956 1975 2003 1967 1942 1947 1969 1946 1910 1996 1932 1976 2078 1878 2021 1926 1971 1958 2030 1959 1949 2002 2043 2055 1938 1969 2063 1912 1962 1894 2051 2022 1909 1954 1961 1944 1899 1876 1969 1948 1925 1968 1954 1967 1945 1959 2011 1946 1964 1982 1985 1974 1968 1986 2002 2003 1983 1961 1955 1974 1936 2103 2012 1922 2032 1876 1984 1865 1981 1887 1891 1897 1982 1921 1857 1952 1925 1894 1914 1992 1934 1918 1950 1923 1948 1920 1993 1919 1986 1939 1946 1869 1973 1941 1907 2031 1900 1865 1953 1822 1896 1941 1969 1927 1803 1940 1911 1913 1938 1973 1923 1908 1942 1934 1921 1897 1884 1885 1956 1905 1987 1948 1921 1911 1887 1967 1929 1867 1928 1908 1895 1911 1932 1944 1895 1941 1936 1959 1948 1908 1904 1887 1940 1956 1922 1886 1916 1920 1945 1908 1894 1964 1970 1959 2040 1929 1892 1867 1865 1842 1938 1906 1852 1920 1917 1925 1833 1919 1914 1936 1828 1866 1971 1905 1889 1923 2049 1914 1902 1951 1938 1937 1861 1994 1987 1905 1913 1959 1858 1935 1948 1995 1901 1911 1853 1893 1832 1906 1942 1911 1888 1973 1983 1989 1812 1973 1910 1871 1892 1911 1882 1892 1902 1862 1965 1901 1826 1896 1970 1915 1879 1950 1954 1863 1904 1913 1900 1915 1981 1960 1978 1872 1987 1914 1962 1898 1863 1902 1853 1889 1918 1935 1881 1865 2017 1933 1947 1838 1887 1877 1884 1935 1916 1922 1942 1917 1871 1938 1911 1914 1980 1976 1899 1972 2007 1875 1961 1901 1913 1940 1860 1895 1954 1967 1949 1962 1912 1880 1850 1902 1928 1916 1833 1857 1926 1959 1838 1879 1936 1951 1905 1900 1806 1851 1922 1874 1854 1837 1869 1859 1915 1869 1931 1820 1912 1789 1835 1883 1880 1815 1882 1811 1898 1901 1866 1916 1905 1958 1895 1877 1919 1962 1914 1916 1805 1902 1905 1873 1873 1875 1899 1915 1806 1837 1915 1921 1848 1923 1875 1887 1892 1923 1943 1903 1886 1961 1894 1826 1959 1918 1870 1849 1909 1900 1804 1863 1878 1892 1887 1901 1894 1819 1942 1887 1905 1940 1849 1970 1810 1882 1947 1889 1818 1882 1969 1858 1865 1911 1816 1885 1851 1844 1863 1828 1827 1912 1839 1877 1903 1949 1885 1830 1913 1885 1872 1952 1895 1814 1822 1838 1829 1946 1905 1862 1904 1812 1839 1854 1943 1807 1924 1864 1887 1900 1851 1881 1898 1889 1856 1924 1850 1814 1911 1910 1863 1852 1912 1900 1827 1904 1869 1947 1860 1846 1813 1820 1949 1902 1946 1910 1869 1904 1836 1879 1868 1906 1804 1928 1903 1891 1860 1902 1949 1896 1901 1840 1920 1892 1869 1891 1894 1924 1881 1838 1783 1841 1915 1861 1962 1814 1908 1899 1815 1899 1879 1921 1886 1976 1841 1884 1894 1907 1896 1876 1865 1895 1847 1905 1894 1821 1926 1910 1937 1849 1847 1847 1880 1983 1769 1914 1871 1888 1900 1885 1865 1874 1912 1841 1855 1884 1913 1965 1942 1815 1922 1867 1828 1843 1867 1840 1906 1881 1915 1885 1918 1811 1937 1836 1896 1847 1755 1870 1876 1929 1850 1901 1901 1896 1941 1914 1831 1920 1916 1838 1869 1863 1905 1893 1837 1879 1826 1929 1947 1837 1829 1872 1923 1862 1931 1897 1810 1895 1821 1917 1913 1908 1889 1919 1972 1938 1982 1834 1810 1832 1926 1876 1888 1924 1970 1902 1884 1919 1956 1889 1883 1964 1901 1869 1888 1928 1873 1875 1909 1889 1873 1832 1892 1943 1878 1853 1918 1921 1888 1856 1990 1890 1870 1935 1840 1848 1926 1933 1890 1917 1873 1922 1825 1856 1981 1891 1942 1909 1927 1910 2008 1917 2021 2003 1883 1976 1942 1914 1864 1931 1934 1897 1950 1912 1995 1993 2047 2010 2037 1958 2085 2043 2154 2112 2234 2220 2173 2319 2307 2477 2383 2434 2549 2489 2645 2567 2691 2561 2761 2665 2677 2640 2702 2723 2667 2618 2672 2552 2524 2492 2487 2434 2405 2428 2216 2185 2339 2141 2084 2197 2131 2101 2055 2069 1905 1970 1947 2004 2036 1971 1963 1912 1895 1920 1914 2030 1943 1872 1914 1993 1972 1906 1971 1925 1995 1877 1995 1884 1876 1929 1923 1926 1889 1926 1968 1878 1940 1928 1916 1893 1903 1887 2008 1923 1999 1898 1928 1947 1862 1891 1931 1925 2005 1955 1904 1952 1916 1946 1968 1899 1981 1908 1977 1925 1865 1946 1978 2065 1950 1907 1893 1958 1923 1986 1918 1921 1980 1971 1924 1904 1956 1964 1972 1859 1963 1915 1797 1937 1984 1933 1952 1919 1948 1886 1820 1872 1935 1855 1903 1862 1954 1842 1898 1844 1918 1901 1820 1871 1930 1904 1849 1874 1900 1847 1859 1911 1844 1945 1790 1920 1951 1874 1946 1875 1939 1902 1851 1891 1843 1910 1875 1841 1915 1917 1894 1872 1887 1944 1866 1903 1878 1815 1841 1904 1806 1881 1840 1911 1848 1821 1877 1836 1825 1865 1892 1881 1914 1822 1894 1881 1827 1899 1885 1850 1813 1937 1894 1826 1849 1776 1902 1854 1885 1838 1885 1864 1867 1845 1887 1800 1882 1855 1901 1869 1805 1876 1900 1875 1874 1847 1895 1854 1889 1784 1946 1749 1905 1890 1883 1854 1813 1869 1878 1814 1850 1890 1900 1884 1868 1895 1847 1809 1914 1904 1846 1808 1914 1838 1887 1843 1897 1812 1954 1866 1845 1847 1892 1896 1874 1863 1947 1893 1910 1902 1882 1912 1948 1951 1904 1945 1867 1854 1926 1843 1820 1974 1881 1926 1858 1897 1946 1937 1940 1965 1925 1865 1854 1845 1865 1906 1859 1909 1909 1834 1903 1845 1826 1915 1972 1901 1883 1838 1862 1828 1853 1866 1836 2003 1902 1916 1848 1877 1972 1857 1814 1885 1940 1873 1913 1922 1876 1922 1950 1899 1925 1891 1820 1982 1905 1951 1863 1888 1871 1880 1914 1912 1866 1952 1832 1850 1891 1941 1913 1874 1945 1920 2051 1864 1919 1943 1899 1905 1978 1886 2012 1958 1912 2049 1956 1978 2089 2009 2037 2029 2084 2075 1981 2116 2113 2108 2261 2262 2153 2161 2202 2342 2243 2384 2355 2471 2603 2773 2709 2809 3005 3110 3403 3447 3712 3867 3992 4128 4496 4556 4811 4842 5121 5420 5197 5544 5608 5637 5806 5732 5735 5655 5601 5561 5544 5237 5125 5065 4860 4646 4570 4433 4252 4041 4011 3703 3684 3431 3345 3189 3079 2863 2733 2681 2644 2560 2478 2464 2452 2388 2325 2219 2267 2276 2268 2131 2152 2149 2115 2169 2133 2164 2147 2117 2069 2105 2108 2188 2204 2088 2095 2104 2051 2151 2030 2034 2092 2151 2099 2122 2148 2151 2206 2091 2150 2153 2103 2078 2174 2116 2074 2126 2119 2142 2158 2071 2127 2155 1999 2141 2104 2018 2030 2074 2160 2140 2070 2102 2112 2147 2253 2225 2059 2106 2160 2135 2097 2150 2174 2209 2129 2197 2036 2083 2050 2001 2181 2070 2053 2110 2072 2231 2075 2132 1998 1983 1999 2064 2012 2084 2019 2070 2041 1991 2090 1992 2056 2011 2017 1995 2060 1931 2039 1975 1984 1914 2034 1922 2035 1964 2089 1983 2028 2004 1945 1935 2043 1969 1964 1996 2010 1983 1965 1885 1883 1918 1948 1924 1941 1904 1850 1872 1950 1955 1965 1983 1964 1991 2058 1971 1849 1900 1916 1919 1878 1878 1882 1881 1972 1946 1926 1949 1911 1952 2012 1852 1931 1918 1957 1882 1953 1893 1896 2058 1941 1951 1916 1992 2043 1944 1978 1996 1925 2003 1989 2098 1977 2099 2047 2052 2067 2096 2180 2177 2240 2255 2287 2323 2437 2400 2336 2384 2332 2321 2367 2447 2350 2295 2294 2331 2302 2241 2284 2253 2215 2229 2143 2093 2115 2177 2206 2025 2090 2078 2001 2042 1940 1996 1878 1943 1844 1985 1944 1936 1964 2011 1997 1901 1963 1858 1901 1970 1859 1939 1932 1901 1852 1871 1926 1881 1951 2026 1993 1882 1887 1928 1949 1867 1968 1928 1931 1905 1938 1891 1928 1815 1912 1864 1906 1842 1894 1941 1887 1881 1857 1927 1869 1907 1897 1915 1844 1913 1875 1803 1875 1957 1902 1884 1906 1933 1914 1870 1849 1894 1951 1866 1924 1914 1911 1905 1835 1838 1889 1864 1900 1890 1938 1858 1861 1851 1920 1785 1866 1796 1877 1856 1816 1914 1864 1921 1906 1783 1883 1871 1849 1853 1870 1830 1841 1863 1849 1917 1811 1853 1843 1926 1848 1845 1868 1862 1889 1800 1874 1856 1917 1896 1847 1913 1745 1788 1916 1787 1877 1859 1842 1825 1819 1870 1882 1856 1861 1780 1925 1906 1885 1835 1883 1867 1829 1805 1846 1832 1822 1906 1898 1828 1908 1825 1893 1917 1803 1808 1787 1845 1821 1835 1803 1874 1818 1817 1805 1831 1848 1782 1839 1822 1903 1838 1821 1808 1857 1905 1797 1833 1902 1767 1848 1864 1834 1875 1890 1832 1809 1851 1827 1810 1900 1861 1777 1851 1795 1826 1841 1815 1849 1890 1856 1852 1876 1787 1900 1847 1806 1832 1854 1884 1765 1894 1765 1845 1836 1842 1729 1853 1833 1848 1776 1811 1798 1876 1876 1813 1868 1817 1887 1738 1795 1761 1825 1850 1848 1904 1835 1858 1899 1798 1770 1854 1780 1747 1839 1820 1793 1869 1799 1800 1885 1837 1773 1831 1829 1897 1831 1768 1805 1776 1799 1753 1817 1720 1826 1818 1792 1872 1778 1829 1855 1827 1831 1880 1848 1741 1767 1833 1869 1803 1845 1789 1882 1877 1840 1878 1767 1856 1845 1854 1802 1865 1895 1760 1844 1841 1778 1818 1802 1739 1764 1843 1836 1812 1883 1866 1793 1851 1875 1823 1743 1778 1822 1815 1782 1709 1796 1794 1759 1880 1758 1815 1780 1815 1758 1861 1791 1735 1776 1825 1759 1791 1828 1822 1823 1809 1822 1796 1814 1820 1712 1819 1796 1856 1813 1778 1801 1767 1813 1801 1796 1828 1841 1791 1759 1774 1783 1762 1758 1857 1824 1827 1787 1764 1793 1831 1815 1736 1735 1755 1791 1760 1840 1755 1831 1820 1859 1775 1891 1780 1899 1839 1814 1855 1791 1792 1776 1784 1811 1815 1874 1911 1809 1833 1890 1769 1744 1904 1832 1787 1797 1868 1777 1791 1827 1802 1814 1810 1843 1793 1806 1804 1760 1797 1732 1852 1837 1896 1816 1884 1915 1817 1841 1799 1834 1740 1814 1870 1820 1734 1773 1842 1869 1850 1794 1863 1865 1830 1854 1822 1831 1844 1857 1744 1813 1871 1792 1904 1768 1805 1829 1690 1814 1813 1819 1781 1821 1835 1786 1813 1787 1830 1898 1858 1889 1779 1749 1781 1852 1823 1821 1765 1870 1741 1755 1814 1913 1771 1812 1827 1772 1821 1838 1835 1785 1848 1830 1690 1827 1725 1832 1766 1821 1817 1818 1769 1822 1797 1836 1809 1828 1785 1767 1805 1790 1828 1762 1810 1757 1783 1854 1910 1827 1858 1804 1758 1856 1754 1798 1847 1842 1754 1895 1917 1797 1810 1865 1802 1778 1862 1880 1896 1893 1840 1979 1968 1895 1980 1941 1946 1921 1885 1896 1936 1951 1962 1981 1939 1929 1896 1957 1954 1908 1886 1863 1909 1914 1915 1914 1841 1865 1895 1896 1854 1850 1787 1949 1817 1896 1768 1848 1865 1876 1859 1815 1934 1880 1860 1863 1895 1808 1877 1900 1827 1949 1894 1899 1936 1825 2012 1943 1921 2025 1902 2066 1930 2053 2050 2067 2066 2120 2097 2164 2129 2104 2144 2170 2152 2165 2095 2212 2109 2127 2149 2173 2207 2159 2056 2140 2168 2070 2044 2060 2039 2015 2065 1913 2022 1994 1968 1902 1982 1948 1868 1869 1914 1842 1896 1968 1901 1852 1797 1842 1872 1897 1847 1810 1862 1839 1807 1770 1874 1739 1778 1838 1830 1847 1858 1884 1783 1765 1829 1823 1757 1848 1898 1839 1863 1834 1785 1818 1747 1785 1868 1786 1759 1862 1782 1924 1797 1795 1774 1878 1805 1892 1817 1887 1829 1792 1751 1884 1887 1917 1756 1827 1824 1764 1884 1862 1828 1855 1802 1823 1823 1726 1844 1864 1872 1820 1817 1765 1807 1900 1836 1773 1785 1902 1866 1794 1890 1781 1853 1777 1774 1722 1903 1855 1805 1762 1779 1840 1827 1857 1801 1786 1790 1856 1787 1841 1751 1874 1859 1780 1759 1687 1772 1841 1824 1766 1813 1817 1837 1785 1775 1846 1739 1775 1805 1776 1798 1857 1869 1788 1756 1862 1785 1828 1857 1814 1807 1813 1829 1857 1846 1809 1754 1813 1771 1871 1850 1753 1756 1741 1862 1781 1776 1849 1843 1795 1733 1737 1800 1823 1813 1829 1774 1753 1818 1829 1802 1770 1785 1859 1761 1865 1803 1835 1792 1940 1757 1852 1831 1849 1800 1790 1820 1897 1826 1802 1953 1776 1857 1823 1879 1876 1857 1759 1792 1808 1849 1807 1881 1912 1852 1790 1873 1761 1860 1926 1906 1945 1924 1861 1932 1789 1969 2025 1830 1915 2016 1976 1962 1986 2053 2001 2080 2084 2139 2151 2235 2268 2300 2356 2329 2364 2463 2487 2493 2521 2624 2598 2679 2654 2716 2668 2696 2655 2629 2653 2587 2646 2639 2627 2515 2642 2565 2561 2526 2372 2427 2358 2349 2249 2265 2309 2281 2158 2171 2104 2105 2050 2057 2047 2029 2072 2021 1964 2001 1992 1916 1978 1879 1916 1905 1973 1864 1928 2023 1820 1908 1853 1877 1912 1883 1886 1910 1819 1823 1902 1836 1873 1901 1891 1835 1916 1911 1877 1835 1939 1776 1914 1862 1851 1845 2002 1810 1872 1872 1779 1841 1914 1882 1917 1861 1945 1884 1804 1898 1882 1884 1862 1857 1852 1982 1909 1947 1915 1897 1851 1866 1788 1931 1941 1811 1895 1873 1836 1930 1764 1899 1821 1815 1885 1801 1846 1888 1875 1867 1907 1904 1842 1700 1936 1813 1897 1827 1777 1883 1820 1852 1869 1872 1835 1875 1857 1832 1791 1820 1788 1765 1829 1855 1786 1895 1802 1872 1841 1891 1779 1866 1831 1813 1830 1829 1845 1944 1868 1910 1826 1848 1897 1835 1862 1852 1794 1878 1828 1801 1856 1822 1925 1870 1878 1915 1871 1918 1907 1920 1916 1880 1947 1920 1866 1836 2007 1922 1863 1964 1972 1948 1970 1921 2057 2026 2073 1951 1941 1945 1987 2027 1925 1991 2000 1927 2039 2063 1989 1939 2028 2040 2022 2034 1967 1935 1918 1935 1921 1930 1916 1867 1951 1836 1911 1878 1865 1860 1773 1890 1848 1835 1865 1801 1841 1884 1810 1934 1776 1833 1822 1779 1775 1785 1756 1737 1854 1849 1811 1839 1811 1769 1762 1898 1867 1800 1772 1844 1834 1845 1831 1837 1799 1839 1819 1807 1782 1713 1779 1767 1820 1787 1795 1781 1790 1738 1806 1840 1784 1883 1762 1771 1791 1805 1782 1805 1776 1861 1797 1730 1848 1807 1758 1886 1784 1792 1810 1813 1780 1791 1807 1840 1822 1826 1771 1831 1863 1764 1774 1794 1750 1856 1836 1790 1869 1810 1833 1798 1781 1757 1809 1829 1810 1785 1799 1770 1828 1800 1812 1780 1761 1825 1796 1802 1736 1777 1783 1799 1857 1799 1775 1800 1808 1755 1807 1856 1753 1804 1770 1780 1768 1795 1862 1767 1792 1732 1797 1864 1808 1826 1792 1850 1773 1774 1845 1788 1819 1811 1843 1761 1733 1800 1707 1764 1739 1747 1752 1851 1732 1882 1803 1733 1757 1725 1726 1742 1811 1753 1789 1800 1815 1814 1709 1775 1756 1704 1796 1772 1875 1735 1770 1831 1710 1841 1761 1719 1743 1795 1726 1764 1707 1785 1788 1702 1736 1804 1746 1755 1826 1788 1753 1748 1716 1792 1688 1757 1743 1851 1847 1801 1755 1802 1810 1757 1740 1796 1794 1820 1750 1743 1785 1844 1741 1765 1735 1822 1779 1875 1818 1784 1764 1836 1757 1832 1714 1865 1759 1726 1813 1778 1763 1746 1811 1788 1736 1762 1766 1769 1750 1706 1795 1809 1787 1816 1737 1827 1756 1833 1746 1789 1813 1771 1739 1713 1752 1717 1842 1753 1776 1781 1767 1782 1860 1760 1743 1735 1761 1757 1749 1797 1761 1764 1782 1783 1755 1787 1695 1736 1807 1773 1744 1715 1783 1716 1842 1743 1691 1840 1658 1772 1752 1776 1764 1761 1728 1850 1798 1804 1837 1752 1742 1868 1791 1812 1801 1754 1801 1734 1774 1775 1759 1794 1776 1790 1762 1774 1744 1803 1842 1759 1776 1862 1805 1732 1771 1744 1793 1700 1814 1754 1777 1767 1772 1811 1748 1700 1787 1832 1661 1819 1804 1740 1719 1768 1790 1702 1751 1722 1764 1800 1743 1829 1802 1761 1803 1760 1816 1820 1766 1808 1780 1794 1827 1843 1819 1763 1724 1827 1732 1735 1664 1810 1812 1816 1851 1706 1767 1785 1722 1745 1792 1841 1858 1816 1774 1769 1787 1759 1771 1699 1782 1770 1840 1769 1649 1820 1736 1819 1716 1765 1857 1730 1789 1879 1722 1842 1804 1840 1830 1728 1756 1715 1833 1747 1809 1746 1779 1796 1811 1795 1831 1739 1706 1760 1784 1803 1778 1793 1698 1824 1741 1737 1809 1764 1767 1731 1799 1808 1904 1753 1852 1765 1799 1735 1685 1794 1784 1747 1812 1749 1740 1789 1827 1770 1785 1748 1807 1852 1799 1820 1857 1831 1791 1881 1834 1888 1837 1836 1889 1884 1772 1831 1948 1838 1887 1871 1887 1742 1834 1818 1933 1904 1916 1979 1900 1948 1874 1851 1859 1811 1762 1815 1872 1828 1901 1839 1879 1837 1822 1878 1824 1859 1809 1820 1835 1784 1801 1826 1846 1817 1774 1853 1765 1841 1710 1795 1817 1787 1792 1830 1787 1834 1785 1763 1761 1858 1877 1712 1803 1772 1756 1799 1757 1811 1787 1715 1782 1794 1717 1783 1825 1782 1776 1812 1774 1717 1762 1748 1779 1868 1831 1743 1697 1778 1862 1764 1804 1722 1792 1868 1780 1684 1739 1798 1784 1808 1701 1778 1786 1765 1776 1768 1843 1779 1871 1724 1672 1788 1759 1752 1768 1794 1803 1781 1834 1798 1745 1806 1772 1750 1711 1796 1781 1749 1775 1777 1750 1779 1749 1825 1789 1807 1786 1734 1801 1779 1729 1780 1772 1768 1811 1801 1723 1859 1835 1786 1723 1732 1695 1781 1759 1791 1748 1755 1784 1762 1770 1709 1750 1805 1790 1768 1750 1756 1748 1699 1718 1858 1745 1761 1700 1812 1747 1831 1739 1807 1759 1751 1758 1761 1806 1819 1838 1764 1731 1773 1794 1825 1778 1691 1775 1760 1850 1780 1709 1828 1785 1761 1765 1801 1818 1768 1733 1780 1749 1808 1706 1803 1787 1760 1777 1719 1842 1810 1719 1683 1779 1723 1771 1784 1782 1716 1770 1788 1735 1726 1733 1685 1691 1793 1728 1748 1772 1784 1760 1745 1764 1759 1834 1772 1761 1770 1775 1751 1737 1761 1797 1728 1832 1743 1763 1795 1767 1831 1794 1720 1769 1789 1776 1730 1766 1803 1772 1812 1783 1824 1810 1744 1836 1764 1809 1885 1812 1818 1856 1820 1867 1804 1875 1778 1871 1806 1880 1834 1929 1829 1852 1865 1893 1898 1844 1882 1915 1905 1856 2010 1973 1913 1987 2001 1965 2090 2086 2093 2065 1978 2077 2072 2099 2088 2100 2168 2012 2048 2156 2061 2118 2122 2022 2084 2086 2050 1993 1989 2041 2065 2011 2036 2007 2032 1874 2020 1959 1940 1878 1922 1859 1992 1881 1867 1820 1836 1892 1842 1947 1771 1847 1898 1867 1830 1900 1874 1810 1887 1861 1846 1886 1804 1793 1796 1730 1699 1809 1786 1758 1698 1743 1715 1771 1765 1724 1741 1788 1765 1830 1762 1739 1807 1782 1747 1808 1795 1798 1808 1808 1728 1820 1873 1788 1842 1793 1767 1842 1831 1742 1851 1780 1824 1775 1738 1781 1759 1787 1679 1787 1754 1801 1777 1800 1799 1841 1801 1805 1832 1842 1832 1827 1798 1804 1773 1846 1764 1761 1786 1789 1838 1830 1767 1781 1734 1775 1850 1762 1801 1790 1793 1787 1800 1872 1872 1791 1773 1803 1826 1764 1849 1817 1727 1802 1717 1766 1840 1802 1746 1852 1912 1745 1788 1797 1773 1746 1793 1700 1742 1819 1737 1687 1843 1683 1758 1815 1751 1755 1750 1760 1734 1815 1732 1748 1784 1756 1811 1723 1796 1748 1740 1921 1704 1797 1814 1830 1794 1793 1778 1790 1803 1797 1754 1778 1768 1737 1802 1696 1711 1676 1771 1764 1718 1746 1807 1743 1734 1759 1791 1770 1760 1762 1746 1846 1734 1858 1776 1783 1831 1762 1711 1692 1743 1783 1824 1762 1698 1813 1796 1830 1730 1802 1746 1786 1680 1791 1745 1675 1775 1682 1712 1758 1688 1705 1768 1683 1747 1691 1722 1774 1757 1756 1732 1809 1824 1744 1698 1703 1821 1698 1779 1852 1769 1804 1797 1843 1771 1821 1779 1763 1706 1753 1686 1730 1739 1748 1786 1677 1868 1725 1764 1687 1756 1795 1825 1764 1727 1743 1773 1703 1738 1743 1712 1730 1836 1727 1774 1846 1743 1841 1783 1768 1752 1810 1862 1834 1795 1837 1819 1747 1703 1760 1719 1822 1765 1790 1767 1716 1766 1784 1699 1655 1827 1777 1874 1688 1704 1741 1689 1777 1785 1766 1750 1685 1725 1831 1784 1741 1793 1763 1830 1733 1760 1777 1821 1765 1718 1803 1757 1804 1681 1774 1678 1746 1730 1757 1786 1715 1798 1752 1727 1809 1692 1714 1692 1791 1743 1762 1721 1765 1724 1819 1721 1804 1799 1740 1728 1804 1826 1755 1797 1728 1755 1760 1783 1724 1698 1782 1680 1759 1801 1660 1779 1714 1734 1678 1793 1817 1728 1696 1751 1730 1725 1738 1745 1786 1728 1728 1764 1738 1770 1740 1739 1805 1717 1710 1766 1803 1786 1780 1766 1769 1752 1857 1706 1822 1827 1800 1831 1773 1737 1721 1838 1706 1737 1772 1758 1724 1771 1815 1671 1755 1750 1792 1761 1838 1763 1726 1721 1669 1688 1814 1735 1732 1754 1766 1709 1710 1735 1774 1761 1748 1772 1797 1751 1700 1794 1697 1755 1790 1908 1733 1798 1727 1685 1778 1781 1811 1771 1720 1771 1715 1755 1776 1738 1709 1719 1767 1777 1814 1783 1768 1821 1729 1752 1758 1751 1711 1658 1757 1687 1755 1828 1775 1745 1758 1714 1769 1821 1835 1787 1755 1756 1759 1762 1843 1700 1743 1737 1791 1755 1802 1762 1746 1801 1741 1803 1814 1750 1691 1561 1777 1749 1750 1722 1704 1772 1822 1748 1744 1732 1724 1807 1816 1735 1785 1755 1758 1721 1652 1803 1780 1775 1714 1764 1788 1797 1756 1752 1831 1838 1692 1760 1752 1833 1789 1792 1750 1768 1753 1772 1721 1666 1768 1721 1755 1813 1783 1731 1782 1798 1696 1693 1737 1748 1760 1779 1804 1784 1789 1822 1856 1765 1782 1779 1718 1762 1822 1772 1817 1737 1736 1697 1814 1743 1668 1802 1766 1819 1790 1760 1839 1781 1755 1754 1819 1732 1741 1839 1793 1765 1787 1808 1745 1736 1741 1775 1861 1795 1684 1765 1740 1734 1737 1771 1781 1763 1760 1743 1708 1790 1774 1781 1823 1797 1809 1882 1870 1836 1882 1832 1843 1873 1815 1860 1812 1812 1867 1858 1838 1865 1915 1858 1768 1955 1888 1921 1771 1836 1875 1835 1873 1883 1896 1926 1850 1893 1855 1853 1846 1834 1854 1877 1825 1831 1865 1879 1860 1829 1831 1750 1833 1835 1827 1828 1836 1799 1794 1779 1831 1799 1793 1765 1902 1785 1917 1806 1944 1889 1846 1843 1872 1809 1850 1788 1833 1922 1966 1810 1830 1853 1847 1804 1878 1931 1808 1841 1814 1807 1861 1854 1863 1878 1849 1903 1907 1823 1916 1898 1890 1802 1883 1744 1896 1811 1810 1834 1856 1851 1838 1805 1904 1816 1768 1816 1791 1801 1762 1829 1802 1796 1793 1797 1842 1732 1796 1859 1836 1797 1788 1753 1811 1774 1788 1783 1843 1835 1710 1834 1773 1720 1797 1830 1759 1776 1817 1757 1796 1857 1738 1748 1728 1761 1809 1829 1792 1711 1863 1798 1789 1755 1761 1800 1742 1811 1708 1830 1755 1888 1784 1797 1821 1765 1735 1844 1876 1781 1824 1792 1788 1787 1724 1807 1713 1760 1743 1781 1782 1782 1747 1815 1721 1815 1764 1792 1788 1810 1767 1806 1799 1853 1760 1820 1851 1855 1782 1778 1820 1765 1778 1771 1851 1732 1814 1652 1828 1757 1834 1759 1778 1736 1759 1770 1803 1843 1820 1787 1776 1830 1840 1800 1738 1767 1757 1865 1694 1775 1756 1833 1840 1778 1790 1816 1765 1774 1744 1784 1916 1761 1805 1838 1804 1761 1771 1757 1913 1856 1856 1802 1918 1825 1826 1832 1791 1907 1826 1746 1857 1828 1772 1861 1891 1889 1857 1911 1912 1917 1871 1917 1874 1905 1851 1899 1869 1854 1947 1952 2026 2019 1987 1965 2009 2026 2005 2064 2183 2170 2210 2140 2168 2196 2242 2155 2267 2304 2324 2345 2243 2371 2405 2328 2375 2436 2393 2411 2341 2357 2412 2411 2435 2324 2381 2340 2364 2325 2365 2301 2270 2327 2231 2301 2224 2259 2306 2209 2116 2133 2256 2045 2222 2162 2189 2163 2031 2123 2067 2065 2023 2091 2029 2061 1967 1959 1976 1933 1941 1899 1928 1842 1879 1834 1869 1926 1838 1887 1885 1924 1874 1773 1899 1907 1854 1825 1803 1851 1834 1865 1904 1838 1845 1801 1736 1792 1822 1778 1850 1819 1813 1818 1850 1863 1868 1786 1821 1769 1760 1860 1870 1840 1850 1835 1877 1767 1811 1835 1824 1820 1854 1892 1872 1782 1870 1851 1830 1848 1806 1837 1801 1825 1787 1895 1758 1799 1883 1760 1860 1791 1858 1812 1825 1846 1831 1800 1890 1854 1837 1790 1895 1854 1799 1889 1838 1838 1800 1790 1815 1730 1837 1812 1892 1834 1821 1828 1791 1777 1784 1860 1791 1811 1846 1905 1852 1935 1800 1890 1795 1871 1750 1808 1896 1812 1822 1783 1833 1859 1905 1874 1861 1816 1819 1909 1926 1899 1883 1833 1809 1867 1923 1934 1942 1929 1951 1916 1911 1824 1897 1790 1863 1873 1849 1892 1925 1895 1924 1918 1903 1899 1863 1868 1795 1845 1924 1887 1824 1853 1800 1907 1807 1816 1837 1777 1811 1854 1819 1832 1822 1764 1729 1783 1826 1801 1854 1744 1782 1821 1844 1738 1771 1857 1824 1866 1794 1912 1767 1869 1751 1770 1851 1754 1955 1765 1860 1735 1729 1726 1800 1668 1812 1781 1756 1768 1810 1833 1794 1781 1721 1664 1777 1801 1829 1810 1835 1791 1764 1780 1808 1855 1794 1852 1759 1786 1704 1737 1822 1744 1734 1757 1914 1734 1732 1719 1815 1738 1789 1839 1718 1831 1776 1763 1707 1726 1777 1761 1738 1764 1749 1839 1744 1766 1760 1803 1823 1862 1704 1755 1725 1708 1807 1836 1804 1811 1712 1741 1638 1755 1753 1786 1725 1874 1769 1761 1800 1767 1800 1760 1776 1787 1780 1787 1793 1830 1777 1728 1754 1753 1775 1793 1827 1751 1773 1710 1765 1822 1866 1765 1747 1759 1719 1814 1733 1822 1777 1848 1774 1764 1812 1793 1763 1751 1752 1773 1804 1781 1754 1793 1672 1769 1814 1799 1707 1796 1761 1844 1852 1819 1732 1757 1866 1853 1776 1751 1765 1719 1707 1769 1709 1799 1895 1728 1734 1784 1836 1766 1786 1683 1677 1802 1811 1789 1819 1750 1785 1800 1803 1739 1859 1842 1834 1755 1751 1861 1780 1790 1824 1774 1743 1827 1767 1795 1794 1775 1804 1721 1728 1745 1776 1805 1774 1782 1752 1744 1743 1817 1772 1769 1773 1774 1769 1738 1776 1786 1756 1774 1726 1760 1753 1748 1731 1738 1774 1771 1837 1742 1869 1797 1802 1771 1755 1705 1833 1823 1782 1807 1713 1775 1736 1692 1756 1784 1723 1739 1793 1757 1751 1778 1818 1798 1790 1799 1793 1837 1759 1730 1700 1783 1839 1807 1787 1724 1785 1782 1714 1813 1757 1805 1760 1750 1765 1805 1722 1775 1765 1741 1722 1720 1755 1734 1790 1730 1727 1763 1760 1788 1812 1757 1789 1700 1798 1731 1815 1826 1685 1843 1793 1736 1794 1783 1798 1788 1760 1784 1783 1702 1779 1830 1756 1797 1787 1848 1706 1831 1764 1788 1865 1847 1769 1748 1826 1759 1727 1773 1752 1769 1839 1753 1796 1766 1835 1743 1740 1746 1785 1875 1800 1726 1893 1755 1801 1785 1824 1803 1839 1758 1794 1742 1798 1783 1756 1772 1759 1741 1815 1718 1721 1720 1811 1822 1765 1855 1737 1790 1843 1740 1772 1767 1815 1779 1781 1740 1817 1768 1843 1766 1804 1809 1766 1791 1771 1732 1784 1838 1810 1838 1755 1864 1827 1909 1781 1859 1839 1816 1806 1805 1792 1829 1856 1873 1841 1846 1859 1906 1838 1897 1794 1831 1857 1920 1825 1872 1939 1844 1858 1800 1889 1923 1857 1825 1846 1811 1864 1784 1860 1880 1830 1849 1797 1854 1816 1841 1745 1890 1832 1848 1839 1838 1829 1827 1797 1799 1883 1791 1815 1777 1905 1850 1822 1884 1818 1789 1831 1877 1740 1772 1834 1846 1755 1846 1740 1827 1847 1811 1746 1855 1850 1768 1761 1747 1828 1868 1724 1764 1718 1719 1825 1766 1716 1730 1649 1752 1800 1781 1696 1767 1801 1679 1807 1774 1857 1827 1755 1810 1791 1782 1667 1750 1761 1779 1801 1779 1798 1816 1772 1821 1768 1863 1870 1805 1820 1785 1781 1769 1803 1818 1827 1765 1788 1824 1879 1804 1793 1840 1774 1738 1806 1814 1735 1773 1828 1760 1736 1764 1853 1826 1780 1793 1830 1866 1842 1820 1772 1856 1758 1748 1782 1775 1772 1881 1788 1775 1857 1799 1798 1788 1829 1779 1876 1753 1721 1793 1808 1779 1848 1824 1801 1764 1788 1787 1865 1783 1777 1795 1903 1789 1795 1821 1751 1813 1820 1849 1778 1820 1760 1728 1727 1842 1763 1865 1802 1836 1764 1737 1847 1758 1794 1852 1771 1817 1760 1784 1761 1807 1850 1810 1781 1818 1744 1759 1810 1820 1822 1828 1811 1824 1739 1781 1803 1803 1810 1713 1740 1743 1856 1838 1798 1803 1836 1805 1782 1784 1863 1776 1833 1867 1811 1815 1825 1830 1777 1843 1820 1850 1817 1894 1775 1841 1748 1833 1849 1862 1785 1879 1806 1765 1801 1824 1914 1895 1858 1874 1871 1938 1829 1926 1870 1864 1894 1864 1853 1929 1928 1925 1883 1930 1965 2009 1973 1975 1968 1956 2000 2022 2034 2126 2179 2155 2177 2144 2108 2121 2182 2111 2104 2147 2122 2200 2223 2262 2198 2130 2165 2246 2196 2158 2173 2128 2163 2149 2111 2174 2147 2262 2203 2169 2086 2158 2177 2212 2125 2050 2201 2095 2109 2130 2197 2114 2035 2137 2075 2025 2066 2029 1967 1959 2043 2017 2009 2035 2031 1945 1932 1939 2000 2024 1935 1929 1954 1835 1888 1907 1874 1893 1829 1918 1824 1818 1874 1869 1840 1855 1797 1848 1829 1786 1849 1858 1950 1862 1830 1726 1873 1770 1832 1845 1871 1893 1842 1783 1866 1844 1848 1818 1791 1835 1855 1840 1809 1795 1868 1812 1823 1832 1771 1818 1781 1796 1771 1757 1788 1872 1822 1773 1761 1816 1802 1826 1826 1868 1714 1732 1817 1747 1805 1758 1876 1754 1823 1818 1875 1745 1788 1837 1785 1806 1855 1816 1813 1859 1803 1756 1755 1781 1868 1777 1734 1829 1754 1892 1855 1800 1790 1760 1819 1829 1847 1727 1747 1802 1713 1757 1825 1821 1851 1795 1828 1885 1838 1834 1793 1805 1805 1786 1842 1870 1774 1804 1822 1877 1891 1870 1805 1817 1812 1874 1822 1846 1817 1797 1799 1790 1785 1832 1870 1827 1818 1797 1801 1873 1770 1780 1822 1858 1889 1835 1788 1766 1790 1864 1732 1839 1910 1773 1818 1770 1732 1923 1866 1858 1787 1750 1865 1755 1781 1788 1804 1811 1817 1828 1750 1848 1800 1766 1720 1789 1730 1767 1822 1758 1820 1879 1807 1792 1804 1864 1760 1840 1704 1754 1764 1855 1787 1833 1744 1761 1838 1804 1814 1766 1788 1865 1655 1855 1804 1810 1775 1836 1744 1741 1837 1803 1759 1744 1832 1789 1774 1760 1825 1788 1764 1736 1801 1751 1803 1757 1827 1787 1743 1745 1750 1731 1826 1810 1878 1745 1747 1816 1893 1769 1780 1837 1719 1803 1830 1865 1830 1785 1821 1793 1809 1714 1769 1777 1759 1808 1647 1777 1811 1854 1780 1824 1778 1862 1798 1758 1753 1803 1797 1799 1773 1805 1742 1817 1749 1815 1788 1735 1849 1744 1694 1753 1786 1708 1749 1639 1716 1755 1778 1736 1699 1732 1833 1852 1802 1730 1749 1769 1810 1733 1763 1735 1852 1752 1805 1808 1775 1779 1769 1834 1749 1825 1779 1760 1747 1784 1709 1719 1795 1715 1736 1735 1777 1742 1793 1790 1804 1751 1796 1813 1742 1822 1742 1690 1688 1805 1838 1731 1725 1772 1772 1767 1734 1823 1708 1707 1782 1792 1833 1817 1798 1765 1703 1750 1731 1765 1808 1732 1755 1802 1733 1846 1798 1766 1851 1784 1839 1826 1825 1803 1775 1684 1737 1840 1713 1807 1749 1767 1697 1676 1718 1799 1752 1700 1797 1693 1775 1783 1741 1776 1748 1808 1857 1753 1810 1759 1700 1690 1716 1763 1789 1849 1701 1751 1716 1759 1823 1825 1682 1755 1738 1739 1749 1723 1756 1717 1823 1710 1782 1841 1788 1672 1798 1754 1810 1682 1752 1754 1718 1810 1844 1767 1737 1715 1793 1763 1809 1801 1722 1682 1686 1730 1730 1799 1782 1780 1785 1797 1738 1794 1705 1738 1766 1818 1746 1770 1788 1741 1741 1761 1842 1762 1763 1756 1744 1796 1803 1725 1840 1751 1728 1720 1830 1744 1721 1724 1797 1762 1749 1785 1744 1730 1792 1680 1766 1786 1766 1694 1784 1713 1731 1796 1762 1717 1827 1699 1705 1722 1719 1802 1747 1693 1840 1723 1759 1773 1742 1828 1711 1730 1729 1769 1756 1835 1665 1827 1837 1788 1826 1718 1742 1773 1764 1839 1726 1749 1684 1769 1726 1737 1762 1713 1662 1691 1758 1707 1757 1852 1722 1804 1750 1779 1767 1756 1712 1711 1730 1756 1804 1767 1739 1834 1783 1749 1789 1712 1812 1744 1780 1760 1768 1883 1745 1771 1773 1756 1754 1824 1807 1875 1844 1759 1746 1797 1792 1857 1815 1866 1892 1814 1790 1802 1793 1808 1755 1895 1818 1781 1850 1820 1878 1862 1777 1769 1828 1776 1838 1865 1798 1859 1860 1817 1854</counts>
			</dataPoints>
		</scan>
	</xrdMeasurement>
</xrdMeasurements>
