<?xml version="1.0"?>
<xrdMeasurements xmlns="http://www.xrdml.com/XRDMeasurement/2.3" xmlns:xsi="http://www.w3.org/2001/XMLSchema-instance" xsi:schemaLocation="http://www.xrdml.com/XRDMeasurement/2.3 http://www.xrdml.com/XRDMeasurement/2.3/XRDMeasurement.xsd" status="Completed" recordIdentifier="{EEA7855C-4B34-4F09-A36A-9186F3C75FBF}">
	<comment>
		<entry/>
	</comment>
	<sample type="To be analyzed">
		<id>GPSS_Li1p7Fe0p7Zr0p2Cu0p1Cl4_121325_693cb366f4d05ae3d69752b3</id>
		<name></name>
		<preparedBy></preparedBy>
	</sample>
	<xrdMeasurement measurementType="Scan" status="Completed" sampleMode="Reflection">
		<usedWavelength intended="K-Alpha 1">
			<kAlpha1 unit="Angstrom">1.5405980</kAlpha1>
			<kAlpha2 unit="Angstrom">1.5444260</kAlpha2>
			<kBeta unit="Angstrom">1.3922500</kBeta>
			<ratioKAlpha2KAlpha1>0.5000</ratioKAlpha2KAlpha1>
		</usedWavelength>
		<incidentBeamPath>
			<radius unit="mm">145.00</radius>
			<xRayTube id="1010048" name="Empyrean Cu LFF HR (9430 033 7310x)">
				<tension unit="kV">40.0</tension>
				<current unit="mA">15.0</current>
				<anodeMaterial>Cu</anodeMaterial>
				<focus type="Line">
					<length unit="mm">12.0</length>
					<width unit="mm">0.4</width>
					<takeOffAngle unit="deg">6.0</takeOffAngle>
				</focus>
			</xRayTube>
			<sollerSlit id="21010002" name="Soller slits 0.04 rad.">
				<opening unit="rad">0.0400</opening>
			</sollerSlit>
			<mask id="22031000" name="Fixed mask 13 mm">
				<width unit="mm">9.00</width>
			</mask>
			<divergenceSlit id="22120001" name="Divergence slit 1°" xsi:type="fixedDivergenceSlitType">
				<distanceToSample unit="mm">50.00</distanceToSample>
				<height unit="mm">1.52</height>
			</divergenceSlit>
		</incidentBeamPath>
		<sampleMovement xsi:type="spinningSampleMovementType">
			<spinnerRevolutionTime unit="seconds">1.0</spinnerRevolutionTime>
		</sampleMovement>
		<diffractedBeamPath>
			<radius unit="mm">145.00</radius>
			<antiScatterSlit id="22090040" name="AS slit 9 mm (PIXcel)" xsi:type="fixedAntiScatterSlitType">
				<height unit="mm">9.00</height>
			</antiScatterSlit>
			<sollerSlit id="21020003" name="Large Soller slits 0.04 rad.">
				<opening unit="rad">0.0400</opening>
			</sollerSlit>
			<filter id="20030001" name="Large beta-filter Nickel">
				<material>Ni</material>
				<thickness unit="mm">0.020</thickness>
			</filter>
			<detector id="7010019" name="PIXcel1D-Medipix3 detector" xsi:type="rtmsDetectorType">
				<phd unit="keV">
					<lowerLevel>4.02</lowerLevel>
					<upperLevel>11.27</upperLevel>
				</phd>
				<mode>Scanning</mode>
				<activeLength unit="deg">5.542</activeLength>
			</detector>
		</diffractedBeamPath>
		<scan appendNumber="0" mode="Continuous" scanAxis="Gonio" status="Completed">
			<header>
				<startTimeStamp>2025-12-17T13:06:00-08:00</startTimeStamp>
				<endTimeStamp>2025-12-17T13:14:07-08:00</endTimeStamp>
				<author>
					<name>AutomatedUser</name>
				</author>
				<source>
					<applicationSoftware version="1.7b (136)">PANalytical Aeris Instrument Suite</applicationSoftware>
					<instrumentControlSoftware version="3.2.00000000 20240306">AERIS</instrumentControlSoftware>
					<instrumentID>950485</instrumentID>
				</source>
			</header>
			<dataPoints>
				<positions axis="2Theta" unit="deg">
					<startPosition>10.00943322</startPosition>
					<endPosition>99.99442286</endPosition>
				</positions>
				<positions axis="Omega" unit="deg">
					<startPosition>5.00471661</startPosition>
					<endPosition>49.99721143</endPosition>
				</positions>
				<commonCountingTime unit="seconds">12.495</commonCountingTime>
				<counts unit="counts">2462 2462 2410 2481 2405 2486 2475 2508 2481 2462 2419 2486 2415 2453 2423 2475 2439 2411 2406 2429 2388 2407 2488 2373 2443 2433 2427 2310 2391 2452 2397 2415 2422 2443 2440 2474 2405 2455 2403 2413 2500 2449 2415 2426 2389 2434 2431 2446 2455 2447 2449 2522 2362 2406 2351 2520 2427 2373 2372 2436 2476 2412 2450 2473 2441 2509 2369 2454 2414 2309 2418 2457 2426 2429 2403 2384 2519 2377 2414 2457 2321 2442 2338 2436 2387 2484 2407 2493 2322 2317 2409 2499 2386 2418 2382 2473 2362 2330 2369 2412 2416 2438 2438 2525 2428 2318 2432 2301 2456 2366 2433 2426 2441 2410 2433 2355 2336 2446 2435 2416 2450 2522 2407 2455 2385 2310 2518 2403 2435 2323 2506 2366 2472 2352 2438 2292 2409 2373 2407 2426 2465 2478 2454 2331 2429 2478 2453 2425 2397 2445 2529 2419 2422 2432 2444 2436 2406 2347 2364 2470 2380 2365 2424 2349 2460 2381 2397 2425 2396 2376 2450 2475 2440 2358 2381 2390 2346 2424 2452 2364 2481 2505 2436 2357 2385 2291 2498 2423 2409 2371 2498 2425 2411 2346 2457 2393 2454 2374 2423 2311 2339 2388 2375 2411 2341 2408 2446 2393 2324 2412 2296 2337 2377 2401 2512 2385 2397 2352 2385 2342 2370 2343 2386 2371 2317 2388 2360 2336 2351 2281 2321 2360 2256 2346 2329 2368 2332 2350 2318 2404 2302 2327 2403 2418 2364 2326 2280 2300 2319 2316 2260 2373 2243 2245 2396 2391 2322 2314 2339 2309 2246 2368 2348 2294 2358 2256 2321 2246 2300 2365 2350 2257 2329 2339 2298 2320 2285 2324 2341 2356 2316 2334 2242 2296 2293 2353 2329 2317 2320 2283 2337 2401 2287 2308 2360 2306 2306 2360 2293 2307 2265 2320 2351 2300 2296 2376 2245 2395 2332 2279 2317 2315 2296 2318 2122 2349 2246 2301 2208 2281 2195 2277 2301 2233 2280 2271 2199 2262 2343 2274 2256 2230 2322 2333 2282 2296 2265 2297 2291 2337 2323 2306 2417 2264 2338 2254 2279 2381 2177 2216 2269 2187 2236 2238 2312 2247 2237 2246 2227 2256 2313 2371 2290 2290 2341 2338 2261 2343 2286 2280 2328 2250 2308 2291 2185 2250 2387 2301 2403 2333 2253 2394 2198 2315 2287 2319 2340 2443 2319 2186 2276 2315 2284 2377 2294 2343 2310 2239 2388 2158 2335 2199 2301 2306 2342 2389 2305 2372 2377 2367 2419 2240 2413 2258 2458 2358 2304 2350 2449 2342 2347 2352 2334 2275 2375 2306 2356 2378 2348 2326 2395 2394 2477 2436 2426 2531 2469 2475 2457 2536 2545 2420 2494 2517 2532 2617 2633 2615 2630 2644 2691 2681 2814 2665 2804 2774 2859 2796 2869 2877 2804 2889 2776 2781 2883 2734 2770 2808 2745 2797 2596 2744 2791 2764 2680 2800 2681 2787 2815 2763 2720 2837 2752 2678 2742 2783 2759 2727 2745 2702 2794 2812 2779 2652 2693 2685 2715 2646 2695 2664 2753 2746 2704 2610 2590 2656 2570 2552 2589 2618 2431 2426 2414 2436 2410 2392 2436 2361 2422 2430 2318 2406 2406 2332 2415 2373 2350 2305 2419 2418 2355 2409 2326 2346 2367 2309 2309 2364 2297 2351 2294 2414 2319 2301 2404 2288 2306 2270 2233 2291 2416 2228 2317 2263 2173 2279 2294 2169 2215 2277 2337 2337 2355 2405 2370 2321 2331 2244 2276 2206 2321 2281 2286 2241 2231 2258 2196 2249 2296 2308 2295 2338 2310 2254 2274 2291 2235 2292 2199 2365 2261 2295 2269 2258 2287 2235 2255 2330 2169 2328 2222 2305 2320 2255 2169 2208 2234 2153 2295 2323 2284 2217 2307 2233 2286 2159 2185 2239 2279 2238 2284 2287 2256 2261 2310 2240 2292 2253 2154 2195 2282 2276 2215 2233 2182 2083 2260 2228 2268 2305 2214 2166 2381 2198 2152 2243 2234 2286 2310 2200 2216 2312 2217 2272 2274 2243 2249 2197 2233 2249 2223 2210 2356 2151 2253 2334 2243 2169 2154 2301 2199 2268 2180 2291 2250 2258 2149 2236 2243 2218 2333 2171 2158 2267 2208 2180 2178 2352 2215 2236 2208 2255 2213 2227 2175 2202 2209 2216 2166 2172 2147 2294 2158 2171 2195 2148 2194 2252 2262 2234 2166 2157 2128 2141 2232 2238 2162 2182 2244 2180 2076 2165 2110 2188 2226 2160 2138 2132 2150 2216 2174 2201 2180 2206 2215 2275 2226 2260 2189 2183 2150 2152 2241 2188 2135 2190 2118 2117 2092 2221 2275 2209 2191 2143 2132 2137 2133 2195 2091 2073 2233 2127 2158 2180 2152 2209 2216 2164 2112 2198 2084 2162 2118 2154 2094 2132 2136 2123 2075 2200 2105 2161 2110 2254 2114 2143 2181 2152 2128 2108 2149 2230 2127 2185 2168 2197 2123 2146 2185 2133 2195 2119 2122 2132 2137 2171 2052 2051 2162 2041 2183 2160 2041 2145 2054 2193 2131 2133 2081 2142 1992 2062 2144 2130 2127 2098 2125 2167 2067 2121 2119 2066 2023 2112 2062 2086 2001 2121 2107 2086 2097 2088 2031 2107 2055 2101 2021 2042 2075 2099 2075 2079 2081 2070 2132 2031 2053 2045 2095 2057 2145 2124 1932 2077 2047 2004 2134 2119 2066 2088 2086 2105 1954 2076 2027 2022 2055 1958 2003 2035 2101 2055 2042 2016 2075 2074 1987 2067 2037 2016 2038 1979 2092 2061 2047 1973 1966 1983 1942 2066 2117 1981 2034 2056 2074 2032 2006 2019 2075 1956 2018 2017 1986 1944 2080 2030 2064 2027 1929 1969 1895 1935 2035 2040 1946 1921 2020 1986 1956 1971 1902 1984 1920 1995 1960 2032 1936 1941 1947 2011 1961 1969 1964 1953 2019 1947 1951 1950 1922 1952 1921 1912 1849 1986 1894 2009 1939 1987 1989 1962 1962 1991 1957 1905 1970 1942 1914 1862 1896 1927 1988 1876 1987 1898 1920 1964 1931 1924 1990 1981 1993 1931 1952 1919 1874 2063 1872 1908 1987 1910 1958 1878 1919 1905 1871 1906 1938 1972 1931 1836 1868 1940 1871 1958 1893 1887 1955 1864 1960 2041 1981 1835 1972 1852 1883 1925 1932 1924 1876 1981 1865 1808 1969 1960 1934 1886 1934 1941 1962 1917 1951 1849 1970 1918 1861 1919 1902 1895 1837 1901 1920 1840 1859 1908 1862 1953 1968 1865 1826 1874 1841 1905 1913 1852 1929 1844 1868 1814 1996 1864 1943 1747 1974 1922 1838 1904 1824 1848 1803 1835 1885 1881 1878 1865 1860 1904 1847 1831 1836 1847 1890 1854 1840 1888 1829 1859 1765 1859 1838 1863 1780 1886 1854 1844 1864 1858 1897 1922 1903 1808 1863 1837 1816 1799 1860 1824 1922 1834 1823 1831 1795 1869 1961 1793 1801 1855 1781 1815 1866 1815 1799 1797 1837 1817 1850 1758 1840 1813 1839 1870 1740 1925 1773 1855 1889 1842 1774 1819 1903 1863 1861 1842 1817 1760 1825 1820 1829 1839 1834 1855 1795 1769 1891 1754 1833 1763 1786 1775 1879 1797 1872 1828 1871 1823 1818 1762 1880 1832 1820 1808 1750 1754 1731 1834 1833 1764 1846 1772 1699 1735 1726 1751 1799 1841 1745 1821 1755 1700 1758 1879 1810 1846 1787 1842 1786 1785 1864 1730 1881 1739 1772 1766 1781 1794 1755 1787 1766 1821 1751 1801 1723 1845 1786 1734 1824 1805 1758 1775 1713 1837 1769 1639 1766 1712 1772 1749 1790 1764 1712 1795 1770 1756 1690 1780 1734 1701 1826 1765 1623 1727 1729 1764 1713 1726 1768 1788 1764 1762 1721 1739 1745 1739 1757 1768 1677 1717 1743 1806 1749 1700 1816 1802 1720 1723 1724 1677 1709 1774 1694 1713 1742 1701 1770 1736 1653 1753 1717 1688 1758 1787 1714 1748 1675 1690 1691 1754 1728 1705 1668 1607 1718 1635 1697 1698 1764 1740 1652 1683 1731 1715 1779 1743 1643 1713 1683 1732 1758 1805 1752 1724 1696 1653 1794 1752 1708 1786 1715 1719 1747 1684 1742 1727 1752 1849 1721 1747 1749 1748 1772 1741 1758 1814 1686 1743 1801 1797 1782 1781 1751 1792 1665 1724 1764 1837 1723 1721 1750 1651 1677 1781 1697 1719 1804 1769 1854 1790 1878 1693 1780 1786 1765 1792 1781 1773 1770 1676 1700 1672 1760 1727 1710 1736 1769 1729 1713 1821 1740 1791 1754 1727 1737 1703 1728 1765 1715 1637 1730 1686 1689 1653 1622 1667 1759 1717 1677 1694 1709 1627 1683 1694 1657 1698 1705 1645 1707 1673 1703 1685 1695 1670 1739 1768 1756 1670 1679 1654 1693 1662 1637 1614 1684 1675 1692 1726 1809 1685 1699 1760 1678 1660 1709 1688 1631 1661 1706 1611 1635 1641 1599 1625 1677 1726 1707 1717 1696 1719 1659 1647 1692 1765 1637 1662 1658 1601 1649 1654 1665 1686 1654 1615 1697 1678 1732 1664 1637 1613 1700 1747 1591 1714 1624 1704 1696 1733 1656 1728 1725 1686 1650 1628 1663 1643 1741 1693 1640 1704 1709 1691 1679 1730 1588 1763 1691 1656 1697 1667 1604 1647 1656 1711 1696 1722 1693 1640 1639 1694 1732 1621 1658 1684 1678 1659 1618 1667 1733 1645 1658 1697 1710 1669 1676 1652 1690 1688 1638 1627 1622 1688 1732 1707 1683 1667 1775 1756 1672 1725 1679 1628 1731 1651 1712 1692 1645 1724 1670 1598 1778 1707 1725 1752 1696 1714 1659 1642 1652 1699 1629 1652 1675 1673 1663 1679 1754 1673 1633 1621 1638 1655 1681 1664 1678 1756 1643 1666 1712 1712 1681 1715 1656 1696 1776 1713 1676 1734 1636 1666 1614 1666 1632 1670 1739 1727 1699 1690 1631 1645 1612 1623 1678 1685 1678 1636 1660 1705 1664 1695 1653 1642 1721 1601 1740 1602 1694 1692 1698 1692 1741 1675 1663 1680 1614 1679 1693 1718 1621 1672 1625 1694 1688 1660 1697 1708 1605 1607 1659 1739 1681 1743 1657 1659 1642 1677 1663 1679 1736 1677 1697 1654 1591 1670 1714 1712 1727 1686 1600 1712 1615 1631 1706 1676 1721 1625 1738 1710 1680 1678 1673 1656 1723 1742 1706 1623 1713 1668 1639 1704 1714 1659 1649 1683 1681 1665 1637 1647 1636 1682 1734 1657 1692 1640 1713 1696 1737 1633 1719 1715 1761 1719 1756 1732 1663 1684 1733 1779 1731 1706 1796 1770 1818 1870 1820 1917 1919 1993 1960 1991 1959 1930 1979 2019 2065 2113 2030 2166 2184 2171 2153 2162 2117 2162 2216 2164 2301 2225 2241 2266 2257 2199 2252 2265 2296 2237 2197 2248 2300 2381 2375 2296 2326 2331 2449 2339 2380 2446 2368 2376 2243 2321 2194 2183 2174 2190 2174 2148 2191 1995 2074 2039 1951 1958 1959 1870 1886 1894 1886 1707 1818 1815 1801 1808 1816 1750 1732 1746 1767 1764 1650 1732 1766 1790 1793 1744 1689 1757 1766 1700 1741 1733 1721 1694 1709 1689 1748 1696 1705 1772 1707 1710 1774 1791 1836 1684 1686 1709 1743 1735 1779 1738 1689 1753 1749 1828 1824 1814 1720 1750 1837 1812 1816 1917 1871 1977 1943 1898 2051 2056 2027 2134 2122 2165 2272 2232 2244 2316 2465 2369 2395 2425 2526 2559 2530 2548 2560 2643 2668 2652 2734 2715 2690 2726 2738 2876 2884 2924 2912 3006 3012 3072 3125 3029 3106 3180 3150 3186 3241 3214 3229 3061 3069 3133 3074 3015 3022 2931 2839 2790 2835 2712 2627 2589 2555 2606 2536 2486 2468 2402 2448 2375 2330 2376 2324 2294 2285 2195 2230 2204 2119 2183 2108 2049 2073 1995 2075 2051 2027 2005 1853 1925 1853 1811 1832 1772 1806 1853 1805 1807 1776 1794 1789 1733 1771 1744 1762 1724 1748 1743 1744 1796 1749 1761 1795 1701 1716 1655 1660 1733 1786 1669 1697 1647 1688 1684 1658 1676 1615 1738 1713 1716 1651 1713 1646 1747 1711 1736 1764 1666 1740 1680 1639 1685 1710 1674 1656 1719 1711 1699 1662 1695 1677 1675 1680 1705 1648 1654 1544 1656 1638 1644 1704 1613 1657 1681 1670 1638 1692 1645 1709 1677 1608 1577 1653 1586 1609 1685 1652 1590 1601 1657 1685 1677 1728 1704 1648 1659 1636 1594 1663 1657 1648 1674 1557 1735 1665 1606 1608 1648 1662 1704 1670 1669 1642 1594 1558 1665 1672 1644 1603 1707 1655 1611 1656 1727 1656 1632 1592 1658 1702 1607 1771 1646 1659 1629 1689 1630 1609 1677 1700 1560 1592 1647 1589 1633 1698 1640 1658 1693 1678 1623 1702 1638 1611 1687 1706 1690 1668 1655 1711 1686 1688 1658 1734 1724 1733 1734 1728 1731 1715 1728 1673 1696 1627 1667 1805 1718 1677 1731 1638 1776 1705 1747 1751 1780 1737 1756 1706 1723 1845 1784 1771 1763 1756 1741 1727 1957 1867 1747 1901 1841 1848 1914 1790 1897 1851 1903 1869 1902 1928 1941 1957 2010 1865 1868 1971 2016 1932 1882 2004 1901 1902 1899 1956 1960 1978 1960 1927 1958 1941 1884 1972 1942 1803 1853 1961 1859 1870 1950 1945 1862 1885 1864 1838 1860 1842 1827 1855 1807 1803 1819 1763 1899 1755 1759 1705 1762 1736 1759 1763 1739 1788 1851 1686 1731 1716 1725 1781 1800 1680 1831 1679 1681 1713 1701 1726 1705 1773 1706 1763 1726 1732 1690 1750 1739 1703 1811 1735 1774 1761 1740 1742 1676 1765 1813 1701 1702 1728 1860 1786 1719 1732 1738 1799 1809 1786 1721 1753 1769 1767 1757 1735 1726 1685 1731 1672 1799 1782 1823 1786 1791 1710 1824 1784 1714 1813 1818 1748 1761 1821 1754 1820 1791 1816 1815 1813 1774 1930 1824 1871 1865 1839 1902 1952 1925 1900 1992 2125 2103 2174 2267 2335 2334 2321 2530 2600 2699 2831 2948 2950 2976 3215 3257 3359 3397 3363 3429 3439 3594 3672 3641 3724 3760 3788 3833 3815 3869 4111 4036 4162 4332 4221 4193 4482 4429 4510 4568 4441 4453 4577 4745 4730 4845 4708 4694 4709 4578 4450 4436 4327 4225 4109 3973 3826 3822 3624 3534 3385 3249 3270 3196 3200 3051 2975 3041 2955 2755 2731 2696 2605 2639 2495 2603 2394 2426 2332 2300 2294 2156 2268 2162 2240 2163 1996 2012 2023 1944 1929 1945 1931 1979 1924 1853 1923 1810 1801 1918 1792 1800 1785 1858 1798 1798 1840 1803 1797 1788 1738 1837 1736 1709 1734 1810 1695 1732 1799 1758 1773 1716 1746 1757 1761 1747 1740 1735 1741 1818 1740 1728 1759 1732 1693 1706 1714 1735 1802 1762 1750 1668 1732 1727 1717 1759 1736 1713 1735 1686 1716 1701 1663 1682 1672 1644 1665 1750 1650 1696 1683 1646 1663 1642 1722 1691 1652 1644 1671 1680 1710 1695 1652 1716 1690 1655 1635 1656 1665 1671 1631 1627 1743 1716 1626 1691 1680 1673 1815 1722 1723 1690 1591 1608 1729 1660 1622 1696 1629 1588 1621 1651 1664 1594 1688 1638 1671 1717 1622 1544 1621 1617 1579 1578 1622 1687 1585 1638 1679 1675 1704 1589 1644 1631 1711 1618 1666 1650 1683 1657 1669 1689 1620 1668 1639 1610 1583 1615 1656 1696 1697 1592 1682 1556 1585 1610 1652 1708 1563 1651 1628 1645 1627 1542 1620 1643 1610 1621 1625 1617 1625 1629 1656 1632 1632 1677 1708 1591 1652 1602 1647 1589 1689 1631 1585 1615 1567 1652 1615 1610 1652 1653 1672 1624 1640 1526 1649 1636 1640 1531 1604 1594 1690 1619 1685 1660 1628 1589 1594 1606 1574 1633 1668 1674 1709 1618 1622 1606 1658 1682 1669 1674 1531 1657 1638 1575 1619 1605 1579 1661 1541 1705 1670 1600 1616 1617 1589 1621 1555 1645 1592 1584 1598 1693 1590 1668 1640 1666 1621 1635 1586 1651 1660 1640 1617 1654 1636 1648 1674 1607 1620 1567 1625 1620 1519 1596 1647 1631 1640 1511 1638 1632 1582 1643 1650 1615 1630 1625 1695 1562 1576 1598 1649 1669 1677 1634 1653 1657 1600 1576 1558 1621 1642 1607 1558 1619 1621 1569 1608 1614 1668 1607 1614 1589 1620 1580 1671 1643 1687 1671 1573 1548 1595 1610 1667 1630 1588 1661 1615 1592 1583 1589 1624 1622 1653 1589 1576 1594 1573 1661 1647 1602 1658 1640 1618 1572 1553 1647 1673 1615 1595 1590 1594 1665 1602 1601 1645 1534 1595 1582 1664 1592 1640 1665 1603 1596 1659 1578 1646 1632 1634 1698 1621 1676 1593 1650 1518 1589 1614 1599 1643 1624 1574 1597 1603 1609 1654 1623 1568 1552 1606 1638 1614 1620 1609 1547 1714 1593 1684 1662 1709 1694 1670 1622 1650 1604 1627 1656 1587 1633 1620 1651 1625 1612 1604 1634 1619 1561 1708 1645 1601 1571 1662 1625 1595 1648 1505 1671 1718 1666 1672 1695 1653 1601 1651 1681 1670 1675 1610 1627 1597 1594 1625 1704 1614 1585 1659 1606 1647 1709 1682 1682 1587 1702 1552 1628 1595 1587 1635 1560 1658 1565 1703 1634 1681 1596 1524 1527 1560 1615 1607 1563 1634 1613 1590 1653 1606 1662 1589 1598 1640 1678 1655 1652 1685 1626 1654 1720 1597 1613 1605 1671 1577 1560 1638 1667 1617 1628 1611 1599 1633 1670 1660 1657 1601 1663 1615 1640 1585 1619 1633 1599 1623 1576 1607 1646 1622 1563 1579 1632 1618 1564 1649 1629 1646 1640 1628 1630 1648 1631 1618 1608 1604 1659 1625 1653 1670 1607 1585 1653 1658 1599 1679 1612 1607 1643 1539 1636 1663 1638 1579 1585 1615 1632 1579 1581 1632 1648 1629 1636 1724 1626 1571 1613 1647 1673 1566 1625 1563 1645 1597 1604 1660 1602 1618 1688 1584 1665 1716 1687 1617 1649 1663 1669 1716 1550 1663 1605 1632 1643 1576 1634 1705 1618 1684 1622 1638 1659 1762 1659 1638 1641 1665 1596 1640 1555 1649 1653 1694 1628 1596 1684 1631 1632 1642 1638 1582 1646 1632 1663 1600 1576 1672 1660 1705 1680 1613 1595 1569 1645 1585 1620 1594 1559 1646 1562 1558 1589 1618 1601 1551 1609 1647 1561 1634 1652 1630 1608 1642 1585 1636 1652 1643 1587 1678 1733 1607 1602 1626 1648 1643 1626 1614 1656 1684 1750 1609 1618 1609 1706 1622 1614 1636 1669 1638 1716 1633 1702 1640 1647 1565 1668 1650 1679 1599 1686 1639 1628 1640 1633 1721 1690 1686 1676 1693 1658 1702 1642 1660 1647 1639 1604 1674 1623 1626 1728 1677 1647 1648 1741 1570 1679 1651 1745 1650 1650 1617 1677 1654 1734 1674 1731 1657 1671 1700 1639 1635 1711 1674 1648 1719 1644 1634 1641 1680 1606 1592 1673 1665 1668 1677 1665 1655 1687 1639 1702 1699 1623 1727 1647 1640 1739 1701 1633 1726 1728 1680 1641 1586 1726 1741 1736 1707 1727 1721 1653 1652 1632 1664 1765 1675 1709 1661 1662 1714 1771 1669 1769 1644 1696 1669 1649 1701 1642 1650 1630 1716 1730 1637 1622 1576 1661 1661 1766 1709 1767 1694 1581 1727 1705 1697 1701 1698 1673 1704 1636 1724 1715 1743 1684 1725 1790 1702 1759 1696 1726 1759 1728 1777 1753 1781 1719 1788 1663 1744 1746 1637 1684 1672 1723 1742 1747 1836 1729 1804 1763 1775 1735 1812 1742 1777 1763 1679 1701 1662 1724 1662 1771 1738 1782 1739 1757 1724 1737 1760 1781 1661 1822 1738 1755 1754 1701 1738 1797 1754 1771 1777 1751 1685 1700 1684 1782 1619 1737 1745 1745 1725 1725 1623 1671 1683 1735 1703 1708 1700 1671 1666 1713 1722 1649 1671 1733 1767 1718 1726 1692 1722 1699 1745 1695 1736 1735 1697 1668 1755 1709 1735 1754 1758 1726 1756 1710 1651 1646 1719 1699 1747 1603 1726 1761 1742 1804 1798 1812 1834 1795 1868 1922 1928 1852 1931 1841 1939 1934 2011 1958 1918 1979 1882 1974 1930 1928 2065 1978 2005 1994 2071 2068 2026 2006 2098 2094 2061 2154 2106 2136 2121 2109 2128 2146 2092 2168 2110 2247 2052 2216 2012 2088 2001 2121 2079 2054 2017 1877 1949 1829 1982 1948 1872 1796 1827 1829 1832 1777 1801 1739 1726 1791 1731 1723 1757 1724 1722 1683 1775 1663 1716 1680 1683 1731 1736 1676 1727 1695 1686 1811 1694 1721 1666 1743 1574 1701 1702 1695 1681 1725 1690 1715 1712 1703 1668 1706 1727 1699 1612 1672 1649 1688 1660 1698 1617 1651 1660 1750 1706 1648 1743 1710 1646 1793 1658 1669 1690 1752 1618 1702 1572 1685 1710 1708 1703 1693 1728 1736 1686 1677 1648 1635 1676 1597 1745 1637 1659 1665 1683 1622 1686 1690 1721 1615 1615 1707 1605 1627 1616 1713 1666 1666 1699 1718 1646 1617 1644 1574 1719 1631 1670 1654 1730 1684 1656 1613 1664 1691 1660 1703 1721 1782 1699 1656 1676 1653 1735 1699 1656 1711 1621 1605 1633 1685 1660 1710 1698 1673 1769 1666 1678 1683 1715 1668 1689 1685 1671 1719 1687 1684 1649 1646 1596 1722 1668 1658 1690 1666 1744 1716 1761 1730 1699 1737 1671 1699 1749 1729 1709 1707 1654 1748 1736 1735 1740 1717 1684 1627 1661 1684 1633 1617 1671 1662 1710 1663 1771 1705 1684 1702 1680 1726 1654 1735 1621 1651 1766 1639 1718 1648 1634 1650 1702 1663 1735 1677 1642 1696 1787 1645 1693 1715 1701 1631 1749 1693 1641 1700 1720 1694 1723 1629 1777 1691 1672 1671 1740 1689 1655 1642 1640 1689 1639 1672 1765 1712 1689 1709 1731 1729 1677 1685 1580 1684 1722 1627 1783 1646 1730 1677 1690 1694 1812 1724 1753 1707 1673 1658 1812 1762 1699 1671 1701 1674 1766 1705 1700 1744 1729 1683 1628 1695 1745 1719 1768 1673 1698 1728 1652 1690 1744 1722 1659 1747 1776 1689 1690 1726 1718 1669 1798 1713 1709 1695 1729 1735 1642 1695 1736 1724 1781 1736 1791 1687 1705 1748 1700 1709 1765 1716 1829 1708 1731 1772 1786 1728 1670 1691 1773 1779 1663 1816 1858 1790 1763 1831 1765 1834 1771 1836 1835 1863 1826 1884 1931 1974 2027 1907 1891 2061 1998 2084 2155 2187 2292 2298 2261 2468 2461 2417 2550 2584 2716 2755 2734 2862 2827 2882 2921 2975 2976 3048 3021 3266 3230 3318 3378 3464 3398 3492 3493 3539 3626 3681 3675 3753 3756 3874 3788 3793 3849 3904 3767 3812 3856 3714 3695 3679 3570 3570 3530 3428 3470 3255 3153 3013 3072 3051 2862 2941 2819 2823 2772 2704 2517 2539 2554 2515 2464 2452 2413 2388 2368 2359 2435 2318 2382 2345 2360 2305 2328 2297 2199 2163 2168 2251 2054 2109 2108 2104 2088 2005 2099 2070 2024 2008 1932 2038 2005 2080 1953 1954 1865 1946 1939 1900 1912 1978 1953 1904 1855 1908 1898 1875 1954 1823 1881 1898 1893 1895 1856 1882 1830 1892 1842 1886 1902 1838 1934 1883 1814 1833 1829 1823 1859 1784 1877 1832 1802 1868 1781 1921 1808 1843 1834 1802 1778 1794 1713 1907 1757 1838 1855 1774 1867 1851 1802 1830 1840 1929 1909 1849 1844 1804 1873 1896 1885 1800 1899 1979 1790 1829 1827 1862 1875 1828 1870 1790 1877 1729 1800 1783 1942 1857 1827 1798 1814 1723 1835 1835 1813 1779 1823 1800 1772 1788 1684 1768 1797 1789 1802 1857 1757 1741 1769 1823 1807 1748 1716 1788 1771 1650 1705 1723 1734 1721 1741 1745 1670 1759 1741 1719 1705 1745 1814 1697 1792 1793 1766 1755 1788 1818 1723 1706 1729 1724 1708 1772 1793 1764 1825 1797 1816 1768 1749 1803 1802 1786 1843 1831 1793 1820 1898 1759 1844 1818 1755 1870 1841 1839 1831 1797 1935 1804 1826 1815 1849 1914 1848 1839 1824 1889 1809 1791 1834 1778 1799 1750 1793 1784 1752 1834 1784 1784 1849 1701 1726 1783 1714 1732 1782 1742 1782 1723 1699 1799 1669 1737 1695 1740 1809 1660 1730 1708 1668 1763 1732 1658 1698 1721 1786 1760 1683 1712 1682 1691 1803 1744 1749 1658 1710 1752 1739 1741 1707 1742 1632 1743 1689 1725 1707 1691 1672 1702 1735 1757 1676 1734 1709 1744 1784 1749 1685 1736 1715 1676 1695 1711 1717 1794 1721 1740 1700 1636 1738 1746 1793 1670 1721 1714 1722 1741 1712 1655 1792 1715 1687 1717 1672 1733 1723 1643 1697 1649 1685 1722 1628 1704 1759 1686 1780 1686 1752 1688 1745 1666 1744 1708 1782 1635 1754 1689 1758 1639 1765 1658 1698 1759 1771 1691 1751 1747 1771 1710 1745 1721 1764 1752 1753 1791 1722 1729 1676 1678 1751 1704 1627 1757 1653 1686 1771 1731 1729 1652 1672 1625 1739 1718 1786 1724 1757 1711 1646 1676 1739 1676 1718 1742 1669 1628 1681 1747 1686 1703 1683 1660 1787 1664 1621 1752 1689 1717 1661 1659 1733 1772 1673 1720 1744 1692 1686 1685 1668 1731 1711 1676 1715 1654 1686 1751 1687 1720 1735 1761 1717 1719 1670 1755 1731 1690 1731 1686 1750 1754 1745 1697 1687 1592 1730 1716 1651 1707 1724 1689 1655 1702 1707 1694 1640 1737 1710 1701 1752 1733 1610 1678 1845 1682 1703 1764 1754 1687 1694 1671 1728 1777 1710 1679 1700 1630 1661 1705 1698 1698 1690 1688 1678 1670 1727 1673 1734 1674 1707 1710 1779 1730 1731 1605 1789 1674 1726 1816 1662 1702 1707 1644 1659 1783 1696 1820 1803 1742 1717 1795 1720 1631 1785 1755 1736 1671 1656 1689 1694 1666 1684 1742 1666 1657 1666 1674 1718 1681 1785 1666 1810 1738 1672 1734 1669 1668 1668 1735 1650 1613 1728 1661 1683 1735 1730 1663 1646 1662 1679 1580 1678 1807 1683 1640 1659 1708 1678 1705 1712 1634 1703 1744 1729 1780 1697 1731 1751 1697 1711 1738 1725 1719 1761 1740 1734 1743 1663 1741 1622 1767 1716 1731 1696 1694 1738 1646 1667 1761 1687 1759 1705 1658 1675 1692 1784 1741 1757 1691 1616 1667 1736 1662 1696 1760 1721 1717 1704 1684 1672 1680 1718 1666 1708 1674 1725 1674 1655 1724 1637 1702 1693 1679 1662 1707 1654 1601 1682 1750 1730 1681 1768 1699 1709 1651 1689 1721 1707 1725 1694 1663 1597 1688 1671 1630 1678 1683 1689 1681 1647 1741 1643 1723 1735 1717 1713 1736 1726 1693 1634 1706 1689 1691 1696 1776 1770 1741 1686 1720 1721 1699 1720 1767 1724 1646 1691 1572 1681 1717 1720 1704 1691 1742 1715 1663 1743 1704 1690 1644 1734 1727 1672 1658 1673 1644 1783 1687 1691 1715 1707 1775 1731 1698 1673 1685 1658 1765 1675 1736 1653 1720 1709 1803 1658 1691 1742 1698 1639 1694 1695 1730 1724 1698 1642 1726 1710 1666 1779 1731 1716 1719 1672 1720 1673 1685 1656 1736 1677 1704 1687 1731 1712 1772 1812 1735 1620 1715 1661 1711 1715 1698 1708 1710 1751 1749 1745 1749 1827 1695 1716 1759 1733 1799 1701 1765 1728 1705 1721 1679 1744 1710 1691 1701 1816 1845 1860 1774 1735 1777 1769 1810 1786 1781 1815 1774 1787 1817 1791 1791 1803 1925 1781 1796 1784 1783 1767 1797 1803 1767 1795 1740 1794 1742 1827 1777 1806 1785 1755 1744 1793 1757 1766 1715 1836 1841 1863 1781 1793 1803 1738 1846 1861 1805 1822 1887 1797 1815 1848 1884 1846 1835 1824 1853 1802 1902 1966 1840 1943 1913 1898 1897 1926 1946 1979 1912 1924 2008 1933 1932 1907 1977 1968 1993 2020 2023 2088 2010 1957 1958 2023 2006 2015 1947 2040 1989 2034 2008 1913 1909 2015 1937 1983 1941 2042 1964 2016 2012 1984 1982 2026 1952 1935 1917 1983 1962 1981 2008 1918 1906 2007 1939 1964 2029 1989 1986 2003 1941 1993 1981 1967 1996 2050 2023 2087 1954 1979 1987 1976 1979 2026 1942 1954 1894 1973 1925 1953 1983 1866 1959 1890 1887 1796 1915 1848 1829 1849 1836 1813 1849 1772 1825 1815 1859 1803 1885 1805 1765 1729 1835 1776 1765 1775 1740 1771 1790 1806 1811 1810 1807 1783 1806 1729 1831 1784 1778 1765 1736 1805 1717 1759 1805 1788 1786 1762 1723 1732 1802 1849 1714 1765 1772 1780 1740 1751 1643 1702 1718 1708 1752 1769 1765 1761 1811 1649 1739 1736 1857 1766 1739 1748 1743 1763 1712 1713 1728 1773 1786 1732 1818 1789 1761 1766 1707 1742 1774 1744 1749 1739 1757 1695 1767 1833 1731 1713 1801 1734 1757 1844 1783 1736 1823 1830 1734 1796 1818 1780 1795 1737 1759 1860 1811 1769 1808 1802 1842 1830 1831 1765 1857 1810 1735 1837 1777 1781 1875 1768 1797 1811 1868 1753 1825 1767 1817 1763 1762 1775 1683 1807 1779 1713 1769 1762 1742 1808 1792 1775 1726 1736 1851 1769 1691 1735 1822 1757 1742 1739 1754 1776 1755 1811 1742 1696 1830 1855 1767 1883 1828 1811 1783 1808 1864 1834 1919 1889 1864 1797 1915 1914 1913 1898 1978 1936 1928 1967 1863 1935 1977 1925 1911 1972 2056 2010 2041 2010 2115 2013 2053 2019 2066 2034 2029 2107 2139 2109 2111 2130 2042 2086 2032 2052 2095 2040 2035 2030 1983 2050 1996 1995 1925 1976 1992 2008 1938 1926 1904 1843 1926 1919 1865 1834 1908 1910 1880 1822 1780 1849 1846 1799 1867 1882 1815 1824 1825 1741 1838 1870 1835 1825 1791 1851 1784 1828 1791 1911 1869 1775 1833 1761 1813 1806 1818 1808 1889 1711 1775 1825 1746 1788 1815 1815 1708 1748 1789 1747 1753 1782 1778 1807 1753 1739 1776 1815 1781 1740 1716 1684 1708 1681 1730 1695 1651 1753 1766 1703 1718 1768 1769 1735 1715 1765 1674 1740 1688 1725 1816 1788 1742 1819 1715 1778 1743 1805 1783 1762 1805 1788 1749 1758 1786 1714 1708 1776 1619 1686 1740 1705 1716 1769 1633 1682 1714 1725 1686 1700 1762 1711 1724 1787 1704 1732 1666 1652 1701 1621 1794 1711 1698 1749 1748 1738 1595 1679 1742 1738 1620 1745 1681 1741 1745 1758 1779 1718 1706 1769 1728 1674 1770 1746 1735 1676 1746 1750 1689 1742 1714 1763 1706 1774 1650 1752 1758 1693 1841 1727 1823 1773 1766 1768 1799 1741 1744 1722 1785 1741 1804 1748 1716 1802 1783 1810 1745 1818 1754 1702 1728 1756 1798 1785 1732 1795 1764 1722 1699 1769 1736 1705 1707 1777 1772 1731 1755 1709 1731 1730 1682 1758 1682 1725 1675 1710 1676 1751 1652 1699 1760 1608 1715 1663 1703 1611 1743 1669 1643 1774 1712 1655 1662 1663 1697 1679 1697 1685 1756 1639 1788 1642 1694 1669 1609 1684 1597 1822 1728 1698 1727 1697 1675 1695 1695 1695 1726 1708 1696 1666 1645 1756 1675 1628 1664 1672 1662 1715 1640 1694 1643 1682 1685 1750 1713 1662 1750 1686 1667 1598 1739 1768 1690 1668 1664 1678 1692 1652 1692 1683 1724 1664 1711 1707 1744 1753 1702 1681 1681 1652 1694 1735 1710 1665 1652 1649 1710 1711 1674 1671 1680 1718 1613 1655 1728 1714 1668 1703 1744 1644 1682 1674 1649 1704 1692 1677 1686 1699 1657 1694 1705 1643 1653 1717 1670 1733 1624 1767 1649 1693 1684 1612 1657 1669 1702 1737 1707 1781 1662 1678 1697 1677 1785 1668 1660 1780 1679 1648 1697 1657 1639 1631 1691 1703 1635 1577 1724 1681 1644 1652 1693 1661 1687 1731 1602 1597 1638 1707 1604 1726 1638 1710 1725 1685 1714 1673 1714 1579 1634 1658 1700 1691 1637 1695 1665 1710 1669 1667 1698 1676 1606 1635 1708 1705 1617 1660 1759 1692 1683 1735 1704 1708 1667 1639 1587 1696 1681 1700 1655 1649 1658 1626 1688 1686 1738 1705 1659 1702 1711 1672 1633 1679 1699 1638 1708 1640 1708 1613 1627 1704 1664 1701 1764 1681 1713 1693 1730 1618 1708 1665 1714 1710 1735 1717 1681 1631 1680 1651 1736 1647 1713 1763 1627 1694 1693 1737 1731 1699 1659 1681 1699 1696 1621 1639 1690 1696 1688 1758 1683 1647 1677 1737 1728 1670 1683 1656 1570 1689 1735 1720 1737 1729 1752 1689 1718 1666 1693 1702 1730 1606 1687 1746 1670 1703 1636 1714 1673 1689 1655 1660 1797 1691 1687 1725 1610 1725 1737 1651 1646 1709 1621 1754 1671 1651 1661 1731 1684 1731 1623 1709 1755 1690 1676 1724 1687 1716 1683 1642 1616 1617 1768 1699 1708 1720 1728 1704 1723 1673 1702 1751 1748 1761 1649 1720 1646 1734 1724 1641 1712 1628 1687 1710 1696 1640 1700 1664 1655 1710 1676 1706 1674 1700 1659 1667 1668 1676 1632 1712 1681 1688 1667 1657 1734 1641 1673 1695 1709 1617 1722 1681 1691 1706 1676 1634 1702 1654 1694 1650 1694 1700 1781 1764 1726 1718 1783 1675 1713 1675 1743 1692 1713 1700 1733 1722 1777 1729 1804 1678 1701 1713 1686 1671 1776 1686 1748 1699 1732 1776 1658 1737 1659 1716 1707 1711 1623 1737 1703 1699 1736 1727 1775 1727 1783 1669 1668 1667 1745 1732 1728 1731 1697 1696 1657 1718 1621 1640 1745 1731 1744 1749 1745 1702 1702 1698 1746 1654 1768 1699 1737 1744 1681 1715 1813 1716 1809 1751 1738 1718 1717 1719 1755 1768 1742 1757 1777 1752 1756 1798 1727 1747 1758 1715 1809 1726 1797 1738 1762 1760 1819 1753 1769 1728 1743 1752 1720 1699 1711 1822 1686 1747 1755 1718 1717 1741 1743 1798 1682 1731 1739 1752 1685 1704 1706 1695 1771 1743 1721 1696 1683 1614 1711 1785 1714 1721 1696 1726 1675 1708 1671 1683 1696 1761 1740 1662 1657 1663 1706 1707 1726 1618 1671 1644 1664 1705 1743 1703 1657 1703 1688 1667 1622 1737 1672 1661 1691 1683 1731 1706 1669 1657 1692 1716 1689 1740 1699 1738 1731 1704 1663 1758 1683 1784 1679 1655 1629 1620 1657 1651 1711 1654 1693 1731 1682 1683 1690 1711 1656 1646 1669 1687 1733 1628 1664 1649 1666 1692 1700 1753 1678 1626 1703 1604 1637 1621 1673 1733 1666 1678 1616 1692 1709 1720 1657 1632 1688 1716 1752 1750 1662 1671 1678 1641 1727 1719 1619 1644 1643 1637 1572 1684 1639 1717 1663 1687 1677 1640 1753 1655 1714 1662 1672 1603 1703 1638 1697 1665 1658 1619 1745 1684 1609 1618 1622 1670 1691 1633 1669 1708 1621 1659 1622 1683 1686 1755 1714 1711 1660 1673 1677 1644 1630 1663 1689 1666 1641 1705 1677 1712 1614 1620 1703 1641 1630 1645 1658 1678 1670 1722 1643 1750 1696 1741 1659 1701 1669 1603 1629 1579 1619 1617 1699 1738 1675 1660 1733 1680 1704 1692 1701 1754 1594 1597 1673 1713 1724 1716 1673 1628 1722 1635 1689 1672 1689 1677 1711 1648 1679 1708 1733 1686 1712 1628 1704 1716 1681 1747 1646 1726 1655 1615 1670 1716 1648 1717 1810 1670 1668 1715 1729 1768 1653 1711 1750 1733 1617 1770 1663 1711 1703 1773 1749 1718 1728 1690 1667 1800 1704 1776 1701 1794 1813 1748 1745 1735 1736 1732 1741 1738 1836 1837 1756 1740 1761 1827 1758 1829 1836 1827 1858 1802 1857 1819 1813 1875 1794 1896 1799 1756 1878 1800 1837 1744 1816 1750 1895 1782 1798 1859 1768 1758 1810 1723 1683 1716 1769 1772 1713 1781 1770 1761 1755 1701 1772 1783 1764 1708 1805 1729 1729 1724 1664 1674 1733 1749 1718 1733 1731 1671 1693 1707 1699 1730 1774 1791 1804 1717 1751 1702 1670 1694 1665 1763 1709 1703 1691 1699 1739 1687 1748 1684 1789 1727 1734 1764 1708 1675 1660 1691 1647 1643 1738 1682 1699 1667 1689 1698 1558 1690 1647 1738 1728 1682 1697 1649 1750 1711 1711 1719 1761 1689 1755 1681 1710 1667 1747 1660 1715 1608 1722 1642 1752 1702 1676 1639 1738 1667 1745 1704 1668 1734 1663 1647 1664 1711 1696 1671 1705 1683 1664 1661 1694 1663 1779 1652 1629 1716 1648 1658 1587 1769 1712 1712 1651 1665 1685 1682 1616 1692 1720 1615 1748 1654 1684 1718 1670 1706 1683 1736 1770 1666 1775 1686 1637 1682 1673 1678 1685 1660 1657 1624 1697 1684 1640 1634 1680 1590 1727 1678 1714 1705 1623 1648 1710 1653 1767 1754 1690 1656 1714 1630 1670 1627 1665 1662 1738 1683 1661 1667 1712 1663 1708 1676 1676 1682 1702 1693 1723 1710 1665 1686 1680 1620 1700 1659 1726 1696 1650 1649 1664 1746 1689 1693 1733 1659 1654 1669 1630 1701 1676 1708 1725 1720 1683 1738 1672 1712 1619 1695 1718 1611 1754 1621 1719 1739 1654 1645 1721 1657 1670 1684 1714 1712 1642 1717 1654 1691 1584 1666 1692 1634 1665 1707 1698 1713 1765 1635 1686 1681 1729 1703 1738 1680 1703 1647 1694 1662 1626 1719 1682 1621 1626 1747 1594 1675 1650 1692 1632 1621 1643 1732 1653 1630 1658 1653 1685 1618 1690 1646 1752 1653 1664 1754 1669 1642 1732 1624 1582 1667 1728 1705 1646 1638 1669 1721 1681 1676 1682 1653 1674 1664 1592 1713 1665 1725 1713 1683 1668 1707 1724 1679 1698 1700 1663 1693 1632 1691 1599 1712 1748 1682 1679 1732 1719 1683 1725 1641 1716 1696 1651 1662 1676 1600 1705 1601 1621 1724 1750 1661 1695 1643 1649 1706 1706 1726 1623 1572 1608 1722 1651 1645 1715 1662 1644 1701 1659 1681 1742 1717 1635 1672 1695 1623 1669 1668 1670 1718 1685 1670 1669 1670 1654 1735 1678 1695 1668 1704 1719 1686 1634 1581 1718 1703 1705 1643 1682 1610 1648 1651 1616 1687 1762 1709 1701 1608 1653 1688 1719 1666 1718 1688 1724 1624 1657 1763 1673 1650 1667 1668 1740 1662 1743 1655 1689 1694 1691 1687 1654 1690 1673 1651 1625 1672 1681 1640 1607 1670 1656 1616 1637 1654 1629 1724 1594 1666 1710 1677 1629 1686 1598 1745 1683 1687 1642 1705 1686 1625 1693 1704 1641 1640 1753 1659 1690 1736 1730 1677 1626 1676 1642 1708 1703 1759 1700 1728 1660 1717 1624 1663 1588 1692 1638 1660 1739 1637 1689 1680 1682 1663 1716 1632 1727 1629 1721 1645 1703 1720 1677 1668 1693 1704 1710 1740 1688 1638 1688 1712 1636 1701 1680 1787 1765 1726 1700 1698 1711 1705 1688 1730 1712 1653 1685 1653 1739 1717 1676 1641 1702 1662 1687 1723 1690 1611 1717 1704 1791 1653 1739 1742 1672 1722 1592 1742 1774 1785 1653 1629 1657 1688 1655 1653 1689 1755 1780 1762 1674 1665 1724 1690 1751 1748 1726 1660 1703 1735 1679 1785 1786 1708 1705 1809 1706 1774 1730 1662 1670 1746 1731 1670 1688 1717 1669 1723 1785 1752 1702 1740 1686 1709 1714 1662 1698 1739 1690 1744 1638 1710 1759 1618 1763 1715 1725 1749 1755 1752 1783 1744 1645 1744 1686 1733 1610 1772 1685 1678 1724 1669 1771 1746 1736 1716 1663 1783 1703 1719 1751 1695 1811 1754 1723 1732 1791 1766 1754 1786 1711 1655 1771 1712 1757 1713 1693 1696 1773 1682 1761 1715 1826 1780 1771 1807 1767 1736 1696 1759 1754 1778 1760 1818 1761 1757 1757 1686 1729 1772 1718 1733 1801 1703 1778 1760 1758 1811 1744 1758 1688 1823 1697 1756 1813 1797 1776 1784 1797 1801 1774 1681 1762 1768 1723 1651 1734 1806 1770 1698 1711 1826 1714 1793 1730 1782 1747 1763 1762 1786 1748 1738 1812 1772 1801 1773 1792 1833 1739 1701 1773 1792 1794 1874 1747 1798 1823 1773 1781 1834 1761 1742 1761 1761 1733 1830 1763 1777 1736 1712 1740 1810 1763 1736 1719 1750 1759 1708 1729 1772 1719 1742 1762 1772 1689 1745 1763 1737 1744 1800 1785 1841 1794 1687 1790 1728 1734 1808 1851 1772 1752 1848 1793 1774 1799 1761 1778 1735 1792 1813 1806 1797 1780 1737 1759 1772 1829 1708 1748 1779 1728 1867 1778 1801 1806 1697 1833 1725 1819 1786 1727 1799 1763 1771 1824 1751 1848 1734 1781 1763 1729 1773 1787 1815 1784 1672 1808 1757 1735 1798 1721 1723 1799 1697 1744 1755 1681 1791 1818 1728 1673 1753 1690 1689 1738 1741 1701 1727 1747 1757 1802 1721 1677 1698 1764 1715 1739 1729 1668 1669 1752 1760 1833 1687 1787 1745 1777 1787 1751 1705 1763 1719 1789 1751 1778 1728 1731 1722 1787 1766 1787 1813 1776 1801 1701 1791 1846 1725 1778 1782 1761 1811 1739 1779 1806 1789 1818 1767 1736 1741 1750 1797 1787 1729 1812 1835 1790 1793 1758 1806 1787 1797 1726 1753 1826 1796 1727 1781 1874 1775 1836 1853 1774 1804 1798 1787 1851 1900 1771 1803 1848 1881 1825 1834 1922 1930 1844 1897 1827 1791 1870 1785 1924 1967 1902 1906 1873 1928 1993 1881 2024 1995 1943 2036 2078 2052 2043 2040 2065 2066 2042 2064 2038 2000 2000 1948 1942 1933 1965 1929 1918 1920 1927 1929 1861 1913 1947 1991 1946 1926 1922 1879 1930 1934 1973 1901 1890 1983 1894 1850 1886 1830 1805 1892 1880 1837 1847 1804 1883 1794 1819 1833 1847 1763 1863 1793 1855 1829 1874 1801 1783 1767 1835 1885 1769 1768 1804 1750 1754 1819 1903 1766 1823 1819 1817 1850 1866 1826 1852 1801 1821 1813 1838 1865 1917 1865 1912 1781 1883 1868 1919 1835 1828 1839 1824 1824 1790 1828 1892 1867 1773 1783 1807 1791 1828 1849 1822 1786 1860 1791 1837 1726 1872 1795 1681 1736 1792 1754 1759 1811 1817 1836 1765 1771 1826 1748 1781 1711 1796 1760 1727 1756 1751 1738 1766 1675 1766 1715 1744 1794 1771 1705 1748 1781 1811 1713 1719 1714 1798 1729 1796 1805 1804 1705 1787 1683 1770 1694 1742 1835 1766 1773 1760 1721 1714 1759 1778 1783 1751 1805 1695 1760 1769 1700 1753 1730 1701 1785 1780 1720 1675 1781 1674 1733 1757 1736 1725 1767 1742 1703 1826 1724 1712 1732 1824 1659 1657 1659 1787 1706 1715 1744 1775 1804 1749 1737 1760 1592 1741 1815 1661 1733 1711 1721 1721 1740 1754 1721 1723 1738 1775 1715 1701 1740 1806 1795 1668 1709 1690 1728 1690 1612 1771 1711 1770 1742 1715 1762 1679 1806 1733 1679 1731 1711 1671 1748 1700 1775 1712 1723 1705 1639 1722 1758 1735 1579 1746 1699 1735 1737 1687 1710 1640 1629 1667 1709 1669 1752 1655 1720 1728 1683 1716 1667 1692 1756 1695 1690 1776 1805 1730 1738 1664 1730 1709 1702 1629 1750 1683 1718 1708 1691 1737 1756 1705 1831 1787 1701 1705 1673 1702 1731 1699 1698 1592 1771 1692 1682 1694 1725 1760 1722 1688 1737 1750 1764 1715 1717 1721 1693 1759 1753 1631 1653 1656 1725 1761 1736 1731 1710 1735 1766 1692 1650 1710 1699 1672 1685 1658 1766 1663 1711 1736 1666 1761 1713 1663 1706 1674 1735 1731 1683 1759 1726 1733 1709 1749 1654 1790 1732 1748 1663 1700 1783 1688 1767 1639 1627 1701 1658 1705 1742 1728 1732 1698 1725 1692 1692 1706 1726 1710 1686 1681 1654 1731 1781 1699 1703 1718 1699 1635 1685 1715 1751 1671 1771 1704 1752 1766 1766 1653 1699 1711 1805 1621 1728 1661 1689 1681 1724 1767 1674 1649 1752 1652 1719 1692 1692 1646 1618 1668 1749 1777 1755 1775 1809 1773 1750 1700 1660 1713 1658 1730 1834 1690 1650 1734 1740 1727 1749 1782 1703 1782 1729 1716 1704 1664 1743 1721 1721 1705 1725 1731 1673 1708 1688 1759 1792 1711 1716 1703 1687 1688 1716 1699 1756 1666 1689 1759 1763 1811 1744 1728 1703 1716 1644 1655 1722 1754 1745 1789 1814 1748 1706 1684 1739 1788 1737 1686 1690 1742 1740 1759 1645 1720 1643 1756 1700 1807 1668 1749 1688 1631 1741 1706 1703 1743 1780 1676 1649 1677 1699 1632 1702 1734 1794 1699 1783 1705 1725 1756 1741 1692 1732 1725 1711 1664 1738 1729 1779 1720 1726 1742 1765 1715 1702 1627 1697 1681 1728 1662 1808 1679 1782 1731 1699 1714 1710 1677 1686 1750 1766 1773 1829 1733 1733 1764 1671 1705 1769 1707 1791 1705 1735 1717 1776 1770 1692 1798 1709 1757 1699 1741 1777 1776 1733 1758 1803 1707 1700 1725 1658 1704 1789 1835 1701 1771 1651 1747 1747 1775 1722 1801 1795 1667 1775 1759 1764 1765 1811 1737 1747 1789 1718 1713 1832 1776 1780 1772 1772 1731 1802 1743 1737 1743 1758 1747 1865 1751 1677 1720 1714 1767 1780 1755 1807 1757 1804 1791 1742 1789 1737 1719 1767 1759 1778 1747 1822 1773 1826 1757 1767 1819 1713 1766 1754 1798 1813 1769 1735 1803 1815 1730 1815 1734 1733 1802 1779 1830 1747 1861 1853 1818 1743 1782 1743 1786 1735 1734 1822 1736 1836 1833 1829 1738 1723 1766 1702 1796 1693 1770 1775 1814 1761 1724 1734 1784 1778 1750 1702 1765 1760 1803 1798 1788 1817 1797 1781 1811 1825 1754 1739 1779 1690 1770 1797 1712 1722 1797 1718 1777 1751 1818 1693 1768 1767 1746 1666 1770 1810 1699 1737 1834 1685 1735 1837 1709 1714 1744 1728 1673 1676 1753 1690 1788 1783 1749 1783 1756 1770 1775 1761 1720 1741 1753 1726 1723 1725 1710 1666 1805 1691 1723 1730 1762 1792 1816 1670 1822 1727 1732 1696 1730 1773 1756 1712 1693 1726 1668 1715 1722 1706 1683 1728 1814 1775 1767 1699 1762 1668 1660 1719 1746 1728 1728 1703 1774 1723 1706 1748 1751 1726 1787 1761 1739 1795 1741 1692 1764 1732 1779 1793 1774 1736 1717 1705 1721 1734 1681 1711 1656 1763 1731 1729 1683 1783 1762 1726 1701 1736 1696 1721 1726 1776 1647 1678 1756 1783 1635 1779 1738 1726 1831 1733 1797 1727 1716 1711 1757 1749 1744 1769 1695 1736 1764 1774 1676 1738 1721 1700 1686 1708 1764 1741 1737 1726 1747 1723 1771 1672 1744 1731 1766 1727 1770 1726 1730 1793 1773 1797 1745 1806 1845 1714 1696 1814 1805 1764 1691 1706 1777 1775 1757 1764 1803 1776 1734 1744 1669 1678 1767 1800 1799 1807 1712 1723 1741 1844 1804 1792 1804 1726 1905 1776 1895 1732 1726 1792 1755 1791 1783 1748 1855 1837 1820 1834 1794 1821 1795 1880 1857 1904 1903 1869 1884 1844 1940 1874 1861 1948 1864 1967 1894 1936 1893 1968 1924 1883 1924 1963 1908 1868 1867 1905 1847 1939 1901 1953 1879 1967 1928 1902 1935 1889 1977 1914 1939 1973 1985 1872 1867 1923 1876 1903 1911 1930 1988 1911 1884 1961 1849 1791 1858 1899 1936 1846 1813 1768 1927 1878 1869 1824 1887 1892 1809 1735 1803 1868 1709 1861 1803 1836 1826 1882 1818 1805 1796 1843 1790 1865 1784 1831 1774 1797 1832 1762 1778 1772 1822 1782 1852 1778 1806 1835 1764 1819 1853 1808 1810 1831 1773 1866 1826 1817 1829 1819 1838 1856 1842 1815 1884 1891 1795 1797 1804 1855 1804 1813 1867 1788 1879 1964 1856 1785 1921 1824 1771 1827 1801 1848 1768 1796 1767 1837 1725 1754 1762 1798 1757 1760 1781 1849 1861 1811 1839 1746 1843 1788 1799 1777 1712 1765 1852 1859 1830 1785 1846 1816 1816 1891 1793 1739 1814 1761 1812 1765 1776 1762 1722 1716 1766 1807 1733 1757 1789 1772 1762 1856 1720 1871 1800 1749 1763 1846 1694 1779 1744 1813 1850 1822 1779 1707 1759 1790 1838 1770 1693 1777 1781 1811 1727 1673 1834 1783 1808 1738 1744 1701 1739 1742 1794 1796 1820 1793 1798 1775 1824 1823 1767 1797 1719 1802 1768 1759 1707 1788 1760 1744 1740 1725 1788 1720 1821 1858 1763 1779 1739 1728 1817 1697 1779 1693 1694 1739 1720 1756 1791 1740 1765 1725 1739 1728 1772 1749 1767 1781 1738 1626 1762 1724 1771 1827 1775 1762 1782 1746 1761 1657 1796 1717 1758 1737 1752 1777 1779 1735 1759 1804 1745 1757 1716 1728 1714 1796 1785 1716 1669 1774 1722 1698 1738 1744 1674 1746 1676 1773 1809 1783 1734 1764 1777 1769 1660 1702 1757 1730 1749 1720 1780 1764 1722 1763 1735 1728 1797 1748 1776 1820 1770 1741 1710 1705 1769 1720 1714 1835 1718 1825 1772 1779 1715 1794 1745 1723 1760 1715 1770 1729 1769 1665 1816 1778 1768 1737 1685 1731 1728 1768 1824 1808 1773 1752 1724 1702 1830 1790 1762 1725 1768 1681 1751 1778 1781 1752 1789 1686 1757 1753 1758 1780 1779 1818 1681 1709 1731 1756 1799 1697 1716 1765 1754 1823 1679 1710 1777 1793 1714 1810 1773 1801 1729 1728 1777 1785 1759 1717 1733 1834 1763 1777 1743 1782 1679 1698 1832 1794 1848 1812 1744 1803 1715 1703 1675 1722 1756 1680 1733 1744 1760 1716 1735 1717 1717 1744 1781 1840 1652 1744 1712 1677 1776 1777 1782 1784 1720 1731 1667 1709 1783 1702 1784 1743 1743 1654 1777 1779 1748 1812 1722 1788 1699 1774 1769 1775 1696 1717 1754 1780 1700 1768 1781 1769 1730 1682 1758 1807 1768 1834 1787 1805 1741 1767 1749 1723 1748 1689 1751 1798 1734 1740 1741 1660 1844 1705 1816 1704 1801 1701 1781 1824 1683 1806 1736 1750 1747 1741 1757 1685 1724 1684 1739 1799 1789 1742 1715 1797 1770 1795 1728 1782 1747 1781 1788 1643 1760 1718 1706 1702 1698 1752 1826 1789 1701 1677 1682 1706 1742 1757 1798 1760 1723 1768 1835 1778 1700 1721 1756 1765 1709 1743 1762 1717 1710 1748 1763 1676 1786 1732 1748 1768 1752 1787 1774 1702 1713 1755 1739 1781 1787 1771 1742 1699 1799 1740 1705 1729 1836 1793 1768 1684 1746 1736 1709 1710 1864 1724 1718 1726 1688 1775 1704</counts>
			</dataPoints>
		</scan>
	</xrdMeasurement>
</xrdMeasurements>
