<?xml version="1.0"?>
<xrdMeasurements xmlns="http://www.xrdml.com/XRDMeasurement/2.3" xmlns:xsi="http://www.w3.org/2001/XMLSchema-instance" xsi:schemaLocation="http://www.xrdml.com/XRDMeasurement/2.3 http://www.xrdml.com/XRDMeasurement/2.3/XRDMeasurement.xsd" status="Completed" recordIdentifier="{D011F3D0-3A8C-47D0-B146-C570770F5172}">
	<comment>
		<entry/>
	</comment>
	<sample type="To be analyzed">
		<id>GPSS_Li1p2Mn0p9Nb0p2Cl4_111425_69175e1347a6a0fd7c65934f</id>
		<name></name>
		<preparedBy></preparedBy>
	</sample>
	<xrdMeasurement measurementType="Scan" status="Completed" sampleMode="Reflection">
		<usedWavelength intended="K-Alpha 1">
			<kAlpha1 unit="Angstrom">1.5405980</kAlpha1>
			<kAlpha2 unit="Angstrom">1.5444260</kAlpha2>
			<kBeta unit="Angstrom">1.3922500</kBeta>
			<ratioKAlpha2KAlpha1>0.5000</ratioKAlpha2KAlpha1>
		</usedWavelength>
		<incidentBeamPath>
			<radius unit="mm">145.00</radius>
			<xRayTube id="1010048" name="Empyrean Cu LFF HR (9430 033 7310x)">
				<tension unit="kV">40.0</tension>
				<current unit="mA">15.0</current>
				<anodeMaterial>Cu</anodeMaterial>
				<focus type="Line">
					<length unit="mm">12.0</length>
					<width unit="mm">0.4</width>
					<takeOffAngle unit="deg">6.0</takeOffAngle>
				</focus>
			</xRayTube>
			<sollerSlit id="21010002" name="Soller slits 0.04 rad.">
				<opening unit="rad">0.0400</opening>
			</sollerSlit>
			<mask id="22031000" name="Fixed mask 13 mm">
				<width unit="mm">9.00</width>
			</mask>
			<divergenceSlit id="22120001" name="Divergence slit 1°" xsi:type="fixedDivergenceSlitType">
				<distanceToSample unit="mm">50.00</distanceToSample>
				<height unit="mm">1.52</height>
			</divergenceSlit>
		</incidentBeamPath>
		<sampleMovement xsi:type="spinningSampleMovementType">
			<spinnerRevolutionTime unit="seconds">1.0</spinnerRevolutionTime>
		</sampleMovement>
		<diffractedBeamPath>
			<radius unit="mm">145.00</radius>
			<antiScatterSlit id="22090040" name="AS slit 9 mm (PIXcel)" xsi:type="fixedAntiScatterSlitType">
				<height unit="mm">9.00</height>
			</antiScatterSlit>
			<sollerSlit id="21020003" name="Large Soller slits 0.04 rad.">
				<opening unit="rad">0.0400</opening>
			</sollerSlit>
			<filter id="20030001" name="Large beta-filter Nickel">
				<material>Ni</material>
				<thickness unit="mm">0.020</thickness>
			</filter>
			<detector id="7010019" name="PIXcel1D-Medipix3 detector" xsi:type="rtmsDetectorType">
				<phd unit="keV">
					<lowerLevel>4.02</lowerLevel>
					<upperLevel>11.27</upperLevel>
				</phd>
				<mode>Scanning</mode>
				<activeLength unit="deg">5.542</activeLength>
			</detector>
		</diffractedBeamPath>
		<scan appendNumber="0" mode="Continuous" scanAxis="Gonio" status="Completed">
			<header>
				<startTimeStamp>2025-11-16T15:02:27-08:00</startTimeStamp>
				<endTimeStamp>2025-11-16T15:10:34-08:00</endTimeStamp>
				<author>
					<name>AutomatedUser</name>
				</author>
				<source>
					<applicationSoftware version="1.7b (136)">PANalytical Aeris Instrument Suite</applicationSoftware>
					<instrumentControlSoftware version="3.2.00000000 20240306">AERIS</instrumentControlSoftware>
					<instrumentID>950485</instrumentID>
				</source>
			</header>
			<dataPoints>
				<positions axis="2Theta" unit="deg">
					<startPosition>10.00943322</startPosition>
					<endPosition>99.99442286</endPosition>
				</positions>
				<positions axis="Omega" unit="deg">
					<startPosition>5.00471661</startPosition>
					<endPosition>49.99721143</endPosition>
				</positions>
				<commonCountingTime unit="seconds">12.495</commonCountingTime>
				<counts unit="counts">3041 3117 3171 3060 3058 3073 3098 3108 3033 3062 3098 3135 3036 3197 3066 3050 3116 3182 3110 2986 3153 3142 3137 3089 2999 3132 3092 3124 3099 3127 3081 3159 3130 3151 3124 3123 3247 3146 3121 3099 3198 3129 3191 3160 3111 3129 3139 3200 3128 3210 3131 3167 3065 3090 3135 3230 3201 3221 3123 3242 3249 3197 3271 3148 3105 3240 3212 3227 3288 3286 3116 3272 3202 3248 3306 3269 3281 3285 3154 3272 3237 3150 3299 3307 3323 3275 3237 3263 3371 3335 3214 3322 3336 3222 3287 3348 3257 3216 3355 3276 3388 3228 3245 3371 3315 3421 3333 3327 3341 3450 3316 3364 3319 3284 3267 3275 3402 3229 3248 3314 3343 3406 3355 3422 3305 3315 3375 3263 3320 3402 3320 3375 3348 3307 3350 3374 3428 3295 3395 3274 3413 3374 3349 3378 3312 3432 3366 3341 3320 3383 3312 3307 3336 3376 3456 3483 3327 3280 3424 3393 3470 3412 3356 3372 3377 3326 3352 3317 3238 3318 3414 3322 3484 3369 3430 3404 3463 3423 3338 3379 3248 3279 3191 3355 3423 3230 3380 3271 3321 3384 3398 3383 3363 3354 3266 3510 3297 3335 3297 3227 3358 3409 3345 3323 3331 3328 3249 3266 3267 3271 3354 3372 3322 3412 3370 3400 3261 3255 3309 3324 3175 3285 3216 3225 3295 3321 3343 3356 3264 3277 3181 3244 3198 3289 3220 3241 3160 3170 3214 3148 3194 3255 3206 3179 3255 3232 3242 3177 3135 3356 3280 3289 3223 3260 3169 3297 3320 3267 3152 3209 3142 3244 3151 3281 3250 3193 3217 3148 3196 3277 3183 3211 3298 3241 3236 3164 3280 3103 3220 3173 3209 3214 3250 3169 3285 3252 3213 3201 3220 3170 3175 3244 3201 3166 3171 3182 3194 3222 3105 3222 3248 3275 3168 3196 3225 3123 3140 3216 3148 3131 3215 3252 3235 3176 3235 3287 3290 3110 3331 3177 3170 3223 3241 3174 3195 3154 3229 3248 3299 3334 3249 3307 3277 3333 3290 3328 3242 3259 3396 3272 3313 3260 3306 3276 3330 3339 3368 3227 3375 3317 3195 3298 3342 3307 3264 3361 3366 3343 3337 3327 3365 3364 3322 3216 3461 3384 3399 3356 3378 3359 3458 3368 3302 3370 3442 3422 3452 3417 3322 3416 3407 3395 3455 3511 3549 3507 3521 3449 3434 3377 3409 3419 3386 3538 3659 3430 3510 3584 3523 3552 3534 3546 3679 3672 3623 3725 3743 3888 3714 3946 3795 4024 3950 4043 4074 4097 3999 4130 4102 4088 4110 4170 4158 4067 4048 4141 3962 4025 4021 4030 4032 3994 4069 4036 4036 3937 4068 3868 3888 3918 3865 3836 3974 3848 3897 3917 3936 3996 3803 3969 3902 3944 3914 4018 4036 3975 4071 3989 3999 4136 3947 3905 3943 4037 3970 4102 3911 3951 4093 3879 3923 3909 3773 4001 3854 3877 3868 3864 3738 3812 3882 3708 3868 3632 3763 3617 3591 3607 3669 3628 3625 3697 3436 3500 3454 3503 3580 3552 3530 3489 3434 3449 3432 3425 3422 3399 3398 3290 3262 3255 3241 3372 3157 3247 3307 3304 3251 3252 3162 3205 3234 3242 3290 3237 3135 3161 3177 3202 3215 3222 3266 3130 3125 3194 3065 3082 3204 3176 3115 3112 3174 3059 3018 3097 3166 3149 3073 3206 3108 3109 3124 3054 3102 3083 3096 3118 3053 3108 3092 2959 2966 3007 3131 3071 3015 3078 3067 3074 3036 3099 3063 3041 3043 3088 3031 3004 2861 3013 3010 2985 2934 2950 3020 2934 3068 2941 2910 2980 3053 3091 2929 2983 2918 2868 2925 2904 3021 3041 2869 2921 2880 2897 3065 3009 2947 2925 2907 2987 3019 3041 3000 2955 2930 2862 2965 2971 2902 2988 2927 2946 2930 2900 2915 3071 2946 2997 2991 2920 2849 2984 2919 2898 2927 2919 2907 2907 2925 2871 2819 2840 2939 2882 2868 2877 2933 2944 2702 2934 2926 2908 2923 2910 2961 2933 2885 2939 2840 2929 2846 2877 2855 2874 2854 2815 2975 2894 2947 2845 2829 2810 2866 2837 2901 2853 2848 2915 2854 2844 2814 2977 2955 2906 2856 2901 2876 2866 2807 2841 2909 2926 2801 2889 2978 2886 2871 2867 2864 2820 2845 2894 2852 2795 2756 2823 2771 2914 2752 2871 2900 2849 2904 2889 2888 2814 2885 2868 2968 2853 2842 2872 2921 2839 2935 2821 2832 2861 2833 2821 2838 2865 2873 2814 2765 2918 2938 2861 2825 2789 2852 2894 2843 2823 2800 2740 2718 2729 2827 2770 2806 2778 2831 2807 2812 2798 2775 2835 2889 2755 2926 2762 2799 2832 2808 2804 2814 2840 2782 2850 2787 2855 2818 2844 2817 2872 2821 2811 2815 2781 2746 2782 2735 2830 2784 2789 2792 2634 2852 2886 2861 2820 2836 2821 2893 2885 2738 2701 2905 2703 2767 2830 2779 2801 2811 2746 2787 2720 2729 2765 2707 2798 2771 2863 2831 2782 2856 2673 2757 2801 2784 2734 2736 2755 2841 2759 2682 2712 2841 2737 2759 2721 2815 2779 2719 2753 2829 2769 2835 2930 2585 2684 2767 2663 2769 2731 2708 2758 2808 2727 2716 2789 2763 2674 2754 2632 2768 2753 2830 2772 2756 2722 2712 2704 2775 2705 2788 2761 2741 2807 2746 2730 2722 2809 2674 2651 2695 2681 2658 2837 2615 2776 2735 2876 2667 2622 2626 2668 2650 2717 2746 2667 2722 2705 2672 2735 2664 2596 2760 2672 2794 2759 2657 2705 2678 2614 2606 2717 2698 2678 2807 2691 2644 2635 2711 2737 2642 2705 2697 2727 2704 2667 2691 2674 2633 2605 2621 2707 2678 2647 2702 2707 2675 2672 2668 2623 2635 2646 2679 2617 2638 2670 2705 2680 2637 2626 2731 2555 2620 2616 2745 2633 2733 2643 2737 2738 2614 2561 2645 2642 2639 2528 2644 2630 2608 2561 2753 2616 2607 2610 2598 2630 2692 2658 2622 2672 2661 2625 2619 2717 2593 2614 2633 2690 2627 2718 2583 2592 2660 2624 2644 2541 2646 2553 2610 2637 2563 2600 2641 2600 2635 2675 2668 2699 2576 2605 2601 2689 2567 2645 2578 2642 2566 2767 2663 2635 2614 2557 2644 2635 2665 2609 2661 2475 2611 2629 2643 2576 2589 2629 2653 2697 2596 2537 2628 2651 2648 2614 2569 2571 2593 2524 2729 2543 2636 2586 2696 2599 2642 2594 2642 2643 2664 2650 2620 2679 2656 2642 2645 2766 2722 2552 2686 2686 2604 2621 2609 2645 2653 2639 2605 2607 2577 2610 2667 2618 2640 2616 2622 2690 2541 2645 2672 2587 2700 2632 2653 2621 2592 2647 2655 2672 2617 2592 2580 2673 2713 2692 2554 2615 2591 2631 2552 2639 2524 2610 2520 2623 2597 2613 2561 2541 2660 2510 2649 2578 2585 2574 2529 2580 2684 2644 2625 2638 2614 2598 2607 2593 2499 2612 2597 2540 2574 2642 2519 2455 2584 2467 2491 2531 2596 2532 2579 2565 2630 2521 2470 2431 2662 2485 2514 2548 2585 2515 2484 2511 2421 2453 2488 2490 2474 2462 2508 2511 2358 2512 2386 2490 2408 2490 2481 2446 2454 2450 2378 2456 2400 2450 2439 2337 2365 2388 2442 2401 2315 2479 2408 2350 2350 2388 2393 2334 2354 2445 2349 2393 2362 2304 2388 2394 2307 2349 2381 2355 2241 2366 2284 2293 2176 2261 2284 2345 2349 2286 2344 2203 2384 2246 2329 2239 2315 2230 2271 2332 2276 2206 2337 2168 2309 2283 2251 2242 2184 2279 2317 2248 2136 2279 2252 2240 2201 2197 2191 2243 2239 2198 2192 2178 2183 2253 2203 2183 2170 2174 2162 2094 2211 2192 2150 2155 2152 2106 2083 2153 2096 2146 2109 2221 2201 2145 2128 2139 2196 2097 2032 2101 2173 2117 2051 2077 2165 2107 2113 2044 2033 2043 2047 2107 2152 2043 2097 2082 2055 2061 2231 2039 2180 2104 2033 2100 2075 2141 2056 2004 2109 2128 2108 2052 2078 2094 2004 2076 2040 2145 1999 2063 1981 2090 2013 2123 1997 2100 2081 2017 1993 1991 1982 2008 1959 2066 2084 1987 2061 2049 1930 1985 2060 1992 2032 2005 2117 1968 2082 1950 1938 2048 2021 2072 2017 2092 1969 2002 2030 1979 2040 2027 2020 2048 2066 2063 1999 2057 1928 2068 2095 1976 2053 2024 2013 1954 2087 1972 1981 2024 1984 1987 1971 2041 1874 2035 2020 1995 2025 1955 2081 2021 2031 2000 1942 2041 1933 1891 2006 2063 1921 2070 2061 1971 1999 1886 2020 2026 1922 1972 1967 1983 2052 1947 2064 1956 1980 1953 2036 1996 1977 1960 1962 1974 1974 1991 2006 2008 1950 1991 1978 2086 1956 2003 1971 1995 2039 2000 1995 2070 2017 1949 2068 2042 2004 2029 2028 2050 2011 1986 2018 2019 2061 1993 2057 1951 1951 2028 2021 1953 2029 1988 2051 1954 2055 1964 2060 1982 1973 1934 2016 1969 2014 2035 1978 1941 2021 1997 2042 1981 2056 2050 1993 1932 1956 1961 1964 2024 1976 2019 1930 1994 1969 2037 1887 2060 2034 1967 2040 1998 1955 1967 1883 1955 1956 1934 1873 1953 1926 1975 2026 2045 1969 1967 1895 1907 2032 1907 1959 1928 2039 2014 1897 1949 1852 1920 1946 1874 1943 1941 2021 1850 1930 1937 1902 1891 1898 1888 1935 1838 1896 1933 1939 1882 1849 1952 1879 1890 1766 1874 1832 1913 1870 1937 1843 1927 1875 1873 1809 1804 1788 1852 1892 1854 1832 1804 1760 1815 1811 1790 1843 1852 1835 1770 1864 1780 1867 1798 1835 1813 1774 1804 1793 1790 1816 1820 1779 1857 1812 1833 1732 1700 1806 1889 1880 1765 1817 1746 1818 1689 1708 1653 1822 1745 1704 1680 1721 1646 1738 1735 1803 1768 1782 1714 1684 1737 1716 1714 1713 1790 1720 1734 1724 1710 1705 1720 1663 1722 1703 1712 1644 1690 1687 1722 1681 1705 1708 1622 1722 1602 1693 1738 1559 1674 1720 1650 1666 1698 1660 1722 1758 1758 1692 1807 1610 1717 1688 1740 1687 1766 1775 1863 1821 1903 1865 1839 1915 1974 1993 2027 2126 2188 2199 2183 2230 2227 2335 2215 2244 2239 2262 2306 2295 2222 2289 2225 2092 2149 2112 2087 2044 2051 2100 1873 1978 1927 1956 1967 1910 1835 1888 1860 1823 1780 1762 1787 1789 1780 1823 1813 1807 1753 1731 1753 1732 1744 1642 1719 1635 1635 1517 1560 1556 1507 1567 1589 1589 1501 1532 1576 1531 1477 1505 1560 1459 1469 1492 1498 1454 1542 1522 1460 1450 1454 1529 1532 1522 1449 1466 1544 1463 1520 1463 1466 1439 1450 1487 1501 1460 1438 1398 1449 1477 1430 1570 1482 1483 1528 1420 1515 1479 1556 1512 1546 1563 1538 1564 1568 1625 1724 1734 1733 1748 1856 1896 1983 2058 2075 2100 2180 2190 2222 2291 2231 2246 2314 2314 2248 2306 2255 2250 2219 2168 2161 2167 2090 1961 2036 1945 1936 1878 1856 1915 1821 1753 1731 1798 1679 1724 1742 1724 1680 1717 1688 1724 1708 1645 1666 1644 1666 1626 1584 1611 1572 1669 1572 1526 1503 1532 1572 1484 1504 1499 1428 1497 1483 1601 1534 1564 1475 1496 1482 1471 1426 1549 1451 1520 1463 1521 1490 1434 1466 1414 1390 1422 1360 1393 1458 1483 1367 1414 1330 1394 1426 1405 1380 1309 1321 1373 1394 1373 1371 1401 1325 1417 1356 1313 1429 1353 1338 1350 1375 1414 1320 1325 1361 1311 1355 1411 1421 1328 1295 1349 1287 1319 1345 1300 1294 1270 1309 1284 1287 1354 1326 1311 1338 1263 1363 1253 1267 1330 1319 1296 1422 1257 1251 1227 1264 1237 1256 1292 1301 1205 1269 1247 1272 1230 1305 1227 1244 1241 1261 1188 1313 1188 1228 1245 1203 1294 1227 1277 1262 1222 1253 1195 1272 1209 1235 1182 1248 1231 1222 1282 1237 1202 1224 1199 1212 1239 1302 1250 1264 1206 1230 1274 1184 1246 1219 1191 1248 1297 1190 1290 1207 1170 1209 1244 1236 1216 1306 1271 1250 1250 1218 1272 1207 1175 1216 1169 1153 1167 1153 1211 1221 1189 1229 1170 1220 1161 1188 1227 1192 1157 1177 1185 1219 1217 1243 1186 1277 1150 1243 1253 1157 1173 1236 1246 1205 1184 1225 1202 1195 1276 1240 1197 1235 1230 1174 1185 1271 1224 1273 1187 1299 1212 1180 1271 1274 1241 1235 1242 1255 1225 1189 1246 1248 1282 1207 1267 1266 1286 1267 1319 1269 1297 1233 1250 1264 1270 1233 1280 1260 1201 1301 1290 1252 1223 1141 1227 1246 1275 1224 1242 1170 1224 1167 1163 1214 1243 1157 1217 1200 1215 1199 1177 1223 1175 1253 1216 1220 1157 1144 1121 1195 1110 1177 1161 1185 1204 1160 1223 1209 1221 1137 1164 1124 1157 1183 1201 1161 1133 1134 1121 1183 1154 1218 1175 1179 1217 1150 1151 1106 1142 1207 1167 1192 1166 1177 1239 1155 1106 1141 1212 1114 1200 1125 1134 1119 1159 1151 1110 1191 1149 1182 1155 1217 1147 1105 1132 1186 1108 1103 1168 1120 1184 1151 1149 1149 1130 1218 1155 1198 1185 1177 1134 1146 1186 1090 1187 1206 1164 1168 1192 1176 1221 1166 1138 1223 1158 1188 1233 1231 1205 1241 1249 1257 1297 1227 1265 1266 1350 1331 1330 1365 1472 1484 1430 1551 1555 1688 1746 1949 2044 2244 2252 2455 2625 2912 2994 3192 3254 3403 3524 3632 3788 3828 3917 3923 4014 4002 4090 3952 3907 3689 3540 3495 3493 3335 3191 3145 3038 2867 2799 2733 2635 2516 2566 2337 2434 2410 2433 2476 2501 2491 2459 2497 2591 2587 2406 2530 2586 2519 2449 2491 2422 2373 2341 2187 2237 2171 2011 2032 2021 1869 1929 1889 1807 1752 1734 1727 1684 1663 1701 1617 1642 1580 1675 1676 1645 1640 1585 1655 1614 1614 1608 1592 1616 1653 1477 1518 1419 1435 1427 1348 1402 1307 1359 1268 1274 1312 1261 1285 1165 1268 1228 1211 1201 1204 1202 1162 1216 1192 1144 1182 1166 1238 1139 1130 1124 1190 1117 1191 1112 1208 1110 1067 1031 1149 1112 1128 1080 1064 1089 1143 1079 1078 1089 1079 1113 1158 1077 1138 1098 1030 1042 1067 1154 1120 1082 1035 1069 1066 1016 1058 1038 1108 1096 1076 1108 1095 1032 1104 1093 1058 1094 1065 1068 1081 1096 1046 1034 1101 1066 1041 1080 987 1055 1082 1052 1083 1081 1056 1036 1028 1031 1066 1085 1030 1029 1038 1027 1085 1084 998 1119 1090 1038 1029 1048 1040 1016 1014 1023 996 1057 1037 966 982 1032 1050 1011 1009 1015 1031 995 1018 1055 1016 1037 968 981 1003 957 1040 1044 984 971 1139 1025 1007 1012 1010 1054 1039 1043 1007 1029 981 1040 996 1023 1002 1016 992 948 1006 990 1048 977 979 1039 1033 1044 1009 1029 1013 1018 1053 1004 1012 1038 1001 1020 1021 984 1015 1025 1009 987 954 1001 964 1015 1000 994 1058 967 1004 984 942 1015 942 964 1000 970 990 976 992 975 1027 1023 974 937 998 1011 1032 975 1004 1037 996 1026 1022 1022 970 1024 970 1035 985 1055 1025 998 961 1033 995 1023 997 1031 1002 993 1002 1033 938 962 947 1035 985 992 999 1001 984 1050 977 964 981 912 997 993 985 1005 1023 996 992 1010 932 982 1025 965 1008 997 977 1016 995 1056 996 1026 1039 1032 1023 1005 1021 1025 980 1032 1008 980 1102 1031 1077 1029 1010 998 1038 998 960 1047 1060 950 992 965 1002 975 1016 976 949 968 975 989 1008 956 966 933 977 961 919 950 947 921 1002 1018 865 937 925 928 1003 980 916 950 939 899 932 913 947 921 886 921 933 943 947 1009 943 1008 902 976 933 896 918 948 966 917 907 942 922 929 899 912 914 966 886 904 955 887 871 937 906 880 923 910 901 819 963 940 989 901 944 938 891 909 888 880 918 924 905 892 928 924 872 878 878 935 950 902 909 899 891 927 876 879 854 894 919 898 913 907 870 873 935 892 845 926 862 827 913 924 866 857 888 875 895 877 977 900 953 902 993 876 873 925 866 885 879 896 882 954 872 879 935 883 902 872 861 827 861 909 871 877 902 848 876 903 878 851 847 907 866 891 877 917 902 890 858 891 949 866 852 829 900 820 867 887 935 925 903 871 847 876 887 887 801 872 843 829 838 854 872 870 847 901 927 874 936 922 861 876 805 898 826 844 853 902 902 860 848 919 976 882 873 885 875 825 922 907 907 898 850 904 838 908 850 851 894 872 878 836 867 863 854 889 841 899 874 915 905 897 876 863 845 856 889 895 851 905 858 907 882 897 899 867 850 869 878 852 887 840 921 851 878 846 842 847 866 880 876 891 863 829 850 847 884 823 817 873 823 872 937 882 826 861 880 871 863 832 844 883 881 890 864 891 837 847 833 855 844 832 900 831 884 887 821 856 823 877 897 892 832 870 882 867 873 860 850 876 847 869 817 856 812 851 856 797 859 799 873 873 874 861 793 877 900 850 855 840 877 843 821 809 859 822 830 859 814 822 807 869 800 853 776 854 831 910 846 835 860 906 865 869 824 860 852 833 843 779 840 802 849 811 935 845 864 817 806 836 797 868 826 832 852 863 797 858 866 815 844 797 830 841 860 834 827 783 858 811 906 863 865 836 865 879 882 856 895 846 809 813 826 832 816 795 858 831 861 844 831 879 847 830 845 837 811 848 857 842 789 903 784 837 818 829 851 820 889 840 910 830 873 840 791 841 847 824 830 781 832 876 781 863 787 850 883 839 807 827 809 865 842 828 844 852 823 818 865 812 824 837 831 815 820 866 811 802 844 809 868 804 800 856 855 818 802 810 806 812 809 800 871 802 821 866 820 890 831 820 840 812 863 864 850 768 856 815 868 847 857 817 831 819 872 838 863 824 853 805 822 814 797 789 844 931 911 860 794 881 783 799 860 784 853 760 792 827 841 762 815 868 848 881 809 792 811 829 872 834 858 869 914 894 807 811 817 855 867 846 830 870 837 829 819 794 807 808 880 828 814 874 806 816 814 769 831 850 812 826 844 834 854 836 846 800 820 790 854 819 825 822 817 793 762 847 852 859 817 814 798 788 790 809 904 858 871 812 834 799 817 849 902 871 869 840 927 949 988 950 918 1031 1005 985 966 985 1046 1017 1022 1060 1084 1071 1042 1091 1101 1078 1044 1086 1052 995 1006 1030 987 925 966 924 935 966 916 927 887 903 923 872 914 866 901 868 880 893 871 869 853 823 862 860 835 821 828 812 887 791 844 869 833 774 838 813 831 803 827 815 807 830 788 795 815 806 808 791 786 842 822 786 830 808 818 803 828 804 822 869 902 816 846 820 781 832 825 836 874 889 813 867 888 815 844 829 823 855 899 880 847 853 865 877 858 912 898 822 879 829 838 833 894 841 843 803 808 761 755 765 808 828 801 792 834 774 792 747 846 790 802 849 786 823 819 824 802 780 731 761 766 796 814 790 780 821 732 818 770 785 812 792 757 796 788 774 786 764 799 784 789 842 795 765 796 805 777 785 760 837 792 805 769 762 822 862 801 783 803 787 780 704 781 730 825 763 753 755 805 764 732 799 752 746 775 788 750 769 789 733 809 741 767 743 787 782 764 785 769 719 817 780 839 800 809 761 838 754 765 810 786 793 757 744 806 774 740 719 762 741 811 747 837 738 782 776 758 808 800 745 747 780 801 821 779 769 815 751 742 843 792 810 728 712 808 787 769 819 775 780 786 828 773 733 739 768 761 805 821 777 846 751 739 725 796 793 792 740 743 824 795 756 780 841 773 825 792 790 758 770 764 785 745 788 752 793 796 760 807 789 804 837 788 788 774 769 824 817 782 791 794 776 755 753 803 729 797 838 774 775 779 758 712 806 765 737 717 747 725 790 749 777 795 789 798 764 757 788 855 767 821 779 787 782 816 771 784 799 850 767 769 869 824 773 784 768 855 796 805 817 854 859 812 809 907 856 810 857 895 865 877 871 893 935 909 995 963 953 1027 1066 1134 1232 1284 1296 1483 1570 1633 1823 1885 1968 2110 2076 2329 2176 2196 2246 2320 2314 2315 2329 2265 2292 2352 2213 2227 2103 2105 2010 1959 1897 1834 1803 1772 1597 1558 1539 1454 1408 1355 1317 1333 1331 1273 1217 1223 1216 1213 1147 1176 1089 1016 1059 1033 981 1039 997 988 977 978 937 929 898 858 912 807 826 828 820 811 830 803 815 762 853 786 790 802 793 736 811 769 812 855 809 805 789 785 777 805 774 823 796 813 776 797 813 792 825 801 780 780 812 829 864 825 880 812 878 883 831 890 864 948 870 889 966 954 943 967 970 951 923 975 950 996 988 998 966 987 908 951 924 965 924 957 932 883 943 909 912 935 905 893 834 892 882 829 879 858 829 798 813 825 826 814 845 829 811 797 779 823 794 823 782 804 773 796 775 744 784 729 758 755 763 727 728 722 758 731 800 734 715 746 769 774 723 728 733 747 763 790 753 730 802 757 715 711 738 701 712 778 696 748 743 749 775 804 663 729 791 736 724 734 725 730 700 754 727 701 785 763 760 782 719 793 771 820 840 814 811 809 828 842 893 821 846 897 848 904 863 936 906 907 877 900 958 958 895 968 960 853 934 845 876 893 875 857 909 850 842 889 881 785 877 876 816 842 779 798 778 771 805 797 794 751 739 765 780 728 762 753 748 822 707 677 739 763 694 800 705 706 686 688 741 720 714 741 739 729 670 679 694 682 666 729 722 747 765 630 707 720 701 725 716 700 662 724 694 681 660 681 698 700 723 740 680 689 692 698 643 716 711 682 704 713 740 705 692 686 673 685 712 642 702 691 701 753 706 640 664 635 740 676 682 678 689 740 745 691 704 686 666 706 707 695 731 685 686 675 706 645 716 678 678 717 674 661 684 690 719 642 697 727 699 676 696 669 687 662 702 684 692 671 667 688 686 675 692 656 653 695 717 752 672 717 708 695 670 643 681 687 649 708 713 652 705 688 662 671 688 679 664 714 689 690 652 650 696 685 720 696 715 650 656 672 651 692 709 735 612 740 698 669 661 658 700 740 666 702 692 645 710 696 696 680 680 708 660 690 674 691 674 660 664 628 676 696 673 683 700 712 666 688 670 702 689 665 684 680 653 653 637 721 710 674 698 693 675 650 651 685 706 644 667 690 688 654 700 733 691 675 665 672 697 686 663 676 663 655 726 657 697 705 631 662 659 674 628 672 663 696 653 709 628 652 664 728 652 674 675 719 666 649 678 676 712 672 729 700 707 645 690 677 732 677 639 703 677 671 653 611 669 671 700 674 645 663 648 645 711 666 698 649 664 673 664 663 599 658 657 654 700 659 668 662 624 681 638 652 687 656 636 624 672 667 636 647 615 661 675 682 629 653 660 604 615 652 656 685 640 653 650 654 623 632 655 650 672 668 721 630 651 635 650 690 701 675 628 615 654 622 691 719 680 643 621 640 654 700 682 690 655 645 627 630 638 657 678 653 654 660 649 644 600 595 662 647 662 603 695 687 665 678 621 658 661 611 677 634 684 592 677 636 702 643 658 605 648 640 652 639 614 645 639 645 639 640 645 645 649 671 668 650 664 673 651 659 632 687 614 703 641 654 633 682 679 645 625 665 632 610 633 655 575 670 663 653 678 672 640 683 643 617 660 637 697 659 672 692 672 616 680 659 655 648 607 650 607 654 692 660 658 634 640 627 639 649 624 634 623 646 597 618 659 687 637 686 635 659 670 613 687 669 640 693 592 681 599 625 604 633 631 651 663 632 673 646 686 719 657 652 688 662 672 697 684 673 645 665 674 687 607 645 656 690 690 654 648 693 647 700 727 696 729 669 743 711 684 662 682 725 699 673 697 680 705 667 657 706 727 696 602 658 690 687 621 673 671 704 693 667 648 646 656 695 677 668 591 689 642 664 655 657 672 634 653 615 682 645 664 662 680 658 725 625 660 648 693 655 709 698 700 737 725 824 753 746 769 786 775 760 780 794 816 815 817 809 755 792 771 773 771 724 740 763 757 741 791 724 726 697 665 752 661 732 732 736 680 665 665 655 688 695 720 660 709 636 682 637 634 696 650 652 662 618 644 590 672 626 640 723 617 664 591 648 656 630 590 724 667 639 620 614 607 683 629 638 623 648 638 622 661 630 618 645 662 649 628 601 638 662 600 640 624 583 682 647 633 650 649 596 595 597 633 647 655 634 599 595 595 660 632 615 607 638 629 646 621 650 629 616 646 647 687 647 629 668 665 652 663 671 720 646 686 648 630 675 683 695 655 651 688 608 647 676 657 658 642 671 649 638 666 605 609 650 700 630 630 635 632 634 660 636 643 643 636 609 640 609 629 610 650 629 639 665 640 628 669 600 647 641 662 640 641 649 675 572 602 640 630 586 644 616 657 620 618 641 578 648 612 613 635 587 654 542 563 611 605 592 620 682 658 590 613 591 599 611 627 614 615 610 638 613 602 644 595 632 615 579 643 598 622 639 623 586 623 650 620 621 678 588 654 657 654 649 636 612 648 651 618 646 645 654 626 627 604 684 644 687 705 641 636 717 720 699 775 758 778 825 829 863 889 883 855 877 874 890 849 884 925 882 913 928 847 881 877 892 814 857 886 812 852 851 852 840 841 876 830 808 833 872 789 788 796 793 749 791 747 794 754 713 724 669 716 705 688 711 724 697 668 710 690 686 626 657 683 685 651 637 587 691 615 664 653 581 641 673 693 638 617 641 620 612 574 650 624 633 615 603 612 610 585 631 635 617 621 645 620 586 610 607 584 598 587 659 639 625 651 584 621 651 659 626 663 626 625 624 561 630 573 625 662 588 596 609 608 567 605 585 567 579 609 634 637 614 676 613 625 575 646 610 614 581 622 600 611 653 604 608 654 602 637 616 595 601 605 638 629 593 618 644 593 637 647 621 642 630 609 599 597 606 622 573 567 596 577 583 624 612 654 589 586 604 613 610 634 555 645 636 639 581 615 628 611 615 608 614 614 696 611 689 637 653 643 650 655 678 650 677 658 682 723 676 710 661 683 745 641 685 684 685 672 646 621 719 651 666 636 620 667 669 615 627 671 658 643 661 609 670 611 650 669 625 634 652 572 601 624 609 675 621 621 622 589 652 602 586 595 585 607 626 623 596 604 648 637 625 588 575 571 582 556 580 559 593 552 629 586 553 583 585 620 599 600 552 583 539 583 617 589 593 603 550 621 618 585 603 623 601 571 551 599 575 571 575 594 589 585 633 580 613 582 569 538 585 627 584 634 605 571 587 575 575 523 561 628 616 567 578 521 588 588 613 613 575 635 571 587 621 609 575 578 579 594 584 536 560 587 616 567 561 567 597 585 562 630 605 567 654 590 634 587 608 606 556 606 626 556 602 617 608 571 562 568 616 562 582 602 589 591 611 604 600 596 602 589 563 580 583 596 564 628 584 622 541 641 634 649 559 589 533 568 618 578 524 603 629 577 624 570 586 565 587 572 564 569 596 585 575 606 586 598 580 540 577 556 602 581 563 583 593 549 593 569 615 592 586 574 564 561 526 590 588 638 556 606 615 571 587 568 590 628 572 556 581 624 571 583 573 598 571 549 583 555 546 578 576 562 568 508 566 553 563 611 557 556 555 561 567 604 556 572 578 623 589 535 559 582 619 580 568 545 591 574 584 606 536 562 608 576 553 602 623 547 579 535 613 563 585 576 518 545 545 586 595 573 575 540 560 556 579 605 568 548 570 567 540 640 584 567 606 627 572 563 598 634 575 570 609 587 598 528 584 563 568 535 528 612 607 572 575 565 620 586 596 553 576 572 583 561 580 547 556 582 568 550 529 547 565 571 548 556 562 561 556 509 578 555 541 499 558 589 569 536 533 559 589 614 548 547 552 560 548 561 549 555 604 601 535 615 507 568 580 529 519 582 603 547 512 482 529 574 528 544 605 569 599 577 586 548 575 578 539 560 601 540 606 500 514 525 577 607 579 565 581 547 570 561 595 604 573 599 573 558 539 556 564 545 592 517 588 558 534 571 577 559 518 577 509 544 563 600 567 588 570 567 558 524 608 534 533 571 543 573 571 558 569 546 540 580 553 574 549 600 524 542 527 607 564 586 577 593 530 600 565 588 548 563 603 631 617 567 610 636 612 606 606 620 593 560 571 608 622 594 649 542 567 653 610 608 571 552 563 610 545 599 591 580 577 552 567 575 563 543 562 577 615 662 598 533 580 589 554 523 562 534 565 591 541 558 556 528 550 555 585 533 545 585 547 591 535 568 558 567 599 582 562 524 536 559 546 575 579 600 546 568 557 568 594 608 618 544 556 547 571 601 592 572 592 564 576 593 573 577 569 597 544 577 519 528 564 531 563 530 564 547 576 623 578 576 517 560 639 577 562 570 584 559 557 594 543 597 541 617 527 544 573 554 549 567 567 560 627 574 526 530 580 597 561 545 579 602 569 570 587 554 553 586 556 570 544 521 526 563 576 581 535 556 553 546 578 550 556 547 543 540 538 552 538 549 574 524 576 569 543 534 540 535 541 539 524 555 585 588 546 533 548 578 562 518 512 538 514 522 586 550 551 545 583 554 580 569 568 536 541 565 554 578 532 556 530 545 531 589 530 561 555 536 536 535 545 578 536 549 552 585 573 511 502 545 558 539 579 599 505 557 545 566 528 494 581 538 542 520 557 574 549 497 538 549 543 552 561 564 529 595 525 562 558 532 546 538 558 532 580 576 594 565 551 580 592 545 541 560 520 544 594 541 538 538 565 478 542 536 528 582 576 520 575 564 627 579 571 582 573 547 605 593 613 628 620 646 656 685 620 607 616 670 637 636 669 669 638 607 654 668 672 564 588 639 674 646 627 652 628 641 628 647 591 610 609 591 594 626 565 615 569 533 561 564 589 583 557 604 521 624 535 577 554 548 567 570 612 575 535 562 577 586 541 570 544 557 534 526 561 520 581 543 573 583 579 528 561 560 543 529 541 505 542 545 546 532 550 565 589 568 566 561 530 576 614 567 590 567 572 562 584 574 563 556 567 514 580 555 582 568 601 544 562 575 535 561 595 519 569 555 558 513 579 565 596 558 571 546 527 562 501 560 547 547 593 512 505 566 573 554 536 602 567 522 570 533 533 526 578 556 546 585 511 537 552 566 520 592 557 539 539 575 564 580 526 584 502 561 516 568 550 548 546 535 552 542 554 522 596 583 549 516 554 512 535 521 557 496 550 530 558 524 562 565 528 514 534 492 555 562 555 567 512 516 536 552 528 537 538 519 515 542 515 574 580 560 576 573 529 534 518 535 510 529 501 527 520 554 578 525 557 525 542 516 524 513 520 514 533 546 519 547 511 561 534 507 523 577 590 510 529 502 503 571 544 527 519 521 520 518 589 523 527 529 504 548 523 535 548 586 477 539 497 539 526 554 549 571 539 496 545 551 528 522 556 516 508 588 542 523 496 520 516 507 505 547 522 533 552 531 532 544 564 529 578 524 534 519 533 551 546 541 542 539 599 536 533 517 525 551 506 539 539 524 496 534 506 569 506 547 540 540 541 554 528 478 527 493 529 538 569 510 521 549 492 492 515 532 522 522 577 510 499 554 541 552 534 495 541 523 504 578 551 551 552 512 524 585 549 520 487 526 549 529 535 523 530 570 546 566 522 529 552 516 546 539 513 535 569 576 560 524 518 508 521 552 515 520 525 494 507 529 518 578 544 536 577 537 546 488 517 549 508 492 543 552 549 534 539 519 488 513 519 528 519 526 576 522 544 536 565 544 510 529 515 496 534 535 557 543 526 490 548 572 526 567 488 495 584 544 535 539 521 535 533 517 510 532 500 526 511 551 508 542 495 560 499 550 531 526 502 538 528 554 494 483 532 566 532 539 531 530 524 555 521 520 513 556 515 583 513 533 557 517 568 523 557 557 568 576 491 553 511 483 566 522 525 524 534 487 496 553 539 523 546 521 520 525 538 492 547 506 533 566 541 522 515 543 526 495 560 512 536 543 507 538 538 508 502 523 536 533 528 500 549 539 543 541 547 492 498 529 544 489 531 527 503 544 555 536 518 562 544 513 502 488 537 510 532 511 511 531 574 493 554 558 505 535 535 488 545 512 534 529 562 551 536 529 509 537 502 500 521 507 538 526 509 541 542 505 486 573 512 515 509 496 537 525 542 512 542 539 508 525 497 517 559 512 531 542 511 562 499 557 517 531 581 527 566 545 488 528 509 528 550 485 547 520 558 506 545 526 513 528 517 573 531 529 556 565 552 536 544 565 578 538 574 570 548 598 571 583 600 549 593 557 565 570 587 558 569 546 577 548 551 548 549 558 537 516 488 539 568 599 519 591 585 585 552 546 563 574 571 531 542 559 544 548 570 503 554 562 576 499 490 564 544 557 513 559 541 545 529 545 588 527 578 542 560 583 520 545 488 566 577 572 577 547 536 565 547 576 556 556 513 594 534 563 543 576 524 573 596 582 561 526 527 561 519 538 556 516 569 552 542 529 545 516 551 517 526 522 532 511 540 553 516 553 537 547 542 528 519 534 509 558 537 535 514 500 511 503 528 499 543 498 482 493 540 537 508 513 544 503 571 538 516 518 504 524 521 535 488 514 526 556 552 547 542 504 505 471 550 523 513 529 545 542 596 528 544 515 554 520 549 522 543 520 522 528 525 521 525 533 508 520 542 516 511 505 515 524 542 567 509 512 557 502 573 519 554 546 562 555 550 543 514 544 535 532 490 523 553 528 576 545 543 597 541 516 567 547 576 536 535 569 550 530 518 483 548 551 544 568 557 524 575 556 508 556 555 550 512 504 539 532 508 548 550 568 557 519 589 552 560 527 590 540 551 533 541 531 500 566 543 525 523 543 568 578 569 531 528 595 549 560 566 558 601 543 604 602 650 654 605 623 640 619 633 656 706 687 772 724 756 734 762 762 772 763 770 710 691 697 693 802 733 696 703 683 737 697 775 712 750 734 678 741 753 647 715 668 728 677 690 639 653 705 662 603 689 617 663 586 631 629 588 605 614 602 569 568 608 588 564 559 587 556 570 549 552 541 556 501 539 572 560 539 573 562 516 512 551 520 545 528 492 544 517 507 502 546 514 492 545 551 485 534 506 531 534 479 543 529 528 522 555 559 520 523 497 552 496 495 515 517 551 532 540 569 479 514 553 527 551 506 518 523 515 539 540 543 537 540 550 541 500 526 513 496 516 521 557 497 545 490 543 553 529 554 523 541 519 524 498 498 513 475 506 560 501 503 526 544 540 484 568 527 522 518 534 557 532 522 485 529 521 489 535 490 563 528 535 550 513 539 554 541 539 527 579 526 533 526 606 558 582 566 559 586 573 579 533 562 552 619 542 576 557 531 586 545 578 572 553 555 595 550 548 583 573 558 547 558 540 530 573 547 588 548 549 514 538 530 500 543 532 573 532 523 551 512 554 519 554 535 523 531 467 520 516 525 526 541 505 521 484 506 515 483 521 499 490 527 501 491 486 497 525 532 493 495 536 497 492 505 510 540 494 546 508 491 526 547 483 513 537 534 526 499 467 515 501 501 497 504 480 530 460 509 508 482 555 486 522 502 489 492 555 499 519 501 514 505 515 507 442 540 466 490 490 497 494 509 494 458 508 495 493 554 499 515 473 491 520 492 483 503 469 516 463 533 493 491 480 512 499 503 476 518 475 539 465 467 502 492 497 528 510 492 508 529 487 558 501 517 503 543 483 502 493 513 515 487 512 485 482 490 516 472 472 526 508 486 485 510 530 466 515 492 498 485 536 525 490 545 507 456 494 510 458 465 461 545 499 500 485 515 510 473 533 544 506 510 502 535 504 479 508 549 534 506 532 493 489 485 476 481 494 474 473 451 496 512 480 484 473 522 516 454 502 509 452 493 508 472 443 449 517 471 480 470 522 508 490 504 500 491 503 482 480 489 519 487 544 514 523 535 518 496 520 476 488 530 474 461 507 516 495 514 488 492 528 449 486 493 503 449 469 522 482 473 492 505 492 473 495 513 496 476 514 483 505 483 477 490 466 446 519 505 493 457 478 499 464 449 490 538 507 454 484 480 500 477 485 479 540 499 528 457 504 477 468 485 458 472 514 506 487 513 515 479 464 476 483 493 481 478 513 502 560 508 518 474 463 482 520 471 498 486 494 494 488 490 491 505 549 485 504 494 504 463 476 492 529 469 471 482 488 518 499 496 520 516 472 462 522 496 476 500 478 532 496 470 532 472 499 489 461 478 476 485 521 504 515 484 500 493 483 529 514 522 517 493 499 457 506 475 455 479 516 505 483 499 490 533 464 502 502 488 452 485 526 492 516 502 505 496 484 521 525 520 549 528 502 471 526 515 549 496 526 505 521 485 490 517 477 499 523 476 511 477 476 512 488 509 518 515 507 498 508 512 499 513 470 506 495 500 494 470 476 510 491 485 447 490 495 495 494 509 502 500 444 472 470 495 484 504 470 449 509 479 493 509 499 514 515 466 475 483 514 471 450 502 503 462 513 514 507 506 469 497 497 477 510 537 465 468 487 542 553 507 468 437 440 481 471 508 506 485 487 460 520 462 468 483 527 504 474 502 470 482 460 475 461 463 475 498 455 479 490 469 480 466 524 464 464 444 488 490 471 463 477 464 479 465 490 512 483 481 513 432 451 513 507 462 483 450 479 465 447 510 475 521 461 468 479 450 472 458 476 479 534 488 487 482 492 478 462 506 473 501 474 460 461 484 512 511 480 511 520 456 469 483 524 476 512 477 471 477 457 489 464 490 484 458 510 491 467 419 482 486 475 487 486 494 475 511 469 483 502 472 482 519 466 460 450 504 491 514 456 463 491 483 487 483 484 485 495 420 480 458 503 478 450 425 536 465 475 459 497 457 467 468 443 476 465 502 487 509 480 466 488 502 518 493 513 494 509 495 506 504 545 525 516 474 461 519 525 519 521 543 525 514 548 557 503 516 553 585 576 622 612 660 628 627 656 686 632 610 665 585 646 612 614 605 613 598 555 560 587 581 571 584 552 583 575 639 573 569 612 538 572 612 588 553 560 579 572 572 569 575 579 568 559 535 540 515 550 505 493 526 513 514 475 509 517 502 481 488 511 554 465 529 498 508 495 476 484 502 499 513 508 501 504 478 533 472 498 500 524 502 493 517 489 531 535 506 473 488 487 446 515 504 501 511 482 488 479 472 459 478 448 508 491 520 535 509 475 510 500 507 505 479 477 452 466 465 488 466 473 503 481 430 483 481 469 491 506 484 490 500 488 461 485 491 514 477 480 450 524 518 458 460 481 486 511 440 467 456 464 476 448 503 475 477 480 467 486 473 487 478 510 491 460 475 452 552 506 466 497 532 494 494 459 489 479 484 469 498 506 474 459 477 480 470 491 501 521 497 480 504 460 506 523 480 494 490 471 486 495 486 452 458 510 481 463 464 463 463 458 512 474 497 434 484 494 486 494 434 497 503 488 463 454 490 470 460 476 486 500 501 514 516 437 461 469 474 530 474 459 486 465 480 506 447 489 446 502 525 462 440 495 464 472 465 449 470 459 445 481 484 502 464 467 455 506 513 494 490 476 469 496 542 489 490 475 490 430 459 494 477 463 445 505 480 490 470 478 459 487 474 476 463 464 449 481 474 458 483 480 467 478 459 465 461 446 490 483 449 458 444 503 455 501 471 500 468 447 445 487 467 460 497 466 491 474 501 491 493 521 473 541 498 454 490 441 474 487 459 498 471 458 489 497 495 468 473 453 455 458 483 448 464 467 463 432 472 477 493 507 485 471 457 484 455 493 498 459 461 481 447 472 464 455 496 486 451 469 465 455 457 517 477 433 510 463 444 472 456 492 467 481 509 530 437 478 489 486 446 486 463 454 458 462 438 445 482 469 466 511 457 455 503 518 440 451 474 469 466 445 481 457 468 461 483 475 461 447 492 434 478 541 460 488 446 471 472 507 489 483 483 473 478 475 484 456 534 451 451 468 485 447 478 431 463 477 479 464 484 446 476 445 463 463 473 470 461 479 467 499 483 453 482 486 429 456 445 499 480 496 488 467 454 433 477 483 457 463 454 467 444 450 471 481 456 470 465 491 489 462 447 480 480 490 456 463 464 471 469 475 446 492 444 488 458 488 429 465 448 490 449 467 460 469 447 515 476 483 488 446 436 484 466 441 466 498 486 485 422 441 429 495 441 486 501 490 483 485 494 437 453 465 490 454 503 424 453 466 469 471 455 507 442 463 448 446 483 455 461 465 488 444 460 435 471 503 478 491 502 454 491 461 484 469 476 462 467 496 454 442 463 457 464 478 466 449 492 443 464 475 476 453 461 479 457 461 453 479 499 485 503 420 501 494 517 490 466 501 473 493 485 511 460 476 504 533 484 489 481 495 519 510 477 484 515 487 488 502 482 494 492 489 494 475 493 455 509 527 504 505 483 510 485 487 463 443 432 480 503 471 498 479 503 508 476 466 446 463 488 537 471 480 464 470 480 517 432 505 484 494 501 497 475 507 473 489 494 501 498 506 468 541 457 522 503 496 472 501 499 526 505 474 493 509 468 495 447 485 525 443 486 470 492 447 499 499 530 485 512 474 491 449 488 477 445 478 508 486 465 453 481 429 471 470 480 495 486 498 449 477 474 521 458 450 516 463 470 458 458 434</counts>
			</dataPoints>
		</scan>
	</xrdMeasurement>
</xrdMeasurements>
