<?xml version="1.0"?>
<xrdMeasurements xmlns="http://www.xrdml.com/XRDMeasurement/2.3" xmlns:xsi="http://www.w3.org/2001/XMLSchema-instance" xsi:schemaLocation="http://www.xrdml.com/XRDMeasurement/2.3 http://www.xrdml.com/XRDMeasurement/2.3/XRDMeasurement.xsd" status="Completed" recordIdentifier="{E13DBBC3-47B7-4E12-A32E-FDFCA8AF5033}">
	<comment>
		<entry/>
	</comment>
	<sample type="To be analyzed">
		<id>GPSS_Li1p5Mn0p3Fe0p2Y0p25In0p25Cl4_112425_69248ac4f4e53d1f723993ca</id>
		<name></name>
		<preparedBy></preparedBy>
	</sample>
	<xrdMeasurement measurementType="Scan" status="Completed" sampleMode="Reflection">
		<usedWavelength intended="K-Alpha 1">
			<kAlpha1 unit="Angstrom">1.5405980</kAlpha1>
			<kAlpha2 unit="Angstrom">1.5444260</kAlpha2>
			<kBeta unit="Angstrom">1.3922500</kBeta>
			<ratioKAlpha2KAlpha1>0.5000</ratioKAlpha2KAlpha1>
		</usedWavelength>
		<incidentBeamPath>
			<radius unit="mm">145.00</radius>
			<xRayTube id="1010048" name="Empyrean Cu LFF HR (9430 033 7310x)">
				<tension unit="kV">40.0</tension>
				<current unit="mA">15.0</current>
				<anodeMaterial>Cu</anodeMaterial>
				<focus type="Line">
					<length unit="mm">12.0</length>
					<width unit="mm">0.4</width>
					<takeOffAngle unit="deg">6.0</takeOffAngle>
				</focus>
			</xRayTube>
			<sollerSlit id="21010002" name="Soller slits 0.04 rad.">
				<opening unit="rad">0.0400</opening>
			</sollerSlit>
			<mask id="22031000" name="Fixed mask 13 mm">
				<width unit="mm">9.00</width>
			</mask>
			<divergenceSlit id="22120001" name="Divergence slit 1°" xsi:type="fixedDivergenceSlitType">
				<distanceToSample unit="mm">50.00</distanceToSample>
				<height unit="mm">1.52</height>
			</divergenceSlit>
		</incidentBeamPath>
		<sampleMovement xsi:type="spinningSampleMovementType">
			<spinnerRevolutionTime unit="seconds">1.0</spinnerRevolutionTime>
		</sampleMovement>
		<diffractedBeamPath>
			<radius unit="mm">145.00</radius>
			<antiScatterSlit id="22090040" name="AS slit 9 mm (PIXcel)" xsi:type="fixedAntiScatterSlitType">
				<height unit="mm">9.00</height>
			</antiScatterSlit>
			<sollerSlit id="21020003" name="Large Soller slits 0.04 rad.">
				<opening unit="rad">0.0400</opening>
			</sollerSlit>
			<filter id="20030001" name="Large beta-filter Nickel">
				<material>Ni</material>
				<thickness unit="mm">0.020</thickness>
			</filter>
			<detector id="7010019" name="PIXcel1D-Medipix3 detector" xsi:type="rtmsDetectorType">
				<phd unit="keV">
					<lowerLevel>4.02</lowerLevel>
					<upperLevel>11.27</upperLevel>
				</phd>
				<mode>Scanning</mode>
				<activeLength unit="deg">5.542</activeLength>
			</detector>
		</diffractedBeamPath>
		<scan appendNumber="0" mode="Continuous" scanAxis="Gonio" status="Completed">
			<header>
				<startTimeStamp>2025-11-27T09:32:39-08:00</startTimeStamp>
				<endTimeStamp>2025-11-27T09:40:46-08:00</endTimeStamp>
				<author>
					<name>AutomatedUser</name>
				</author>
				<source>
					<applicationSoftware version="1.7b (136)">PANalytical Aeris Instrument Suite</applicationSoftware>
					<instrumentControlSoftware version="3.2.00000000 20240306">AERIS</instrumentControlSoftware>
					<instrumentID>950485</instrumentID>
				</source>
			</header>
			<dataPoints>
				<positions axis="2Theta" unit="deg">
					<startPosition>10.00943322</startPosition>
					<endPosition>99.99442286</endPosition>
				</positions>
				<positions axis="Omega" unit="deg">
					<startPosition>5.00471661</startPosition>
					<endPosition>49.99721143</endPosition>
				</positions>
				<commonCountingTime unit="seconds">12.495</commonCountingTime>
				<counts unit="counts">2893 2969 2990 2863 2944 2898 2944 2889 2910 3040 2929 2962 2819 2968 2878 2965 2918 2924 2900 2979 2923 2931 2941 2913 2843 3036 2815 2887 3024 2885 2826 2936 2794 2934 2942 2932 2917 2997 2926 2881 2893 2992 2974 2943 2953 2890 2988 3006 2940 2982 2968 2872 2868 3047 3046 2868 2999 3013 3006 2930 2913 2959 2944 2980 2834 3036 2938 2949 3007 2983 2874 3032 2991 2998 2869 3015 3005 2979 2881 2948 3056 2988 2939 2999 2984 3020 2987 2991 3048 2922 2997 2952 2919 3003 2971 2998 2972 2908 3086 2951 3023 3032 2978 3085 3135 2993 2944 2957 3046 3119 3107 3030 3133 3032 2989 2914 2959 3032 3027 3044 3001 3080 3083 3150 3029 3170 3052 3023 3075 3002 3194 2953 3034 3106 3012 3072 2997 3081 3069 2921 3169 3049 3164 3027 2969 3143 3006 3055 3012 3046 3128 3030 3117 3052 3109 3115 2899 3079 3132 3002 3068 3089 3016 3086 3116 3109 3109 3090 3084 3047 3132 3072 3038 3035 2989 3084 3129 3022 3144 3070 3084 3064 3050 3118 3141 3062 3078 2961 3029 3036 2996 3080 3021 3012 2977 3023 3120 3016 3042 3020 3085 3041 3006 2973 3116 2924 3072 3036 3073 2989 2879 3117 3003 3061 3052 3021 3147 3059 3082 3080 3065 2932 3036 3118 3009 2913 3010 2990 2991 3021 3055 3177 2950 3025 3004 3066 3013 2968 2937 2990 2954 2925 3058 3071 2883 3065 2995 3052 2899 2951 3055 3061 3000 3119 2970 3123 2984 2989 3028 3004 2977 2957 3087 3013 3060 3090 3108 3082 2979 2937 2954 2952 3053 2931 3015 3108 2931 3056 3091 2942 3049 2993 2965 2876 3104 3003 3050 3137 3157 3079 3138 3076 3169 3014 3129 3250 3091 2973 3205 3122 3085 3061 3221 3048 3201 3143 3111 3179 3087 3188 3016 3163 3128 3097 3172 3228 3244 3134 3127 3111 3213 3211 3222 3227 3261 3183 3274 3211 3306 3284 3253 3210 3185 3218 3191 3168 3262 3320 3174 3309 3320 3394 3239 3173 3349 3304 3293 3385 3301 3359 3322 3253 3433 3327 3319 3331 3333 3320 3456 3446 3377 3302 3395 3453 3383 3364 3514 3522 3465 3560 3448 3452 3467 3457 3524 3586 3573 3494 3486 3448 3580 3398 3585 3678 3567 3611 3690 3578 3562 3668 3643 3686 3770 3732 3717 3787 3725 3837 3885 3775 3854 3933 4072 3997 4119 4286 4277 4404 4408 4574 4681 4773 4791 4777 4998 4927 4963 5074 4907 4903 4913 4909 4938 4861 4809 4827 4961 4891 5017 5094 5039 5177 5156 5011 5161 5173 5010 4958 4766 4794 4658 4633 4481 4313 4211 4122 4057 4074 3985 3967 3961 3938 3899 3978 3858 3825 3920 3812 3810 3824 3834 3931 3737 3754 3820 3641 3764 3766 3773 3726 3830 3785 3907 3928 3994 3883 3827 3781 3820 3753 3791 3748 3667 3798 3672 3743 3569 3488 3513 3555 3450 3563 3652 3417 3461 3543 3408 3433 3564 3335 3515 3527 3495 3592 3614 3621 3625 3588 3481 3572 3605 3603 3601 3553 3645 3634 3617 3650 3729 3567 3615 3560 3589 3699 3584 3659 3699 3660 3551 3604 3656 3551 3491 3636 3418 3438 3549 3447 3575 3507 3582 3438 3406 3387 3415 3345 3376 3291 3377 3371 3356 3355 3306 3278 3237 3311 3281 3318 3217 3251 3100 3175 3237 3271 3365 3232 3337 3364 3343 3283 3341 3380 3303 3477 3472 3491 3470 3522 3504 3609 3520 3489 3484 3556 3530 3453 3445 3515 3466 3458 3520 3331 3402 3364 3400 3365 3396 3401 3302 3445 3371 3366 3355 3320 3459 3207 3158 3195 3147 3125 3121 3061 3059 2994 2993 3021 3127 2959 3064 2968 3019 2968 3008 3090 3046 2949 3053 3046 2980 3027 3050 3016 2970 2999 2898 3057 2964 2992 2930 3035 3108 3092 2936 3013 2992 3048 2960 3093 2966 2984 3124 3100 3111 2976 3130 3062 3077 3101 3143 3091 3311 3167 3212 3306 3268 3121 3164 3121 3220 3077 3192 3067 3059 3058 2992 3143 3088 3028 3174 3120 3082 3054 3060 3001 2983 3097 3018 2976 2999 3027 2925 2885 2968 2900 2947 2888 2877 2856 2986 2837 2896 2940 2968 2835 2825 2868 2818 2942 2787 2777 2879 2909 2845 2843 2879 2941 2906 2887 2846 2876 2957 2980 2931 2884 2973 2867 2885 2908 2818 2911 2930 2908 2870 2797 2762 2831 2876 2758 2926 2834 2818 2786 2964 3000 2916 2877 2864 2860 2939 2930 2895 2949 2840 2963 3025 2973 2926 2970 2998 3002 3147 2974 3166 3117 3030 3050 3153 3221 3227 3096 3095 3085 3131 3167 3094 3075 3119 3082 3071 3086 3028 3044 3122 3019 3074 2967 3059 2997 2895 3019 2873 2916 2867 2898 2883 2983 2749 2810 2846 2857 2801 2761 2789 2775 2839 2814 2743 2720 2810 2679 2786 2628 2825 2751 2756 2862 2845 2794 2866 2719 2802 2752 2794 2680 2815 2679 2687 2705 2703 2735 2712 2711 2827 2710 2643 2618 2671 2751 2662 2678 2732 2711 2725 2770 2704 2775 2752 2682 2673 2693 2737 2709 2754 2582 2740 2567 2689 2695 2701 2668 2640 2711 2566 2619 2679 2610 2623 2649 2741 2759 2807 2667 2641 2743 2489 2613 2598 2631 2552 2597 2633 2614 2601 2558 2691 2570 2673 2646 2700 2685 2654 2534 2547 2536 2637 2629 2596 2586 2665 2579 2620 2597 2611 2696 2583 2755 2703 2572 2574 2591 2521 2573 2588 2606 2576 2673 2597 2470 2490 2577 2516 2514 2579 2577 2520 2540 2629 2612 2564 2621 2632 2608 2577 2586 2601 2552 2460 2611 2594 2526 2627 2566 2569 2574 2634 2618 2579 2553 2655 2508 2507 2550 2522 2544 2595 2565 2470 2570 2549 2455 2554 2495 2542 2481 2518 2511 2531 2434 2549 2542 2557 2541 2545 2599 2514 2520 2443 2373 2543 2516 2475 2526 2560 2484 2455 2517 2561 2482 2537 2387 2541 2583 2513 2483 2437 2517 2463 2546 2521 2535 2569 2455 2511 2357 2451 2465 2506 2580 2493 2557 2553 2429 2493 2456 2569 2470 2497 2587 2461 2593 2627 2498 2562 2553 2522 2519 2434 2580 2508 2483 2596 2548 2537 2566 2622 2633 2573 2674 2630 2616 2589 2616 2635 2733 2819 2750 2803 2812 2643 2756 2711 2847 2752 2793 2856 2823 2647 2752 2726 2803 2698 2819 2591 2633 2679 2706 2698 2771 2719 2684 2774 2697 2611 2569 2732 2683 2657 2601 2585 2592 2605 2542 2487 2586 2546 2566 2544 2519 2566 2605 2596 2481 2573 2458 2448 2531 2585 2619 2504 2450 2528 2420 2420 2468 2473 2470 2468 2546 2532 2504 2580 2470 2445 2480 2541 2558 2389 2445 2466 2369 2508 2480 2461 2327 2389 2429 2510 2347 2407 2503 2464 2378 2458 2423 2421 2451 2472 2402 2416 2430 2327 2382 2361 2282 2248 2330 2359 2316 2307 2269 2330 2356 2376 2389 2292 2314 2330 2395 2287 2375 2379 2267 2329 2417 2266 2323 2306 2301 2351 2228 2342 2357 2206 2239 2261 2272 2163 2322 2201 2155 2345 2195 2266 2130 2246 2211 2278 2224 2199 2225 2264 2222 2188 2212 2212 2139 2156 2175 2239 2000 2111 2076 2118 2150 2173 2050 2179 2126 2099 2141 2124 2143 2080 2198 2110 2154 2080 2059 2226 2051 2136 2122 2120 2091 2056 2075 2154 2103 2109 2165 2136 2167 2114 2201 2132 2154 2152 2145 2131 2129 2143 2162 2053 2167 2093 2103 2086 2026 2012 2102 2099 2121 2057 2029 2027 2017 2066 2056 2028 2026 1982 1852 1978 1951 1971 1959 1966 1920 1902 1916 1912 1930 2094 1965 1939 1885 1910 1881 1898 1860 1935 1908 1909 1888 1880 1831 1861 1811 1924 1901 1909 1875 1910 1873 1922 1866 1902 1878 1908 1930 1952 1814 1913 1838 1787 1885 1930 1847 1859 1846 1842 1862 1772 1737 1797 1901 1814 1788 1827 1746 1851 1864 1788 1872 1837 1872 1845 1859 1841 1818 1880 1749 1782 1771 1827 1861 1839 1876 1829 1841 1801 1831 1783 1813 1801 1844 1868 1825 1808 1914 1826 1793 1814 1791 1779 1824 1786 1940 1873 1911 1806 1784 1811 1792 1829 1798 1905 1776 1850 1824 1842 1950 1842 1806 1871 1900 1950 1909 2058 1882 1977 1926 2089 1967 1996 2002 1970 2073 2009 1941 2006 1867 1872 2015 1888 1958 2016 1905 1904 1985 1941 1947 1868 1890 1861 1941 1875 1908 1910 1885 1785 1866 1872 1804 1874 1826 1856 1881 1755 1876 1880 1797 1856 1762 1870 1828 1861 1839 1805 1824 1839 1815 1867 1881 1848 1858 1788 1798 1838 1882 1758 1880 1820 1853 1836 1914 1811 1813 1823 1836 1810 1860 1861 1896 1779 1830 1826 1807 1869 1772 1748 1882 1802 1805 1809 1787 1829 1812 1931 1759 1836 1807 1852 1773 1803 1788 1832 1855 1823 1817 1799 1891 1882 1869 1760 1829 1851 1846 1811 1876 1835 1837 1843 1860 1753 1789 1773 1828 1796 1840 1765 1793 1800 1837 1820 1812 1724 1769 1916 1770 1807 1787 1715 1819 1824 1725 1799 1848 1759 1792 1770 1695 1776 1725 1764 1840 1759 1827 1747 1763 1770 1776 1690 1760 1700 1764 1818 1632 1776 1756 1744 1733 1725 1683 1739 1677 1690 1635 1706 1660 1642 1777 1658 1714 1738 1790 1661 1722 1649 1670 1680 1625 1644 1581 1706 1638 1583 1646 1586 1658 1626 1646 1660 1618 1669 1565 1616 1630 1609 1580 1666 1673 1619 1573 1570 1555 1611 1646 1641 1604 1542 1636 1685 1595 1582 1592 1593 1495 1580 1692 1572 1620 1629 1592 1684 1554 1567 1579 1594 1578 1592 1634 1691 1606 1644 1710 1635 1721 1670 1750 1740 1779 1809 1788 1791 1741 1879 1805 1836 1841 1812 1888 1835 1782 1786 1836 1845 1782 1739 1776 1779 1776 1801 1700 1750 1849 1784 1771 1747 1727 1761 1676 1814 1727 1747 1761 1728 1704 1732 1705 1747 1728 1940 1827 1827 1951 1924 1915 1864 1968 1959 1912 1955 1898 1896 1863 1832 1874 1828 1816 1780 1878 1876 1867 1856 1894 1901 1875 1791 1811 1811 1868 1758 1797 1721 1759 1750 1695 1709 1620 1698 1631 1562 1584 1644 1509 1548 1569 1534 1507 1584 1523 1472 1449 1524 1410 1448 1481 1468 1500 1452 1420 1431 1459 1439 1367 1471 1429 1479 1539 1408 1499 1477 1455 1498 1479 1629 1605 1603 1583 1674 1719 1729 1743 1761 1799 1750 1760 1822 1783 1763 1892 1777 1771 1723 1687 1722 1767 1805 1724 1758 1696 1810 1825 1700 1697 1750 1768 1723 1665 1667 1798 1703 1728 1761 1848 1884 1869 1917 1965 1877 1998 1957 2031 2067 2050 2072 2105 2158 2134 2154 2164 2170 2053 2107 2151 2074 2082 2121 2031 2042 2122 2007 2076 2079 2038 2032 1932 1928 1905 1922 1803 1868 1782 1781 1740 1652 1611 1595 1581 1544 1506 1515 1423 1385 1362 1373 1362 1397 1395 1327 1352 1318 1312 1279 1303 1358 1270 1266 1317 1267 1311 1243 1298 1242 1292 1238 1201 1249 1203 1187 1200 1180 1254 1222 1148 1239 1290 1197 1161 1179 1185 1194 1200 1237 1188 1184 1252 1192 1146 1231 1181 1182 1187 1242 1199 1151 1138 1174 1085 1177 1148 1240 1187 1226 1217 1168 1216 1161 1124 1166 1193 1112 1222 1132 1113 1172 1135 1171 1178 1217 1125 1127 1156 1120 1211 1139 1135 1152 1161 1097 1051 1122 1144 1172 1089 1180 1108 1183 1190 1148 1152 1130 1176 1131 1190 1068 1110 1164 1079 1131 1121 1142 1191 1126 1150 1188 1187 1213 1177 1158 1181 1142 1163 1256 1203 1243 1259 1331 1310 1355 1332 1448 1459 1490 1560 1649 1671 1604 1696 1671 1704 1721 1721 1676 1684 1632 1511 1623 1513 1458 1456 1512 1508 1497 1523 1470 1508 1473 1548 1464 1460 1511 1326 1405 1334 1300 1308 1281 1244 1226 1226 1219 1155 1183 1214 1200 1201 1101 1197 1182 1192 1075 1227 1124 1202 1207 1194 1220 1200 1228 1258 1200 1184 1250 1139 1318 1237 1299 1286 1251 1196 1296 1197 1185 1151 1188 1159 1181 1097 1152 1152 1245 1120 1171 1206 1177 1105 1160 1229 1078 1133 1088 1117 1078 1108 1094 1090 1068 1067 1117 1078 1076 1115 1084 1117 1045 1055 1061 1068 1090 1044 1055 1080 1065 1038 1055 1090 1079 1107 1160 1066 1073 1059 1148 1101 1122 1099 1029 1063 976 1063 1074 1101 1071 1049 1068 1030 1038 1032 1062 993 1080 1027 1082 1032 1031 1057 981 1057 1038 1051 1017 1052 1042 1067 1113 1083 1027 1166 1070 1055 1110 1070 1140 1127 1146 1114 1105 1060 1087 1180 1120 1110 1167 1117 1167 1144 1178 1136 1099 1203 1142 1159 1128 1122 1172 1139 1176 1117 1092 1219 1135 1178 1130 1170 1155 1244 1186 1204 1164 1267 1242 1292 1235 1284 1345 1377 1358 1415 1395 1467 1470 1528 1503 1599 1684 1756 1739 1831 1942 2039 1977 2143 2313 2291 2377 2516 2514 2600 2676 2707 2701 2696 2748 2774 2766 2691 2689 2657 2627 2697 2633 2649 2718 2479 2528 2506 2470 2381 2433 2358 2321 2405 2285 2407 2426 2516 2408 2522 2659 2744 2775 2781 2856 2943 2909 3019 3089 3026 3117 3251 3084 3225 3060 3166 3199 3108 3123 3114 2944 2988 3001 2900 2895 2827 2852 2828 2722 2670 2573 2629 2408 2543 2361 2338 2270 2250 2240 2109 2177 1965 2028 1900 1829 1801 1790 1723 1620 1638 1575 1522 1516 1467 1446 1400 1404 1372 1369 1282 1254 1228 1256 1238 1261 1220 1207 1161 1102 1232 1094 1158 1074 1126 1116 1160 1133 1080 1077 1076 1049 1121 1123 1147 1101 1141 1039 1065 1071 1080 1066 1064 1048 1057 1054 1151 1045 1079 1050 1065 1097 1086 1068 1070 1096 1051 1018 1150 1045 1051 1039 1036 1047 955 1092 1018 1031 1005 1033 1053 1077 1074 1054 1111 1021 991 1023 1067 1007 1068 1030 1113 1070 998 1034 1016 1024 1038 1039 978 1021 1032 975 1032 997 985 965 1001 1009 986 1012 997 1030 969 986 951 940 964 994 930 964 984 972 996 969 941 943 997 985 975 998 956 941 909 940 964 931 949 932 921 977 964 957 950 956 917 896 906 979 925 957 1005 973 903 961 893 887 917 914 930 896 962 918 903 880 984 932 964 1002 963 1001 957 960 956 891 924 967 900 951 1005 1013 980 943 901 994 987 981 1016 1022 978 932 969 977 1009 985 976 955 1051 931 998 949 940 967 941 962 998 925 973 991 967 989 1021 975 927 926 921 987 904 1007 948 886 967 964 995 1004 1012 931 1004 996 977 967 950 929 1028 989 927 1002 972 927 947 967 938 947 926 998 982 973 954 992 935 988 967 993 936 965 992 1011 972 1051 1013 988 1009 1010 937 1018 943 998 922 936 968 1008 1015 976 1037 1000 1026 972 957 946 924 936 954 904 926 964 914 923 977 900 921 894 941 922 973 888 904 993 843 932 917 881 909 912 913 914 895 901 936 939 905 936 923 911 932 823 940 864 898 900 912 978 863 895 917 848 898 896 907 937 942 889 948 892 876 930 933 921 902 888 962 883 896 952 847 926 885 880 894 914 894 878 900 815 864 810 881 886 848 795 845 937 897 848 878 817 905 833 905 869 842 875 813 771 891 809 839 840 878 827 882 828 872 843 813 800 823 831 834 846 835 859 822 847 837 840 841 829 815 859 815 861 831 876 811 841 800 862 898 869 892 849 820 853 865 819 827 813 772 812 880 820 831 807 844 818 815 844 795 804 811 784 782 849 861 819 885 820 847 849 836 835 834 815 778 835 857 812 796 809 823 797 821 757 829 811 834 782 829 827 777 857 804 832 838 795 845 830 780 853 835 816 869 842 826 777 822 803 839 859 853 888 799 776 832 782 805 778 819 839 787 825 791 788 827 833 864 744 787 851 816 847 801 766 793 822 781 848 786 835 852 828 816 811 838 833 857 866 800 856 857 834 825 848 855 837 823 824 813 769 821 820 876 826 843 861 870 786 828 884 820 831 825 820 822 873 847 918 829 876 832 834 817 825 852 890 845 858 828 845 830 819 849 842 834 781 845 863 890 886 827 810 874 897 887 902 851 962 908 906 936 1013 938 1025 1073 1077 1102 1031 1035 1098 1025 1056 1014 1058 1032 1002 1029 999 1022 1015 1000 966 977 973 978 967 937 893 970 935 884 898 917 901 875 939 866 867 844 828 884 840 840 791 821 802 800 809 818 804 760 816 828 887 838 790 748 780 729 763 758 769 829 725 764 794 765 746 785 774 734 751 758 780 801 804 814 815 759 806 785 798 771 724 806 791 804 784 837 743 815 747 796 796 734 747 789 772 751 777 808 789 768 785 795 772 841 785 765 822 785 752 796 714 794 813 766 818 780 773 780 745 768 792 751 800 816 832 761 809 772 802 807 816 827 818 803 808 849 784 845 809 853 756 848 832 850 820 816 783 848 845 862 776 811 815 868 888 877 858 857 826 836 862 923 940 907 863 885 821 901 922 908 945 904 914 913 893 906 852 930 855 924 849 898 869 886 950 875 857 851 907 858 817 900 806 817 848 833 790 811 812 815 798 775 821 756 810 805 797 752 812 823 778 807 799 779 808 836 793 821 795 768 732 800 767 818 802 831 828 783 795 829 875 811 806 830 841 849 846 799 834 882 831 789 830 791 872 858 862 883 824 850 878 865 802 870 883 814 909 839 852 762 829 832 853 835 860 824 815 835 872 849 843 843 752 855 832 832 798 822 782 825 823 797 777 796 822 714 791 828 801 762 777 749 780 796 803 764 787 809 821 818 792 771 791 748 761 752 756 776 759 801 813 825 798 785 758 742 738 788 780 754 803 803 735 791 847 841 768 846 844 796 804 805 813 814 794 824 889 830 833 835 857 838 913 877 808 851 876 919 904 847 861 893 860 857 841 944 868 913 908 919 931 884 935 943 992 937 947 982 963 958 915 1037 982 971 1046 986 1047 973 1011 1013 961 992 1022 990 978 999 1029 908 956 981 1032 974 973 1003 933 934 913 979 923 901 945 830 906 861 841 878 886 810 886 841 848 815 817 869 811 851 792 834 812 794 821 781 783 728 765 837 804 811 814 815 755 730 720 759 758 714 740 745 767 751 806 783 757 743 759 812 782 806 773 744 769 756 770 751 773 778 726 756 718 726 784 741 813 808 775 780 817 790 768 739 802 744 739 730 738 745 780 701 754 768 763 673 730 773 777 675 698 721 719 740 740 777 728 788 701 733 741 756 717 703 726 687 692 761 764 703 719 689 705 699 736 783 751 756 768 744 721 688 702 711 760 738 744 724 755 674 703 767 664 806 698 701 752 694 736 711 782 766 722 797 717 725 711 738 734 750 713 735 716 726 706 777 734 743 753 744 735 752 735 736 752 750 797 764 722 755 754 756 767 799 738 797 703 803 757 730 769 750 780 802 779 733 750 780 780 726 747 761 726 742 730 746 791 707 734 824 747 755 815 789 745 763 738 716 781 791 757 754 749 727 771 690 754 758 750 745 764 796 729 792 725 763 743 785 778 679 769 759 819 780 825 766 812 780 739 767 758 784 779 751 782 705 773 768 766 773 806 736 718 749 766 790 789 767 790 740 762 786 778 771 779 823 778 811 835 814 822 914 868 831 840 929 937 933 1001 1022 1036 1029 1076 1099 1075 1093 1100 1125 1106 1147 1141 1194 1133 1176 1213 1193 1209 1129 1131 1154 1126 1119 1112 1134 1082 1165 1125 1067 1078 1122 999 1058 1030 1061 1041 971 1032 1080 1071 1049 1043 1020 1048 1057 1160 1128 1204 1211 1252 1328 1318 1350 1372 1345 1359 1358 1442 1439 1400 1372 1312 1321 1392 1310 1440 1443 1340 1381 1414 1450 1459 1379 1487 1413 1384 1557 1572 1564 1620 1644 1703 1582 1672 1653 1633 1705 1671 1727 1774 1937 1931 1873 1859 1937 1931 1816 1915 1873 1897 1817 1758 1835 1885 1869 1743 1744 1790 1695 1676 1649 1681 1584 1487 1485 1497 1425 1429 1343 1360 1269 1226 1222 1249 1184 1161 1137 1193 1063 1084 1088 1115 1026 1059 987 939 965 952 933 956 967 850 914 834 873 802 898 851 838 846 780 864 809 821 781 822 841 737 804 776 782 782 748 746 713 762 738 718 750 757 752 694 745 691 760 783 774 741 694 773 762 774 818 754 702 762 765 726 755 694 717 709 741 751 757 759 758 753 724 690 726 743 703 684 711 703 754 688 693 710 677 740 716 751 692 745 759 754 708 746 712 754 711 744 706 726 686 755 731 729 722 778 714 747 713 765 746 662 766 768 723 732 783 773 717 773 759 733 771 741 732 767 707 721 751 713 732 760 692 734 715 733 656 704 674 732 690 698 673 721 657 732 720 678 682 756 641 712 735 691 745 638 654 646 671 648 693 656 701 669 676 670 657 699 706 693 723 697 712 742 786 769 713 732 769 682 737 741 801 810 798 793 820 766 785 764 822 784 797 782 773 832 783 830 804 791 860 791 795 775 815 806 829 775 862 767 749 844 789 763 784 784 782 784 750 780 761 709 737 774 794 712 762 735 693 741 704 723 737 732 732 752 755 743 739 718 723 690 707 705 722 745 656 699 685 705 694 651 712 687 696 687 727 701 674 627 713 650 720 676 681 744 699 692 703 745 686 699 671 701 652 696 642 672 693 636 653 659 639 679 638 664 686 673 675 620 672 684 639 675 687 675 690 652 655 711 658 699 655 705 678 662 654 685 665 685 600 678 645 685 685 665 661 651 625 655 668 657 678 679 688 655 640 631 674 630 712 646 593 602 637 721 679 638 636 616 643 638 659 613 697 600 629 618 615 621 603 663 627 652 680 623 627 636 622 597 638 597 586 623 605 637 675 613 618 635 660 625 710 657 721 696 664 683 710 646 630 670 724 705 658 684 677 620 615 645 713 653 640 716 701 639 694 654 619 618 661 664 636 590 632 605 632 604 575 606 627 626 657 625 611 603 608 635 568 616 674 631 614 649 605 606 651 588 658 614 655 572 655 639 630 605 600 645 588 591 553 612 555 583 619 624 624 615 623 649 588 583 596 641 586 592 546 619 648 596 625 582 623 606 615 658 591 649 587 667 620 629 551 633 610 599 638 619 670 603 610 618 626 598 601 626 604 642 570 602 592 634 652 562 604 615 612 593 610 637 586 617 586 608 616 624 642 618 581 597 606 658 637 607 601 611 634 583 609 575 585 619 595 592 592 596 590 589 590 624 573 586 584 602 588 593 590 606 601 636 595 618 611 584 597 621 607 605 627 649 591 621 578 627 629 628 559 611 600 650 609 654 620 575 610 601 637 618 590 600 563 633 601 660 630 609 607 616 612 631 590 608 609 632 635 584 610 632 666 611 630 617 623 611 648 589 626 600 621 624 619 596 595 567 575 599 608 585 588 623 586 587 633 602 613 547 590 576 571 586 619 616 590 638 604 616 644 564 606 593 587 586 570 586 572 596 585 595 585 607 565 568 633 612 595 592 584 593 607 615 602 562 598 590 604 588 617 597 624 619 590 619 611 565 596 623 631 603 649 554 599 581 568 572 596 601 627 622 605 595 589 590 613 573 606 622 611 562 599 602 606 562 609 624 648 613 664 582 573 620 625 571 602 596 635 611 631 593 585 585 567 594 577 566 580 639 638 638 591 614 605 608 600 626 595 631 629 606 594 624 654 660 650 616 654 624 623 638 590 650 616 646 594 624 628 581 663 638 652 643 618 653 643 614 634 619 643 619 628 656 611 622 600 619 591 596 623 625 602 641 598 609 635 597 658 645 628 631 649 624 641 602 638 613 627 642 619 606 601 587 575 580 612 608 616 646 623 620 628 615 629 598 626 653 611 641 669 684 622 648 643 673 662 633 676 646 629 613 648 654 622 639 651 643 637 617 632 602 648 649 643 649 621 621 618 611 641 681 602 574 648 640 615 607 594 583 632 642 601 673 615 682 619 635 616 610 592 576 577 590 629 590 626 597 623 640 590 608 614 603 578 585 588 631 565 668 612 628 613 586 624 645 624 608 632 663 656 648 690 579 623 609 614 630 643 634 641 610 690 625 605 646 643 688 659 618 621 622 565 587 594 633 649 613 674 578 621 607 629 631 634 640 611 636 609 590 635 637 593 544 675 583 604 578 581 599 618 611 672 624 594 591 609 585 586 570 633 537 602 605 588 628 587 609 624 606 588 620 625 582 668 632 594 685 605 658 644 642 592 614 636 705 635 647 651 686 642 667 706 653 647 698 669 671 673 674 740 697 709 712 748 719 713 749 682 730 704 703 709 681 678 603 695 723 685 688 697 642 649 618 668 622 689 653 625 615 652 587 549 600 622 616 609 597 599 602 578 582 563 577 564 589 611 582 594 595 608 603 597 620 567 559 623 597 583 617 589 581 612 621 594 624 646 637 639 663 678 651 670 691 727 660 720 701 735 749 778 732 731 734 699 745 755 773 781 795 755 822 789 811 798 841 811 812 845 861 866 862 881 825 880 917 813 829 822 812 823 766 760 827 775 794 788 783 761 796 754 769 739 745 742 697 710 760 694 671 696 661 662 692 649 661 688 679 652 656 637 622 621 627 648 646 558 613 611 633 574 588 580 573 614 580 565 623 622 564 550 549 591 544 568 513 603 574 590 552 582 578 565 568 561 534 579 537 603 548 569 570 576 590 531 514 556 589 583 530 578 555 551 595 580 590 567 566 562 554 569 583 550 579 550 574 531 527 585 544 569 534 575 525 548 580 552 536 586 559 517 577 539 600 563 534 572 510 559 551 510 598 550 548 570 563 582 548 593 547 561 513 500 565 556 520 605 590 590 610 566 559 570 524 548 578 602 541 571 545 548 588 585 557 579 585 624 581 551 541 613 583 606 600 637 612 613 614 621 609 581 638 599 577 615 581 643 596 604 561 619 596 630 617 605 645 623 584 573 583 586 597 640 606 639 608 585 625 604 561 552 603 580 587 556 578 595 574 543 586 574 565 555 543 508 591 568 555 567 571 520 571 558 620 547 617 543 575 568 533 562 494 567 530 552 507 550 513 524 533 512 589 561 529 526 530 553 502 540 523 531 579 522 523 521 550 545 526 521 497 505 529 511 507 527 550 534 551 518 475 532 506 527 524 492 527 504 527 464 536 559 505 502 549 475 530 517 494 574 520 524 566 554 510 514 554 527 517 517 501 500 543 541 575 503 527 507 502 534 544 552 497 509 486 484 492 535 520 519 493 518 513 531 518 481 551 520 576 513 493 553 524 528 526 537 553 514 543 507 520 510 522 507 506 549 526 496 541 493 535 572 535 500 505 525 491 509 538 561 542 535 511 518 567 524 503 557 556 553 529 523 485 529 542 554 537 556 575 493 570 531 581 519 586 579 508 520 532 571 543 519 532 562 518 540 537 529 509 513 520 495 549 530 594 528 499 530 542 612 498 543 498 541 524 484 511 552 560 500 514 483 495 504 490 514 504 499 489 513 540 542 509 504 536 526 513 514 491 512 499 481 529 526 480 521 504 528 519 557 534 518 492 513 491 529 498 521 553 503 505 492 566 515 508 488 536 532 555 515 576 556 497 499 506 520 502 492 486 565 473 456 513 481 528 456 504 531 506 508 509 529 516 488 502 503 493 530 525 533 488 561 516 489 551 499 510 511 530 535 543 515 518 493 521 499 538 536 515 550 538 536 483 487 536 491 510 496 529 515 508 543 503 519 527 498 561 527 537 514 519 535 499 548 507 516 504 546 524 509 475 525 540 500 523 525 528 504 516 513 530 501 494 482 502 516 512 515 543 533 508 521 510 523 532 525 520 539 529 493 516 535 543 545 571 574 536 537 574 537 543 541 534 562 575 564 585 544 534 575 587 508 530 537 541 508 572 512 531 508 514 561 544 527 555 564 521 553 513 523 521 541 541 555 487 469 522 524 510 508 509 533 569 495 507 508 530 478 512 524 526 494 501 506 550 456 478 497 472 489 520 523 497 559 480 499 492 485 511 503 499 514 520 461 489 532 486 487 538 540 482 553 463 534 541 564 555 529 550 526 542 546 554 523 547 527 519 530 535 524 502 548 518 487 498 534 529 485 513 561 499 495 553 546 505 523 523 553 502 546 553 559 529 523 503 526 576 501 531 506 470 517 478 504 563 501 522 485 497 517 497 487 561 535 504 503 496 577 496 475 558 532 560 530 533 490 480 482 489 530 477 502 498 503 490 503 519 484 504 497 526 497 531 527 518 494 483 504 499 465 514 475 540 522 514 504 501 519 523 532 517 496 453 478 484 512 470 489 495 508 525 504 502 478 474 496 473 509 545 502 484 459 498 466 489 485 539 473 495 475 488 499 513 498 466 507 492 486 492 499 514 475 495 522 528 452 506 525 503 520 523 571 527 528 534 477 469 464 502 474 541 478 484 485 512 495 481 470 482 475 468 524 504 448 494 481 525 500 507 489 509 524 519 513 500 449 553 521 498 561 530 510 531 523 487 541 552 516 525 490 519 548 546 572 553 516 490 533 538 564 539 530 561 496 497 556 510 487 560 513 562 525 533 512 509 542 494 533 508 557 541 544 522 582 529 523 534 526 533 571 529 538 546 515 520 462 481 515 529 492 513 520 507 492 533 499 497 497 481 519 511 530 528 515 573 518 501 515 530 471 542 528 518 531 477 545 491 530 538 517 523 531 573 496 537 543 561 575 503 562 514 554 564 534 548 577 536 561 540 596 511 573 527 592 518 553 559 556 547 542 571 564 517 506 523 552 528 557 504 570 491 572 561 546 538 533 548 559 562 536 484 537 529 530 534 558 515 518 534 531 522 514 538 484 467 503 532 468 465 504 549 502 493 511 511 515 501 480 497 538 538 504 492 503 477 476 518 466 554 501 506 463 487 492 488 471 524 515 498 481 514 503 516 500 490 541 524 523 520 494 486 490 527 490 501 533 523 528 484 470 483 557 538 507 494 522 501 525 492 478 469 512 496 504 517 492 503 516 507 471 496 502 471 465 497 463 489 452 498 474 482 470 524 506 484 546 465 476 505 530 493 467 491 481 467 516 506 478 531 523 473 526 462 473 465 476 480 472 537 472 445 450 446 519 457 511 499 484 466 502 490 520 513 465 477 499 537 511 513 478 451 574 469 495 518 474 494 481 475 527 473 458 525 493 484 465 469 509 505 463 478 473 450 486 486 437 498 481 518 482 486 482 450 488 509 474 445 480 478 494 493 488 491 485 478 465 476 519 499 445 494 484 518 448 514 470 501 515 498 499 461 465 479 459 474 480 481 485 510 485 493 461 468 513 511 474 482 463 499 465 486 441 483 473 527 494 531 513 517 477 503 525 465 486 494 486 559 499 495 471 527 496 494 495 482 483 507 491 505 502 475 494 456 504 490 502 483 493 514 480 499 494 494 543 506 467 468 503 511 501 525 473 527 452 478 482 486 490 446 476 485 479 477 489 509 491 481 507 493 472 451 519 443 528 488 489 467 485 486 488 479 481 471 540 532 479 446 506 495 485 489 492 486 511 502 496 474 506 453 471 478 466 463 497 518 497 469 529 461 488 509 462 507 459 459 487 473 455 510 505 475 472 474 517 482 465 505 433 499 509 471 450 498 453 482 467 488 493 475 504 490 491 471 523 530 499 478 484 453 452 486 511 497 496 457 507 553 494 509 483 507 439 490 474 486 464 458 489 464 526 471 502 491 473 470 499 464 467 516 496 470 479 481 478 466 516 469 474 502 505 537 496 524 492 490 487 463 468 484 486 453 442 487 516 486 514 483 482 456 500 511 485 459 468 459 448 476 548 473 482 502 511 527 457 532 503 463 489 503 446 462 498 513 512 453 503 485 492 478 462 474 484 485 492 481 508 483 495 462 524 489 488 487 474 458 483 513 491 495 530 489 487 495 496 495 505 496 468 482 467 494 457 541 489 497 530 464 487 506 462 450 493 475 512 483 521 538 511 514 491 532 465 525 452 473 495 513 503 531 484 490 509 471 482 479 464 508 481 470 459 494 479 513 447 492 491 510 446 497 504 500 499 478 507 461 489 491 487 476 487 498 526 481 508 505 520 508 464 534 471 480 485 470 464 502 473 448 510 559 492 491 529 467 539 518 483 506 483 472 468 486 488 506 450 506 475 523 525 519 474 505 513 524 498 475 505 482 509 469 492 517 526 514 497 519 497 510 511 488 513 493 513 514 533 498 561 509 518 527 539 523 537 482 495 468 515 486 467 500 543 500 540 508 548 517 513 530 547 497 517 505 498 545 478 485 526 513 475 465 477 493 482 565 527 515 504 507 532 521 543 530 500 539 492 523 513 539 496 500 553 554 523 486 484 521 523 507 512 501 506 511 537 529 499 521 515 546 513 477 548 524 508 526 512 498 531 525 516 554 524 516 533 546 513 542 508 576 521 525 566 510 464 570 505 554 520 553 529 527 533 504 530 527 521 517 505 510 514 536 506 506 540 563 526 524 491 539 574 537 565 514 505 543 539 548 577 516 559 557 520 552 552 534 547 505 548 533 532 568 546 552 553 532 567 578 526 550 558 529 530 555 585 549 563 589 558 564 568 539 514 554 540 500 596 581 563 549 485 525 509 583 535 549 520 464 510 567 548 514 499 545 516 537 558 540 510 505 552 575 538 541 556 519 542 509 560 524 561 528 525 590 548 539 548 583 540 543 575 521 559 563 536 529 571 583 568 563 527 555 533 553 564 534 598 504 559 552 515 595 520 544 620 587 519 582 533 543 553 541 514 534 517 589 554 539 547 550 539 534 535 527 552 560 568 546 559 524 570 552 580 569 592 600 638 607 625 620 645 599 576 645 642 545 639 605 624 614 600 649 650 597 598 646 630 633 647 671 652 608 626 647 633 580 621 629 594 606 608 619 570 620 577 624 582 614 588 641 590 580 627 622 655 609 593 621 588 579 574 573 585 602 581 580 541 594 558 567 562 607 536 554 571 578 545 603 521 552 582 546 546 498 530 554 552 556 564 525 544 548 510 570 505 521 510 529 514 537 493 541 534 555 535 547 539 507 544 510 461 541 523 522 520 469 521 525 517 508 531 501 480 485 510 457 511 477 482 528 483 537 509 525 534 497 491 497 446 461 488 501 477 476 525 492 516 460 525 465 506 475 501 479 411 485 479 508 519 479 486 473 509 480 525 480 456 486 479 480 482 490 482 497 497 530 474 518 501 516 469 518 513 535 531 530 465 491 494 500 504 446 502 523 529 491 524 487 527 523 479 494 502 464 484 481 490 521 459 498 516 486 554 482 488 463 494 513 493 514 486 464 488 487 550 491 479 476 511 518 531 448 509 465 510 475 470 502 479 503 526 486 461 508 494 462 479 460 462 503 478 460 416 476 507 490 478 441 464 489 519 487 453 477 481 489 461 522 478 476 501 499 485 464 462 485 490 486 483 484 488 488 493 488 506 499 476 475 463 499 512 463 484 453 523 490 493 460 469 446 443 455 467 449 489 460 500 484 481 454 462 476 474 474 479 516 492 447 462 520 459 459 463 496 445 452 422 426 474 495 484 457 506 468 449 487 471 505 447 467 496 492 502 474 515 479 453 455 500 501 487 507 459 546 481 517 490 494 471 508 453 469 515 501 463 480 455 509 496 499 498 495 496 480 421 476 480 473 484 490 459 458 504 468 465 528 485 523 517 450 472 473 481 482 475 502 481 483 429 467 527 478 464 462 479 489 474 475 476 486 468 469 459 431 463 464 488 469 490 479 480 451 507 490 468 494 518 460 453 484 500 485 466 441 463 455 466 481 484 462 448 498 485 479 474 445 487 492 423 482 477 475 473 454 445 491 459 530 478 516 467 451 483 459 479 440 449 441 484 440 486 474 486 435 479 488 455 486 471 481 475 504 481 471 442 467 465 418 454 453 472 494 498 476 467 491 463 443 473 472 447 469 435 470 446 459 496 483 482 467 481 485 472 490 486 456 480 444 440 472 452 435 488 491 448 461 510 529 474 512 468 490 496 450 475 479 429 462 460 466 486 463 474 460 454 468 461 450 475 449 496 435 456 478 462 470 386 467 465 480 492 458 479 453 440 447 451 468 425 444 475 430 465 452 452 443 451 425 447 445 461 441 478 506 495 461 454 445 483 450 458 403 493 420 504 453 482 497 463 441 421 455 432 457 441 463 457 474 392 433 474 506 461 483 484 440 456 463 427 493 492 503 495 490 468 496 439 439 469 454 453 450 455 506 467 492 443 488 449 501 489 443 497 435 468 463 431 454 453 443 465 475 489 449 434 417 408 501 424 487 479 487 485 457 468 483 478 496 462 475 473 473 471 489 446 493 434 473 444 463 465 485 526 453 471 487 438 479 493 452 492 481 504 473 482 495 483 517 486 429 466 430 434 478 474 448 500 474 467 467 492 476 436 483 483 452 466 480 485 448 480 447 429 487 451 466 460 481 473 472 471 470 452 464 452 473 466 491 440 434 472 507 481 521 445 487 506 455 440 486 451 457 474 445 479 490 442 461 446 461 462 468 499 461 436 477 514 470 512 501 508 522 488 503 447 521 518 523 472 489 460 518 484 488 474 490 453 480 497 507 479 509 499 497 527 475 506 484 511 513 536 459 463 488 499 509 520 452 520 497 512 477 489 519 481 516 473 505 526 502 478 491 492 488 467 465 469 433 448 466 440 484 465 486 466 480 470 493 496 483 472 485 471 466 462 485 437 475 472 473 462 449 460 448 455 467 488 453 442 430 460 445 452 477 427 447 464 490 489 515 471 486 502 492 511 500 511 471 479 484 472 487 470 469 474 479 499 473 532 483 501 516 449 474 476 500 498 496 439 442 466 465 464 512 514 510 502 485 516 503 527 485 511 519 513 516 508 541 468 524 492 514 537 490 530 510 505 523 518 547 522 485 548 507 548 555 529 519 573 543 534 537 543 536 533 535 486 504 545 518 546 500 523 484 513 543 503 487 531 499 545 501 575 557 494 550 565 535 531 507 506 515 537 523 521 545 542 534 474 505 539 530 507 453 519 522 524 510 514 493 499 511 483 471 482 504 532 498 488 478 484 508 495 449 538 461 479 500 475 500 481 520 428 472 493 431 494 470 505 489 498 453 500 459 482 465 454 479 477 478 464 456 459 451 500 488 461 463 460 404 441 471 404 461 424 457 470 402 465 470 492 475 445 495 467 456 474 460 444 447 459 499 499 462 447 484 440 467 443 459 500 448 460 463 455 460 474 509 447 474 475 463 459 477 485 484 467 463 467 416 459 435 478 436 483 460 485 446 435 457 483 450 454 469 454 489 464 489 453 459 409 452 480 459 447 404 460 499 447 495 465 426 479 436 465 442 475 470 514 470 471 491 434 444 440 427 466 477 471 428 461 460 463 415 414 436 427 443 434 493 425 496 472 443 434 456 442 416 427 441 409 439 450 488 469 427 440 420 412 473 485 444 456 457 452 457 443 466 410 454 488 444 453 476 454 440 429 425 432 451 458 427 450 466 448 440 449 453 449 437 430 426 432 433 464 437 487 446 450 464 425 467 440 462 469 473 415 434 448 428 443 434 436 413 475 432 486 468 429 433 434 455 476 460 436 436 426 474 444 450 435 441 465 469 447 456 457 464 475 450 416 457 430 483 422 428 429 481 425 437 462 401 444 450 479 421 462 450 441 466 439 444 498 463 450 416 434 440 414 438 461 431 468 441 432 442 418 460 466 457 422 455 447 457 424 445 419 465 416 456 451 425 415 457 440 391 455 454 468 449 435 442 422 461 438 481 443 431 410 442 466 431 441 446 440 519 446 437 435 467 435 449 430 446 447 484 416 431 440 425 471 456 489 440 412 413 459 445 396 414 419 412 427 468 449 414 424 424 449 462 444 458 457 446 439 454 430 468 425 412 434 459 440 454 439 456 450 399 467 418 418 417 455 447 437 466 447 478 422 490 433 437 443 419 450 444 429 484 434 405 444 404 412 425 458 428 433 434 410 452 437 433 410 430 438 451 435 426 430 406 456 494 458 459 426 419 469 428 432 415 430 475 449 450 421 463 439 469 458 498 417 422 445 407 438 442 432 409 426 472 450 415 437 467 416 447 466 443 435 452 439 432 453 429 409 478 470 437 397 426 435 406 479 447 462 455 449 487 448 439 479 412 452 427 418 454 444 422 425 459 419 494 477 436 465 447 465 454 483 403 458 451 475 416 483 422 440 455 408 468 449 459 402 455 461 437 431 449 462 421 465 423 419 400 469 446 449 436 479 440 442 443 425 448 413 461 455 443 400 455 434 470 473 432 471 447 472 444 444 459 441 431 459 421 458 459 458 428 482 469 467 435 474 447 465 460 474 457 462 469 455 442 465 402 412 451 449 463 439 443 444 458 469 399 394 462 454 442 418 445 443 453 404 438 503 462 438 417 451 448 452 445 438 427 412 430 493 433 427 432 456 491 446 470 475 439 423 442 462 439 493 453 486 464 451 441 465 455 476 443 464 446 436 423 419 454 391 434 469 433 452 433 485 455 468 496 468 476 474 431 440 445 500 424 454 440 435</counts>
			</dataPoints>
		</scan>
	</xrdMeasurement>
</xrdMeasurements>
