<?xml version="1.0"?>
<xrdMeasurements xmlns="http://www.xrdml.com/XRDMeasurement/2.3" xmlns:xsi="http://www.w3.org/2001/XMLSchema-instance" xsi:schemaLocation="http://www.xrdml.com/XRDMeasurement/2.3 http://www.xrdml.com/XRDMeasurement/2.3/XRDMeasurement.xsd" status="Completed" recordIdentifier="{E9BB4B12-55FF-41A5-906F-3F780159061F}">
	<comment>
		<entry/>
	</comment>
	<sample type="To be analyzed">
		<id>GPSS_Li1p8Fe0p9Mn0p2Cl4_110625_690d9f07f040177efa2b78f2</id>
		<name></name>
		<preparedBy></preparedBy>
	</sample>
	<xrdMeasurement measurementType="Scan" status="Completed" sampleMode="Reflection">
		<usedWavelength intended="K-Alpha 1">
			<kAlpha1 unit="Angstrom">1.5405980</kAlpha1>
			<kAlpha2 unit="Angstrom">1.5444260</kAlpha2>
			<kBeta unit="Angstrom">1.3922500</kBeta>
			<ratioKAlpha2KAlpha1>0.5000</ratioKAlpha2KAlpha1>
		</usedWavelength>
		<incidentBeamPath>
			<radius unit="mm">145.00</radius>
			<xRayTube id="1010048" name="Empyrean Cu LFF HR (9430 033 7310x)">
				<tension unit="kV">40.0</tension>
				<current unit="mA">15.0</current>
				<anodeMaterial>Cu</anodeMaterial>
				<focus type="Line">
					<length unit="mm">12.0</length>
					<width unit="mm">0.4</width>
					<takeOffAngle unit="deg">6.0</takeOffAngle>
				</focus>
			</xRayTube>
			<sollerSlit id="21010002" name="Soller slits 0.04 rad.">
				<opening unit="rad">0.0400</opening>
			</sollerSlit>
			<mask id="22031000" name="Fixed mask 13 mm">
				<width unit="mm">9.00</width>
			</mask>
			<divergenceSlit id="22120001" name="Divergence slit 1°" xsi:type="fixedDivergenceSlitType">
				<distanceToSample unit="mm">50.00</distanceToSample>
				<height unit="mm">1.52</height>
			</divergenceSlit>
		</incidentBeamPath>
		<sampleMovement xsi:type="spinningSampleMovementType">
			<spinnerRevolutionTime unit="seconds">1.0</spinnerRevolutionTime>
		</sampleMovement>
		<diffractedBeamPath>
			<radius unit="mm">145.00</radius>
			<antiScatterSlit id="22090040" name="AS slit 9 mm (PIXcel)" xsi:type="fixedAntiScatterSlitType">
				<height unit="mm">9.00</height>
			</antiScatterSlit>
			<sollerSlit id="21020003" name="Large Soller slits 0.04 rad.">
				<opening unit="rad">0.0400</opening>
			</sollerSlit>
			<filter id="20030001" name="Large beta-filter Nickel">
				<material>Ni</material>
				<thickness unit="mm">0.020</thickness>
			</filter>
			<detector id="7010019" name="PIXcel1D-Medipix3 detector" xsi:type="rtmsDetectorType">
				<phd unit="keV">
					<lowerLevel>4.02</lowerLevel>
					<upperLevel>11.27</upperLevel>
				</phd>
				<mode>Scanning</mode>
				<activeLength unit="deg">5.542</activeLength>
			</detector>
		</diffractedBeamPath>
		<scan appendNumber="0" mode="Continuous" scanAxis="Gonio" status="Completed">
			<header>
				<startTimeStamp>2025-11-11T13:32:30-08:00</startTimeStamp>
				<endTimeStamp>2025-11-11T13:40:37-08:00</endTimeStamp>
				<author>
					<name>AutomatedUser</name>
				</author>
				<source>
					<applicationSoftware version="1.7b (136)">PANalytical Aeris Instrument Suite</applicationSoftware>
					<instrumentControlSoftware version="3.2.00000000 20240306">AERIS</instrumentControlSoftware>
					<instrumentID>950485</instrumentID>
				</source>
			</header>
			<dataPoints>
				<positions axis="2Theta" unit="deg">
					<startPosition>10.00943322</startPosition>
					<endPosition>99.99442286</endPosition>
				</positions>
				<positions axis="Omega" unit="deg">
					<startPosition>5.00471661</startPosition>
					<endPosition>49.99721143</endPosition>
				</positions>
				<commonCountingTime unit="seconds">12.495</commonCountingTime>
				<counts unit="counts">3277 3202 3225 3154 3188 3252 3163 3194 3124 3186 3236 3237 3222 3222 3306 3156 3148 3093 3200 3076 3181 3088 3245 3095 3116 3185 3163 3116 3287 3130 3122 3191 3180 3155 3064 3228 3165 3118 3241 3279 3083 3271 3062 3257 3275 3158 3193 3226 3187 3184 3128 3208 3219 3185 3199 3263 3206 3268 3199 3231 3245 3283 3211 3181 3331 3273 3303 3258 3260 3205 3307 3224 3321 3306 3190 3324 3271 3205 3210 3224 3277 3231 3201 3251 3299 3183 3200 3276 3269 3360 3370 3387 3296 3260 3247 3254 3370 3262 3248 3149 3316 3416 3351 3405 3203 3307 3276 3342 3119 3375 3319 3315 3297 3315 3348 3270 3268 3262 3392 3296 3200 3197 3330 3292 3194 3310 3196 3301 3319 3315 3273 3238 3259 3371 3275 3392 3238 3367 3366 3307 3371 3316 3291 3329 3295 3344 3313 3300 3207 3248 3283 3354 3294 3230 3355 3221 3237 3284 3279 3224 3323 3238 3312 3360 3180 3282 3304 3352 3221 3296 3339 3342 3202 3350 3431 3320 3284 3333 3372 3326 3433 3354 3307 3314 3261 3317 3368 3336 3348 3407 3321 3369 3315 3279 3425 3309 3260 3362 3300 3373 3319 3310 3310 3304 3325 3248 3284 3345 3269 3375 3215 3223 3331 3314 3310 3330 3385 3353 3326 3383 3311 3274 3369 3378 3173 3334 3278 3204 3154 3224 3322 3337 3303 3255 3259 3276 3341 3231 3255 3349 3331 3193 3239 3307 3311 3355 3209 3346 3292 3254 3397 3235 3323 3305 3294 3288 3241 3185 3310 3287 3233 3308 3324 3327 3333 3333 3209 3334 3329 3331 3239 3354 3312 3399 3306 3402 3274 3250 3303 3448 3292 3284 3275 3403 3220 3343 3275 3317 3238 3391 3400 3360 3364 3331 3345 3320 3407 3406 3371 3310 3438 3332 3402 3449 3404 3372 3403 3304 3346 3457 3391 3486 3455 3450 3442 3425 3524 3492 3451 3449 3412 3470 3417 3518 3446 3517 3413 3451 3480 3443 3572 3534 3442 3571 3538 3614 3525 3507 3518 3625 3516 3543 3647 3501 3685 3554 3616 3633 3690 3582 3582 3618 3601 3634 3647 3595 3532 3722 3744 3658 3640 3695 3725 3700 3691 3748 3785 3711 3778 3782 3718 3722 3683 3815 3793 3801 3685 3771 3725 3722 3814 3901 3869 3831 3852 3817 3834 3851 3786 3886 3961 3872 3972 3978 3850 3743 3959 3855 3956 3949 3968 3899 3953 3992 4000 3930 3936 4108 4044 4024 4111 3999 4083 4185 4068 4138 4087 4186 4115 4091 4245 4210 4088 4146 4300 4322 4424 4337 4422 4359 4487 4497 4497 4577 4577 4519 4624 4773 4756 4840 4897 4942 5004 4961 5033 5024 4861 5115 5003 5160 4969 5098 5274 5287 5184 5254 5185 5442 5506 5446 5359 5450 5395 5447 5562 5450 5528 5554 5552 5513 5584 5550 5639 5607 5536 5745 5697 5410 5469 5448 5297 5278 5239 5166 5235 4974 4943 4792 4725 4700 4671 4754 4620 4684 4421 4477 4519 4466 4322 4353 4226 4382 4277 4393 4241 4350 4247 4286 4230 4245 4246 4341 4248 4028 4172 4190 4147 4103 4206 4057 3986 4048 4067 4119 4098 3982 3984 3930 3893 3965 3974 3962 3912 3923 3881 3993 3870 3896 3872 3907 3954 3923 3929 3871 3859 3735 3807 3787 3851 3760 3776 3703 3909 3672 3937 3886 3860 3907 3894 3767 3764 3782 3873 3746 3873 3754 3908 3759 3716 3720 3777 3793 3827 3702 3643 3745 3796 3734 3728 3795 3753 3789 3778 3709 3734 3762 3665 3753 3673 3739 3542 3654 3591 3662 3716 3592 3793 3670 3664 3635 3666 3647 3686 3626 3682 3706 3803 3718 3634 3663 3688 3744 3701 3601 3780 3612 3511 3668 3701 3738 3679 3704 3671 3637 3717 3674 3614 3598 3558 3643 3666 3637 3718 3717 3679 3669 3825 3815 3718 3696 3749 3670 3733 3670 3666 3656 3470 3681 3582 3607 3622 3598 3577 3571 3631 3662 3606 3554 3660 3671 3642 3585 3666 3484 3625 3705 3604 3538 3532 3632 3602 3516 3806 3576 3741 3590 3618 3751 3570 3724 3681 3517 3637 3641 3631 3621 3725 3647 3679 3524 3537 3664 3495 3657 3512 3628 3637 3625 3554 3659 3563 3551 3610 3585 3719 3646 3599 3655 3602 3591 3676 3672 3724 3480 3663 3664 3590 3616 3604 3534 3718 3611 3722 3456 3653 3508 3613 3582 3539 3570 3528 3479 3590 3590 3489 3553 3653 3529 3576 3658 3561 3565 3571 3479 3496 3524 3600 3599 3616 3608 3491 3599 3676 3612 3723 3643 3531 3652 3625 3628 3584 3615 3600 3687 3484 3659 3529 3570 3532 3588 3572 3530 3593 3506 3508 3462 3513 3558 3545 3638 3527 3570 3596 3572 3636 3547 3554 3538 3600 3504 3519 3481 3617 3564 3499 3526 3602 3483 3466 3580 3543 3556 3495 3608 3535 3586 3584 3581 3509 3532 3540 3482 3625 3610 3478 3476 3481 3501 3600 3506 3538 3573 3602 3547 3484 3436 3495 3580 3492 3542 3527 3485 3435 3470 3537 3501 3494 3441 3456 3527 3515 3479 3558 3537 3468 3412 3466 3548 3561 3386 3514 3540 3476 3461 3408 3544 3369 3468 3463 3520 3469 3382 3442 3488 3377 3372 3443 3589 3635 3495 3402 3474 3449 3402 3427 3426 3465 3583 3512 3433 3447 3329 3560 3527 3327 3409 3414 3313 3397 3408 3477 3456 3332 3423 3469 3520 3369 3451 3434 3504 3481 3443 3454 3448 3405 3395 3346 3368 3403 3413 3314 3536 3475 3481 3471 3311 3442 3356 3402 3480 3448 3366 3464 3360 3580 3463 3385 3385 3465 3372 3387 3443 3408 3326 3355 3344 3425 3425 3403 3536 3439 3477 3305 3345 3392 3505 3401 3391 3450 3355 3409 3383 3470 3273 3483 3397 3299 3442 3454 3490 3460 3334 3329 3453 3194 3332 3336 3526 3387 3308 3488 3447 3384 3300 3376 3321 3379 3340 3498 3274 3247 3406 3416 3436 3383 3410 3289 3348 3293 3351 3413 3409 3352 3394 3343 3265 3340 3470 3243 3409 3281 3498 3436 3362 3464 3345 3449 3429 3357 3485 3452 3319 3302 3447 3316 3429 3243 3382 3344 3428 3415 3319 3431 3388 3386 3297 3293 3326 3420 3373 3390 3422 3425 3414 3436 3285 3334 3255 3433 3352 3388 3405 3267 3358 3336 3352 3397 3440 3392 3379 3475 3354 3295 3478 3480 3446 3410 3331 3275 3531 3336 3314 3384 3392 3411 3345 3349 3375 3457 3348 3345 3433 3410 3354 3445 3585 3345 3306 3433 3470 3280 3451 3434 3357 3389 3411 3494 3460 3401 3235 3506 3402 3364 3450 3427 3518 3412 3334 3427 3368 3406 3481 3438 3463 3454 3376 3395 3311 3344 3377 3363 3376 3344 3376 3355 3468 3559 3423 3383 3451 3501 3387 3400 3406 3412 3338 3435 3408 3333 3384 3367 3404 3475 3504 3449 3378 3445 3411 3441 3305 3379 3268 3367 3300 3360 3386 3393 3412 3332 3373 3321 3331 3243 3294 3333 3300 3349 3344 3376 3308 3323 3379 3306 3267 3300 3352 3346 3333 3348 3263 3218 3214 3305 3308 3223 3237 3226 3233 3197 3223 3101 3239 3292 3137 3221 3261 3237 3206 3260 3178 3217 3114 3196 3227 3242 3231 3148 3138 3111 3187 3214 3202 3129 3112 3235 3052 3253 3134 3130 3280 3091 3154 3127 3066 3080 3135 3128 3091 3079 3136 3167 3119 3140 3123 3036 3050 3030 3018 3041 2972 3102 3034 3131 3162 3114 3071 2967 3038 3092 2999 3017 3056 3035 3053 3055 3084 3068 2965 3019 3094 2974 3047 2913 3101 2951 2992 3043 2992 2968 2962 2972 3045 2872 3026 2865 2998 2851 3103 2915 2870 2877 2905 2946 2841 2942 2946 2941 3003 2954 2943 2868 2851 2873 2977 2907 2945 2934 2911 2855 2901 2740 2906 2997 2792 2945 2927 2964 2818 2962 2913 2905 2904 2942 2961 2813 2872 2848 2829 2872 2778 2925 2904 2825 2806 2847 2839 2915 2771 2885 3005 2868 2890 2843 2900 2978 2855 2905 2872 2949 2822 2879 2843 2844 2887 2865 2921 2813 2903 2906 2878 2773 2731 2813 2966 2820 2853 2779 2895 2844 2896 2799 2840 2859 2767 2789 2821 2858 2806 2917 2778 2835 2861 2855 2876 2762 2845 2736 2776 2880 2871 2782 2804 2839 2764 2742 2685 2772 2793 2867 2724 2763 2855 2784 2799 2745 2815 2825 2806 2828 2706 2641 2786 2797 2863 2873 2703 2790 2809 2850 2797 2791 2811 2775 2895 2888 2733 2756 2920 2796 2700 2849 2815 2813 2736 2804 2799 2822 2778 2825 2675 2801 2786 2787 2779 2812 2836 2865 2832 2872 2792 2877 2901 2777 2844 2811 2881 2809 2725 2858 2762 2785 2849 2785 2903 2759 2774 2876 2789 2767 2749 2858 2744 2777 2803 2841 2806 2881 2789 2777 2863 2834 2754 2767 2725 2835 2877 2802 2835 2831 2892 2824 2847 2893 2904 2846 2873 2820 2849 2797 2848 2868 2830 2812 2823 2767 2832 2730 2782 2801 2837 2897 2809 2849 2747 2952 2822 2839 2793 2784 2766 2733 2865 2759 2887 2763 2824 2769 2809 2801 2805 2916 2789 2796 2894 2779 2806 2791 2749 2771 2954 2759 2802 2801 2777 2774 2809 2855 2819 2805 2808 2739 2697 2760 2762 2799 2696 2762 2771 2755 2768 2820 2751 2793 2807 2910 2827 2858 2807 2944 2797 2752 2784 2822 2835 2708 2826 2755 2791 2665 2764 2715 2787 2719 2700 2775 2707 2760 2671 2761 2781 2721 2700 2846 2737 2762 2698 2686 2763 2666 2753 2746 2669 2689 2706 2714 2656 2761 2653 2728 2681 2693 2680 2545 2794 2668 2732 2700 2729 2557 2659 2687 2577 2622 2685 2670 2689 2493 2533 2712 2600 2576 2606 2604 2736 2686 2634 2649 2566 2586 2586 2578 2691 2572 2668 2605 2596 2628 2543 2639 2559 2592 2547 2649 2633 2509 2508 2672 2672 2610 2561 2559 2538 2557 2612 2630 2475 2530 2594 2450 2543 2674 2536 2516 2544 2549 2523 2586 2498 2644 2571 2573 2594 2493 2533 2557 2551 2559 2556 2563 2573 2521 2539 2563 2606 2583 2602 2561 2623 2586 2614 2683 2543 2556 2645 2665 2594 2603 2704 2708 2689 2748 2749 2725 2781 2734 2858 2835 2773 2874 2796 2871 2818 2974 2929 2922 2952 3029 2962 2952 3110 2914 3088 3067 3011 3145 3029 3162 3072 3021 3161 3172 3209 3133 3301 3225 3268 3259 3345 3241 3243 3259 3366 3167 3257 3306 3344 3307 3287 3274 3116 3185 3211 3133 3100 3007 3025 2926 2946 2871 2860 2777 2721 2654 2777 2667 2680 2582 2614 2644 2605 2563 2563 2679 2611 2509 2536 2564 2498 2507 2536 2617 2415 2500 2544 2448 2423 2559 2557 2555 2483 2492 2441 2420 2463 2516 2477 2518 2508 2488 2439 2442 2443 2488 2468 2477 2537 2519 2539 2514 2466 2526 2622 2504 2611 2627 2572 2728 2722 2766 2751 2770 2852 2795 2857 2856 3022 2931 2999 3109 3027 3207 3141 3274 3192 3303 3338 3311 3314 3387 3369 3469 3516 3573 3583 3559 3535 3627 3620 3678 3745 3691 3809 3809 3930 3819 3937 3902 3984 4037 4035 3908 4010 3850 4001 4078 3942 3782 3769 3847 3715 3703 3569 3492 3518 3345 3367 3170 3177 3076 3007 2858 2925 2782 2793 2688 2685 2678 2712 2605 2532 2480 2586 2546 2569 2505 2540 2629 2524 2475 2455 2543 2455 2486 2316 2453 2441 2378 2335 2320 2295 2359 2439 2280 2402 2316 2303 2337 2404 2371 2349 2199 2296 2239 2304 2333 2283 2338 2251 2246 2288 2318 2247 2286 2263 2312 2402 2287 2254 2342 2289 2312 2254 2184 2241 2168 2251 2219 2327 2344 2222 2280 2329 2353 2248 2276 2228 2255 2260 2277 2216 2263 2296 2257 2310 2244 2272 2203 2189 2282 2180 2196 2248 2291 2271 2247 2167 2202 2254 2167 2203 2208 2192 2261 2202 2223 2244 2298 2191 2166 2185 2279 2323 2176 2262 2249 2110 2200 2245 2222 2240 2309 2257 2191 2203 2184 2267 2218 2242 2226 2251 2178 2203 2255 2148 2217 2192 2148 2175 2209 2248 2223 2163 2200 2120 2277 2130 2268 2191 2287 2154 2186 2235 2152 2199 2160 2237 2216 2152 2245 2248 2225 2218 2129 2137 2191 2143 2167 2167 2165 2211 2189 2189 2116 2295 2244 2232 2205 2227 2220 2195 2190 2254 2161 2218 2172 2225 2148 2200 2101 2197 2179 2228 2126 2200 2214 2200 2214 2210 2156 2227 2165 2196 2181 2164 2246 2190 2204 2175 2133 2215 2280 2124 2305 2220 2205 2224 2217 2197 2180 2239 2247 2218 2226 2088 2163 2073 2166 2167 2164 2178 2220 2041 2134 2245 2190 2262 2166 2097 2127 2150 2226 2200 2206 2112 2225 2228 2200 2165 2175 2186 2118 2179 2118 2340 2207 2193 2149 2189 2197 2208 2213 2042 2173 2089 2148 2186 2127 2218 2248 2182 2164 2153 2135 2220 2147 2172 2223 2185 2178 2230 2072 2182 2201 2168 2146 2223 2230 2241 2164 2204 2191 2130 2205 2123 2227 2093 2246 2176 2165 2196 2136 2171 2256 2243 2242 2243 2193 2243 2262 2247 2215 2153 2211 2273 2200 2252 2243 2241 2295 2281 2222 2284 2200 2255 2236 2235 2237 2294 2259 2244 2171 2241 2184 2223 2240 2257 2219 2177 2257 2301 2179 2189 2182 2335 2410 2272 2413 2372 2304 2338 2392 2347 2347 2389 2387 2393 2459 2408 2469 2433 2475 2532 2599 2708 2604 2628 2724 2798 2854 2893 2912 3023 3060 3233 3358 3399 3427 3557 3542 3917 4044 4114 4157 4289 4437 4519 4877 4920 5078 4953 5243 5241 5321 5456 5675 5757 5777 5890 6125 6157 6182 6458 6440 6724 6908 6959 6956 6990 7014 6944 7044 7417 7280 7261 7362 7369 7356 7325 7322 7322 7459 7213 7060 6740 6816 6526 6402 6208 6020 5763 5642 5396 5065 4905 4434 4328 4134 4043 3883 3766 3608 3586 3387 3242 3080 3263 3134 3156 2952 3060 2956 2912 2828 2924 2884 2795 2822 2737 2703 2755 2848 2606 2689 2689 2606 2613 2656 2553 2493 2623 2552 2516 2492 2424 2528 2451 2390 2540 2375 2389 2464 2445 2425 2484 2446 2337 2346 2462 2332 2392 2374 2412 2331 2378 2313 2407 2404 2341 2285 2279 2382 2265 2234 2270 2277 2287 2281 2241 2400 2267 2329 2200 2292 2278 2247 2208 2300 2249 2166 2277 2129 2257 2179 2268 2218 2173 2215 2223 2187 2166 2174 2154 2162 2208 2109 2158 2196 2183 2111 2162 2094 2132 2107 2174 2126 2137 2119 2181 2182 2145 2148 2123 2161 2125 2112 2185 2137 2115 2170 2106 2163 2161 2146 2197 2154 2081 2141 2079 2166 2188 2126 2154 2220 2141 2131 2026 2097 2126 2090 2156 2209 2139 2157 2143 2115 2188 2162 2081 2119 2083 2144 2111 2113 2133 2181 2121 2143 2053 2153 2127 2161 2196 2135 2199 2075 2119 2130 2187 2083 2214 2119 2093 2133 2107 2186 2201 2070 2176 2156 2124 2110 2128 2080 2112 2133 2137 2173 2163 2110 2197 2126 2101 2115 2054 2180 2190 2076 2242 2194 2188 2117 2150 2065 2166 2057 2202 2086 2199 2150 2140 2135 2111 2107 2123 2111 2115 2116 2128 2104 2127 2146 2056 2073 2125 2098 2165 2095 2119 2081 2158 2092 2206 2150 2177 2122 2041 2085 2142 2226 2191 2218 2166 2179 2082 2110 2176 2225 2150 2154 2190 2120 2115 2167 2149 2111 2232 2083 2145 2196 2192 2203 2280 2134 2231 2064 2171 2169 2135 2148 2168 2148 2277 2318 2198 2069 2188 2213 2127 2149 2122 2203 2125 2216 2241 2132 2101 2182 2118 2072 2119 2126 2111 2102 2079 2090 2070 2090 2090 2135 2122 2155 2092 2110 2090 2105 2143 2177 2123 2136 2082 2126 2235 2082 2108 2021 2048 2156 2046 2021 2098 2174 2078 2147 2098 2134 1981 2219 2164 2059 2031 2146 2170 2091 2116 2167 2142 2108 2128 2112 2077 2092 2117 2102 2081 2091 2094 2103 2174 2106 2063 2081 2077 2161 2132 2115 2116 2118 2180 2078 2073 2091 2079 2126 2162 2045 2019 2111 2059 2028 2100 2079 2105 2066 2132 2023 2098 2141 2159 2040 2061 2059 2100 2081 2101 2114 2069 2045 2150 2141 2131 2110 2053 2082 2076 2180 2115 2082 2046 2049 2154 2103 2031 2090 2144 2064 2081 2163 2110 2159 2132 2140 2046 2176 2061 2082 2056 2063 2131 2059 2042 2110 2095 2087 2101 2115 2085 2042 2037 2067 2047 2040 2113 2056 2079 2105 2089 2063 2074 2113 1990 2145 2113 1993 2099 2061 2138 2083 2095 2071 2090 2072 2054 2040 2055 2112 2055 1954 2081 2116 2053 2085 2097 2074 2051 2070 2031 2046 2107 2086 2086 2035 2076 2078 2008 2025 2031 2060 2057 2026 2128 1956 2114 2081 2082 1995 2032 2110 1912 2051 2058 2031 2104 2036 2085 1992 2032 2067 2135 2054 2130 2065 2001 2037 2063 2035 2088 1949 2030 2142 2079 1966 2033 2098 2130 2102 2051 2064 2039 1961 2016 2096 2055 1997 1997 1970 2077 2140 2092 2107 1990 2098 1972 2152 2102 2030 2017 2067 2031 2049 2162 1972 2022 2117 2105 2026 2063 2100 2030 2109 2100 2080 2034 2066 2068 2034 2054 2104 2119 2084 2031 2113 2045 2063 2006 2018 2100 2150 2031 2048 2020 2094 2054 2107 2102 2045 2106 2030 2101 2069 2070 2155 2033 1993 1997 2093 2063 2074 2143 2063 2041 2024 2063 2070 2092 2007 2048 2061 1958 2050 2069 2009 2057 2062 2086 2111 2104 2056 2176 2024 2011 1983 2035 2034 2060 2048 2059 2046 1928 2028 2100 2081 2034 1990 1975 2057 2068 2079 1999 2051 2095 2014 2043 1980 2145 2096 2085 2132 1991 2118 2032 2087 1970 2091 2106 2041 2070 2057 2064 1985 2079 2077 1964 2018 1988 2072 2035 2057 2060 2081 2123 2113 2014 2117 2177 2022 2076 2049 2061 2071 2076 2090 2028 2066 2027 2038 2058 2087 2110 2141 2032 1975 2036 2074 2021 2018 2015 2110 2026 2136 2011 2079 2018 2033 2083 2020 2054 2020 2070 2035 2107 2034 2097 2039 2096 2067 2088 2039 2074 1979 2083 1982 2035 2072 2051 2090 2016 2108 1955 2040 2016 2036 2124 2009 2051 2092 1995 2047 2027 2071 2047 2053 2109 2031 2107 2114 1956 2092 2072 2097 1973 2019 1989 2093 2058 2025 1943 2015 2083 2069 1999 2145 2108 2137 2045 2049 2071 1977 2067 1977 2027 1986 2061 2139 2061 2126 2037 2107 2113 2043 2002 2006 2076 2022 2087 2059 2049 2076 2001 2019 2066 2096 2114 2128 1983 2091 2071 2049 2110 1999 2044 2129 2043 2002 2047 2061 2076 2071 2010 2047 2117 1955 2062 2008 2066 2067 2084 2009 2065 2104 1970 2102 2061 2058 2115 2038 2046 2006 2036 2056 1871 2063 2114 2013 2083 2040 2119 2013 2111 2063 2034 1973 2008 1944 2078 2088 2037 2086 1981 2082 2051 2050 2160 2104 2045 2109 2071 2006 2050 1995 2021 2040 2030 2098 2002 2065 2149 2053 2037 2051 2078 2095 2025 2160 2006 2059 2025 2075 2070 2128 2044 1990 2101 2035 2059 2030 2173 2034 1993 2056 1994 2092 2074 2046 2008 2050 2015 2104 2094 2091 2061 2098 1991 2074 2047 2056 2125 2075 2041 2096 2077 2008 2045 2063 2096 2018 2025 2107 2056 2180 2059 2139 2083 2094 2126 2085 2182 2127 2101 2043 2185 2163 2086 2135 2116 2077 2145 2113 2205 2093 2141 2207 2256 2255 2260 2230 2288 2252 2318 2288 2266 2314 2325 2410 2422 2392 2367 2430 2430 2457 2431 2500 2570 2558 2575 2511 2607 2580 2597 2619 2574 2696 2723 2624 2703 2727 2739 2718 2715 2652 2629 2739 2626 2678 2746 2611 2649 2558 2711 2469 2706 2608 2466 2466 2453 2389 2453 2380 2375 2334 2400 2301 2341 2193 2210 2238 2100 2238 2199 2141 2122 2150 2071 2114 2100 2056 2139 2063 2123 2078 2048 2156 2057 2067 2125 2122 2095 1986 2053 2072 2119 2160 2114 2082 2151 2090 2001 2116 2067 2136 2103 1980 2070 2039 2142 1932 2040 2079 1981 2008 2037 2079 2110 2021 2060 2125 1984 2081 2080 2095 2127 2076 1992 2045 2108 2157 2074 2069 2106 2005 2073 2040 2061 2101 2071 2049 2102 2049 2007 2005 2012 2074 2085 1950 2080 1969 2112 2143 2109 2003 2068 2054 2014 2051 2078 2069 2031 2049 2015 2108 2071 2028 2056 1984 2030 2044 2059 2104 2052 1966 1990 2087 1973 2047 1967 2074 2004 1972 1999 2020 2033 1998 1975 2024 2059 2037 2058 2107 1988 1983 1932 2053 1983 2017 1973 2016 2033 2072 2108 2052 1986 2036 2014 2018 2004 2151 1975 2060 2016 2089 2027 1962 1979 2042 2009 2081 1984 2009 2030 2042 1953 2049 2025 2033 2096 1969 2022 2090 2145 2084 2085 2050 2027 1971 2026 1947 1989 2089 2058 2041 2043 2022 2095 2033 2071 2031 2002 2076 1976 1997 2143 2097 2053 2057 2024 2023 2050 2052 2000 2128 2048 2088 2061 2197 2049 2034 2096 2074 2024 2096 2024 2111 2107 2094 2053 1984 2072 2096 2046 2066 2019 2087 2064 2026 2102 2023 2107 2116 2009 2061 2021 2038 2131 2063 2048 2091 2032 2058 1999 2042 2116 2109 2017 2116 2013 2091 2035 2051 2140 2077 2115 2027 2025 1974 1966 2089 2057 2081 2049 2038 2016 2101 2042 2022 2108 2128 2107 2029 2073 2046 2021 2107 2045 2158 2007 2193 2083 2036 2093 2105 2016 2015 2014 2091 2142 2018 2060 2102 2059 2040 2064 2133 2097 2238 2057 2050 2122 2099 2090 2109 2056 2159 2155 2099 2139 2081 2023 2142 2090 2159 2045 2077 2084 2127 2201 2087 2176 2252 2238 2175 2166 2217 2232 2254 2278 2375 2427 2426 2393 2489 2485 2578 2590 2658 2598 2715 2743 2816 2926 2917 2985 3207 3263 3223 3316 3384 3480 3672 3540 3767 3800 4000 4100 4131 4215 4283 4425 4337 4699 4571 4762 4743 4966 4918 5026 5094 5053 4943 5255 5209 5165 5244 5277 5217 5149 5177 5285 5026 4989 4952 4733 4752 4670 4490 4444 4239 4207 4111 3858 3766 3748 3551 3460 3392 3157 3191 3155 3067 2939 2853 2845 2785 2766 2576 2598 2625 2473 2509 2518 2502 2468 2473 2437 2453 2353 2397 2274 2467 2368 2315 2328 2306 2322 2329 2300 2339 2338 2368 2327 2300 2258 2314 2262 2308 2316 2206 2268 2314 2281 2199 2177 2260 2216 2254 2244 2186 2141 2260 2137 2207 2185 2258 2091 2158 2119 2175 2148 2246 2208 2096 2156 2256 2244 2149 2207 2184 2184 2130 2160 2086 2189 2107 2183 2162 2144 2075 2131 2116 2152 1994 2040 2129 2133 2102 2164 1989 2082 2075 2140 2051 2127 2068 2129 2078 2049 2007 2022 2019 1989 2072 2018 2065 2029 1993 2053 2083 2062 2055 2129 2029 1997 2077 2040 1952 2049 2100 2051 2025 2020 2083 2091 2040 2065 2032 1969 2038 2008 2120 2054 2040 2030 1991 2083 2034 2099 1896 2091 2054 1993 2131 1987 2068 2079 2038 2077 2049 2111 2011 2058 2041 2016 2081 2098 2050 2124 2046 2153 2119 2113 2027 2065 2057 2095 2164 2107 2179 2096 2169 2117 2192 2210 2230 2274 2238 2309 2254 2253 2249 2294 2257 2350 2317 2377 2344 2287 2358 2303 2325 2355 2386 2409 2318 2264 2330 2358 2378 2382 2412 2432 2419 2290 2421 2341 2328 2345 2321 2295 2268 2325 2238 2324 2237 2246 2154 2276 2278 2226 2141 2203 2071 2181 2101 2185 2074 2131 2062 2091 2074 2097 2075 2088 2074 2053 2105 2076 2031 2132 1992 2139 2035 2074 2074 2053 2020 2045 2035 2031 1978 2072 2042 2109 2000 2093 2065 1957 2063 2002 2022 2063 1996 2094 2093 2060 1997 2038 1937 2047 2011 2039 2049 2032 2019 2043 1990 2116 2106 2002 2008 2068 2049 2061 2026 1985 2040 2071 2014 2043 2039 2030 1985 2012 2042 1961 2011 2037 2026 2001 2040 2036 1980 2010 2002 2042 2038 2070 1951 1955 2036 1993 2058 2027 1985 2006 2027 2068 1967 2040 2060 2037 2129 1964 2021 2015 2028 2011 2063 2052 2053 1976 1944 2023 1993 2068 2010 2019 2021 2016 2000 1966 1999 1929 2005 1950 1985 1963 1921 2006 2023 1919 1963 2058 2025 2038 1957 2019 1943 1975 2027 1862 1996 1974 1979 1976 1975 1994 1989 1964 1930 1957 1956 1973 2045 2090 2014 2050 2044 1936 2022 2011 1972 2003 1925 1959 1954 2005 1922 1986 1905 1965 2025 1981 1999 1992 1951 1947 2007 1932 1937 1984 1901 1948 1969 1992 1985 1904 1997 1962 1913 1989 1987 1978 1983 2023 2052 1979 1953 2031 1938 1976 1911 1959 2020 2069 2040 2025 2007 2015 1982 2008 1987 1898 2089 1895 1989 2082 2016 2007 2026 1991 1977 1991 1986 1909 1996 1966 1909 1945 1965 2055 1923 2018 1956 2069 2103 2005 1986 1949 1938 1946 1961 1969 1939 1997 1935 2008 1984 1955 2022 1923 1998 2006 1956 1965 2049 2029 1995 2002 1992 2013 1951 1933 1983 1868 1905 1930 1946 1939 1929 1889 1992 2015 1947 1991 1932 1965 1961 1921 1983 1937 1926 1879 1950 1935 1914 1922 1963 1920 1981 1933 1965 1936 1985 2043 1967 2016 1952 1903 1983 1964 2003 1972 1982 1919 1964 1974 2041 1997 1981 2097 1914 1996 2012 1971 1978 2008 1956 1982 1950 1976 1997 1973 2065 2039 1881 2018 1986 1940 1926 1851 1955 2036 1985 2003 1988 1944 2030 1973 1958 1938 1978 2000 1987 1958 1972 1931 1962 1871 2040 2002 2018 1953 1955 1985 2008 1872 1928 1936 1955 1957 2057 1923 1900 1913 1930 1936 1914 1907 1990 1965 1960 1934 1952 2068 1985 1953 2044 1947 1942 1987 1986 2009 1939 1907 1976 2038 1944 1968 2020 1904 2032 1948 2000 2018 2021 1955 1917 1987 1924 1952 2081 2023 1904 1973 2080 1919 1982 1962 1931 2045 1965 1946 2000 1973 2050 2065 2019 1943 2001 2014 1950 2003 2006 1972 1967 1960 1999 1989 2002 2042 1914 1913 2067 1941 2009 1990 1977 1978 2043 2029 2081 1950 1963 1970 1920 1960 1906 1968 1946 1996 1968 1894 2053 1998 1993 1947 2085 1953 1947 1900 2107 1926 1982 1984 1976 1945 1965 2012 2067 1928 1904 1917 1885 1986 1929 1918 1976 1932 1939 2044 1973 1920 1989 1996 1918 2078 1944 1933 1974 1928 2010 1947 2032 1918 1921 1960 1952 1979 2008 1962 1951 1985 1995 2025 1976 2038 2039 1986 1947 1945 1992 1990 1998 1996 1978 2000 1959 2093 1998 1935 2037 2023 2031 1953 2014 2062 2059 2055 2104 2102 2070 2065 2035 2033 2066 1940 1958 2058 2015 2010 2011 2066 2063 2084 1969 2074 2079 2042 2014 2047 2008 2090 2040 2086 1983 2086 1979 2026 1995 2017 2004 2052 2017 2032 2073 2017 2075 2044 2067 2059 2037 2120 2076 2036 2082 2078 2080 2106 2128 2103 2097 2187 2075 2057 2147 2097 2164 2210 2244 2125 2162 2237 2198 2286 2268 2111 2292 2261 2224 2431 2241 2226 2247 2235 2291 2310 2328 2383 2349 2342 2406 2295 2262 2348 2177 2263 2275 2203 2273 2201 2236 2198 2188 2182 2167 2203 2272 2258 2177 2205 2115 2232 2049 2175 2097 2092 2090 2157 2140 2129 2064 2041 2042 2091 2117 2107 2103 2048 1954 2123 2014 2100 2057 2077 2037 1998 2036 2035 2061 1993 2000 1983 2077 2108 1968 2025 2026 2075 2064 1965 2115 2012 2033 2032 1991 2194 2158 2102 2062 2033 2011 2048 2093 1980 1976 1949 2065 2033 1985 1948 1981 1946 2021 1967 1955 1966 2005 2014 1951 2034 1915 2046 2030 2069 2016 1902 1964 2010 1999 1954 2042 1964 2008 1930 2082 1978 1922 1969 2021 1923 1967 1936 2036 1974 1956 1878 1969 2014 1984 1981 2000 2047 1920 1964 2001 1882 1930 1978 1949 1845 1937 1963 1930 1962 1914 2048 1911 1963 1991 1946 1934 1892 1986 1987 2042 1932 1957 1921 1908 1910 1987 1981 2009 1971 1953 1956 1929 2001 2001 1952 1960 1961 1912 1983 2005 2015 1934 1964 1895 1961 1926 1964 1978 1876 1979 1963 1968 1942 2000 1965 1909 1980 1989 2067 1965 2052 1960 1947 1965 1949 1933 1974 1914 1923 2048 1912 2045 1921 1986 2011 1972 1976 2028 2036 1988 2048 2009 2012 1939 2070 2074 2040 2040 1967 2025 2019 2020 2141 2154 2068 2088 2069 2048 2102 2052 2109 2104 2128 2111 2228 2170 2183 2185 2261 2206 2268 2259 2270 2205 2377 2247 2414 2437 2360 2400 2543 2426 2473 2526 2502 2522 2605 2680 2654 2782 2707 2713 2624 2670 2734 2726 2764 2749 2792 2696 2695 2701 2683 2756 2720 2756 2768 2714 2662 2667 2649 2637 2587 2549 2592 2558 2522 2516 2447 2462 2360 2326 2382 2230 2344 2285 2260 2276 2201 2242 2164 2192 2166 2151 2119 2141 2128 2139 2163 2098 2123 2130 2031 2136 2116 2061 2061 1974 2108 2063 2018 2073 2042 2168 2026 2013 2136 2088 2018 2075 2057 2147 2040 2021 2041 2025 2063 2113 2026 2080 2009 2013 2084 2041 2026 2054 2011 1968 2040 2076 1974 2049 1941 1909 1948 1996 2071 1996 1961 2004 2020 2011 2084 1881 1970 2017 2014 2049 2023 2003 2000 1960 2001 1948 1993 1983 1986 1973 2040 1906 1970 2055 1932 2019 2063 1961 1945 1984 1982 1969 2032 2048 2026 2010 1944 1949 1986 1961 1995 1961 2018 1928 1999 1945 2001 1977 1997 2005 2056 1959 1944 1940 1947 1995 1918 2060 1914 2003 2025 1971 1962 2018 2068 2055 1946 2008 2024 1921 2050 1965 1950 2039 2005 2004 1956 2071 2000 2010 2041 2088 2027 2032 2126 2080 2009 2082 2136 2090 2074 2109 2140 2143 2084 2147 2075 2147 2173 2136 2159 2174 2212 2142 2247 2152 2119 2134 2116 2147 2147 2196 2095 2183 2141 2194 2187 2183 2206 2154 2128 2125 2149 2106 2073 2060 2052 2092 2198 2098 2079 2093 2014 2072 2060 1984 2089 2021 1993 2068 2010 2021 1932 1968 2054 1908 2017 2056 1913 2000 1993 1992 1884 2044 1895 1941 2010 1915 2017 1914 2054 1916 1946 1923 2027 2010 1945 1873 1958 1966 2071 1909 1885 1912 1985 1927 1945 1954 1980 1932 1953 1984 1984 1893 2003 1915 1939 1976 2046 1947 1970 1912 1952 1936 1937 1931 1948 1988 2010 1930 1958 1952 1836 1956 1898 1915 2013 1994 1954 1923 1844 1970 1844 2014 1987 2033 1937 1900 1907 1963 1964 1999 1915 1857 1967 1982 1869 1938 1915 2039 1972 1946 1981 1946 1975 1940 1937 2029 1994 1924 2016 2015 1910 1970 1940 1899 1957 1994 1980 1975 2003 1986 1917 2010 1961 1988 1915 1961 1994 2062 1976 1965 1899 1955 2012 1933 1990 1974 2029 1929 1937 1933 1921 1954 1986 1920 1971 1884 1912 1947 1982 1925 1983 1918 1906 1898 1886 1955 1980 2015 1917 1967 1904 1947 1959 1975 1870 1902 1922 1939 1899 1933 1967 1966 1890 1955 1942 1942 1911 1962 1901 1992 1909 1849 1938 1911 1898 1926 1939 1931 1905 1940 1954 1911 1918 1938 1899 1881 2017 1959 1968 1882 1967 1917 1987 1931 1932 1926 1928 1902 1926 1951 1943 1888 1934 1959 1963 1860 1878 1941 1963 1945 1912 1973 1940 1949 1847 1940 1841 1906 1939 1912 1930 1997 1908 1918 2006 1896 1903 1988 1971 1913 1969 1982 1910 1940 1902 1862 1912 1926 1976 1905 1936 1969 1901 2041 2003 1974 1849 1960 1942 1953 1985 1908 1899 1898 1965 1980 1883 1918 1862 1941 2034 1901 1961 1909 2007 1953 1958 1926 1877 1971 1913 1884 1914 1897 2035 1933 1894 2005 1903 1987 1848 1928 1942 1886 1954 2065 1951 1892 1945 1911 1887 1859 1999 1946 1995 1936 1984 1881 1926 1949 1950 1972 1894 1941 1941 1833 1971 2019 1898 1958 1990 2002 1923 1948 1962 1845 2017 1898 2011 2011 1945 1936 2011 1924 1963 1915 1969 1905 1898 1960 1930 1958 1898 1843 1912 1930 1906 1990 1932 1930 1858 2003 1894 1857 1988 1952 1896 1973 1992 1943 1956 1837 1928 1954 1905 1924 1995 1951 1876 1994 1953 1904 1941 1907 1824 1922 1922 2019 1843 1937 1899 1863 1949 1885 1960 2000 1933 1928 1881 2045 1877 1910 1844 1984 1920 1887 1943 1905 1980 2002 1954 1972 1981 1927 2001 1942 1893 1936 1948 1914 2001 1972 1924 1947 1996 1961 1929 1878 1923 1913 1943 1941 1964 1874 1886 1987 1951 1902 1927 1860 1915 1932 2009 1986 2016 2030 1979 1916 1994 1984 1967 2002 2015 1965 1955 1902 2023 1955 1945 2008 1946 1961 2021 1960 1959 1961 2036 2023 2080 2078 1965 2038 1971 2137 2005 2068 2020 2053 2005 1995 2097 2131 2075 2109 2047 2058 2046 2007 2040 2008 2062 1973 2062 2010 2151 2069 2077 2071 2041 1967 2020 2023 2039 2030 1926 2033 1980 2017 2077 1986 2034 1978 2008 1973 2052 1922 1952 1943 1910 1941 1992 1999 1967 1907 1970 1983 2061 2059 1975 2008 1954 1940 1973 1922 2041 1997 1977 1932 1929 1916 1877 1988 1941 1996 1919 1977 2014 1939 1937 1931 1937 1967 1956 1936 1944 1913 1958 1936 1892 1865 1949 1883 1978 1898 1968 1952 1916 1979 1928 1883 2012 1942 1925 1941 1929 1855 1936 1942 1840 1932 1892 1937 1961 1926 1948 1882 2032 1959 1983 1956 1966 1974 1945 1939 1933 1910 1947 1966 1951 1927 1951 1924 1944 1800 1849 1974 1965 1960 1931 1890 1973 2023 1926 1913 1942 1961 1938 2006 1916 1893 1915 1970 1900 1938 1987 1939 1916 1927 1900 1867 1966 2036 1851 1974 1910 1880 1993 1829 1899 2023 1971 1884 1890 1948 1962 1960 1952 1898 1975 1980 1902 1922 1909 1885 1948 1902 1896 2003 1960 1944 1975 1968 1918 1896 1916 1951 1883 1918 1912 1845 1987 1887 1877 1887 1933 1927 1993 1964 1913 1925 1910 1982 1970 1904 1945 1960 1932 1901 1958 1962 1908 1944 1938 1909 1991 1900 1994 2010 1947 1958 1950 1985 2013 1953 1997 1983 1839 1915 1918 1887 1886 1919 1894 1927 1943 1931 1944 1918 1865 1922 1961 1993 1961 1976 1921 1907 1963 1900 1998 1913 1945 1840 1865 2010 1922 1944 2015 1951 1989 1956 1967 1968 1964 1984 1958 1886 2006 1947 2043 1927 1914 1957 2019 1970 1946 1960 1964 2066 2009 2017 2098 2027 1997 1972 2058 2065 2077 2119 1978 2113 2103 2009 2051 2095 2062 2167 2100 2165 2106 2122 2181 2060 2200 2161 2187 2116 2229 2205 2198 2217 2231 2131 2223 2308 2176 2175 2219 2311 2188 2280 2169 2282 2141 2204 2241 2262 2220 2193 2233 2185 2144 2165 2131 2125 2111 2101 2117 2106 2112 2119 2036 2083 2072 2015 2040 1934 1988 2084 2002 1950 1942 1981 1991 1973 2019 1958 1962 1992 2008 1965 1969 2013 2008 1922 1950 1985 1960 1924 1904 1895 2026 2031 1987 1972 1985 1935 1955 1925 1963 2030 1951 2051 1893 2030 1975 1935 1886 1895 1979 2063 1961 1918 1957 1989 1953 2013 1946 1940 1979 1919 1999 1994 1937 1953 1979 1937 1933 1910 1999 1898 1939 1995 1958 1927 1902 1968 1947 1967 1949 2009 1984 1925 1981 1927 2063 1895 1996 1966 1969 2054 1950 1981 1930 1957 1857 1961 1949 1967 1933 1936 1913 2001 1960 1875 2021 1931 1899 1928 2065 1990 1912 1986 1929 1917 1908 1970 1968 1979 1861 1884 1911 1885 1879 1927 1973 1913 1947 1910 1922 1924 1871 1931 1869 1940 1924 1983 1929 1928 1998 1951 1969 1955 2014 1971 1973 1974 1935 1910 1943 1892 1930 1919 1880 1967 1977 1934 2020 1966 1928 1944 1964 1947 1965 1898 1948 1913 2051 1914 1955 1871 1918 1939 1871 1884 1918 1936 1923 1914 1949 1936 1918 1972 1915 1965 1966 1964 1949 1950 1865 1961 1973 1927 1904 1905 2019 1886 1881 2011 1805 1936 1920 1935 1942 1944 1973 1970 1945 1943 1964 1919 1898 1904 1889 1894 2005 1874 1956 1920 2046 1969 1914 1978 1973 1838 1855 1955 1941 1928 1956 1911 1869 1971 1989 1965 2024 1920 1912 1957 1884 1941 1949 1890 1888 1957 1884 1960 1877 1934 1871 1905 1896 2011 1975 1818 1917 1943 1977 1922 1893 1910 2029 1974 1928 1994 1932 1874 1851 1936 2000 1998 2005 1909 1882 1970 1964 1970 1933 1968 1914 1894 1955 1945 1905 1925 1882 1924 1896 1890 1992 1973 1909 1972 1884 1975 1952 1960 1958 1944 1958 1926 1904 1908 1916 1871 1938 2021 1876 1965 1900 1983 2039 1855 1954 1972 1968 1914 2006 1988 1968 2005 1949 1973 1926 1953 1947 1965 1917 1874 1953 1895 1901 1971 1869 1974 1881 1911 1894 1913 1870 1955 1894 1880 1896 1994 1917 1891 2017 1924 1994 1914 2013 1916 1915 1997 1922 2008 1952 1981 2007 1947 1833 1910 1940 1909 1998 1964 1986 1933 1917 1965 1921 1898 1896 1958 1959 1955 1890 1924 1947 1885 1978 1909 1903 1917 1907 1886 1912 1928 1947 2009 1905 1890 1925 1937 1851 1920 1971 1894 1909 1881 1969 1877 1816 2001 1978 1857 1895 1907 1893 1909 1930 1977 1958 1862 1923 1983 2044 1973 1951 1937 1960 1910 1897 1904 1977 1870 1966 1908 1936 1909 1921 1944 1893 1947 1921 1943 1840 1963 1973 1895 1933 1924 1976 1981 1894 1906 1937 1901 1906 1944 1906 1980 1964 1957 2011 2005 1929 1929 1993 1955 2039 1889 1940 2035 1892 1928 1965 1994 1885 1999 1941 1901 1872 1960 1914 1907 1871 1978 1970 1927 1912 1925 1958 1918 1929 1986 1972 1903 1894 1909 1998 1956 1905 1962 1876 1940 1880 1923 1989 2048 1963 1987 1914 1918 1893 1963 1915 1928 1889 1957 1959 1948 1914 1898 1950 1891 1945 1928 1994 1883 1930 1834 1959 1937 2014 1915 1918 1924 1969 1945 1997 1944 1999 1930 1969 1907 1949 1932 1914 1970 1909 1952 1954 1899 1937 1941 1901 1884 1914 1948 1887 1993 1960 1970 1974 1868 1976 1966 1877 1920 1961 1944 1984 1900 2041 1887 1975 1961 1970 1818 1974 2008 1975 1882 1971 1891 2020 1912 2060 1977 1857 1902 1922 1876 1948 1877 1990 1982 1995 1933 1960 2053 1986 1935 1892 1975 1994 1995 1927 2037 1954 1964 1969 2027 1956 1968 1922 1976 2029 1962 2002 2067 2047 2083 1986 1916 2060 1994 2052 1998 2008 1981 1968 1986 2009 1940 2087 2007 1929 1875 2068 2074 2045 2060 1990 2088 2016 2048 2045 2001 2011 2102 2030 2090 2029 2058 1983 1979 2053 1990 2019 1963 2059 2003 2023 1952 2069 2065 2028 2096 2065 2004 2186 2020 2033 2089 2074 2063 2078 2080 2008 2073 2074 2116 2030 1977 2050 1986 2039 2086 2079 2082 2037 2023 2103 2093 2119 2085 1998 2116 2022 2037 2030 1989 2066 2074 2014 2063 2017 2066 2049 2013 2054 2031 2060 1994 2021 2030 2003 1983 1967 2022 1956 2025 1993 1989 2020 2014 1949 1916 1977 1901 1992 1995 2021 2019 2003 2047 1949 1920 2053 1942 2028 1958 2008 1946 1933 2006 1991 2045 1963 1993 1992 1954 2004 1998 1960 1967 1958 1915 1917 1976 1944 1950 2035 1964 1975 1904 2093 2031 2012 2016 2016 2014 2025 1957 1991 2025 1953 2013 2003 1966 2016 1918 1955 2018 2026 1990 1927 1974 2010 1999 1979 1979 2036 1985 1917 2036 2071 1951 1997 1940 2005 1924 1953 1981 1973 1935 1915 1966 1965 1964 1929 1991 1960 1953 1951 1922 1968 2003 1994 1926 1898 1936 1992 1963 1926 1942 2014 1998 2028 1955 1945 1985 1936 1974 1976 2006 1966 1989 2086 2019 2010 1956 2005 1918 2044 1972 1996 2110 1938 1974 1923 1953 1977 2042 1935 1992 2056 1983 2078 2011 2090 2055 2013 2022 2010 1924 1953 2018 2066 2004 1971 1948 2006 2019 2023 2042 2020 2043 2048 1985 2013 2103 2070 2147 2040 2032 2080 2127 2078 2148 2106 2106 2183 2159 2131 2142 2179 2193 2162 2155 2225 2284 2211 2235 2288 2268 2310 2261 2295 2241 2306 2397 2372 2525 2371 2538 2526 2498 2460 2544 2526 2646 2588 2552 2588 2575 2631 2579 2543 2571 2613 2572 2533 2697 2618 2541 2535 2441 2516 2464 2551 2498 2426 2512 2439 2386 2473 2414 2378 2425 2338 2429 2334 2404 2330 2301 2324 2297 2249 2285 2317 2236 2273 2179 2252 2215 2213 2182 2174 2167 2057 2123 2188 2213 2134 2103 2014 2051 2043 2109 2044 2087 2001 2066 2055 2085 1985 2012 2015 2122 1953 2035 2060 2071 1945 2024 2020 2035 2055 2040 2096 1935 1960 2147 2040 2006 1977 2048 1991 2082 1968 2059 2069 1993 1996 2008 1981 2029 2023 2036 2040 2022 2006 2019 2033 2068 1897 1996 1991 2076 1989 2077 1997 2108 2009 2014 1969 1994 1996 2010 2004 1993 1976 2021 2025 1986 2010 1976 2032 1962 1941 1978 1998 1968 2053 1910 2043 2070 1984 2018 2022 1971 1970 1981 2014 2028 1901 2026 1961 2058 1971 1971 1959 2002 2096 2001 2011 2017 1993 2083 1941 2044 2035 1997 2011 1962 2060 2071 1987 2028 2012 2034 1997 2042 2017 2027 2168 2010 1991 2056 2021 2059 2072 2067 2092 2059 2011 2056 2111 2054 2059 2049 2064 2069 2063 1947 2083 2030 2034 2018 2060 2081 1980 1956 2080 2031 1957 2017 2072 1999 2057 1978 2014 1989 1966 2030 2007 2040 2017 2014 2027 2034 2049 2026 1938 1973 2076 2055 1948 2004 1933 2049 1981 2005 2047 1967 2035 2009 1997 2008 1942 1957 2009 1951 1967 1996 1934 1952 1895 1899 1943 1963 1927 1956 1971 1932 1989 1949 1971 1955 2006 1938 1918 1978 1967 2031 1972 1984 2006 1921 1953 1955 1981 2032 1989 1982 1995 2037 1851 1918 1950 1878 1956 1940 1945 1993 1940 1970 1903 2036 1897 2040 2020 1979 1934 1966 1995 1875 2018 1979 1912 1947 1971 2039 2019 1945 1917 1997 2000 2011 1937 1939 1923 1966 1879 1940 1908 1925 2028 1890 1997 1976 1949 1920 1992 1880 1944 1841 1916 1948 1962 2007 1982 1998 1908 1901 1995 1945 1996 2019 2036 1912 1943 1933 1995 1930 1986 1998 1893 1995 2020 1925 1927 1976 1999 1953 1977 1995 1926 1966 1971 1956 1975 2009 1976 1960 1936 1921 1889 2008 1978 1873 1979 1918 1877 1973 1897 1953 1952 2009 2009 1889 1961 1947 2015 2005 1983 1930 1970 1909 2031 1930 1933 1917 1935 1908 1955 1993 1983 1940 1924 1992 1992 1919 1952 2008 1988 1910 1948 1977 1922 2017 1917 1975 1945 2038 1914 1889 1948 1864 2020 1937 1921 1957 1882 1938 1831 1943 1912 1987 1974 1931 1997 1934 1940 1928 1955 1952 1908 1947 2036 1934 1968 1927 1892 1960 1905 1831 2011 1905 2039 1905 1948 1968 2024 1921 1922 1959 1907 1943 1969 1993 1919 1858 1982 1990 1939 1929 1995 2001 1950 1944 1924 1972 1952 2007 1934 2004 1995 1961 1921 1996 1981 1906 1869 1912 1921 1874 1982 2003 1921 2083 1998 1944 1999 2064 1949 1867 1939 1921 1935 2012 1945 1939 2008 1914 2003 1965 1918 1901 1871 1922 1911 1922 1967 1905 1949 1955 1951 1931 1969 1913 1953 2042 1975 1882 1969 1872 1870 1923 1936 1973 1962 1978 1873 1924 1933 1957 1905 1986 1956 2015 1934 2005 1972 1928 1993 2058 1966 1953 1884 1971 1939 1964 1868 1973 2042 1937 1926 1958 1966 1986 1966 1940 1975 1990 2055 1933 1933 1949 1949 2007 1930 2030 1897 1967 1915 2019 1961 2008 1997 1982 1955 1950 1944 1962 1977 1973 2015 1922 1963 2001 1946 1987 2025 1997 2048 1922 1972 1979 1974 1991 2069 1932 1947 1996 2002 2047 1979 2021 1894 1901 1943 2039 1987 2016 1962 2082 1955 2055 2047 2008 2076 2050 2059 1955 2043 2035 1938 2046 2030 2025 1907 2047 1911 2052 2028 2019 1976 2048 2140 1904 2002 2047 2021 1979 1948 1987 2023 2091 1982 2089 2037 2007 2133 2000 2061 2030 1993 2022 2047 1967 2039 1938 1939 2034 1963 2121 2076 2123 2050 2065 1950 1976 1968 2009 2035 1938 1998 1980 1907 2020 2007 1987 1967 2013 1990 1951 1899 1984 2001 2038 1985 2032 1965 1975 1946 1951 1999 1961 1857 2007 1943 2027 2010 1864 1981 1993 1979 1937 1937 1938 1916 1956 1937 1960 1911 1979 1945 2027 1946 2039 1942 2034 1927 1963 1883 2074 1968 1971 2002 1900 1910 1950 1971 1993 1918 1986 2023 1990 1954 1988 1938 1896 1942 1988 1935 1985 1867 1904 2027 2006 1863 1952 1989 1980 1928 1987 1959 2093 1970 1876 1915 1942 1900 2085 1982 2004 1966 1988 2004 2018 1900 1897 2012 1929 2029 1989 1915 2023 1933 1877 1991 1984 1882 2001 1863 1902 1950 2007 1967 1962 1928 1936 1963 1903 2008 1941 1915 1992 1891 1957 1970 1965 2026 1948 1961 1926 1930 1982 1912 1964 1964 2041 1975 1918 2021 1999 1962 1991 1971 1979 2010 1947 1987 2029 1929 2001 2004 1933 2032 1834 1926 1965 1982 2010 1953 1991 1982 1948 2039 1908 1960 1953 1977 2001 1906 1957 1987 2000 2031 1999 1953 2011 1975 2018 1964 2017 2039 2064 1980 2025 1978 1992 2011 2154 1992 1975 1970 2048 2007 2052 1995 2006 2023 2018 2037 2008 2027 2030 2035 2033 1942 2005 2038 2016 1980 2103 2099 1973 2083 2042 2078 2056 2118 2060 2131 2071 2074 2086 2111 2129 2109 2148 2236 2167 2233 2116 2196 2202 2170 2192 2226 2236 2225 2175 2231 2206 2278 2277 2280 2260 2325 2338 2309 2378 2333 2370 2336 2330 2411 2428 2380 2336 2401 2444 2288 2333 2323 2466 2329 2346 2306 2306 2259 2392 2396 2256 2334 2384 2382 2377 2287 2292 2222 2316 2219 2269 2241 2202 2246 2239 2232 2202 2281 2183 2208 2120 2167 2162 2126 2242 2153 2125 2187 2100 2126 2083 2194 2132 2088 2108 2092 2053 2035 2018 2061 2100 2070 2043 2024 2058 2031 2025 2026 2027 1936 2022 2035 2025 2052 1992 1935 2045 1970 2014 2032 2033 2014 1963 1967 1893 1935 2076 1934 2000 2006 2049 2004 2046 2016 1997 1923 2018 1981 2031 1969 2023 2024 2030 2035 2047 2018 1959 2032 1921 2011 1936 1995 1952 1858 1986 2043 2085 1934 1985 1985 1935 2038 1934 1911 1904 2014 2000 1995 2051 2004 2003 2020 2015 2034 2089 2018 1912 1931 2061 2035 1949 2039 1919 2013 2001 2067 2012 2047 1974 1914 2052 2066 1956 2024 1985 2046 2055 1970 2071 2033 2047 1969 1994 1927 1922 1984 1950 2076 2002 2037 1997 1998 2022 2006 2085 1976 1922 2045 2073 2039 1975 2021 1985 2051 2029 2045 1950 2077 2029 2029 1983 2009 1932 2020 2037 2039 1960 1960 2015 2012 1998 2024 1981 1996 2007 2026 1988 2004 2083 1995 2091 1958 2050 2007 1950 1889 1943 2001 2017 2008 2029 1989 2035 1955 1965 2062 1958 1992 2059 1966 2052 1927 1979 2005 1988 1935 1968 1957 1921 1877 1913 2025 1990 1977 1973 2005 2020 1920 2008 1988 1919 1928 2005 1889 2021 2007 1928 1996 2020 2031 1970 1984 1989 2032 1975 2029 1876 1969 1962 1978 1924 1905 1946 2035 2053 1958 1970 1975 1983 1989 1947 2005 1920 1905 2022 1944 1979 1929 2009 1902 1974 1960 1996 2049 1954 1997 2030 1958 1934 2008 1968 2013 1909 1956 1967 1880 1987 1918 1982 1974 1981 1910 1887 1933 1974 1930 2020 1916 1967 2019 1980 1978 2019 2039 1947 2022 1891 1947 1908 1959 1957 1953 1914 1997 1938 1888 1936 1932 1946 1992 1952 1910 2002 1933 1947 1875 1921 1933 1989 1868 1967 1978 2015 1927 1998 1977 1948 1930 2004 1954 1937 1983 2025 2017 1974 1978 2051 1969 1926 2063 1925 1999 1959 1986 1914 1914 1975 1958 2015 1965 2006 1987 2040 1996 1857 2024 1947 1956 1964 2053 1948 1931 1992 1976 1929 1964 1953 1964 2076 1966 2026 1881 1906 1957 2009 1936 2013 1956 2000 1996 1921 1971 1977 1976 1975 1943 1916 1936 1844 1937 1848 1936 1927 1930 2022 1938 1940 1930 1972 1938 1944 1917 1968 1865 1966 1933 2015 1968 1917 1895 1837 1961 1945 1977 1903 1966 1992 2070 2001 1946 1936 1990 2027 1925 1858 1997 2014 1976 1947 1927 1960 1930 1984 1989 1957 2001 1924 1933 1954 1922 1925 2005 2018 1979 1935 1928 2031 1890 1931 1964 1975 1899 1975 2031 1975 1949 2044 2048 1975 2008 2031 2024 1989 1947 1945 1914 1956 1960 1965 1940 1907 1865 1965 1960 2032 1981 1902 2021 1946 1949 1943 1927 1867 1964 1979 2013 1957 1850 1984 2058 1975 2043 1994 1994 1913 2014 1931 1901 2007 1877 2016 1906 1991 1949 1924 1987 2058 1968 1898 1949 1948 1862 1959 1909 1899 1940 2049 1985 1958 1943 1963 1926 1977 1896 1942 1917 1940 1974 1949 1940 1937 2044 1852 1987 1912 1963 1931 2041 1945 2013 1947 1958 1977 1964 1960 1932 1998 1986 1906 1993 1940 1992 2017 2001 2012 1933 1972 1967 1969 1960 1937 1942 2041 1980 1874 2009 1980 2011 1979 1952 2031 1954 2032 1939 2036 1978 2010 2014 1921 2089 2052 1965 2079 1995 2072 2044 2015 1972 2069 2001</counts>
			</dataPoints>
		</scan>
	</xrdMeasurement>
</xrdMeasurements>
