<?xml version="1.0"?>
<xrdMeasurements xmlns="http://www.xrdml.com/XRDMeasurement/2.3" xmlns:xsi="http://www.w3.org/2001/XMLSchema-instance" xsi:schemaLocation="http://www.xrdml.com/XRDMeasurement/2.3 http://www.xrdml.com/XRDMeasurement/2.3/XRDMeasurement.xsd" status="Completed" recordIdentifier="{5EC16FE5-0A77-4A6D-A3F7-ED47010BCD24}">
	<comment>
		<entry/>
	</comment>
	<sample type="To be analyzed">
		<id>GPSS_Li1p5Mg0p5In0p5Cl4_122325_694ae824ae15af25ac37277f</id>
		<name></name>
		<preparedBy></preparedBy>
	</sample>
	<xrdMeasurement measurementType="Scan" status="Completed" sampleMode="Reflection">
		<usedWavelength intended="K-Alpha 1">
			<kAlpha1 unit="Angstrom">1.5405980</kAlpha1>
			<kAlpha2 unit="Angstrom">1.5444260</kAlpha2>
			<kBeta unit="Angstrom">1.3922500</kBeta>
			<ratioKAlpha2KAlpha1>0.5000</ratioKAlpha2KAlpha1>
		</usedWavelength>
		<incidentBeamPath>
			<radius unit="mm">145.00</radius>
			<xRayTube id="1010048" name="Empyrean Cu LFF HR (9430 033 7310x)">
				<tension unit="kV">40.0</tension>
				<current unit="mA">15.0</current>
				<anodeMaterial>Cu</anodeMaterial>
				<focus type="Line">
					<length unit="mm">12.0</length>
					<width unit="mm">0.4</width>
					<takeOffAngle unit="deg">6.0</takeOffAngle>
				</focus>
			</xRayTube>
			<sollerSlit id="21010002" name="Soller slits 0.04 rad.">
				<opening unit="rad">0.0400</opening>
			</sollerSlit>
			<mask id="22031000" name="Fixed mask 13 mm">
				<width unit="mm">9.00</width>
			</mask>
			<divergenceSlit id="22120001" name="Divergence slit 1°" xsi:type="fixedDivergenceSlitType">
				<distanceToSample unit="mm">50.00</distanceToSample>
				<height unit="mm">1.52</height>
			</divergenceSlit>
		</incidentBeamPath>
		<sampleMovement xsi:type="spinningSampleMovementType">
			<spinnerRevolutionTime unit="seconds">1.0</spinnerRevolutionTime>
		</sampleMovement>
		<diffractedBeamPath>
			<radius unit="mm">145.00</radius>
			<antiScatterSlit id="22090040" name="AS slit 9 mm (PIXcel)" xsi:type="fixedAntiScatterSlitType">
				<height unit="mm">9.00</height>
			</antiScatterSlit>
			<sollerSlit id="21020003" name="Large Soller slits 0.04 rad.">
				<opening unit="rad">0.0400</opening>
			</sollerSlit>
			<filter id="20030001" name="Large beta-filter Nickel">
				<material>Ni</material>
				<thickness unit="mm">0.020</thickness>
			</filter>
			<detector id="7010019" name="PIXcel1D-Medipix3 detector" xsi:type="rtmsDetectorType">
				<phd unit="keV">
					<lowerLevel>4.02</lowerLevel>
					<upperLevel>11.27</upperLevel>
				</phd>
				<mode>Scanning</mode>
				<activeLength unit="deg">5.542</activeLength>
			</detector>
		</diffractedBeamPath>
		<scan appendNumber="0" mode="Continuous" scanAxis="Gonio" status="Completed">
			<header>
				<startTimeStamp>2025-12-25T15:02:13-08:00</startTimeStamp>
				<endTimeStamp>2025-12-25T15:10:20-08:00</endTimeStamp>
				<author>
					<name>AutomatedUser</name>
				</author>
				<source>
					<applicationSoftware version="1.7b (136)">PANalytical Aeris Instrument Suite</applicationSoftware>
					<instrumentControlSoftware version="3.2.00000000 20240306">AERIS</instrumentControlSoftware>
					<instrumentID>950485</instrumentID>
				</source>
			</header>
			<dataPoints>
				<positions axis="2Theta" unit="deg">
					<startPosition>10.00943322</startPosition>
					<endPosition>99.99442286</endPosition>
				</positions>
				<positions axis="Omega" unit="deg">
					<startPosition>5.00471661</startPosition>
					<endPosition>49.99721143</endPosition>
				</positions>
				<commonCountingTime unit="seconds">12.495</commonCountingTime>
				<counts unit="counts">3237 3188 3180 3074 3171 3210 3220 3247 3210 3203 3183 3176 3297 3111 3318 3163 3251 3205 3205 3204 3171 3138 3135 3124 3170 3192 3255 3129 3229 3131 3179 3166 3232 3171 3147 3184 3192 3274 3255 3296 3229 3254 3176 3167 3250 3239 3272 3280 3320 3304 3237 3222 3305 3196 3202 3310 3313 3151 3335 3264 3305 3272 3254 3210 3387 3248 3263 3250 3504 3308 3233 3434 3364 3426 3410 3326 3344 3320 3380 3356 3390 3358 3398 3334 3385 3373 3461 3438 3520 3424 3496 3489 3375 3483 3463 3506 3532 3573 3549 3674 3589 3620 3758 3583 3530 3619 3657 3756 3780 3761 3701 3837 3756 3848 3798 3771 3815 3757 3806 3732 3787 3784 3757 3790 3739 3642 3634 3628 3510 3655 3647 3560 3512 3448 3501 3528 3641 3565 3572 3525 3461 3632 3446 3443 3492 3581 3611 3555 3501 3428 3507 3555 3519 3363 3453 3593 3523 3573 3469 3467 3575 3532 3545 3485 3466 3444 3559 3514 3626 3535 3497 3496 3494 3524 3503 3463 3585 3375 3444 3445 3449 3462 3451 3523 3539 3362 3520 3471 3458 3401 3435 3494 3432 3414 3403 3449 3393 3493 3407 3534 3332 3397 3400 3435 3372 3340 3413 3408 3336 3353 3397 3413 3436 3409 3427 3366 3486 3474 3373 3390 3384 3494 3416 3322 3345 3313 3522 3352 3315 3340 3300 3185 3290 3341 3322 3373 3294 3319 3287 3342 3313 3265 3305 3250 3261 3222 3401 3321 3204 3270 3335 3301 3245 3340 3265 3276 3262 3245 3264 3195 3371 3276 3313 3274 3256 3242 3251 3191 3290 3124 3292 3239 3150 3195 3199 3161 3265 3177 3180 3213 3238 3220 3208 3248 3365 3221 3201 3237 3224 3207 3124 3098 3197 3219 3194 3222 3181 3122 3244 3143 3267 3121 3145 3081 3305 3308 3227 3056 3303 3364 3225 3186 3215 3321 3259 3289 3242 3257 3133 3225 3112 3285 3239 3263 3208 3205 3269 3304 3332 3166 3244 3288 3273 3257 3324 3291 3225 3165 3325 3407 3349 3291 3264 3339 3197 3325 3299 3326 3430 3277 3273 3302 3393 3449 3378 3325 3280 3301 3388 3304 3232 3374 3185 3471 3451 3396 3392 3295 3365 3366 3398 3474 3315 3431 3204 3333 3315 3394 3396 3450 3447 3496 3471 3308 3570 3418 3433 3478 3391 3511 3471 3503 3499 3438 3359 3432 3468 3511 3483 3436 3485 3462 3522 3516 3511 3583 3606 3518 3555 3683 3743 3693 3594 3645 3553 3746 3599 3650 3689 3674 3725 3764 3697 3669 3670 3727 3754 3726 3704 3696 3819 3730 3832 3656 3712 3676 3821 3811 3775 3747 3808 3750 3880 4008 3918 3904 4020 3983 3987 4095 4075 4199 4138 4318 4231 4208 4472 4434 4588 4634 4725 4760 4755 4742 4837 4868 4988 4868 4858 4810 4866 4886 4666 4650 4343 4306 4158 4052 3991 4116 3908 3744 3846 3788 3689 3747 3839 3679 3691 3802 3666 3563 3633 3519 3578 3451 3611 3577 3529 3521 3446 3584 3597 3537 3652 3639 3693 3633 3741 3660 3868 3808 3807 3837 3869 3935 3875 3911 4027 3999 4141 3902 4189 3999 4134 4110 4082 4144 3870 3764 3720 3640 3655 3459 3412 3251 3252 3215 3326 3267 3161 3216 3228 3206 3224 3210 3174 3181 3134 3154 3212 3172 3190 3141 3104 3188 3069 3184 3140 3092 3119 3205 3128 3204 3139 3202 3132 3043 3174 3112 3147 3109 3051 3106 3102 3090 2995 3001 2993 2966 3040 3046 3067 3101 2964 3031 3050 3061 3008 2931 2892 3000 3045 2971 2897 2937 3075 2978 3049 2959 2970 3049 2876 2976 2921 2895 2878 2860 2864 2907 2955 2942 2902 2888 2864 2876 2836 2921 2947 2900 2924 2889 2935 2775 3019 2879 2926 2866 2915 2921 2948 2901 2884 2862 2778 2835 2888 2914 2846 2811 2931 2937 2890 2813 2700 2807 2981 2763 2784 2808 2873 2778 2899 2815 2826 2883 2900 2880 2913 2905 2781 2899 2878 2819 2814 2837 2680 2878 2787 2808 2806 2864 2887 2854 2791 2741 2832 2803 2757 2892 2845 2777 2809 2857 2862 2913 2787 2802 2879 2839 2875 2756 2761 2818 2790 2692 2827 2854 2710 2845 2760 2738 2799 2769 2780 2755 2781 2816 2755 2676 2754 2819 2814 2793 2778 2795 2712 2663 2747 2686 2804 2722 2739 2593 2718 2663 2692 2752 2701 2657 2770 2743 2788 2717 2810 2697 2664 2704 2799 2689 2774 2670 2706 2722 2695 2788 2605 2737 2698 2738 2775 2637 2640 2681 2696 2701 2700 2752 2757 2756 2597 2643 2702 2709 2705 2649 2630 2633 2667 2667 2644 2714 2684 2584 2644 2675 2706 2673 2644 2676 2674 2576 2620 2575 2588 2729 2606 2584 2645 2604 2668 2640 2721 2579 2643 2636 2672 2656 2573 2506 2610 2653 2634 2659 2724 2557 2548 2541 2563 2606 2545 2498 2563 2587 2567 2513 2528 2553 2591 2622 2564 2533 2565 2637 2608 2561 2494 2643 2597 2482 2557 2594 2425 2632 2531 2685 2527 2518 2617 2617 2556 2553 2600 2594 2631 2458 2534 2553 2578 2472 2571 2615 2520 2550 2503 2583 2577 2567 2528 2497 2497 2613 2524 2487 2547 2566 2456 2543 2540 2526 2588 2407 2507 2522 2549 2501 2480 2541 2467 2455 2430 2498 2494 2552 2488 2486 2495 2459 2515 2537 2527 2583 2436 2472 2451 2527 2468 2525 2449 2420 2361 2464 2420 2433 2425 2375 2383 2515 2502 2428 2337 2357 2459 2402 2464 2394 2388 2457 2425 2355 2352 2446 2378 2372 2469 2449 2432 2433 2363 2395 2342 2349 2374 2371 2343 2358 2370 2333 2371 2353 2370 2384 2334 2437 2315 2360 2378 2332 2365 2361 2359 2344 2379 2341 2311 2332 2373 2381 2445 2342 2351 2312 2370 2396 2309 2315 2287 2362 2276 2413 2365 2340 2321 2373 2327 2340 2277 2276 2351 2318 2307 2393 2315 2318 2361 2298 2334 2379 2352 2302 2342 2405 2324 2333 2324 2303 2311 2362 2348 2280 2231 2354 2265 2241 2397 2426 2397 2402 2317 2371 2326 2358 2335 2327 2351 2286 2289 2301 2364 2335 2257 2292 2291 2329 2378 2291 2311 2351 2278 2255 2266 2321 2239 2296 2278 2327 2371 2401 2336 2354 2236 2373 2328 2301 2337 2326 2306 2306 2300 2395 2216 2324 2349 2283 2305 2345 2222 2254 2335 2364 2359 2355 2337 2344 2362 2277 2293 2293 2304 2245 2277 2316 2405 2354 2225 2252 2272 2217 2363 2303 2397 2376 2283 2214 2234 2276 2277 2333 2305 2211 2278 2371 2264 2302 2310 2293 2324 2233 2294 2328 2276 2305 2187 2224 2285 2197 2228 2250 2222 2268 2214 2351 2300 2289 2166 2197 2280 2227 2216 2306 2145 2299 2285 2257 2263 2253 2310 2201 2186 2200 2189 2241 2211 2306 2236 2208 2213 2264 2174 2290 2275 2265 2314 2243 2203 2130 2164 2191 2223 2245 2142 2157 2191 2089 2189 2224 2188 2150 2049 2201 2155 2143 2160 2108 2150 2123 2105 2064 2072 2141 2169 2109 1948 2133 2100 2079 2053 2113 2156 2045 2106 2164 2154 2008 2132 2025 2001 2092 2015 1952 2112 1996 2041 2099 2005 2036 2042 2030 1950 1998 1996 2050 1925 1949 2032 2055 1924 1922 1956 2015 1923 1967 1851 1937 1914 1909 1924 1936 1868 1893 1910 1896 1929 1892 1952 1930 1969 1965 1892 1949 1901 1824 1889 1906 1850 1827 1854 1851 1782 1861 1772 1839 1832 1828 1809 1903 1805 1857 1858 1796 1832 1824 1800 1839 1862 1751 1824 1776 1772 1747 1698 1821 1769 1843 1806 1803 1781 1748 1793 1733 1827 1789 1776 1705 1663 1846 1730 1728 1778 1703 1706 1758 1820 1778 1701 1776 1825 1712 1754 1711 1653 1758 1678 1742 1695 1748 1639 1701 1723 1642 1759 1806 1730 1673 1757 1718 1766 1756 1708 1601 1714 1718 1689 1641 1686 1706 1710 1656 1681 1666 1689 1761 1632 1619 1755 1713 1682 1601 1673 1703 1664 1591 1758 1668 1713 1668 1737 1710 1688 1689 1696 1669 1660 1619 1650 1668 1652 1757 1714 1723 1649 1758 1654 1767 1701 1739 1710 1714 1815 1837 1701 1789 1727 1730 1793 1741 1800 1785 1771 1776 1728 1723 1790 1744 1640 1698 1649 1672 1571 1717 1623 1632 1560 1580 1565 1623 1561 1585 1620 1607 1616 1623 1615 1632 1609 1616 1675 1568 1593 1565 1529 1547 1558 1622 1582 1578 1600 1583 1533 1562 1543 1562 1457 1567 1575 1531 1529 1588 1613 1500 1552 1535 1596 1487 1561 1589 1717 1616 1550 1594 1578 1572 1569 1564 1505 1568 1568 1530 1598 1599 1655 1663 1614 1543 1523 1523 1516 1552 1495 1546 1602 1565 1553 1615 1566 1558 1622 1618 1550 1657 1580 1533 1608 1566 1554 1635 1542 1585 1604 1626 1589 1599 1559 1538 1679 1527 1536 1584 1569 1525 1522 1628 1586 1542 1528 1560 1573 1589 1591 1553 1557 1594 1515 1503 1559 1485 1566 1566 1616 1634 1617 1588 1561 1530 1605 1658 1511 1590 1542 1572 1540 1617 1573 1632 1561 1505 1480 1577 1511 1524 1560 1550 1502 1546 1502 1568 1570 1559 1464 1548 1540 1525 1556 1511 1564 1542 1543 1567 1530 1521 1506 1574 1479 1578 1473 1451 1455 1494 1439 1499 1511 1473 1479 1524 1508 1549 1449 1526 1538 1484 1458 1457 1460 1571 1431 1445 1479 1400 1425 1469 1488 1419 1395 1415 1419 1418 1462 1405 1454 1467 1449 1453 1438 1383 1396 1362 1357 1425 1382 1400 1407 1451 1400 1350 1329 1375 1343 1394 1354 1322 1426 1307 1396 1400 1348 1331 1352 1254 1318 1324 1330 1383 1403 1295 1339 1357 1349 1311 1340 1356 1313 1229 1330 1335 1356 1285 1332 1332 1292 1282 1321 1345 1230 1310 1276 1292 1339 1224 1266 1304 1298 1372 1324 1310 1229 1253 1267 1259 1307 1340 1306 1335 1358 1261 1305 1310 1318 1269 1300 1300 1255 1248 1268 1264 1312 1330 1224 1327 1287 1378 1276 1402 1283 1359 1263 1341 1359 1360 1390 1351 1412 1348 1405 1386 1348 1384 1286 1418 1410 1352 1290 1318 1367 1266 1264 1275 1286 1306 1332 1293 1391 1333 1375 1384 1365 1389 1383 1421 1453 1448 1526 1557 1453 1533 1545 1641 1523 1533 1604 1661 1655 1684 1580 1619 1553 1565 1473 1485 1358 1401 1350 1318 1261 1321 1247 1292 1219 1261 1167 1207 1196 1202 1169 1240 1173 1241 1148 1210 1183 1080 1140 1154 1147 1162 1182 1193 1152 1172 1109 1189 1060 1199 1134 1092 1116 1187 1122 1213 1113 1164 1131 1106 1187 1196 1168 1133 1152 1218 1133 1246 1277 1299 1381 1376 1380 1355 1364 1587 1592 1700 1757 1772 1813 1836 1755 1908 1792 1846 1849 1979 1848 1805 1777 1843 1737 1680 1801 1688 1668 1591 1561 1609 1688 1679 1620 1681 1778 1723 1820 1840 1965 1894 2073 2295 2269 2350 2567 2814 2938 3196 3294 3449 3650 3756 3800 4111 4227 4188 4135 4232 4030 4142 3942 3768 3590 3387 3071 2736 2549 2302 2189 2037 1935 1804 1634 1534 1487 1433 1368 1407 1388 1382 1338 1243 1304 1363 1359 1352 1370 1232 1322 1316 1378 1264 1320 1239 1277 1254 1212 1261 1242 1195 1057 1104 1100 1115 1121 1041 1055 1044 1020 1011 978 971 1055 963 947 961 975 960 1027 970 903 967 1046 1000 990 946 967 1001 992 1002 908 930 939 958 997 1017 968 962 1025 983 910 957 989 935 936 972 977 946 953 929 967 958 974 935 929 979 981 924 918 902 944 979 964 942 973 924 979 939 943 970 980 928 953 956 1006 976 923 934 895 962 962 907 922 996 976 925 989 917 970 950 941 927 896 923 927 1000 913 926 917 933 953 930 873 910 904 855 851 855 877 863 914 901 923 925 810 913 924 859 885 907 940 881 872 902 896 874 890 900 841 916 848 844 859 870 825 880 826 855 864 832 838 824 854 857 890 850 877 895 836 884 873 839 892 867 818 833 834 801 846 859 900 826 862 874 872 849 854 905 898 847 908 849 799 889 810 874 861 898 895 851 840 786 852 858 804 839 799 791 833 813 846 847 815 839 817 793 893 866 768 842 853 837 794 802 848 819 880 837 835 853 829 820 777 781 867 787 872 839 791 839 790 825 812 803 812 814 842 790 827 807 821 825 838 828 791 792 786 879 812 838 831 853 785 853 868 837 794 801 792 808 843 824 819 862 823 767 815 854 771 823 826 811 805 824 863 833 826 877 857 802 839 871 840 882 817 836 857 858 868 894 903 884 850 846 865 872 903 885 891 898 896 889 869 871 872 854 922 919 854 851 895 876 896 897 932 916 1004 934 950 938 952 970 889 992 949 984 999 996 1066 998 993 1030 1022 1039 1003 1044 1083 1035 1054 1082 1072 1083 1114 1266 1234 1331 1305 1463 1483 1547 1599 1692 1750 1937 1975 2096 2133 2203 2155 2267 2301 2293 2195 2219 2158 2142 2121 2041 2137 2098 2109 2096 2179 2144 2143 2053 2127 2163 2268 2219 2399 2472 2572 2573 2852 2715 3108 3187 3474 3634 3836 4020 4511 4827 4979 5221 5392 5231 5440 5500 5296 5185 5110 4668 4556 4044 3677 3495 3117 2923 2641 2397 2189 1894 1772 1620 1546 1442 1350 1230 1201 1100 1134 1126 1073 1076 1097 1028 986 980 958 886 959 919 930 990 929 939 939 899 942 938 933 894 888 908 889 923 892 868 890 899 929 873 830 829 854 898 883 896 869 839 813 920 858 912 876 794 786 794 853 784 872 764 816 800 775 768 764 847 768 753 824 784 837 814 819 791 795 792 828 800 819 825 863 853 824 852 831 823 846 852 878 833 820 796 816 837 820 849 793 821 789 813 803 749 803 820 777 831 800 787 793 760 828 771 766 799 768 762 782 792 824 851 832 836 812 813 776 796 860 765 787 778 812 745 810 815 825 780 804 786 853 770 816 850 842 843 843 881 845 845 851 858 879 878 930 861 987 927 933 1026 988 1012 956 920 949 928 928 893 903 897 867 815 856 881 856 833 781 831 749 755 746 727 763 760 738 789 737 789 762 730 726 755 736 733 698 711 696 650 675 672 673 757 759 726 709 668 693 658 697 667 738 760 691 685 694 689 700 708 666 691 750 665 730 666 687 733 705 697 702 668 773 704 673 700 691 694 669 688 660 725 703 658 693 691 704 701 696 704 665 698 616 653 730 729 668 696 719 749 678 655 676 727 716 665 681 691 665 696 655 733 699 691 741 693 727 681 696 676 710 707 693 671 726 707 714 707 721 720 657 666 695 683 736 709 705 692 669 689 618 641 681 621 621 631 671 696 683 674 660 633 638 653 696 644 660 657 724 675 629 685 662 657 654 652 699 631 682 672 658 661 652 626 695 682 672 691 627 687 634 661 649 631 647 666 685 661 667 660 611 654 627 641 640 618 644 644 590 625 664 609 650 683 664 644 628 650 665 633 675 697 637 669 627 602 628 656 639 614 639 654 643 678 674 662 662 629 699 667 650 622 614 640 639 673 659 640 662 642 653 622 623 642 643 654 623 610 616 657 619 723 669 651 629 612 648 695 635 632 641 623 669 658 594 669 650 701 660 600 651 670 619 593 636 653 658 589 690 615 658 627 681 660 589 604 643 603 648 591 641 567 632 649 637 618 662 620 586 666 675 632 638 630 658 620 652 625 620 615 630 632 655 644 658 668 653 630 619 674 642 643 693 631 649 627 631 667 618 597 658 649 618 622 628 628 642 651 627 624 685 617 652 603 646 647 603 633 665 589 677 622 629 639 557 667 602 654 665 662 650 640 646 628 607 604 616 586 605 607 634 587 628 597 596 603 653 622 638 617 619 576 617 649 602 603 602 584 605 616 599 626 613 618 636 604 604 607 550 569 666 588 577 563 587 588 605 615 592 551 613 573 621 599 625 616 614 571 614 590 621 594 550 645 618 555 620 578 589 583 633 646 593 587 592 612 617 601 603 574 577 602 608 583 587 567 622 582 605 635 627 648 610 583 557 572 619 592 610 607 641 604 580 606 600 583 590 579 609 565 617 595 645 591 584 598 581 568 576 641 547 569 597 584 581 606 611 582 599 623 583 631 616 601 606 578 590 612 645 573 634 611 641 601 615 625 681 644 636 579 609 612 536 584 593 596 621 614 638 570 608 630 650 574 614 616 633 615 570 619 604 584 624 565 596 609 620 622 646 593 586 548 584 596 622 592 610 579 662 565 619 586 624 650 554 615 600 599 588 591 641 616 597 595 600 585 574 639 594 566 627 548 608 577 592 615 589 580 629 579 567 609 596 633 642 583 614 571 594 602 580 626 634 643 584 614 603 545 553 625 610 575 662 572 616 584 625 573 600 589 571 545 573 578 620 652 606 598 586 616 626 576 543 597 593 568 628 623 604 542 560 606 557 610 585 606 629 581 558 602 616 555 642 604 577 597 612 614 600 600 557 571 567 657 557 590 609 601 589 601 579 630 596 570 596 531 592 568 573 591 562 576 566 568 597 589 612 643 590 564 591 566 620 564 580 560 572 595 623 607 611 615 615 603 613 575 610 667 564 584 603 602 552 604 606 601 612 588 576 568 590 576 578 589 549 605 592 581 605 607 604 590 626 591 595 613 573 591 575 567 557 604 599 597 606 601 662 595 588 575 623 599 622 611 615 591 647 620 612 614 626 643 612 592 627 656 653 618 653 624 591 665 673 671 672 744 672 719 670 670 676 750 701 788 777 772 768 821 787 737 836 770 772 808 797 748 766 780 755 783 718 732 709 776 690 791 759 757 722 724 762 742 792 764 850 829 894 855 914 878 969 950 986 1025 984 1053 1049 1075 1090 1093 1062 1051 955 923 1000 926 909 860 887 797 807 766 761 683 699 766 698 656 667 673 632 607 578 591 612 534 613 586 651 610 634 600 627 638 591 554 570 605 586 604 589 550 577 547 591 563 566 566 567 584 601 569 584 559 549 600 582 580 573 581 518 566 616 583 587 593 553 557 581 547 597 577 590 576 545 594 589 538 576 523 595 591 597 576 599 569 573 541 524 580 514 560 527 542 559 588 591 560 482 537 545 589 572 587 596 549 533 541 518 585 545 582 577 536 552 544 536 514 598 518 548 548 556 554 578 532 587 576 568 546 524 566 531 568 585 557 579 566 563 558 588 603 545 543 529 543 562 571 602 590 517 551 543 562 563 566 529 566 563 549 521 557 528 550 548 575 510 542 568 600 572 582 560 559 526 554 564 531 585 609 543 566 525 537 566 603 566 527 569 572 546 560 577 593 537 555 558 576 586 539 611 593 612 614 561 636 586 557 615 597 563 583 583 621 588 565 617 612 591 646 641 591 638 571 613 592 567 557 607 597 574 609 603 574 571 605 539 568 556 617 627 614 677 626 608 612 604 597 607 592 589 600 569 582 615 629 614 615 589 590 552 576 630 623 580 576 611 597 580 552 557 565 605 539 569 566 548 545 597 539 582 552 527 526 558 598 561 552 580 509 538 614 553 590 568 542 527 569 564 573 574 528 544 538 534 616 623 613 581 567 611 576 597 574 532 629 590 577 619 600 576 637 576 587 619 566 618 601 600 598 636 650 652 713 637 691 726 734 798 821 920 969 1048 1135 1228 1286 1424 1447 1538 1418 1516 1600 1459 1493 1566 1534 1577 1530 1526 1510 1563 1577 1565 1520 1524 1500 1511 1646 1572 1498 1628 1728 1709 1879 1862 1982 2035 2237 2225 2374 2450 2668 2784 3002 3265 3308 3473 3440 3547 3431 3225 3184 3075 2985 2813 2653 2554 2451 2306 2128 2044 1981 1860 1766 1694 1508 1387 1318 1192 1083 1029 934 912 831 811 788 758 761 773 712 758 749 746 697 716 739 676 712 664 702 691 662 691 687 696 615 664 662 626 690 593 670 602 632 613 597 638 583 616 594 591 579 587 605 565 567 603 562 535 577 596 540 554 598 553 538 604 607 607 555 589 563 635 546 583 563 581 568 564 561 556 585 567 536 527 578 522 569 529 493 568 535 525 549 546 504 568 560 522 536 554 484 514 515 483 511 505 533 579 513 486 528 571 488 490 498 547 520 492 502 522 484 496 552 524 535 509 531 518 490 506 517 493 519 506 540 513 480 516 525 524 482 546 509 515 500 528 555 534 568 536 507 544 534 522 510 508 493 495 523 524 535 583 498 586 593 519 567 609 552 601 592 638 567 585 578 628 614 655 607 598 632 627 615 688 655 644 599 628 645 597 647 632 678 645 658 662 698 669 662 737 655 719 708 682 824 737 759 848 848 864 840 807 839 824 801 848 821 795 811 747 705 715 704 696 705 688 668 668 674 656 668 603 602 597 616 618 570 553 576 565 568 534 567 542 559 606 560 523 540 536 504 574 539 524 578 531 529 483 562 558 536 549 541 562 576 578 543 597 558 590 620 585 603 576 610 564 631 589 572 592 626 562 587 598 617 586 577 566 544 587 524 529 475 534 543 540 541 529 530 518 501 495 461 509 479 513 528 508 519 503 501 468 465 518 478 521 479 478 481 528 477 467 502 457 500 512 500 493 499 472 493 524 534 495 475 539 537 462 495 488 505 506 489 473 488 487 480 493 437 523 464 497 483 487 478 510 466 493 452 469 483 453 499 448 514 467 467 462 448 475 528 445 449 482 473 435 433 460 467 478 459 488 488 482 465 483 470 426 458 491 465 489 420 444 482 448 479 464 512 481 437 485 435 482 450 445 471 445 470 485 444 447 469 471 465 465 452 431 431 435 470 448 433 486 469 432 438 516 468 447 451 483 477 462 437 437 445 441 467 475 485 452 455 406 444 446 476 415 438 472 450 445 452 488 472 420 464 465 427 448 433 507 456 430 483 461 483 507 458 431 477 464 509 477 493 461 513 460 464 448 465 421 464 427 459 452 479 451 485 464 453 455 495 441 502 474 527 491 493 460 481 499 483 495 451 451 468 487 470 504 455 520 449 489 445 474 450 499 465 466 458 456 482 448 466 480 467 462 452 444 458 462 462 476 442 469 418 438 438 429 433 442 452 402 435 458 476 466 428 434 424 448 493 442 419 466 436 398 407 395 437 455 440 435 442 419 448 431 405 423 450 468 427 453 460 395 453 446 445 459 424 445 440 463 410 437 428 420 437 420 442 473 449 416 455 465 467 435 433 450 412 442 461 446 437 453 473 443 427 445 418 426 472 409 418 393 414 485 442 433 421 474 456 437 438 423 451 483 421 468 448 478 412 449 465 436 470 464 449 442 419 452 448 414 470 453 460 481 481 436 457 446 408 481 469 486 436 466 465 511 478 492 415 447 461 463 441 467 444 495 489 505 480 497 477 466 471 467 526 467 489 479 531 486 515 502 505 476 511 474 509 465 512 532 479 497 471 471 455 490 424 496 430 468 464 466 492 410 481 468 444 442 431 479 480 473 395 464 434 439 420 424 432 439 457 469 387 446 453 465 442 431 475 455 443 436 446 433 472 488 494 457 494 449 434 482 454 489 448 455 486 482 470 448 458 484 481 490 496 472 487 462 452 518 466 480 505 517 492 523 467 507 500 587 502 490 512 474 515 475 485 535 498 496 553 514 481 483 524 484 539 552 527 568 523 568 617 584 602 624 610 654 660 612 650 617 577 680 601 650 634 605 627 613 669 668 667 631 629 611 683 646 715 663 723 764 731 785 701 800 771 831 875 852 862 918 862 938 966 887 920 918 848 878 838 822 773 718 732 701 721 713 679 690 686 702 674 617 591 582 555 576 539 543 467 542 492 464 437 488 416 459 467 426 439 431 472 430 433 446 412 463 457 443 454 450 454 434 467 405 424 429 434 452 426 424 447 443 465 463 427 404 450 460 418 442 423 491 421 443 453 408 468 416 432 471 444 418 426 433 433 427 431 414 406 430 420 409 390 428 414 459 468 427 419 426 422 419 411 458 413 454 414 433 426 440 441 449 416 430 430 479 392 427 413 427 416 443 383 420 422 438 394 388 432 414 475 418 424 411 414 410 424 406 411 436 424 426 441 428 440 458 410 399 417 405 403 429 418 368 406 410 438 435 467 428 397 461 440 459 439 412 391 405 411 433 450 414 417 446 413 397 410 462 425 428 420 437 408 391 395 404 406 417 419 414 432 429 374 423 435 408 414 403 435 441 420 425 451 426 412 456 457 432 404 451 425 456 463 429 488 472 444 439 459 445 502 496 548 584 600 595 673 683 712 703 706 700 743 698 746 728 744 666 654 714 729 745 706 778 709 742 778 788 791 796 778 875 851 930 954 970 976 1124 1096 1123 1156 1228 1265 1289 1371 1368 1335 1332 1266 1313 1138 1208 1166 1117 1047 1051 1046 1028 970 919 981 969 920 892 870 804 802 796 742 716 658 634 608 601 597 547 529 547 523 522 485 518 518 474 519 502 465 482 494 487 483 474 466 451 495 504 504 455 472 454 463 450 481 517 472 479 438 462 504 460 484 472 426 432 435 483 479 509 453 525 448 470 469 473 447 477 501 485 446 502 471 508 434 499 465 440 442 413 402 456 440 392 412 389 465 425 448 423 422 452 459 424 430 390 382 419 369 426 408 441 406 436 423 445 434 384 435 460 408 438 426 423 428 437 411 431 396 398 407 395 384 400 421 432 410 401 391 382 409 380 403 412 434 428 431 443 441 441 470 436 446 465 477 466 465 499 425 463 450 457 434 495 417 463 497 439 481 501 478 473 523 507 484 477 476 499 488 484 495 484 523 543 546 559 580 559 566 574 581 529 610 586 620 587 555 582 538 542 515 533 505 530 516 498 509 544 491 490 489 412 473 435 467 430 466 383 431 428 415 426 425 416 402 455 413 410 386 402 388 415 393 443 436 437 443 391 432 428 449 394 444 426 417 407 383 407 448 432 416 445 427 427 442 407 428 425 402 416 400 450 426 433 438 460 451 402 409 397 434 444 405 423 425 433 386 441 425 414 419 387 381 394 418 439 404 408 409 426 399 381 369 391 388 392 398 393 380 414 379 394 394 400 404 402 389 351 410 410 406 373 420 409 413 399 428 416 411 417 439 435 372 386 391 396 390 413 389 417 427 380 417 440 354 411 372 407 416 417 442 423 419 390 405 424 420 378 422 398 394 364 365 409 407 380 405 393 373 413 394 446 436 425 429 398 383 418 355 394 394 397 404 390 416 414 379 414 417 398 372 396 386 386 407 391 416 383 414 393 376 378 342 390 348 407 393 406 391 394 377 379 391 361 396 355 333 365 382 381 378 362 387 349 360 383 369 380 373 370 381 351 357 375 392 392 400 394 311 379 339 364 367 367 360 391 346 402 364 353 413 392 380 375 342 342 409 402 346 363 408 361 369 400 389 383 368 383 391 400 361 375 378 376 421 364 422 379 347 412 410 393 348 381 365 416 407 366 383 388 381 407 371 411 366 385 307 374 376 336 398 419 392 363 382 383 350 375 345 421 397 381 407 397 413 405 396 355 385 392 395 356 372 410 373 350 403 352 352 338 413 382 363 387 356 364 362 438 403 379 404 384 405 349 351 380 400 377 334 402 362 358 371 378 369 394 370 389 400 391 399 385 393 401 355 386 379 382 427 373 336 354 349 424 328 369 343 382 364 406 339 387 364 377 390 343 375 355 393 388 354 354 370 375 351 403 418 372 352 365 376 384 351 377 340 351 381 365 374 370 378 363 377 370 362 358 379 329 378 354 349 350 389 389 361 355 393 341 402 384 371 347 332 369 374 357 371 341 363 361 356 372 370 348 355 374 350 376 352 384 382 355 357 372 384 372 374 331 376 368 364 368 365 373 373 417 401 389 371 395 408 413 430 393 393 403 389 386 398 401 382 412 379 418 399 406 460 432 426 438 454 412 457 477 445 460 438 481 423 424 457 480 449 465 466 448 432 441 432 446 455 446 455 384 422 388 424 412 407 405 459 454 450 435 357 401 392 414 366 395 398 391 388 416 354 417 378 377 346 373 400 373 347 368 358 344 383 370 359 359 334 352 352 376 360 426 351 345 365 366 341 389 381 372 408 349 363 378 378 354 357 336 365 349 373 348 359 377 346 352 391 349 354 343 369 365 356 394 358 407 358 359 394 379 373 346 349 345 382 349 340 349 407 334 373 321 335 320 344 342 394 377 343 366 364 356 349 343 344 368 395 342 398 344 384 391 371 359 371 375 373 409 370 364 360 354 389 349 340 356 360 357 364 413 370 347 344 334 399 395 415 391 361 333 379 393 375 397 343 381 388 311 361 393 369 349 353 354 349 385 331 389 409 375 374 365 359 355 340 333 378 324 367 336 339 347 345 362 398 354 334 360 350 378 343 332 363 348 355 328 354 380 367 351 333 312 355 341 380 394 320 333 351 401 347 351 341 364 361 332 385 355 355 356 343 327 389 340 392 341 394 351 346 339 381 357 355 364 348 378 375 360 347 362 377 374 350 378 379 364 355 363 316 380 365 340 366 339 389 391 366 437 361 393 446 373 396 472 449 429 468 457 441 457 500 457 511 490 485 481 492 465 501 509 491 521 540 534 540 535 564 535 542 589 590 572 559 583 570 617 631 667 701 672 685 685 637 689 670 695 659 565 653 577 570 554 532 546 514 517 511 534 533 502 562 498 490 480 443 492 440 432 428 431 447 443 414 414 412 392 401 384 358 374 369 391 399 393 372 376 391 398 377 365 347 403 365 362 373 358 374 360 362 390 361 345 337 367 340 366 355 330 359 378 356 381 345 342 361 362 351 383 330 354 345 380 352 358 385 344 352 350 348 368 352 363 378 359 362 316 361 352 378 380 344 390 337 351 347 370 344 378 341 384 367 389 403 386 367 382 414 398 372 336 334 323 374 365 361 411 364 379 372 358 358 356 331 384 355 373 333 348 354 360 356 381 373 351 319 365 363 383 361 317 365 331 407 381 376 349 337 355 382 328 359 351 359 353 360 355 389 360 341 362 333 389 352 366 365 325 364 353 358 369 334 349 359 353 379 312 374 341 361 359 366 344 363 332 372 322 388 354 338 331 351 352 350 318 339 321 359 389 393 367 334 347 358 337 367 353 369 331 325 398 332 359 359 376 382 377 367 352 354 375 365 299 347 312 397 334 370 359 351 361 348 346 336 367 361 332 335 337 371 355 349 341 358 335 374 344 305 329 358 391 377 381 346 357 346 359 356 310 356 347 342 348 371 344 355 357 351 365 334 343 364 355 332 349 335 349 327 367 383 368 346 361 305 334 342 340 337 371 359 373 358 348 358 339 334 332 341 378 354 378 341 358 290 325 353 343 341 322 327 366 322 369 361 372 374 356 383 360 370 344 363 386 358 355 367 333 348 371 348 381 336 354 358 353 337 380 357 404 377 331 344 361 340 342 321 341 322 303 331 359 359 335 367 323 354 357 350 342 342 333 373 377 367 339 348 366 315 340 382 339 331 341 380 358 337 352 335 364 342 366 369 319 368 330 358 360 344 340 380 334 372 385 360 351 385 356 366 365 408 349 376 341 368 338 391 318 380 350 380 370 360 367 321 386 376 343 364 372 366 341 355 356 342 363 343 340 376 328 365 352 402 328 369 355 349 340 361 341 349 344 316 364 345 331 375 366 383 378 390 361 332 347 344 339 350 320 347 348 361 360 351 311 350 339 361 322 348 359 347 372 345 391 359 344 385 367 352 335 317 325 379 345 325 372 347 348 357 354 340 380 314 350 355 343 390 376 342 358 347 365 371 341 342 325 351 363 350 348 335 379 320 358 320 325 321 310 350 348 364 349 373 349 361 341 376 365 359 314 342 360 339 372 362 355 374 332 345 345 362 364 336 338 338 359 339 361 332 349 345 359 350 323 364 361 334 326 375 341 367 354 333 365 353 344 364 341 364 339 346 353 350 351 382 322 358 343 362 354 341 384 340 361 346 310 349 371 355 365 321 359 368 339 354 393 353 338 383 337 384 354 365 381 372 337 329 388 404 382 371 380 380 385 400 402 407 383 380 342 371 369 364 383 380 384 422 408 421 408 393 372 409 422 433 380 454 458 440 427 437 456 431 426 442 436 433 432 435 397 436 416 444 411 383 394 402 432 391 447 433 419 404 433 414 416 436 461 459 475 474 479 443 456 481 424 442 462 445 435 405 426 435 485 460 453 482 494 449 458 452 465 498 487 502 510 461 493 547 518 527 585 531 552 574 509 539 555 517 527 474 481 500 450 467 463 411 460 419 446 444 424 394 491 494 463 454 441 494 443 465 423 407 371 391 371 410 360 381 383 394 387 348 395 364 366 399 392 360 339 332 353 379 373 370 339 379 354 346 351 358 397 345 355 418 340 380 371 378 335 359 343 367 356 366 363 359 335 359 353 362 365 345 362 354 378 352 383 352 359 343 365 352 372 363 330 330 378 366 354 365 361 379 346 355 348 350 328 332 319 372 361 361 373 373 323 393 368 358 335 406 358 359 384 349 331 330 385 323 347 359 375 362 368 379 358 372 356 361 369 370 373 385 328 371 377 355 340 381 414 337 350 342 376 370 379 386 368 358 359 354 399 384 405 391 351 394 364 339 380 379 372 346 386 366 369 388 388 358 388 380 395 389 361 382 407 396 418 399 396 398 375 429 395 467 476 501 504 551 511 567 573 627 631 585 599 635 626 647 626 685 634 630 635 674 694 651 679 711 682 752 796 883 850 852 922 944 1001 1028 1086 1018 1079 1100 1051 1053 1079 1054 1003 1018 1005 851 853 840 796 768 742 731 681 784 672 750 694 742 727 691 726 709 697 763 693 700 696 606 593 621 559 492 528 460 474 470 457 476 433 453 424 451 434 427 411 455 406 443 394 459 419 398 368 411 397 376 387 378 396 413 390 375 376 386 386 358 393 403 353 406 389 411 391 432 364 384 379 422 382 398 399 407 366 380 419 368 389 381 396 371 399 365 382 371 389 358 376 355 342 353 395 360 364 397 375 356 346 368 344 369 330 340 327 347 403 351 342 371 381 419 367 385 372 408 389 384 382 345 380 379 377 388 379 366 374 353 333 389 365 374 371 386 430 402 415 396 377 398 422 435 392 390 395 380 394 397 418 383 399 409 399 436 408 420 461 384 449 437 426 421 475 435 438 449 414 428 444 388 430 400 395 411 435 405 388 374 428 392 390 380 375 357 390 366 382 356 334 402 396 370 383 320 341 385 347 362 373 337 359 345 395 354 366 355 369 347 344 354 331 338 340 348 344 347 348 326 358 317 383 337 363 355 331 362 353 346 358 373 373 377 388 362 349 344 368 331 360 343 331 318 373 354 368 383 324 334 368 375 339 378 330 400 360 395 360 341 332 338 386 327 333 339 338 364 390 332 383 335 366 329 319 349 323 362 336 357 321 338 325 345 353 336 338 335 357 339 346 369 354 331 351 336 348 359 347 337 336 353 361 350 348 339 311 345 314 358 344 347 334 370 364 367 338 318 335 346 357 345 330 362 301 368 349 314 363 338 393 343 341 344 319 301 349 355 356 349 375 366 359 330 342 348 366 345 368 356 352 330 339 345 356 351 341 369 335 360 325 348 355 343 317 317 366 348 347 342 341 352 340 350 342 317 358 327 318 371 333 390 339 321 350 342 340 353 337 339 327 344 335 334 337 354 340 355 341 356 371 328 285 349 357 336 352 353 323 357 314 347 328 325 337 374 347 379 339 349 357 373 383 364 363 368 317 361 307 382 359 327 356 342 345 312 367 320 380 373 345 382 354 338 331 369 359 360 366 343 381 372 374 340 328 372 360 353 357 336 380 318 350 369 370 381 310 368 352 352 323 332 332 335 351 327 342 336 353 320 355 346 355 354 364 357 333 349 350 318 339 368 351 325 343 329 327 316 331 356 378 332 357 335 366 356 329 360 363 341 342 334 360 346 356 334 374 339 381 331 351 324 400 292 330 358 334 400 384 357 376 377 375 372 381 401 367 325 350 359 347 340 327 394 334 365 341 369 360 351 375 370 345 346 347 352 379 341 359 351 368 380 361 383 340 362 361 365 330 358 325 341 346 367 331 338 341 325 344 345 363 362 386 404 360 382 353 351 330 374 343 363 360 358 364 411 406 371 348 343 368 357 371 352 364 345 362 387 374 358 399 405 361 415 392 399 394 391 427 384 397 418 384 393 443 420 425 429 382 430 443 393 425 421 399 390 379 363 375 431 376 398 398 404 391 348 417 356 391 347 347 372 377 350 402 358 381 388 373 382 383 331 401 346 339 339 342 364 340 321 329 356 338 294 346 346 360 348 376 352 339 321 348 367 347 344 344 351 369 355 322 349 361 347 320 348 377 324 372 328 345 344 324 328 343 367 343 351 312 342 333 336 331 344 340 343 376 350 335 371 329 370 329 323 349 321 342 326 334 355 322 346 370 320 365 350 336 339 328 346 338 361 328 374 328 332 353 337 347 360 353 365 338 355 357 340 359 368 348 344 338 329 302 323 332 325 353 377 371 357 326 333 357 353 336 364 353 329 331 321 346 351 341 329 339 360 336 309 376 325 335 352 323 361 314 355 338 368 391 364 330 339 357 352 346 367 339 356 338 343 350 363 380 349 383 349 353 324 337 357 350 392 339 337 326 365 363 346 340 384 346 385 356 373 388 357 337 365 384 375 341 346 365 359 378 362 392 358 369 359 341 387 332 394 348 372 377 371 373 359 368 375 381 409 358 360 358 372 408 386 411 430 440 442 471 420 466 427 485 519 498 533 508 546 536 553 560 554 572 575 589 591 609 575 599 604 639 623 694 681 709 763 759 799 833 884 934 921 958 949 957 985 938 903 856 827 845 755 759 660 665 632 638 637 630 577 570 571 594 620 559 623 644 644 622 599 611 617 643 579 595 593 578 582 601 555 477 534 460 445 461 433 422 405 409 400 378 429 421 413 354 393 347 407 389 385 401 317 382 351 364 415 380 403 376 402 362 364 395 352 366 349 355 366 379 385 353 366 394 368 392 331 363 374 344 341 355 319 361 392 346 360 357 355 393 403 357 338 369 301 365 278 376 347 359 349 347 364 317 331 332 335 340 319 355 322 339 337 371 352 363 360 365 357 353 321 379 336 356 334 351 369 328 361 314 318 378 411 361 367 370 326 360 350 373 374 369 351 353 340 379 369 394 334 364 345 376 372 348 333 374 380 365 389 364 383 401 365 384 383 380 371 409 406 388 382 350 369 382 387 399 375 354 361 367 404 348 392 348 377 406 368 374 372 331 370 339 416 374 349 345 362 372 341 335 355 329 368 359 343 371 334 343 360 367 336 353 373 353 327 322 332 348 336 318 344 357 317 358 340 346 323 362 322 328 335 303 345 368 337 335 300 333 354 338 338 339 339 347 326 353 328 339 336 358 329 332 332 409 342 329 301 337 356 337 352 345 302 344 341 353 346 346 337 349 340 336 362 315 371 367 350 338 319 334 354 336 357 317 345 323 371 337 373 361 346 345 332 332 333 340 303 359 360 300 344 321 325 346 331 396 304 324 325 371 337 340 341 357 333 359 274 354 345 318 368 371 347 330 350 342 309 332 321 360 308 328 316 345 341 367 324 311 355 325 349 329 352 318 345 335 304 309 306 322 345 325 338 339 318 319 366 280 351 329 292 316 333 348 320 348 349 328 323 326 328 348 345 355 311 346 338 349 336 340 323 340 324 330 409 328 319 283 314 338 323 327 341 318 349 343 308 323 284 341 320 326 338 335 335 375 344 303 324 357 358 321 353 330 325 345 323 351 341 337 377 350 322 342 317 349 318 314 304 314 346 336 335 303 340 346 329 348 338 354 318 332 355 325 329 321 313 371 323 323 353 316 330 386 321 336 316 346 315 360 321 338 302 304 329 315 343 325 324 324 350 316 325 300 316 324 314 346 311 354 327 325 337 334 339 320 355 336 330 313 341 319 348 328 332 317 316 382 380 298 322 307 339 325 312 331 322 341 302 318 333 345 340 342 360 328 337 311 360 318 327 321 335 295 332 350 347 345 337 343 353 337 354 335 343 336 377 321 342 314 368 314 328 351 350 311 314 308 310 343 333 344 361 338 313 317 336 342 337 342 354 339 352 326 316 366 329 358 315 335 326 376 313 320 306 340 403 303 345 353 343 343 364 357 372 286 345 336 331 341 333 319 338 349 380 376 357 368 362 376 376 392 385 413 370 400 432 371 450 384 419 386 422 417 424 402 441 394 452 419 424 447 452 482 436 496 441 426 479 458 461 449 446 471 454 465 435 473 436 449 420 428 430 414 455 427 403 395 425 429 393 420 400 395 422 423 419</counts>
			</dataPoints>
		</scan>
	</xrdMeasurement>
</xrdMeasurements>
