<?xml version="1.0"?>
<xrdMeasurements xmlns="http://www.xrdml.com/XRDMeasurement/2.3" xmlns:xsi="http://www.w3.org/2001/XMLSchema-instance" xsi:schemaLocation="http://www.xrdml.com/XRDMeasurement/2.3 http://www.xrdml.com/XRDMeasurement/2.3/XRDMeasurement.xsd" status="Completed" recordIdentifier="{16527417-30B2-4B92-B1A0-6FC4D53077C0}">
	<comment>
		<entry/>
	</comment>
	<sample type="To be analyzed">
		<id>GPSS_Li1p3Mn0p1Zr0p2Y0p3Fe0p4Cl4_122125_69474145f4d05ae3d697aeeb</id>
		<name></name>
		<preparedBy></preparedBy>
	</sample>
	<xrdMeasurement measurementType="Scan" status="Completed" sampleMode="Reflection">
		<usedWavelength intended="K-Alpha 1">
			<kAlpha1 unit="Angstrom">1.5405980</kAlpha1>
			<kAlpha2 unit="Angstrom">1.5444260</kAlpha2>
			<kBeta unit="Angstrom">1.3922500</kBeta>
			<ratioKAlpha2KAlpha1>0.5000</ratioKAlpha2KAlpha1>
		</usedWavelength>
		<incidentBeamPath>
			<radius unit="mm">145.00</radius>
			<xRayTube id="1010048" name="Empyrean Cu LFF HR (9430 033 7310x)">
				<tension unit="kV">40.0</tension>
				<current unit="mA">15.0</current>
				<anodeMaterial>Cu</anodeMaterial>
				<focus type="Line">
					<length unit="mm">12.0</length>
					<width unit="mm">0.4</width>
					<takeOffAngle unit="deg">6.0</takeOffAngle>
				</focus>
			</xRayTube>
			<sollerSlit id="21010002" name="Soller slits 0.04 rad.">
				<opening unit="rad">0.0400</opening>
			</sollerSlit>
			<mask id="22031000" name="Fixed mask 13 mm">
				<width unit="mm">9.00</width>
			</mask>
			<divergenceSlit id="22120001" name="Divergence slit 1°" xsi:type="fixedDivergenceSlitType">
				<distanceToSample unit="mm">50.00</distanceToSample>
				<height unit="mm">1.52</height>
			</divergenceSlit>
		</incidentBeamPath>
		<sampleMovement xsi:type="spinningSampleMovementType">
			<spinnerRevolutionTime unit="seconds">1.0</spinnerRevolutionTime>
		</sampleMovement>
		<diffractedBeamPath>
			<radius unit="mm">145.00</radius>
			<antiScatterSlit id="22090040" name="AS slit 9 mm (PIXcel)" xsi:type="fixedAntiScatterSlitType">
				<height unit="mm">9.00</height>
			</antiScatterSlit>
			<sollerSlit id="21020003" name="Large Soller slits 0.04 rad.">
				<opening unit="rad">0.0400</opening>
			</sollerSlit>
			<filter id="20030001" name="Large beta-filter Nickel">
				<material>Ni</material>
				<thickness unit="mm">0.020</thickness>
			</filter>
			<detector id="7010019" name="PIXcel1D-Medipix3 detector" xsi:type="rtmsDetectorType">
				<phd unit="keV">
					<lowerLevel>4.02</lowerLevel>
					<upperLevel>11.27</upperLevel>
				</phd>
				<mode>Scanning</mode>
				<activeLength unit="deg">5.542</activeLength>
			</detector>
		</diffractedBeamPath>
		<scan appendNumber="0" mode="Continuous" scanAxis="Gonio" status="Completed">
			<header>
				<startTimeStamp>2025-12-22T15:42:43-08:00</startTimeStamp>
				<endTimeStamp>2025-12-22T15:50:50-08:00</endTimeStamp>
				<author>
					<name>AutomatedUser</name>
				</author>
				<source>
					<applicationSoftware version="1.7b (136)">PANalytical Aeris Instrument Suite</applicationSoftware>
					<instrumentControlSoftware version="3.2.00000000 20240306">AERIS</instrumentControlSoftware>
					<instrumentID>950485</instrumentID>
				</source>
			</header>
			<dataPoints>
				<positions axis="2Theta" unit="deg">
					<startPosition>10.00943322</startPosition>
					<endPosition>99.99442286</endPosition>
				</positions>
				<positions axis="Omega" unit="deg">
					<startPosition>5.00471661</startPosition>
					<endPosition>49.99721143</endPosition>
				</positions>
				<commonCountingTime unit="seconds">12.495</commonCountingTime>
				<counts unit="counts">3094 3083 3278 3012 3271 3097 3159 3127 3168 3145 3154 3121 3106 3194 3122 3140 3049 3096 3227 3237 3205 3094 3201 3065 3163 3203 3112 3052 3099 3144 3091 3201 3130 3250 3078 3169 3211 3074 3124 3104 3098 3128 3234 3196 3143 3192 3142 3177 3145 3213 3108 3220 3233 3191 3178 3221 3139 3272 3291 3104 3111 3196 3119 3225 3233 3259 3210 3164 3192 3304 3161 3133 3211 3185 3240 3205 3156 3123 3221 3271 3204 3352 3248 3315 3263 3231 3120 3181 3141 3197 3153 3293 3193 3266 3127 3158 3167 3246 3287 3271 3213 3268 3137 3336 3212 3284 3314 3232 3216 3317 3263 3335 3182 3247 3251 3240 3299 3207 3312 3207 3144 3207 3231 3366 3338 3148 3260 3297 3281 3363 3288 3268 3341 3313 3202 3215 3359 3279 3402 3186 3234 3272 3286 3208 3245 3345 3229 3216 3301 3238 3299 3359 3394 3315 3195 3290 3331 3352 3315 3222 3303 3330 3223 3326 3291 3280 3298 3261 3346 3304 3286 3341 3399 3233 3382 3323 3369 3200 3168 3361 3364 3297 3291 3258 3326 3285 3267 3249 3271 3230 3228 3297 3309 3334 3329 3248 3267 3284 3384 3253 3384 3211 3338 3350 3198 3232 3314 3361 3311 3335 3387 3257 3198 3270 3233 3194 3223 3265 3169 3278 3247 3255 3168 3244 3333 3106 3214 3165 3190 3250 3169 3269 3107 3194 3318 3240 3235 3253 3188 3154 3139 3231 3205 3274 3225 3233 3196 3231 3172 3163 3264 3145 3268 3285 3126 3240 3091 3195 3086 3156 3287 3101 3238 3134 3119 3132 3149 3151 3115 3204 3228 3087 3215 3123 3248 3175 3088 3206 3190 3262 3259 3126 3088 3089 3136 3139 3161 3193 3248 3250 3205 3215 3175 3256 3273 3132 3187 3112 3285 3156 3229 3187 3176 3192 3225 3262 3210 3235 3256 3247 3309 3274 3237 3274 3239 3305 3276 3391 3228 3346 3306 3330 3239 3335 3260 3291 3266 3267 3241 3406 3369 3222 3321 3330 3333 3295 3339 3294 3314 3399 3402 3378 3315 3495 3384 3423 3396 3413 3400 3389 3359 3248 3424 3422 3301 3408 3399 3386 3342 3455 3423 3394 3365 3461 3446 3537 3649 3426 3560 3431 3451 3516 3507 3454 3639 3573 3502 3687 3444 3630 3606 3535 3527 3469 3517 3553 3551 3673 3599 3617 3649 3559 3563 3638 3726 3606 3640 3684 3650 3592 3669 3704 3557 3634 3667 3615 3721 3661 3620 3612 3702 3752 3796 3813 3689 3816 3768 3781 3889 3788 3941 3874 3795 3987 3792 3950 3963 4066 4177 4109 4246 4103 4184 4249 4229 4348 4425 4263 4413 4380 4419 4449 4335 4482 4503 4491 4574 4627 4562 4494 4465 4594 4692 4568 4648 4674 4791 4659 4873 4605 4739 4771 4930 4955 4998 5019 4986 5047 4949 4929 4854 4982 4792 4895 4622 4629 4448 4493 4353 4216 4175 4151 4003 4116 4012 4187 4134 4058 4030 4023 4040 4068 4147 4003 3935 3988 4024 3999 3921 3923 3948 3946 3956 3969 3985 3951 4000 3978 3821 3839 3864 3839 3726 3867 3721 3676 3886 3772 3733 3928 3963 3945 4159 4046 4162 3916 3989 3901 3880 3897 3857 3956 3838 3767 3836 3838 3840 3937 3917 3845 3925 4025 4024 3989 3984 3887 3979 4034 4043 3922 3994 4067 4053 3993 4071 3961 4102 4128 4181 4251 4187 4173 4151 4227 4194 4261 4257 4265 4218 4126 4124 4121 3902 3881 3639 3704 3631 3510 3472 3263 3443 3278 3278 3332 3271 3269 3383 3298 3151 3315 3277 3383 3221 3264 3286 3226 3296 3200 3277 3280 3321 3219 3239 3332 3209 3247 3279 3266 3192 3209 3344 3168 3288 3154 3179 3215 3212 3223 3157 3190 3179 3293 3240 3212 3233 3189 3238 3178 3252 3279 3249 3254 3135 3182 3137 3224 3193 3231 3191 3212 3273 3129 3138 3185 3159 3174 3200 3236 3388 3249 3183 3196 3197 3239 3266 3253 3277 3257 3401 3335 3307 3311 3318 3411 3414 3480 3484 3457 3496 3564 3622 3441 3534 3692 3647 3761 3594 3707 3825 3701 3650 3746 3693 3820 3835 3674 3804 3901 3715 3857 3996 3802 3937 3987 3925 4217 4149 4194 4155 4133 4331 4248 4323 4365 4198 4357 4348 4082 4106 3934 3810 3731 3525 3510 3433 3221 3301 3209 3235 3250 3233 3126 3209 3214 3141 3075 3180 3120 3162 3171 3119 3135 3254 3199 3174 3189 3130 3192 3208 3087 3081 3144 3073 3103 3071 3124 3137 3084 3079 3133 3181 3120 3156 3172 3136 3088 3174 3120 3225 3159 3016 3050 3114 3076 3094 3204 3091 3018 3053 3162 3101 3048 3162 3012 3054 3064 3024 3061 2947 3013 3050 3181 2961 3050 3171 3037 3025 2976 3039 2980 3029 3017 3096 2991 3010 2974 3093 2957 2976 2921 2914 2941 3027 2994 2959 2961 2938 3013 2966 2862 3025 2926 2907 3006 2977 2946 3001 3019 2989 3008 3011 2932 2956 2943 2893 2959 2824 2974 2923 2971 2961 2959 2955 2962 3028 2979 2908 2921 2930 2866 3015 2978 3013 3018 2920 2953 2966 2982 2940 2989 3067 2842 2969 2936 2937 2918 2880 2952 2947 2893 2884 2930 3004 2881 2886 2835 2902 2883 2931 3001 2777 2904 2937 2933 2854 2891 2900 2971 2863 2806 2904 2911 2929 2800 2862 2892 2976 2970 2814 2968 2873 2909 2897 2897 2931 2749 2884 2883 2841 2950 2797 2829 2901 2979 2875 2853 2885 2815 2863 2868 2798 2872 2858 2829 2755 2912 2951 2778 2803 2873 2852 2932 2772 2847 2800 2838 2822 2833 2887 2794 2813 2757 2788 2800 2811 2906 2828 2777 2830 2768 2782 2761 2824 2684 2750 2840 2741 2857 2881 2828 2731 2889 2737 2835 2718 2784 2822 2786 2878 2668 2822 2747 2723 2835 2735 2925 2788 2749 2767 2656 2712 2678 2800 2845 2689 2846 2878 2773 2746 2696 2843 2885 2783 2746 2812 2867 2870 2537 2754 2892 2617 2783 2777 2763 2795 2801 2840 2814 2882 2772 2839 2720 2762 2817 2806 2770 2717 2712 2825 2842 2714 2794 2767 2851 2805 2766 2771 2763 2791 2732 2942 2862 2867 2820 2773 2756 2816 2815 2791 2802 2916 2867 2837 2832 2839 2776 2770 2789 2783 2903 2811 2769 2942 2781 2738 2777 2902 2902 2931 2877 2904 2720 2738 2836 2809 2847 2864 2761 2793 2851 2840 2802 2727 2852 2894 2834 2882 2763 2951 2762 2850 2871 2808 2891 2844 2809 2776 2934 2857 2925 2914 3025 2822 2880 2838 2907 2842 2970 2975 2824 2942 2925 2935 2848 2783 3012 2827 2841 2943 2894 2988 2891 2938 2927 2923 2954 3013 2895 2917 2833 2961 2814 2827 2870 2675 2908 2839 2847 2947 2765 2770 2767 2773 2842 2804 2740 2780 2711 2786 2883 2693 2756 2818 2702 2802 2870 2780 2771 2792 2743 2740 2708 2725 2707 2622 2696 2769 2714 2709 2778 2713 2714 2712 2658 2773 2685 2700 2637 2741 2684 2682 2647 2704 2743 2691 2780 2650 2805 2655 2650 2611 2593 2534 2673 2656 2536 2645 2583 2633 2624 2507 2647 2656 2650 2526 2589 2753 2658 2616 2591 2527 2560 2574 2640 2652 2511 2584 2616 2603 2520 2513 2611 2520 2540 2461 2541 2545 2715 2497 2540 2442 2543 2466 2478 2528 2614 2605 2443 2612 2572 2605 2544 2569 2505 2462 2492 2378 2472 2577 2425 2556 2468 2641 2603 2468 2553 2535 2514 2586 2607 2563 2535 2603 2736 2545 2640 2679 2536 2763 2695 2626 2644 2698 2674 2715 2581 2755 2658 2635 2705 2736 2764 2651 2735 2704 2734 2793 2780 2789 2834 2793 2907 2892 2881 2933 3028 2992 2991 2940 2865 2737 2817 2687 2691 2515 2604 2467 2405 2433 2351 2327 2416 2231 2266 2296 2299 2355 2248 2346 2367 2327 2360 2310 2269 2340 2271 2283 2267 2282 2312 2237 2225 2223 2211 2283 2297 2092 2220 2247 2255 2181 2104 2150 2206 2188 2356 2238 2261 2306 2253 2301 2297 2266 2133 2151 2262 2215 2252 2190 2289 2208 2142 2108 2185 2229 2148 2215 2234 2259 2168 2213 2194 2294 2153 2237 2216 2268 2190 2235 2254 2247 2229 2156 2214 2126 2144 2224 2198 2123 2100 2210 2201 2325 2145 2230 2234 2177 2259 2289 2224 2102 2209 2241 2135 2194 2252 2163 2122 2240 2200 2332 2097 2139 2145 2179 2141 2264 2193 2189 2197 2192 2263 2178 2157 2176 2093 2077 2167 2189 2217 2244 2205 2204 2192 2115 2193 2163 2235 2123 2203 2169 2142 2165 2220 2086 2196 2176 2118 2130 2135 2132 2190 2165 2349 2176 2211 2161 2260 2228 2202 2185 2171 2191 2218 2239 2194 2149 2179 2226 2230 2168 2296 2235 2154 2244 2216 2208 2194 2137 2151 2236 2140 2238 2284 2256 2281 2134 2298 2146 2221 2223 2160 2251 2266 2155 2157 2236 2213 2186 2230 2277 2149 2110 2218 2167 2223 2280 2182 2230 2323 2296 2224 2239 2241 2287 2258 2359 2303 2299 2234 2362 2326 2404 2350 2393 2514 2309 2413 2389 2277 2449 2375 2393 2467 2367 2351 2342 2335 2356 2358 2330 2374 2309 2399 2386 2328 2265 2435 2369 2389 2385 2312 2433 2424 2420 2525 2454 2452 2485 2484 2446 2454 2451 2459 2426 2358 2347 2187 2282 2236 2224 2246 2194 2172 2199 2124 2199 2182 2150 2052 2127 2163 2117 2111 2159 2167 2125 2062 2082 2088 2160 2103 2036 2071 2067 2000 2015 2013 2037 1996 1993 2085 2058 2007 1942 2092 1996 1923 2135 2073 2004 2076 1983 2071 2034 2059 1895 2030 2072 2031 2043 2060 1997 2003 1970 1982 1956 1988 2026 1959 1901 1899 1996 2001 2018 2023 2013 1967 1987 1926 2042 1941 1951 2006 2037 1918 1958 1907 1907 1945 1974 1977 1874 1993 2054 1995 1974 1948 1964 1933 1922 1823 1950 1851 1942 1919 1865 1905 1928 1902 1912 1915 1968 1860 1961 1854 1918 1906 1909 1955 1897 1927 1880 1925 1934 1842 1841 1894 2022 1875 1896 1856 2017 1923 1871 1931 1960 1989 2023 1963 1963 1991 2044 2020 2097 2001 2115 2068 2120 2067 2110 2145 2188 2266 2222 2269 2128 2315 2209 2284 2359 2240 2332 2344 2384 2266 2295 2272 2236 2193 2319 2294 2208 2333 2289 2358 2334 2328 2374 2483 2487 2463 2527 2454 2628 2450 2545 2573 2577 2726 2842 2705 2623 2666 2648 2577 2509 2419 2369 2293 2222 2243 2083 2087 2113 1986 1978 1962 1926 2020 1927 1924 1837 1856 1842 1927 1827 1885 1946 1942 1911 1890 1873 1905 1832 1906 1983 1997 1901 1972 1932 1869 1853 1970 1987 1917 1918 1907 1908 1888 1842 1939 1864 1915 1885 1954 1847 1922 1841 1926 1905 1885 1901 1840 1919 1908 1908 2026 1976 1950 1981 2053 2016 2060 2079 2100 2115 2143 2174 2165 2222 2296 2242 2207 2262 2353 2286 2227 2320 2249 2312 2313 2359 2287 2339 2419 2250 2367 2400 2412 2265 2365 2348 2532 2452 2498 2531 2471 2490 2614 2551 2563 2585 2530 2534 2481 2492 2514 2533 2436 2465 2348 2356 2259 2214 2140 2225 2109 2084 2092 2113 2030 1987 1913 1959 1939 1904 1915 1957 1968 1938 1984 1991 1985 1964 1997 1952 1941 1984 1886 1971 1899 1950 1879 1791 1835 1836 1889 1959 1805 1845 1869 1887 1793 1778 1811 1870 1807 1861 1824 1859 1774 1802 1794 1733 1797 1787 1837 1769 1678 1786 1848 1712 1736 1779 1718 1650 1732 1726 1698 1779 1804 1691 1766 1750 1740 1689 1764 1687 1697 1695 1702 1713 1671 1728 1825 1771 1779 1798 1805 1774 1772 1903 1763 1730 1858 1822 1886 1900 1956 1982 2129 2057 2151 2191 2182 2322 2385 2476 2562 2622 2646 2672 2829 2819 2898 2917 2818 2962 2961 2716 2958 2881 2925 2827 2870 2813 2843 2739 2842 2836 2988 2985 2949 3028 3126 3211 3287 3460 3445 3584 3784 3898 4120 4193 4451 4501 4537 4710 4685 4538 4445 4161 4017 3738 3506 3183 3144 2824 2725 2489 2392 2247 2083 2031 1909 1916 1777 1761 1781 1781 1771 1807 1850 1772 1809 1709 1802 1757 1684 1757 1707 1701 1725 1750 1723 1710 1680 1769 1771 1731 1746 1781 1808 1786 1831 1897 1845 1887 1824 1838 1862 1865 1851 1774 1692 1770 1787 1760 1743 1612 1653 1630 1649 1622 1671 1661 1586 1523 1631 1650 1669 1614 1678 1599 1673 1622 1626 1717 1699 1676 1776 1757 1775 1822 1885 1903 1938 1997 1970 2010 2112 2102 2038 2170 2166 2150 2187 2119 2153 2218 2186 2197 2193 2174 2003 2106 2086 1983 2032 2083 2074 2060 2124 2083 2134 2132 2223 2191 2138 2302 2159 2192 2280 2288 2353 2351 2285 2414 2315 2274 2299 2223 2131 2150 2031 2059 1995 1901 1793 1834 1817 1834 1693 1680 1712 1655 1634 1632 1604 1583 1540 1646 1610 1535 1565 1500 1615 1459 1614 1539 1524 1622 1527 1543 1581 1586 1595 1603 1594 1615 1664 1701 1665 1674 1657 1697 1629 1696 1689 1709 1700 1677 1767 1744 1732 1831 1776 1684 1738 1793 1697 1778 1679 1816 1685 1658 1668 1783 1810 1798 1752 1761 1784 1874 1890 1868 1912 1895 1892 1908 1947 2033 1985 2057 2074 2058 2018 2183 2048 1961 2000 1991 1957 1901 1932 1958 1971 1985 1870 1909 1983 1995 2198 2151 2348 2414 2375 2450 2625 2629 2757 2831 2749 2805 2952 2983 3133 3097 3056 2819 2944 2915 3061 2993 3022 3003 2980 3020 2988 3003 2939 2916 2867 2974 2969 3028 2970 3079 3060 3053 2997 3088 3133 3307 3169 3265 3252 3399 3323 3321 3377 3270 3310 3297 3211 3054 2923 2871 2801 2792 2717 2595 2466 2451 2340 2269 2202 2081 2031 2031 1987 1927 1921 1926 1934 1883 1933 1832 1940 1932 1902 1951 1881 1973 1979 1946 1992 1875 1895 1956 1988 1961 1992 1940 1853 1909 1859 1903 1882 1908 1850 2038 1906 1887 1918 1884 1861 1929 1918 1931 1847 1855 1898 1811 1934 1864 1853 1901 1819 1861 1859 1784 1863 1839 1814 1795 1844 1780 1741 1660 1750 1719 1752 1597 1628 1580 1607 1592 1583 1620 1615 1547 1553 1524 1506 1458 1513 1562 1500 1400 1478 1435 1487 1508 1481 1511 1540 1461 1534 1560 1477 1511 1517 1557 1554 1589 1501 1534 1495 1590 1533 1579 1561 1577 1512 1597 1455 1551 1600 1582 1538 1559 1549 1468 1480 1562 1521 1498 1496 1502 1550 1564 1519 1549 1594 1571 1562 1624 1616 1621 1692 1663 1659 1616 1610 1752 1671 1727 1740 1736 1692 1725 1630 1672 1697 1686 1726 1641 1634 1678 1558 1673 1570 1585 1594 1539 1545 1604 1606 1546 1591 1655 1639 1667 1681 1625 1673 1667 1657 1710 1737 1775 1781 1692 1716 1809 1737 1746 1744 1662 1666 1641 1555 1627 1548 1507 1527 1470 1447 1498 1437 1446 1388 1397 1381 1462 1401 1383 1357 1401 1388 1422 1387 1416 1407 1356 1455 1351 1431 1332 1412 1433 1298 1441 1434 1308 1418 1374 1334 1494 1346 1388 1402 1424 1404 1411 1407 1338 1349 1371 1371 1404 1363 1377 1408 1296 1425 1512 1402 1427 1399 1365 1436 1334 1381 1388 1418 1404 1384 1379 1421 1449 1443 1427 1331 1413 1372 1370 1423 1356 1383 1404 1331 1414 1438 1453 1393 1358 1387 1379 1380 1415 1428 1471 1421 1373 1448 1375 1404 1423 1379 1441 1381 1359 1366 1382 1406 1384 1332 1400 1349 1449 1380 1374 1427 1374 1333 1317 1296 1337 1267 1465 1303 1412 1326 1373 1393 1396 1362 1320 1368 1368 1361 1424 1391 1384 1392 1362 1401 1432 1360 1385 1347 1382 1331 1406 1414 1365 1304 1360 1357 1359 1390 1378 1378 1380 1351 1316 1397 1364 1339 1340 1329 1352 1364 1390 1355 1437 1337 1396 1312 1394 1302 1337 1405 1480 1429 1362 1360 1311 1344 1406 1385 1388 1347 1408 1402 1365 1409 1358 1360 1343 1398 1470 1352 1391 1409 1365 1332 1389 1387 1398 1347 1300 1293 1359 1339 1336 1409 1359 1348 1364 1380 1313 1420 1344 1355 1315 1241 1367 1384 1361 1406 1308 1379 1380 1386 1345 1315 1370 1360 1344 1408 1381 1406 1362 1355 1338 1334 1347 1363 1376 1347 1349 1371 1297 1394 1291 1292 1315 1369 1342 1346 1392 1332 1291 1350 1323 1382 1381 1360 1379 1389 1351 1328 1287 1242 1323 1392 1313 1351 1331 1377 1288 1351 1379 1344 1349 1386 1379 1398 1381 1370 1316 1382 1363 1355 1379 1343 1437 1462 1394 1478 1372 1412 1412 1390 1384 1405 1414 1374 1420 1413 1411 1361 1451 1357 1447 1430 1445 1381 1421 1466 1437 1402 1435 1428 1589 1423 1476 1395 1423 1440 1577 1456 1351 1381 1397 1462 1443 1433 1369 1407 1353 1346 1347 1373 1448 1424 1396 1373 1356 1452 1460 1528 1607 1593 1636 1643 1585 1726 1713 1917 1740 1919 1998 2026 1967 1959 2068 2073 2051 2152 2058 2085 2100 2136 2003 2044 1937 1950 2008 2036 1939 1964 1923 1969 2005 1972 2052 2059 2132 2149 2250 2243 2338 2407 2502 2602 2714 2735 2770 2849 2976 2937 2803 2804 2702 2576 2524 2332 2139 2215 2042 2025 1921 1904 1757 1749 1630 1551 1515 1469 1471 1408 1343 1385 1410 1405 1355 1294 1451 1362 1396 1361 1389 1387 1377 1341 1461 1272 1411 1341 1321 1334 1337 1286 1358 1354 1389 1323 1444 1273 1400 1309 1365 1290 1377 1283 1301 1336 1340 1330 1301 1336 1307 1285 1280 1274 1323 1390 1375 1317 1221 1361 1291 1292 1280 1305 1336 1407 1318 1374 1347 1295 1329 1343 1341 1319 1258 1304 1296 1293 1364 1264 1387 1331 1365 1326 1323 1308 1296 1423 1324 1276 1327 1268 1353 1353 1342 1332 1303 1332 1268 1357 1240 1282 1268 1306 1323 1295 1315 1362 1372 1422 1337 1410 1302 1411 1334 1395 1315 1425 1441 1498 1431 1374 1404 1420 1418 1435 1409 1434 1422 1340 1443 1354 1459 1440 1368 1419 1427 1415 1483 1402 1454 1430 1433 1425 1408 1374 1416 1505 1429 1522 1483 1484 1554 1511 1542 1534 1572 1469 1487 1535 1514 1509 1450 1444 1415 1495 1500 1389 1414 1457 1461 1519 1452 1453 1447 1422 1490 1501 1457 1489 1530 1422 1479 1443 1488 1525 1397 1392 1404 1424 1436 1303 1453 1350 1373 1388 1350 1461 1426 1466 1403 1419 1508 1451 1477 1480 1523 1458 1526 1527 1522 1505 1601 1548 1537 1496 1509 1531 1477 1488 1467 1444 1431 1500 1469 1359 1393 1328 1416 1346 1358 1440 1371 1336 1331 1324 1372 1377 1299 1366 1388 1388 1366 1450 1371 1373 1394 1359 1406 1399 1414 1458 1379 1449 1444 1413 1400 1433 1431 1338 1424 1417 1409 1356 1469 1501 1471 1370 1449 1449 1462 1462 1445 1414 1428 1444 1494 1388 1397 1470 1438 1440 1416 1471 1450 1434 1478 1420 1419 1387 1411 1430 1435 1322 1355 1295 1308 1336 1266 1386 1369 1313 1345 1275 1265 1333 1268 1330 1245 1347 1310 1324 1275 1258 1325 1249 1236 1331 1282 1287 1357 1254 1309 1350 1302 1301 1273 1283 1282 1296 1268 1287 1313 1286 1360 1377 1344 1296 1347 1307 1374 1397 1370 1340 1480 1395 1374 1496 1387 1439 1433 1429 1436 1437 1483 1502 1470 1451 1524 1506 1463 1477 1423 1455 1525 1501 1460 1548 1529 1519 1494 1431 1475 1408 1479 1505 1551 1553 1531 1501 1485 1527 1467 1557 1567 1574 1495 1619 1668 1665 1679 1633 1649 1654 1644 1738 1646 1674 1663 1668 1642 1642 1606 1627 1666 1508 1559 1538 1556 1545 1500 1476 1520 1523 1523 1444 1503 1474 1448 1501 1451 1543 1508 1499 1488 1532 1564 1472 1568 1578 1588 1506 1506 1453 1525 1568 1499 1496 1398 1423 1425 1488 1388 1450 1384 1389 1320 1306 1370 1420 1345 1404 1286 1318 1297 1380 1403 1325 1312 1341 1354 1310 1317 1394 1323 1371 1363 1296 1305 1329 1341 1335 1322 1401 1338 1314 1299 1340 1313 1334 1275 1347 1335 1281 1331 1289 1247 1346 1281 1307 1316 1282 1262 1272 1327 1298 1351 1349 1296 1290 1286 1300 1314 1312 1326 1280 1316 1284 1243 1256 1254 1275 1278 1295 1190 1244 1208 1164 1212 1291 1296 1292 1294 1250 1288 1209 1244 1302 1204 1242 1265 1278 1328 1285 1273 1257 1225 1227 1247 1240 1215 1284 1258 1240 1259 1297 1237 1284 1298 1246 1233 1280 1275 1248 1363 1257 1183 1212 1285 1384 1250 1225 1204 1254 1248 1286 1294 1326 1262 1294 1290 1315 1324 1169 1280 1252 1189 1283 1243 1287 1291 1170 1326 1347 1265 1250 1307 1209 1300 1228 1264 1252 1270 1300 1237 1272 1326 1212 1289 1287 1345 1268 1323 1213 1374 1287 1296 1331 1299 1404 1328 1270 1321 1285 1242 1287 1402 1372 1306 1425 1326 1370 1327 1345 1349 1410 1432 1472 1435 1417 1370 1432 1420 1442 1439 1450 1448 1447 1495 1555 1580 1598 1514 1586 1547 1543 1636 1543 1543 1567 1539 1593 1525 1512 1499 1548 1555 1546 1510 1544 1588 1553 1622 1705 1719 1705 1649 1689 1755 1758 1807 1864 1819 1893 1888 1909 1951 1867 1973 1872 1939 1905 1849 1902 1930 1847 1871 1891 1876 1785 1870 1709 1784 1815 1758 1750 1800 1750 1752 1831 1792 1824 1810 1888 1892 2011 1939 1991 2044 2158 2152 2116 2112 2144 2038 2059 2062 1958 1885 1832 1860 1921 1866 1841 1807 1888 1749 1757 1726 1803 1774 1827 1747 1736 1731 1792 1835 1854 1810 1814 1888 1945 1955 2004 1972 2145 2053 2194 2182 2197 2163 2205 2238 2277 2372 2380 2306 2291 2277 2271 2179 2337 2215 2130 2286 2169 2069 2209 2090 2127 2078 2136 2035 2137 2039 2049 2108 2031 2087 2004 2135 1994 2121 2028 2034 1980 2112 1984 1950 2027 1922 1967 1935 1773 1785 1734 1817 1703 1713 1763 1763 1676 1640 1674 1554 1565 1590 1635 1600 1499 1557 1513 1465 1532 1528 1515 1450 1493 1451 1471 1517 1546 1470 1525 1434 1389 1486 1500 1442 1462 1493 1486 1523 1493 1479 1510 1457 1486 1526 1515 1544 1456 1524 1489 1537 1516 1539 1481 1435 1533 1467 1480 1562 1459 1467 1535 1417 1496 1451 1436 1450 1506 1474 1457 1423 1500 1389 1465 1477 1487 1483 1485 1450 1513 1429 1501 1477 1415 1398 1431 1424 1431 1394 1482 1361 1368 1336 1400 1390 1450 1373 1426 1291 1291 1379 1377 1348 1400 1352 1381 1308 1350 1341 1376 1332 1306 1269 1234 1328 1332 1315 1323 1308 1314 1342 1271 1297 1256 1316 1211 1294 1248 1202 1238 1266 1276 1175 1273 1265 1243 1253 1230 1228 1260 1257 1265 1272 1247 1280 1224 1268 1266 1271 1393 1257 1305 1284 1333 1352 1303 1320 1215 1331 1318 1350 1342 1378 1361 1397 1383 1355 1405 1470 1386 1463 1407 1479 1470 1429 1439 1411 1409 1425 1381 1440 1404 1411 1371 1431 1401 1420 1413 1461 1434 1488 1501 1460 1534 1576 1545 1488 1536 1530 1503 1532 1550 1516 1513 1483 1497 1441 1521 1435 1448 1452 1489 1403 1373 1307 1360 1416 1397 1392 1397 1351 1365 1346 1368 1393 1321 1293 1408 1331 1335 1339 1358 1394 1351 1280 1326 1331 1267 1273 1247 1263 1234 1230 1345 1258 1291 1341 1297 1265 1311 1342 1259 1290 1289 1284 1348 1314 1277 1295 1287 1336 1324 1410 1354 1332 1396 1253 1376 1309 1302 1331 1345 1295 1321 1303 1363 1288 1248 1369 1299 1301 1284 1324 1347 1321 1453 1422 1428 1348 1410 1414 1362 1389 1320 1386 1404 1345 1335 1304 1378 1228 1272 1357 1281 1270 1345 1241 1270 1265 1276 1317 1226 1243 1233 1312 1267 1311 1269 1283 1341 1346 1348 1266 1343 1293 1344 1336 1352 1370 1346 1404 1333 1387 1424 1508 1488 1481 1429 1433 1436 1400 1401 1366 1407 1432 1465 1400 1374 1438 1344 1473 1339 1336 1362 1337 1345 1349 1378 1463 1509 1505 1452 1415 1474 1385 1534 1480 1503 1468 1463 1395 1328 1407 1347 1348 1369 1313 1312 1276 1352 1342 1359 1245 1264 1248 1275 1223 1208 1180 1110 1226 1200 1169 1194 1177 1195 1293 1133 1199 1132 1120 1212 1080 1206 1163 1178 1182 1251 1189 1271 1240 1210 1195 1151 1203 1162 1153 1191 1139 1186 1164 1194 1230 1248 1187 1084 1265 1088 1162 1234 1216 1153 1224 1195 1180 1214 1222 1233 1162 1247 1234 1234 1212 1178 1219 1176 1167 1246 1245 1221 1257 1110 1180 1201 1155 1188 1200 1202 1153 1238 1183 1229 1150 1251 1208 1243 1255 1183 1149 1222 1219 1275 1185 1239 1263 1202 1218 1234 1185 1210 1174 1155 1222 1202 1255 1221 1201 1192 1158 1199 1225 1193 1190 1164 1126 1124 1140 1095 1156 1221 1191 1168 1189 1217 1187 1155 1185 1083 1140 1108 1203 1183 1162 1213 1240 1199 1183 1118 1216 1148 1196 1164 1166 1282 1197 1174 1171 1147 1180 1171 1226 1142 1251 1148 1223 1250 1176 1196 1204 1197 1158 1155 1184 1156 1137 1208 1148 1176 1148 1200 1087 1206 1243 1106 1130 1183 1262 1190 1106 1192 1179 1207 1157 1221 1108 1177 1219 1135 1115 1156 1202 1120 1225 1160 1183 1218 1163 1092 1123 1172 1208 1198 1126 1173 1217 1122 1180 1150 1173 1107 1171 1164 1160 1211 1187 1166 1149 1198 1116 1186 1198 1228 1121 1186 1104 1138 1161 1231 1178 1135 1165 1196 1128 1218 1217 1115 1208 1203 1162 1173 1116 1178 1174 1149 1206 1169 1213 1150 1167 1203 1131 1158 1217 1123 1222 1187 1190 1166 1191 1173 1171 1140 1205 1169 1159 1219 1180 1138 1212 1196 1149 1185 1165 1201 1151 1161 1207 1232 1258 1228 1236 1207 1194 1159 1250 1186 1226 1210 1213 1209 1196 1187 1208 1225 1273 1209 1277 1251 1203 1242 1313 1252 1263 1279 1271 1285 1211 1268 1223 1285 1257 1284 1315 1167 1200 1211 1253 1247 1247 1166 1198 1248 1207 1238 1296 1218 1267 1176 1281 1236 1304 1131 1241 1180 1157 1223 1233 1209 1191 1179 1236 1173 1151 1202 1231 1269 1208 1115 1262 1230 1197 1289 1237 1179 1188 1197 1174 1167 1171 1212 1167 1222 1225 1242 1285 1220 1111 1209 1240 1250 1193 1242 1211 1250 1247 1260 1211 1226 1237 1268 1180 1272 1180 1267 1243 1253 1206 1206 1242 1229 1228 1283 1242 1280 1240 1235 1234 1303 1158 1220 1180 1201 1206 1188 1222 1136 1247 1229 1203 1227 1163 1207 1174 1239 1205 1128 1219 1246 1253 1208 1264 1269 1220 1154 1208 1161 1215 1262 1236 1167 1204 1261 1241 1285 1194 1278 1255 1230 1275 1319 1255 1186 1348 1261 1275 1306 1289 1330 1322 1320 1431 1351 1379 1343 1326 1344 1430 1382 1361 1460 1342 1397 1443 1421 1404 1387 1368 1346 1413 1384 1317 1336 1372 1373 1387 1384 1360 1338 1347 1341 1346 1480 1376 1347 1439 1388 1444 1504 1463 1437 1487 1547 1538 1489 1483 1507 1461 1412 1425 1475 1337 1478 1406 1462 1357 1379 1368 1376 1457 1407 1426 1281 1309 1356 1334 1374 1376 1384 1317 1309 1308 1354 1404 1408 1267 1370 1332 1229 1307 1233 1362 1259 1232 1304 1253 1309 1299 1287 1273 1274 1280 1257 1232 1255 1290 1245 1236 1208 1305 1213 1285 1225 1232 1212 1210 1208 1242 1166 1251 1332 1261 1221 1233 1263 1222 1290 1268 1304 1196 1261 1244 1224 1151 1252 1195 1200 1181 1158 1215 1264 1146 1182 1158 1203 1185 1182 1157 1150 1192 1201 1108 1228 1221 1095 1135 1142 1224 1163 1172 1160 1186 1181 1196 1175 1076 1174 1105 1181 1155 1095 1202 1140 1101 1107 1149 1114 1115 1139 1120 1130 1140 1069 1107 1172 1156 1118 1167 1134 1173 1118 1123 1155 1159 1080 1144 1179 1200 1136 1134 1133 1120 1117 1198 1184 1170 1160 1187 1148 1141 1134 1188 1166 1149 1143 1233 1157 1118 1233 1143 1182 1183 1151 1177 1200 1236 1183 1232 1156 1255 1241 1212 1223 1226 1265 1224 1237 1331 1328 1273 1280 1326 1317 1284 1267 1267 1367 1323 1366 1338 1380 1415 1307 1311 1367 1410 1382 1464 1423 1446 1393 1455 1484 1520 1508 1481 1489 1502 1408 1456 1430 1436 1414 1437 1425 1407 1484 1460 1405 1430 1331 1325 1391 1374 1463 1273 1368 1349 1340 1324 1344 1390 1308 1337 1284 1368 1383 1242 1279 1365 1269 1251 1280 1249 1177 1252 1293 1271 1226 1240 1293 1238 1236 1237 1199 1163 1192 1219 1109 1217 1188 1126 1163 1136 1167 1138 1163 1252 1205 1218 1153 1240 1153 1253 1142 1198 1145 1160 1223 1223 1194 1169 1258 1130 1249 1206 1187 1149 1167 1211 1211 1150 1143 1161 1189 1199 1215 1182 1136 1129 1182 1131 1147 1156 1202 1173 1200 1232 1136 1141 1224 1185 1234 1171 1137 1190 1176 1221 1170 1171 1144 1164 1138 1144 1218 1148 1183 1160 1129 1189 1162 1233 1144 1175 1167 1168 1168 1151 1203 1193 1192 1211 1156 1205 1173 1196 1124 1208 1185 1144 1203 1122 1188 1138 1112 1204 1156 1159 1170 1129 1152 1192 1180 1142 1223 1068 1151 1150 1219 1194 1159 1111 1151 1109 1099 1166 1119 1195 1157 1144 1169 1136 1150 1155 1187 1199 1272 1145 1187 1214 1245 1227 1276 1216 1251 1201 1207 1180 1237 1232 1257 1213 1181 1250 1201 1149 1194 1248 1179 1211 1131 1245 1222 1160 1230 1179 1178 1189 1148 1204 1207 1185 1142 1187 1160 1174 1198 1170 1240 1190 1169 1165 1155 1143 1186 1189 1134 1131 1122 1157 1124 1183 1154 1178 1160 1183 1156 1109 1163 1137 1193 1171 1124 1158 1100 1068 1200 1170 1070 1150 1069 1089 1189 1139 1113 1078 1085 1083 1066 1138 1101 1163 1110 1117 1134 1124 1179 1162 1108 1088 1160 1117 1152 1069 1142 1137 1139 1142 1128 1124 1121 1188 1156 1185 1101 1116 1081 1085 1079 1122 1113 1078 1129 1132 1084 1090 1166 1132 1077 1100 1144 1119 1143 1119 1112 1127 1195 1152 1108 1131 1128 1131 1179 1146 1165 1175 1197 1184 1187 1165 1176 1166 1216 1237 1154 1211 1245 1288 1196 1285 1314 1283 1236 1285 1280 1261 1233 1275 1322 1265 1291 1275 1273 1214 1208 1336 1272 1275 1227 1301 1287 1252 1300 1330 1287 1259 1308 1258 1286 1214 1271 1284 1308 1270 1229 1269 1252 1241 1267 1223 1160 1217 1139 1177 1107 1172 1194 1182 1142 1224 1189 1125 1155 1284 1140 1121 1140 1099 1128 1072 1144 1144 1142 1102 1116 1138 1121 1155 1091 1142 1098 1124 1077 1151 1123 1119 1115 1143 1151 1108 1113 1100 1079 1066 1053 1105 1074 1088 1096 1117 1078 1096 1096 1104 1112 1141 1082 1087 1132 1066 1078 1045 1099 1100 1099 1122 1074 1017 1078 1108 1127 1050 1129 1101 1103 1056 1108 1115 1093 1097 1167 1159 1083 1068 1123 1068 1101 1103 1095 1104 1072 1138 1164 1067 1119 1010 1094 1094 1089 1157 1175 1086 1098 1115 1077 1164 1131 1174 1047 1118 1101 1104 1095 1156 1102 1108 1123 1112 1161 1064 1088 1044 1066 1119 1054 1090 1146 1098 1030 1186 1178 1142 1130 1126 1121 1099 1141 1128 1135 1085 1081 1130 1062 1086 1042 1069 1061 1110 1049 1134 1137 1131 1068 1073 1058 1066 1093 1119 1117 1050 1055 1096 1055 1104 1068 1068 1081 1098 1178 1136 1138 1089 1129 1107 1117 1100 1177 1229 1110 1161 1177 1156 1157 1100 1139 1128 1166 1120 1117 1177 1151 1097 1160 1110 1143 1074 1142 1053 1093 1154 1086 1121 1114 1158 1157 1103 1156 1094 1171 1145 1176 1101 1153 1145 1218 1041 1129 1133 1084 1067 1113 1053 1102 1177 1115 1192 1136 1131 1072 1105 1128 1128 1138 1103 1063 1129 1152 1065 1046 1085 1049 1150 1081 1073 1132 1101 1109 1063 1108 1083 1055 1105 1113 1092 1110 1096 1086 1165 1118 1072 1044 1104 1054 1099 1129 1109 1113 1077 1098 1148 1127 1085 1070 1165 1043 1118 1146 1102 1113 1135 1117 1052 1095 1137 1108 1117 1101 1144 1099 1079 1112 1107 1088 1168 1066 1066 1107 1136 1064 1156 1136 1155 1121 1055 1137 1209 1166 1180 1096 1150 1118 1177 1181 1123 1087 1096 1078 1159 1108 1176 1148 1127 1069 1174 1117 1087 1098 1081 1118 1169 1163 1138 1172 1185 1093 1146 1128 1185 1102 1117 1186 1164 1170 1167 1222 1142 1106 1136 1144 1154 1166 1126 1124 1115 1167 1113 1124 1147 1134 1208 1216 1143 1165 1107 1122 1104 1208 1095 1090 1107 1137 1105 1161 1122 1173 1106 1100 1130 1117 1112 1127 1070 1105 1154 1101 1083 1069 1148 1073 1087 1109 1061 1054 1101 1028 1075 1102 1054 1037 1097 1136 1131 1023 1065 1040 1082 1017 1063 1097 1030 1139 1050 1079 985 1031 994 1087 1073 1083 1100 1053 1124 1073 1033 1119 1024 1060 1057 1058 1080 1038 1021 1029 1103 1104 1053 1086 1021 1140 1122 1086 1122 1003 1104 1106 1096 1039 1115 1099 1092 1053 1058 1078 1094 1093 1055 1022 1095 1081 1095 1075 1142 1092 1111 1111 1082 1128 1103 1078 1025 1068 1183 1087 1099 1078 1066 1134 1145 1099 1129 1129 1106 1130 1114 1103 1049 1112 1123 1065 1097 1019 1113 1055 1108 1112 1076 1083 1162 1068 1094 1051 1140 1143 1098 1121 1155 1097 1102 1019 1081 1068 1138 1067 1065 1121 1099 1109 1122 1090 1077 1091 1110 1081 1098 1076 1108 1135 1092 1108 1043 1067 1110 1045 1040 1126 1080 1043 1050 1079 1015 1133 1115 1053 1085 1114 1109 1133 1139 1055 1101 1025 1113 1116 1065 1158 1135 1093 1076 1136 1206 1029 1073 1040 1099 1067 1070 1152 1041 1078 1168 1036 1119 1061 1056 1133 1066 1123 1134 1140 1086 1127 1065 1165 1095 1128 1092 1101 1101 1144 1145 1082 1069 1108 1101 1108 1099 1080 1128 1092 1151 1107 1140 1140 1188 1069 1119 1147 1143 1143 1170 1121 1168 1165 1084 1174 1125 1108 1160 1142 1152 1126 1123 1207 1198 1187 1251 1114 1238 1110 1190 1166 1180 1162 1151 1170 1280 1200 1237 1209 1194 1195 1218 1100 1176 1159 1180 1195 1142 1149 1159 1203 1149 1175 1148 1088 1136 1171 1114 1123 1127 1158 1149 1159 1154 1143 1080 1122 1089 1151 1161 1075 1119 1125 1093 1138 1134 1158 1141 1094 1065 1108 1046 1086 1088 1064 1117 1099 1009 1108 1054 1076 1100 1063 1059 1107 1031 1154 1049 1081 1095 1111 1119 1106 1102 1075 1117 1069 1053 1140 1125 1096 1084 1167 1142 1068 1117 1190 1071 1117 1159 1094 1078 1088 1135 1139 1119 1117 1092 1097 1120 1115 1031 1094 1071 1148 1164 1109 1171 1168 1078 1100 1107 1087 1117 1123 1140 1108 1145 1133 1192 1118 1062 1108 1115 1160 1066 1102 1079 1143 1081 1189 1125 1092 1132 1125 1046 1068 1077 1098 1140 1101 1116 1112 1141 1152 1068 1096 1116 1138 1111 1087 1136 1040 1078 998 1089 1136 1106 1163 1099 1128 1080 1091 1098 1075 1134 1125 1121 1112 1129 1162 1054 1084 1030 1113 1137 1099 1107 1098 1113 1057 1132 1222 1047 1156 1096 1148 1079 1118 1071 1095 1099 1107 1096 1071 1110 1128 1071 1129 1137 1175 1078 1152 1083 1108 1126 1060 1024 1074 1115 1066 1141 1149 1149 1054 1124 1068 1052 1045 1146 1043 1055 1019 1123 1038 1014 1114 1096 1095 1119 1080 1122 1078 1072 1134 1137 1063 1182 1055 1124 1137 1080 1082 1123 1131 1145 1135 1128 1139 1147 1090 1118 1062 1030 1123 1035 1063 1057 1139 1100 1092 1104 1139 1114 1180 1226 1116 1149 1122 1133 1124 1075 1126 1117 1110 1124 1098 1168 1128 1121 1137 1129 1164 1039 1156 1114 1204 1099 1083 1175 1094 1114 1137 1106 1103 1104 1089 1100 1070 1141 1100 1153 1140 1086 1071 1075 1028 1155 1083 1093 1158 1044 1115 1172 1124 1118 1075 1146 1142 1152 1160 1138 1147 1130 1153 1113 1077 1147 1154 1118 1096 1186 1126 1119 1158 1160 1037 1120 1148 1117 1103 1142 1088 1161 1159 1154 1076 1199 1133 1195 1106 1155 1127 1142 1096 1146 1104 1120 1046 1181 1163 1097 1143 1197 1163 1106 1144 1102 1078 1092 1047 1080 1103 1084 1075 1065 1104 1057 1085 1049 1096 1071 1061 1129 1091 1083 1081 1130 1065 1129 1049 1108 1077 1056 1135 1023 1069 1056 1109 1017 1075 1091 1083 1083 1173 1055 1083 1110 1086 1060 1107 1074 1068 1079 1075 1084 1039 1027 1084 1123 1080 1042 1048 996 1085 1031 1081 1039 1102 1014 1097 1065 1077 1030 1097 1048 1073 1051 1084 1071 1090 1093 1089 1071 1104 1147 1185 1045 1102 1105 1067 1114 1046 1094 1095 1074 1118 1039 1089 1097 1052 1098 1057 1092 1083 1166 1135 1124 1143 1100 1113 1126 1002 1061 1120 1104 1129 1089 1136 1081 1070 1063 1116 1123 1106 1049 1090 1065 1036 1108 1109 1152 1101 1058 1140 1082 1150 1055 1081 1047 1063 1022 1111 1077 1147 1107 1078 1113 1044 1093 1129 1040 1078 1081 1092 1032 1096 1135 1098 1007 1061 1100 1055 1099 1047 1081 1107 1114 1072 1075 1068 1101 1031 1061 1087 1096 1081 1135 1094 1089 1115 1097 1027 1141 1086 1128 1113 1069 1053 1124 1120 1117 1099 1083 1152 1038 1133 1053 1089 1080 1106 1101 1087 1077 1062 1133 1074 1067 1053 1052 1109 1136 1093 1103 1008 1089 1030 1058 1059 1059 1085 1123 1091 1152 1117 1095 1076 1104 1071 1102 1049 1093 1066 1026 1106 1064 1028 1111 1067 1097 1092 1096 1097 1015 1069 1040 1075 1054 1115 1084 1017 1094 996 1082 1176 1171 1094 1107 1040 1076 1049 1076 1092 1099 1086 1078 1006 1075 1126 1084 1046 1085 1080 1053 1110 1119 1103 1143 1084 1108 1107 1079 1085 1125 1045 1100 1120 1078 1104 1084 1133 1075 1146 1093 1075 1170 1120 1132 1075 1148 1120 1118 1145 1170 1103 1130 1085 1187 1140 1160 1139 1184 1134 1179 1225 1191 1236 1254 1246 1222 1227 1252 1241 1208 1255 1275 1237 1210 1203 1211 1197 1211 1192 1187 1202 1208 1282 1207 1264 1268 1289 1284 1243 1295 1344 1302 1221 1229 1225 1242 1282 1270 1168 1211 1232 1224 1189 1180 1192 1217 1164 1177 1151 1166 1219 1270 1219 1254 1190 1154 1188 1198 1164 1125 1140 1169 1172 1134 1177 1158 1121 1207 1077 1124 1181 1114 1145 1105 1104 1118 1228 1145 1144 1159 1139 1098 1075 1114 1131 1148 1155 1139 1078 1146 1147 1105 1178 1174 1123 1065 1103 1119 1103 1127 1143 1071 1126 1116 1085 1114 1156 1146 1070 1121 1116 1126 1181 1061 1197 1074 1099 1172 1193 1097 1175 1122 1110 1125 1116 1148 1158 1123 1173 1124 1207 1133 1128 1094 1132 1124 1156 1098 1115 1074 1154 1138 1189 1126 1143 1180 1103 1115 1151 1161 1122 1189 1165 1082 1152 1091 1184 1076 1170 1101 1152 1050 1108 1118 1179 1163 1191 1090 1149 1168 1146 1131 1178 1135 1146 1142 1126 1181 1143 1170 1169 1181 1218 1101 1208 1224 1151 1199 1215 1199 1197 1165 1187 1180 1211 1237 1225 1204 1197 1201 1171 1163 1231 1186 1185 1249 1183 1214 1301 1202 1185 1307 1238 1276 1192 1276 1269 1244 1289 1233 1261 1256 1225 1246 1225 1277 1246 1177 1242 1174 1258 1196 1165 1172 1199 1229 1156 1192 1208 1193 1209 1277 1260 1240 1210 1157 1226 1201 1179 1197 1168 1198 1241 1219 1244 1240 1244 1288 1240 1269 1212 1181 1257 1319 1204 1293 1251 1323 1216 1311 1240 1248 1288 1259 1264 1273 1266 1261 1292 1294 1276 1277 1333 1260 1247 1218 1274 1296 1250 1323 1272 1236 1349 1251 1242 1224 1182 1289 1241 1290 1315 1196 1295 1297 1245 1209 1168 1255 1164 1181 1188 1158 1148 1195 1235 1198 1199 1141 1206 1185 1116 1242 1179 1147 1177 1090 1165 1164 1133 1146 1215 1132 1131 1194 1105 1107 1161 1073 1100 1138 1130 1106 1130 1186 1108 1145 1099 1078 1078 1093 1135 1096 1112 1101 1166 1142 1097 1168 1101 1098 1131 1149 1142 1077 1150 1085 1165 1145 1100 1125 1147 1117 1099 1090 1071 1031 1164 1122 1132 1087 1093 1113 1106 1182 1105 1136 1117 1053 1126 1059 1141 1141 1125 1063 1052 1126 1103 1116 1074 1120 1141 1139 1151 1097 1111 1060 1117 1170 1123 1157 1094 1115 1174 1097 1107 1105 1100 1091 1151 1122 1118 1072 1149 1125 1136 1126 1126 1135 1155 1133 1057 1120 1153 1138 1138 1164 1165 1118 1175 1121 1154 1202 1202 1130 1182 1156 1183 1123 1097 1144 1183 1105 1219 1092 1099 1166 1080 1235 1090 1165 1152 1181 1179 1223 1162 1132 1146 1172 1134 1078 1171 1108 1170 1106 1199 1141 1158 1225 1126 1174 1183 1150 1117 1103 1174 1164 1085 1089 1117 1152 1184 1106 1131 1152 1092 1080 1145 1118 1148 1108 1193 1145 1120 1153 1141 1131 1148 1160 1115 1198 1099 1177 1124 1156 1175 1220 1158 1178 1223 1188 1210 1202 1209 1136 1216 1147 1241 1118 1209 1215 1202 1226 1241 1216 1183 1180 1190 1221 1255 1206 1228 1239 1187 1223 1208 1240 1191 1251 1248 1179 1230 1232 1265 1202 1174 1191 1248 1252 1246 1230 1113 1148 1205 1201 1183 1178 1115 1129 1142 1205 1197 1143 1190 1184 1251 1146 1120 1127 1184 1165 1156 1134 1063 1084 1180 1181 1190 1141 1101 1124 1108 1086 1140 1104 1171 1103 1107 1100 1142 1080 1136 1105 1095 1034 1071 1125 1105 1077 1102 1084 1114 1116 1143 1138 1096 1147 1116 1152 1114 1100 1164 1105 1132 1042 1118 1224 1099 1063 1078 1074 1141 1125 1118 1117 1104 1090 1113 1138 1069 1089 1102 1121 1088 1069 1076 1027 1058 1133 1077 1134 1083 1054 1065 1093 1112 1102 1101 1084 1091 1115 1096 1111 1050 1181 1055 1084 1097 1154 1056 1059 1087 1096 1102 1163 1133 1173 1150 1106 1077 1058 1086 1072 1053 1090 1122 1112 1067 1128 1071 1093 1053 1053 1082 1084 1034 1020 1162 1076 1115 999 1083 1104 1153 1107 1078 1120 1103 981 1033 1074 1109 1041 1071 1031 1066 1063 1130 1082 1060 1120 1137 1060 1039 1051 1033 1106 1091 1053 1050 1092 1096 1075 994 1033 1051 1032 1054 1073 1090 1033 1036 1080 1063 1060 1056 1043 1053 1059 1079 1070 1068 1067 1060 1073 1092 1040 1101 1052 1033 968 1010 1048 1044 1019 1064 1099 1055 1037 1018 1112 1106 1072 1065 1092 1074 1067 1005 1049 998 1034 1043 1052 1070 1086 1029 1115 1020 1062 1118 1081 1060 1111 1078 1099 1074 1052 1088 1139 1091 1063 1017 989 1069 1040 1162 1081 1029 1082 1119 1130 1044 1079 1105 1103 1145 1065 1058 1077 1093 1082 1056 1117 1049 1080 1016 1094 1075 1041 1143 1037 997 1010 1055 1069 1091 1127 1079 1062 1024 1074 1034 1037 1058 1072 1060 1098 1056 1084 1086 1084 1140 1039 1098 1100 1115 1053 1102 1087 1062 1045 1032 1079 1059 1048 1007 1110 1078 1078 1053 1055 1116 1036 1069 1018 995 1125 1116 1185 1109 1114 1055 1051 1096 1069 1112 1065 1027 1079 1040 1088 1057 1017 1058 1063 1143 1101 1042 1054 1069 1087 1066 1100 1030 1035 1048 1101 1121 1055 1058 1101 1137 1126 1052 1120 1107 1105 1078 1066 1052 1059 1071 1069 1087 1060 1075 1105 1051 1060 1071 1106 1127 1094 1132 1051 1064 1046 1060 1066 1043 1040 1056 1020 1110 1064 1056 1119 1055 1106 1079 1032 1060 1069 1076 1086 1067 1038 1053 1003 1112 1002 1085 1081 1017 1055 1001 1080 1076 1031 1064 1079 1056 1103 985 1076 1046 1101 1071 1067 1065 1078 1068 1066 1028 1030 1110 999 1070 1010 1085 1079 1111 1074 1075 1040 1116 1077 1076 1042 1091 1119 1114 1074 1048 1094 1050 1036 1044 1110 1087 1140 1036 1066 1028 1113 1097 1085 1061 1082 1101 1076 1126 1061 1080 1106 1114 1111 1062 1181 1169 1092 1118 1098 1105 1090 1116 1133 1103 1087 1106 1079 1092 1126 1078 1099 1071 1121 1105 1089 1067 1142 1044 1074 1112 1109 1150 1136 1173 1031 1096 1117 1171 1071 1150 1152 1075 1082 1052 1176 1109 1084 1118 1103 1138 1098 1068 1107 998 1063 1102 1074 1064 1132 1034 1101 1102 1173 1061 1071 1071 1029 1041 1064 1044 1061 1182 1096 1039 1040 1081 1045 1094 1045 1090 1061 1092 1078 1077 1101 1065 1118 1025 1091 1123 1041 1113 1009 1097 999 1142 1086 1062 1086 1103 1071 1035 1052 1088 1084 1084 1076 1059 1089 1042 1156 1093 1173 1133 1081 1101 1125 1092 1081 1022 1053 1092 1105 1116 1137 1065 1102 1117 1113 1134 1045 1112 1137 1146 1133 1128 1070 1120 1157 1150 1188 1138 1114 1194 1157 1126 1152 1085 1206 1090 1153 1171 1133 1150 1129 1174 1156 1127 1226 1171 1211 1109 1161 1156 1197 1241 1165 1183 1220 1202 1199 1186 1222 1192 1146 1215 1257 1222 1244 1224 1204 1195 1235 1271 1269 1273 1248 1228 1252 1242 1214 1238 1161 1232 1198 1256 1209 1163 1259 1249 1168 1241 1239 1177 1156 1222 1215 1176 1163 1204 1192 1199 1139 1168 1191 1176 1134 1150 1142 1163 1146 1168 1127 1114 1171 1173 1231 1102 1194 1110 1135 1147 1151 1135 1102 1091 1101 1154 1091 1184 1098 1092 1138 1167 1100 1087 1115 1088 1102 1135 1096 1098 1103 1070 1125 1047 1092 1094 1083 1080 1142 1111 1018 1147 1125 1036 1138 1098 1101 1137 1062 1085 1100 1043 1082 1081 1124 1075 1086 1115 1104 1063 1103 1155 1105 1160 1090 1200 1106 1083 1036 1152 1124 1138 1122 1090 1105 1122 1116 1114 1049 1167 1118 1173 1167 1136 1115 1158 1142 1060 1131 1135 1203 1107 1175 1137 1104 1134 1096 1085 1096 1075 1162 1148 1057 1093 1129 1106 1140 1173 1060 1103 1118 1119 1069 1116 1108 1088 1047 1084 1078 1114 1082 1091 1106 1087 1142 1051 1137 1132 1143 1117 1117 1151 1133 1107 1138 1152 1082 1152 1062 1076 1125 1169 1122 1214 1063 1223 1181 1170 1122 1114 1110 1196 1143 1119 1208 1136 1185 1133 1155 1125 1169 1155 1176 1130 1058 1131 1160 1112 1128 1128 1127 1127 1158 1144 1135 1121 1174 1140 1182 1149 1084 1143 1096 1067 1066 1085 1055 1049 1066 1117 1147 1099 1100 1094 1121 1141 1180 1101 1106 1023 1067 1070 1080 1139 1050 1027 1046 1056 1072 1041 1112 1064 1101 1050 1081 1142 995 1062 1150 1059 1106 1050 1021 1099 1065 1068 1037 1044 1077 1035 1141 1064 1116 1030 1115 1068 1121 1038 1061 1015 1000 1054 1047 1020 923 1022 1060 1059 1048 1057 1062 1100 1051 1068 1058 1071 1041 1095 1080 1067 1100 1090 1081 970 986 1099 1025 1107 1003 1019 1040 1129 1019 1021 1018 1040 1036 1035 1093 1063 1067 1045 1091 1026 1078 1028 1055 1071 1076 975 1075 1091 1041 1037 1027 1051 1076 1042 1078 1045 1050 1027 1062 1059 1092 1039 1065 1035 1051 1007 1095 1026 1072 1055 1063 983 984 1057 1026 968 990 988 1064 1106 1074 1072 1058 996 1142 1079 1068 995 1156 1041 1061 1065 1053 1071 1051 1048 1063 1042 1041 1035 1042 1044 1007 1068 1036 1031 1054 1054 1039 1106 1074 1028 1053 1067 1052 964 1088 990 1051 1041 1036 1063 1096 1044 1070 1040 1074 1034 1036 1044 1045 1082 1057 1027 1083 1083 1072 1056 1087 1083 1109 1047 998 1072 1018 1046 1054 1064 1045 1032 1072 1027 1077 1013 1021 1079 1050 1069 1030 1078 1037 1104 1137 1039 1050 1026 1081 1071 1031 1046 1055 1046 1072 1102 1033 1074 1098 1093 1137 1091 1055 1040 1026 1060 1030 1067 1057 1053 1117 1040 1039 1040 1075 1011 1070 1032 1064 1057 1054 1032 989 1028 1044 1093 1074 1018 1013 1051 1107 1058 1040 1039 1012 1049 1058 1066 1083 1095 1064 1102 1032 1026 984 1094 1100 1001 1098 1043 1070 1033 1034 1067 990 1011 1041 1029 1045 1092 1054 1020 1055 1071 1028 980 1035 982 1056 1020 1003 1019 1045 1043 1039 1150 1155 1068 1034 1033 1063 1106 1046 1040 964 997 1059 1002 1039 1050 1027 1071 1083 1090 1088 1113 1065 1033 1071 1050 1015 1094 1033 1074 1073 1044 996 1072 1048 1074 1029 1046 1081 1015 1067 1011 1070 1028 1065 1084 1016 1026 1018 1058 1043 1060 1084 1060 1047 1028 1008 1090 1090 1030 1110 1095 1147 1109 1141 1048 1052 1025 1093 1048 1067 1088 1112 1064 1041 1069 1089 1117 1033 1046 1031 1075 1035 1103 1055 1073 1039 1048 1047 1096 1065 1067 1078 1075 1104 1068 1043 1084</counts>
			</dataPoints>
		</scan>
	</xrdMeasurement>
</xrdMeasurements>
