<?xml version="1.0"?>
<xrdMeasurements xmlns="http://www.xrdml.com/XRDMeasurement/2.3" xmlns:xsi="http://www.w3.org/2001/XMLSchema-instance" xsi:schemaLocation="http://www.xrdml.com/XRDMeasurement/2.3 http://www.xrdml.com/XRDMeasurement/2.3/XRDMeasurement.xsd" status="Completed" recordIdentifier="{DB740665-0761-410E-98EF-0F7C56E0441D}">
	<comment>
		<entry/>
	</comment>
	<sample type="To be analyzed">
		<id>GPSS_Li1p65Mn0p70Fe0p25V0p15Cl4_112425_69248ac4f4e53d1f723993d1</id>
		<name></name>
		<preparedBy></preparedBy>
	</sample>
	<xrdMeasurement measurementType="Scan" status="Completed" sampleMode="Reflection">
		<usedWavelength intended="K-Alpha 1">
			<kAlpha1 unit="Angstrom">1.5405980</kAlpha1>
			<kAlpha2 unit="Angstrom">1.5444260</kAlpha2>
			<kBeta unit="Angstrom">1.3922500</kBeta>
			<ratioKAlpha2KAlpha1>0.5000</ratioKAlpha2KAlpha1>
		</usedWavelength>
		<incidentBeamPath>
			<radius unit="mm">145.00</radius>
			<xRayTube id="1010048" name="Empyrean Cu LFF HR (9430 033 7310x)">
				<tension unit="kV">40.0</tension>
				<current unit="mA">15.0</current>
				<anodeMaterial>Cu</anodeMaterial>
				<focus type="Line">
					<length unit="mm">12.0</length>
					<width unit="mm">0.4</width>
					<takeOffAngle unit="deg">6.0</takeOffAngle>
				</focus>
			</xRayTube>
			<sollerSlit id="21010002" name="Soller slits 0.04 rad.">
				<opening unit="rad">0.0400</opening>
			</sollerSlit>
			<mask id="22031000" name="Fixed mask 13 mm">
				<width unit="mm">9.00</width>
			</mask>
			<divergenceSlit id="22120001" name="Divergence slit 1°" xsi:type="fixedDivergenceSlitType">
				<distanceToSample unit="mm">50.00</distanceToSample>
				<height unit="mm">1.52</height>
			</divergenceSlit>
		</incidentBeamPath>
		<sampleMovement xsi:type="spinningSampleMovementType">
			<spinnerRevolutionTime unit="seconds">1.0</spinnerRevolutionTime>
		</sampleMovement>
		<diffractedBeamPath>
			<radius unit="mm">145.00</radius>
			<antiScatterSlit id="22090040" name="AS slit 9 mm (PIXcel)" xsi:type="fixedAntiScatterSlitType">
				<height unit="mm">9.00</height>
			</antiScatterSlit>
			<sollerSlit id="21020003" name="Large Soller slits 0.04 rad.">
				<opening unit="rad">0.0400</opening>
			</sollerSlit>
			<filter id="20030001" name="Large beta-filter Nickel">
				<material>Ni</material>
				<thickness unit="mm">0.020</thickness>
			</filter>
			<detector id="7010019" name="PIXcel1D-Medipix3 detector" xsi:type="rtmsDetectorType">
				<phd unit="keV">
					<lowerLevel>4.02</lowerLevel>
					<upperLevel>11.27</upperLevel>
				</phd>
				<mode>Scanning</mode>
				<activeLength unit="deg">5.542</activeLength>
			</detector>
		</diffractedBeamPath>
		<scan appendNumber="0" mode="Continuous" scanAxis="Gonio" status="Completed">
			<header>
				<startTimeStamp>2025-11-27T10:16:35-08:00</startTimeStamp>
				<endTimeStamp>2025-11-27T10:24:42-08:00</endTimeStamp>
				<author>
					<name>AutomatedUser</name>
				</author>
				<source>
					<applicationSoftware version="1.7b (136)">PANalytical Aeris Instrument Suite</applicationSoftware>
					<instrumentControlSoftware version="3.2.00000000 20240306">AERIS</instrumentControlSoftware>
					<instrumentID>950485</instrumentID>
				</source>
			</header>
			<dataPoints>
				<positions axis="2Theta" unit="deg">
					<startPosition>10.00943322</startPosition>
					<endPosition>99.99442286</endPosition>
				</positions>
				<positions axis="Omega" unit="deg">
					<startPosition>5.00471661</startPosition>
					<endPosition>49.99721143</endPosition>
				</positions>
				<commonCountingTime unit="seconds">12.495</commonCountingTime>
				<counts unit="counts">2681 2789 2797 2716 2788 2751 2742 2704 2594 2660 2704 2848 2711 2764 2694 2745 2695 2775 2753 2673 2725 2680 2779 2817 2791 2733 2722 2786 2735 2870 2750 2877 2820 2831 2835 2856 2705 2875 2865 2826 2836 2829 2814 2846 2800 2778 2913 2817 2830 2928 2865 2802 2885 2921 2950 2929 2895 2854 2864 2980 2888 2930 2890 2885 2905 2831 2800 2898 2910 3003 2913 2928 2808 3025 2942 2964 2873 2986 2992 3053 2994 2961 2933 3029 2879 3023 2946 2932 2977 2913 3012 2926 3038 3140 2879 3025 2915 3020 3037 3027 3084 3032 3053 3077 3147 3021 3128 3112 3244 3200 3156 3205 2952 3131 3011 3182 3163 3020 3055 3169 3126 3016 2975 3157 3056 3142 3167 3141 3290 3185 3201 3120 3174 3044 3178 3189 3182 3230 3141 3137 3172 3178 3203 3271 3287 3100 3264 3319 3180 3267 3160 3230 3207 3373 3210 3325 3232 3234 3164 3304 3159 3147 3153 3206 3064 3129 3269 3215 3220 3197 3203 3138 3287 3235 3183 3283 3239 3217 3367 3169 3205 3206 3326 3209 3185 3254 3280 3168 3265 3174 3268 3092 3335 3338 3100 3160 3160 3206 3251 3256 3078 3195 3211 3268 3167 3297 3124 3196 3289 3152 3274 3197 3239 3183 3070 3249 3233 3172 3108 3203 3198 3143 3098 3192 3078 3107 3238 3172 3034 3169 3093 3116 3122 3077 3084 3130 3152 3211 3065 3094 2981 3089 3184 3020 3219 3093 3129 3121 2998 3072 3098 3152 3013 3102 3089 2992 3118 3094 3082 3038 3002 3120 3089 3031 3010 3125 3046 3019 3209 3045 2987 3131 3084 3085 3030 3148 3008 3085 3055 2940 2943 2973 3051 2994 2963 3005 3075 2931 3032 3013 2980 2936 3047 3077 3069 2974 3049 3055 3095 3073 3028 3119 2916 3079 3082 3038 3031 3046 3001 3084 3027 3054 3035 3079 3038 3032 3081 2982 3123 2986 3117 3050 3103 3073 2981 3016 3044 3023 3049 3078 3044 2934 3080 3052 3003 3069 2978 3023 2978 2988 3011 3097 3065 3057 3099 3124 3174 3044 3034 3108 3089 3005 3010 3052 3060 3039 3036 2969 3132 3012 3080 3095 3050 3015 3118 3068 3192 3123 3148 3177 3123 3117 3099 3110 3129 3007 3027 3188 3123 3180 3084 2964 3233 3109 3078 3129 3077 3158 3132 3140 3153 3133 3084 3136 3192 3131 3162 3221 3251 3189 3185 3190 3231 3183 3116 3205 3257 3086 3232 3248 3325 3109 3121 3270 3296 3286 3238 3311 3309 3324 3388 3401 3280 3430 3341 3405 3344 3333 3341 3285 3304 3353 3384 3316 3395 3427 3446 3358 3314 3432 3284 3353 3314 3365 3347 3359 3345 3393 3416 3423 3466 3490 3558 3505 3519 3519 3638 3605 3545 3633 3739 3664 3584 3741 3651 3605 3662 3625 3597 3590 3552 3577 3446 3614 3512 3497 3495 3534 3552 3597 3506 3532 3481 3498 3438 3383 3405 3518 3467 3479 3436 3532 3433 3383 3491 3330 3416 3369 3412 3374 3407 3365 3337 3400 3305 3443 3334 3312 3322 3297 3309 3258 3286 3367 3245 3262 3300 3336 3197 3301 3168 3238 3265 3234 3172 3242 3214 3111 3139 3107 3105 3057 3051 3037 3080 3099 3119 3078 3048 3059 3029 2986 3015 3039 2945 3057 2917 2981 3010 2842 2891 2872 2911 2951 2896 2920 2908 2874 2922 2849 2932 2882 2811 2831 2888 2853 2736 2798 2975 2902 2770 2733 2799 2824 2855 2779 2868 2760 2787 2851 2781 2738 2795 2786 2866 2729 2721 2770 2746 2881 2699 2786 2872 2876 2653 2805 2705 2789 2673 2798 2777 2772 2806 2761 2797 2646 2713 2708 2698 2736 2727 2778 2695 2804 2793 2805 2794 2788 2745 2742 2782 2689 2754 2814 2835 2754 2643 2794 2705 2777 2691 2800 2720 2743 2645 2792 2658 2725 2650 2708 2678 2723 2742 2763 2756 2746 2784 2642 2795 2686 2714 2743 2709 2724 2651 2764 2763 2716 2717 2833 2739 2727 2745 2744 2744 2787 2695 2621 2681 2649 2731 2648 2674 2677 2666 2745 2714 2632 2511 2733 2730 2703 2655 2655 2647 2710 2680 2674 2670 2793 2650 2597 2611 2639 2729 2719 2636 2696 2713 2696 2729 2628 2571 2633 2688 2735 2733 2721 2645 2663 2716 2632 2694 2680 2551 2612 2638 2526 2628 2526 2672 2602 2633 2624 2686 2550 2594 2539 2716 2639 2595 2601 2588 2686 2622 2643 2661 2740 2652 2547 2620 2600 2564 2640 2571 2669 2767 2498 2650 2613 2620 2522 2562 2500 2636 2594 2618 2522 2557 2620 2595 2589 2544 2522 2552 2491 2674 2669 2582 2550 2519 2653 2526 2687 2639 2652 2641 2644 2534 2559 2538 2661 2631 2614 2607 2615 2585 2516 2617 2616 2556 2474 2547 2591 2575 2579 2540 2635 2639 2596 2568 2601 2635 2534 2535 2655 2528 2528 2549 2574 2569 2565 2544 2552 2628 2600 2536 2514 2598 2647 2558 2553 2470 2440 2625 2472 2608 2540 2569 2543 2537 2570 2580 2507 2404 2469 2538 2624 2580 2460 2502 2500 2497 2596 2529 2509 2510 2507 2571 2565 2519 2437 2591 2624 2555 2490 2575 2517 2558 2505 2598 2586 2519 2490 2420 2468 2597 2532 2511 2419 2468 2537 2559 2417 2425 2502 2583 2515 2617 2497 2538 2505 2483 2515 2473 2418 2605 2552 2458 2479 2453 2422 2510 2550 2523 2423 2511 2460 2581 2539 2459 2557 2433 2393 2516 2522 2534 2466 2504 2422 2415 2451 2462 2458 2501 2446 2448 2428 2423 2411 2461 2477 2430 2459 2527 2408 2419 2411 2492 2503 2363 2420 2410 2467 2386 2370 2463 2463 2395 2497 2429 2476 2463 2419 2360 2446 2439 2381 2457 2420 2366 2378 2508 2374 2373 2347 2414 2444 2350 2384 2424 2423 2458 2342 2459 2288 2493 2363 2475 2388 2406 2493 2464 2432 2400 2338 2415 2391 2432 2386 2364 2481 2470 2429 2382 2377 2350 2411 2409 2337 2399 2349 2383 2450 2500 2448 2335 2448 2521 2472 2475 2455 2469 2459 2444 2383 2438 2389 2432 2503 2402 2433 2492 2445 2443 2417 2442 2388 2412 2359 2446 2427 2431 2486 2407 2453 2412 2382 2386 2401 2457 2418 2321 2438 2449 2427 2441 2357 2358 2460 2471 2423 2364 2429 2473 2444 2385 2410 2409 2339 2406 2436 2414 2512 2287 2373 2424 2360 2383 2299 2416 2343 2423 2404 2302 2423 2346 2411 2502 2356 2491 2356 2305 2380 2446 2311 2368 2437 2460 2340 2463 2342 2424 2418 2460 2417 2438 2364 2404 2263 2358 2393 2394 2451 2399 2512 2356 2362 2285 2343 2439 2346 2448 2373 2414 2439 2464 2357 2322 2353 2366 2318 2351 2438 2297 2383 2355 2396 2373 2268 2425 2366 2419 2319 2442 2258 2359 2253 2324 2351 2354 2409 2398 2336 2345 2296 2349 2341 2323 2321 2337 2405 2400 2364 2316 2358 2233 2342 2410 2322 2331 2275 2296 2275 2323 2260 2345 2278 2304 2317 2308 2281 2275 2320 2267 2230 2203 2210 2277 2234 2280 2250 2354 2285 2306 2203 2278 2286 2237 2225 2221 2228 2172 2279 2221 2234 2164 2239 2217 2202 2156 2262 2112 2232 2192 2192 2179 2246 2218 2134 2210 2114 2214 2147 2106 2102 2188 2205 2174 2186 2131 2083 2125 2126 2157 2136 2050 2096 2130 2105 2045 2119 2062 2094 2079 2212 2106 2129 2107 2016 2028 2052 2112 1961 2105 1985 2047 1979 2159 2100 1920 2032 2086 2129 1971 2066 1935 2012 2102 1988 2033 2036 2055 2042 2061 1967 2017 2005 2078 1962 1912 2043 1908 1959 1976 1900 2002 1950 1992 2022 1935 1916 2033 1990 1970 2104 1919 2051 2008 1955 2023 1950 1950 2010 1911 1973 1988 1937 1895 1910 2001 2006 1977 2009 1916 1937 1923 1872 1933 1833 1954 1867 1872 1880 1844 1906 1968 1833 1954 1903 1859 1917 1932 1942 1893 1961 2008 1934 1974 1960 1848 1965 1925 1902 1936 1849 1897 1880 1852 1946 1954 1863 1853 1924 1918 1883 1909 1915 1949 1906 1957 2008 1882 1905 1823 1931 1890 1896 1791 1930 1935 1837 1940 1900 1852 1910 1915 1923 1899 1818 1775 1861 1790 1853 1797 1828 1884 1885 1768 1822 1808 1864 1836 1844 1886 1884 1799 1787 1899 1876 1868 1865 1911 1850 1847 1896 1904 1853 1841 1782 1898 1872 1867 1912 1831 1920 1878 1836 1854 1746 1865 1916 1812 1873 1814 1874 1842 1890 1844 1875 1879 1960 1910 1987 1837 1864 1876 1875 1822 1828 1795 1864 1843 1879 1815 1915 1846 1968 1836 1880 1858 1982 1876 1936 1864 1864 1783 1824 1838 1845 1907 1860 1882 1838 1849 1882 1807 1854 1883 1798 1803 1908 1806 1821 1740 1926 1854 1915 1793 1783 1804 1858 1930 1789 1885 1844 1906 1923 1941 1819 1884 1843 1870 1783 1868 1878 1891 1941 1943 1854 1889 1908 1795 1886 1806 1819 1834 1907 1825 1831 1880 1841 1857 1768 1807 1884 1949 1850 1805 1871 1917 1870 1835 1816 1895 1806 1840 1718 1785 1816 1866 1818 1846 1828 1842 1803 1780 1840 1887 1851 1774 1836 1878 1769 1876 1779 1791 1764 1710 1767 1846 1772 1863 1796 1817 1825 1753 1778 1800 1848 1799 1862 1779 1733 1780 1701 1797 1814 1805 1796 1781 1828 1796 1787 1749 1804 1786 1705 1810 1741 1771 1756 1747 1784 1705 1725 1749 1716 1711 1765 1759 1777 1721 1770 1744 1671 1790 1679 1717 1734 1666 1758 1652 1648 1740 1732 1647 1662 1663 1735 1728 1739 1682 1680 1684 1650 1700 1713 1748 1761 1704 1752 1763 1679 1619 1692 1644 1734 1643 1599 1612 1775 1662 1703 1631 1569 1629 1577 1645 1578 1683 1615 1700 1581 1547 1511 1593 1568 1662 1649 1590 1608 1513 1580 1570 1577 1620 1640 1575 1587 1591 1633 1603 1625 1611 1651 1611 1628 1635 1594 1589 1560 1665 1633 1584 1622 1672 1712 1740 1691 1774 1821 1700 1761 1818 1757 1860 1756 1791 1832 1818 1872 1798 1845 1781 1803 1809 1755 1755 1782 1841 1805 1849 1799 1767 1764 1813 1797 1792 1737 1756 1705 1786 1862 1739 1863 1778 1755 1865 1770 1741 1763 1750 1848 1685 1803 1683 1864 1721 1796 1709 1853 1751 1818 1717 1827 1756 1763 1749 1738 1742 1750 1779 1696 1736 1715 1762 1725 1771 1627 1680 1689 1681 1700 1626 1638 1661 1696 1643 1683 1697 1619 1621 1569 1605 1628 1686 1610 1609 1548 1537 1580 1575 1565 1595 1559 1601 1569 1516 1537 1500 1445 1513 1430 1399 1500 1510 1431 1500 1430 1476 1478 1485 1515 1515 1429 1482 1524 1575 1530 1473 1411 1538 1540 1437 1482 1529 1468 1546 1602 1568 1563 1636 1583 1579 1570 1635 1703 1628 1656 1594 1582 1607 1701 1598 1522 1604 1717 1669 1578 1670 1604 1612 1640 1681 1701 1607 1689 1570 1672 1654 1638 1716 1701 1692 1772 1783 1744 1686 1862 1797 1868 1821 1968 1881 1912 1880 1956 1835 1827 1829 1866 1880 1823 1880 1749 1779 1800 1781 1795 1786 1785 1830 1778 1793 1739 1822 1743 1861 1862 1722 1784 1654 1721 1725 1682 1641 1726 1614 1679 1625 1658 1557 1638 1653 1603 1608 1657 1615 1641 1478 1665 1643 1645 1565 1521 1502 1565 1602 1585 1550 1545 1501 1524 1507 1432 1514 1455 1521 1510 1450 1449 1392 1443 1426 1431 1369 1377 1389 1379 1369 1313 1400 1263 1359 1288 1362 1304 1348 1371 1352 1291 1258 1341 1301 1328 1266 1236 1330 1296 1334 1219 1336 1211 1260 1346 1264 1279 1242 1302 1246 1227 1299 1258 1333 1238 1300 1291 1248 1259 1283 1196 1301 1266 1271 1231 1266 1233 1207 1318 1182 1240 1227 1310 1200 1245 1247 1249 1260 1246 1230 1230 1252 1291 1291 1243 1161 1178 1227 1264 1236 1199 1223 1275 1235 1189 1309 1175 1236 1222 1252 1261 1238 1191 1271 1169 1295 1241 1292 1166 1232 1209 1261 1209 1146 1245 1216 1192 1245 1170 1219 1194 1192 1208 1188 1182 1229 1191 1157 1198 1207 1255 1230 1168 1219 1191 1208 1148 1212 1244 1160 1204 1193 1228 1255 1167 1221 1198 1224 1172 1261 1213 1218 1175 1211 1163 1153 1238 1194 1206 1216 1265 1216 1182 1208 1172 1220 1200 1238 1211 1192 1218 1193 1221 1145 1193 1120 1280 1190 1220 1211 1154 1182 1205 1226 1224 1205 1217 1177 1290 1211 1172 1174 1209 1176 1152 1200 1264 1207 1215 1204 1202 1207 1145 1209 1156 1145 1190 1103 1224 1208 1236 1209 1157 1198 1123 1186 1208 1151 1199 1195 1167 1228 1231 1168 1206 1217 1166 1211 1204 1173 1216 1146 1214 1166 1162 1182 1162 1223 1184 1175 1178 1230 1174 1203 1113 1156 1156 1203 1180 1187 1162 1205 1193 1142 1159 1193 1208 1216 1203 1227 1213 1170 1161 1163 1194 1214 1137 1236 1161 1181 1192 1209 1193 1258 1125 1269 1148 1189 1200 1173 1252 1211 1212 1204 1177 1217 1224 1167 1201 1156 1227 1214 1222 1260 1225 1221 1197 1242 1204 1221 1190 1323 1169 1308 1259 1227 1202 1264 1239 1254 1271 1308 1317 1314 1372 1375 1353 1371 1398 1449 1430 1428 1525 1553 1509 1546 1576 1585 1589 1621 1669 1640 1734 1811 1762 1829 1805 1912 1950 2066 2037 2041 2116 2197 2353 2275 2370 2403 2435 2618 2708 2664 2763 2766 2936 2882 3010 2953 3014 3069 3010 3024 3019 2963 3071 3026 3010 3199 3082 3191 3058 3183 3263 3380 3380 3298 3286 3485 3496 3631 3734 3783 3763 3935 3964 4119 4005 4082 3993 4073 3982 3982 3900 3965 3665 3685 3634 3397 3340 3288 3183 3209 3061 3059 2906 2893 2785 2801 2689 2630 2632 2653 2652 2540 2617 2612 2514 2504 2530 2424 2407 2373 2359 2365 2284 2270 2208 2151 2224 2096 1985 1971 2013 1954 1998 1886 1882 1788 1835 1807 1759 1735 1745 1681 1708 1660 1683 1662 1650 1626 1575 1523 1559 1523 1446 1549 1433 1370 1405 1347 1382 1388 1266 1303 1271 1295 1263 1236 1265 1221 1243 1190 1194 1254 1226 1260 1190 1172 1156 1163 1260 1184 1182 1134 1268 1156 1184 1157 1242 1192 1228 1191 1153 1188 1170 1219 1182 1125 1217 1131 1126 1167 1165 1180 1163 1194 1177 1198 1142 1167 1170 1121 1135 1156 1159 1096 1204 1081 1166 1136 1150 1120 1115 1142 1068 1149 1117 1148 1134 1110 1112 1107 1125 1054 1107 1135 1132 1090 1142 1114 1115 1105 1131 1094 1147 1150 1093 1089 1108 1143 1142 1118 1136 1105 1114 1039 1085 1085 1053 1087 1077 1051 1121 1088 1124 1084 1098 1091 1063 1054 1105 1149 1125 1093 1114 1127 1112 1172 1150 1065 1143 1114 1130 1133 1095 1047 1134 1032 1113 1129 1119 1070 1089 1041 1094 1088 1120 1102 1111 1140 1149 1038 1160 1067 1094 1127 1076 1060 1057 1057 1042 1048 1083 1123 1023 1083 1036 1065 1097 1094 1102 1099 1092 1099 1106 1055 1146 1086 1105 1109 1100 1117 1026 1042 1075 1081 1085 1000 1054 1153 1108 1090 1153 1093 1058 1120 1138 1098 1083 1081 1078 1108 1141 1117 1140 1080 1116 1101 1138 1120 1170 1127 1151 1115 1155 1156 1114 1160 1104 1163 1238 1153 1179 1149 1141 1178 1141 1218 1082 1104 1151 1087 1181 1143 1151 1174 1143 1113 1098 1115 1134 1134 1167 1101 1077 1088 1107 1101 1128 1098 1140 1156 1112 1149 1079 1112 1142 1104 1144 1099 1131 1098 1124 1102 1129 1050 1138 1154 1104 1068 1141 1087 1074 1137 1097 1125 1090 1086 1102 1056 1125 1093 1080 1099 1118 1088 1006 1045 1015 1072 1042 1079 1102 1049 1052 1018 987 1053 1045 1045 1106 1062 1035 1068 1017 1068 1009 1070 999 1038 993 1057 1046 1029 1055 1039 1065 1020 1044 1086 1047 1016 1086 1020 1000 1037 1072 1076 1098 1006 1050 1091 1077 1056 1033 1085 1041 959 1037 1044 1036 1054 1006 1076 983 1067 1059 1063 1051 1032 998 1067 1077 1069 989 1073 1077 1010 1036 1059 1006 1041 988 990 1081 977 1015 1045 1019 1036 1028 1031 1056 1004 1013 1036 1042 1008 991 1055 1026 1048 963 1014 986 1056 1026 993 1060 1037 1041 1017 1060 1023 1004 946 1022 1052 1026 1008 1001 1007 991 967 1018 971 1004 955 987 1075 1057 974 1009 1062 1036 1007 1047 997 1046 1034 996 962 1016 942 1008 981 1035 981 1067 937 1007 1004 1052 1001 993 1051 918 990 1021 1020 994 987 1016 1064 982 1070 998 972 967 1050 991 1010 1026 982 957 954 1011 955 1046 1009 986 986 981 994 949 998 1011 975 949 1020 976 1017 1036 1060 1029 976 1011 1050 1009 994 974 966 993 1050 940 970 968 951 971 989 979 1077 1019 997 1005 1006 993 955 1011 1026 987 944 980 991 1032 1003 1032 966 959 985 1024 1023 995 979 998 997 986 1033 996 1025 939 956 962 999 988 964 953 1039 982 954 955 956 925 1034 962 1013 1006 1041 954 981 1001 986 952 1035 983 976 976 1000 1033 940 1005 1012 987 941 929 982 1026 974 1034 933 1022 975 966 1033 1019 976 982 1047 1005 1027 1041 1013 1023 969 1015 969 980 1010 952 962 1002 948 973 963 967 1000 1012 1010 952 971 991 1013 994 982 962 1034 1020 974 945 996 950 973 1053 1005 1004 954 999 981 1008 967 962 967 970 991 991 1004 987 1006 934 1035 924 1006 970 985 950 1023 1023 985 946 993 1006 980 1059 997 972 968 977 961 977 882 1026 999 960 945 984 949 945 1000 957 986 965 1003 961 931 999 965 998 964 962 989 966 1006 984 948 994 1024 965 952 957 943 977 1019 994 991 1034 970 960 1008 978 998 1022 1021 972 947 1007 1002 984 969 1033 963 930 959 1016 998 964 1049 1069 1014 1017 1019 950 1010 1003 1009 954 1027 958 1002 1025 1013 1008 925 964 992 997 998 968 955 968 1017 946 941 1005 961 967 923 983 957 960 975 1046 999 1000 967 993 989 985 1016 1006 1000 941 1002 941 928 979 922 1046 974 1033 996 948 990 994 988 936 928 951 977 917 954 947 1053 967 970 986 951 998 956 923 974 925 985 976 958 968 926 937 926 997 975 908 922 976 906 993 947 1002 936 962 965 937 892 939 1030 937 985 976 982 966 969 966 906 934 956 977 959 980 975 1019 957 991 980 963 937 954 925 977 1001 995 996 950 948 968 957 1045 979 977 964 992 948 963 1030 949 924 957 964 989 908 1027 934 972 924 938 922 1004 1061 935 972 994 971 1013 954 940 925 965 1027 992 983 954 955 1012 998 1028 1008 961 1046 989 1009 985 993 1004 1029 969 1014 973 936 981 1030 998 997 1037 1025 1083 1038 997 1025 1026 1038 1043 1083 1046 1000 1084 1116 1088 1062 1065 1059 1032 1072 1086 1102 1025 1027 1054 1107 1069 1051 1074 1134 1072 1054 1133 1154 1106 1046 1080 1110 1080 1018 1088 1085 1149 1074 1111 1147 1070 1093 1165 1078 1072 1118 1076 1146 1028 1051 1085 1103 1108 1124 1166 1168 1170 1086 1135 1183 1113 1198 1086 1141 1165 1116 1137 1169 1116 1106 1137 1169 1091 1117 1145 1189 1140 1106 1088 1072 1097 1127 1128 1091 1045 1127 1144 1145 1167 1124 1078 1092 1052 1082 1125 1063 1071 1089 1096 1097 1092 1073 1028 1028 1048 1065 1052 1075 1086 1081 1059 988 1050 986 1088 1076 1038 1005 1011 991 1075 1051 1021 1032 1002 999 1042 936 1061 1039 1033 967 1015 1016 1004 1023 997 979 1011 1009 959 990 948 976 1009 1015 960 1004 936 1042 949 1004 941 998 989 939 1009 953 942 978 983 964 1024 953 957 1002 970 978 971 981 919 984 1019 933 1010 945 994 1006 986 967 934 907 941 988 995 968 996 959 936 951 929 955 1004 914 931 967 947 992 939 950 916 947 1009 905 886 968 930 976 966 944 982 997 941 954 944 982 942 988 955 939 951 1025 925 1000 947 965 973 947 963 965 978 1002 1015 929 944 970 994 927 987 1006 954 983 961 988 905 991 985 974 963 989 924 912 962 960 946 970 979 1005 959 1024 939 922 943 977 967 972 995 934 1021 948 950 979 983 967 979 943 929 1049 987 998 969 969 1010 1004 989 970 958 950 989 1040 918 975 1004 945 934 898 960 942 918 951 997 944 982 949 996 929 930 1045 965 980 924 976 980 960 943 987 1045 964 1054 978 942 952 975 993 977 974 997 930 951 936 1053 993 966 966 969 1005 1000 1020 1008 1000 1041 993 989 998 991 999 999 1031 1053 1075 1060 1093 1104 1147 1177 1260 1268 1322 1256 1276 1246 1303 1265 1319 1294 1349 1383 1339 1321 1388 1318 1338 1381 1373 1353 1433 1429 1401 1376 1393 1440 1461 1507 1583 1571 1511 1583 1621 1607 1676 1595 1587 1725 1635 1669 1644 1653 1616 1665 1608 1635 1677 1716 1782 1657 1658 1705 1703 1687 1670 1613 1662 1696 1661 1655 1666 1633 1659 1631 1640 1622 1678 1662 1661 1580 1639 1669 1721 1628 1620 1655 1600 1600 1586 1627 1587 1580 1554 1538 1642 1625 1613 1587 1706 1684 1653 1693 1622 1617 1653 1650 1631 1734 1674 1628 1649 1624 1692 1679 1621 1645 1627 1703 1622 1594 1655 1602 1620 1562 1674 1565 1595 1536 1636 1540 1598 1537 1587 1454 1523 1542 1519 1513 1450 1507 1521 1471 1452 1446 1411 1488 1448 1423 1386 1398 1374 1393 1461 1466 1339 1495 1355 1337 1385 1281 1366 1382 1267 1339 1311 1280 1287 1287 1300 1324 1243 1339 1199 1215 1204 1214 1253 1198 1191 1253 1170 1169 1151 1196 1159 1117 1102 1150 1084 1129 1103 1077 1103 1048 1085 1037 1108 1062 1043 1031 1041 1012 1000 1049 1096 1008 1006 970 1005 1021 969 974 958 916 982 1011 938 967 947 1007 994 996 972 985 957 986 1012 968 1022 962 963 981 1001 1009 951 987 954 924 1011 1015 976 995 983 1000 973 1053 977 1050 1031 1026 1025 1104 1085 1060 1100 1112 1040 1076 1069 1084 1086 1080 1077 1026 1053 1020 1139 1061 1039 1132 1127 1091 1012 1112 1092 1072 1054 1108 1152 1088 1126 1094 1112 1130 1144 1117 1053 1146 1136 1091 1090 1106 1096 1106 1059 1122 1070 1087 1105 1063 1081 1069 1077 1024 1089 1037 1100 1050 1074 1057 1058 1097 1032 1120 1003 1095 1049 1054 1102 983 1034 986 1028 1013 1022 968 1063 1060 992 964 1071 983 925 975 983 1007 1020 995 1015 961 998 1013 1012 984 1072 994 954 1041 1048 957 980 924 953 961 986 980 973 889 932 960 924 998 963 1037 933 979 935 915 957 934 957 943 923 979 945 939 921 924 966 965 949 926 939 970 1003 905 913 916 954 985 946 926 888 904 898 956 908 913 956 980 959 889 933 927 912 927 891 880 910 947 838 903 903 895 932 900 908 941 907 961 933 907 938 887 863 923 958 894 943 891 922 852 945 935 850 967 949 983 938 899 872 849 894 926 879 894 911 885 932 935 886 907 926 923 911 928 896 897 915 869 935 866 919 845 886 930 953 867 858 882 919 929 920 941 907 904 878 872 898 879 925 946 938 978 906 909 899 936 933 891 854 868 898 875 871 855 905 913 953 945 947 911 959 876 869 890 957 878 934 884 920 917 876 936 879 926 876 881 947 908 848 911 831 904 935 915 871 926 874 923 903 915 952 894 932 873 934 945 888 959 905 924 932 929 870 865 894 844 930 994 973 906 858 949 936 917 892 897 921 921 872 899 836 848 909 872 959 891 872 888 922 925 893 895 846 915 889 936 861 896 836 907 894 939 877 897 868 926 880 868 918 956 827 941 888 875 872 856 870 925 849 852 890 934 883 869 863 896 862 870 875 907 855 873 907 854 866 839 893 889 891 833 931 838 910 858 876 903 875 900 917 869 886 885 892 878 924 862 881 869 864 880 858 903 878 865 862 913 853 911 915 882 853 923 887 856 898 863 951 884 945 880 889 867 958 890 878 865 840 906 908 880 903 903 831 905 922 900 875 874 880 895 855 900 905 876 901 891 923 882 851 892 898 845 869 916 889 823 857 846 878 909 865 948 886 896 931 875 896 827 913 891 906 940 838 925 939 901 888 908 880 891 891 854 879 890 878 865 893 900 907 866 901 857 864 886 816 899 836 915 873 911 884 919 864 833 842 909 898 850 907 880 887 893 903 902 870 898 822 846 890 896 841 920 859 933 954 891 943 853 868 883 900 905 896 904 834 877 816 881 908 836 895 891 858 925 861 884 909 906 929 907 833 888 853 858 885 896 849 905 863 879 855 898 887 900 864 933 904 833 839 851 880 917 852 886 872 919 975 934 947 922 887 921 899 956 865 924 973 905 934 937 888 887 952 904 932 887 943 938 943 907 937 908 894 902 951 849 931 888 887 909 919 943 931 921 912 910 878 911 875 873 868 940 899 908 922 939 871 912 868 919 937 946 911 901 941 915 918 896 895 948 864 904 917 911 959 922 859 946 908 866 981 964 940 907 927 910 945 894 905 968 977 943 931 910 936 967 964 937 936 966 935 894 900 977 944 949 979 953 987 983 921 970 906 1006 995 945 930 993 967 940 978 975 912 907 940 961 935 895 901 965 957 960 933 954 955 908 953 942 982 995 951 999 972 964 936 985 1014 1000 983 950 942 994 981 953 945 988 988 954 938 992 1056 999 973 983 980 1003 1009 1072 1062 994 964 1047 995 1039 1022 1028 982 996 1001 1061 952 1011 977 1090 1038 983 1047 1024 1027 1002 985 993 1032 1031 975 976 985 1025 963 963 958 913 962 923 997 941 917 926 985 917 947 937 928 951 905 1008 944 851 936 915 896 901 976 959 947 894 922 914 903 861 969 885 933 932 889 904 864 933 922 880 863 883 827 862 867 844 867 913 832 834 872 828 893 863 891 860 916 847 878 887 882 848 835 859 847 859 895 825 855 876 861 899 884 868 941 877 901 883 823 873 911 915 886 885 874 843 877 924 838 910 839 911 857 892 891 877 912 943 874 905 864 907 898 890 881 899 877 908 888 922 873 892 853 896 865 897 887 937 932 888 933 950 905 944 905 944 933 991 936 923 914 945 962 958 939 1040 954 959 1005 988 990 943 1003 946 1000 1055 1073 995 1032 1040 1107 1081 982 1059 1055 1061 1142 1082 1115 1020 1142 1052 1067 1061 1076 1106 1066 1033 1127 1115 1070 1063 1055 1082 1066 1125 1139 1127 1085 1093 1053 1084 1124 1129 1087 1122 1063 1077 1094 1036 1089 1025 1052 1103 1071 1118 1126 1074 1022 1090 1084 993 1054 1005 1057 1022 1040 1046 1005 990 1012 1004 971 1003 944 980 985 1022 1036 998 1007 1070 1001 997 968 947 1004 920 972 965 974 1023 986 1046 1035 1029 973 1009 1040 1048 1063 1019 1012 1046 1010 987 1004 965 981 1014 989 970 957 1002 1026 948 977 930 1007 998 970 994 946 915 965 906 949 953 936 886 914 959 956 894 934 928 922 952 936 980 877 900 898 918 938 864 959 901 934 924 887 862 813 866 911 911 942 860 911 847 878 896 936 904 871 896 899 891 893 894 913 907 924 914 935 871 837 893 893 913 879 978 916 900 893 990 926 982 909 874 858 943 953 946 907 954 915 894 930 885 931 953 913 915 915 966 925 952 966 1011 990 969 929 990 940 1016 940 963 991 973 927 979 998 958 943 1013 937 984 913 1015 935 1026 947 909 962 887 920 945 922 964 921 950 925 943 910 929 897 930 983 946 966 892 934 919 947 887 939 898 921 919 901 936 896 911 943 879 922 879 872 895 861 917 877 877 965 880 898 849 869 918 890 907 855 858 928 862 892 849 911 896 909 909 915 869 906 846 874 888 854 858 916 878 837 843 843 888 850 862 883 939 902 925 833 906 884 874 853 905 895 863 839 919 862 890 890 920 923 888 908 860 878 874 854 889 824 915 953 921 870 890 901 918 881 914 857 870 874 885 861 888 886 872 841 906 895 913 831 911 879 922 918 900 882 806 884 873 890 878 908 932 930 934 870 907 887 919 858 880 858 881 862 866 878 853 837 875 816 849 891 894 892 930 869 850 818 886 873 885 812 851 904 859 873 870 848 833 891 883 876 854 934 837 832 875 874 884 835 890 841 854 867 874 844 895 889 853 906 863 873 839 801 844 875 844 871 834 837 886 845 796 860 867 808 873 849 885 850 832 881 868 878 825 851 834 907 849 838 802 858 878 896 793 857 796 899 834 812 799 842 827 857 815 858 838 813 820 847 834 822 904 781 865 840 833 875 834 829 829 790 817 800 840 853 849 819 862 849 864 884 828 847 828 874 835 889 831 880 836 864 837 840 809 855 843 894 811 839 798 844 849 855 846 860 875 830 847 832 810 825 795 838 780 834 850 845 834 861 872 789 821 898 848 867 860 877 816 899 786 842 761 884 797 884 860 833 846 854 837 843 846 830 870 860 827 846 842 848 805 862 828 901 793 847 839 840 845 855 866 855 869 848 848 871 807 762 866 832 812 835 813 834 841 872 840 841 850 864 896 834 833 775 820 819 816 888 876 902 847 856 849 884 866 833 861 810 871 766 859 881 812 907 880 849 796 823 826 858 884 877 842 907 845 852 843 839 873 880 852 847 876 866 863 863 865 811 865 853 834 856 778 862 777 832 833 860 822 894 794 827 855 831 863 871 883 775 917 862 782 795 836 872 796 846 842 825 780 812 862 852 772 842 892 844 843 776 850 850 864 858 884 840 830 859 800 850 838 897 848 802 832 835 825 862 861 836 909 843 856 848 917 861 831 872 805 863 878 869 826 847 849 808 853 886 848 905 827 828 858 838 896 872 871 869 843 868 868 836 882 869 798 866 866 891 862 919 925 902 877 883 890 840 896 872 922 884 920 885 864 884 875 869 894 928 811 894 855 907 848 885 875 939 906 902 862 918 880 973 854 923 839 843 861 882 890 868 835 876 893 855 903 872 861 860 883 891 855 884 850 814 920 865 858 896 834 854 868 856 881 808 861 857 808 873 837 878 820 858 822 828 862 851 851 858 858 874 826 790 838 876 819 886 855 916 879 868 912 830 868 885 866 802 817 869 847 828 884 867 835 896 852 899 857 875 854 783 838 819 818 849 778 847 889 813 900 815 853 823 790 827 856 843 869 859 853 840 818 857 848 853 882 855 800 872 867 796 882 833 813 788 836 839 830 840 872 817 861 869 827 898 864 828 792 871 817 848 862 818 871 837 836 835 864 801 884 821 876 812 873 832 797 863 820 824 859 821 816 893 814 804 897 829 808 818 826 866 845 901 868 852 808 823 856 807 813 810 828 839 787 823 881 830 816 793 830 839 885 874 816 866 811 764 840 909 902 841 838 905 775 804 851 816 837 865 819 851 874 854 840 898 874 848 867 824 895 783 828 814 834 854 832 894 864 897 823 912 837 870 884 870 871 861 901 854 901 847 855 884 892 864 924 841 906 897 857 849 941 872 885 874 939 900 889 856 870 906 913 887 897 862 942 908 899 897 940 877 882 973 949 929 952 913 888 898 969 906 911 984 891 920 992 966 899 888 874 913 911 1025 938 926 883 964 1005 931 952 994 960 946 909 993 946 940 886 928 909 936 971 973 923 925 921 907 969 907 934 924 931 971 928 968 942 950 919 906 977 880 913 873 981 928 874 905 973 881 967 923 899 887 983 889 973 909 994 1000 925 919 878 897 864 969 914 939 901 948 915 841 903 923 896 918 869 930 869 906 941 923 858 907 927 934 928 874 899 893 920 858 877 933 862 891 908 895 844 873 933 921 868 870 843 852 802 862 783 891 891 865 840 846 844 853 845 912 762 855 842 874 837 847 800 809 853 890 794 887 865 826 842 846 819 887 854 838 835 810 837 779 814 854 850 843 799 819 856 901 858 837 875 815 839 862 823 819 805 840 785 808 823 869 876 821 846 879 840 835 822 856 890 824 829 867 826 802 792 833 863 821 896 851 861 826 814 776 829 806 858 815 822 808 850 870 813 884 844 866 787 836 816 867 843 775 819 871 883 859 866 869 836 835 826 852 846 820 890 777 862 811 776 841 880 836 824 851 872 870 884 835 832 838 862 845 836 847 842 792 838 796 798 792 781 819 784 835 823 810 784 815 779 870 894 814 866 814 851 794 839 789 886 846 818 806 805 831 827 903 839 800 833 806 869 821 853 845 818 868 833 833 845 877 851 868 840 859 870 864 862 825 844 845 818 788 861 850 849 833 858 831 847 849 826 809 843 831 857 879 809 828 799 817 805 838 852 839 830 896 847 842 858 839 804 830 794 819 833 862 843 855 882 813 859 816 814 865 844 808 841 797 802 842 869 813 840 832 832 857 841 830 831 862 816 780 853 857 830 843 844 805 849 836 862 835 869 848 805 841 829 877 804 788 866 803 850 849 816 887 841 843 857 855 804 831 884 813 835 875 819 830 870 822 783 838 818 837 824 811 812 795 829 797 830 809 835 847 905 854 862 837 821 864 834 817 828 820 871 828 831 886 862 871 820 823 822 789 849 826 840 810 821 798 796 815 825 860 854 836 824 830 828 844 802 865 822 868 851 799 769 815 858 831 847 828 827 897 858 862 823 798 873 850 835 799 808 821 831 815 840 854 827 800 837 864 812 758 803 819 842 789 785 792 813 818 858 833 831 850 837 839 851 788 868 844 857 875 906 822 875 858 815 856 868 853 840 821 779 881 840 865 845 827 857 841 847 869 800 836 833 811 815 842 845 822 879 839 777 795 799 822 891 858 853 829 881 836 818 817 882 795 835 815 880 829 863 853 863 812 846 839 826 860 857 827 873 831 850 851 883 883 866 819 840 867 870 904 847 842 828 839 887 802 833 893 865 849 885 830 881 925 899 842 842 848 861 898 802 909 879 860 876 838 891 850 875 859 906 828 915 851 846 904 852 894 869 890 848 827 841 819 847 875 832 851 857 862 862 806 899 885 861 874 871 833 859 769 891 865 875 844 862 854 847 821 885 826 889 812 856 851 878 829 836 884 885 890 810 880 914 876 873 843 912 879 842 887 914 886 818 842 881 870 883 915 856 802 837 843 900 861 846 896 909 865 876 883 892 864 880 841 825 861 870 855 866 858 867 848 796 915 818 837 900 871 818 856 829 886 858 919 864 878 895 886 844 891 901 867 856 861 898 851 865 853 844 822 830 916 875 881 914 873 916 862 932 823 861 851 842 900 838 866 852 880 880 875 900 839 883 820 843 888 862 889 884 914 848 889 874 858 859 849 888 858 862 910 857 856 843 890 909 873 919 909 913 844 823 833 886 889 890 883 906 943 906 817 942 865 896 865 933 904 871 879 926 865 921 861 880 873 876 884 898 968 902 871 886 889 891 896 853 870 885 863 888 844 975 918 886 944 926 921 890 890 884 900 867 962 877 896 887 868 865 875 925 934 878 916 864 795 900 875 859 914 910 893 921 877 863 959 888 953 860 903 840 867 911 859 924 890 884 855 902 950 881 898 885 902 934 943 919 880 955 945 976 930 950 949 888 997 937 926 938 959 929 956 973 946 998 1020 943 992 998 1026 981 999 1014 986 1023 998 1013 990 981 1020 1062 1035 996 1002 984 1034 1034 1006 977 1027 1027 1005 1007 1021 1033 1018 1009 1017 1065 1083 1027 1016 929 1004 1075 1067 944 1072 956 1026 1001 1011 1051 966 1101 1017 968 1006 951 993 955 1044 1048 993 978 1036 1025 1005 929 935 1015 996 957 997 990 1039 1037 1027 982 987 972 962 970 950 947 1031 983 989 950 935 990 996 962 975 1013 910 941 949 1027 991 973 877 947 944 963 904 946 975 895 928 987 938 958 911 965 1010 914 945 881 967 961 874 961 882 926 897 917 927 925 949 896 939 912 929 922 927 962 889 938 924 920 932 916 963 1033 1011 997 984 1037 1013 997 1012 1018 975 1057 998 1045 1005 962 1089 1056 1124 1075 1017 1022 1106 1043 1053 1124 1048 1105 1101 1087 1005 1076 1089 1049 1047 1083 1116 1113 1061 1053 1111 1052 1036 1069 1057 1036 988 1098 1026 1042 964 1007 1068 998 1046 973 1032 973 1018 1022 1018 994 1018 1028 1014 930 989 993 959 973 1026 996 922 923 937 918 909 901 966 944 945 902 885 919 863 936 880 919 888 867 917 899 898 883 892 877 900 930 838 922 900 881 898 919 881 929 920 858 884 885 889 887 871 813 862 894 889 856 909 881 888 849 919 845 812 835 823 826 861 838 844 869 837 882 876 825 866 901 900 887 873 875 811 857 893 866 901 876 856 873 818 882 880 884 817 822 817 893 895 837 843 847 867 853 913 880 902 892 856 871 808 909 858 876 918 888 870 884 847 890 829 847 851 886 883 877 884 889 881 849 853 865 856 858 884 833 881 882 908 889 842 885 855 863 837 850 841 877 824 847 841 866 873 837 808 881 843 812 894 838 816 881 870 870 813 838 890 872 845 879 869 865 785 858 925 838 885 864 833 904 836 820 786 823 801 838 877 819 893 876 866 869 844 847 854 838 809 811 834 833 817 890 847 846 785 778 817 858 898 822 860 857 849 869 801 856 802 841 886 835 827 851 853 841 818 816 850 874 807 868 810 883 825 796 832 825 833 792 808 871 813 828 854 878 799 817 866 810 846 831 863 824 840 846 843 781 822 867 772 816 842 839 826 844 789 799 835 800 859 841 843 836 834 806 808 827 829 803 818 877 871 860 858 853 820 831 832 876 859 830 780 823 856 848 874 811 805 887 836 849 854 840 866 817 886 813 839 825 863 850 783 872 841 860 856 882 800 810 807 827 805 853 868 810 834 837 827 806 868 860 855 846 823 836 825 824 804 865 859 814 860 786 855 818 866 839 816 861 807 801 886 938 806 812 885 823 852 800 841 820 826 802 853 844 876 852 844 802 796 812 793 797 834 819 835 803 804 868 879 800 837 847 860 878 796 868 888 844 854 807 844 844 786 858 890 824 830 821 815 822 858 852 825 835 821 830 798 862 873 848 835 864 844 851 805 819 838 828 864 838 874 840 830 814 874 828 874 845 832 832 845 808 824 848 862 798 864 847 871 863 866 844 834 857 830 794 859 865 795 865 846 844 862 832 814 873 848 927 821 842 862 885 836 854 899 879 893 835 828 883 819 808 862 872 796 848 851 937 870 846 938 904 828 868 872 880 891 787 893 879 841 882 883 844 834 901 908 876 873 837 849 819 821 846 889 875 883 855 904 875 881 850 891 862 834 795 823 864 866 869 829 824 884 862 809 896 772 849 845 782 815 909 864 868 815 815 850 886 790 824 843 801 822 839 897 835 867 873 834 818 830 840 836 846 866 856 858 933 846 867 862 875 866 920 858 830 843 837 799 887 805 855 843 817 876 844 874 871 850 824 860 892 842 842 910 804 798 830 796 802 873 842 796 872 883 838 819 805 801 834 854 837 865 857 771 796 848 869 853 874 883 831 817 816 823 837 812 872 808 866 812 857 815 824 847 860 844 884 831 817 805 810 867 857 835 824 858 801 882 803 796 887 823 864 819 814 871 843 833 854 889 849 848 835 840 855 799 826 873 791 848 864 844 829 837 859 822 861 892 861 848 796 872 845 857 894 851 855 906 899 886 921 895 821 838 892 886 825 926 887 857 880 875 848 887 882 895 868 957 900 878 884 934 920 882 886 911 901 889 894 917 876 859 883 883 886 876 919 856 879 914 941 896 936 915 914 920 917 926 898 916 915 939 918 947 910 930 921 929 868 978 941 872 893 961 895 849 902 886 938 929 939 892 986 927 985 927 943 943 945 959 936 956 950 958 921 925 1003 962 951 981 913 917 908 907 943 996 965 954 1014 935 1016 969 990 1008 961 941 971 930 984 988 980 929 910 979 946 941 946 935 949 892 991 919 946 919 984 914 958 920 947 947 964 997 940 908 943 917 935 961 967 958 961 965 968 955 906 888 903 948 948 953 964 906 916 910 964 876 843 875 935 864 928 896 911 882 951 893 884 908 830 914 920 827 886 846 913 930 846 888 887 868 915 869 927 870 901 908 879 879 883 860 839 882 859 911 902 948 871 864 914 845 917 881 890 874 938 968 881 943 940 892 938 912 915 946 905 878 922 855 999 878 952 937 970 863 906 928 924 862 908 902 881 866 852 930 993 906 861 949 936 941 921 920 938 871 946 897 944 877 880 918 926 865 876 865 928 919 813 865 900 863 862 848 894 870 824 892 876 854 876 854 846 918 871 873 857 869 899 859 829 881 870 897 878 827 827 856 849 812 781 840 843 865 787 856 877 809 804 872 799 897 846 824 833 880 818 833 819 885 823 856 853 842 836 880 862 829 827 867 878 885 836 818 865 858 768 822 822 853 861 865 920 880 906 889 829 856 865 820 879 880 817 848 857 875 865 852 841 851 883 829 855 904 861 850 807 865 879 896 840 817 835 883 814 877 873 879 880 913 902 883 868 935 904 803 880 844 844 899 849 771 811 827 908 888 811 839 864 845 833 844 852 903 819 885 823 868 872 882 840 917 827 794 800 874 813 808 837 841 820 846 873 869 843 798 833 823 820 846 851 793 825 832 836 793 818 857 844 843 814 834 802 774 792 831 830 803 807 834 810 833 820 810 844 827 809 838 816 840 801 813 844 846 923 844 818 868 830 853 854 850 827 806 848 783 867 843 776 819 800 851 833 911 845 808 895 805 839 810 812 837 832 854 811 766 843 863 866 807 847 814 927 822 843 872 822 850 835 848 775 851 835 813 820 840 807 872 779 823 844 847 854 807 804 898 855 833 848 848 833 843 781 900 828 893 856 794 818 806 813 846 813 856 773 839 838 804 824 832 855 783 813 846 795 798 861 855 834 844 875 832 838 809 796 835 824 851 868 859 799 815 854 858 886 864 840 871 846 857 854 802 822 788 791 795 827 809 842 845 815 806 855 806 823 787 880 864 897 807 840 812 791 837 816 872 797 852 848 834 813 807 777 850 825 816 824 814 828 855 820 875 800 816 844 834 863 847 843 841 773 815 826 824 819 814 790 854 831 904 868 838 862 848 843 827 849 811 832 855 792 799 826 787 814 819 832 851 866 804 808 798 812 881 833 886 870 816 881 882 861 843 897 900 867 871 825 833 799 814 805 872 849 843 849 840 825 837 887 789 821 857 865 784 828 876 826 838 864 816 852 915 778 835 816 860 857 835 891 858 832 820 833 881 758 898 818 830 799 860 848 836 917 903 834 872 842 850 864 817 865 834 849 844 845 836 885 875 890 892 833 895 800 853 879 849 811 838 863 812 855 855 871 845 884 809 876</counts>
			</dataPoints>
		</scan>
	</xrdMeasurement>
</xrdMeasurements>
