<?xml version="1.0"?>
<xrdMeasurements xmlns="http://www.xrdml.com/XRDMeasurement/2.3" xmlns:xsi="http://www.w3.org/2001/XMLSchema-instance" xsi:schemaLocation="http://www.xrdml.com/XRDMeasurement/2.3 http://www.xrdml.com/XRDMeasurement/2.3/XRDMeasurement.xsd" status="Completed" recordIdentifier="{A761C900-CDFE-4305-8AD2-6355C7B7FB97}">
	<comment>
		<entry/>
	</comment>
	<sample type="To be analyzed">
		<id>GPSS_Li1p4Mg0p8Ta0p17Sc0p05Cl4_112225_6921f967f4e53d1f72397d35</id>
		<name></name>
		<preparedBy></preparedBy>
	</sample>
	<xrdMeasurement measurementType="Scan" status="Completed" sampleMode="Reflection">
		<usedWavelength intended="K-Alpha 1">
			<kAlpha1 unit="Angstrom">1.5405980</kAlpha1>
			<kAlpha2 unit="Angstrom">1.5444260</kAlpha2>
			<kBeta unit="Angstrom">1.3922500</kBeta>
			<ratioKAlpha2KAlpha1>0.5000</ratioKAlpha2KAlpha1>
		</usedWavelength>
		<incidentBeamPath>
			<radius unit="mm">145.00</radius>
			<xRayTube id="1010048" name="Empyrean Cu LFF HR (9430 033 7310x)">
				<tension unit="kV">40.0</tension>
				<current unit="mA">15.0</current>
				<anodeMaterial>Cu</anodeMaterial>
				<focus type="Line">
					<length unit="mm">12.0</length>
					<width unit="mm">0.4</width>
					<takeOffAngle unit="deg">6.0</takeOffAngle>
				</focus>
			</xRayTube>
			<sollerSlit id="21010002" name="Soller slits 0.04 rad.">
				<opening unit="rad">0.0400</opening>
			</sollerSlit>
			<mask id="22031000" name="Fixed mask 13 mm">
				<width unit="mm">9.00</width>
			</mask>
			<divergenceSlit id="22120001" name="Divergence slit 1°" xsi:type="fixedDivergenceSlitType">
				<distanceToSample unit="mm">50.00</distanceToSample>
				<height unit="mm">1.52</height>
			</divergenceSlit>
		</incidentBeamPath>
		<sampleMovement xsi:type="spinningSampleMovementType">
			<spinnerRevolutionTime unit="seconds">1.0</spinnerRevolutionTime>
		</sampleMovement>
		<diffractedBeamPath>
			<radius unit="mm">145.00</radius>
			<antiScatterSlit id="22090040" name="AS slit 9 mm (PIXcel)" xsi:type="fixedAntiScatterSlitType">
				<height unit="mm">9.00</height>
			</antiScatterSlit>
			<sollerSlit id="21020003" name="Large Soller slits 0.04 rad.">
				<opening unit="rad">0.0400</opening>
			</sollerSlit>
			<filter id="20030001" name="Large beta-filter Nickel">
				<material>Ni</material>
				<thickness unit="mm">0.020</thickness>
			</filter>
			<detector id="7010019" name="PIXcel1D-Medipix3 detector" xsi:type="rtmsDetectorType">
				<phd unit="keV">
					<lowerLevel>4.02</lowerLevel>
					<upperLevel>11.27</upperLevel>
				</phd>
				<mode>Scanning</mode>
				<activeLength unit="deg">5.542</activeLength>
			</detector>
		</diffractedBeamPath>
		<scan appendNumber="0" mode="Continuous" scanAxis="Gonio" status="Completed">
			<header>
				<startTimeStamp>2025-11-24T13:18:07-08:00</startTimeStamp>
				<endTimeStamp>2025-11-24T13:26:14-08:00</endTimeStamp>
				<author>
					<name>AutomatedUser</name>
				</author>
				<source>
					<applicationSoftware version="1.7b (136)">PANalytical Aeris Instrument Suite</applicationSoftware>
					<instrumentControlSoftware version="3.2.00000000 20240306">AERIS</instrumentControlSoftware>
					<instrumentID>950485</instrumentID>
				</source>
			</header>
			<dataPoints>
				<positions axis="2Theta" unit="deg">
					<startPosition>10.00943322</startPosition>
					<endPosition>99.99442286</endPosition>
				</positions>
				<positions axis="Omega" unit="deg">
					<startPosition>5.00471661</startPosition>
					<endPosition>49.99721143</endPosition>
				</positions>
				<commonCountingTime unit="seconds">12.495</commonCountingTime>
				<counts unit="counts">3045 3064 3017 2910 3074 3006 3038 3044 3020 2984 3114 3144 3099 3063 3008 3044 2944 3053 3037 3077 3048 3036 2997 3150 3060 3033 3028 3141 2985 3181 3183 3280 3122 3200 3140 3033 2963 3088 3086 3197 3105 3156 3091 2989 3005 3169 3200 3152 3077 3060 3131 3096 3053 3062 3057 3152 3263 3082 3056 3130 3194 3116 3118 3208 3163 3089 3090 3138 3132 3045 3103 3207 3151 3212 3118 3032 3099 3050 3145 3155 3179 3314 3104 3083 3235 3183 3094 3159 3304 3245 3212 3258 3216 3356 3267 3222 3322 3272 3309 3332 3213 3201 3170 3285 3212 3281 3223 3177 3257 3235 3280 3346 3298 3229 3314 3325 3359 3271 3338 3252 3352 3218 3185 3228 3251 3234 3300 3248 3291 3284 3459 3370 3225 3263 3294 3259 3313 3344 3276 3391 3270 3361 3301 3421 3325 3322 3429 3355 3232 3258 3291 3354 3264 3401 3352 3317 3314 3436 3375 3340 3335 3242 3437 3418 3396 3401 3321 3350 3327 3274 3307 3309 3359 3330 3439 3369 3305 3464 3306 3381 3340 3457 3334 3251 3390 3466 3396 3367 3334 3390 3313 3357 3263 3385 3323 3331 3288 3330 3347 3366 3270 3303 3362 3378 3282 3282 3289 3345 3326 3242 3250 3305 3356 3249 3249 3254 3266 3249 3313 3297 3212 3233 3318 3325 3280 3239 3268 3180 3220 3266 3362 3332 3143 3250 3264 3189 3193 3190 3143 3218 3257 3312 3224 3201 3198 3168 3209 3154 3184 3138 3395 3295 3348 3256 3275 3125 3255 3193 3182 3297 3175 3207 3186 3093 3144 3096 3296 3166 3155 3139 3133 3085 3177 3140 3161 3164 3236 3183 3165 3213 3242 3164 3101 2971 3262 3124 3285 3207 3181 3096 3301 3202 3277 3159 3200 3147 3254 3172 3166 3088 3334 3158 3197 3207 3243 3182 3233 3148 3174 3142 3127 3237 3201 3123 3234 3167 3273 3152 3272 3178 3313 3239 3248 3213 3158 3331 3211 3160 3286 3226 3224 3322 3263 3325 3212 3289 3219 3280 3177 3404 3171 3337 3275 3347 3271 3272 3281 3348 3209 3275 3317 3349 3314 3359 3306 3295 3433 3304 3457 3348 3360 3229 3334 3349 3400 3388 3431 3315 3532 3397 3464 3442 3374 3432 3381 3299 3372 3405 3403 3473 3509 3347 3462 3443 3436 3473 3454 3409 3484 3459 3496 3420 3543 3468 3535 3483 3496 3634 3560 3605 3650 3482 3559 3611 3576 3680 3681 3636 3700 3716 3686 3698 3563 3723 3684 3794 3682 3912 3804 4065 3851 4144 4101 4211 4207 4316 4452 4569 4627 4740 4762 4816 4996 5025 5197 5457 5298 5634 5818 5916 5841 6056 6039 5689 6023 5710 5657 5566 5531 5582 5307 5339 5224 5184 5095 5035 4992 5110 5086 4956 5183 5000 5004 5028 4926 4871 4797 4913 4892 4800 4738 4733 4571 4669 4398 4381 4245 4297 4052 4120 3913 3882 3969 3973 3984 3795 3728 3803 3694 3558 3642 3583 3609 3552 3426 3537 3523 3437 3419 3312 3358 3418 3426 3436 3329 3415 3540 3412 3337 3357 3253 3346 3399 3296 3338 3268 3200 3257 3215 3266 3244 3139 3340 3188 3244 3356 3073 3164 3134 3199 3137 3245 3226 3144 3338 3178 3161 3175 3099 3190 3128 3156 3156 3134 3168 3119 3100 3065 2994 3138 3057 3005 3114 3083 3067 3125 3199 3052 3242 3107 3137 3102 3120 3068 2965 2946 2954 2923 3034 3013 2965 3019 3059 3086 2910 2919 2978 2963 3051 3000 2970 3040 2945 2911 2959 2876 2972 2962 2952 2956 2926 2969 2855 2870 2979 2911 2917 2796 2909 2934 3008 2910 2938 2878 2956 2991 2918 2905 2930 2926 2973 2945 3033 3016 2909 2863 2888 2900 2902 2807 2868 2870 2917 2843 2858 2918 2953 2832 2781 2863 2894 2859 2791 2900 2964 2921 2906 2822 2828 2820 2922 2913 2836 2839 2872 2805 2815 2789 2842 2871 2827 2829 2780 2799 2819 2800 2875 2819 2886 2810 2886 2769 2880 2851 2843 2800 2857 2864 2720 2848 2843 2748 2895 2782 2834 2804 2787 2764 2758 2747 2774 2807 2923 2871 2684 2761 2771 2878 2750 2805 2675 2774 2796 2723 2736 2710 2866 2661 2789 2786 2777 2660 2744 2675 2756 2597 2742 2757 2633 2711 2798 2771 2756 2741 2727 2732 2787 2686 2754 2760 2724 2767 2826 2822 2686 2637 2750 2773 2811 2757 2764 2772 2754 2661 2854 2662 2782 2732 2744 2749 2766 2724 2686 2758 2659 2639 2645 2657 2720 2795 2709 2675 2674 2694 2701 2669 2700 2700 2682 2747 2693 2746 2738 2687 2658 2671 2675 2606 2700 2631 2611 2641 2739 2667 2694 2586 2690 2661 2709 2630 2593 2642 2708 2716 2607 2729 2638 2569 2649 2709 2673 2641 2680 2687 2669 2613 2696 2671 2635 2632 2641 2630 2579 2633 2562 2574 2536 2573 2612 2580 2602 2639 2640 2656 2643 2615 2459 2655 2456 2635 2609 2574 2653 2540 2655 2614 2604 2605 2580 2644 2583 2646 2563 2676 2545 2517 2581 2607 2565 2667 2631 2625 2583 2504 2609 2624 2521 2582 2588 2541 2521 2447 2630 2593 2551 2555 2567 2561 2544 2600 2516 2488 2602 2561 2609 2551 2569 2466 2586 2565 2508 2609 2483 2519 2498 2558 2534 2576 2639 2609 2515 2538 2491 2569 2527 2525 2374 2511 2457 2490 2501 2601 2612 2583 2437 2496 2472 2519 2587 2526 2546 2446 2434 2489 2488 2593 2449 2407 2538 2362 2472 2496 2528 2594 2458 2372 2512 2410 2438 2436 2367 2507 2459 2572 2544 2430 2480 2387 2421 2468 2559 2534 2444 2471 2472 2437 2502 2433 2423 2415 2365 2368 2448 2499 2474 2452 2448 2329 2404 2419 2401 2468 2342 2429 2353 2546 2390 2389 2411 2496 2434 2406 2446 2385 2455 2505 2461 2415 2467 2448 2370 2340 2366 2322 2420 2513 2400 2426 2324 2404 2397 2317 2395 2391 2382 2358 2343 2451 2449 2409 2399 2480 2381 2414 2418 2375 2433 2503 2320 2377 2388 2601 2379 2372 2361 2356 2460 2494 2454 2453 2372 2382 2383 2440 2421 2423 2435 2410 2415 2391 2554 2418 2445 2387 2400 2448 2347 2325 2440 2419 2371 2436 2365 2385 2388 2395 2448 2377 2490 2405 2365 2491 2409 2473 2471 2447 2354 2477 2422 2416 2472 2448 2406 2397 2374 2395 2509 2483 2419 2305 2430 2395 2424 2469 2453 2438 2483 2492 2462 2464 2392 2471 2496 2445 2473 2471 2564 2509 2414 2428 2384 2459 2385 2424 2435 2429 2424 2436 2472 2414 2396 2424 2443 2536 2533 2421 2452 2460 2471 2544 2391 2451 2534 2451 2356 2505 2395 2418 2488 2417 2402 2276 2478 2386 2507 2460 2494 2419 2379 2581 2462 2422 2402 2466 2495 2391 2428 2419 2436 2485 2274 2475 2484 2372 2367 2481 2460 2469 2388 2417 2386 2369 2329 2439 2400 2387 2441 2446 2433 2411 2459 2456 2400 2413 2473 2399 2416 2444 2458 2488 2347 2424 2625 2453 2519 2528 2500 2438 2367 2392 2371 2493 2434 2382 2508 2383 2471 2491 2409 2449 2375 2411 2429 2387 2437 2528 2384 2426 2436 2462 2507 2418 2374 2448 2455 2446 2422 2502 2399 2365 2430 2311 2459 2468 2365 2388 2361 2390 2285 2414 2367 2353 2415 2302 2391 2283 2324 2272 2398 2257 2287 2239 2304 2221 2222 2144 2245 2250 2255 2161 2221 2295 2154 2194 2145 2158 2161 2113 2125 2121 2086 2171 1999 2059 2074 2095 2125 2109 1988 2067 2109 2115 2037 2051 1969 2079 2010 2039 1954 1959 1935 2049 1961 1983 1919 2023 2046 1946 1936 2053 1926 1919 1914 1940 1964 1889 1941 1940 1920 1976 1973 1920 1981 1897 1865 1861 1893 1932 1883 1827 1858 1844 1872 1932 1923 1939 1863 1914 1857 1878 1907 1919 1906 1852 1903 1866 1817 1987 1911 1843 1822 1876 1897 1838 1898 1840 1779 1860 1810 1898 1736 1865 1779 1883 1782 1810 1852 1821 1803 1755 1878 1675 1807 1766 1715 1759 1812 1689 1778 1823 1815 1783 1647 1741 1824 1720 1845 1764 1762 1775 1790 1681 1776 1838 1718 1855 1739 1856 1701 1752 1741 1777 1756 1774 1709 1723 1758 1679 1761 1814 1721 1796 1750 1753 1835 1625 1683 1781 1766 1720 1734 1683 1770 1764 1761 1718 1681 1669 1741 1691 1723 1700 1701 1714 1742 1709 1668 1756 1675 1707 1700 1690 1700 1703 1688 1736 1679 1712 1675 1717 1707 1676 1659 1726 1720 1621 1649 1669 1670 1745 1722 1700 1624 1643 1695 1697 1733 1671 1737 1633 1716 1638 1713 1701 1734 1702 1753 1682 1682 1672 1696 1718 1753 1764 1651 1687 1662 1656 1722 1657 1728 1752 1803 1711 1764 1733 1733 1720 1758 1698 1709 1797 1753 1736 1710 1716 1750 1722 1648 1787 1729 1701 1646 1663 1739 1742 1681 1695 1733 1656 1734 1761 1655 1710 1666 1651 1666 1706 1709 1709 1769 1753 1623 1691 1685 1717 1698 1709 1756 1685 1782 1647 1714 1644 1632 1679 1761 1647 1661 1646 1806 1610 1710 1608 1639 1585 1679 1595 1637 1632 1625 1604 1688 1636 1586 1615 1686 1619 1689 1682 1606 1662 1694 1659 1631 1608 1632 1657 1619 1666 1624 1605 1700 1658 1629 1610 1633 1665 1638 1638 1549 1708 1625 1635 1601 1577 1634 1474 1532 1562 1469 1581 1603 1591 1581 1541 1535 1506 1570 1589 1486 1514 1547 1614 1562 1592 1550 1591 1474 1525 1508 1467 1535 1543 1462 1500 1533 1532 1499 1590 1527 1483 1584 1517 1519 1436 1525 1451 1508 1497 1468 1501 1466 1453 1421 1547 1460 1550 1450 1475 1459 1474 1466 1434 1462 1416 1424 1480 1486 1558 1488 1384 1480 1496 1429 1328 1420 1446 1449 1440 1429 1475 1390 1496 1392 1462 1515 1409 1387 1433 1381 1314 1381 1336 1379 1427 1378 1408 1407 1449 1435 1409 1450 1359 1388 1359 1311 1371 1409 1413 1456 1424 1419 1379 1408 1390 1425 1547 1425 1425 1409 1434 1450 1453 1478 1451 1429 1432 1511 1562 1521 1587 1632 1623 1745 1721 1725 1785 1895 1890 1981 2094 2108 2164 2221 2208 2418 2422 2472 2662 2540 2575 2504 2606 2556 2723 2604 2717 2501 2564 2666 2578 2563 2493 2559 2572 2428 2506 2381 2448 2388 2361 2315 2378 2380 2230 2174 2216 2221 2132 2179 2066 1930 1921 1865 1941 1910 1875 1837 1727 1790 1805 1690 1722 1684 1629 1623 1674 1604 1565 1578 1493 1624 1554 1575 1553 1534 1426 1571 1518 1494 1454 1489 1407 1467 1518 1407 1467 1477 1511 1467 1494 1441 1545 1586 1546 1424 1582 1567 1498 1588 1574 1594 1637 1661 1646 1616 1732 1754 1717 1904 1896 1923 2011 2132 2379 2360 2499 2713 2914 3190 3464 3869 4281 4832 5217 5788 6488 7219 8027 8869 9728 10759 11623 12300 13252 14077 14586 15165 14906 14760 14523 14090 13730 12913 12217 11432 10385 9519 8896 7977 7451 6854 6132 5553 5328 4960 4421 4259 4057 3898 3710 3606 3566 3231 3251 3214 3061 2952 2952 2857 2756 2695 2634 2576 2474 2352 2377 2142 2187 2143 2122 2015 2142 2086 2089 1998 1889 1945 1869 1949 1896 1855 1788 1792 1763 1709 1739 1664 1631 1595 1475 1488 1465 1445 1349 1417 1376 1246 1328 1296 1336 1354 1274 1238 1328 1133 1247 1163 1179 1189 1225 1151 1042 1146 1138 1132 1139 1150 1197 1161 1143 1138 1129 1160 1148 1115 1098 1126 1099 1108 1111 1069 1060 1121 1059 1083 1144 1128 1100 1097 1093 1059 1161 1073 1094 1116 1051 1109 1107 1051 1092 1120 1144 1098 1108 1017 1019 1185 968 1037 999 1088 1074 1043 1076 1070 1034 1108 1105 1043 1090 1104 1107 1117 977 1053 1029 1004 1046 973 1062 996 1014 969 1014 1009 1039 1012 1042 976 929 1018 988 1015 1010 1030 992 982 934 1017 1001 975 987 1039 994 1015 1008 977 1026 934 989 954 1027 993 988 993 985 942 1061 985 970 990 976 1017 1004 1001 998 970 1007 1003 1021 960 974 959 1000 1027 957 943 985 988 989 974 983 945 997 959 947 932 955 985 972 984 934 1026 917 983 974 927 962 978 954 946 972 903 988 1008 985 932 936 904 887 951 896 928 946 948 992 915 880 918 934 890 914 956 957 922 921 933 956 928 924 917 943 894 928 935 926 912 942 965 896 927 935 915 920 932 866 887 862 877 945 899 904 888 917 943 877 883 904 927 961 945 896 916 911 891 878 903 905 935 918 876 857 883 904 923 904 889 893 888 890 960 868 900 907 923 917 892 875 900 946 899 909 866 934 940 934 918 904 1029 852 937 959 943 936 1039 980 960 956 900 965 951 1013 928 992 875 981 937 1041 959 936 1021 1006 950 965 986 965 993 947 997 976 902 1030 980 1058 1028 992 966 967 986 1044 990 1033 1028 961 1068 1016 1089 1035 1126 1065 1061 1069 1097 1065 1131 1118 1165 1149 1173 1192 1228 1222 1212 1300 1319 1304 1332 1319 1410 1372 1400 1467 1526 1620 1710 1794 1865 2023 2134 2266 2289 2643 2830 3061 3353 3766 4124 4685 5116 5619 6305 6931 7801 8482 9231 9921 10931 11504 12103 12625 12745 13154 12845 12844 12378 12188 11635 11226 10684 9808 9219 8768 7969 7227 6835 6342 5753 5407 4946 4443 4282 3951 3708 3491 3397 3259 3195 3072 3021 2876 2875 2814 2721 2599 2688 2607 2648 2609 2488 2586 2471 2534 2451 2335 2382 2418 2208 2225 2153 2102 2070 1966 1876 1822 1746 1701 1721 1614 1538 1494 1412 1391 1404 1353 1358 1211 1237 1189 1147 1211 1100 1043 1172 1089 1081 1006 1046 1069 1009 1011 1031 1002 940 942 938 980 947 954 1010 940 896 999 930 894 938 900 927 887 916 937 911 976 895 924 905 928 883 913 915 871 850 827 915 908 888 886 921 880 924 822 861 837 856 942 927 879 926 866 860 904 908 886 889 861 866 918 831 896 882 892 903 860 947 867 897 883 904 893 907 870 949 865 878 836 870 892 953 827 874 894 842 884 884 859 927 836 942 872 881 861 875 870 903 892 883 885 884 905 905 879 935 864 865 831 902 897 855 924 851 864 889 923 865 846 852 884 871 847 874 866 942 901 905 889 906 887 904 894 904 891 909 908 866 915 882 881 920 920 905 931 932 922 869 945 946 967 894 890 887 917 938 881 931 929 913 927 937 898 952 882 875 910 915 949 937 943 907 907 946 931 925 859 905 894 908 897 932 915 916 905 824 890 912 915 887 839 856 881 859 864 848 898 865 903 908 902 891 875 946 832 847 891 899 857 923 835 865 928 907 899 890 888 879 885 857 965 888 880 855 842 848 843 899 856 843 875 907 889 894 865 839 861 852 870 845 857 869 837 855 861 791 806 836 818 899 862 843 789 907 806 841 842 846 837 836 853 785 886 805 860 858 796 835 818 811 826 884 808 807 762 805 790 793 863 794 818 799 782 764 741 783 821 799 806 779 779 801 704 765 767 791 798 727 736 757 781 725 717 732 747 716 738 766 773 717 777 793 710 728 704 725 704 711 806 713 693 702 767 688 676 711 704 725 695 691 700 660 733 750 708 685 666 706 686 681 667 680 641 736 692 748 682 709 636 710 706 709 678 724 758 700 721 687 734 640 739 701 727 643 704 631 695 611 738 645 653 610 653 716 651 650 688 634 626 624 671 671 660 690 674 685 620 734 655 668 695 662 694 703 679 679 626 658 646 648 625 644 648 653 634 638 604 624 658 651 644 654 595 626 638 610 610 633 633 681 669 634 686 643 624 658 663 639 637 662 616 677 592 630 610 637 596 607 614 671 658 609 666 617 635 639 574 696 613 628 594 655 663 647 634 618 619 636 600 649 617 638 630 596 649 594 638 614 655 548 638 639 666 641 641 670 603 630 636 622 594 628 625 645 637 612 593 602 617 603 634 626 607 587 604 660 646 608 606 649 631 586 610 646 650 610 629 618 635 646 623 638 594 584 637 608 620 631 643 591 575 555 627 596 653 667 617 644 658 630 627 596 564 587 606 618 611 609 665 557 620 672 608 608 643 633 640 589 614 623 638 622 633 568 620 593 625 589 593 607 618 614 597 600 625 619 610 599 590 577 616 571 586 661 632 643 649 659 648 674 607 638 604 621 637 580 664 639 671 648 608 585 585 583 579 614 638 552 575 655 645 608 560 559 620 556 610 647 568 595 611 568 582 552 628 596 588 573 601 548 551 624 606 619 586 623 628 598 636 606 610 583 607 567 603 605 543 606 642 666 634 581 601 591 599 577 621 602 534 636 600 590 610 645 582 580 597 552 532 549 628 595 563 609 590 567 615 578 611 583 659 587 601 567 546 584 609 615 598 578 585 579 592 604 568 608 611 550 568 543 562 566 628 588 605 585 582 605 621 581 595 613 579 579 598 544 588 641 597 608 592 534 560 605 579 582 552 555 556 600 631 603 576 607 593 597 571 586 616 570 513 545 576 597 594 549 624 572 581 559 578 570 606 589 570 552 550 595 571 575 583 553 582 567 536 558 553 618 569 660 601 546 559 551 579 580 570 507 571 558 537 623 601 588 552 578 515 595 527 597 511 559 551 553 658 588 606 612 584 622 593 543 613 577 586 546 596 591 578 598 542 594 579 557 554 521 593 552 550 569 607 591 596 513 559 581 556 579 578 569 593 533 624 526 587 507 525 583 617 546 588 552 597 582 600 594 592 587 556 615 575 593 607 553 554 625 596 586 561 601 610 583 584 632 621 598 589 565 579 583 526 566 573 597 538 569 588 605 631 600 627 573 565 553 588 577 621 636 644 564 585 575 576 579 621 609 629 600 630 630 649 622 677 666 604 675 658 706 694 718 730 828 796 815 832 879 952 987 1072 1128 1217 1299 1311 1406 1439 1493 1549 1508 1542 1548 1706 1596 1556 1464 1474 1525 1397 1432 1242 1284 1204 1123 1191 1122 1072 1011 969 935 912 813 829 759 811 758 751 738 733 649 710 717 656 695 676 642 679 659 665 657 643 649 630 652 667 642 665 630 682 628 633 644 572 639 677 657 628 702 641 651 683 632 674 637 653 689 660 677 657 654 699 659 654 684 658 644 661 612 659 634 632 646 643 631 659 601 626 660 548 614 557 608 608 560 610 647 611 624 622 606 599 598 612 598 557 606 612 629 584 614 597 628 576 607 637 548 682 570 579 564 602 627 621 556 564 574 581 599 569 593 596 593 613 657 595 624 586 604 579 576 556 569 607 586 576 587 568 580 609 579 615 600 590 598 601 567 633 618 635 619 604 605 557 602 580 579 583 558 598 560 596 536 630 571 627 565 591 607 602 625 556 613 530 586 616 570 574 607 538 547 553 596 626 619 570 594 530 584 571 587 575 579 586 589 588 592 565 556 548 559 567 575 571 593 591 570 556 588 569 576 584 543 591 540 637 599 561 569 584 591 574 581 596 610 634 577 591 596 575 582 618 589 568 545 571 578 558 603 611 578 561 612 569 565 623 555 580 591 606 566 560 587 609 612 599 606 562 615 581 588 595 565 536 543 590 607 541 529 549 608 594 595 580 592 575 607 569 578 596 578 581 622 615 550 556 614 606 602 644 647 621 634 595 606 619 604 594 605 594 591 615 602 587 587 602 565 614 633 630 629 609 583 637 586 640 638 618 651 630 644 632 629 648 645 681 663 672 712 683 679 695 678 707 653 654 724 750 722 784 731 774 733 723 792 774 780 809 786 833 840 873 867 932 937 976 1016 1068 1104 1109 1222 1277 1328 1442 1538 1619 1823 2020 2196 2340 2675 2859 3201 3636 4039 4267 4777 5208 5444 6026 6404 6650 6778 7074 6987 7235 7030 6939 6808 6511 6351 5986 5695 5529 5291 5021 4878 4678 4432 4065 3806 3505 3437 2932 2799 2540 2365 2208 1990 1867 1711 1671 1655 1505 1519 1368 1422 1421 1294 1346 1277 1268 1204 1256 1264 1241 1246 1201 1153 1196 1190 1188 1242 1200 1183 1200 1129 1255 1120 1158 1084 1128 1121 1116 1114 1145 1119 1117 1049 1124 1132 1027 1066 1044 1102 998 1115 998 1012 991 1029 981 1028 1054 1074 965 946 965 1003 974 932 974 943 931 912 889 867 901 898 844 878 833 924 835 863 768 868 816 800 820 834 822 758 783 761 797 803 798 755 759 753 746 759 751 704 738 683 690 668 649 664 642 648 672 709 633 671 618 617 644 682 644 596 717 628 648 604 621 615 618 604 590 626 602 535 552 616 573 593 555 579 601 608 612 603 629 615 546 605 597 606 581 568 604 560 591 580 599 548 578 559 550 593 580 584 605 533 559 569 555 584 574 574 546 559 579 578 576 563 553 524 579 620 573 561 629 615 607 587 603 630 684 627 630 639 716 671 723 745 754 852 787 853 842 869 930 935 959 955 991 913 926 909 811 901 838 891 810 805 782 773 815 761 785 708 704 635 626 607 664 682 666 633 597 589 584 600 571 568 571 600 559 590 582 583 578 557 574 594 577 603 590 542 556 582 561 556 511 566 612 605 587 544 546 578 582 556 566 598 522 587 586 584 554 597 552 573 563 542 580 579 519 545 538 554 536 537 540 568 572 503 505 521 486 518 495 496 506 521 539 526 481 549 507 540 529 491 516 515 507 509 515 496 505 485 509 493 533 528 534 474 528 490 512 468 538 556 516 508 497 517 498 488 514 499 509 491 506 497 495 500 522 530 523 567 493 519 478 487 531 499 498 505 474 539 484 500 505 518 507 463 491 474 459 484 464 501 494 532 518 538 487 508 445 504 471 491 461 528 469 451 514 473 534 506 506 532 496 510 501 492 474 506 511 508 491 532 532 509 497 485 508 515 529 522 516 534 517 497 494 495 534 492 507 481 540 501 493 514 476 479 518 509 490 497 500 529 502 534 499 518 486 504 486 506 551 507 547 498 473 574 509 536 545 493 541 489 531 505 550 562 563 534 538 525 534 572 516 553 501 560 540 558 541 516 524 531 527 508 539 536 530 569 473 542 531 536 513 524 553 526 536 551 524 497 525 530 556 526 523 514 508 495 525 523 523 527 565 529 555 530 566 548 502 556 521 549 549 511 517 503 534 529 568 522 480 528 553 495 506 474 534 531 552 511 542 493 499 550 483 569 525 560 549 532 534 508 544 562 511 593 525 545 568 567 576 521 574 552 569 548 533 526 518 571 536 507 534 540 563 555 591 579 549 532 552 536 591 573 570 573 607 551 581 584 513 599 594 547 601 523 614 569 567 558 565 539 549 595 571 581 574 631 586 603 635 637 579 606 549 608 600 605 629 559 584 629 584 666 595 695 581 591 583 610 558 604 643 597 576 610 592 589 570 580 599 606 587 583 611 531 578 543 566 555 570 591 609 531 575 580 548 530 490 573 537 585 551 546 574 577 532 536 539 512 526 541 515 524 539 509 518 572 488 543 526 523 535 576 565 537 507 552 588 499 521 558 519 510 517 529 519 498 497 524 548 545 534 555 527 515 520 540 521 484 538 487 483 537 524 537 539 480 478 512 496 537 445 507 487 521 532 508 492 498 504 477 534 489 516 549 519 522 512 485 494 503 487 493 511 464 528 470 493 463 470 504 505 511 515 475 476 479 474 499 513 524 525 521 530 485 529 477 532 525 501 495 533 531 490 534 546 567 556 508 509 546 549 545 572 549 519 531 590 614 577 591 590 581 569 612 551 568 552 559 552 561 561 558 539 568 527 533 560 560 595 570 598 613 531 599 567 566 622 575 577 631 615 639 619 629 700 698 732 733 761 728 781 749 840 887 931 1008 1064 1110 1209 1286 1342 1395 1550 1688 1808 1938 1933 2119 2081 2319 2315 2284 2313 2384 2429 2336 2330 2302 2230 2177 2166 2100 1863 1924 1805 1850 1803 1741 1622 1682 1623 1474 1439 1340 1275 1239 1117 1120 1038 922 915 899 786 872 846 779 764 750 715 778 669 702 647 660 682 665 643 652 631 605 622 622 650 586 640 594 662 628 626 580 637 632 660 632 668 626 662 633 622 631 618 626 614 572 661 656 633 629 610 607 564 584 613 624 587 606 552 573 565 585 553 567 539 570 548 554 505 534 547 564 525 542 534 559 517 544 541 529 539 533 520 509 498 552 496 454 489 477 494 516 482 468 514 503 500 491 494 470 504 498 496 479 449 435 454 454 453 440 440 442 446 439 444 455 466 489 450 468 449 465 464 430 450 467 441 431 437 446 419 448 463 482 490 474 432 458 450 432 467 426 451 425 431 443 438 450 471 456 496 431 414 442 463 474 419 443 469 434 460 477 483 450 440 453 460 434 416 447 454 447 421 461 421 452 441 471 435 495 454 482 441 480 510 451 460 484 481 476 414 470 491 449 483 469 475 538 501 493 477 521 531 535 530 512 544 555 573 513 547 537 539 609 594 586 616 618 646 660 665 757 774 831 874 888 993 1088 1188 1328 1410 1422 1565 1671 1791 1892 2050 2060 2248 2364 2294 2434 2320 2302 2235 2239 2126 2024 1930 1919 1872 1812 1752 1714 1708 1658 1588 1627 1538 1520 1405 1334 1194 1214 1118 1092 974 928 880 882 757 693 732 746 678 645 644 637 606 606 598 629 575 560 589 581 558 559 534 536 552 575 546 553 566 597 554 550 537 501 539 552 549 569 599 595 608 564 590 581 544 580 586 550 604 569 568 579 604 606 587 584 561 641 545 578 548 557 576 538 565 529 558 498 493 514 512 537 528 520 480 481 529 487 520 512 480 481 487 439 503 532 512 501 511 508 529 466 532 540 480 533 491 527 495 524 510 493 511 485 487 504 455 479 533 535 540 491 487 502 468 450 440 449 467 422 480 408 445 462 467 461 455 391 449 447 455 470 430 467 430 405 448 434 462 456 439 461 469 472 476 464 487 481 445 491 514 504 505 499 534 523 510 566 578 606 602 624 644 660 669 739 716 731 727 695 727 734 713 734 681 723 687 669 649 671 643 610 622 605 594 601 637 584 656 585 573 533 571 534 557 515 555 464 500 470 493 458 484 483 443 451 450 479 440 446 473 425 451 418 446 491 423 449 408 444 422 419 447 482 467 433 410 423 436 417 442 408 382 413 405 405 415 406 412 412 424 456 419 430 394 379 405 465 446 433 432 426 418 401 458 459 445 437 483 436 430 455 454 431 446 448 442 409 400 446 473 415 425 478 436 448 412 445 455 463 444 453 472 433 435 410 460 416 443 468 443 417 463 449 417 373 409 420 395 403 408 416 429 415 450 440 408 417 397 408 411 352 428 416 379 408 362 396 388 375 371 400 411 358 357 403 389 391 375 436 390 420 387 390 395 357 419 381 396 396 389 366 381 416 389 396 415 405 371 415 379 369 363 396 392 356 385 374 368 345 364 360 391 390 398 386 369 375 382 391 370 399 397 378 354 372 367 357 408 361 363 361 401 382 353 371 395 371 356 342 411 376 362 363 381 370 393 378 369 403 353 360 362 395 348 353 374 346 374 346 390 383 390 336 429 374 369 329 403 340 376 380 372 390 359 387 364 388 348 360 373 369 379 378 332 353 378 368 387 361 356 387 329 376 319 356 339 341 372 326 364 357 402 357 335 382 406 352 336 346 381 344 351 381 339 387 395 365 351 363 365 355 343 332 361 385 363 345 377 334 355 360 363 350 354 422 365 388 384 349 355 371 351 364 358 352 351 354 363 388 334 357 370 392 361 338 374 365 355 352 375 383 354 341 340 331 344 318 375 363 366 392 358 373 355 362 324 362 318 360 349 342 350 348 347 365 383 354 360 355 343 362 364 366 336 348 338 312 360 345 360 366 317 361 403 374 375 363 362 344 348 365 376 352 390 346 355 323 322 361 345 329 386 376 337 360 350 358 333 341 367 328 388 338 333 368 316 347 353 339 357 328 378 339 365 354 325 375 368 297 372 332 343 344 368 347 336 374 338 389 356 332 356 383 319 334 353 348 372 333 349 353 394 384 339 333 359 354 362 311 362 360 371 345 394 328 353 356 361 366 354 378 361 348 395 381 368 379 353 335 376 362 360 384 365 433 389 395 373 436 441 442 447 453 432 461 514 508 508 508 525 510 520 537 550 545 520 536 514 517 520 515 471 463 477 510 493 501 464 467 486 455 448 430 473 430 427 400 404 404 383 393 379 362 355 365 333 337 341 350 377 353 362 355 366 333 361 374 371 336 339 352 356 353 369 339 330 386 321 372 358 335 374 365 368 320 330 306 362 340 359 316 357 323 344 349 343 353 336 360 361 377 381 342 367 343 350 354 340 347 357 353 352 377 346 372 357 376 376 356 358 326 336 361 386 338 351 322 374 378 367 368 364 341 403 382 335 319 337 352 353 369 336 355 403 337 361 362 359 365 363 354 364 363 356 344 367 354 369 346 382 358 381 338 361 376 343 391 373 388 355 366 360 380 340 356 368 370 376 355 385 384 372 372 321 369 343 341 343 329 378 343 353 342 344 364 376 390 382 362 366 382 406 384 360 379 408 319 378 375 363 369 348 376 366 403 370 381 403 380 368 369 377 351 367 347 389 341 368 364 343 373 362 404 381 334 350 392 376 371 345 375 355 352 368 374 391 338 362 361 351 389 419 379 364 417 378 328 365 391 365 375 361 362 389 414 392 357 381 368 341 398 366 362 351 342 365 349 372 363 398 376 367 413 376 369 415 345 408 391 376 424 387 408 393 441 427 426 445 416 416 439 453 472 471 488 471 499 496 525 557 544 599 598 632 623 680 716 694 776 792 785 760 853 778 836 798 847 870 767 871 882 830 868 797 849 746 796 719 778 775 751 694 718 698 734 649 712 658 632 638 646 596 616 619 543 597 550 517 517 483 448 467 503 460 498 440 435 429 422 382 409 421 378 386 380 378 407 432 362 384 363 422 400 373 383 413 356 356 410 353 396 391 406 395 387 405 388 395 362 432 388 381 375 376 368 380 383 381 397 411 396 385 388 356 372 361 382 382 408 406 338 417 362 373 398 417 383 354 380 401 395 370 388 364 351 383 377 404 358 389 384 344 419 350 397 405 379 397 353 361 365 351 362 350 352 369 366 316 324 374 339 364 359 378 364 351 366 344 354 327 334 356 347 333 313 342 293 352 346 355 290 351 368 332 361 300 351 350 359 353 359 317 396 306 364 369 388 353 354 359 354 358 362 387 381 409 349 386 366 404 386 378 357 352 375 372 371 379 355 344 327 367 351 344 355 365 353 342 326 380 332 318 376 353 321 315 351 346 297 317 343 308 294 341 337 301 287 328 324 302 340 297 313 328 338 326 274 331 364 344 336 294 306 332 312 331 334 334 303 297 314 352 321 340 383 295 356 323 330 311 305 338 301 322 336 345 302 308 319 316 284 334 322 317 290 329 277 335 317 342 308 281 336 342 315 342 321 351 283 306 344 343 346 284 321 311 326 321 335 325 320 338 327 324 298 317 310 333 310 316 314 307 321 303 334 357 341 316 315 302 318 332 318 334 328 348 325 332 319 330 320 309 324 308 342 316 314 332 328 319 327 335 292 315 327 313 313 309 329 349 318 332 332 340 334 301 314 345 297 344 345 345 353 324 319 310 325 333 340 360 337 338 305 339 323 282 320 335 337 300 298 329 320 314 299 301 342 313 320 312 312 328 341 335 339 358 301 345 303 294 299 330 325 322 320 333 322 316 345 302 297 321 299 304 364 358 322 308 340 333 345 320 346 322 320 351 343 336 320 315 297 336 325 335 317 357 351 321 333 312 323 301 351 332 339 337 301 315 320 308 321 285 304 319 320 327 338 343 312 350 339 334 314 336 352 318 315 316 321 329 347 326 319 335 319 342 336 319 313 325 321 336 352 324 349 332 337 362 352 340 353 327 366 359 328 346 364 353 313 331 340 360 324 340 370 367 324 355 346 383 353 332 345 323 361 335 339 308 327 349 359 351 356 329 354 345 348 330 325 326 365 363 311 326 358 354 337 345 323 341 336 342 351 337 314 336 357 348 305 339 344 316 344 344 347 309 317 372 335 347 326 362 365 327 362 305 343 316 371 378 338 352 340 359 338 358 356 357 290 329 360 317 314 362 350 329 362 401 358 383 324 361 365 356 362 371 364 359 345 355 371 347 341 312 355 337 353 315 330 371 363 364 308 352 357 373 358 338 375 368 379 321 352 325 389 351 358 383 359 374 355 395 382 354 382 374 402 396 410 392 407 359 400 376 397 400 372 423 401 458 421 431 445 417 448 452 456 486 457 473 486 517 465 481 494 492 443 477 464 487 473 452 477 467 483 478 452 457 414 468 447 492 451 447 458 471 463 484 460 464 450 493 502 492 463 460 500 486 550 514 510 588 572 577 595 627 636 636 666 662 689 669 754 759 742 742 819 845 859 861 887 841 880 804 859 824 811 811 758 818 761 716 735 721 683 712 691 678 662 668 620 680 646 627 628 659 565 597 625 588 542 550 500 525 502 503 504 463 402 447 439 437 399 459 436 435 379 405 391 395 431 422 437 410 433 413 446 401 430 415 431 430 359 408 443 391 390 446 384 411 416 385 415 392 421 420 376 391 386 414 407 442 393 404 397 430 393 422 393 425 432 392 430 411 454 437 412 408 440 443 438 429 424 413 482 464 427 425 466 418 447 453 413 455 462 400 409 470 419 423 416 397 437 413 393 451 450 441 427 366 415 452 449 394 406 432 383 400 376 429 419 395 393 445 378 445 407 410 418 410 362 389 393 398 399 404 408 398 420 414 420 402 403 399 401 392 409 445 423 415 389 402 399 373 400 395 432 435 485 395 471 432 419 456 448 467 418 441 444 441 474 461 481 486 475 427 456 467 467 500 479 501 530 526 555 571 542 612 585 625 634 659 732 743 740 782 821 887 884 953 959 1035 1069 1084 1171 1172 1167 1265 1354 1318 1397 1403 1459 1558 1457 1518 1478 1463 1385 1345 1327 1341 1257 1255 1116 1161 1099 1119 1036 1076 1031 1075 1068 1038 1076 1065 1091 998 997 982 961 924 900 861 854 786 765 695 731 700 643 588 589 575 559 573 523 531 541 452 475 464 481 448 469 418 475 434 484 447 420 487 470 535 477 423 421 443 440 452 460 436 442 404 430 421 441 417 442 414 439 461 412 419 456 425 419 419 470 458 441 477 434 416 408 417 436 449 405 411 459 469 444 442 431 432 443 425 462 405 445 417 448 435 481 453 445 426 435 433 496 444 430 430 429 437 435 436 438 418 445 477 433 461 453 445 419 451 421 443 411 453 460 392 446 452 414 418 440 440 441 423 414 431 432 406 451 409 428 407 476 419 433 413 430 448 446 414 415 450 427 475 469 448 513 436 458 384 472 424 439 426 446 449 422 433 424 476 370 445 405 400 366 430 398 420 411 416 411 406 366 423 409 378 420 386 373 381 361 380 352 373 420 410 395 352 350 355 359 372 352 359 363 402 345 380 362 352 375 330 339 332 340 324 348 329 350 351 316 352 358 330 361 328 344 374 351 329 319 357 373 354 354 329 351 345 369 316 350 318 319 324 319 332 297 341 330 339 360 354 342 352 334 360 338 359 348 378 326 356 354 348 342 361 362 358 356 325 364 301 306 355 330 357 332 353 338 340 388 328 326 313 344 342 334 349 346 305 300 355 331 321 330 372 366 362 403 347 373 312 337 370 358 343 323 337 338 346 328 365 314 334 336 382 336 345 325 339 330 344 336 315 326 324 348 330 334 329 353 346 339 363 332 322 334 312 323 315 339 364 359 344 320 328 354 345 304 311 324 328 317 297 315 307 359 321 342 311 349 310 321 326 325 325 326 326 316 349 350 332 338 323 344 340 325 322 330 345 341 297 334 357 361 350 325 330 330 330 305 354 310 320 322 357 346 333 340 349 312 284 299 351 333 337 334 337 335 326 291 303 309 335 320 346 318 315 301 331 352 318 334 343 327 337 292 351 345 333 301 330 325 315 341 292 336 324 316 342 339 286 307 305 300 305 307 333 335 347 304 347 337 330 300 316 341 334 274 325 291 332 312 379 353 316 351 314 334 315 334 284 297 318 313 317 300 339 317 304 296 333 299 288 286 321 303 319 319 309 336 310 329 305 304 309 302 303 309 293 341 300 327 319 326 297 287 292 300 316 303 308 342 297 328 317 289 321 323 355 333 345 336 298 290 321 339 310 319 305 301 351 304 326 330 323 324 333 349 305 336 310 354 313 344 331 327 316 316 330 317 345 357 328 343 319 299 326 323 318 321 360 306 336 331 315 294 289 334 353 314 341 331 339 327 313 312 299 318 310 312 318 307 321 280 346 326 338 335 348 316 358 352 312 326 322 302 371 380 366 367 353 352 398 365 356 391 363 349 371 367 354 392 389 420 380 395 383 421 441 376 416 431 397 432 407 461 387 421 388 385 383 384 419 392 363 409 352 393 381 360 378 374 402 350 351 379 363 364 362 361 374 343 351 370 361 396 372 376 310 330 351 361 340 330 310 340 325 318 349 339 332 321 340 309 332 293 285 324 343 339 346 339 309 339 323 313 306 330 316 313 345 312 326 306 348 320 304 288 318 301 311 316 330 311 324 348 345 325 325 313 309 355 347 329 327 310 339 320 299 276 341 321 307 308 315 319 326 334 339 306 299 345 330 314 317 308 339 304 350 345 324 369 333 299 319 331 310 322 322 307 314 304 278 341 320 286 331 310 362 319 301 327 308 323 342 327 335 331 360 325 324 348 319 300 330 364 333 326 344 307 331 301 304 349 298 338 327 372 310 333 352 333 320 348 317 311 327 322 317 327 339 330 324 318 323 344 315 288 328 360 341 321 326 337 339 337 325 334 335 335 328 351 321 349 299 312 337 325 373 354 342 366 343 323 384 316 341 333 322 340 348 346 358 359 353 335 382 339 354 381 374 348 331 366 369 378 390 378 371 397 359 339 350 369 392 359 408 390 414 426 437 414 456 432 436 458 484 472 457 431 488 515 496 529 563 603 587 596 664 628 640 656 746 751 745 861 805 804 850 928 915 942 968 1027 1064 1110 1074 1197 1175 1150 1155 1247 1144 1137 1099 1072 1059 1002 1065 981 974 950 896 904 901 859 828 849 859 783 779 839 837 811 804 846 800 810 833 795 807 800 793 742 667 699 672 635 654 576 574 562 573 507 486 476 497 474 434 515 439 465 405 472 421 407 399 461 396 431 398 400 392 374 384 398 423 415 416 375 386 371 378 370 356 395 421 385 380 406 380 424 345 377 378 357 390 402 384 389 385 389 381 411 371 392 402 383 393 390 412 361 401 381 393 404 382 385 378 387 420 384 366 405 397 406 424 386 454 442 393 405 392 429 396 451 408 450 403 374 396 374 396 403 391 420 411 410 409 419 416 387 402 389 439 426 402 346 417 385 432 422 402 397 405 395 389 368 425 376 392 412 400 405 370 409 405 409 398 385 426 412 415 416 433 412 429 396 445 402 372 409 402 353 413 362 382 385 415 353 395 419 361 371 351 414 418 413 402 361 392 389 367 376 375 382 390 368 366 402 358 352 357 366 367 406 363 373 346 363 337 351 349 329 320 338 360 349 371 331 339 351 320 370 339 339 330 370 342 329 344 366 324 348 388 348 385 335 380 351 364 325 320 367 332 337 337 327 326 334 346 343 322 328 320 322 376 305 334 332 305 333 329 342 339 327 360 312 370 339 307 363 326 344 307 322 320 322 296 365 368 364 332 321 332 350 355 312 345 343 335 345 325 285 311 320 342 323 328 329 331 332 316 317 322 344 363 360 341 342 349 341 325 341 331 370 343 317 308 336 311 354 304 294 293 358 299 330 363 357 320 326 318 331 329 350 343 297 314 312 300 333 300 352 299 285 340 326 304 334 299 312 307 316 321 316 319 322 312 325 308 335 327 319 360 315 326 318 330 318 345 302 338 315 294 329 346 359 330 311 307 337 292 311 274 330 316 352 324 342 294 308 321 316 325 336 319 310 309 332 324 366 340 327 304 308 379 326 334 310 320 338 349 332 366 321 314 332 378 315 348 320 337 310 342 293 353 304 322 337 340 312 347 315 319 318 320 364 344 323 317 330 323 269 338 322 333 309 314 334 313 326 321 312 289 321 297 313 308 291 315 308 298 295 344 313 294 310 346 298 281 297 317 280 316 326 329 351 339 347 330 283 324 321 329 338 318 314 302 302 292 327 314 322 332 322 292 360 315 345 327 331 317 321 309 300 299 295 321 323 328 339 367 306 346 308 320 346 311 316 322 339 341 306 355 284 350 340 312 335 327 356 334 346 336 342 344 326 314 319 332 333 319 330 339 330 322 329 345 336 344 345 313 366 310 340 300 364 340 367 335 309 331 298 328 330 367 359 328 327 370 355 330 381 346 349 350 391 339 348 327 351 346 327 334 348 332 374 346 355 356 362 369 415 350 376 356 417 398 379 398 416 396 424 421 400 385 408 416 419 447 445 465 445 430 454 472 452 439 502 437 484 510 473 520 513 511 526 548 526 576 560 575 523 502 551 563</counts>
			</dataPoints>
		</scan>
	</xrdMeasurement>
</xrdMeasurements>
