<?xml version="1.0"?>
<xrdMeasurements xmlns="http://www.xrdml.com/XRDMeasurement/2.3" xmlns:xsi="http://www.w3.org/2001/XMLSchema-instance" xsi:schemaLocation="http://www.xrdml.com/XRDMeasurement/2.3 http://www.xrdml.com/XRDMeasurement/2.3/XRDMeasurement.xsd" status="Completed" recordIdentifier="{3596E133-FB2D-4D1E-A21B-B5D1F1F893B9}">
	<comment>
		<entry/>
	</comment>
	<sample type="To be analyzed">
		<id>GPSS_Li1p75Mg0p7Y0p2Nb0p05Cl4_111825_691cd5d8f3837ac4a0a99fcf</id>
		<name></name>
		<preparedBy></preparedBy>
	</sample>
	<xrdMeasurement measurementType="Scan" status="Completed" sampleMode="Reflection">
		<usedWavelength intended="K-Alpha 1">
			<kAlpha1 unit="Angstrom">1.5405980</kAlpha1>
			<kAlpha2 unit="Angstrom">1.5444260</kAlpha2>
			<kBeta unit="Angstrom">1.3922500</kBeta>
			<ratioKAlpha2KAlpha1>0.5000</ratioKAlpha2KAlpha1>
		</usedWavelength>
		<incidentBeamPath>
			<radius unit="mm">145.00</radius>
			<xRayTube id="1010048" name="Empyrean Cu LFF HR (9430 033 7310x)">
				<tension unit="kV">40.0</tension>
				<current unit="mA">15.0</current>
				<anodeMaterial>Cu</anodeMaterial>
				<focus type="Line">
					<length unit="mm">12.0</length>
					<width unit="mm">0.4</width>
					<takeOffAngle unit="deg">6.0</takeOffAngle>
				</focus>
			</xRayTube>
			<sollerSlit id="21010002" name="Soller slits 0.04 rad.">
				<opening unit="rad">0.0400</opening>
			</sollerSlit>
			<mask id="22031000" name="Fixed mask 13 mm">
				<width unit="mm">9.00</width>
			</mask>
			<divergenceSlit id="22120001" name="Divergence slit 1°" xsi:type="fixedDivergenceSlitType">
				<distanceToSample unit="mm">50.00</distanceToSample>
				<height unit="mm">1.52</height>
			</divergenceSlit>
		</incidentBeamPath>
		<sampleMovement xsi:type="spinningSampleMovementType">
			<spinnerRevolutionTime unit="seconds">1.0</spinnerRevolutionTime>
		</sampleMovement>
		<diffractedBeamPath>
			<radius unit="mm">145.00</radius>
			<antiScatterSlit id="22090040" name="AS slit 9 mm (PIXcel)" xsi:type="fixedAntiScatterSlitType">
				<height unit="mm">9.00</height>
			</antiScatterSlit>
			<sollerSlit id="21020003" name="Large Soller slits 0.04 rad.">
				<opening unit="rad">0.0400</opening>
			</sollerSlit>
			<filter id="20030001" name="Large beta-filter Nickel">
				<material>Ni</material>
				<thickness unit="mm">0.020</thickness>
			</filter>
			<detector id="7010019" name="PIXcel1D-Medipix3 detector" xsi:type="rtmsDetectorType">
				<phd unit="keV">
					<lowerLevel>4.02</lowerLevel>
					<upperLevel>11.27</upperLevel>
				</phd>
				<mode>Scanning</mode>
				<activeLength unit="deg">5.542</activeLength>
			</detector>
		</diffractedBeamPath>
		<scan appendNumber="0" mode="Continuous" scanAxis="Gonio" status="Completed">
			<header>
				<startTimeStamp>2025-11-20T20:12:52-08:00</startTimeStamp>
				<endTimeStamp>2025-11-20T20:20:59-08:00</endTimeStamp>
				<author>
					<name>AutomatedUser</name>
				</author>
				<source>
					<applicationSoftware version="1.7b (136)">PANalytical Aeris Instrument Suite</applicationSoftware>
					<instrumentControlSoftware version="3.2.00000000 20240306">AERIS</instrumentControlSoftware>
					<instrumentID>950485</instrumentID>
				</source>
			</header>
			<dataPoints>
				<positions axis="2Theta" unit="deg">
					<startPosition>10.00943322</startPosition>
					<endPosition>99.99442286</endPosition>
				</positions>
				<positions axis="Omega" unit="deg">
					<startPosition>5.00471661</startPosition>
					<endPosition>49.99721143</endPosition>
				</positions>
				<commonCountingTime unit="seconds">12.495</commonCountingTime>
				<counts unit="counts">2952 2907 2761 2908 2931 2891 2955 2957 2915 2861 2889 2839 2970 2900 2807 2914 2762 3034 2844 2961 2997 2952 2776 2997 2970 3065 2940 2902 2789 2927 2967 2782 2984 2922 3028 3047 2976 2898 2824 2845 2925 2938 3019 2934 2920 3012 2910 3008 2974 2937 3073 2902 2952 2896 3000 2933 3020 2957 2985 2916 3023 2993 3004 2926 2970 2899 2880 2967 2950 2985 3044 2988 3042 3064 3009 2995 2954 3004 3005 3015 3007 3033 2949 3033 2963 2937 3044 2911 3012 3010 3041 3011 3043 2957 3000 3017 3100 3158 3049 3138 3119 3032 2935 2954 3091 3084 3076 3069 3114 3056 3018 3147 3082 3033 2998 3113 3034 3017 3073 3093 3060 3111 3189 3140 3155 3063 3168 3091 3064 3078 3199 3178 3144 3003 3080 3136 3174 3135 3070 3084 3095 3063 3127 3088 3113 3116 3134 3097 3132 3105 3134 3038 3178 3128 3167 3180 3184 3129 3189 3053 3038 3043 3081 3083 2978 3057 3044 3067 3048 3142 3197 3133 3142 3205 3090 3156 3114 3210 3112 3130 3093 3009 3083 3053 3107 3066 3144 3133 3076 3049 3043 3131 3051 3121 3010 3200 3022 3120 3082 2975 3091 3105 3067 3085 3051 3136 2949 3112 3041 3041 3095 3020 3109 2991 2993 2992 2948 3111 3004 3001 3038 3034 3015 3149 2996 3066 2943 3053 3067 3094 3067 3008 2951 3210 3056 2878 3006 2976 2933 2992 2974 2951 2877 3088 2903 2994 2992 2958 2974 2879 2912 2949 2921 2922 3119 3028 3025 2963 3056 3102 2959 2972 3014 2897 2992 3010 2909 2907 3043 2931 2925 2813 2895 3043 2890 3035 2989 2954 2879 2907 2944 2892 2968 2975 2908 2993 2865 2978 2859 2819 2983 2895 2861 2956 2940 2890 2916 3004 2936 3045 2951 3034 3070 2891 2961 2953 2958 2968 3011 2902 2971 3031 2999 3001 2992 3038 3067 2979 3055 2940 3022 2997 3033 2928 2862 3046 2997 3159 3060 3064 3046 3107 3045 3183 3125 3156 2994 3015 2976 3015 2985 3079 3077 3149 3143 3153 3036 3189 3035 3070 3080 3234 3113 3162 3170 3154 3202 3173 3273 3108 3202 3104 3154 3216 3136 3183 3060 3210 3204 3201 3080 3185 3164 3166 3282 3217 3203 3195 3265 3311 3334 3312 3273 3266 3379 3255 3449 3417 3249 3267 3354 3333 3194 3375 3343 3294 3278 3390 3280 3378 3349 3304 3369 3326 3417 3453 3500 3402 3400 3343 3569 3476 3504 3522 3540 3478 3602 3502 3596 3689 3578 3650 3791 3739 3595 3541 3768 3813 3849 3845 3946 3922 4006 4030 3964 4108 4109 4142 4159 4342 4311 4405 4495 4624 4488 4736 4707 4851 4944 4963 4964 5154 5199 5372 5214 5292 5321 5491 5396 5477 5406 5450 5394 5513 5369 5455 5557 5410 5340 5619 5439 5410 5435 5437 5342 5355 5476 5360 5310 5537 5488 5451 5387 5347 5386 5191 5267 5193 5044 4897 4927 4864 4722 4711 4710 4603 4381 4330 4152 4153 3976 3978 3910 3701 3649 3448 3464 3534 3453 3510 3503 3317 3483 3396 3327 3373 3425 3343 3315 3319 3399 3457 3393 3343 3279 3357 3375 3272 3319 3359 3400 3297 3342 3313 3306 3309 3314 3246 3361 3358 3253 3354 3465 3325 3429 3379 3416 3390 3431 3359 3354 3389 3362 3379 3406 3412 3309 3509 3403 3479 3504 3508 3441 3463 3465 3404 3352 3309 3298 3201 3294 3260 3157 3212 3225 3109 3158 3151 3095 3112 3111 3070 3077 3103 3084 3095 3058 3180 3078 2992 2952 2928 3033 3004 3000 2988 3015 3117 2974 3037 2990 3060 3033 3003 2973 3027 2849 2909 2956 3045 2908 2992 2858 2910 2963 2962 2905 2932 2970 2917 2917 2877 2946 2866 2932 2923 2874 2926 2854 2900 2941 2965 2882 2882 2923 2929 2938 2803 2931 2960 2918 2959 2861 2845 2850 2928 2959 2904 2885 2966 2857 2864 2917 2803 2986 2923 2951 2843 2911 2872 2785 2901 2902 2852 2937 2905 2937 2826 2929 2920 2947 2958 2883 3037 2872 2947 2854 2951 2993 3033 3050 3023 3014 3007 3092 3126 3117 3086 3161 3179 3156 3158 3124 3085 3152 3081 3188 3107 3125 3098 2971 3113 2998 3040 2975 3038 3040 2984 2981 2927 2906 2962 2920 2842 2841 2780 2774 2799 2838 2870 2741 2721 2860 2802 2719 2794 2864 2818 2753 2806 2644 2753 2829 2758 2739 2827 2728 2810 2776 2712 2811 2735 2749 2743 2737 2760 2754 2826 2769 2666 2692 2726 2756 2718 2728 2686 2717 2726 2735 2750 2768 2830 2703 2739 2635 2689 2740 2642 2728 2748 2723 2715 2803 2746 2734 2607 2694 2734 2744 2675 2785 2800 2691 2711 2668 2667 2618 2575 2669 2818 2806 2624 2733 2581 2597 2677 2667 2694 2630 2733 2589 2683 2619 2620 2621 2569 2519 2686 2624 2645 2706 2591 2706 2683 2652 2641 2632 2636 2547 2690 2636 2634 2595 2651 2616 2568 2522 2690 2584 2531 2648 2565 2576 2544 2531 2575 2637 2577 2719 2609 2648 2637 2646 2543 2637 2521 2558 2586 2630 2582 2682 2543 2529 2533 2598 2540 2555 2576 2620 2572 2588 2623 2633 2621 2660 2614 2472 2584 2428 2502 2573 2549 2569 2526 2657 2568 2514 2614 2567 2490 2647 2525 2618 2523 2592 2513 2553 2548 2516 2570 2555 2552 2514 2528 2488 2516 2433 2467 2589 2506 2544 2428 2502 2528 2599 2557 2553 2468 2515 2422 2563 2418 2403 2439 2595 2503 2387 2484 2548 2447 2498 2451 2554 2495 2472 2421 2481 2472 2569 2435 2540 2461 2515 2532 2479 2508 2425 2414 2426 2457 2515 2389 2436 2549 2451 2484 2371 2424 2401 2405 2420 2507 2461 2479 2415 2469 2414 2588 2423 2417 2530 2446 2473 2338 2431 2472 2416 2440 2434 2432 2457 2447 2439 2486 2407 2461 2442 2384 2392 2498 2417 2431 2362 2454 2475 2440 2456 2453 2374 2466 2333 2396 2445 2435 2366 2482 2428 2431 2462 2370 2335 2398 2389 2389 2386 2494 2389 2423 2386 2438 2398 2441 2398 2288 2452 2379 2445 2463 2402 2379 2267 2390 2402 2464 2471 2405 2413 2359 2419 2350 2383 2344 2367 2442 2375 2376 2422 2487 2370 2514 2356 2340 2469 2441 2377 2308 2299 2381 2425 2438 2441 2387 2383 2436 2356 2517 2455 2471 2319 2399 2384 2479 2399 2464 2450 2438 2424 2525 2485 2395 2380 2456 2473 2412 2444 2374 2492 2498 2471 2355 2433 2349 2489 2484 2419 2338 2367 2474 2413 2483 2444 2472 2429 2534 2412 2427 2344 2304 2439 2351 2391 2370 2462 2369 2299 2428 2448 2353 2393 2451 2388 2397 2481 2365 2447 2396 2392 2417 2389 2367 2360 2332 2341 2264 2419 2320 2356 2395 2326 2370 2316 2412 2339 2295 2348 2326 2273 2367 2339 2320 2290 2337 2237 2337 2362 2300 2333 2284 2313 2412 2306 2331 2325 2422 2289 2286 2354 2292 2359 2251 2356 2302 2263 2222 2327 2388 2307 2316 2375 2246 2255 2339 2231 2281 2234 2349 2292 2273 2395 2333 2309 2229 2256 2294 2258 2244 2261 2295 2187 2268 2206 2219 2267 2252 2227 2254 2156 2310 2209 2157 2195 2180 2156 2099 2231 2145 2112 2158 2173 2188 2157 2144 2118 2149 2121 2058 2162 2115 2107 2084 2221 2079 2167 2130 2168 2120 2235 2164 2103 2174 2115 2098 2107 2078 2062 2080 2057 2090 2052 2133 2122 2142 2129 2079 2151 2158 2089 2099 2194 2116 2117 2133 2121 2149 2173 2190 2140 2060 2201 2170 2147 2262 2109 2180 2162 2159 2242 2109 2249 2114 2035 2071 2141 2052 2156 2018 2090 2099 2040 2086 1920 2018 1979 1948 1993 1861 1957 1862 1870 1884 1964 1969 1851 1843 1903 1903 1831 1855 1925 1950 1903 1891 1794 1887 1890 1889 1836 1915 1887 1856 1815 1825 1896 1790 1816 1837 1819 1795 1870 1887 1910 1895 1889 1789 1861 1782 1834 1783 1873 1902 1928 1873 1776 1835 1870 1876 1826 1907 1763 1797 1795 1855 1715 1820 1784 1829 1746 1785 1782 1857 1814 1781 1802 1817 1828 1818 1787 1792 1738 1884 1824 1793 1698 1779 1738 1832 1770 1861 1932 1830 1855 1779 1800 1745 1796 1796 1755 1844 1757 1728 1754 1777 1750 1807 1843 1783 1719 1808 1702 1804 1845 1818 1809 1752 1773 1781 1607 1769 1756 1810 1738 1794 1752 1687 1800 1844 1734 1856 1788 1815 1855 1769 1826 1824 1804 1816 1874 1690 1710 1782 1761 1810 1785 1748 1857 1812 1763 1789 1889 1790 1923 1805 1772 1881 1742 1829 1786 1763 1813 1782 1808 1809 1762 1779 1760 1817 1809 1770 1852 1814 1815 1744 1848 1823 1814 1730 1789 1774 1744 1681 1758 1771 1813 1812 1782 1857 1944 1762 1839 1808 1865 1760 1835 1822 1797 1778 1847 1769 1865 1827 1884 1827 1895 1884 1839 1822 1889 1850 1852 1812 1819 1835 1985 1880 1893 1910 1960 1971 1953 1888 1970 1965 1941 1952 2023 2016 2020 1975 2055 1990 1987 1929 2046 1984 2060 2071 2132 2079 2147 2176 2182 2189 2184 2317 2265 2197 2189 2301 2158 2202 2137 2122 2201 2088 2105 2065 2054 2100 1967 2011 1932 1956 2058 1923 1886 1860 1877 1836 1833 1825 1781 1862 1734 1770 1730 1769 1694 1731 1733 1792 1742 1739 1664 1678 1690 1666 1856 1724 1742 1678 1685 1685 1695 1632 1700 1586 1655 1697 1685 1678 1627 1666 1637 1577 1694 1693 1700 1688 1706 1637 1571 1621 1649 1618 1643 1598 1609 1608 1624 1641 1636 1629 1584 1615 1703 1649 1620 1546 1567 1556 1566 1575 1508 1550 1584 1494 1642 1596 1596 1601 1549 1506 1607 1519 1579 1600 1537 1602 1511 1600 1545 1559 1545 1569 1548 1496 1457 1553 1443 1614 1589 1557 1533 1549 1502 1585 1461 1462 1530 1468 1501 1506 1575 1579 1570 1462 1508 1485 1482 1487 1488 1430 1472 1567 1598 1487 1503 1476 1413 1475 1550 1435 1527 1466 1557 1500 1438 1482 1529 1511 1553 1651 1519 1569 1500 1509 1505 1448 1471 1636 1564 1635 1685 1675 1634 1673 1662 1772 1750 1797 1745 1750 1777 1663 1815 1829 1793 1956 1867 1959 1989 1888 1937 1947 1920 1875 1888 1990 1949 1907 1862 1846 1878 1879 1837 1849 1846 1802 1814 1757 1830 1688 1658 1700 1642 1649 1687 1642 1641 1525 1610 1576 1515 1489 1608 1516 1491 1546 1542 1522 1532 1535 1494 1530 1544 1542 1510 1555 1476 1551 1438 1520 1395 1513 1451 1439 1399 1440 1493 1498 1500 1545 1513 1489 1459 1456 1500 1449 1471 1505 1546 1571 1613 1530 1656 1616 1648 1613 1763 1770 1774 1881 1821 1937 1940 2044 2022 2118 2136 2176 2210 2405 2350 2451 2568 2582 2614 2715 2862 3012 3149 3313 3526 3688 4049 4183 4418 4703 5131 5227 5565 5690 6070 6222 6476 6714 6772 7026 7222 7453 7336 7224 7226 7285 7183 7055 6839 6794 6502 6359 6031 5930 5619 5281 5042 4762 4401 4326 4014 3877 3649 3553 3391 3354 3287 3239 3176 3142 3174 3176 3236 3226 3342 3257 3478 3267 3436 3324 3254 3214 3201 2951 3015 2985 3058 2971 2939 2944 2896 2805 2719 2739 2687 2661 2673 2564 2500 2413 2429 2377 2263 2317 2258 2179 2160 1936 2068 1936 1908 1888 1782 1694 1658 1684 1538 1544 1507 1535 1395 1446 1410 1414 1380 1292 1369 1350 1332 1323 1300 1308 1342 1259 1268 1231 1279 1404 1280 1245 1271 1232 1229 1320 1278 1215 1289 1245 1282 1284 1350 1326 1292 1261 1244 1297 1274 1228 1282 1322 1293 1270 1262 1340 1380 1393 1400 1379 1456 1385 1394 1386 1474 1431 1445 1453 1526 1546 1541 1550 1709 1656 1573 1698 1747 1898 1919 2057 2010 2084 2120 2202 2219 2256 2375 2417 2443 2477 2481 2486 2472 2431 2374 2435 2267 2363 2387 2229 2211 2206 2112 2048 1950 1850 1853 1846 1711 1643 1617 1612 1536 1399 1346 1342 1335 1231 1297 1253 1269 1298 1259 1305 1226 1295 1261 1343 1276 1276 1274 1283 1270 1290 1295 1294 1328 1316 1257 1344 1307 1324 1330 1304 1250 1288 1257 1238 1332 1269 1312 1316 1226 1317 1299 1235 1293 1289 1345 1220 1285 1244 1243 1267 1193 1198 1193 1252 1230 1282 1280 1281 1236 1324 1271 1288 1329 1254 1372 1330 1341 1240 1364 1423 1389 1333 1373 1408 1429 1441 1469 1475 1508 1527 1519 1596 1528 1639 1627 1627 1699 1776 1859 1819 1958 1918 1939 2086 2056 2115 2173 2170 2256 2253 2248 2316 2208 2353 2324 2395 2400 2412 2280 2319 2324 2162 2193 2149 2209 2094 2033 2015 1963 1960 1826 1768 1791 1712 1662 1572 1492 1577 1497 1501 1436 1375 1424 1423 1319 1420 1275 1363 1255 1251 1305 1188 1219 1204 1304 1167 1270 1251 1280 1240 1238 1177 1237 1244 1238 1123 1190 1227 1186 1244 1211 1185 1137 1278 1198 1218 1249 1202 1216 1265 1313 1248 1230 1235 1206 1205 1278 1330 1328 1293 1263 1325 1324 1371 1354 1385 1327 1368 1393 1451 1351 1426 1424 1438 1445 1491 1462 1509 1488 1448 1456 1503 1445 1467 1462 1568 1500 1619 1524 1574 1583 1603 1588 1710 1769 1653 1755 1737 1788 1822 2002 1981 2068 2042 2055 2148 2204 2217 2413 2469 2629 2717 2845 3001 3044 3294 3507 3699 3776 4158 4380 4636 4755 4915 5120 5496 5685 5715 5996 6293 6330 6554 6651 6657 6716 6537 6627 6530 6583 6389 6394 6098 6008 5689 5640 5354 5062 4904 4599 4352 4206 3993 3861 3735 3495 3428 3253 3199 3160 3152 3059 3055 3121 3046 3119 3176 3402 3364 3267 3391 3485 3509 3679 3631 3671 3741 3743 3719 3794 3816 3691 3577 3575 3607 3514 3433 3356 3232 3101 3119 3052 2898 2781 2567 2445 2392 2359 2173 2026 1989 1944 1748 1697 1642 1551 1547 1541 1434 1420 1354 1337 1324 1348 1341 1344 1259 1252 1211 1255 1214 1238 1129 1219 1139 1198 1231 1163 1241 1195 1122 1127 1166 1244 1172 1145 1151 1174 1144 1185 1126 1201 1121 1202 1162 1049 1073 1156 1074 1161 1138 1122 1146 1071 1174 1141 1050 1141 1143 1165 1153 1116 1120 1102 1126 1170 1195 1125 1158 1099 1195 1127 1213 1126 1184 1139 1099 1225 1124 1175 1124 1179 1156 1254 1197 1193 1199 1234 1222 1258 1128 1162 1194 1248 1270 1255 1215 1267 1257 1307 1241 1189 1188 1222 1219 1171 1168 1131 1139 1144 1196 1167 1181 1185 1160 1140 1110 1138 1162 1121 1162 1180 1213 1161 1222 1134 1141 1132 1147 1122 1244 1171 1168 1168 1118 1206 1139 1154 1165 1185 1104 1208 1185 1130 1147 1225 1166 1078 1131 1069 1065 1109 1048 1048 1100 1014 1084 1062 1054 1019 1100 1034 1027 1093 1106 1009 991 990 1029 1073 1036 1091 1026 1003 980 998 1051 1045 1027 966 981 932 914 986 1023 1005 1034 966 974 996 921 1042 997 1022 1054 1021 947 980 935 989 917 976 977 1001 1000 935 968 966 933 938 998 950 988 991 950 910 963 964 972 929 1028 926 986 1004 950 959 968 970 975 971 896 964 979 927 915 961 956 928 909 937 984 918 962 952 887 929 999 946 973 947 965 996 895 956 970 939 988 972 942 993 934 939 958 916 953 811 923 977 976 973 923 945 985 961 903 928 922 1001 839 959 960 970 979 946 899 951 932 977 942 979 955 923 988 955 978 901 945 968 960 915 944 905 965 922 926 922 886 928 884 922 928 915 925 987 854 928 906 917 911 905 881 871 920 974 897 896 949 897 916 907 874 894 933 928 864 933 906 910 892 874 926 945 873 937 902 922 912 932 913 930 919 886 893 960 937 958 871 851 941 886 910 894 901 950 1013 949 933 889 911 939 858 971 881 943 924 936 985 975 851 858 819 914 858 918 895 922 892 876 851 885 931 945 885 925 912 929 905 955 907 886 923 938 867 1007 864 850 919 900 928 838 891 879 833 888 896 937 963 855 849 897 867 860 927 828 908 884 914 877 870 924 842 886 899 840 887 852 913 947 895 889 880 928 957 966 865 885 937 931 927 973 916 952 932 919 998 911 911 1014 946 1023 901 910 983 935 950 936 925 947 920 946 991 979 971 942 945 934 913 960 867 884 948 906 900 939 902 908 925 999 857 909 903 910 932 990 936 955 982 932 958 964 990 924 977 995 994 996 1046 1004 995 1055 988 998 1065 1035 1074 1104 1161 1160 1187 1177 1215 1214 1317 1266 1378 1390 1448 1414 1506 1542 1527 1605 1595 1568 1600 1570 1599 1624 1638 1578 1558 1513 1508 1538 1410 1380 1349 1353 1274 1246 1316 1243 1149 1189 1108 1132 1053 1046 1037 979 945 1002 961 942 965 952 834 913 908 918 917 894 935 894 896 868 959 839 911 850 903 888 953 883 836 864 845 879 910 882 882 890 852 835 834 896 859 880 964 908 860 925 838 871 849 823 846 880 891 908 847 846 834 838 869 895 839 863 867 846 857 842 852 836 852 891 910 859 845 862 853 818 901 858 837 859 835 814 892 912 832 897 838 864 817 905 859 870 874 874 807 833 822 784 853 799 828 896 852 913 810 905 857 834 891 848 863 923 846 866 856 830 899 859 943 895 892 931 950 898 932 879 908 893 835 857 908 884 936 911 911 950 987 906 904 939 983 933 884 950 927 943 948 945 951 980 1004 945 883 961 999 984 936 950 969 926 955 887 898 843 898 877 848 902 840 873 853 868 859 850 879 783 865 840 923 845 861 861 858 860 866 872 845 893 907 841 898 928 887 941 921 900 880 949 910 906 993 980 977 956 967 930 949 950 895 923 954 936 969 912 941 899 869 935 919 981 942 936 858 858 961 843 868 850 797 882 957 891 828 863 854 922 875 964 893 903 909 862 868 875 892 909 938 918 918 926 943 924 952 962 1020 979 999 1021 964 1056 1017 1017 997 1059 991 1076 961 1016 1022 1045 1073 1018 923 995 940 936 963 1006 968 968 963 1008 988 914 990 920 892 945 910 999 911 884 933 839 926 875 918 925 889 810 935 859 864 908 868 805 851 846 882 862 865 876 836 840 822 822 837 870 863 904 911 875 902 879 832 875 846 919 883 886 890 940 878 921 978 885 982 912 961 961 982 941 920 970 909 968 1030 990 988 1071 1001 995 1079 1111 1162 1135 1142 1165 1167 1237 1240 1332 1250 1292 1359 1375 1323 1306 1370 1387 1343 1498 1324 1311 1438 1320 1376 1321 1336 1286 1328 1287 1352 1217 1228 1288 1162 1174 1154 1186 1188 1193 1110 1212 1129 1188 1099 1207 1221 1186 1100 1208 1177 1150 1226 1248 1238 1252 1238 1261 1223 1228 1241 1355 1294 1323 1306 1244 1327 1345 1249 1349 1304 1296 1306 1275 1251 1280 1237 1256 1200 1174 1137 1120 1151 1093 1068 1112 1150 1061 1102 1177 1070 1021 1058 1014 1028 1036 1104 1014 980 996 985 947 973 993 953 955 903 911 935 943 891 906 912 986 918 858 941 866 878 886 887 870 838 853 859 893 835 870 801 856 836 827 818 872 835 888 851 863 809 854 787 862 857 823 840 786 849 796 808 850 819 781 816 828 798 821 803 755 846 742 786 831 833 852 863 793 805 753 863 796 836 803 819 805 762 808 771 797 822 831 850 825 857 823 842 822 812 859 799 843 765 862 773 800 762 859 797 828 853 738 820 804 818 804 798 828 823 833 778 858 834 787 785 858 727 878 844 730 852 791 812 802 855 826 804 842 795 778 777 769 793 815 868 847 827 833 829 845 831 807 825 846 807 860 886 880 809 804 803 889 837 831 878 890 861 874 841 874 868 864 877 819 918 858 912 899 929 894 910 877 921 939 904 887 928 931 929 932 986 975 968 944 989 962 925 935 1103 1053 1077 1048 1043 1059 1102 1100 1147 1146 1221 1170 1215 1191 1291 1289 1231 1269 1346 1328 1319 1306 1330 1355 1324 1311 1286 1253 1339 1319 1309 1252 1313 1299 1332 1254 1246 1276 1270 1185 1183 1206 1210 1181 1167 1208 1249 1237 1223 1206 1227 1245 1293 1192 1264 1269 1307 1299 1284 1348 1358 1296 1303 1358 1354 1335 1287 1345 1248 1333 1302 1313 1268 1290 1220 1204 1252 1189 1180 1179 1219 1216 1212 1214 1221 1118 1162 1134 1204 1129 1219 1134 1282 1274 1346 1383 1415 1412 1486 1496 1545 1665 1646 1798 1971 1943 2108 2225 2338 2511 2668 2722 2891 3013 3276 3277 3623 3657 3811 3759 3900 3885 3891 4030 3986 3881 3963 3900 3722 3776 3706 3671 3466 3438 3297 3137 3028 2960 2745 2517 2418 2326 2120 2153 1951 1806 1751 1769 1641 1523 1554 1489 1458 1315 1306 1286 1294 1266 1260 1210 1282 1237 1231 1311 1278 1367 1344 1357 1372 1418 1494 1469 1566 1504 1582 1691 1687 1831 1779 1759 1823 1762 1902 1983 2014 1933 1934 2025 1863 1927 1976 1944 1886 1955 1836 1793 1779 1784 1794 1695 1738 1631 1625 1649 1624 1574 1525 1465 1458 1430 1411 1393 1370 1347 1350 1239 1294 1259 1216 1224 1116 1123 1156 1106 1059 1042 1033 999 936 930 964 951 901 901 870 863 963 907 846 873 881 863 895 864 841 848 809 874 784 799 807 860 819 815 785 793 824 771 824 757 784 788 776 832 769 826 802 752 756 781 760 729 732 794 767 729 778 777 775 757 817 716 793 761 806 707 775 706 813 812 798 762 813 761 796 732 773 750 782 734 804 779 759 797 752 783 825 838 808 775 796 734 761 744 771 825 808 812 815 792 795 819 772 793 810 817 803 822 864 867 885 902 881 784 884 899 921 916 950 997 956 952 942 936 1027 980 995 975 1051 900 961 1050 999 999 961 1013 1002 917 964 909 1007 896 935 943 905 888 914 847 810 874 829 784 881 842 869 844 803 848 827 835 823 845 768 801 777 745 841 824 797 826 810 820 763 825 798 783 785 742 773 782 808 711 778 797 795 786 830 744 801 767 747 708 769 818 780 816 794 779 830 753 792 797 808 808 805 827 795 860 795 792 769 729 784 821 811 809 786 850 825 873 837 817 795 827 753 806 789 827 867 766 786 825 841 787 777 722 733 762 766 741 731 768 743 700 750 719 723 679 725 771 713 766 762 682 724 738 776 782 734 801 756 809 723 761 790 791 763 829 825 761 832 788 816 812 855 813 818 901 818 915 862 909 833 922 900 921 912 867 855 892 890 919 900 900 954 955 898 944 908 882 942 878 888 836 859 834 819 806 822 813 806 821 826 724 758 834 788 755 723 743 749 773 755 767 723 713 729 759 803 707 720 720 727 755 674 708 712 706 654 721 719 704 757 657 710 687 679 709 666 723 696 690 747 706 693 669 704 675 651 669 717 665 686 743 719 699 668 726 670 681 673 705 663 745 633 703 679 709 650 692 704 707 691 649 730 725 734 690 708 690 682 723 729 733 719 663 724 705 737 719 779 712 655 704 684 691 697 732 726 665 713 750 740 732 729 750 720 724 702 754 713 693 727 688 740 754 687 709 719 707 711 704 719 677 718 701 675 709 701 714 675 676 691 714 724 719 675 646 622 687 672 720 657 707 710 713 657 684 655 693 691 750 668 734 735 643 646 748 675 738 736 703 750 700 717 673 752 670 749 728 757 755 708 680 703 719 683 693 750 712 743 766 711 725 775 723 763 652 702 663 713 669 689 705 725 738 700 708 679 758 711 712 673 722 682 707 690 695 699 695 749 721 716 723 654 672 697 631 670 701 759 724 688 722 722 653 683 655 674 719 727 688 685 715 751 670 706 687 641 662 700 621 639 665 702 677 753 714 713 633 701 656 701 680 698 698 640 649 677 718 773 666 666 700 673 673 713 707 680 675 709 648 658 674 686 699 741 653 768 690 702 679 719 723 672 702 691 664 668 746 743 711 728 697 728 749 691 752 726 726 685 697 787 690 744 760 749 770 790 768 762 776 772 773 790 800 764 823 788 775 838 836 790 838 800 821 827 801 839 803 775 832 844 836 773 765 708 808 786 732 808 767 739 735 737 691 704 793 743 724 727 766 683 689 723 759 663 764 731 742 760 733 724 710 763 731 673 719 722 706 716 728 730 723 727 794 736 785 794 776 783 694 801 822 777 780 734 768 765 758 743 743 746 756 715 774 737 798 711 797 727 763 756 768 761 748 720 759 697 818 725 794 797 812 790 854 855 862 820 855 872 919 953 973 990 945 983 1063 1075 1140 1126 1185 1230 1199 1272 1295 1373 1403 1480 1441 1527 1557 1499 1556 1517 1600 1561 1630 1534 1543 1574 1538 1537 1535 1472 1458 1483 1415 1358 1388 1333 1336 1284 1310 1242 1235 1135 1164 1094 1018 1079 1037 1034 1003 945 967 924 997 951 935 897 923 950 933 881 919 906 945 913 837 906 865 901 837 919 896 849 879 943 871 912 903 957 997 983 954 966 961 1007 1051 1033 1047 1073 1123 1093 1087 1133 1162 1141 1169 1166 1188 1229 1250 1140 1252 1160 1182 1180 1259 1164 1174 1165 1179 1180 1189 1206 1158 1131 1115 1080 1042 1031 1062 971 1013 953 899 929 905 856 920 838 848 837 888 807 797 844 814 843 791 795 784 756 762 756 778 754 743 719 721 775 727 753 676 715 661 706 675 683 611 745 676 686 675 702 742 682 662 707 671 651 632 617 692 655 665 629 696 696 597 628 595 644 599 570 634 666 649 588 635 636 644 651 674 611 651 635 614 662 630 662 667 648 652 642 653 615 630 581 668 632 608 602 628 674 592 659 659 617 639 666 707 613 661 657 651 632 626 664 631 706 661 692 711 602 673 694 664 649 660 675 682 663 630 683 635 736 672 674 645 741 669 736 671 753 725 780 716 760 770 773 769 783 788 819 775 857 844 906 855 891 1043 1011 1008 1100 1063 1154 1203 1262 1324 1303 1357 1398 1385 1423 1410 1545 1455 1441 1442 1549 1474 1560 1460 1508 1517 1584 1606 1443 1500 1401 1389 1392 1317 1356 1199 1278 1255 1285 1142 1152 1048 1165 1076 1045 1050 1014 965 898 904 919 897 869 881 841 867 830 832 833 784 844 786 831 730 772 795 739 806 740 800 754 774 801 770 779 788 778 756 765 777 765 735 698 841 779 806 856 874 797 865 959 862 893 943 919 930 961 986 989 938 965 937 900 943 931 910 859 926 903 892 911 937 861 856 924 852 837 823 802 812 818 824 816 806 799 779 771 739 800 747 764 743 793 783 752 830 737 819 759 785 825 800 842 822 805 847 900 896 851 910 884 866 842 843 794 867 822 842 853 882 857 829 770 790 811 803 848 826 779 697 777 716 760 710 683 696 706 694 681 700 697 672 683 705 683 646 654 624 676 619 655 633 716 679 715 674 714 760 715 709 760 700 702 740 794 731 780 704 792 775 732 761 769 786 781 778 778 750 769 762 767 785 759 777 762 752 789 773 761 746 739 740 687 687 755 723 751 685 730 661 696 665 653 686 653 692 654 632 667 652 632 600 607 658 625 623 595 625 574 641 640 605 604 606 597 622 563 640 575 647 577 583 661 607 601 644 628 604 558 629 616 616 635 639 619 676 619 618 610 602 633 593 623 642 580 608 615 609 630 651 603 614 557 641 569 605 659 635 684 629 641 633 546 621 614 598 622 625 601 598 661 618 643 669 649 629 687 687 683 662 674 683 672 701 640 700 678 678 662 686 713 721 694 698 646 660 709 758 701 712 708 711 672 718 653 666 711 721 704 724 614 704 653 699 665 655 722 717 705 682 712 672 711 681 704 692 671 729 749 704 660 693 714 671 717 718 687 682 723 646 691 688 694 708 646 622 633 627 629 628 628 611 624 601 623 681 656 614 638 655 645 612 612 592 585 602 650 624 563 637 593 615 573 591 596 586 586 602 566 603 579 602 574 595 593 598 603 588 545 630 630 597 601 647 608 613 621 623 621 575 572 573 594 621 597 593 616 625 566 624 543 621 556 641 554 572 602 616 623 618 606 585 549 607 661 567 603 600 580 582 553 573 608 554 616 593 592 621 632 638 584 624 588 544 603 562 608 635 565 556 570 550 575 572 556 590 599 590 603 645 640 641 588 611 577 628 571 554 576 561 563 583 615 583 588 626 590 589 548 590 568 599 542 656 599 614 557 588 654 581 611 588 600 585 571 571 621 608 591 559 643 573 590 597 657 619 552 603 609 583 583 562 560 601 542 551 560 566 564 600 526 640 550 580 550 593 608 516 604 609 619 630 576 615 547 649 572 594 616 587 635 626 619 591 602 627 589 613 602 657 649 619 622 559 587 571 565 596 596 606 584 630 632 517 570 583 557 598 545 576 560 558 605 543 581 567 594 549 575 557 569 575 577 570 550 606 545 529 556 550 621 545 564 552 575 589 543 590 573 591 560 555 618 626 629 615 601 634 617 569 665 615 601 633 606 617 658 666 626 622 629 614 633 628 600 587 552 609 598 626 637 655 631 626 649 652 673 584 619 625 574 583 629 630 642 667 634 641 633 662 604 657 636 633 622 665 677 666 695 695 707 700 665 656 662 635 724 650 683 652 660 677 634 653 636 665 645 632 651 679 664 661 619 638 650 627 646 581 644 647 551 605 566 644 648 610 656 633 604 620 649 544 542 579 582 634 559 557 588 560 577 587 571 579 621 604 589 585 553 591 547 578 534 529 532 527 612 539 608 547 573 592 563 598 579 599 549 566 570 584 591 462 528 536 616 551 507 543 557 592 613 545 583 580 572 529 545 528 516 595 555 620 563 597 608 507 590 544 586 618 609 584 572 568 607 539 558 566 593 521 496 587 523 536 527 521 617 558 544 532 539 568 564 568 522 576 573 565 605 549 548 566 545 574 588 591 571 571 552 560 597 560 602 610 564 605 567 532 599 519 538 548 544 543 549 562 566 556 577 569 584 597 570 580 588 567 546 551 564 562 612 548 581 532 518 583 568 573 540 518 541 523 576 559 472 592 562 510 529 617 581 523 571 633 573 534 574 572 537 561 572 556 561 579 533 557 576 574 522 524 530 563 551 570 576 578 598 573 578 582 553 629 608 597 573 604 574 577 605 594 645 554 584 544 551 608 612 554 585 591 612 545 593 575 551 568 571 566 565 612 583 559 590 576 619 560 576 539 539 605 621 609 580 611 570 607 582 596 652 599 706 658 600 631 649 569 689 652 648 624 656 687 764 708 677 763 705 701 735 762 756 797 741 809 767 824 841 800 792 790 856 836 810 854 823 844 845 785 789 781 763 858 775 787 759 727 745 766 722 701 782 754 683 716 719 663 708 640 739 686 668 693 672 662 651 593 621 620 629 571 646 637 648 594 614 588 588 688 618 632 634 553 560 624 579 614 565 619 593 594 620 555 605 571 579 609 628 572 606 600 597 599 609 557 655 610 607 636 579 563 629 607 612 639 606 631 587 608 614 611 620 647 629 618 645 732 660 701 702 672 693 663 728 760 699 727 742 739 756 664 761 676 681 750 739 721 713 664 681 722 712 709 656 690 681 655 660 720 681 676 660 635 620 628 632 637 608 704 594 642 584 655 592 623 569 610 613 596 541 564 558 596 542 601 606 562 602 587 559 603 592 577 575 620 592 561 571 553 570 609 577 560 619 585 577 560 535 584 568 558 566 565 573 560 622 559 590 578 565 518 526 580 602 610 571 586 554 576 543 572 573 555 577 556 566 631 541 567 629 526 538 546 503 593 540 557 538 530 540 574 541 550 574 552 527 524 517 519 578 535 549 525 605 512 577 574 532 529 577 530 547 523 548 536 521 555 553 564 540 544 565 560 556 546 562 574 527 596 602 580 536 567 582 509 553 526 587 568 609 572 567 589 566 589 556 609 630 605 585 585 565 574 533 562 533 561 569 552 553 586 547 593 591 588 530 581 629 572 548 587 547 570 570 602 560 588 580 590 587 596 579 590 596 601 640 571 547 586 599 552 563 602 559 558 599 593 616 575 615 538 594 636 624 574 626 581 635 663 640 643 623 620 610 599 686 633 667 608 629 646 578 628 588 628 608 620 642 559 558 564 582 640 599 667 581 618 569 641 559 577 599 599 567 607 563 572 596 573 586 538 610 584 583 565 539 554 583 514 587 582 561 546 584 525 617 569 563 547 531 507 555 533 512 568 564 533 560 575 554 583 528 550 539 531 513 575 574 572 593 537 542 537 534 512 502 604 495 541 529 588 544 624 565 556 537 494 566 541 537 576 520 628 545 588 542 549 583 515 580 545 563 490 582 566 558 553 496 542 571 524 580 564 560 591 582 589 569 573 540 605 501 536 558 565 536 579 545 565 615 542 562 582 569 568 561 543 560 570 559 554 618 567 610 571 611 532 582 545 567 510 600 584 586 533 544 531 550 564 538 567 546 569 553 577 573 576 537 529 541 566 615 559 536 600 538 575 593 599 580 571 586 584 538 599 541 553 615 533 560 556 588 580 591 577 563 551 515 559 571 607 568 575 550 546 578 548 611 574 595 581 554 547 569 541 544 555 540 553 548 585 543 530 612 572 511 568 490 555 508 550 539 542 498 538 544 588 552 544 535 562 560 557 598 562 530 609 543 575 551 565 556 555 522 578 557 558 567 554 545 553 523 582 542 538 533 591 551 599 535 527 544 590 519 571 604 580 596 584 609 595 586 613 555 581 577 576 632 591 592 578 602 644 604 611 639 560 616 631 598 655 598 641 669 633 627 608 607 605 601 585 618 632 622 566 634 616 573 600 608 623 645 650 640 651 594 622 663 625 675 630 677 668 687 715 711 729 750 659 695 715 711 731 758 768 753 818 854 777 842 852 833 853 837 869 836 879 854 835 936 922 963 973 886 888 913 896 884 862 877 837 857 859 873 836 862 826 837 847 836 801 826 821 733 766 730 801 791 791 732 718 742 719 675 739 699 711 689 676 699 647 699 647 698 614 676 691 594 595 648 606 680 630 618 652 576 599 583 541 598 594 609 568 590 585 590 607 584 592 561 602 601 588 579 585 607 599 573 609 591 594 602 612 584 593 580 635 611 615 622 611 610 621 602 621 661 670 624 653 648 647 722 697 682 720 651 709 728 723 706 677 713 719 783 777 763 693 729 784 763 799 782 754 774 750 760 758 746 677 802 696 702 749 719 770 709 718 719 685 689 700 741 664 701 629 678 698 686 661 692 655 641 644 596 665 672 675 627 624 680 596 619 657 675 631 693 634 649 670 691 630 680 636 640 655 702 662 671 650 675 630 655 689 694 708 672 669 729 661 678 685 705 645 715 667 698 679 720 729 725 705 721 662 778 756 739 747 792 812 809 808 846 795 812 878 827 880 831 928 918 893 948 933 980 984 965 1039 997 983 1107 1020 1116 1111 1170 1105 1146 1134 1211 1069 1071 1071 1130 1069 1119 1130 1078 1025 1037 996 1078 1041 988 987 985 930 938 904 926 916 878 924 887 898 934 866 850 853 823 740 765 764 738 783 770 743 728 748 716 688 685 656 657 722 652 718 622 625 569 687 649 630 659 602 602 619 639 661 654 590 589 635 628 595 606 634 598 610 633 581 655 611 611 614 633 619 580 627 654 644 591 561 637 608 680 631 647 626 593 659 716 687 728 698 690 693 688 749 717 726 763 773 754 751 816 762 749 764 813 832 810 812 810 816 831 750 842 857 847 848 848 877 804 853 795 813 807 814 816 817 768 805 718 842 800 837 766 806 811 810 792 756 854 806 797 755 748 732 801 733 789 718 675 735 758 747 769 700 770 698 767 662 765 727 701 686 685 696 714 707 648 727 715 682 654 695 653 640 610 658 657 673 638 628 616 628 631 649 603 671 651 644 611 605 585 594 594 643 599 595 594 625 574 559 652 580 607 596 632 574 623 574 539 561 567 584 577 578 570 590 553 562 543 606 556 566 564 536 532 575 556 545 565 574 545 527 523 578 486 550 560 564 574 559 511 512 560 537 556 547 580 587 555 580 547 590 556 586 571 586 597 573 566 558 590 606 632 632 596 614 645 616 637 614 589 620 679 604 646 595 674 578 588 567 581 593 570 618 593 613 618 600 634 644 592 613 640 564 593 577 645 611 618 628 619 626 608 605 584 593 572 604 634 631 608 588 574 611 543 609 603 616 568 611 577 609 589 640 604 592 606 552 587 639 548 561 594 566 589 615 543 592 613 601 587 636 587 585 610 609 544 614 616 608 592 600 590 590 606 557 579 554 600 548 549 564 580 598 545 574 580 535 575 614 591 560 567 576 532 559 562 582 544 541 559 552 567 533 552 589 522 560 516 572 538 545 535 557 542 612 545 573 549 566 565 584 535 546 498 504 542 518 546 544 497 549 587 575 573 559 523 530 592 523 547 564 527 541 557 504 492 539 542 575 544 544 549 512 538 525 524 534 522 536 518 509 544 468 547 499 569 523 544 536 560 530 565 546 537 495 620 510 564 512 548 520 501 526 508 522 490 481 518 507 574 533 542 501 530 520 505 539 454 493 525 493 518 497 565 551 513 492 558 559 552 536 498 504 534 560 499 499 569 479 506 508 503 495 530 494 538 509 511 488 543 538 517 536 502 512 566 515 516 530 520 509 537 533 504 541 484 506 507 534 534 538 553 506 487 540 539 516 506 484 520 527 509 525 588 507 522 486 499 541 507 575 506 479 462 516 517 538 519 503 509 497 530 487 548 508 518 497 526 530 556 541 519 510 533 536 564 504 530 519 536 527 544 519 533 546 593 511 543 534 531 522 530 541 506 544 571 464 559 538 568 542 537 549 546 571 556 597 546 544 562 523 581 575 573 527 552 519 577 538 623 560 589 589 543 592 585 582 546 578 633 535 583 535 531 568 584 564 570 576 540 563 543 553 505 545 526 523 565 544 581 603 583 581 568 552 513 570 518 566 552 493 536 544 530 568 525 523 529 517 561 522 559 561 523 524 498 477 488 538 510 558 514 515 493 466 468 486 540 498 521 493 482 464 518 517 547 500 490 544 507 567 473 528 505 505 526 503 558 544 517 511 533 512 521 539 513 533 577 512 564 483 495 472 533 542 556 548 543 541 515 495 527 557 544 549 518 494 499 472 505 556 546 614 535 549 574 530 590 562 592 564 591 545 541 551 532 555 514 535 531 579 509 546 551 489 573 569 576 559 548 576 556 584 543 563 516 514 571 537 571 510 546 538 581 534 541 532 561 550 578 501 538 507 571 563 577 521 528 531 559 585 532 535 557 553 550 541 526 515 515 527 516 548 536 554 550 522 529 534 524 532 547 538 530 527 525 503 536 534 500 511 511 561 537 527 496 536 483 514 521 520 536 485 510 540 540 500 542 527 584 511 572 470 525 527 551 560 562 582 570 603 574 557 549 592 551 577 561 567 610 615 555 605 609 619 590 590 611 636 606 635 665 617 715 612 731 741 730 732 722 735 741 763 754 761 716 757 832 834 796 895 843 818 934 915 861 813 896 925 885 933 943 955 930 946 931 929 935 1025 981 1013 927 1007 900 904 844 890 822 861 853 884 796 889 799 782 837 789 771 753 746 757 770 747 735 788 766 771 751 704 714 722 688 727 727 661 660 668 674 612 618 634 561 604 568 599 583 601 549 567 580 598 603 547 563 619 576 572 525 582 565 537 536 584 605 609 591 574 527 558 548 494 561 549 531 543 550 559 533 569 626 583 536 576 580 536 600 571 563 567 543 534 586 548 534 580 514 539 548 574 662 575 567 532 577 566 572 587 567 602 566 628 612 645 621 592 600 685 629 654 659 609 631 677 704 680 683 730 688 693 763 711 728 733 748 706 716 697 734 704 733 769 732 767 737 733 753 754 715 719 684 706 728 682 654 720 747 759 693 725 650 764 674 701 688 718 693 606 661 653 695 663 658 644 661 656 594 612 645 623 613 668 607 674 562 622 611 552 628 597 605 619 564 573 548 596 593 596 617 588 579 566 558 591 595 579 609 576 690 585 594 587 656 615 607 647 556 558 535 578 599 546 605 625 534 576 576 545 587 602 552 545 529 584 529 558 540 548 593 510 489 564 555 533 543 548 575 555 540 562 530 573 503 520 547 507 501 518 498 509 555 525 530 514 571 480 544 489 500 485 513 557 532 542 474 510 552 497 510 459 497 484 470 530 445 463 489 487 500 501 496 476 520 505 542 519 546 542 484 514 517 478 508 502 512 519 576 495 495 500 510 510 509 558 491 548 489 484 542 523 504 511 476 507 516 563 502 508 526 509 487 514 489 499 532 494 517 475 522 492 462 528 494 506 489 496 496 527 500 461 517 517 482 504 496 521 538 497 531 480 504 459 478 505 487 515 481 520 475 500 512 543 519 479 478 508 459 473 525 491 476 491 513 465 513 536 487 467 475 507 479 522 498 528 507 506 501 495 484 461 473 545 518 528 540 491 530 487 505 494 508 566 538 517 510 494 500 495 460 467 464 500 514 468 540 518 511 526 503 498 476 526 514 527 581 468 539 558 469 525 525 510 492 528 500 501 495 473 506 497 465 471 512 484 551 496 555 478 475 476 492 518 496 509 482 521 474 489 472 542 515 524 500 523 467 516 453 457 440 506 461 532 468 505 485 476 509 543 499 499 487 494 495 512 496 495 506 476 496 478 521 507 477 485 503 500 490 503 481 539 479 469 514 476 553 526 512 508 531 516 489 526 515 499 531 496 474 518 533 504 509 519 484 520 509 552 529 490 515 529 502 500 506 459 515 527 531 490 523 486 525 548 476 502 518 464 518 531 532 497 477 552 530 532 501 490 513 471 506 527 538 496 484 500 466 559 460 529 533 535 530 547 500 514 485 519 519 503 556 548 493 478 485 556 512 544 495 543 524 579 559 510 539 572 534 493 558 489 549 541 526 560 516 585 567 543 544 567 560 579 627 560 595 594 629 622 607 586 602 649 632 588 643 587 570 593 598 621 620 655 611 640 593 607 599</counts>
			</dataPoints>
		</scan>
	</xrdMeasurement>
</xrdMeasurements>
