<?xml version="1.0"?>
<xrdMeasurements xmlns="http://www.xrdml.com/XRDMeasurement/2.3" xmlns:xsi="http://www.w3.org/2001/XMLSchema-instance" xsi:schemaLocation="http://www.xrdml.com/XRDMeasurement/2.3 http://www.xrdml.com/XRDMeasurement/2.3/XRDMeasurement.xsd" status="Completed" recordIdentifier="{36C4F564-4E4E-4BBA-A038-F0D3A02211A2}">
	<comment>
		<entry/>
	</comment>
	<sample type="To be analyzed">
		<id>GPSS_Li2Fe0p7Mn0p1Ni0p2Cl4_111225_691549b847a6a0fd7c6580c5</id>
		<name></name>
		<preparedBy></preparedBy>
	</sample>
	<xrdMeasurement measurementType="Scan" status="Completed" sampleMode="Reflection">
		<usedWavelength intended="K-Alpha 1">
			<kAlpha1 unit="Angstrom">1.5405980</kAlpha1>
			<kAlpha2 unit="Angstrom">1.5444260</kAlpha2>
			<kBeta unit="Angstrom">1.3922500</kBeta>
			<ratioKAlpha2KAlpha1>0.5000</ratioKAlpha2KAlpha1>
		</usedWavelength>
		<incidentBeamPath>
			<radius unit="mm">145.00</radius>
			<xRayTube id="1010048" name="Empyrean Cu LFF HR (9430 033 7310x)">
				<tension unit="kV">40.0</tension>
				<current unit="mA">15.0</current>
				<anodeMaterial>Cu</anodeMaterial>
				<focus type="Line">
					<length unit="mm">12.0</length>
					<width unit="mm">0.4</width>
					<takeOffAngle unit="deg">6.0</takeOffAngle>
				</focus>
			</xRayTube>
			<sollerSlit id="21010002" name="Soller slits 0.04 rad.">
				<opening unit="rad">0.0400</opening>
			</sollerSlit>
			<mask id="22031000" name="Fixed mask 13 mm">
				<width unit="mm">9.00</width>
			</mask>
			<divergenceSlit id="22120001" name="Divergence slit 1°" xsi:type="fixedDivergenceSlitType">
				<distanceToSample unit="mm">50.00</distanceToSample>
				<height unit="mm">1.52</height>
			</divergenceSlit>
		</incidentBeamPath>
		<sampleMovement xsi:type="spinningSampleMovementType">
			<spinnerRevolutionTime unit="seconds">1.0</spinnerRevolutionTime>
		</sampleMovement>
		<diffractedBeamPath>
			<radius unit="mm">145.00</radius>
			<antiScatterSlit id="22090040" name="AS slit 9 mm (PIXcel)" xsi:type="fixedAntiScatterSlitType">
				<height unit="mm">9.00</height>
			</antiScatterSlit>
			<sollerSlit id="21020003" name="Large Soller slits 0.04 rad.">
				<opening unit="rad">0.0400</opening>
			</sollerSlit>
			<filter id="20030001" name="Large beta-filter Nickel">
				<material>Ni</material>
				<thickness unit="mm">0.020</thickness>
			</filter>
			<detector id="7010019" name="PIXcel1D-Medipix3 detector" xsi:type="rtmsDetectorType">
				<phd unit="keV">
					<lowerLevel>4.02</lowerLevel>
					<upperLevel>11.27</upperLevel>
				</phd>
				<mode>Scanning</mode>
				<activeLength unit="deg">5.542</activeLength>
			</detector>
		</diffractedBeamPath>
		<scan appendNumber="0" mode="Continuous" scanAxis="Gonio" status="Completed">
			<header>
				<startTimeStamp>2025-11-16T13:45:03-08:00</startTimeStamp>
				<endTimeStamp>2025-11-16T13:53:10-08:00</endTimeStamp>
				<author>
					<name>AutomatedUser</name>
				</author>
				<source>
					<applicationSoftware version="1.7b (136)">PANalytical Aeris Instrument Suite</applicationSoftware>
					<instrumentControlSoftware version="3.2.00000000 20240306">AERIS</instrumentControlSoftware>
					<instrumentID>950485</instrumentID>
				</source>
			</header>
			<dataPoints>
				<positions axis="2Theta" unit="deg">
					<startPosition>10.00943322</startPosition>
					<endPosition>99.99442286</endPosition>
				</positions>
				<positions axis="Omega" unit="deg">
					<startPosition>5.00471661</startPosition>
					<endPosition>49.99721143</endPosition>
				</positions>
				<commonCountingTime unit="seconds">12.495</commonCountingTime>
				<counts unit="counts">2891 2880 2944 2800 2805 2867 2884 2873 2903 2862 2856 2721 2832 2745 2856 2792 2850 2813 2917 2895 2937 2810 2894 2906 2881 2846 2863 2798 2901 2858 2956 2825 2916 2943 2845 2870 2950 2953 2780 2884 2854 2889 2901 2906 2906 3015 2913 2863 2918 2940 3027 2897 2984 2975 2847 2902 2984 2996 2903 3085 3023 2862 3041 3021 2899 2980 3040 2914 2865 2914 3024 3015 2981 2996 3040 3114 2928 3005 2965 2954 3011 3027 2936 2970 3009 3076 3034 3065 2946 3012 2922 3028 3035 2989 3061 2947 3041 3106 2967 3046 3126 3125 3083 3017 3050 3104 2999 3048 2987 3075 3044 3096 3007 3124 3057 3050 3181 3067 3150 3057 3062 3190 3138 3023 3024 3124 3216 3070 3125 3029 3172 3114 3068 3117 3140 3013 3092 3176 3056 3060 3047 3149 3081 3124 3197 3051 3120 3134 3144 3178 3192 3203 3109 3071 3207 3049 3188 3175 3131 3205 3130 3172 3051 3124 3182 3190 3293 3106 3154 3163 3103 3072 3139 3216 3101 3140 3174 3188 3173 3078 3072 3189 3224 3191 3190 3178 3142 3125 3083 3101 3199 3175 3205 3142 3056 3181 3216 3100 3134 3181 3122 3321 3093 3268 3042 3112 3143 3246 3026 3211 3149 3131 3159 3205 3089 3101 3215 3083 3092 3056 3108 3069 3090 3015 3036 3078 3012 3063 3050 3151 3038 3060 3052 3153 3106 3098 3084 3156 3129 3103 3124 2986 3088 3029 2932 3109 3046 3025 3092 3061 2941 3173 3070 3088 3024 3147 3153 3175 3085 3029 3005 3141 3029 3188 3013 3026 3102 3044 3042 2971 3046 3038 3002 2973 3020 3095 3080 2945 2920 3050 3023 3004 3011 2988 3120 2875 3064 3018 2985 3041 3083 3066 3051 2979 3001 3064 2935 2983 3020 3034 3062 3049 2913 2947 3054 3167 3070 3067 3069 3042 3095 3168 3045 3145 3037 3206 3022 3077 3084 3043 3009 3007 3066 3024 2995 3101 3085 3107 3170 3062 3226 3053 3117 3082 3072 3043 3183 3052 3098 3178 3244 3101 3193 3076 3151 3144 3218 3228 3266 3105 3106 3240 3165 3227 3246 3188 3274 3155 3262 3223 3209 3256 3241 3267 3247 3215 3131 3295 3219 3259 3235 3312 3356 3232 3268 3307 3267 3273 3243 3272 3224 3367 3183 3279 3237 3384 3353 3260 3218 3251 3327 3353 3397 3219 3510 3420 3466 3288 3384 3410 3336 3368 3334 3447 3329 3435 3379 3435 3334 3418 3476 3393 3459 3584 3382 3381 3467 3579 3511 3533 3661 3588 3577 3648 3702 3686 3748 3820 3831 3724 3825 3787 3936 3805 3840 3900 3884 3778 3818 3823 3854 3784 3772 3859 3772 3707 3768 3681 3780 3857 3830 3850 3723 3738 3884 3905 3948 3849 3948 3854 3828 3720 3912 3817 3816 3716 3664 3764 3732 3704 3795 3844 3686 3635 3665 3596 3530 3539 3542 3525 3551 3496 3416 3492 3384 3444 3360 3462 3466 3332 3475 3328 3424 3244 3249 3157 3190 3187 3198 3294 3313 3266 3231 3141 3106 3172 3267 3175 3190 3113 3134 3142 3211 3149 3240 3149 3220 3156 3049 3213 3143 3079 3106 3117 3081 3112 3131 3179 3080 3102 3024 3045 3132 3079 2977 3109 2970 3044 3078 2980 3091 2991 3131 3090 3003 3013 3075 3056 3096 3014 3086 3093 2999 2978 2934 2982 3008 2866 2934 2975 2914 3002 3000 3026 2911 3008 2931 2860 2928 2967 2963 2951 2933 2924 2937 3054 2993 3042 2936 2850 2854 2824 2847 2896 2920 2849 2863 3015 2869 2775 2909 2857 2873 2864 2919 2808 2907 2834 2906 2906 2866 2799 2819 2819 2766 2805 2830 2754 2905 2840 2729 2803 2834 2852 2867 2859 2870 2824 2864 2805 2838 2809 2878 2820 2722 2748 2819 2783 2839 2759 2777 2751 2830 2881 2815 2903 2832 2898 2726 2846 2947 2873 2841 2828 2991 2923 2772 2925 2936 2871 2950 2894 2875 2946 2866 2838 2947 2942 2934 2789 2801 2843 2895 2811 2776 2862 2753 2823 2934 2868 2926 2879 2812 2844 2760 2748 2768 2695 2775 2810 2851 2846 2813 2927 2759 2780 2748 2773 2823 2742 2745 2812 2773 2753 2818 2856 2731 2724 2707 2747 2678 2771 2797 2670 2726 2697 2682 2667 2775 2779 2703 2766 2654 2627 2766 2701 2752 2678 2739 2689 2661 2668 2628 2692 2706 2632 2595 2698 2794 2656 2650 2668 2697 2710 2696 2670 2638 2604 2661 2658 2580 2744 2663 2757 2668 2683 2680 2694 2668 2691 2566 2609 2675 2690 2588 2530 2642 2604 2653 2648 2654 2615 2664 2589 2623 2747 2694 2698 2667 2645 2690 2686 2641 2582 2592 2601 2638 2591 2519 2570 2671 2613 2718 2606 2672 2636 2581 2598 2639 2620 2619 2623 2555 2651 2562 2554 2600 2560 2679 2676 2604 2603 2534 2652 2612 2623 2582 2533 2517 2577 2562 2566 2569 2668 2652 2637 2466 2560 2672 2523 2571 2546 2602 2520 2586 2433 2592 2592 2579 2437 2541 2535 2579 2569 2690 2475 2563 2463 2539 2474 2584 2562 2498 2570 2561 2545 2492 2477 2632 2409 2478 2534 2503 2555 2576 2548 2412 2462 2470 2498 2562 2531 2627 2505 2443 2526 2533 2425 2382 2491 2463 2466 2546 2476 2413 2529 2425 2434 2527 2501 2450 2460 2487 2405 2424 2466 2449 2423 2520 2515 2456 2486 2479 2459 2480 2478 2560 2488 2458 2443 2427 2324 2453 2403 2465 2442 2515 2474 2394 2372 2481 2437 2432 2509 2355 2415 2500 2492 2318 2421 2353 2404 2359 2350 2520 2410 2315 2337 2488 2374 2449 2411 2403 2434 2417 2348 2423 2343 2383 2390 2326 2360 2379 2371 2400 2456 2427 2277 2399 2514 2408 2460 2352 2359 2375 2346 2385 2362 2431 2384 2397 2312 2387 2345 2418 2329 2288 2461 2385 2437 2430 2329 2367 2356 2403 2392 2354 2389 2342 2298 2301 2333 2385 2395 2298 2460 2288 2384 2403 2428 2344 2300 2314 2294 2373 2327 2359 2331 2381 2377 2327 2361 2404 2347 2449 2347 2425 2346 2398 2417 2380 2343 2295 2361 2326 2379 2335 2407 2443 2384 2325 2407 2319 2404 2377 2368 2362 2314 2367 2310 2327 2436 2395 2364 2319 2279 2342 2432 2346 2385 2473 2367 2306 2386 2342 2421 2374 2408 2370 2356 2330 2280 2339 2360 2386 2413 2328 2261 2423 2422 2323 2410 2335 2379 2373 2376 2456 2445 2376 2394 2327 2351 2364 2354 2310 2317 2350 2389 2343 2399 2395 2426 2449 2357 2387 2445 2380 2405 2428 2360 2510 2362 2334 2366 2349 2435 2350 2420 2426 2405 2388 2300 2352 2322 2319 2278 2322 2260 2370 2337 2273 2325 2322 2340 2451 2296 2303 2301 2319 2319 2375 2319 2337 2295 2325 2314 2248 2374 2372 2285 2234 2243 2360 2323 2318 2291 2314 2262 2321 2231 2258 2248 2212 2268 2246 2336 2223 2268 2196 2280 2168 2211 2285 2262 2233 2145 2148 2226 2196 2258 2124 2226 2088 2184 2139 2155 2160 2170 2171 2171 2181 2231 2208 2158 2204 2154 2103 2242 2206 2201 2199 2146 2175 2164 2145 2144 2033 2092 2037 2049 2121 2032 2089 2143 2123 2164 2081 2068 2060 2045 2107 2037 2064 2098 2089 1973 1976 2029 2038 2014 1913 2032 2029 1927 1974 1899 1950 1949 1991 2026 1948 1945 2013 1974 2023 1873 1994 1874 1949 2043 1949 1898 1951 1897 1877 2010 1940 1929 1885 1954 1899 1921 1905 1897 1875 1814 1945 1926 1834 1919 1904 1950 1849 1935 1919 1858 1916 1905 1844 1871 1839 1885 1841 1835 1883 1884 1750 1796 1883 1804 1922 1894 1872 1816 1855 1788 1774 1833 1752 1790 1783 1754 1763 1825 1842 1836 1726 1829 1779 1803 1803 1867 1794 1775 1774 1843 1773 1760 1771 1742 1775 1783 1778 1851 1755 1774 1789 1794 1840 1751 1730 1731 1769 1786 1812 1849 1857 1831 1794 1813 1796 1778 1746 1804 1779 1795 1843 1887 1748 1816 1829 1807 1794 1754 1783 1794 1767 1763 1783 1789 1724 1781 1702 1718 1702 1777 1742 1718 1754 1833 1808 1687 1751 1659 1710 1730 1733 1792 1708 1716 1708 1752 1712 1752 1686 1810 1729 1704 1756 1680 1681 1643 1652 1716 1732 1694 1728 1769 1690 1729 1659 1717 1734 1688 1731 1721 1671 1739 1676 1649 1725 1597 1717 1674 1683 1757 1771 1751 1734 1692 1663 1646 1672 1687 1673 1615 1741 1739 1619 1739 1696 1678 1716 1689 1749 1690 1764 1651 1680 1729 1709 1718 1693 1658 1648 1686 1724 1700 1616 1719 1704 1703 1691 1728 1644 1641 1701 1785 1681 1729 1700 1666 1675 1687 1711 1726 1689 1713 1762 1729 1632 1742 1720 1782 1695 1674 1701 1657 1719 1715 1745 1634 1751 1673 1715 1704 1707 1693 1632 1705 1714 1722 1770 1669 1675 1749 1730 1712 1766 1763 1733 1676 1641 1642 1683 1630 1733 1712 1756 1731 1697 1673 1522 1643 1649 1710 1729 1647 1676 1656 1676 1639 1658 1817 1661 1617 1631 1667 1675 1616 1719 1678 1717 1695 1667 1679 1674 1723 1564 1690 1667 1673 1596 1641 1685 1680 1645 1676 1653 1627 1632 1610 1655 1588 1547 1620 1632 1572 1649 1675 1695 1579 1643 1545 1645 1671 1596 1633 1578 1616 1551 1617 1582 1598 1565 1561 1566 1483 1596 1532 1544 1619 1621 1530 1528 1546 1538 1595 1446 1546 1514 1566 1523 1464 1497 1507 1522 1505 1558 1529 1532 1552 1514 1604 1518 1484 1499 1553 1511 1479 1490 1484 1496 1516 1454 1519 1493 1483 1457 1456 1471 1506 1418 1487 1501 1523 1476 1465 1517 1586 1448 1412 1423 1551 1420 1511 1432 1420 1374 1467 1398 1375 1473 1411 1454 1388 1373 1363 1396 1451 1376 1385 1430 1423 1415 1398 1387 1401 1373 1403 1453 1334 1366 1426 1379 1348 1388 1390 1264 1400 1396 1342 1372 1316 1340 1352 1327 1362 1368 1295 1377 1303 1386 1322 1380 1329 1380 1358 1306 1392 1364 1297 1374 1377 1277 1391 1335 1319 1305 1313 1345 1384 1332 1378 1263 1366 1387 1337 1314 1382 1416 1434 1369 1324 1386 1401 1406 1363 1368 1397 1377 1421 1413 1393 1343 1428 1431 1424 1434 1415 1444 1511 1472 1408 1461 1408 1454 1527 1451 1493 1441 1434 1422 1411 1412 1477 1491 1442 1422 1415 1379 1447 1385 1369 1386 1313 1330 1328 1307 1371 1339 1409 1343 1397 1381 1385 1306 1348 1365 1375 1366 1312 1316 1374 1325 1221 1245 1269 1273 1239 1309 1273 1286 1247 1283 1235 1268 1188 1238 1203 1192 1137 1191 1203 1210 1211 1235 1215 1212 1210 1179 1152 1168 1248 1165 1209 1176 1139 1190 1223 1180 1165 1146 1137 1185 1179 1193 1139 1186 1188 1135 1195 1211 1242 1131 1196 1205 1176 1291 1199 1269 1321 1326 1348 1315 1298 1287 1301 1266 1277 1339 1386 1328 1297 1329 1320 1342 1398 1399 1397 1464 1434 1415 1441 1458 1503 1489 1510 1531 1464 1483 1473 1560 1437 1443 1429 1463 1411 1442 1367 1378 1341 1381 1421 1367 1336 1374 1389 1369 1375 1275 1400 1380 1295 1300 1278 1285 1291 1289 1239 1196 1183 1220 1259 1300 1235 1195 1114 1166 1183 1159 1132 1140 1170 1104 1102 1131 1059 1062 1076 1056 1131 1099 1086 1073 1030 1117 1062 1056 1062 994 1046 1007 996 1049 1039 1037 1000 1020 1001 1029 1019 1053 1043 1069 1031 1002 1008 1067 1043 1057 1093 1020 966 962 1034 1030 1026 1031 1046 1027 1044 1003 977 1062 995 1000 1006 1007 980 1012 1035 993 1024 987 1042 1003 1020 970 962 990 983 985 989 969 1002 937 977 997 975 1004 1014 1005 1024 1017 982 1035 979 990 1005 972 935 1022 967 972 1004 940 1017 959 958 976 954 957 942 1011 1000 944 1033 967 944 943 963 906 986 940 1003 979 969 967 975 928 939 927 1035 958 1024 965 988 925 1002 998 952 981 944 947 1011 943 988 905 964 943 908 960 944 911 896 938 911 956 945 913 978 886 939 933 963 928 929 944 927 887 932 966 912 925 925 975 918 954 964 928 930 933 924 938 896 958 917 881 959 889 918 903 933 945 948 893 968 927 960 954 937 911 1006 935 944 910 976 980 923 919 906 954 926 922 914 938 897 956 932 963 982 930 958 955 936 947 932 948 972 880 965 917 1014 875 927 907 900 982 911 977 956 932 981 945 959 1003 920 902 914 945 943 912 907 889 907 894 878 913 923 859 874 947 909 900 907 940 947 913 908 984 903 949 933 941 878 899 895 890 919 900 914 915 891 911 911 886 918 924 881 962 954 940 912 913 925 896 874 883 924 926 955 923 891 949 897 912 871 914 878 923 943 944 899 944 941 929 880 963 891 926 938 897 950 909 958 835 909 910 914 947 911 879 842 884 934 938 916 869 887 928 985 946 898 928 915 936 922 910 938 956 905 917 909 990 904 931 899 949 966 1015 1028 1029 998 1030 1065 1059 1082 1079 1133 1101 1135 1128 1239 1230 1230 1287 1352 1455 1436 1494 1519 1505 1642 1561 1690 1632 1767 1825 1797 1842 1892 1936 1882 1855 1894 1869 2052 1948 2073 2034 1986 2075 2118 2007 2132 2113 2072 2064 2167 2049 1944 1984 2047 1959 1961 1900 1943 1832 1819 1878 1875 1715 1817 1712 1756 1690 1605 1663 1647 1528 1650 1547 1592 1514 1517 1463 1503 1431 1515 1397 1375 1365 1371 1256 1365 1250 1288 1179 1273 1188 1228 1114 1167 1088 1139 1063 1116 1038 1056 1005 1022 1010 1047 957 921 920 918 938 927 899 897 856 882 841 869 909 843 858 897 896 831 888 841 810 860 880 826 847 865 842 838 821 839 809 834 885 861 841 827 840 839 844 802 804 800 785 856 830 851 820 837 829 834 792 894 839 819 827 827 826 860 794 807 827 864 869 847 834 854 818 846 854 760 841 854 798 810 841 847 775 826 790 759 812 771 795 809 803 841 816 789 827 793 789 863 791 776 778 794 793 791 771 785 849 792 782 793 740 755 792 765 815 777 806 765 790 818 785 808 809 793 856 764 783 796 757 786 755 799 768 730 778 770 755 766 832 756 762 784 790 787 750 755 776 771 764 785 753 777 778 810 765 774 734 763 805 787 825 756 783 746 832 782 746 749 707 696 757 788 760 762 769 769 775 721 743 771 743 747 756 706 748 731 789 747 698 717 740 761 746 752 742 744 804 725 743 768 770 739 808 734 747 737 746 764 803 755 770 766 770 765 763 748 773 739 740 776 737 761 758 739 741 744 732 736 711 761 719 736 822 765 717 733 780 739 726 753 715 793 779 786 770 775 763 717 775 741 781 800 704 749 775 740 731 742 739 826 807 779 732 793 760 750 718 766 763 721 744 725 743 777 737 739 727 734 719 738 740 741 683 732 739 669 716 732 689 744 717 689 765 725 688 711 708 708 692 706 769 708 748 680 729 770 711 720 677 717 737 689 753 740 684 646 726 695 689 711 703 701 685 691 747 702 733 667 744 703 650 714 718 663 721 701 728 716 692 730 729 775 731 724 721 656 736 690 703 704 744 765 723 712 715 707 739 723 726 689 719 708 728 700 732 691 643 737 734 663 709 729 756 713 733 707 724 724 721 678 665 690 689 692 742 694 658 695 717 702 675 716 689 704 676 687 713 677 685 701 644 667 653 719 716 674 700 659 699 705 678 670 731 641 688 670 693 672 668 672 699 649 639 678 673 670 711 648 639 685 649 704 683 652 720 668 631 658 683 666 680 639 694 667 639 669 653 657 695 665 710 651 691 684 696 671 648 689 703 674 674 670 695 639 673 694 665 664 674 648 656 678 652 633 645 649 651 663 718 644 674 647 697 717 670 677 697 676 670 701 642 706 603 646 664 698 648 628 663 647 639 662 613 640 664 657 641 670 646 640 681 714 656 654 657 690 658 626 691 711 677 594 696 739 623 682 669 673 615 654 703 717 640 656 658 645 655 633 673 662 647 656 637 665 669 696 659 625 628 699 663 627 696 690 636 618 640 643 673 711 695 646 629 688 678 662 654 665 621 687 662 673 633 660 668 645 633 690 609 642 628 706 660 672 661 658 669 644 650 678 676 649 629 639 625 661 645 601 721 632 665 664 680 685 673 606 583 642 628 623 681 642 656 691 634 583 669 627 708 640 612 693 699 644 629 642 687 663 652 643 617 625 664 652 631 689 643 683 689 700 648 674 669 639 671 643 641 621 678 611 676 623 660 659 665 663 644 669 651 613 658 664 669 634 593 627 614 651 612 646 616 695 635 608 668 632 648 636 667 674 635 654 679 625 645 643 660 663 627 643 636 608 682 686 686 646 623 675 659 636 642 656 647 623 670 657 683 649 650 636 640 608 626 627 659 640 612 625 624 625 646 617 625 685 618 605 616 632 634 624 651 638 694 609 671 632 617 633 634 639 605 601 658 599 658 613 605 619 638 615 622 621 634 662 604 646 607 647 637 582 640 620 624 626 624 684 638 622 643 604 609 641 609 662 682 631 602 666 689 621 580 601 574 642 638 599 590 615 652 649 596 623 625 629 613 577 652 583 593 591 593 626 565 647 585 623 604 630 626 619 596 596 572 594 625 585 617 621 604 597 666 592 594 589 621 640 627 590 622 588 633 626 628 614 618 615 596 630 630 606 583 589 643 625 612 635 618 616 622 593 585 594 605 628 616 604 592 625 645 646 614 614 617 658 635 590 628 633 615 604 633 589 638 629 618 634 599 583 596 605 590 578 642 597 593 576 603 580 585 606 600 571 628 581 642 580 603 599 621 619 642 632 619 619 609 617 556 628 674 587 612 594 570 605 602 615 619 612 654 628 643 642 671 652 618 628 647 639 624 654 662 633 667 644 638 647 680 642 666 657 670 697 696 681 649 689 672 669 689 639 645 667 665 676 647 676 669 656 667 686 711 695 688 686 647 624 689 633 685 657 650 630 656 635 618 632 641 623 617 642 610 636 636 640 594 649 643 641 639 664 609 611 608 609 624 624 602 634 585 615 609 580 621 581 575 637 568 619 630 598 574 544 630 585 572 608 584 550 623 588 596 549 565 623 588 602 580 635 596 568 597 586 553 545 602 575 568 567 570 573 573 630 593 527 575 599 587 586 589 580 587 598 546 597 584 578 635 589 581 595 600 603 591 563 586 620 590 575 573 556 610 545 646 559 581 548 546 570 607 571 547 521 542 581 590 588 586 590 566 557 547 572 582 582 550 594 600 591 560 611 550 626 582 582 619 597 619 547 563 576 615 580 527 595 581 557 554 591 545 552 559 529 565 546 575 527 602 572 578 569 533 577 554 535 603 569 550 574 544 559 563 599 573 596 573 537 596 572 535 525 577 550 574 533 531 589 564 562 552 536 576 589 577 584 565 573 509 569 553 587 600 571 549 567 564 577 626 528 551 607 596 580 572 537 585 546 567 533 520 560 538 568 577 570 549 553 553 544 525 572 604 582 608 539 558 548 568 541 572 518 547 547 555 528 583 544 550 570 504 535 554 537 521 603 563 598 498 581 547 613 558 549 567 548 563 577 513 566 566 553 547 576 548 576 526 564 535 536 567 537 542 587 581 577 548 561 566 535 548 552 538 575 547 547 497 547 512 565 537 550 549 542 547 571 584 640 580 592 584 540 569 565 596 556 565 557 585 571 585 623 617 583 577 589 586 642 590 590 612 623 624 670 612 646 653 667 604 643 661 729 702 678 719 785 736 719 745 799 767 775 702 784 706 732 765 771 795 815 749 801 805 839 812 857 788 812 807 753 850 835 851 847 883 858 863 928 857 1011 969 918 915 947 903 999 934 931 933 934 972 935 1043 937 952 936 1001 961 949 997 908 952 890 978 844 861 867 884 845 820 842 803 839 735 770 754 782 717 719 778 728 731 679 695 724 705 692 766 740 690 613 684 637 630 598 598 644 584 607 598 629 579 569 572 608 594 550 568 579 596 614 574 587 572 573 553 548 544 540 572 537 533 594 572 499 579 577 535 552 559 565 532 550 520 539 548 551 545 521 543 548 504 544 540 516 553 573 506 571 487 528 555 551 531 550 551 598 539 509 511 525 559 513 514 540 527 511 540 506 525 565 504 534 547 552 530 538 511 507 518 534 531 500 559 526 508 547 536 506 503 487 510 521 535 552 504 540 523 547 486 525 502 520 541 494 527 481 546 472 510 522 531 522 533 531 510 564 496 543 485 519 513 468 572 493 528 540 518 499 564 513 565 547 550 538 518 564 503 570 536 563 513 553 575 522 565 558 550 556 551 492 557 563 534 586 582 584 544 527 529 558 491 595 528 568 547 492 590 517 534 557 576 596 592 562 568 552 539 560 550 557 541 532 553 567 555 526 582 591 590 562 587 543 567 532 537 469 555 509 519 540 545 522 568 486 519 517 507 490 481 533 533 538 540 517 517 555 548 513 487 525 501 551 522 493 509 485 517 508 525 496 474 546 444 548 494 519 504 483 544 535 524 534 508 499 533 577 512 515 504 502 532 499 563 514 503 508 512 572 510 537 539 467 489 538 506 513 532 499 501 492 497 472 502 499 539 476 532 477 492 526 485 508 475 497 497 488 514 518 534 490 478 508 473 508 472 498 529 456 533 480 485 500 480 492 491 507 515 490 513 497 532 503 499 468 476 467 495 481 494 482 487 472 468 518 501 499 503 523 448 491 528 472 509 473 476 489 490 453 491 503 484 467 504 495 488 449 480 542 477 480 480 487 498 467 501 482 532 480 459 474 474 466 460 469 509 453 528 478 449 451 496 496 460 499 479 516 485 497 488 475 480 472 457 460 462 489 455 466 489 471 461 481 467 479 478 465 473 477 549 488 454 490 467 455 432 465 518 475 474 476 473 484 506 515 487 529 477 488 463 533 503 458 506 466 448 446 485 437 515 485 443 479 433 489 468 440 491 438 517 467 473 511 440 496 467 450 500 461 466 469 495 507 487 450 461 457 485 478 440 450 461 500 452 464 484 455 480 506 428 454 442 464 453 499 461 451 464 465 460 462 490 462 523 429 446 432 492 500 460 493 452 453 468 487 472 477 519 451 488 459 473 453 487 505 461 463 443 462 443 433 428 470 485 449 478 494 506 473 443 490 454 461 476 470 474 517 494 474 489 452 498 506 506 513 434 518 450 491 453 504 485 447 447 436 500 446 469 464 431 434 491 521 476 448 464 519 489 522 502 481 464 450 462 392 499 436 476 478 423 465 497 484 428 467 450 501 525 459 447 463 452 441 469 457 469 478 467 485 450 489 439 441 504 445 462 477 487 468 438 459 448 489 480 483 421 443 408 452 453 492 466 450 484 426 460 478 470 433 447 413 473 453 454 449 459 450 461 457 457 464 471 460 453 418 423 502 440 460 453 420 484 452 434 452 486 436 422 478 453 522 433 470 440 446 424 441 471 439 452 454 440 448 433 451 419 430 447 453 425 469 417 428 411 456 477 460 459 408 430 462 449 443 418 475 470 462 422 451 446 457 453 441 456 427 461 471 447 438 431 442 468 432 456 428 486 453 474 444 448 447 519 434 454 485 464 414 431 468 441 456 453 436 443 463 456 489 427 484 464 433 476 464 474 456 474 445 437 471 451 468 418 461 477 444 458 477 456 427 491 492 478 464 493 427 452 414 489 460 423 436 442 457 437 431 479 459 484 469 447 445 444 498 448 444 472 479 441 490 467 453 469 455 431 469 456 464 498 524 482 501 458 448 420 508 455 472 480 420 488 465 418 470 435 427 472 468 479 473 471 485 490 487 507 476 491 424 476 489 492 459 480 474 443 474 459 491 471 481 441 488 498 443 439 462 473 465 449 443 484 444 462 455 469 440 449 447 461 481 492 496 442 442 441 460 428 432 425 433 457 423 414 477 425 439 425 432 447 437 463 483 441 454 463 462 485 456 461 443 400 406 433 405 424 415 420 419 446 392 440 410 421 455 462 464 411 428 455 400 429 424 393 468 428 419 407 436 455 425 396 437 451 430 415 457 469 422 421 465 436 453 424 430 403 442 455 402 466 436 443 443 406 448 437 465 420 421 441 463 442 459 439 370 444 399 421 433 401 473 393 414 440 411 445 428 398 444 470 426 432 431 425 460 415 375 399 446 399 431 432 405 439 390 436 405 445 442 412 453 415 437 393 431 468 440 404 464 418 414 438 432 432 435 421 431 447 406 426 420 427 416 450 471 442 438 395 428 387 412 454 446 405 430 434 399 444 385 431 440 451 467 440 415 423 395 431 457 449 425 437 442 463 455 451 433 436 424 469 433 457 457 415 438 492 465 459 467 438 455 417 456 442 453 432 387 434 502 460 479 493 468 506 443 443 412 427 454 443 464 441 439 452 435 487 470 440 495 483 472 418 465 439 460 451 503 473 472 513 491 465 500 478 504 438 449 445 429 500 464 477 503 460 482 466 451 437 476 463 465 516 476 450 481 494 462 480 455 429 427 437 506 411 443 420 457 439 459 424 415 407 469 451 465 443 451 424 433 445 399 360 416 410 434 417 404 458 443 396 424 459 441 434 405 410 419 435 402 404 416 413 412 425 429 386 455 425 413 403 430 437 422 420 410 384 372 425 436 444 427 403 395 384 432 411 381 432 411 422 376 379 420 422 413 450 413 445 429 439 423 441 422 394 422 393 421 394 363 397 403 423 366 408 413 388 389 415 437 389 421 425 413 395 390 388 422 378 399 382 439 374 419 407 388 440 417 435 401 396 433 429 430 423 425 415 434 397 395 400 456 407 394 421 408 444 414 416 386 400 415 407 407 416 445 443 430 408 433 470 444 430 430 415 423 435 403 425 440 412 459 461 446 427 413 424 457 427 428 435 450 441 446 391 369 454 399 422 398 470 378 435 429 429 442 411 430 443 432 449 396 390 410 416 407 390 427 434 411 451 413 434 479 442 397 415 408 439 422 407 381 424 428 380 390 375 444 407 421 385 391 428 401 371 403 424 390 406 404 414 416 402 404 414 420 401 439 432 396 371 398 372 392 403 408 416 383 374 408 404 418 399 383 396 426 398 385 325 421 392 438 396 393 378 398 408 362 408 431 389 411 420 405 399 379 411 378 392 405 399 396 378 404 398 419 399 430 400 425 409 376 381 396 385 398 381 396 375 407 412 412 380 401 394 388 390 396 386 376 408 394 380 409 381 404 398 391 390 400 366 399 383 376 426 399 395 361 358 419 410 362 388 362 405 384 379 387 409 419 396 383 404 394 381 399 396 414 407 405 371 397 405 416 404 390 395 396 387 363 391 399 346 404 415 432 372 371 399 395 374 350 366 377 386 374 406 368 412 389 419 372 385 381 367 385 422 387 384 415 377 397 405 392 367 379 367 435 383 366 377 375 430 378 423 408 386 359 387 420 407 391 393 397 392 429 390 381 386 381 388 392 396 400 371 368 400 393 369 380 410 368 418 394 383 398 352 437 390 407 397 406 372 380 404 366 398 386 394 368 375 401 385 368 412 345 386 395 405 354 392 418 389 402 413 371 393 370 402 380 405 406 414 396 400 400 391 379 378 404 399 397 385 380 386 385 372 382 392 368 400 386 432 408 395 330 357 436 382 389 423 338 375 393 368 392 380 409 389 370 379 366 393 401 397 406 427 408 395 417 374 357 428 368 409 340 392 374 382 408 391 345 400 388 384 424 393 382 405 395 387 438 366 381 375 364 394 404 410 410 413 375 392 407 389 373 391 345 420 398 368 393 377 398 400 403 397 390 361 319 382 403 398 377 388 372 358 387 387 380 409 340 402 380 389 388 389 374 397 393 406 394 378 387 375 383 388 346 399 365 408 383 377 401 407 388 375 368 381 402 424 382 384 386 375 367 386 395 371 391 387 412 399 358 391 380 412 383 366 386 426 377 369 393 385 413 374 392 382 387 397 408 391 395 377 400 388 352 392 329 401 388 369 383 381 339 397 374 391 386 368 406 424 390 394 387 389 393 381 406 403 355 386 387 383 386 421 378 401 397 408 387 342 434 398 438 418 366 416 376 422 368 380 398 388 359 368 376 404 402 415 386 399 340 386 373 364 414 386 414 400 401 375 393 396 402 354 354 368 411 374 381 362 405 396 369 358 403 378 394 369 372 343 405 370 387 366 401 414 374 404 364 374 389 396 367 404 356 356 367 381 383 374 405 330 378 386 388 365 405 395 408 370 355 386 365 385 375 400 409 394 406 354 412 362 383 367 404 393 422 385 367 411 380 445 357 352 383 337 379 373 351 410 383 368 401 383 387 381 418 386 337 334 368 366 388 376 393 376 385 352 367 412 407 358 373 395 368 368 381 406 381 377 373 372 386 399 353 396 362 363 422 380 387 357 376 406 379 377 359 381 367 369 380 389 362 381 402 374 382 347 404 400 401 377 372 417 388 376 389 369 365 360 389 396 397 385 402 399 387 379 340 372 371 401 377 378 390 359 336 374 360 378 398 368 385 370 411 376 393 390 406 373 385 437 387 399 377 373 396 390 398 378 386 359 382 382 414 378 373 385 359 412 407 402 363 419 376 360 409 365 395 373 428 370 402 389 371 381 382 408 364 394 388 399 418 418 379 406 400 376 424 418 397 375 400 375 406 389 405 403 404 387 395 425 387 399 380 396 423 372 388 382 418 416 416 366 410 366 401 371 394 419 413 417 408 400 393 409 378 398 381 378 406 378 410 369 378 411 400 445 393 395 387 385 381 430 397 410 388 419 365 394 418 368 438 426 405 393 372 385 411 421 387 398 415 424 416 400 407 386 401 381 393 392 396 341 383 389 382 394 355 402 400 382 409 397 362 370 401 399 401 416 376 400 376 341 426 342 397 343 422 374 380 378 381 376 408 407 388 354 364 362 391 362 407 418 374 406 321 387 375 358 402 377 387 374 405 378 364 362 408 364 374 407 389 381 399 387 377 395 384 378 371 381 371 385 411 399 408 390 388 372 383 376 377 389 393 346 384 368 421 389 377 353 386 414 404 399 356 377 381 375 378 370 386 366 365 374 391 400 325 398 365 377 392 392 360 387 351 335 386 380 347 379 379 354 373 389 385 384 372 388 376 378 392 400 394 323 392 429 382 401 373 364 380 365 363 389 361 353 411 369 366 374 413 396 398 364 364 388 383 356 366 392 387 363 399 357 350 397 375 394 353 394 372 416 388 421 373 353 368 392 352 383 394 389 372 373 373 407 387 366 378 377 391 379 348 364 336 375 381 359 397 387 392 415 374 375 349 386 387 387 395 379 360 391 416 358 416 376 386 382 442 378 384 338 351 386 366 401 385 392 358 384 384 375 404 391 418 419 372 389 364 325 323 361 394 395 391 388 392 414 357 408 396 410 400 387 392 415 420 402 359 384 380 398 379 410 416 443 371 385 365 387 369 388 376 373 361 374 390 359 385 360 373 378 387 376 389 370 356 372 396 402 343 398 408 388 370 345 387 378 398 397 387 383 384 377 374 403 386 396 358 383 383 357 383 376 365 368 398 386 395 366 382 354 374 363 388 411 359 387 362 380 374 362 367 386 387 391 401 377 398 425 376 389 365 401 339 350 331 368 364 378 357 384 383 388 381 376 374 381 398 391 393 361 387 365 371 374 362 382 366 384 378 355 372 376 359 359 335 380 379 373 370 385 379 371 365 356 368 401 390 410 357 384 412 378 395 397 399 321 368 378 365 385 424 405 392 386 357 387 383 394 375 392 404 382 383 383 355 387 379 411 379 404 405 412 397 392 344 389 381 361 376 394 378 419 394 391 413 385 376 390 432 388 403 379 418 359 365 434 349 439 399 405 409 398 384 373 396 399 442 358 372 413 396 373 382 372 373 393 391 389 378 399 382 387 398 386 387 418 345 395 370 350 389 395 395 404 395 398 380 385 373 388 415 388 371 407 431 377 414 383 405 381 393 397 414 425 392 386 359 377 373 398 377 395 389 352 407 375 393 419 409 399 409 408 395 365 387 365 336 364 406 385 350 398 392 409 345 409 407 346 386 417 353 390 350 367 388 407 414 359 418 399 425 416 449 400 394 404 397 391 389 404 384 382 406 381 415 387 380 401 402 413 420 417 389 410 403 359 400 394 378 402 408 367 397 369 423 411 423 399 356 359 433 395 359 405 399 383 457 378 420 423 380 410 414 386 419 396 347 385 407 399 419 400 384 375 411 425 384 385 356 396 390 423 389 428 388 396 444 374 420 408 409 378 374 428 430 404 442 408 378 387 372 386 417 388 398 368 373 402 382 367 368 400 399 390 383 379 415 412 409 395 372 416 374 390 402 374 419 420 393 424 373 418 410 378 377 388 388 383 408 385 384 397 366 382 400 395 403 412 383 377 425 395 376 377 398 395 402 400 442 416 390 403 371 408 442 406 376 427 414 415 417 407 443 389 410 408 376 427 425 366 406 395 409 426 376 383 417 399 371 366 391 384 373 423 381 411 374 397 406 387 405 403 424 392 417 402 360 374 366 391 345 372 405 368 397 394 410 407 396 395 378 416 362 385 370 405 381 380 362 374 418 400 439 399 421 376 363 368 409 375 401 374 395 405 409 402 409 394 405 397 412 400 420 384 420 407 391 368 389 401 417 389 370 363 410 390 409 414 406 391 381 382 384 380 406 385 406 391 423 356 363 362 368 345 378 404 411 387 410 412 418 360 378 408 397 396 385 400 405 415 416 437 400 390 431 429 410 387 411 403 421 409 390 399 422 428 434 442 406 388 415 451 421 392 427 407 427 425 443 406 411 422 434 384 420 417 421 454 439 407 393 412 436 449 403 422 453 432 443 401 421 397 378 433 417 402 417 434 420 396 410 401 423 384 382 387 416 412 431 424 450 417 423 413 439 438 412 433 403 416 441 447 427 434 391 410 440 400 422 402 424 391 408 454 427 397 433 422 466 423 439 444 473 406 416 418 421 413 448 423 402 428 406 434 433 421 415 416 439 424 409 377 435 382 417 387 424 388 452 374 414 369 406 405 398 398 416 409 394 389 384 397 368 406 378 410 373 378 381 397 398 430 430 388 421 405 382 396 392 442 377 405 374 378 404 403 425 398 377 435 387 368 397 362 384 386 385 388 353 424 360 383 358 413 367 357 408 369 413 401 389 400 363 381 387 409 365 375 388 365 369 368 367 399 345 420 380 362 376 405 367 369 403 340 361 358 398 373 394 378 389 373 364 424 374 414 383 388 370 370 369 360 395 351 366 378 420 378 370 366 392 397 364 397 378 361 385 377 343 360 390 357 380 379 390 392 403 390 372 377 417 351 367 367 371 356 362 313 402 401 377 395 385 381 393 369 357 373 346 382 373 373 350 345 391 364 326 366 374 388 381 377 374 364 391 341 387 366 385 356 374 374 347 386 387 357 382 370 358 375 382 374 343 374 405 399 374 337 372 383 425 363 387 420 368 329 342 345 378 385 384 377 396 410 340 347 340 389 382 351 363 412 375 340 365 383 315 368 372 333 355 370 370 402 363 393 364 359 376 380 369 365 355 340 373 345 373 345 328 368 366 358 379 374 349 381 373 388 377 357 355 340 391 333 364 330 352 363 373 374 340 381 354 390 367 358 360 355 400 358 403 377 381 382 385 380 352 337 375 345 379 360 345 377 377 365 322 381 383 348 371 374 385 355 339 358 351 366 339 353 372 376 346 359 367 381 326 357 348 312 368 342 347 358 401 378 386 393 371 380 370 356 353 359 357 353 334 358 394 381 383 364 386 373 373 364 360 404 322 337 401 325 377 360 371 370 386 388 343 351 374 383 376 375 376 343 391 381 328 361 378 348 342 370 348 356 362 364 329 362 351 350 362 339 363 382 327 373 333 385 362 355 344 332 367 353 374 377 357 383 386 314 360 351 337 352 386 377 330 355 359 354 354 347 355 342 350 361 344 339 304 413 366 377 375 376 350 358 372 337 329 336 350 385 324 378 334 375 370 359 378 328 350 375 341 345 339 329 386 354 350 337 361 362 382 375 326 352 336 357 328 344 352 332 372 358 345 376 338 351 338 353 365 384 377 321 384 373 371 402 310 361 356 380 349 356 338 366 372 360 364 327 387 343 381 370 334 334 391 309 332 396 355 369 341 378 355 364 352 364 381 370 342 357 339 350 340 372 345 337 352 339 375 367 368 350 368 336 349 413 365 366 354 379 389 345 306 375 349 315 386 337 360 375 373 329 355 375 373 359 380 337 370 392 390 363 383 403 405 370 372 382 368 359 375 374 324 391 352 332 345 377 368 418 344 398 365 371 355 377 345 352 368 381 360 350 350 359 383 365 329 381 364 366 372 367 335 325 364 395 362 346 364 347 352 345 365 372 341 349 329 329 343 376 392 393 342 358 381 375 350 335 330 353 343 368 334 387 311 357 374 347 371 351 355 405 360 352 342 343 352 353 352 342 378 363 357 373 385 367 372 369 351 363 370 365 343 386 358 344 368 365 365 346 356 361 370 371 352 336 323 381 344 341 369 386 367 346 314 329 352 372 374 396 315 358 342 350 351 341 321 348 371 340 335 369 379 365 410 378 389 335 385 350 328 377 336 358 362 361 326 376 331 352 329 359 372 341 333 375 333 343 388 373 346 356 354 374 378 341 344 369 339 363 351 344 342 370 347 411 352 356 323 353 360 348 345 339 334 348 334 322 348 370 340 359 336 371 357 365 323 350 315 346 401 409 332 367 341 360 359 391 329 326 348 351 334 367 321 355 345 330 377 343 348 328 351 358 357 351 329 352 304 392 370 333 334 316 344 364 356 385 343 316 344 344 342 320 326 337 346 353 373 356 350 317 370 335 319 376 373 360 346 346 364 381 367 349 357 333 356 344 376 359 321 357 350 375 349 334 370 311 347 376 329 333 322 334 339 373 357 359 364 352 352 364 375 346 384 322 348 344 385 354 360 322 364 355 347 320 352 355 375 363 337 333 346 365 338 349 345 375 370 356 353 344 350 330 365 347 355 370 340 350 381 371 349 371 391 370 375 359 344 358 354 375 354 354 374 368 342 342 364 345 356 365 381 352 343 380 329 386 351 360 372 364 377 359 346 341 336 346 348 346 355 356 401 362 366 356 372 414 385 345 368 340 400 335 368 365 348 353 349 365 349 342 355 362 348 386 341 345 369 386 370 345 325 390 353 346 356 332 350 354 388 402 374 368 333 323 363 372 366 361 359 386 389 348 328 346 367 373 334 333 327 359 360 309 379 366 372 335 379 346 372 328 363 367 353 345 398 360 326 328 336 350 345 357 380 355 359 393 333 308 357 343 363 341 316 298 323 363 337 367 334 385 356 362 355 375 330 342 354 320 343 381 374 369 384 351 357 361 320 334 313 336 335 344 325 344 367 374 347 344 320 364 348 350 373 351 351 371 355 366 361 356 345 368 355 353 358 371 326 343 358 315 321 359 366 340 343 338 360 339 346 348 332 349 306 342 348 310 358 350 357 363 338 333 332 379 338 351 296 340 344 325 341 349 369 369 354 365 355 364 326 344 325 359 343 355 319 369 342 347 366 338 316 338 346 346 325 367 360 344 331 389 359 361 337 349 362 347 333 327 373 362 353 315 367 349 338 347 365 344 332 358 321 318 319 347 341 333 355 363 342 343 330 358 344 304 342 318 341 350 366 338 341 340 337 317 334 318 365 352 334 310 317 333 330 344 353 369 364 355 345 351 329 340 353 339 344 361 321 319 342 355 334 343 352 349 314 312 335 342 348 340 330 317 360 373 336 309 330 355 344 342 342 348 330 332 333 312 330 375 332 350 369 352 307 317 333 386 337 346 366 358 341 304 363 365 339 378 306 371 313 364 347 365 356 349 335 331 348 314 366 333 336 358 334 330 313 343 369 295 329 334 362 350 368 327 345 347 374 341 337 367 336 366 371 343 334 367 322 317 360 330 327 345 318 344 336 332 344 351 341 340 341 332 334 306 325 318 329 326 344 331 304 341 326 378 369 323 351 327 340 349 341 343 333 335 330 367 328 307 367 350 314 325 325 353 319 339 354 349 331 355 327 375 354 355 349 323 325 347 328 332 350 347 338 342 321 336 333 336 297 332 311 358 304 332 333 364 358 338 358 327 353 340 321 380 338 324 347 351 326 294 325 357 349 344 350 320 354 354 342 328 350 343 341 308 379 362 374 333 321 325 364 313 341 328 380 331 345 304 354 334 331 370 322 352 339 358 356 352 349 364 368 312 373 332 345 341</counts>
			</dataPoints>
		</scan>
	</xrdMeasurement>
</xrdMeasurements>
