<?xml version="1.0"?>
<xrdMeasurements xmlns="http://www.xrdml.com/XRDMeasurement/2.3" xmlns:xsi="http://www.w3.org/2001/XMLSchema-instance" xsi:schemaLocation="http://www.xrdml.com/XRDMeasurement/2.3 http://www.xrdml.com/XRDMeasurement/2.3/XRDMeasurement.xsd" status="Completed" recordIdentifier="{6282C2EC-E79B-4FFE-9510-E583885E79EE}">
	<comment>
		<entry/>
	</comment>
	<sample type="To be analyzed">
		<id>GPSS_Li1p8Mg0p8Y0p2Cl4_111225_691549b747a6a0fd7c6580bb</id>
		<name></name>
		<preparedBy></preparedBy>
	</sample>
	<xrdMeasurement measurementType="Scan" status="Completed" sampleMode="Reflection">
		<usedWavelength intended="K-Alpha 1">
			<kAlpha1 unit="Angstrom">1.5405980</kAlpha1>
			<kAlpha2 unit="Angstrom">1.5444260</kAlpha2>
			<kBeta unit="Angstrom">1.3922500</kBeta>
			<ratioKAlpha2KAlpha1>0.5000</ratioKAlpha2KAlpha1>
		</usedWavelength>
		<incidentBeamPath>
			<radius unit="mm">145.00</radius>
			<xRayTube id="1010048" name="Empyrean Cu LFF HR (9430 033 7310x)">
				<tension unit="kV">40.0</tension>
				<current unit="mA">15.0</current>
				<anodeMaterial>Cu</anodeMaterial>
				<focus type="Line">
					<length unit="mm">12.0</length>
					<width unit="mm">0.4</width>
					<takeOffAngle unit="deg">6.0</takeOffAngle>
				</focus>
			</xRayTube>
			<sollerSlit id="21010002" name="Soller slits 0.04 rad.">
				<opening unit="rad">0.0400</opening>
			</sollerSlit>
			<mask id="22031000" name="Fixed mask 13 mm">
				<width unit="mm">9.00</width>
			</mask>
			<divergenceSlit id="22120001" name="Divergence slit 1°" xsi:type="fixedDivergenceSlitType">
				<distanceToSample unit="mm">50.00</distanceToSample>
				<height unit="mm">1.52</height>
			</divergenceSlit>
		</incidentBeamPath>
		<sampleMovement xsi:type="spinningSampleMovementType">
			<spinnerRevolutionTime unit="seconds">1.0</spinnerRevolutionTime>
		</sampleMovement>
		<diffractedBeamPath>
			<radius unit="mm">145.00</radius>
			<antiScatterSlit id="22090040" name="AS slit 9 mm (PIXcel)" xsi:type="fixedAntiScatterSlitType">
				<height unit="mm">9.00</height>
			</antiScatterSlit>
			<sollerSlit id="21020003" name="Large Soller slits 0.04 rad.">
				<opening unit="rad">0.0400</opening>
			</sollerSlit>
			<filter id="20030001" name="Large beta-filter Nickel">
				<material>Ni</material>
				<thickness unit="mm">0.020</thickness>
			</filter>
			<detector id="7010019" name="PIXcel1D-Medipix3 detector" xsi:type="rtmsDetectorType">
				<phd unit="keV">
					<lowerLevel>4.02</lowerLevel>
					<upperLevel>11.27</upperLevel>
				</phd>
				<mode>Scanning</mode>
				<activeLength unit="deg">5.542</activeLength>
			</detector>
		</diffractedBeamPath>
		<scan appendNumber="0" mode="Continuous" scanAxis="Gonio" status="Completed">
			<header>
				<startTimeStamp>2025-11-14T11:35:37-08:00</startTimeStamp>
				<endTimeStamp>2025-11-14T11:43:45-08:00</endTimeStamp>
				<author>
					<name>AutomatedUser</name>
				</author>
				<source>
					<applicationSoftware version="1.7b (136)">PANalytical Aeris Instrument Suite</applicationSoftware>
					<instrumentControlSoftware version="3.2.00000000 20240306">AERIS</instrumentControlSoftware>
					<instrumentID>950485</instrumentID>
				</source>
			</header>
			<dataPoints>
				<positions axis="2Theta" unit="deg">
					<startPosition>10.00943322</startPosition>
					<endPosition>99.99442286</endPosition>
				</positions>
				<positions axis="Omega" unit="deg">
					<startPosition>5.00471661</startPosition>
					<endPosition>49.99721143</endPosition>
				</positions>
				<commonCountingTime unit="seconds">12.495</commonCountingTime>
				<counts unit="counts">3071 3039 3086 3082 3056 3156 3075 3105 3047 3035 3106 3133 3093 3197 3039 3090 3028 3109 2981 3025 3255 3170 3085 3155 3137 3082 3189 3124 3097 3192 3138 3099 2998 3032 3047 3123 3098 3179 3069 3104 3102 3138 3168 3127 3221 3161 3156 3188 3056 3153 3177 3163 3180 3031 3233 3176 3176 3162 3158 3203 3187 3167 3207 3261 3226 3188 3246 3269 3137 3184 3159 3234 3215 3311 3257 3245 3218 3173 3264 3171 3162 3266 3318 3233 3162 3178 3251 3231 3213 3335 3237 3284 3150 3234 3250 3260 3355 3369 3373 3287 3359 3289 3336 3279 3261 3294 3452 3281 3319 3199 3287 3245 3332 3355 3335 3276 3278 3370 3309 3404 3334 3409 3324 3244 3318 3351 3278 3355 3366 3348 3425 3407 3380 3393 3462 3381 3395 3475 3452 3404 3376 3403 3401 3386 3473 3376 3357 3512 3431 3464 3429 3419 3398 3400 3415 3509 3363 3459 3340 3418 3481 3330 3479 3373 3536 3450 3393 3390 3464 3442 3478 3421 3400 3352 3456 3352 3463 3367 3407 3459 3450 3302 3387 3453 3405 3369 3372 3434 3417 3405 3468 3297 3432 3373 3404 3315 3379 3381 3330 3351 3390 3338 3376 3436 3384 3480 3396 3410 3304 3363 3439 3319 3451 3387 3321 3239 3353 3361 3402 3254 3285 3407 3290 3294 3263 3306 3421 3372 3298 3166 3269 3236 3371 3294 3240 3204 3228 3212 3290 3298 3359 3102 3156 3224 3275 3267 3225 3232 3266 3284 3117 3216 3242 3289 3265 3248 3261 3147 3248 3269 3281 3192 3151 3197 3200 3178 3082 3206 3222 3264 3141 3242 3164 3169 3201 3156 3268 3127 3098 3204 3062 3139 3253 3191 3163 3062 3134 3174 3209 3190 3182 3081 3082 3138 3165 3114 3046 3162 3130 3184 3038 3167 3077 3213 3152 3109 3072 3104 2984 3159 3229 3062 3163 3274 3294 3193 3164 3187 3254 3232 3311 3121 3107 3311 3179 3308 3115 3205 3118 3316 3180 3213 3205 3148 3252 3261 3154 3224 3194 3221 3297 3155 3135 3206 3330 3238 3134 3189 3226 3317 3193 3227 3209 3277 3210 3319 3157 3277 3291 3214 3315 3229 3328 3250 3205 3364 3269 3389 3357 3285 3293 3331 3379 3375 3351 3339 3396 3310 3445 3335 3324 3343 3393 3402 3413 3390 3328 3329 3350 3353 3327 3309 3286 3437 3486 3375 3383 3401 3467 3451 3522 3416 3379 3484 3364 3534 3495 3510 3486 3467 3512 3410 3511 3485 3707 3641 3581 3665 3806 3711 3632 3738 3817 3871 3676 3865 3908 3871 3874 3958 3862 3884 3941 3861 3915 3769 3976 3830 3764 3837 3982 3763 3816 3794 3857 3760 3794 3867 3906 3872 3848 4004 3935 3830 3914 3900 3814 3987 3901 4039 4037 3969 4094 3988 3981 3797 3892 3858 3829 3947 4005 3814 3890 3824 3793 3687 3890 3759 3691 3628 3656 3700 3587 3453 3521 3470 3503 3513 3408 3478 3456 3448 3452 3478 3351 3533 3439 3475 3279 3456 3406 3393 3410 3392 3425 3410 3344 3264 3258 3318 3263 3356 3383 3309 3308 3211 3263 3222 3393 3283 3225 3388 3253 3264 3308 3281 3383 3480 3372 3285 3315 3384 3350 3379 3349 3279 3338 3183 3361 3394 3265 3303 3244 3188 3355 3299 3228 3343 3199 3311 3231 3237 3137 3259 3163 3307 3235 3230 3275 3237 3201 3178 3260 3154 3165 3139 3202 3161 3114 3381 3014 3180 3168 3157 3128 3074 3118 3051 3034 2993 2986 3026 2937 2998 2933 3001 2875 2951 3001 2962 2934 2866 2936 2989 2856 2930 2881 2910 2964 2901 2954 2822 3030 2989 2892 2855 2954 2819 2900 2921 2910 2842 2972 2848 2939 2902 2825 2790 2913 2858 2894 2777 2799 2751 2821 2807 2903 2748 2849 2864 2826 2830 2809 2824 2813 2816 2849 2852 2790 2840 2744 2831 2766 2879 2903 2860 2839 2800 2799 2885 2813 2838 2836 2871 2813 2856 2772 2837 2899 2838 2890 2890 2885 3011 2936 2942 3031 3048 3008 2936 2960 2915 2961 2920 2912 2933 2913 2836 2822 2977 2923 2895 2853 2889 2889 2879 2825 2801 2858 2892 2867 2862 2945 2933 2945 2928 2857 2884 2880 2854 2877 2916 2983 2885 2898 2788 2863 2798 2893 2762 2849 2795 2778 2837 2814 2726 2723 2780 2759 2780 2708 2760 2725 2701 2619 2599 2786 2773 2673 2635 2689 2735 2665 2648 2665 2606 2667 2745 2682 2641 2642 2631 2685 2664 2753 2654 2690 2586 2673 2640 2649 2593 2685 2625 2673 2665 2696 2625 2614 2562 2608 2675 2505 2682 2724 2648 2602 2582 2593 2564 2672 2492 2605 2660 2528 2615 2587 2618 2700 2603 2651 2630 2607 2571 2515 2611 2546 2606 2548 2614 2657 2569 2519 2601 2608 2644 2501 2550 2458 2482 2518 2532 2512 2543 2553 2604 2656 2562 2592 2578 2549 2507 2559 2548 2436 2523 2504 2562 2415 2521 2531 2423 2504 2628 2558 2559 2472 2505 2436 2473 2523 2436 2525 2554 2564 2501 2487 2515 2547 2495 2486 2408 2462 2496 2478 2471 2506 2457 2516 2380 2521 2478 2461 2526 2380 2480 2529 2413 2499 2447 2500 2469 2603 2464 2499 2325 2445 2320 2437 2367 2534 2414 2420 2406 2353 2430 2471 2389 2424 2313 2380 2436 2379 2403 2357 2369 2425 2378 2415 2461 2278 2425 2362 2385 2391 2380 2462 2436 2463 2416 2408 2424 2381 2416 2345 2413 2331 2406 2361 2402 2343 2367 2417 2345 2465 2344 2361 2418 2383 2337 2205 2314 2373 2360 2293 2330 2359 2318 2304 2347 2396 2384 2336 2382 2354 2458 2386 2325 2264 2319 2396 2283 2371 2351 2386 2349 2301 2379 2268 2280 2282 2294 2258 2290 2328 2281 2253 2227 2318 2313 2394 2309 2308 2294 2296 2262 2228 2305 2265 2245 2247 2312 2203 2295 2322 2273 2240 2265 2249 2259 2197 2282 2300 2306 2253 2244 2328 2231 2317 2238 2268 2198 2277 2254 2194 2230 2310 2149 2320 2245 2238 2194 2303 2245 2204 2339 2213 2277 2206 2239 2241 2292 2209 2230 2213 2290 2284 2323 2332 2212 2176 2272 2237 2175 2296 2236 2223 2275 2222 2312 2287 2244 2326 2278 2179 2284 2301 2303 2239 2248 2281 2167 2306 2281 2306 2181 2261 2250 2282 2293 2287 2277 2238 2370 2247 2346 2286 2283 2285 2221 2245 2274 2193 2291 2299 2328 2270 2376 2282 2355 2335 2289 2318 2216 2241 2183 2188 2293 2322 2290 2303 2319 2269 2212 2240 2242 2250 2277 2422 2327 2180 2286 2303 2352 2278 2341 2335 2229 2271 2278 2219 2357 2312 2332 2225 2281 2202 2266 2330 2208 2290 2232 2194 2185 2233 2190 2197 2245 2235 2196 2278 2162 2272 2257 2176 2205 2220 2205 2114 2200 2195 2202 2206 2237 2159 2115 2292 2127 2172 2077 2255 2108 2157 2283 2295 2251 2166 2127 2102 2111 2144 2165 2247 2164 2077 2101 2124 2207 2227 2199 2102 2068 2155 2132 2123 2144 2066 2129 2152 2212 2142 2107 2193 2136 2122 2128 2144 2098 2067 2043 2091 2070 2113 2036 2120 2057 2033 1969 2057 2025 2011 2052 2072 2071 2087 2038 2072 2065 2036 1968 2121 1967 2061 2045 2149 1991 2029 2001 1998 1935 1989 1910 1970 2027 1987 2041 1865 1972 1937 1962 2017 1968 1936 1949 1957 1968 1911 1900 2048 1994 2033 2043 2033 1872 2017 2017 1998 2029 1991 2002 1971 2032 1995 1954 2006 2008 1987 1883 2027 2018 1942 1985 2014 1906 1973 1942 1905 1838 1957 1941 1900 1888 1895 1850 1963 1957 1980 1921 1955 1869 1902 1933 1865 1831 1784 1924 1876 1885 1826 1806 1843 1814 1808 1816 1791 1840 1795 1828 1829 1743 1791 1759 1814 1778 1778 1772 1777 1663 1698 1687 1757 1654 1754 1771 1718 1757 1698 1722 1710 1679 1661 1727 1650 1664 1694 1619 1704 1714 1744 1738 1712 1739 1617 1686 1743 1705 1666 1682 1642 1636 1707 1604 1660 1624 1596 1650 1690 1590 1656 1612 1765 1626 1636 1575 1612 1714 1626 1632 1671 1707 1636 1649 1633 1593 1651 1653 1580 1737 1592 1571 1589 1629 1629 1641 1616 1626 1572 1615 1571 1702 1611 1683 1645 1657 1626 1637 1686 1662 1605 1602 1660 1577 1550 1594 1572 1567 1608 1612 1613 1642 1583 1644 1545 1534 1592 1530 1571 1598 1518 1536 1559 1577 1618 1571 1601 1592 1580 1534 1631 1643 1629 1599 1554 1518 1563 1566 1561 1557 1658 1544 1594 1649 1597 1578 1613 1648 1600 1547 1565 1566 1606 1558 1594 1588 1575 1613 1629 1740 1601 1596 1633 1643 1602 1599 1597 1576 1644 1640 1635 1604 1579 1582 1619 1639 1557 1659 1681 1666 1661 1577 1587 1626 1578 1628 1635 1529 1587 1594 1631 1579 1606 1559 1647 1610 1608 1643 1561 1611 1663 1570 1644 1631 1636 1599 1626 1635 1586 1592 1572 1592 1579 1668 1600 1636 1608 1568 1574 1560 1670 1510 1580 1592 1642 1626 1669 1655 1626 1586 1637 1564 1612 1602 1593 1572 1628 1571 1576 1640 1585 1572 1598 1634 1593 1636 1606 1669 1591 1703 1616 1591 1609 1613 1614 1651 1580 1622 1660 1494 1558 1606 1558 1543 1520 1607 1559 1640 1572 1577 1622 1559 1587 1557 1592 1532 1569 1546 1587 1467 1539 1556 1542 1448 1429 1527 1507 1520 1483 1591 1509 1458 1474 1491 1513 1503 1442 1476 1523 1526 1449 1499 1387 1501 1436 1495 1522 1495 1421 1396 1476 1445 1423 1468 1469 1376 1507 1484 1387 1457 1498 1406 1412 1409 1405 1417 1481 1434 1399 1393 1389 1382 1437 1477 1403 1384 1340 1377 1412 1386 1381 1321 1321 1442 1444 1429 1403 1403 1343 1419 1373 1345 1425 1441 1376 1380 1395 1380 1353 1335 1415 1350 1403 1402 1375 1285 1391 1456 1319 1371 1302 1358 1311 1383 1295 1392 1341 1366 1270 1285 1366 1328 1310 1336 1244 1316 1400 1278 1372 1357 1359 1350 1379 1399 1378 1484 1393 1418 1450 1445 1529 1551 1487 1515 1560 1555 1643 1557 1638 1526 1515 1558 1628 1535 1561 1536 1550 1600 1559 1527 1551 1516 1526 1558 1561 1556 1454 1503 1546 1538 1567 1534 1580 1546 1479 1529 1547 1527 1581 1522 1484 1481 1508 1579 1479 1420 1466 1485 1491 1398 1473 1404 1437 1285 1396 1389 1263 1240 1252 1364 1329 1328 1404 1299 1296 1312 1289 1294 1337 1326 1297 1231 1238 1209 1292 1285 1282 1339 1239 1213 1220 1229 1176 1232 1218 1209 1265 1274 1240 1256 1205 1322 1286 1242 1273 1267 1278 1301 1351 1302 1352 1369 1389 1459 1440 1571 1512 1587 1752 1822 1989 2041 2299 2443 2724 3146 3447 3571 3684 3731 3850 3982 4337 4379 4370 4468 4318 4255 4285 4066 3940 3961 3792 3766 3540 3611 3491 3587 3410 3503 3272 3381 3532 3405 3350 3491 3555 3634 3711 3917 4047 4199 4241 4434 4251 4401 4184 4435 4095 4286 4044 4178 3952 3894 3807 3627 3552 3498 3238 3196 3052 2894 2759 2683 2574 2496 2350 2298 2148 2012 1986 1868 1779 1756 1653 1772 1612 1603 1542 1594 1532 1531 1525 1450 1554 1433 1506 1337 1437 1339 1350 1258 1255 1277 1248 1247 1217 1299 1159 1194 1189 1187 1198 1184 1139 1190 1103 1116 1126 1092 1078 1074 1052 1035 1086 1094 1081 1098 1031 1102 1048 1086 1049 1086 1117 1062 1104 1088 1096 1004 1102 1043 1086 1062 1044 1043 1021 1058 1050 1050 1039 1118 1059 1033 1087 1070 1140 1062 1097 1040 1029 978 1091 1061 1091 1149 1115 1152 1162 1190 1186 1224 1347 1270 1406 1443 1486 1653 1654 1826 1804 1931 1928 1966 1976 1953 2037 1959 1930 1931 1960 1946 1866 1778 1785 1721 1675 1653 1732 1710 1710 1711 1613 1773 1765 1755 1737 1820 1786 1717 1772 1794 1792 1790 1798 1690 1712 1713 1790 1610 1577 1623 1452 1582 1351 1435 1336 1317 1363 1317 1253 1295 1295 1251 1220 1204 1210 1139 1155 1144 1123 1132 1157 1109 1107 1043 1040 1123 1047 1070 1060 1068 1017 1025 1017 1069 1032 1037 1028 929 1089 1068 1069 971 998 982 955 1007 1014 1038 968 1000 979 1018 960 1024 992 1026 964 982 993 979 931 999 1011 982 961 936 989 922 980 957 984 1075 999 959 985 1029 954 985 976 1046 956 993 985 991 1026 1008 1026 1009 1082 1041 1026 1089 1060 1040 1023 1053 1032 1009 992 1053 1069 998 1098 1032 1012 985 1002 1006 1033 1059 1009 995 1061 970 955 1033 1034 1038 1024 955 996 1024 1028 1049 1016 1029 978 948 965 1022 985 944 916 1035 962 999 971 1005 947 946 967 953 957 987 944 899 949 941 998 976 973 1010 921 989 987 954 905 964 989 888 1044 978 1019 993 955 1047 972 979 994 1001 953 1020 1001 1033 1071 1053 1067 1163 1143 1121 1076 1066 1125 1028 1139 1156 1137 1101 1118 1066 1027 1075 1081 1119 1143 1086 1092 1095 1136 1071 1128 1141 1155 1152 1184 1194 1155 1153 1183 1278 1203 1338 1290 1279 1350 1277 1381 1453 1390 1510 1651 1677 1877 1962 2225 2222 2549 2522 2869 3028 3319 3353 3719 3835 4077 4245 4477 4312 4537 4317 4379 4277 4318 4306 4258 4224 4208 3984 4020 3846 3895 3897 3805 3867 3841 4002 3816 3999 3897 4150 4155 4530 4460 4589 4509 4564 4560 4722 4637 4930 4928 4777 4452 4055 3924 3727 3552 3548 3408 3249 3106 2954 2701 2602 2521 2560 2483 2423 2266 2280 2106 2060 2037 1898 1861 1834 1849 1716 1681 1714 1594 1535 1586 1567 1485 1429 1504 1457 1438 1464 1437 1394 1426 1310 1395 1379 1309 1274 1277 1216 1271 1249 1219 1229 1191 1187 1173 1187 1144 1090 1092 1124 1105 1038 981 1086 1042 1051 1038 1068 1035 1043 1011 1053 1010 1001 948 997 1009 1007 1025 1047 1031 1055 973 961 980 1032 957 992 1036 984 1000 980 998 1020 954 999 1008 969 979 950 966 901 992 936 918 921 897 906 910 878 948 820 910 903 976 910 872 842 862 903 906 937 846 836 859 831 845 873 819 898 932 827 849 872 871 881 835 830 885 833 841 832 810 823 812 835 849 790 827 838 846 849 831 831 865 858 872 823 850 839 837 919 906 914 921 923 807 906 879 912 898 946 924 911 804 836 916 909 919 948 874 853 850 884 859 911 794 822 888 896 839 896 879 902 853 891 828 878 871 876 854 856 829 848 857 841 810 908 821 838 781 839 854 786 791 789 736 804 697 785 848 750 782 815 777 804 761 732 762 725 781 771 780 731 755 801 794 818 798 764 784 764 809 740 751 772 769 748 782 702 797 788 767 808 756 687 757 752 758 807 761 799 768 806 761 759 761 762 793 782 676 769 781 719 775 747 753 750 761 692 778 685 784 745 759 732 761 775 740 761 697 745 717 767 703 756 692 761 783 706 716 719 722 739 716 733 705 759 744 674 757 673 734 743 730 711 699 741 729 678 679 751 706 683 701 732 714 727 688 726 748 718 708 755 704 750 685 692 714 708 717 643 724 715 751 756 709 629 736 684 709 708 676 697 720 682 694 691 693 703 688 696 712 674 700 693 719 661 706 707 712 689 738 759 713 711 666 675 676 691 624 657 720 688 717 692 735 657 708 696 665 705 682 712 719 701 686 730 675 697 707 706 704 651 697 728 649 672 723 661 691 714 718 693 703 651 693 689 668 728 680 681 642 709 706 685 608 681 686 743 692 641 646 661 693 695 657 668 708 687 697 698 691 646 709 655 661 669 710 714 654 676 661 650 656 638 707 637 711 645 699 683 648 656 676 692 673 651 691 645 647 665 672 668 651 716 672 671 632 696 666 677 694 688 676 682 603 711 674 736 746 686 758 661 684 710 723 637 703 735 685 621 724 670 654 670 652 710 671 641 707 609 682 664 640 711 640 657 673 686 685 671 701 672 685 624 659 693 695 685 662 702 720 672 739 665 643 708 676 654 681 665 703 726 692 717 650 716 715 759 803 761 790 819 835 844 837 889 959 907 1047 1058 1120 1041 1147 1179 1151 1155 1130 1204 1211 1192 1140 1239 1270 1180 1161 1132 1115 1100 1105 1084 1087 1126 1093 1114 1051 1147 1170 1107 1096 1165 1176 1136 1108 1119 1043 1132 1024 1023 974 994 1003 916 992 916 951 877 873 903 801 822 838 780 761 787 765 774 746 780 695 716 719 660 704 678 713 638 666 706 608 687 642 670 694 693 629 650 656 642 667 628 617 638 638 630 624 626 653 608 597 628 614 660 605 633 668 670 664 633 627 680 606 661 598 641 634 673 637 682 674 641 643 603 629 650 650 662 610 684 599 701 676 666 649 606 631 653 646 657 665 644 598 699 689 677 651 625 633 644 631 617 638 606 644 602 652 657 668 673 624 633 610 693 640 628 651 687 728 633 665 624 670 665 685 724 660 727 712 698 670 743 700 717 714 694 696 724 680 695 709 753 727 707 711 695 697 674 734 724 681 706 659 717 699 680 709 704 672 643 697 682 687 694 672 680 707 697 654 660 687 660 691 683 653 638 676 683 675 663 656 697 681 657 700 658 652 710 675 669 701 673 695 733 695 726 674 674 659 674 687 657 682 669 680 665 724 638 683 678 658 667 655 686 711 712 677 660 706 709 698 700 683 643 651 652 655 655 709 698 639 635 635 657 608 623 645 672 650 579 632 588 638 638 610 654 617 620 658 668 615 673 610 620 624 600 660 636 686 696 615 685 689 648 662 671 632 691 694 664 683 662 656 637 676 670 673 717 695 749 655 682 661 625 718 699 733 641 642 656 613 671 646 652 693 637 696 640 688 646 633 663 643 636 624 592 584 597 638 636 626 639 638 615 608 621 655 600 638 588 612 642 645 582 643 608 605 621 601 668 649 636 602 667 649 654 658 626 636 664 654 707 796 711 766 719 789 771 814 815 848 927 925 962 987 950 927 1002 974 982 952 981 971 970 965 953 918 935 921 939 1004 932 988 947 883 958 898 961 951 959 894 976 923 958 916 910 904 873 904 864 830 868 797 850 799 784 782 777 836 795 799 805 716 714 662 779 715 754 664 707 677 664 645 660 660 687 667 688 689 652 674 652 654 644 677 625 637 647 642 595 702 664 655 664 662 688 641 659 642 616 572 622 632 640 646 631 606 639 628 641 648 618 639 632 594 620 604 579 652 588 601 603 598 586 631 580 622 575 576 575 619 572 594 638 596 582 619 596 653 549 621 579 581 647 586 581 635 602 610 652 566 636 598 574 592 593 593 589 557 566 608 613 605 659 613 606 570 632 548 609 583 581 602 581 599 553 596 561 613 600 620 508 567 596 559 576 602 533 546 574 523 588 604 574 602 543 576 597 556 589 566 583 594 561 578 623 519 597 574 566 554 535 548 567 581 550 563 568 530 600 591 571 549 577 573 632 562 612 582 533 553 537 547 584 611 598 581 554 584 561 570 580 563 554 625 590 635 624 580 582 623 595 556 590 642 594 614 598 589 607 603 563 615 567 559 587 581 643 595 648 578 640 577 607 636 612 602 664 625 650 602 653 595 609 639 667 658 670 598 617 611 590 678 668 636 625 691 655 664 628 651 700 674 717 691 596 636 723 732 677 666 694 694 622 710 651 667 654 731 662 670 704 709 666 713 721 691 671 685 676 713 710 659 653 653 680 738 690 693 747 771 845 790 801 861 832 861 915 884 944 924 916 950 935 948 1005 941 978 993 987 961 994 941 972 986 1026 975 942 930 879 961 945 974 982 1035 907 969 967 974 1020 986 986 978 951 1029 974 1051 1025 1062 1135 1132 1156 1184 1337 1414 1547 1473 1606 1719 1813 1891 1948 2237 2287 2451 2489 2640 2714 2787 2914 2831 2841 2776 2796 2723 2874 2702 2758 2739 2747 2576 2634 2561 2613 2574 2452 2605 2606 2367 2467 2426 2475 2382 2290 2223 2267 2137 2180 2050 2023 2080 1987 1942 1836 1835 1694 1692 1559 1565 1456 1369 1331 1377 1288 1296 1231 1198 1135 1160 1042 982 1018 994 959 1032 976 917 950 942 970 879 856 889 900 835 860 885 888 937 859 883 873 816 883 833 827 881 896 871 807 850 830 833 814 810 820 820 784 823 792 734 792 767 769 777 729 736 708 678 727 707 739 717 676 668 634 654 645 628 630 667 645 694 597 626 607 573 544 597 606 563 608 575 595 553 621 605 602 625 568 579 569 569 586 526 554 594 537 628 598 535 595 564 576 542 587 596 550 576 569 617 559 533 527 553 604 506 537 554 553 558 588 483 522 548 584 524 572 560 555 529 524 574 563 540 520 552 552 565 527 552 547 528 518 540 525 551 522 538 558 527 534 528 514 504 534 506 545 538 571 552 573 575 596 534 579 591 564 601 592 615 566 599 622 635 640 699 678 629 691 712 646 714 682 692 729 690 722 694 692 657 718 719 689 702 729 715 741 684 646 667 735 667 734 658 617 671 679 719 722 701 693 671 683 680 682 658 662 683 691 589 608 627 637 635 628 600 636 606 595 588 617 617 620 607 557 603 564 562 510 554 543 585 525 553 546 523 511 527 542 578 514 574 553 534 550 554 527 539 548 540 587 565 542 547 499 559 571 543 568 574 566 613 604 544 611 555 578 555 518 593 569 565 567 571 566 585 546 595 552 573 591 579 583 583 570 566 542 548 567 515 537 566 545 538 532 521 544 528 534 547 523 530 545 563 555 559 515 517 540 520 520 535 553 534 501 524 502 554 514 538 511 539 534 512 481 534 549 539 585 563 622 524 547 617 577 644 571 638 658 596 661 636 649 628 638 625 646 594 691 597 591 628 673 633 589 639 602 597 637 599 613 649 590 641 626 622 604 581 554 596 555 590 574 568 595 609 582 588 567 542 559 587 519 513 507 545 516 539 491 495 511 479 517 515 456 542 471 520 501 433 523 501 540 450 442 515 485 497 492 455 474 439 490 478 479 437 465 489 448 478 516 498 480 436 495 524 484 472 516 484 476 494 470 459 497 508 483 504 480 477 452 462 473 477 530 480 481 467 435 480 501 504 541 466 463 520 504 538 487 473 431 498 503 486 501 508 512 484 509 464 525 496 521 481 495 483 461 460 451 439 481 463 499 501 462 475 479 487 480 462 439 462 451 519 445 433 489 481 457 449 420 483 443 458 462 463 447 462 447 481 472 450 454 468 427 442 464 423 455 478 480 448 453 429 433 457 425 437 450 457 500 471 501 484 444 469 447 430 498 430 460 457 464 452 452 441 479 462 470 448 474 414 412 466 455 417 442 439 449 458 446 449 483 510 465 495 436 452 461 407 482 469 424 457 461 446 408 461 453 448 459 471 458 492 423 458 445 464 459 464 498 501 420 453 478 446 437 513 427 431 434 427 473 463 463 442 480 462 466 441 459 452 475 449 460 494 465 447 453 428 471 526 452 455 449 464 450 467 451 435 466 481 468 519 465 484 451 430 410 497 471 449 499 479 448 483 479 466 461 462 477 442 467 481 427 481 447 491 486 504 486 485 464 487 463 478 491 461 431 487 510 472 506 451 472 459 465 460 480 443 492 485 450 504 523 448 489 487 495 472 471 440 450 432 441 472 448 440 461 467 527 438 474 504 499 524 483 500 456 480 452 466 468 492 466 474 474 473 437 478 511 452 495 447 491 463 507 480 457 447 495 501 466 498 432 480 479 474 450 460 479 484 494 520 545 426 569 481 483 522 497 502 509 517 517 463 501 464 489 489 511 492 555 479 516 521 530 525 531 532 490 495 494 528 515 529 513 544 559 573 558 576 604 604 633 622 690 691 705 739 793 767 859 877 947 936 1019 990 1096 1119 1127 1116 1119 1106 1224 1136 1170 1151 1184 1209 1233 1226 1218 1236 1186 1234 1177 1252 1199 1146 1090 1160 1136 1150 1159 1153 1158 1089 1010 1056 1048 1047 983 1015 1021 981 888 910 952 898 872 855 899 803 838 764 820 784 731 741 742 754 702 693 683 701 637 666 653 634 676 601 662 670 614 620 616 611 635 679 681 655 644 627 666 675 638 677 651 626 646 687 697 632 675 689 642 673 671 620 650 657 602 665 619 650 640 634 644 639 670 535 575 598 599 588 608 601 645 609 572 591 584 602 623 548 601 543 631 597 590 586 529 596 597 589 594 560 610 588 532 538 507 498 527 482 522 473 493 525 490 516 453 500 496 497 450 512 464 491 476 515 469 407 463 432 474 444 455 436 464 471 460 452 480 479 470 457 436 454 440 470 469 465 484 436 420 443 423 452 464 440 450 406 446 438 459 468 415 422 443 400 396 448 425 447 411 452 376 439 409 421 403 456 461 402 441 418 470 465 476 436 441 404 449 453 436 476 444 444 404 427 459 498 422 465 423 447 437 449 448 461 458 453 460 474 475 450 485 458 487 519 549 476 521 531 549 581 662 700 686 732 660 752 733 710 765 740 762 780 874 850 844 890 953 961 1045 1015 1033 965 1028 997 969 996 945 1031 1048 980 992 1021 946 979 1010 1048 1014 998 998 974 949 957 922 942 878 879 925 886 833 836 823 807 785 792 782 754 784 747 754 729 704 718 730 623 647 604 623 604 615 559 589 629 562 539 528 549 521 530 506 544 534 500 493 462 492 458 439 437 506 523 485 447 474 481 518 491 562 499 482 504 473 529 531 480 520 468 517 500 529 501 519 528 535 476 495 481 514 505 563 486 488 492 492 469 463 511 452 479 481 483 448 472 439 432 447 479 446 461 429 500 443 420 457 451 456 452 480 427 444 428 427 404 419 429 415 474 435 456 388 410 425 405 442 441 433 367 393 408 452 391 460 426 409 426 465 409 403 391 427 416 385 452 397 423 407 406 446 440 429 427 446 466 426 449 406 440 484 456 435 415 456 447 423 464 457 443 480 458 495 573 474 517 503 531 522 559 509 537 539 518 575 539 500 514 552 509 517 575 515 543 557 551 548 565 522 544 540 518 549 482 493 500 509 482 507 500 517 514 470 518 504 467 439 454 470 477 457 463 420 435 392 423 416 415 433 432 466 443 460 445 452 357 391 457 436 454 443 407 379 438 394 420 406 370 440 414 417 398 340 396 388 415 444 464 412 407 419 354 378 356 404 397 412 389 401 396 413 399 389 373 405 353 393 391 406 390 405 385 393 400 385 350 366 402 368 394 406 393 415 383 372 409 386 423 442 399 419 420 463 440 388 413 413 396 395 386 433 419 423 397 396 407 445 431 433 429 415 414 375 394 394 407 422 432 394 401 406 415 424 431 457 415 437 436 453 475 458 431 485 396 464 456 461 410 448 502 438 474 473 432 438 495 447 499 493 457 468 442 495 428 442 465 460 440 427 432 423 483 439 434 463 433 429 455 462 437 441 397 415 401 426 395 378 421 417 424 399 391 374 367 385 424 413 391 384 392 390 400 359 428 389 381 393 406 375 403 375 380 367 384 373 397 391 402 396 395 392 370 401 381 349 364 415 392 376 377 352 342 420 406 335 418 380 399 351 373 348 377 357 346 373 355 351 355 381 361 414 387 357 359 347 377 373 375 421 379 390 375 347 413 370 370 378 390 385 387 402 414 373 335 356 368 361 372 368 369 398 426 376 375 351 381 378 390 370 384 383 383 380 366 383 348 409 380 384 409 424 379 415 363 355 371 379 394 349 343 367 375 377 378 385 375 380 372 365 367 397 410 388 396 425 372 422 381 410 391 350 387 349 380 375 384 363 403 349 394 350 380 362 341 372 352 405 410 364 389 350 367 330 363 350 366 380 397 381 357 403 378 344 395 421 357 425 371 390 419 376 402 404 383 403 441 384 384 368 368 396 388 403 411 422 345 362 358 361 423 372 397 384 354 391 375 419 422 343 389 368 361 369 361 371 369 330 372 350 389 365 380 351 374 422 355 405 334 311 383 339 365 344 357 362 340 365 397 365 379 334 379 366 407 375 331 362 359 388 372 377 361 341 373 349 382 402 370 403 383 368 382 385 369 365 386 357 363 385 395 373 355 377 378 354 375 382 382 357 389 380 351 389 401 384 358 377 377 432 411 401 427 416 464 452 424 425 412 368 440 396 449 451 433 435 421 427 442 440 440 421 452 423 468 433 464 401 427 405 398 389 404 390 425 387 383 401 447 452 423 397 404 396 433 411 390 390 407 403 399 420 393 404 405 346 368 382 348 361 368 388 374 356 386 374 350 408 363 385 349 354 363 374 384 370 351 351 341 399 353 354 350 367 357 360 361 344 374 375 372 361 373 347 331 332 358 354 350 360 365 394 313 380 360 347 364 399 351 364 355 300 358 318 328 321 332 302 356 334 394 339 319 356 359 360 351 359 338 340 358 371 366 383 354 373 372 352 370 332 368 325 354 333 338 364 348 317 350 346 404 362 347 382 378 371 344 340 357 369 377 351 317 355 341 372 314 323 360 354 340 348 368 352 382 387 376 344 311 370 381 355 361 384 336 339 372 349 366 359 369 340 358 339 397 345 369 339 315 347 333 351 343 361 367 378 353 339 359 335 393 332 365 322 352 336 369 357 352 357 328 314 356 344 364 409 373 348 347 372 358 368 347 360 369 359 374 369 341 329 321 314 357 346 353 340 364 362 326 364 316 377 344 342 352 355 352 359 367 376 359 392 417 351 356 316 332 343 409 343 400 403 360 367 370 386 387 351 359 405 371 390 412 431 422 404 426 418 412 414 403 440 442 450 451 434 424 451 441 450 447 449 509 488 509 511 571 512 552 527 536 526 557 566 561 565 540 576 566 551 621 566 523 565 587 521 587 545 567 555 592 531 557 589 597 594 520 579 529 511 481 465 503 510 507 458 502 521 440 447 477 451 512 434 423 464 444 421 401 402 392 369 361 391 370 420 375 389 384 382 358 339 383 339 350 363 349 383 389 341 351 320 349 358 324 347 317 348 357 352 353 351 360 378 355 361 364 408 382 342 349 375 346 345 361 362 374 387 393 367 404 380 420 375 417 373 367 409 353 342 381 407 419 396 378 385 364 412 394 382 386 382 414 364 421 382 413 403 444 412 376 408 391 392 395 388 366 357 399 433 379 379 446 348 382 348 353 393 367 372 392 351 357 343 333 373 353 337 340 353 358 361 354 378 338 378 357 364 331 406 351 353 394 344 374 357 369 377 370 365 357 357 350 420 351 369 335 394 351 370 331 390 319 379 323 343 336 381 361 358 355 353 354 345 372 381 357 382 348 368 363 333 365 367 368 385 381 351 344 366 338 330 340 372 355 368 352 338 361 376 370 356 396 365 360 374 345 345 340 363 342 383 358 345 360 408 362 334 339 337 374 374 340 333 327 297 345 334 340 338 327 393 365 380 376 390 416 386 352 377 380 370 390 379 372 355 387 348 424 313 375 372 349 403 337 373 386 360 379 369 381 361 340 361 419 356 370 364 363 350 370 399 374 404 363 389 362 362 334 331 381 369 313 357 356 377 364 330 369 332 356 331 351 335 348 364 353 345 324 332 322 326 338 338 366 374 338 357 296 345 349 351 379 361 355 341 338 356 362 382 330 315 337 319 356 338 353 345 337 370 333 354 337 346 372 338 389 378 336 369 325 308 371 351 343 353 323 371 341 381 321 377 313 344 332 342 355 354 351 367 350 338 360 316 334 328 331 380 325 328 315 313 363 351 323 357 314 381 279 328 342 317 338 323 384 333 320 344 333 360 331 348 352 298 362 340 368 319 396 364 373 365 345 357 350 312 312 327 359 339 335 365 386 355 327 380 357 361 338 345 360 367 358 351 349 315 353 343 352 413 385 322 332 343 342 330 400 374 364 335 326 347 346 335 340 371 388 352 380 355 369 383 385 368 385 377 383 362 353 371 375 370 367 335 369 328 388 336 371 373 366 381 373 409 353 349 353 365 349 348 347 318 357 303 337 337 376 350 348 323 349 330 377 350 360 377 378 360 346 362 347 366 347 353 362 307 359 348 369 302 361 321 307 363 348 364 363 310 352 333 320 324 344 326 364 328 356 357 346 354 344 337 350 345 336 303 339 371 358 357 331 335 318 381 343 372 345 355 336 318 334 341 367 362 370 355 386 338 384 375 359 375 357 369 381 341 385 376 349 379 332 344 327 373 371 359 341 370 355 365 327 355 359 334 377 344 317 326 339 365 362 340 398 358 360 394 331 396 331 371 419 376 364 407 353 358 369 356 370 376 385 408 397 415 393 412 405 388 414 411 394 422 382 387 408 422 404 404 398 427 399 411 426 392 416 400 429 388 409 418 446 408 381 399 416 411 460 426 438 385 403 417 410 428 429 440 443 443 475 464 471 501 466 506 518 524 507 557 544 569 560 566 566 561 541 597 588 603 639 676 687 683 637 724 675 646 704 651 652 649 627 658 635 617 584 625 631 613 657 613 551 586 574 631 634 613 600 579 599 616 535 529 487 503 489 499 474 519 473 497 475 457 492 469 459 455 448 454 390 412 433 432 434 410 412 438 444 437 384 382 373 396 378 404 382 383 358 390 428 387 351 401 388 416 400 386 396 360 364 396 385 390 347 346 357 346 395 355 392 345 376 370 419 356 362 379 376 362 367 395 360 384 375 369 370 397 396 385 397 411 391 361 397 426 391 397 429 396 435 396 457 412 418 387 444 437 421 438 412 440 451 425 424 425 416 392 448 399 411 412 384 444 384 443 407 422 407 393 392 400 413 420 372 462 401 435 380 381 442 370 427 396 370 401 389 421 400 421 443 379 399 446 413 401 448 414 408 402 403 426 433 458 434 417 473 424 436 432 424 455 499 450 427 469 444 459 484 473 479 460 461 498 478 532 476 537 493 541 484 546 545 543 555 569 577 574 573 627 612 666 671 645 714 675 756 668 742 744 732 770 753 780 797 793 833 843 856 776 857 816 871 817 821 811 872 849 894 881 835 799 853 766 764 781 789 695 754 714 719 733 687 698 706 720 667 689 623 679 638 628 621 563 589 596 581 543 537 502 522 514 534 502 484 439 458 476 460 431 455 446 413 404 414 431 421 412 409 408 424 427 381 381 390 420 368 406 368 402 372 396 390 410 392 366 362 362 354 397 332 393 376 386 402 362 389 364 358 371 404 341 389 369 398 393 357 406 359 388 406 393 408 385 388 379 395 400 386 439 399 338 385 423 388 398 434 441 462 398 418 404 397 434 447 416 387 431 442 443 424 410 415 412 433 416 396 441 431 437 401 422 409 393 378 466 408 412 390 391 406 374 372 408 415 401 417 394 403 444 386 428 397 426 403 408 396 383 372 381 407 361 417 391 408 421 405 400 369 384 376 403 381 404 376 396 401 356 387 406 382 400 439 379 372 372 361 360 384 365 349 363 422 363 365 365 362 380 388 332 363 378 360 348 349 377 368 409 351 374 359 393 337 327 341 325 351 325 379 397 331 350 366 355 360 353 357 386 380 352 332 363 362 363 371 357 371 361 361 385 390 336 365 347 406 351 354 343 376 340 386 373 353 341 375 365 365 379 372 391 399 396 350 384 412 374 384 400 398 402 400 444 382 439 413 378 421 349 448 396 377 407 422 445 417 422 392 394 424 372 409 409 426 363 367 377 381 402 382 358 353 381 402 399 387 372 353 350 406 354 373 383 331 353 317 366 327 374 349 363 348 394 314 315 361 336 330 344 347 321 344 368 290 351 332 346 343 352 333 338 348 364 339 332 373 357 323 372 336 323 315 379 313 331 339 340 329 374 339 326 344 289 314 327 379 325 358 324 348 376 348 354 351 325 339 323 333 319 307 320 311 303 315 324 332 318 354 337 307 330 344 367 351 340 327 374 369 370 333 322 341 342 357 337 387 343 365 330 365 355 344 312 351 344 355 365 328 355 321 313 372 345 335 358 318 353 303 335 293 303 323 317 359 349 339 358 305 367 325 330 358 365 299 361 302 356 371 340 351 291 295 302 349 328 358 320 333 323 359 302 347 319 330 306 348 341 323 283 345 357 324 331 341 336 317 319 328 293 329 319 309 302 317 325 295 342 309 310 304 334 312 308 296 316 301 336 330 332 308 295 300 330 286 361 321 324 323 316 332 309 325 319 308 339 368 336 340 321 359 352 329 345 349 316 364 317 334 336 320 318 331 343 342 344 321 331 354 339 331 315 322 349 324 351 314 311 321 327 305 305 331 300 326 318 326 300 340 319 346 322 323 360 319 375 327 360 326 345 365 333 318 321 405 323 320 296 354 327 311 322 381 332 360 328 347 317 303 316 327 340 332 300 350 301 341 315 328 358 363 350 311 321 349 370 332 302 384 343 351 368 369 367 324 375 324 356 388 391 367 358 349 381 390 395 395 369 417 395 401 376 407 357 366 379 385 386 345 356 357 364 405 325 370 345 339 374 348 389 351 353 361 384 384 373 324 352 332 350 328 371 314 364 332 360 324 332 324 340 344 351 326 375 310 347 346 341 344 347 312 314 330 327 335 330 303 364 329 327 311 356 338 327 314 330 331 341 305 345 298 335 339 352 346 349 351 305 320 333 306 326 314 287 313 310 356 318 334 309 327 317 293 314 340 283 323 354 331 350 320 359 328 365 361 310 376 294 345 360 329 356 331 314 335 329 364 346 354 334 303 334 321 366 358 342 373 334 313 384 382 321 368 334 320 334 337 324 372 335 354 329 341 354 348 346 347 364 360 344 337 381 338 387 348 361 363 308 331 335 378 357 376 331 378 399 324 364 315 373 388 338 365 311 373 313 355 328 353 329 336 376 353 330 360 330 339 311 334 359 359 353 326 310 370 347 336 314 320 327 325 329 339 356 335 353 332 335 324 374 337 340 359 328 323 348 340 352 320 330 332 324 316 351 341 336 360 355 360 342 322 317 352 327 332 322 321 366 320 339 360 393 356 394 388 422 423 410 410 421 451 473 465 434 431 462 478 459 457 462 477 465 448 505 481 487 496 500 548 504 560 503 548 571 567 635 584 656 583 649 657 669 672 626 661 669 666 692 672 700 625 646 649 647 562 650 612 608 616 590 605 642 648 589 587 608 603 586 595 591 544 628 580 529 576 563 552 531 525 489 470 473 471 503 481 493 440 452 461 436 441 487 414 471 401 434 441 433 387 395 426 405 388 370 349 402 352 359 376 386 360 389 356 371 361 350 381 347 374 356 348 371 376 324 331 369 349 334 354 326 356 343 334 374 337 335 339 333 361 353 325 313 314 336 340 357 329 351 314 338 338 303 349 322 334 336 332 308 362 357 326 350 330 356 333 354 368 357 379 351 347 336 353 360 330 367 346 373 372 346 385 349 340 370 360 348 338 381 361 372 366 356 384 320 325 358 368 378 397 349 397 384 385 398 383 357 344 403 401 364 372 346 405 360 389 367 365 376 337 346 380 359 396 354 408 348 352 380 359 367 335 340 344 380 385 382 347 375 336 345 336 299 332 346 374 382 338 377 340 349 325 381 321 344 353 336 353 349 380 356 330 337 351 352 366 375 334 339 366 327 331 331 344 343 337 330 351 312 363 325 331 300 334 343 308 335 297 306 350 319 329 346 340 317 329 335 365 303 354 331 321 357 346 317 334 350 307 337 315 349 289 314 303 342 323 330 331 310 322 327 302 289 286 301 296 349 293 290 290 319 297 315 291 330 282 294 330 305 310 315 335 327 325 295 320 314 307 337 328 298 299 307 301 285 325 298 299 295 280 321 309 297 307 330 288 320 313 320 320 313 295 313 318 309 336 286 298 338 302 283 334 269 301 276 301 291 319 324 292 288 320 320 305 313 325 292 313 333 305 296 305 300 306 317 293 290 295 311 284 270 318 318 286 302 322 309 290 299 335 314 299 277 329 292 318 279 303 289 300 311 304 315 307 334 292 321 339 302 319 298 298 297 280 247 290 310 288 306 291 311 318 336 301 299 279 296 326 297 272 314 280 297 318 306 310 325 321 303 312 278 331 292 310 324 306 299 373 292 311 340 308 332 297 296 311 299 323 308 327 320 307 318 314 308 272 307 350 300 312 317 287 310 319 365 315 307 319 318 313 287 311 343 357 286 306 275 299 275 312 285 301 289 330 317 302 313 320 284 332 290 352 295 334 282 289 293 296 292 334 316 292 309 286 292 298 296 317 300 319 320 324 291 305 336 281 314 307 301 285 310 289 313 323 317 287 285 288 286 299 279 296 293 303 345 291 302 288 294 335 340 334 247 306 321 287 315 326 314 335 327 304 322 314 334 328 315 297 325 318 296 293 297 317 271 299 259 313 290 298 306 283 323 289 257 293 283 340 321 320 293 327 328 291 295 339 320 294 305 296 315 310 289 301 297 311 341 315 315 319 288 336 302 316 321 334 320 343 369 344 346 343 289 355 337 357 312 353 330 352 325 368 365 365 376 366 334 365 346 385 371 388 339 401 399 363 383 391 401 392 419 424 418 403 396 378 408 389 412 358 368 395 382 406 418 402 392 429 414 420 383 412 382 405 400 423 403 410 396 402 410</counts>
			</dataPoints>
		</scan>
	</xrdMeasurement>
</xrdMeasurements>
