<?xml version="1.0"?>
<xrdMeasurements xmlns="http://www.xrdml.com/XRDMeasurement/2.3" xmlns:xsi="http://www.w3.org/2001/XMLSchema-instance" xsi:schemaLocation="http://www.xrdml.com/XRDMeasurement/2.3 http://www.xrdml.com/XRDMeasurement/2.3/XRDMeasurement.xsd" status="Completed" recordIdentifier="{3DB8697B-A692-4A92-A4D0-82896C1ACA7B}">
	<comment>
		<entry/>
	</comment>
	<sample type="To be analyzed">
		<id>GPSS_Li1p5Mg0p5In0p5Cl4_122625_694efed0ae15af25ac374c4e</id>
		<name></name>
		<preparedBy></preparedBy>
	</sample>
	<xrdMeasurement measurementType="Scan" status="Completed" sampleMode="Reflection">
		<usedWavelength intended="K-Alpha 1">
			<kAlpha1 unit="Angstrom">1.5405980</kAlpha1>
			<kAlpha2 unit="Angstrom">1.5444260</kAlpha2>
			<kBeta unit="Angstrom">1.3922500</kBeta>
			<ratioKAlpha2KAlpha1>0.5000</ratioKAlpha2KAlpha1>
		</usedWavelength>
		<incidentBeamPath>
			<radius unit="mm">145.00</radius>
			<xRayTube id="1010048" name="Empyrean Cu LFF HR (9430 033 7310x)">
				<tension unit="kV">40.0</tension>
				<current unit="mA">15.0</current>
				<anodeMaterial>Cu</anodeMaterial>
				<focus type="Line">
					<length unit="mm">12.0</length>
					<width unit="mm">0.4</width>
					<takeOffAngle unit="deg">6.0</takeOffAngle>
				</focus>
			</xRayTube>
			<sollerSlit id="21010002" name="Soller slits 0.04 rad.">
				<opening unit="rad">0.0400</opening>
			</sollerSlit>
			<mask id="22031000" name="Fixed mask 13 mm">
				<width unit="mm">9.00</width>
			</mask>
			<divergenceSlit id="22120001" name="Divergence slit 1°" xsi:type="fixedDivergenceSlitType">
				<distanceToSample unit="mm">50.00</distanceToSample>
				<height unit="mm">1.52</height>
			</divergenceSlit>
		</incidentBeamPath>
		<sampleMovement xsi:type="spinningSampleMovementType">
			<spinnerRevolutionTime unit="seconds">1.0</spinnerRevolutionTime>
		</sampleMovement>
		<diffractedBeamPath>
			<radius unit="mm">145.00</radius>
			<antiScatterSlit id="22090040" name="AS slit 9 mm (PIXcel)" xsi:type="fixedAntiScatterSlitType">
				<height unit="mm">9.00</height>
			</antiScatterSlit>
			<sollerSlit id="21020003" name="Large Soller slits 0.04 rad.">
				<opening unit="rad">0.0400</opening>
			</sollerSlit>
			<filter id="20030001" name="Large beta-filter Nickel">
				<material>Ni</material>
				<thickness unit="mm">0.020</thickness>
			</filter>
			<detector id="7010019" name="PIXcel1D-Medipix3 detector" xsi:type="rtmsDetectorType">
				<phd unit="keV">
					<lowerLevel>4.02</lowerLevel>
					<upperLevel>11.27</upperLevel>
				</phd>
				<mode>Scanning</mode>
				<activeLength unit="deg">5.542</activeLength>
			</detector>
		</diffractedBeamPath>
		<scan appendNumber="0" mode="Continuous" scanAxis="Gonio" status="Completed">
			<header>
				<startTimeStamp>2025-12-28T10:36:45-08:00</startTimeStamp>
				<endTimeStamp>2025-12-28T10:44:53-08:00</endTimeStamp>
				<author>
					<name>AutomatedUser</name>
				</author>
				<source>
					<applicationSoftware version="1.7b (136)">PANalytical Aeris Instrument Suite</applicationSoftware>
					<instrumentControlSoftware version="3.2.00000000 20240306">AERIS</instrumentControlSoftware>
					<instrumentID>950485</instrumentID>
				</source>
			</header>
			<dataPoints>
				<positions axis="2Theta" unit="deg">
					<startPosition>10.00943322</startPosition>
					<endPosition>99.99442286</endPosition>
				</positions>
				<positions axis="Omega" unit="deg">
					<startPosition>5.00471661</startPosition>
					<endPosition>49.99721143</endPosition>
				</positions>
				<commonCountingTime unit="seconds">12.495</commonCountingTime>
				<counts unit="counts">3068 2934 3053 2966 2962 3121 3062 3073 3191 3057 2999 2997 3002 2958 3078 3045 3015 3075 3090 3053 3096 3030 3027 3071 3077 2958 2961 2982 3021 3108 3106 3022 3092 3160 3148 3081 3166 3127 3044 3103 3134 3028 3066 3124 3027 3056 3058 3060 3090 3150 3042 3095 3113 3142 3059 3163 3056 3059 3149 3141 3112 3072 3061 3153 3191 3170 3278 3165 3111 3287 3146 3214 3219 3237 3281 3247 3143 3291 3249 3330 3254 3254 3300 3177 3301 3268 3369 3428 3390 3278 3388 3531 3264 3418 3394 3360 3483 3413 3440 3538 3587 3576 3535 3493 3617 3607 3586 3596 3445 3741 3669 3595 3563 3602 3624 3451 3619 3357 3439 3474 3399 3332 3436 3383 3441 3346 3285 3447 3384 3449 3461 3283 3318 3284 3383 3275 3277 3305 3256 3311 3274 3392 3316 3286 3232 3316 3229 3336 3367 3263 3266 3358 3288 3313 3201 3286 3322 3215 3343 3274 3319 3285 3305 3319 3265 3113 3305 3206 3314 3219 3312 3333 3277 3268 3136 3280 3180 3349 3249 3248 3268 3204 3203 3247 3127 3180 3237 3184 3286 3234 3228 3281 3235 3166 3262 3124 3249 3243 3179 3252 3206 3201 3129 3130 3193 3251 3121 3191 3048 3295 3192 3123 3263 3134 3092 3100 3176 3186 3176 3070 3055 3095 3116 3139 3132 3136 3017 3141 3046 3192 3146 3161 3096 3141 3058 3190 3064 3058 3098 3005 3174 2999 3030 3008 2950 3092 3003 2980 2950 3023 3139 3058 3060 2976 2992 2990 3008 2971 3089 2952 2909 3065 3036 2969 3039 2961 3017 2846 2910 3056 2887 2976 3009 3004 2921 2990 2918 2909 2952 3142 2906 2993 2980 2860 2960 2968 2955 3007 2896 2962 2943 2912 2981 2900 2897 2936 2958 3021 2982 2875 2981 2861 3070 2977 2899 2900 2907 2996 2829 2871 2840 3075 2908 2984 2941 2865 2946 3068 2908 2864 2874 2895 2968 2841 2958 3046 2901 3013 2919 2915 3027 2925 2946 2899 2941 2980 2950 2907 2922 2929 2905 3030 3000 2933 2900 2990 2963 2946 2999 2883 2938 2940 2940 2906 3022 2968 3033 2919 2968 2877 3054 3042 2979 3009 3014 3087 3026 2872 3122 3044 2953 2981 3026 3083 3037 3071 3124 2921 3006 2994 3121 2952 3012 3010 3096 2982 3051 2993 2908 3032 2961 3079 3096 3026 3047 3159 3102 3210 3066 3077 2920 3213 2998 3066 3139 3094 3113 3127 3152 3265 3114 3207 3138 3050 3121 3182 3188 3335 3283 3183 3411 3338 3294 3338 3397 3371 3392 3349 3428 3430 3534 3440 3334 3416 3386 3333 3505 3308 3431 3359 3471 3362 3402 3419 3510 3404 3377 3446 3386 3369 3419 3399 3432 3556 3449 3533 3550 3521 3574 3650 3646 3581 3672 3612 3579 3515 3578 3489 3428 3437 3348 3276 3265 3298 3237 3267 3193 3283 3206 3210 3191 3171 3125 3315 3062 3314 3159 3224 3092 3135 3063 3037 3185 3042 3069 3034 3075 2977 3190 3001 3111 3034 3001 3149 2959 2995 2994 2974 2990 3002 3012 2938 2899 2910 2836 3014 2820 2949 2817 2851 2956 2955 2807 2892 3033 2896 2958 2910 2987 2800 2927 2922 2879 2827 2840 2842 2687 2839 2707 2766 2748 2887 2739 2793 2757 2836 2743 2751 2821 2821 2772 2828 2802 2687 2705 2764 2715 2795 2710 2672 2660 2814 2751 2759 2747 2699 2780 2774 2829 2797 2707 2629 2698 2782 2728 2655 2747 2633 2719 2624 2693 2638 2641 2609 2667 2670 2682 2608 2623 2668 2612 2673 2647 2688 2620 2630 2738 2648 2598 2567 2641 2564 2631 2577 2496 2560 2536 2644 2581 2628 2568 2570 2569 2489 2637 2617 2580 2453 2580 2606 2667 2592 2603 2601 2518 2525 2555 2519 2513 2517 2538 2516 2578 2467 2448 2540 2517 2474 2491 2537 2567 2544 2520 2590 2503 2421 2460 2539 2594 2534 2559 2507 2609 2540 2525 2565 2620 2559 2539 2515 2510 2504 2513 2494 2489 2598 2556 2404 2470 2553 2508 2504 2511 2398 2438 2358 2489 2522 2581 2419 2500 2451 2494 2452 2535 2473 2503 2461 2457 2461 2431 2436 2386 2399 2367 2389 2357 2422 2422 2407 2349 2360 2398 2410 2409 2371 2489 2405 2412 2416 2463 2376 2392 2376 2492 2476 2542 2460 2361 2319 2364 2411 2440 2443 2390 2343 2383 2425 2411 2455 2360 2320 2444 2314 2299 2473 2473 2376 2406 2417 2416 2395 2366 2427 2362 2440 2438 2410 2366 2424 2391 2415 2402 2364 2386 2317 2370 2337 2420 2333 2350 2278 2461 2383 2395 2347 2228 2353 2334 2304 2306 2332 2340 2247 2340 2244 2238 2265 2377 2342 2229 2283 2367 2418 2259 2407 2283 2348 2335 2282 2438 2301 2243 2231 2245 2384 2310 2246 2370 2297 2409 2332 2307 2286 2262 2296 2300 2268 2295 2338 2316 2261 2400 2235 2352 2279 2378 2321 2414 2288 2280 2322 2330 2338 2263 2272 2292 2247 2307 2188 2256 2228 2328 2305 2289 2235 2341 2203 2316 2240 2291 2169 2360 2313 2282 2256 2273 2322 2258 2282 2276 2200 2257 2277 2186 2276 2185 2300 2301 2145 2274 2168 2211 2232 2174 2297 2148 2211 2212 2274 2115 2291 2259 2159 2180 2215 2295 2210 2293 2292 2225 2124 2303 2239 2218 2268 2218 2168 2153 2233 2133 2196 2181 2187 2153 2253 2243 2181 2135 2273 2158 2256 2222 2226 2225 2152 2122 2106 2197 2153 2218 2077 2135 2318 2177 2186 2152 2040 2130 2189 2170 2171 2209 2162 2133 2236 2154 2210 2176 2140 2170 2258 2166 2117 2098 2090 2115 2144 2160 2203 2053 2170 2119 2087 2156 2112 2063 2153 2191 2208 2112 2202 2220 2080 2160 2083 2164 2154 2159 2110 2147 2167 2220 2119 2093 2092 2097 2084 2126 2112 2098 2091 2058 2112 2145 2077 2094 2134 2145 2140 2186 2188 2172 2046 2133 2136 2129 2054 2020 2085 2062 2147 2114 2126 2078 2043 2177 2142 2133 2111 2085 2046 2072 2136 2122 2106 2058 2188 2101 2139 2076 2114 2051 2067 2095 2052 2098 2114 2036 2117 2079 2084 2056 2143 2163 2091 2069 2045 2025 2052 2063 2123 2085 2060 2097 2043 2016 2160 2063 2157 2085 2137 2082 2096 2059 2146 2038 2031 2131 2013 2064 2091 2051 2119 2042 2046 2033 2127 2006 2017 2078 2035 2051 2123 2137 2178 2094 2084 2007 2039 2016 2114 2064 2044 2091 2128 2123 2192 2085 2111 2195 2159 2114 2025 2118 2071 2076 2070 2076 2111 2068 2110 2052 2128 2073 2089 2133 2021 2069 2055 2126 2052 2133 1995 2011 2065 2040 2006 1959 2027 2013 2085 2104 1921 2060 2015 2067 2128 2112 2030 2026 2060 2047 2029 1984 1960 2079 1993 2001 1984 1921 1986 1995 1975 2037 1975 1931 2004 2022 2052 1976 2009 1987 2030 1928 2003 2021 2056 1966 2026 1959 1935 2022 2000 2008 1982 2003 1992 2032 1970 1936 1935 2025 1941 2027 1946 1969 1942 1905 1911 2007 1942 1946 1948 1925 1869 1912 1939 1914 1823 1889 1886 1955 1887 1903 1844 1938 1907 1897 1919 1889 1864 1912 1939 1866 1926 1849 1922 1844 1845 1859 1829 1884 1790 1860 1847 1782 1887 1874 1783 1788 1790 1840 1785 1794 1788 1807 1723 1873 1828 1791 1813 1774 1815 1803 1717 1750 1734 1765 1748 1734 1753 1731 1797 1777 1817 1771 1760 1704 1744 1790 1726 1671 1691 1699 1717 1638 1805 1734 1685 1761 1663 1696 1751 1718 1711 1682 1654 1641 1618 1721 1679 1661 1591 1630 1623 1655 1635 1637 1606 1619 1592 1693 1618 1630 1583 1686 1591 1662 1573 1561 1714 1710 1626 1733 1558 1611 1614 1604 1632 1642 1642 1582 1578 1587 1569 1555 1592 1595 1549 1587 1611 1615 1640 1617 1580 1569 1551 1577 1582 1582 1621 1644 1629 1593 1595 1580 1612 1656 1618 1568 1557 1597 1604 1594 1573 1602 1603 1596 1617 1611 1588 1600 1532 1508 1549 1578 1526 1637 1501 1547 1555 1504 1529 1545 1622 1558 1512 1589 1568 1571 1570 1510 1514 1601 1486 1556 1519 1575 1557 1509 1605 1517 1572 1473 1541 1492 1524 1471 1455 1545 1454 1493 1451 1475 1395 1394 1402 1508 1487 1434 1475 1463 1492 1433 1476 1502 1495 1351 1426 1423 1402 1386 1363 1422 1371 1344 1394 1390 1462 1374 1441 1428 1449 1316 1459 1426 1412 1370 1349 1389 1409 1425 1347 1446 1365 1445 1387 1393 1438 1365 1467 1357 1424 1364 1359 1455 1264 1395 1345 1382 1398 1334 1424 1386 1400 1335 1350 1351 1304 1373 1374 1432 1348 1373 1387 1313 1317 1346 1346 1333 1387 1288 1386 1352 1306 1386 1338 1297 1423 1361 1365 1334 1323 1347 1385 1304 1328 1368 1325 1389 1307 1355 1331 1331 1334 1316 1287 1367 1344 1315 1305 1212 1269 1387 1370 1299 1342 1297 1322 1327 1292 1343 1363 1275 1235 1317 1321 1332 1324 1314 1339 1292 1332 1241 1390 1300 1321 1299 1279 1295 1312 1283 1309 1267 1302 1344 1227 1274 1239 1239 1284 1228 1295 1211 1291 1251 1252 1268 1245 1271 1281 1249 1280 1200 1233 1251 1258 1270 1194 1293 1270 1213 1218 1211 1307 1182 1266 1249 1281 1289 1303 1208 1221 1145 1233 1206 1237 1243 1178 1129 1224 1194 1261 1197 1181 1181 1152 1180 1147 1117 1224 1143 1151 1188 1164 1175 1145 1158 1140 1142 1169 1128 1154 1092 1205 1123 1106 1144 1131 1093 1104 1101 1046 1119 1102 1134 1082 1050 1140 1081 1094 1131 1056 1078 1187 1082 1079 1031 1154 1052 1059 1100 1039 1041 1082 1079 1072 1116 1112 1070 1117 1089 1109 1057 1018 1012 1061 1122 1044 1086 1101 1062 971 1053 1022 987 1069 1073 1009 962 980 1020 1019 1023 1011 930 985 961 991 1022 973 1003 978 939 983 1054 933 975 930 990 930 966 967 985 959 948 993 983 977 973 1018 997 942 1037 952 978 1002 1083 1079 1065 1096 1118 1066 1094 1139 1215 1184 1091 1189 1202 1197 1179 1197 1205 1169 1236 1243 1200 1221 1208 1212 1189 1197 1163 1177 1127 1122 1097 1123 1072 1070 1104 1115 1035 1066 1039 1028 999 996 1004 1005 1042 1057 993 1001 982 1016 1026 974 992 1010 964 862 957 914 956 930 898 906 909 913 901 892 945 948 866 922 875 917 880 899 957 883 899 881 924 856 926 916 833 925 911 892 895 971 890 912 860 902 898 941 917 940 931 978 984 938 945 942 1004 1014 973 1059 1080 1155 1113 1186 1223 1250 1362 1466 1453 1765 1726 1937 2040 2233 2432 2708 2813 3112 3342 3663 3790 4108 4244 4639 4734 5037 5002 5336 5413 5365 5437 5211 5382 5387 5297 5170 5008 4782 4555 4325 4084 4147 3927 3920 3654 3695 3493 3435 3432 3421 3401 3295 3340 3299 3361 3166 3305 3263 3129 3180 3173 3134 2923 2933 2902 2708 2694 2590 2512 2423 2365 2206 2101 2048 1906 1835 1715 1681 1607 1594 1448 1374 1345 1313 1269 1180 1197 1189 1100 1057 1030 1016 1028 1048 878 1032 926 922 856 882 857 835 852 766 803 794 748 759 791 794 801 772 754 771 777 724 771 755 759 723 678 748 739 746 738 736 714 723 763 723 738 755 736 710 703 685 733 710 734 729 695 692 714 710 762 693 732 687 730 687 737 737 734 775 710 688 713 676 729 663 683 726 730 684 674 740 688 710 674 718 674 728 713 757 661 708 660 713 685 662 633 693 683 696 671 719 674 682 675 661 676 642 650 647 697 698 661 666 647 606 648 645 617 693 611 641 648 653 654 656 630 684 662 646 637 650 621 573 621 631 615 639 615 656 593 646 638 634 627 603 617 630 604 647 626 611 595 541 628 641 676 641 666 608 626 615 619 666 636 640 594 671 572 646 564 659 634 647 711 606 625 607 613 644 594 652 628 675 625 634 668 612 681 667 656 643 640 663 622 679 660 641 651 663 662 678 604 626 636 622 606 640 628 625 633 609 637 642 617 648 586 644 633 641 645 665 618 631 632 673 662 662 687 673 599 669 669 658 665 677 729 734 677 696 669 679 708 750 711 740 629 637 675 675 667 678 607 698 645 671 642 639 662 644 663 677 632 620 599 592 642 589 644 635 649 592 646 646 662 617 641 671 672 679 635 669 685 665 682 687 673 694 689 740 641 684 714 715 679 722 704 694 747 757 756 827 783 757 797 832 809 812 822 782 766 741 824 799 762 759 760 766 757 753 747 746 717 748 715 674 696 689 716 724 670 747 725 747 721 770 675 672 690 735 762 751 764 679 768 709 782 759 753 748 756 804 806 883 954 940 1086 1134 1234 1224 1400 1559 1676 1844 2048 2190 2413 2614 2903 2945 3526 3590 3932 4132 4416 4785 5124 5218 5291 5427 5537 5459 5662 5631 5787 5580 5495 5189 5069 4899 4866 4453 4329 4156 4122 3989 3738 3674 3585 3431 3379 3295 3207 3050 3042 2993 2945 2891 2814 2693 2544 2606 2588 2572 2404 2448 2365 2358 2345 2323 2253 2192 2270 2181 2160 2027 1998 1926 1803 1772 1701 1611 1585 1483 1460 1414 1374 1337 1283 1237 1188 1111 1152 1093 1056 986 991 956 946 921 835 805 850 839 792 796 728 740 699 727 703 707 646 656 631 649 611 641 688 668 658 628 658 621 634 672 629 648 621 600 620 596 594 561 576 594 594 561 582 551 529 538 556 530 539 574 564 551 497 534 540 537 490 508 535 569 495 501 523 556 529 543 516 546 477 581 512 512 489 491 509 509 484 536 528 533 519 538 455 488 534 503 505 522 564 497 486 515 505 528 531 505 506 506 494 513 533 522 487 533 496 494 518 517 482 537 485 484 456 504 480 466 476 520 513 486 500 464 467 507 477 443 488 457 436 472 509 452 468 455 460 494 485 476 451 494 484 469 553 459 462 510 501 449 461 482 512 430 466 442 461 462 471 479 516 450 480 433 488 469 466 439 491 477 404 469 415 496 438 523 487 465 436 472 481 474 482 474 446 508 457 484 453 448 487 451 470 466 477 472 502 480 468 492 464 441 459 473 470 461 445 456 466 482 479 436 443 418 450 448 457 430 428 498 480 460 433 467 460 466 427 454 507 515 485 437 444 446 488 441 448 450 469 456 464 468 490 460 439 431 507 496 405 480 428 439 439 474 451 421 454 447 484 460 448 429 441 456 438 434 455 446 487 433 480 418 441 417 435 424 432 432 438 477 450 466 417 463 413 393 472 447 477 453 419 456 452 428 465 450 381 432 426 464 404 424 421 432 426 447 422 422 409 438 438 447 439 455 448 461 421 410 432 386 473 442 434 447 475 419 453 441 467 410 453 440 443 451 468 444 403 442 461 469 399 445 449 435 427 421 432 435 427 454 433 432 414 377 430 406 451 429 400 433 429 446 464 439 430 430 414 445 447 428 469 479 423 406 416 410 472 431 408 380 442 429 449 442 413 434 454 427 435 429 436 460 428 434 448 401 430 412 457 457 418 423 417 401 421 474 387 406 416 402 428 428 429 440 428 411 412 444 413 430 381 413 412 414 426 409 456 441 431 423 384 462 410 422 417 418 420 441 418 426 448 402 412 435 429 434 444 432 454 437 427 469 453 447 435 421 470 491 399 471 425 422 432 418 465 437 402 452 414 437 449 431 426 428 404 420 386 415 408 447 416 415 413 394 383 437 468 423 448 419 413 419 423 452 455 417 428 389 405 428 413 435 485 489 430 465 418 405 405 418 417 471 413 443 452 445 422 417 392 422 445 467 440 443 423 477 454 439 467 424 452 446 460 443 465 433 451 459 502 432 471 453 420 465 468 469 459 423 445 484 449 439 411 442 456 437 423 459 468 429 419 435 457 418 429 449 456 455 438 470 432 451 432 435 434 388 427 428 452 460 496 458 398 414 421 395 417 411 456 397 348 401 380 350 367 426 428 465 395 393 380 400 394 434 409 385 383 415 357 414 399 393 428 411 408 374 424 411 390 431 413 394 416 437 420 398 414 388 390 375 417 380 394 404 411 361 374 445 401 406 418 432 431 414 437 435 454 417 420 443 396 435 428 417 395 382 423 417 402 427 408 414 424 374 417 392 402 436 393 412 403 396 363 405 418 378 375 399 391 421 378 398 390 376 400 398 424 390 383 425 358 404 421 398 414 373 405 386 416 445 404 412 353 435 391 425 422 382 439 407 434 417 401 379 452 395 423 417 449 410 420 393 421 415 402 422 435 416 419 391 478 417 416 419 419 428 417 410 423 395 395 380 420 411 421 390 411 402 422 377 423 366 380 382 383 405 404 410 411 396 405 415 400 426 375 393 420 422 404 370 389 358 374 369 374 417 380 404 378 397 388 415 387 392 390 427 413 410 422 419 436 389 381 427 413 447 394 416 412 383 454 378 404 357 374 402 387 393 405 365 391 381 398 405 369 406 362 353 427 390 363 374 382 420 429 382 376 368 403 377 412 390 419 385 384 435 410 411 339 419 408 398 446 395 383 404 381 384 403 423 408 453 432 440 431 437 452 451 458 439 472 437 469 506 492 467 483 451 496 464 500 460 468 438 468 419 437 465 448 434 466 454 419 448 449 442 434 402 424 377 458 378 424 436 416 421 442 421 418 411 406 428 425 379 445 443 404 499 466 495 524 501 464 554 525 551 564 582 642 681 638 704 720 762 714 776 784 745 784 779 775 787 777 762 775 758 764 802 760 806 688 774 699 755 694 649 635 693 645 633 657 616 614 583 583 594 554 531 553 577 537 515 505 494 521 447 520 461 467 499 451 485 511 464 476 450 457 451 438 462 461 442 425 432 469 464 442 425 461 390 481 431 420 457 440 435 461 421 410 429 466 443 448 449 420 439 424 434 423 410 454 421 392 452 421 459 400 408 404 434 364 406 423 389 414 415 426 436 392 400 439 424 433 355 421 400 413 406 393 410 357 416 411 436 397 431 375 416 374 411 425 417 422 392 427 392 384 384 451 423 428 410 379 471 408 436 400 431 394 464 418 424 422 416 419 439 400 387 387 368 412 423 411 424 394 411 447 429 390 422 424 439 418 417 406 427 436 422 444 401 435 445 414 436 439 395 414 453 432 444 427 451 410 388 423 410 440 404 431 425 409 461 423 437 460 466 419 446 433 424 431 434 436 443 416 440 426 449 456 455 433 451 400 461 391 413 398 430 445 450 454 479 452 432 445 448 462 447 463 462 524 497 440 508 502 457 531 456 461 476 463 457 439 456 480 471 514 496 503 472 507 452 494 478 485 448 475 478 458 483 489 444 451 448 480 503 452 427 422 442 431 425 386 443 450 431 456 424 462 456 460 442 427 431 432 430 414 449 402 412 446 442 429 442 460 447 439 473 403 430 474 423 423 469 421 420 435 435 424 453 450 433 480 438 461 456 444 465 456 432 420 428 488 471 433 446 437 487 450 453 431 465 429 474 436 453 465 484 462 458 457 481 467 505 442 490 493 449 473 489 493 503 525 529 455 531 547 555 549 559 608 560 585 687 673 719 816 866 1044 1102 1217 1357 1571 1675 1858 1970 2029 2074 2066 2068 2134 2051 2120 2157 2115 2198 2238 2352 2306 2205 2255 2091 2191 2025 1951 1838 1789 1861 1822 1670 1663 1572 1516 1563 1502 1430 1337 1256 1252 1236 1208 1227 1130 1172 1118 1075 1072 1007 1007 977 960 941 946 926 882 880 907 914 900 927 905 915 991 926 988 998 983 1021 1029 976 982 1056 993 991 1042 1029 1008 923 943 921 882 891 901 811 804 778 764 746 751 686 614 630 584 645 606 583 594 579 510 499 518 495 490 493 461 460 454 457 434 479 448 450 428 429 449 428 443 449 437 406 398 374 411 409 405 419 408 382 420 393 415 395 376 397 387 424 354 370 408 435 397 386 396 424 432 394 394 404 369 398 436 408 408 403 376 390 381 407 390 375 378 364 377 392 351 355 351 375 361 389 410 368 395 387 375 356 388 354 371 371 364 343 365 357 354 327 373 358 353 381 391 374 368 397 381 351 378 389 380 370 373 387 376 355 366 357 419 356 374 366 357 363 368 380 387 393 375 387 416 408 401 429 456 421 461 479 491 485 524 452 505 471 465 476 465 453 488 426 432 501 455 465 418 426 412 448 400 463 434 418 420 419 391 413 401 358 410 388 384 375 427 362 360 366 407 405 446 416 397 377 388 367 369 398 371 377 365 384 363 361 395 392 392 370 360 371 360 360 373 371 348 374 407 382 414 389 385 374 391 372 370 338 348 400 371 381 339 366 404 379 368 385 402 344 315 379 354 377 344 349 336 352 372 368 353 382 327 355 331 350 375 363 342 380 366 362 376 389 394 332 429 371 407 364 355 356 369 350 383 345 415 349 386 356 396 357 391 349 384 335 357 386 382 374 365 372 353 364 393 380 330 366 364 375 391 364 351 326 366 367 386 358 342 323 362 323 363 350 325 339 358 330 329 309 372 322 329 282 383 297 332 342 369 388 361 362 395 374 359 346 342 325 349 341 353 364 346 352 322 325 364 347 326 332 292 328 328 350 349 333 355 326 335 345 352 308 329 338 354 355 361 313 365 320 331 370 349 303 358 353 335 332 318 315 364 307 345 356 338 330 360 349 314 336 345 342 360 372 337 334 351 352 343 354 339 309 340 340 342 354 339 336 339 312 319 317 332 329 330 323 322 347 315 324 287 314 337 327 352 348 342 370 317 305 310 356 316 316 360 328 312 336 363 332 389 340 358 297 320 340 301 345 308 319 360 319 340 311 338 332 353 335 339 320 365 359 364 334 334 326 364 318 354 338 360 310 371 349 324 314 381 340 315 341 336 363 333 326 349 343 348 331 314 349 310 319 316 342 386 309 385 321 348 344 328 366 350 320 339 324 331 350 354 310 341 363 368 321 366 341 362 317 345 355 338 329 339 330 338 329 365 351 316 340 334 358 351 361 335 358 363 340 359 340 377 358 317 339 356 347 374 342 351 347 362 339 369 332 344 320 350 330 342 316 367 353 366 381 381 366 349 327 322 371 362 349 343 391 360 372 334 347 382 368 345 323 361 349 339 355 349 360 356 333 379 348 363 338 352 346 344 366 349 339 321 366 343 353 341 325 366 363 352 338 340 358 385 350 348 358 380 348 423 402 371 420 387 397 378 379 352 369 398 346 412 382 346 388 409 366 388 375 359 349 377 346 356 353 337 347 320 356 335 376 341 359 345 348 355 344 322 342 338 345 372 340 345 330 345 373 338 343 315 307 332 331 323 361 340 343 360 334 353 315 343 337 329 332 327 278 306 335 305 345 324 309 331 336 326 294 297 320 289 322 295 340 309 340 322 281 323 304 335 281 342 305 316 313 323 336 283 349 333 331 376 381 346 339 378 370 356 389 316 333 324 332 329 333 374 328 344 358 325 362 331 328 330 333 333 319 342 341 357 310 315 301 357 336 332 361 341 320 329 352 339 366 317 342 356 398 357 335 392 364 362 351 371 361 416 396 423 403 428 449 496 488 560 577 589 649 625 670 713 630 624 661 625 579 642 596 607 623 691 611 617 586 654 554 532 555 539 503 512 490 480 442 446 416 451 425 432 381 377 382 408 407 370 374 373 354 357 338 337 366 366 313 388 352 339 350 346 312 333 353 367 375 352 354 348 324 362 349 316 360 371 370 350 342 362 398 425 362 414 427 387 401 412 437 432 423 418 408 378 387 371 377 432 371 420 382 396 391 385 350 373 359 377 349 342 328 332 324 334 297 312 296 271 294 294 275 310 242 296 305 296 288 323 289 266 287 244 284 276 247 269 300 273 270 257 294 303 228 273 294 261 285 239 263 284 285 274 275 267 248 231 267 273 240 234 239 259 245 242 263 286 241 277 263 271 265 262 277 233 245 261 270 262 275 266 274 288 261 236 242 262 244 240 265 262 257 233 234 231 247 262 256 258 225 286 286 222 289 290 260 237 283 237 260 259 285 271 273 256 259 249 259 238 278 288 275 306 292 330 279 280 265 275 283 279 299 280 300 270 295 276 248 295 286 265 281 272 276 264 247 269 271 263 292 311 250 286 280 245 281 265 293 287 315 295 275 317 281 287 262 295 293 336 334 370 383 402 421 526 481 551 546 615 541 533 513 513 468 482 425 488 431 432 459 464 469 467 518 459 437 456 423 444 450 440 392 363 378 399 347 351 358 350 356 354 347 310 337 310 352 307 364 326 330 311 333 313 258 295 287 296 299 346 271 311 291 304 302 301 300 282 313 306 312 317 282 336 282 295 311 314 309 298 296 327 299 335 303 307 296 305 348 344 310 332 327 304 371 335 314 356 278 363 328 285 327 289 298 279 297 304 313 296 288 274 314 278 265 267 263 283 293 297 293 275 256 247 224 289 282 237 241 248 266 262 276 226 269 262 259 283 276 235 276 241 287 244 246 265 263 223 269 257 224 286 234 270 297 239 273 257 275 228 241 256 270 231 239 271 266 245 256 261 242 211 259 241 249 259 250 245 250 299 269 246 234 249 241 242 266 286 242 259 259 263 279 263 279 293 270 289 294 287 282 297 309 294 283 306 313 293 290 299 273 267 258 280 297 244 267 306 310 273 284 245 282 245 286 234 249 243 228 260 270 273 257 243 263 240 244 227 290 266 242 243 267 249 261 263 287 251 248 237 269 226 248 236 226 282 290 283 244 223 264 207 288 240 223 270 244 235 240 234 240 260 247 238 250 246 264 197 245 239 243 236 242 257 242 250 260 229 250 234 268 240 257 228 243 231 236 235 249 222 291 242 278 261 248 259 234 247 259 258 237 262 244 238 222 230 256 264 222 264 241 275 259 249 283 265 238 228 226 264 242 237 275 237 221 246 224 228 250 250 244 246 251 232 232 225 222 218 258 256 226 220 227 223 228 261 240 233 273 287 275 248 273 228 269 236 267 231 257 260 227 273 265 225 233 238 208 235 221 256 235 234 249 219 244 241 219 225 230 248 259 225 220 230 214 208 234 212 238 224 219 234 236 206 205 226 224 236 236 205 244 240 239 226 204 266 237 216 234 224 265 235 235 267 238 238 259 224 216 201 222 228 227 235 227 198 227 235 228 240 236 232 236 224 207 197 225 200 259 250 227 263 238 241 233 262 231 218 227 231 222 227 236 224 229 226 200 235 185 227 198 227 204 232 220 247 222 228 214 240 183 233 206 239 239 230 231 232 265 235 219 227 211 214 225 229 208 188 221 221 246 219 204 208 208 235 217 215 239 257 211 257 243 226 226 223 250 224 197 256 206 235 224 224 201 221 194 231 222 209 240 236 228 236 214 233 211 212 185 212 202 221 224 218 224 228 216 229 213 233 240 259 230 232 237 209 234 257 217 236 236 245 225 229 239 222 219 223 216 205 211 225 231 208 219 229 191 208 230 201 226 225 195 183 218 201 207 224 232 217 219 216 177 190 205 218 220 208 207 210 234 198 226 237 210 226 212 211 207 221 218 208 220 222 215 235 209 204 213 202 205 177 243 212 217 220 227 204 229 226 226 226 218 236 203 221 209 244 212 241 227 230 221 213 219 229 221 215 227 206 207 201 224 191 241 197 193 220 210 221 235 246 233 237 215 232 229 232 246 228 222 240 211 219 262 233 214 231 248 242 228 239 249 245 239 236 260 235 286 240 243 237 216 218 213 224 221 258 251 238 231 246 237 234 256 286 240 239 274 243 269 241 233 240 244 246 211 208 232 230 231 212 242 236 214 247 227 219 211 217 217 256 189 223 238 205 241 224 199 258 241 215 229 222 213 237 236 219 225 226 186 202 225 245 259 214 210 224 189 214 232 212 213 210 214 193 178 213 217 214 213 236 229 196 220 227 214 201 231 215 216 225 189 209 240 202 221 227 230 199 202 232 226 236 206 268 231 243 230 194 221 222 201 256 201 215 210 250 192 222 225 212 228 236 217 235 217 258 195 246 212 210 226 213 222 213 209 226 233 234 250 241 227 239 244 231 249 249 229 223 232 184 229 207 197 210 231 228 257 236 260 214 243 245 237 245 200 204 223 203 221 232 200 217 228 205 207 229 214 217 233 220 210 194 196 186 209 213 214 224 212 178 195 210 214 186 191 221 202 189 198 198 218 170 206 232 198 220 219 212 221 207 195 200 213 221 187 204 214 223 196 208 205 205 205 206 207 207 190 203 231 198 184 185 205 203 221 198 223 198 222 190 209 232 207 217 213 238 208 203 208 244 189 196 207 219 226 225 235 203 192 220 197 204 213 220 223 227 195 235 188 206 229 182 200 198 238 256 236 221 205 240 193 208 221 233 200 249 239 236 209 217 225 214 193 204 218 224 256 272 217 201 226 219 268 221 225 244 234 238 207 213 241 257 209 260 248 285 296 297 295 281 273 282 303 311 302 280 272 281 261 265 279 257 278 272 282 261 265 276 281 248 264 246 239 260 260 246 258 268 219 233 275 247 278 237 259 220 247 247 236 189 225 224 205 215 243 218 207 225 215 187 272 206 226 238 231 264 228 234 223 223 227 213 211 209 212 238 216 221 226 234 226 243 218 236 223 205 226 240 241 246 246 258 210 240 206 216 259 211 266 234 228 246 246 237 238 242 242 261 228 222 257 240 246 232 256 226 249 245 238 239 268 246 220 233 204 265 248 231 241 221 234 226 267 235 258 265 236 245 227 218 221 222 231 231 237 231 204 231 230 230 238 233 218 215 236 233 235 233 228 220 233 227 215 231 226 198 208 230 205 220 220 217 217 223 220 249 221 233 200 224 193 241 223 211 212 231 224 218 221 218 224 227 227 250 236 239 228 232 230 215 205 234 232 248 231 235 212 214 247 209 234 234 213 200 205 211 229 212 222 222 226 209 234 212 232 227 238 208 229 195 219 218 220 231 237 208 250 219 218 206 220 234 206 229 225 196 250 209 224 237 250 241 227 212 207 224 217 270 223 225 227 220 249 222 237 232 236 208 216 223 239 218 239 265 221 225 224 234 268 206 251 211 246 202 226 226 240 239 263 228 235 237 268 249 228 215 228 257 234 261 258 208 229 220 212 217 231 231 221 242 218 236 230 213 216 223 239 226 221 270 227 237 237 229 226 257 216 220 211 235 230 241 218 269 256 234 219 236 259 227 217 223 222 232 233 246 237 231 249 240 249 217 261 214 244 211 234 234 243 228 263 266 231 239 261 261 213 266 243 225 245 245 290 232 245 261 243 237 225 272 262 266 245 243 260 267 224 243 219 242 233 246 242 238 233 233 231 246 244 278 238 260 242 283 270 266 216 243 258 244 262 257 251 270 272 260 249 242 240 269 236 248 260 249 239 276 246 243 238 249 263 249 226 261 243 262 267 267 239 263 223 224 284 261 310 227 289 210 267 257 243 249 242 268 290 240 280 271 288 278 259 272 268 239 278 229 235 242 241 280 261 272 270 259 284 240 280 261 264 258 262 243 258 257 288 273 286 218 269 272 289 279 249 290 240 271 259 270 293 256 248 257 238 257 257 250 248 290 257 285 275 291 242 278 240 289 263 280 247 263 247 265 259 302 280 265 279 264 283 261 283 293 282 308 264 243 286 269 259 275 298 275 249 301 276 291 288 281 300 285 264 281 243 263 292 274 250 277 308 275 266 296 270 291 275 262 297 263 300 281 243 280 303 294 272 289 273 271 279 284 309 309 289 260 287 245 298 261 259 260 289 268 312 276 301 299 309 264 302 256 309 256 281 290 298 304 268 299 325 313 296 320 292 304 260 258 272 283 249 285 292 270 307 266 270 271 307 273 319 258 266 303 315 274 266 305 285 302 291 285 311 299 269 308 301 284 287 303 271 273 283 262 292 297 303 298 302 258 293 306 245 281 272 320 299 278 322 298 269 290 307 265 307 283 283 272 316 318 311 297 271 284 295 306 288 296 311 283 312 302 303 283 309 324 284 310 291 289 313 316 302 303 330 337 297 298 304 231 285 291 321 304 329 308 329 316 287 299 327 326 334 299 323 312 323 316 306 325 332 341 326 331 332 291 308 315 305 306 273 335 332 328 336 326 296 330 319 297 297 323 284 324 314 302 306 275 305 296 325 354 327 306 306 287 291 321 299 313 295 266 268 313 297 298 343 310 306 327 325 294 322 307 298 341 299 283 302 327 310 281 289 300 295 316 314 336 320 321 300 311 308 310 296 319 309 293 291 329 303 304 287 293 276 297 327 307 307 334 321 295 285 296 331 310 315 313 304 295 274 310 291 289 302 351 269 321 297 281 288 305 329 289 273 283 298 341 294 343 308 291 325 306 322 331 320 300 306 291 280 317 292 338 275 290 304 258 292 335 328 323 307 312 301 292 314 315 283 283 303 288 329 313 305 282 304 290 329 285 291 301 303 305 313 320 308 310 283 330 294 309 280 345 315 312 288 306 305 310 297 329 266 299 289 340 289 299 291 311 290 331 280 273 300 310 295 281 286 278 320 298 283 301 300 294 290 289 268 278 307 301 326 320 321 298 343 329 317 362 296 319 326 355 328 362 347 372 390 343 403 356 372 361 345 357 373 359 351 317 342 352 338 324 352 366 305 347 312 388 317 322 338 353 383 361 349 344 351 313 340 305 330 323 292 294 314 301 311 310 306 325 305 347 328 303 286 324 303 302 266 306 294 308 320 292 306 360 302 316 321 304 327 300 329 316 317 331 329 311 306 293 324 355 299 291 308 304 303 343 303 316 317 316 321 308 312 329 310 323 284 304 305 277 304 302 286 305 315 299 297 335 299 339 283 289 301 306 316 270 306 315 302 333 317 315 317 340 310 300 317 327 332 327 329 322 317 286 319 295 361 314 273 354 310 310 310 325 310 290 284 295 313 311 311 315 287 279 280 301 290 327 268 296 286 264 303 310 332 323 287 262 290 271 267 299 302 300 286 307 310 319 309 321 317 256 310 270 285 267 292 294 313 300 324 292 302 287 246 262 307 294 288 245 275 281 304 248 303 263 269 272 268 301 260 292 269 267 304 283 270 325 278 341 302 299 319 290 299 279 265 273 290 273 250 322 290 257 266 294 228 265 271 301 303 287 276 257 248 280 278 300 248 292 284 277 282 284 282 279 277 270 281 282 270 257 298 262 290 287 292 300 300 288 273 267 297 264 290 274 260 283 303 261 291 257 277 244 302 290 298 306 291 291 288 274 273 302 279 277 297 293 308 266 289 256 296 324 260 297 258 256 269 270 276 286 260 259 291 287 267 243 281 278 259 295 274 259 283 272 266 281 286 284 273 294 276 290 271 290 279 299 242 281 277 280 273 289 280 275 259 300 296 280 271 294 283 286 287 270 280 305 276 303 264 275 262 295 244 286 266 276 282 247 307 270 297 293 287 247 263 263 258 269 307 290 262 271 302 259 290 303 290 265 273 282 285 279 257 284 234 279 315 285 273 260 256 277 236 280 264 280 263 234 244 265 274 226 262 277 281 258 270 264 259 241 259 277 304 242 239 256 246 262 249 231 278 282 258 266 302 262 237 270 292 295 279 273 284 285 276 272 264 262 276 266 273 272 277 270 223 300 265 280 266 272 263 278 229 268 303 288 286 287 269 266 275 262 295 267 262 296 265 266 314 282 271 275 271 289 242 267 284 273 280 298 304 266 306 245 259 234 270 262 284 284 282 282 245 286 260 272 282 234 275 291 278 312 277 297 293 233 290 290 284 267 279 295 262 286 303 275 266 259 236 292 238 294 270 258 258 318 259 265 263 266 261 258 231 277 248 263 247 271 277 268 284 242 269 239 259 247 263 271 279 265 289 289 234 261 241 285 277 268 245 262 283 257 274 242 220 270 245 283 240 268 297 240 271 263 242 256 257 269 260 264 269 282 299 246 273 285 264 278 266 262 269 229 243 228 304 263 262 239 238 276 261 276 267 240 289 262 230 250 264 268 277 263 270 278 257 293 274 278 280 276 259 260 290 273 288 261 297 260 282 257 275 269 246 282 292 237 284 274 297 284 256 242 263 250 236 236 276 268 272 261 265 268 267 282 277 240 263 259 307 266 270 268 307 249 268 281 265 233 279 263 274 250 272 273 273 228 256 278 270 263 237 233 256 262 262 256 273 293 233 247 292 268 256 260 264 268 243 248 260 233 284 271 273 279 273 304 274 248 271 295 302 271 258 274 239 231 266 285 216 239 219 257 257 240 269 242 268 247 249 239 270 256 272 217 262 292 250 264 242 248 232 262 281 262 263 279 242 257 274 272 269 281 262 256 275 269 277 259 229 320 275 238 248 236 256 224 234 267 229 258 266 276 267 256 236 232 248 269 256 308 277 269 303 259 288 299 273 286 234 269 271 267 245 271 218 261 243 264 228 272 256 288 243 280 275 262 274 271 261 266 241 236 275 260 258 271 279 270 275 267 239 275 258 241 270 263 233 287 263 229 215 266 239 262 247 281 232 259 259 256 238 220 241 248 302 233 249 262 227 270 260 238 242 248 241 301 278 227 305 283 243 273 258 273 276 234 279 250 242 257 256 305 276 267 277 260 258 284 260 283 230 259 247 271 278 302 265 235 281 280 245 260 287 302 301 286 272 287 289 266 250 281 274 246 275 296 238 288 241 280 314 286 290 328 341 343 321 333 361 321 347 335 328 347 315 337 348 317 333 289 313 319 326 295 318 320 318 320 303 305 282 321 311 276 315 298 304 312 273 250 331 280 276 279 290 285 321 247 289 315 265 291 304 287 263 288 268 270 271 251 248 280 279 244 275 277 232 278 287 266 284 261 276 279 287 287 289 256 264 281 284 277 265 284 263 306 286 231 310 290 268 225 274 236 300 256 222 265 250 243 294 250 278 239 248 249 264 270 234 260 264 246 261 275 234 251 258 278 241 258 241 282 248 286 267 295 262 236 260 246 246 273 245 272 230 257 246 264 248 243 266 265 240 233 275 331 299 280 298 284 272 280 244 256 282 272 270 246 242 262 239 277 243 283 282 283 293 288 287 313 274 261 275 257 274 290 274 274 287 264 274 257 281 248 263 225 272 259 268 277 243 267 264 245 249 275 265 282 244 243 276 249 232 257 263 265 275 238 266 246 263 272 245 247 223 229 264 223 250 266 287 291 249 246 250 258 280 263 269 257 310 236 267 238 261 295 268 279 266 263 297 245 250 261 266 276 269 265 276 266 288 245 282 256 292 272 279 247 258 228 247 239 242 238 244 241 228 277 276 250 281 229 235 271 276 266 246 268 285 271 225 242 222 270 275 300 249 256 259 270 266 233 237 287 272 232 217 263 227 260 258 261 278 264 270 285 258 277 259 300 223 257 243 245 240 270 260 281 302 245 244 268 297 258 244 271 257 304 272 236 289 296 258 306 291 271 282 199 271 271 262 242 228 247 246 267 244 256 244 249 260 288 257 298 271 284 261 246 277 256 249 268 249 203 276 262 245 262 243 251 264 244 249 261 271 278 287 240 248 264 250 267 283 260 286 289 284 275 257 257 249 247 235 279 270 241 260 307 272 246 259 247 275 239 256 262 298 285 287 249 276 247 249 280 283 237 274 265 264 262 277 272 280 241 259 264 284 217 293 264 274 287 286 261 275 257 284 275 265 287 273 282 265 270 269 258 205 248 267 248 247 244 257 237 246 242 245 231 267 279 259 257 224 277 241 242 259 285 281 236 259 261 217 265 250 266 268 263 278 267 267 270 265 247 227 285 227 268 244 257 242 256 262 249 284 228 267 266 280 264 267 274 259 280 262 241 260 282 246 233 235 245 258 257 214 261 264 221 256 245 260 260 248 274 234 294 262 263 249 268 265 250 262 266 256 232 281 223 289 242 270 268 274 274 260 267 248 233 278 235 278 274 276 257 240 265 230 250 279 264 237 232 262 259 269 271 248 266 230 233 229 260 241 270 234 229 265 243 231 226 230 258 259 248 248 227 297 238 290 260 239 257 225 260 221 260 259 243 241 238 275 225 246 248 273 278 248 283 237 265 257 264 235 261 232 236 272 273 266 257 219 244 266 248 238 267 235 277 268 269 269 225 274 263 268 250 258 261 283 257 296 282 273 275 271 244 260 237 248 272 266 268 275 235 269 258 275 217 260 238 245 272 272 261 225 241 248 278 257 265 261 282 278 270 273 261 237</counts>
			</dataPoints>
		</scan>
	</xrdMeasurement>
</xrdMeasurements>
