<?xml version="1.0"?>
<xrdMeasurements xmlns="http://www.xrdml.com/XRDMeasurement/2.3" xmlns:xsi="http://www.w3.org/2001/XMLSchema-instance" xsi:schemaLocation="http://www.xrdml.com/XRDMeasurement/2.3 http://www.xrdml.com/XRDMeasurement/2.3/XRDMeasurement.xsd" status="Completed" recordIdentifier="{1BE0E0C6-ED40-4286-9281-99ACE28CCA72}">
	<comment>
		<entry/>
	</comment>
	<sample type="To be analyzed">
		<id>GPSS_Li1p3Mg0p8Ta0p22Cl4_111725_691b7e20f3837ac4a0a99377</id>
		<name></name>
		<preparedBy></preparedBy>
	</sample>
	<xrdMeasurement measurementType="Scan" status="Completed" sampleMode="Reflection">
		<usedWavelength intended="K-Alpha 1">
			<kAlpha1 unit="Angstrom">1.5405980</kAlpha1>
			<kAlpha2 unit="Angstrom">1.5444260</kAlpha2>
			<kBeta unit="Angstrom">1.3922500</kBeta>
			<ratioKAlpha2KAlpha1>0.5000</ratioKAlpha2KAlpha1>
		</usedWavelength>
		<incidentBeamPath>
			<radius unit="mm">145.00</radius>
			<xRayTube id="1010048" name="Empyrean Cu LFF HR (9430 033 7310x)">
				<tension unit="kV">40.0</tension>
				<current unit="mA">15.0</current>
				<anodeMaterial>Cu</anodeMaterial>
				<focus type="Line">
					<length unit="mm">12.0</length>
					<width unit="mm">0.4</width>
					<takeOffAngle unit="deg">6.0</takeOffAngle>
				</focus>
			</xRayTube>
			<sollerSlit id="21010002" name="Soller slits 0.04 rad.">
				<opening unit="rad">0.0400</opening>
			</sollerSlit>
			<mask id="22031000" name="Fixed mask 13 mm">
				<width unit="mm">9.00</width>
			</mask>
			<divergenceSlit id="22120001" name="Divergence slit 1°" xsi:type="fixedDivergenceSlitType">
				<distanceToSample unit="mm">50.00</distanceToSample>
				<height unit="mm">1.52</height>
			</divergenceSlit>
		</incidentBeamPath>
		<sampleMovement xsi:type="spinningSampleMovementType">
			<spinnerRevolutionTime unit="seconds">1.0</spinnerRevolutionTime>
		</sampleMovement>
		<diffractedBeamPath>
			<radius unit="mm">145.00</radius>
			<antiScatterSlit id="22090040" name="AS slit 9 mm (PIXcel)" xsi:type="fixedAntiScatterSlitType">
				<height unit="mm">9.00</height>
			</antiScatterSlit>
			<sollerSlit id="21020003" name="Large Soller slits 0.04 rad.">
				<opening unit="rad">0.0400</opening>
			</sollerSlit>
			<filter id="20030001" name="Large beta-filter Nickel">
				<material>Ni</material>
				<thickness unit="mm">0.020</thickness>
			</filter>
			<detector id="7010019" name="PIXcel1D-Medipix3 detector" xsi:type="rtmsDetectorType">
				<phd unit="keV">
					<lowerLevel>4.02</lowerLevel>
					<upperLevel>11.27</upperLevel>
				</phd>
				<mode>Scanning</mode>
				<activeLength unit="deg">5.542</activeLength>
			</detector>
		</diffractedBeamPath>
		<scan appendNumber="0" mode="Continuous" scanAxis="Gonio" status="Completed">
			<header>
				<startTimeStamp>2025-11-20T19:30:20-08:00</startTimeStamp>
				<endTimeStamp>2025-11-20T19:38:28-08:00</endTimeStamp>
				<author>
					<name>AutomatedUser</name>
				</author>
				<source>
					<applicationSoftware version="1.7b (136)">PANalytical Aeris Instrument Suite</applicationSoftware>
					<instrumentControlSoftware version="3.2.00000000 20240306">AERIS</instrumentControlSoftware>
					<instrumentID>950485</instrumentID>
				</source>
			</header>
			<dataPoints>
				<positions axis="2Theta" unit="deg">
					<startPosition>10.00943322</startPosition>
					<endPosition>99.99442286</endPosition>
				</positions>
				<positions axis="Omega" unit="deg">
					<startPosition>5.00471661</startPosition>
					<endPosition>49.99721143</endPosition>
				</positions>
				<commonCountingTime unit="seconds">12.495</commonCountingTime>
				<counts unit="counts">2657 2618 2692 2602 2665 2659 2699 2644 2664 2697 2570 2648 2655 2654 2715 2688 2743 2635 2688 2615 2660 2741 2709 2634 2643 2681 2640 2556 2566 2643 2602 2567 2653 2675 2622 2713 2713 2573 2585 2563 2686 2616 2610 2614 2722 2580 2582 2693 2672 2595 2524 2635 2491 2580 2736 2591 2720 2631 2709 2616 2539 2560 2538 2565 2474 2704 2634 2669 2611 2537 2626 2624 2569 2486 2564 2604 2643 2660 2641 2601 2579 2614 2601 2608 2573 2634 2634 2612 2565 2605 2581 2669 2531 2621 2512 2598 2510 2578 2652 2543 2596 2619 2522 2712 2608 2568 2591 2611 2636 2583 2567 2607 2595 2528 2606 2609 2571 2606 2510 2562 2636 2614 2607 2657 2578 2532 2638 2636 2583 2527 2568 2537 2483 2604 2580 2617 2548 2503 2640 2560 2578 2611 2643 2615 2553 2571 2554 2528 2566 2561 2430 2596 2542 2623 2580 2552 2616 2524 2505 2578 2561 2586 2455 2546 2596 2586 2518 2561 2590 2585 2526 2321 2495 2511 2521 2724 2551 2582 2501 2472 2514 2484 2534 2481 2592 2499 2483 2506 2495 2477 2636 2521 2570 2492 2518 2603 2545 2616 2439 2553 2569 2512 2545 2487 2573 2521 2573 2402 2505 2457 2456 2594 2461 2443 2590 2553 2515 2474 2437 2586 2485 2506 2530 2571 2535 2490 2572 2481 2602 2483 2607 2568 2446 2460 2488 2401 2532 2443 2434 2593 2460 2497 2419 2472 2408 2374 2528 2436 2463 2355 2515 2465 2459 2454 2550 2534 2348 2514 2467 2408 2548 2593 2488 2478 2482 2406 2423 2483 2459 2423 2432 2411 2406 2408 2489 2490 2423 2452 2423 2418 2531 2400 2490 2525 2494 2501 2479 2558 2368 2471 2488 2450 2463 2372 2516 2430 2481 2404 2440 2382 2557 2411 2543 2474 2452 2420 2468 2486 2494 2453 2439 2470 2514 2540 2429 2398 2408 2546 2479 2467 2458 2463 2551 2498 2501 2497 2528 2493 2514 2453 2543 2613 2527 2672 2446 2553 2508 2540 2447 2634 2603 2500 2535 2564 2513 2560 2524 2546 2531 2555 2606 2599 2582 2528 2639 2519 2550 2503 2602 2612 2638 2589 2688 2715 2668 2541 2617 2521 2718 2584 2667 2624 2643 2692 2591 2619 2794 2588 2677 2590 2679 2673 2635 2703 2754 2668 2793 2713 2706 2738 2698 2704 2890 2668 2797 2742 2684 2767 2774 2804 2717 2865 2791 2847 2841 2809 2976 2849 2911 2938 3068 2955 3006 2912 2997 3021 3058 3089 3033 3132 3214 3219 3315 3278 3277 3358 3519 3613 3582 3714 3811 3910 3871 4006 4187 4138 4174 4332 4306 4409 4356 4418 4370 4327 4438 4498 4413 4179 4203 4219 4175 4072 4106 4184 4209 4096 4185 4065 4306 4180 4203 4152 4078 4161 4020 4011 4104 4115 4009 3915 3879 3990 3805 3756 3791 3704 3708 3751 3716 3626 3637 3586 3397 3572 3516 3410 3406 3331 3320 3326 3277 3330 3250 3211 3213 3239 3309 3169 3126 3161 3136 3119 3093 3024 3225 3116 2960 2943 2955 3063 2971 2921 3021 2926 2939 2941 3019 2984 2982 2917 2868 2835 2895 2839 2835 2845 2866 2894 2959 2854 2857 2926 2848 2787 2825 2782 2842 2745 2727 2745 2732 2743 2648 2782 2804 2744 2800 2795 2705 2763 2742 2812 2708 2746 2741 2647 2688 2698 2601 2720 2614 2746 2553 2678 2686 2661 2650 2563 2683 2651 2618 2708 2642 2723 2583 2652 2618 2617 2748 2577 2643 2574 2596 2642 2609 2580 2568 2600 2589 2651 2630 2587 2494 2633 2650 2592 2617 2541 2624 2516 2642 2531 2528 2541 2569 2558 2532 2681 2540 2500 2524 2595 2529 2541 2505 2488 2532 2588 2508 2444 2483 2544 2500 2479 2466 2455 2634 2515 2474 2532 2475 2490 2458 2489 2464 2446 2427 2511 2504 2490 2530 2449 2491 2466 2450 2403 2398 2466 2424 2480 2457 2475 2432 2408 2438 2490 2408 2389 2375 2390 2363 2483 2346 2447 2377 2484 2482 2477 2366 2337 2366 2426 2389 2447 2361 2475 2441 2362 2446 2349 2418 2447 2346 2461 2296 2386 2323 2364 2355 2347 2380 2403 2353 2348 2414 2380 2362 2416 2284 2315 2402 2333 2356 2367 2332 2332 2347 2393 2294 2361 2391 2407 2369 2325 2315 2394 2262 2241 2428 2321 2385 2311 2318 2284 2356 2353 2351 2398 2331 2347 2359 2307 2358 2328 2360 2307 2340 2373 2382 2345 2324 2326 2377 2307 2336 2293 2383 2231 2322 2313 2227 2243 2312 2334 2242 2298 2249 2301 2277 2377 2231 2301 2325 2294 2331 2252 2350 2258 2277 2266 2358 2261 2300 2221 2321 2324 2248 2266 2202 2321 2257 2256 2277 2268 2243 2244 2289 2249 2235 2201 2266 2266 2322 2247 2274 2332 2270 2262 2318 2194 2257 2336 2299 2238 2123 2222 2263 2300 2270 2193 2228 2276 2268 2214 2267 2269 2192 2278 2117 2227 2253 2253 2269 2309 2245 2239 2254 2188 2237 2225 2242 2257 2269 2164 2238 2196 2165 2210 2147 2195 2121 2251 2212 2248 2206 2197 2206 2251 2221 2142 2137 2139 2177 2199 2215 2209 2222 2208 2193 2149 2092 2155 2162 2096 2203 2150 2217 2207 2156 2182 2174 2236 2164 2250 2120 2178 2158 2211 2120 2170 2243 2297 2100 2128 2169 2173 2098 2158 2117 2118 2134 2083 2113 2098 2124 2098 2093 2169 2183 2122 2164 2088 2201 2225 2099 2148 2131 2100 2219 2174 2079 2132 2142 2061 2093 2169 2145 2150 2044 2009 2132 2142 2073 2099 2092 2166 2109 2004 2031 2063 2101 2170 2084 2122 2013 2123 2063 2124 2032 2117 2090 2103 2090 2102 2131 2084 2153 2058 2074 2122 2076 2133 2052 2063 2104 2079 2011 2090 2015 1995 2103 2072 2067 2106 2045 1967 2127 2100 2094 2114 1994 2142 2051 2116 2021 2033 2035 1969 2024 2072 2032 2064 2069 2047 2071 2015 2044 1993 2046 2004 2081 2029 2017 2021 2081 1996 2040 2003 1979 2064 2014 2038 2086 2092 2026 2018 2084 2067 1972 1883 1981 2057 2146 1996 1919 2027 1983 2038 1999 1983 1977 2002 2000 2058 2028 2018 2037 2054 1996 2064 1972 2013 1897 1997 2051 2036 2036 2065 1969 2055 2010 2027 2043 2041 2013 1970 2073 2012 1990 1943 1999 2032 2036 1994 2107 2024 1986 1981 1959 1978 2095 1903 1985 2010 1953 1940 1920 2108 2081 2025 2097 1972 2056 1987 2066 2035 2020 2052 1993 1954 1991 1997 2010 2020 2069 1953 1987 2055 2013 2057 2064 2044 1983 2031 2025 1968 2019 2065 1988 2007 2032 2079 1973 2043 1985 2069 2104 2078 2096 2095 2050 1999 2069 2049 2013 2121 1995 2003 2057 2122 2109 2148 2035 2069 1932 2032 2004 2036 1950 2066 2082 1997 2075 2037 2097 2038 1990 2083 2037 2061 2121 2041 2117 2063 2014 2092 2019 2001 2091 2067 2011 2062 2067 2070 2017 2175 2141 2051 2098 2112 2111 2082 2172 2145 2129 2115 2132 2206 2144 2197 2109 2241 2091 2188 2267 2257 2250 2159 2199 2217 2302 2200 2338 2345 2272 2357 2350 2208 2326 2361 2339 2373 2325 2377 2287 2250 2369 2355 2374 2328 2291 2363 2408 2359 2362 2251 2246 2254 2202 2219 2207 2252 2211 2176 2186 2142 2263 2244 2142 2134 2133 2065 2103 2125 2127 2007 2009 2004 2045 1978 1955 1938 1991 1942 1967 1971 2042 1947 1926 1946 1975 1810 1856 1770 1873 1818 1843 1930 1860 1829 1923 1759 1830 1835 1823 1839 1802 1771 1740 1745 1829 1753 1819 1760 1809 1758 1807 1742 1852 1790 1763 1714 1722 1720 1750 1696 1684 1647 1714 1699 1696 1732 1697 1661 1715 1672 1684 1659 1646 1677 1639 1694 1657 1657 1677 1681 1668 1620 1667 1640 1646 1580 1633 1579 1690 1656 1637 1682 1608 1704 1650 1585 1565 1615 1574 1538 1543 1594 1598 1588 1568 1574 1564 1584 1552 1604 1612 1577 1509 1639 1597 1588 1514 1513 1583 1524 1553 1620 1543 1631 1475 1462 1455 1523 1539 1554 1554 1476 1529 1460 1465 1460 1546 1481 1485 1522 1507 1540 1502 1534 1529 1607 1553 1523 1522 1548 1502 1489 1432 1498 1503 1480 1521 1494 1446 1511 1507 1434 1448 1539 1487 1492 1463 1524 1493 1442 1513 1464 1537 1461 1451 1404 1493 1483 1485 1435 1502 1512 1447 1438 1435 1459 1491 1466 1474 1494 1523 1439 1376 1460 1477 1481 1486 1501 1454 1512 1444 1470 1407 1462 1440 1485 1457 1434 1385 1479 1470 1429 1476 1470 1417 1547 1452 1505 1395 1490 1464 1458 1449 1423 1493 1453 1418 1506 1492 1497 1454 1422 1369 1416 1473 1454 1414 1458 1454 1446 1540 1435 1451 1439 1516 1491 1494 1427 1493 1459 1460 1416 1494 1468 1440 1470 1506 1502 1447 1498 1462 1432 1465 1502 1435 1513 1476 1453 1421 1457 1466 1465 1434 1442 1505 1483 1444 1416 1513 1454 1467 1480 1498 1466 1479 1457 1473 1384 1424 1437 1438 1470 1467 1456 1421 1431 1443 1436 1417 1435 1405 1443 1388 1438 1408 1538 1549 1491 1462 1479 1438 1473 1404 1478 1472 1511 1489 1483 1438 1433 1455 1444 1497 1437 1483 1406 1437 1505 1436 1372 1511 1455 1447 1430 1514 1470 1351 1440 1460 1446 1431 1480 1376 1412 1407 1449 1371 1414 1405 1433 1439 1405 1428 1354 1336 1418 1351 1425 1412 1365 1364 1367 1443 1374 1315 1509 1353 1422 1392 1273 1342 1404 1339 1378 1358 1339 1388 1309 1321 1383 1325 1348 1367 1366 1338 1274 1325 1263 1353 1367 1377 1355 1350 1358 1300 1347 1374 1371 1324 1301 1326 1288 1310 1309 1288 1333 1357 1322 1300 1336 1369 1355 1324 1359 1342 1375 1272 1271 1361 1319 1296 1303 1302 1294 1348 1247 1310 1325 1306 1278 1374 1292 1272 1284 1290 1338 1293 1320 1269 1275 1279 1270 1280 1327 1342 1374 1283 1375 1266 1345 1353 1348 1290 1324 1329 1359 1339 1334 1386 1459 1407 1498 1473 1552 1555 1610 1620 1665 1730 1774 1875 1867 1918 1958 2048 2155 2105 2183 2283 2338 2462 2536 2544 2616 2632 2554 2678 2563 2676 2576 2672 2639 2657 2666 2651 2718 2617 2608 2708 2560 2525 2609 2542 2438 2415 2390 2405 2319 2269 2332 2185 2161 2209 2049 2027 2007 2035 1920 1955 1952 1931 1794 1863 1812 1767 1764 1737 1672 1620 1598 1575 1637 1556 1643 1550 1583 1536 1556 1530 1491 1458 1485 1481 1538 1514 1455 1426 1508 1485 1438 1500 1474 1462 1475 1449 1405 1401 1375 1395 1424 1440 1538 1422 1507 1508 1510 1435 1508 1522 1511 1601 1713 1643 1717 1726 1824 1828 1982 2186 2308 2374 2623 2717 3017 3347 3588 3989 4438 4737 5160 5864 6395 6969 7424 8153 8670 9201 9720 9925 10350 10426 10233 10414 10289 10056 9895 9551 9216 8883 8178 8078 7571 7275 6916 6718 6278 5765 5383 5249 4858 4732 4505 4148 4027 3877 3680 3527 3350 3373 3311 3179 3167 3126 3076 3074 3021 2997 3020 2937 2848 2842 2716 2691 2720 2694 2574 2641 2581 2439 2421 2359 2419 2279 2325 2285 2312 2151 2135 2047 2149 2039 1976 1996 2033 1929 1866 1802 1836 1771 1768 1765 1646 1590 1592 1585 1462 1362 1346 1339 1356 1295 1260 1309 1236 1180 1156 1210 1166 1165 1143 1125 1150 1123 1147 1086 1068 1072 1022 1127 1073 1056 1055 1136 995 1059 1072 1034 1058 1057 1047 996 1085 1097 966 1026 1033 1034 1082 1014 974 968 970 1014 961 991 1024 984 1025 1011 1016 994 968 934 980 989 970 968 947 915 976 958 921 968 949 888 997 961 927 901 943 968 965 887 1000 930 948 913 947 974 898 928 985 914 920 929 925 921 921 913 917 944 880 939 936 904 931 880 881 954 927 906 906 903 892 892 924 868 930 876 882 888 882 897 843 917 900 869 878 912 874 891 888 869 896 868 901 933 869 936 921 842 889 889 891 879 926 872 879 869 924 901 902 925 842 901 905 870 885 947 877 922 918 917 929 901 842 862 857 851 884 864 877 876 901 856 873 856 883 851 834 858 889 869 915 850 850 858 876 894 862 852 847 898 879 842 877 846 879 895 798 790 831 867 884 866 793 848 799 835 865 875 873 873 796 844 878 797 903 857 875 820 858 873 892 859 808 846 833 849 844 836 863 832 811 881 799 837 823 844 845 799 809 789 792 835 836 843 857 912 860 826 835 850 845 821 857 817 871 845 876 883 857 836 844 851 768 878 849 874 885 864 893 829 873 864 896 851 889 867 864 839 858 899 927 869 889 919 796 887 868 859 897 888 902 865 880 867 901 819 885 882 875 884 863 917 944 852 939 894 873 975 938 957 897 927 970 916 925 1001 1004 1007 1041 999 1008 1025 1040 1028 1101 1038 1080 1082 1142 1142 1193 1182 1197 1301 1291 1443 1378 1530 1551 1668 1889 2014 2153 2337 2587 2804 2995 3398 3773 4054 4508 4942 5215 5866 6321 6930 7314 7973 8078 8588 8657 9196 9097 9226 9132 9236 9033 8962 8608 8279 8071 7626 7184 6912 6550 6200 5638 5560 5268 4851 4542 4217 4048 3681 3511 3455 3190 3128 3074 2929 2762 2688 2523 2674 2633 2661 2635 2771 2781 2792 2775 2769 2686 2832 2754 2702 2775 2792 2657 2756 2668 2654 2509 2456 2337 2387 2293 2232 2124 2109 1929 1995 1808 1790 1750 1669 1711 1529 1545 1475 1399 1386 1352 1314 1303 1241 1265 1204 1157 1151 1107 1095 1108 1016 1007 1007 1024 917 934 931 890 946 919 913 952 901 864 867 901 867 862 918 888 823 879 838 906 853 794 819 813 856 834 870 812 833 821 847 845 829 833 855 890 806 794 804 821 768 869 834 795 782 813 820 850 812 802 817 858 842 801 800 779 774 784 783 771 805 793 780 799 769 799 845 799 852 839 773 833 760 780 808 818 850 804 820 834 775 820 816 827 837 804 832 829 835 807 819 813 770 873 853 862 851 846 849 835 835 854 871 843 854 882 917 822 894 856 864 876 921 928 889 913 920 940 950 967 905 895 1010 908 1013 969 934 957 1008 974 996 965 1043 1015 993 978 1014 957 986 1002 1007 1021 999 984 1013 983 967 986 1068 971 1049 931 1024 985 983 1046 931 1022 1031 1013 1033 970 930 928 1001 959 1010 907 943 899 929 995 947 935 903 921 906 966 969 930 995 882 928 946 878 917 948 917 865 907 936 914 881 816 833 922 887 810 890 848 838 863 872 917 912 855 840 842 883 849 852 894 800 868 821 860 847 828 834 772 788 819 875 806 835 837 840 782 787 803 817 800 812 827 804 831 785 828 767 742 810 795 810 713 788 781 762 777 753 690 763 719 734 769 751 749 751 738 801 765 708 764 726 738 739 765 760 724 785 730 764 727 749 680 734 657 744 734 721 713 682 702 748 753 668 737 713 735 758 656 700 676 695 750 686 694 710 685 682 677 646 711 620 665 657 677 699 665 726 690 663 660 638 654 675 634 690 642 617 640 625 671 653 634 681 661 627 686 656 689 655 619 598 665 656 585 632 649 617 591 622 589 623 704 623 649 625 650 616 624 616 667 634 669 644 620 646 662 625 640 607 652 627 611 649 559 659 565 587 578 571 583 621 605 592 628 605 612 608 588 604 543 643 573 613 629 582 600 556 612 588 584 582 574 620 586 577 586 600 594 609 603 551 626 559 595 561 543 583 604 591 612 560 602 604 544 535 567 591 580 590 565 566 592 595 556 527 575 509 572 576 585 558 576 610 564 645 587 579 568 568 559 568 541 601 537 580 578 538 599 568 601 583 579 620 604 591 564 567 586 570 576 637 585 598 580 576 643 583 590 601 585 608 560 570 597 604 589 587 557 551 573 619 562 521 618 549 567 603 606 605 575 539 550 561 591 566 552 583 595 537 598 553 560 567 574 544 564 586 546 610 571 535 588 578 605 558 584 569 521 521 540 539 590 585 549 596 558 588 600 607 607 551 532 565 583 531 521 559 558 590 610 613 514 582 551 549 581 565 572 548 575 572 575 614 597 558 551 546 531 516 528 516 579 590 598 574 535 543 526 577 541 505 560 524 570 566 548 588 549 537 556 532 544 559 518 560 569 566 542 573 547 545 516 555 551 536 526 556 530 527 563 542 580 533 525 510 523 537 562 550 561 535 550 578 538 556 579 525 523 501 536 550 514 532 560 524 558 551 600 538 524 534 535 542 541 572 549 607 546 582 551 532 523 531 533 493 587 546 550 534 569 611 549 557 587 531 586 531 546 540 549 565 547 545 538 567 566 566 532 502 586 543 595 566 548 528 522 563 546 540 513 578 579 548 544 575 547 544 550 584 519 586 535 607 521 545 557 524 546 535 596 513 487 545 503 526 537 526 582 550 543 558 573 573 546 486 512 474 534 528 561 551 558 566 546 511 542 508 481 520 526 514 531 525 528 527 497 560 529 522 535 481 528 511 525 555 532 505 524 540 498 571 513 533 519 513 499 462 481 509 540 506 487 551 520 521 504 590 515 518 535 581 553 568 537 526 470 505 521 528 522 512 497 564 562 566 534 515 542 513 528 529 539 554 566 557 498 476 578 538 489 569 493 526 560 511 493 517 481 503 516 549 549 532 523 536 561 552 506 545 516 504 541 544 514 510 504 555 573 544 504 518 544 544 548 508 550 566 582 568 511 495 555 560 548 553 591 559 515 518 567 545 544 590 526 539 513 538 536 524 547 509 576 580 501 587 576 538 572 588 580 560 553 571 561 537 578 551 548 618 575 619 597 623 650 631 679 656 653 703 702 739 770 840 854 957 932 1002 1069 1133 1144 1132 1209 1253 1263 1320 1339 1381 1394 1376 1376 1366 1303 1286 1210 1235 1207 1223 1175 1145 1058 959 998 968 896 914 875 862 778 796 730 764 753 708 693 639 676 632 645 667 599 637 629 585 608 571 587 614 600 637 599 590 671 639 600 623 564 588 564 556 577 698 609 603 563 630 592 579 632 651 662 644 614 622 640 624 657 653 581 657 666 681 602 644 615 605 611 599 600 582 593 607 615 577 579 614 543 533 563 606 593 539 575 576 564 561 589 586 529 566 562 542 548 570 558 561 554 524 560 561 547 590 549 561 571 543 582 536 564 541 583 535 572 608 543 609 606 599 577 604 613 576 564 569 635 593 595 557 583 637 613 599 576 588 593 565 628 623 621 581 595 616 624 602 611 567 632 580 526 540 523 559 613 575 543 603 572 521 561 548 553 548 565 522 517 516 543 521 530 503 528 556 515 547 547 571 488 521 512 507 509 543 541 536 501 492 529 507 519 544 523 516 568 504 541 559 525 505 548 507 530 492 511 499 531 526 506 501 536 542 511 543 502 527 532 552 508 538 513 530 520 520 550 539 521 553 550 537 540 543 528 532 531 529 538 550 538 561 512 563 526 530 520 512 520 473 505 504 517 523 523 564 544 542 479 510 527 498 514 515 500 579 517 561 546 478 545 529 502 522 486 507 480 512 580 530 573 520 571 531 517 509 593 488 560 582 510 522 490 515 522 515 573 542 561 479 538 520 549 581 517 565 500 546 602 528 549 533 555 553 568 511 557 580 579 577 609 562 610 601 554 576 589 600 617 643 630 602 611 625 639 649 616 651 652 683 600 684 642 697 680 675 718 774 715 717 752 797 723 824 840 862 920 919 962 1014 1051 1108 1264 1273 1399 1564 1687 1879 2110 2333 2546 2826 3168 3429 3758 3938 4235 4444 4609 4953 5058 5235 5330 5448 5563 5555 5530 5428 5534 5203 5219 5063 4900 4672 4604 4457 4080 3955 3753 3512 3286 3132 2904 2664 2448 2371 2157 2005 1911 1738 1651 1623 1547 1428 1439 1355 1217 1220 1277 1188 1168 1199 1167 1159 1235 1226 1223 1235 1295 1264 1294 1281 1336 1329 1371 1402 1349 1376 1393 1426 1375 1401 1446 1399 1452 1434 1332 1370 1369 1343 1351 1339 1285 1304 1323 1215 1301 1310 1230 1161 1230 1189 1189 1173 1143 1138 1137 1124 1078 1079 1067 1044 1009 976 1003 941 958 916 980 955 895 970 907 938 892 896 867 873 862 816 830 869 822 808 828 738 798 719 771 736 780 741 755 788 755 735 757 736 760 729 683 693 704 673 677 707 627 683 678 620 635 623 614 643 590 632 569 575 577 594 557 587 630 604 641 534 603 600 599 582 560 568 561 578 527 589 580 628 522 554 575 570 556 534 533 511 538 548 558 510 531 507 518 554 510 507 554 549 563 515 548 500 547 548 538 515 498 534 526 561 577 518 562 532 518 488 559 492 598 573 604 608 579 640 612 632 641 704 688 706 699 759 759 786 747 810 761 805 782 805 750 788 744 777 787 752 747 776 713 720 752 675 649 666 608 626 650 646 568 573 540 601 550 565 534 541 546 508 572 491 530 501 564 505 552 496 527 534 500 523 507 509 509 555 536 485 539 546 546 534 585 527 532 557 555 528 574 498 513 523 575 593 557 553 528 542 564 504 548 511 519 516 472 537 495 493 558 485 498 475 493 498 480 504 490 512 507 494 472 428 492 437 466 434 481 496 479 448 445 442 485 450 491 460 437 454 500 460 469 401 474 456 461 461 489 454 485 462 465 465 440 445 452 452 423 458 446 442 447 445 444 384 456 498 503 459 483 478 461 477 472 475 499 435 452 495 483 484 467 463 432 473 429 489 427 442 396 446 399 483 441 438 461 436 465 421 476 452 462 466 443 484 442 446 438 466 446 499 465 464 434 453 448 434 468 447 483 458 455 439 454 462 485 459 468 464 427 474 444 503 491 431 467 473 451 451 469 455 448 449 463 483 443 482 517 471 475 485 436 461 429 452 476 476 475 479 467 494 496 479 485 477 441 456 492 462 490 452 437 441 471 500 459 476 448 456 479 460 444 474 520 452 488 448 452 446 497 428 520 424 501 463 476 465 472 477 481 475 474 485 474 454 483 483 465 482 484 485 451 493 510 486 481 494 489 487 490 503 482 515 513 540 476 529 496 489 483 460 512 569 534 505 527 507 491 550 552 512 500 473 481 506 501 507 528 532 556 550 550 504 510 488 557 535 578 502 533 574 566 549 559 542 565 576 542 562 589 567 552 543 564 557 603 601 561 564 599 564 586 560 581 577 616 544 578 561 613 648 581 588 561 622 591 629 603 560 632 584 588 601 560 605 602 637 629 590 609 603 660 640 589 671 659 673 644 664 627 649 601 555 658 606 625 621 632 654 631 602 619 631 604 570 604 643 575 625 595 663 541 603 641 641 609 576 572 599 528 552 560 610 594 570 547 542 547 568 542 567 556 536 557 513 547 532 513 511 524 526 502 487 508 495 475 529 494 509 503 480 562 483 483 488 507 522 509 478 522 506 491 512 486 466 535 468 466 506 462 489 479 514 530 499 497 476 537 512 474 511 487 489 456 494 500 510 460 450 498 456 475 438 441 460 449 456 481 472 467 467 458 456 503 470 471 442 456 437 484 477 471 514 446 472 443 476 493 498 436 482 438 481 447 458 470 438 450 468 441 454 460 468 474 432 448 466 476 428 476 453 444 468 437 450 456 411 477 468 476 438 458 468 557 501 530 533 494 514 470 477 495 520 467 515 466 498 537 475 493 525 512 521 508 540 509 486 509 476 498 514 538 468 530 502 479 496 462 518 520 468 507 511 498 517 532 544 531 574 564 568 584 545 573 626 628 646 671 647 726 731 741 787 856 915 979 1097 1113 1226 1349 1379 1498 1660 1687 1809 1787 1762 1989 1971 1992 1990 2051 2085 2110 2098 2113 2022 2029 2003 1979 1879 1913 1834 1732 1724 1683 1658 1554 1526 1433 1306 1337 1250 1238 1115 1033 1035 966 939 862 873 880 851 826 763 767 695 782 700 692 714 720 662 670 620 656 636 637 674 645 638 650 701 666 660 668 656 622 660 698 645 717 675 722 684 723 749 765 706 682 720 721 703 716 746 719 704 760 767 701 732 694 701 728 698 711 726 693 639 682 618 644 620 599 622 601 620 584 592 558 599 554 555 515 551 489 504 535 461 525 494 499 492 507 513 465 507 491 446 480 472 450 413 429 478 455 456 437 409 455 434 435 424 446 435 442 470 436 431 402 443 484 410 422 433 436 407 393 443 400 439 417 411 447 431 427 416 450 414 396 428 398 400 460 406 430 412 395 399 426 412 433 440 450 430 414 442 371 432 420 385 384 416 407 415 452 413 410 437 456 419 426 413 424 428 386 411 438 454 395 444 430 425 446 425 454 397 419 442 421 404 401 446 401 477 483 445 449 409 427 463 427 451 464 457 433 425 406 409 443 478 496 470 498 458 508 461 507 461 512 478 490 565 508 577 619 599 637 634 743 680 799 805 956 1002 1060 1113 1202 1245 1326 1402 1491 1556 1628 1684 1721 1761 1801 1775 1764 1760 1692 1679 1693 1679 1679 1656 1594 1601 1620 1444 1354 1350 1320 1247 1172 1136 1059 1086 1095 1003 970 928 855 832 764 800 692 679 670 635 670 639 639 605 604 600 535 560 553 527 540 551 597 528 558 522 573 547 560 510 609 534 554 544 566 559 530 629 555 548 555 598 524 540 550 590 558 569 576 553 611 545 597 566 551 593 572 562 612 574 564 527 613 548 551 526 512 516 532 497 528 529 512 510 485 468 462 479 497 471 475 470 424 468 469 455 475 498 401 464 414 436 483 490 488 471 469 477 513 458 457 444 471 474 461 492 469 458 446 486 475 439 507 435 469 467 445 447 459 447 452 433 450 397 471 413 444 451 453 454 444 421 451 401 471 441 415 450 448 421 436 392 403 404 425 430 420 457 387 480 452 477 446 441 503 492 499 482 521 540 567 545 583 565 607 609 650 601 668 653 633 658 690 680 694 695 672 649 625 657 601 642 641 583 668 650 609 590 622 574 575 571 519 557 548 502 512 500 452 503 472 462 440 482 456 446 461 446 465 423 459 434 479 441 449 455 378 407 418 394 429 450 417 416 412 402 410 416 462 425 420 458 405 411 383 407 433 470 412 455 432 437 414 384 407 408 416 393 399 423 414 472 407 366 389 421 397 426 387 371 430 363 417 433 385 430 439 389 395 431 418 387 422 442 396 415 473 376 445 442 410 448 419 429 412 424 416 429 400 410 387 366 434 419 440 394 458 385 392 360 403 398 441 412 372 412 386 389 431 385 385 424 387 393 365 385 374 334 399 384 373 356 352 324 381 394 417 381 372 368 341 339 380 379 373 374 389 343 359 330 356 375 376 346 340 327 345 379 396 400 362 371 379 353 354 360 374 352 367 362 348 351 360 346 327 384 364 392 333 319 386 336 365 352 360 333 352 361 337 346 350 339 324 343 315 341 355 343 327 331 340 362 333 321 366 342 376 382 324 336 356 367 387 355 387 348 378 358 354 342 359 331 375 365 324 358 326 330 354 354 344 332 347 351 337 353 313 339 288 352 344 360 361 324 338 332 346 397 351 347 354 347 353 376 345 378 359 332 340 331 373 357 377 334 391 375 305 333 338 337 338 346 347 366 328 328 343 349 379 304 350 346 364 340 344 365 368 365 385 349 354 332 350 336 342 373 321 333 342 332 330 382 329 385 365 353 366 369 385 377 343 400 378 363 378 341 338 332 330 362 332 342 330 333 325 327 335 340 327 348 378 347 362 311 336 368 399 362 332 335 323 346 334 372 334 335 375 338 340 357 347 356 322 350 367 372 336 336 370 334 356 339 346 364 348 347 295 326 330 340 367 320 331 322 339 339 345 307 335 309 357 341 332 347 337 342 349 351 334 370 383 342 341 340 344 349 352 335 334 289 342 362 328 372 341 343 338 331 328 311 312 353 317 327 348 315 322 301 316 365 319 343 332 308 338 314 310 347 314 319 330 335 336 289 342 344 337 335 308 352 309 321 308 373 318 318 324 316 342 309 328 366 350 343 304 338 320 315 306 342 354 369 354 337 350 378 354 354 400 409 383 354 392 390 421 456 439 409 434 425 453 492 474 452 459 455 432 478 489 489 464 475 450 447 450 432 431 436 435 460 425 469 442 436 443 397 422 422 397 388 377 347 380 354 357 368 361 357 343 315 348 372 369 329 335 315 325 353 351 343 320 304 363 327 362 368 325 353 335 347 350 337 345 345 320 347 327 331 360 311 333 329 350 329 314 370 343 326 327 327 341 347 333 332 354 312 318 335 303 361 322 337 319 325 373 343 335 330 357 352 342 348 348 300 280 363 348 308 413 329 377 326 346 329 335 351 332 373 330 339 333 333 332 347 369 322 340 354 315 351 322 344 352 325 350 326 351 386 323 330 384 351 354 325 346 354 332 311 370 379 344 348 327 370 366 375 367 340 331 371 364 359 311 363 367 337 375 325 363 345 365 341 359 315 361 404 354 362 353 351 344 382 344 391 349 409 336 364 395 396 337 359 432 377 362 356 380 392 408 348 345 395 422 408 397 388 392 357 371 347 388 436 369 383 391 400 355 344 392 396 343 395 366 346 343 351 355 361 314 361 335 361 361 362 357 350 373 368 360 342 332 385 371 343 349 343 339 363 352 341 341 340 365 338 345 382 375 334 365 331 357 361 325 343 355 354 367 338 350 358 350 362 382 345 340 360 403 342 380 377 360 400 374 391 405 398 410 429 418 401 423 436 476 493 484 528 560 545 584 599 654 667 633 649 658 731 674 698 680 708 754 722 767 683 711 671 682 736 740 676 657 615 635 614 654 679 634 580 649 558 572 572 560 590 513 576 536 489 502 408 476 490 431 492 434 429 396 435 419 389 448 397 367 410 368 365 451 374 393 387 360 393 355 371 347 351 356 355 375 360 352 351 383 339 348 365 363 350 353 353 359 336 319 375 379 366 340 354 375 367 333 356 354 372 399 363 357 397 355 344 392 385 364 361 363 380 376 376 397 377 372 397 385 415 396 383 351 398 337 417 363 378 335 353 342 398 353 345 374 386 371 370 374 361 376 361 355 333 361 342 379 296 317 311 337 318 354 354 317 378 326 349 338 319 355 335 329 355 340 327 305 324 313 308 320 306 303 327 331 363 363 328 288 358 368 338 340 342 350 353 317 330 335 371 367 370 340 357 330 345 368 341 371 318 359 336 337 360 341 346 361 341 363 340 340 342 344 326 322 319 322 355 303 348 329 348 308 308 356 296 327 322 328 300 297 299 325 324 354 342 338 304 305 287 326 303 299 342 284 318 309 299 314 298 303 302 295 290 313 307 306 295 325 271 303 309 310 349 318 315 298 301 308 315 296 314 302 307 290 313 348 292 282 302 297 318 296 287 299 333 299 330 322 300 294 309 308 323 327 338 286 337 310 324 314 334 324 309 280 336 325 288 300 325 311 293 309 314 306 343 284 289 262 285 302 272 332 333 299 301 310 303 312 313 308 307 291 321 279 316 290 307 298 323 315 315 296 329 284 297 303 294 338 291 304 313 300 340 309 293 291 324 301 278 293 279 312 330 293 312 299 306 332 318 287 310 291 335 282 309 279 313 306 311 313 316 305 309 311 328 326 311 302 280 276 292 288 329 323 298 276 318 299 292 322 334 272 248 301 291 306 304 311 263 273 326 288 322 300 284 339 281 329 317 333 302 323 305 333 312 290 310 260 310 326 323 306 306 265 341 308 277 299 309 275 304 275 352 310 292 296 310 280 329 299 311 324 353 318 332 317 294 317 326 316 342 304 303 292 328 332 289 303 276 316 305 292 287 301 297 311 309 301 337 307 329 345 307 335 319 297 313 313 339 363 353 304 303 333 324 313 318 327 334 312 334 305 314 313 300 296 347 336 324 353 313 339 307 320 325 317 350 310 343 338 338 310 319 322 350 315 304 333 330 350 345 346 336 319 311 339 337 324 284 335 330 337 340 355 351 321 332 325 339 319 316 328 341 355 371 335 339 336 339 331 318 297 304 323 351 316 334 358 355 346 334 349 342 331 310 331 336 311 344 327 350 353 360 333 316 346 358 315 309 321 386 317 335 336 329 328 305 329 312 354 356 347 327 360 320 323 370 321 348 321 334 304 300 361 287 352 353 331 328 328 310 350 338 325 364 332 341 335 376 347 340 334 326 345 314 370 353 319 334 350 310 340 372 321 347 351 376 331 362 343 393 374 391 342 393 373 369 408 400 418 402 380 414 451 401 437 489 454 434 459 438 456 440 467 451 437 432 400 472 421 457 425 456 427 444 442 444 468 402 416 424 415 439 428 430 439 466 416 450 430 432 484 440 427 516 484 445 493 474 506 542 545 581 580 618 657 690 707 691 657 722 735 799 786 802 788 824 820 840 747 807 786 750 770 754 705 746 696 720 662 734 721 642 687 655 695 663 642 593 643 582 630 609 568 560 552 540 538 482 536 502 469 503 519 444 424 453 426 432 416 444 401 412 435 427 407 397 412 422 391 426 414 401 428 357 407 389 372 380 383 370 352 408 434 375 389 385 392 365 360 405 389 411 373 393 392 405 386 403 409 366 371 371 411 431 427 395 369 422 426 411 425 426 417 449 421 426 425 377 427 425 426 429 451 419 463 474 449 433 444 442 431 438 446 452 472 447 406 466 430 446 436 427 418 442 402 428 410 439 414 418 388 379 415 373 383 392 434 402 365 400 376 421 387 417 406 395 379 389 389 383 419 416 387 373 402 410 372 371 373 421 342 380 381 398 413 384 381 393 370 386 397 387 398 391 398 371 400 396 386 401 442 400 394 415 388 430 395 387 420 420 436 454 423 419 441 452 424 470 449 459 482 471 486 509 514 530 542 574 614 603 675 669 723 737 780 866 863 887 927 987 1055 1072 1092 1158 1186 1184 1220 1229 1178 1257 1186 1206 1149 1232 1219 1155 1177 1163 1130 1050 1113 1034 1075 1002 1018 1000 1018 952 935 975 911 880 892 913 879 892 784 810 777 724 761 686 699 723 649 643 588 566 550 541 567 508 554 524 476 418 480 444 471 393 444 431 480 438 461 404 414 392 405 401 365 411 432 383 430 414 444 393 375 417 380 395 397 401 413 408 400 355 391 408 383 400 410 409 413 414 417 388 454 402 411 430 401 417 417 399 425 438 455 448 431 409 450 444 415 440 449 460 497 450 454 460 473 439 456 429 497 446 475 441 472 455 459 474 429 462 439 461 426 464 445 427 440 447 430 412 477 414 478 491 451 454 436 441 428 414 450 453 414 458 464 455 420 423 421 414 426 449 424 494 444 443 462 459 441 434 449 465 481 453 428 437 438 424 457 459 407 470 451 459 392 410 442 455 411 415 437 428 433 377 377 373 404 406 417 358 380 405 368 384 384 392 357 368 355 373 399 356 407 371 350 361 354 384 320 352 344 327 339 374 344 364 339 346 341 342 346 344 339 333 340 347 268 326 349 343 382 358 325 359 357 340 332 332 333 313 352 322 345 343 317 332 324 309 355 320 337 313 358 343 337 303 313 339 322 297 328 314 347 336 318 322 334 351 337 289 329 326 315 339 342 357 310 314 332 311 334 330 312 338 343 316 326 312 314 303 326 330 360 328 352 318 332 332 333 322 296 303 333 359 327 310 311 306 328 312 381 343 343 337 327 314 319 325 346 326 337 327 334 316 317 336 332 306 302 330 347 371 328 319 331 343 323 328 351 330 333 342 339 309 334 310 311 321 300 338 319 300 316 350 310 335 300 302 307 317 320 328 309 315 317 333 314 315 316 296 305 298 327 278 279 322 357 350 316 314 326 334 320 315 294 291 307 313 329 320 285 361 314 308 319 296 314 306 326 293 302 272 323 288 318 303 305 307 288 314 308 312 313 331 321 323 307 294 305 310 292 284 296 322 296 276 355 319 307 323 290 299 313 331 285 277 299 274 295 285 298 320 303 315 306 313 321 315 308 283 323 291 315 284 312 301 307 301 296 299 290 291 275 304 323 302 269 289 277 293 302 305 306 303 295 324 278 311 283 279 317 311 293 302 303 303 318 331 333 301 321 294 310 306 304 292 311 278 309 280 296 312 301 313 293 281 294 312 324 294 313 310 309 290 311 292 301 285 312 312 279 319 302 307 289 299 292 283 292 297 273 282 330 307 322 310 285 263 293 281 329 300 300 294 299 307 296 321 312 308 292 308 311 267 304 324 320 291 311 314 319 332 290 307 293 341 276 308 319 306 287 314 303 322 315 313 270 271 325 301 322 305 298 333 317 311 295 317 316 306 289 312 281 313 353 301 298 332 336 353 339 303 302 318 328 352 318 293 353 340 360 369 392 360 365 374 337 379 377 351 390 367 381 403 389 413 381 388 382 379 352 418 362 384 367 398 351 390 385 341 398 385 349 369 366 392 324 377 370 356 343 346 346 361 349 364 345 375 329 331 377 337 350 306 344 335 349 316 361 319 310 339 328 346 324 320 287 324 285 296 315 292 315 304 315 290 294 315 283 315 315 320 321 287 327 333 332 313 303 309 329 315 298 332 311 304 327 341 295 303 278 322 280 299 349 308 306 307 302 296 316 286 324 291 297 302 285 292 293 342 304 332 305 301 285 312 328 298 319 292 342 315 326 304 355 308 315 284 308 306 301 318 310 327 327 308 305 292 308 317 291 319 314 315 313 331 328 310 322 305 353 300 316 300 355 304 314 306 307 292 319 296 284 300 318 309 322 289 303 307 332 324 315 335 290 337 331 304 349 297 296 322 307 337 312 295 309 317 337 304 289 296 307 322 291 289 317 271 331 315 296 317 288 283 294 313 295 287 302 301 316 344 300 335 302 303 314 322 300 301 317 308 339 306 323 314 316 331 300 331 328 312 326 333 326 331 321 334 358 335 307 314 313 347 343 350 340 326 371 333 361 364 350 338 336 339 342 380 348 407 348 394 359 390 383 345 405 411 419 427 438 446 448 445 490 483 524 567 512 616 592 651 644 711 727 742 852 831 862 881 936 944 956 923 929 987 986 979 971 985 1005 1011 988 910 931 898 919 913 865 843 836 870 794 802 789 782 725 800 777 763 725 729 705 733 719 714 707 771 697 652 649 638 649 658 540 625 543 540 569 552 477 477 474 478 468 496 433 469 436 417 425 401 400 408 392 353 412 382 402 386 366 383 359 401 345 386 356 351 364 367 364 363 359 340 381 353 350 352 386 328 353 359 362 328 343 351 353 324 358 381 336 387 378 340 352 364 415 354 372 396 358 385 343 366 376 390 367 376 313 393 349 417 386 419 349 383 341 399 422 416 418 452 399 419 408 424 411 424 416 459 435 405 407 404 426 444 423 464 373 440 424 410 454 427 424 447 428 407 433 437 390 396 442 430 413 429 411 396 429 445 395 457 401 399 409 412 445 426 392 415 399 390 423 409 413 425 408 402 402 350 383 444 386 386 381 373 374 413 382 375 387 382 390 369 364 367 358 383 347 364 358 392 391 386 359 364 393 380 382 366 328 359 331 383 333 370 343 371 327 394 379 324 354 358 364 373 323 345 373 345 331 331 333 344 310 333 354 344 303 320 349 321 332 322 320 361 309 337 340 307 309 315 297 307 336 342 319 312 299 311 341 342 322 335 317 314 338 290 328 302 340 280 302 345 286 326 324 316 320 329 299 283 317 328 302 358 333 281 284 292 295 284 287 326 305 315 282 338 330 291 338 292 318 337 329 366 320 300 301 339 293 294 304 324 323 308 323 294 320 299 270 310 295 288 310 330 271 325 309 329 315 290 300 327 313 326 307 335 342 315 299 343 307 330 318 271 317 315 330 302 275 309 311 326 329 298 304 326 331 348 338 310 290 298 295 320 305 317 321 294 320 331 311 340 266 370 302 323 283 324 302 290 326 289 317 303 304 296 316 317 300 331 331 275 330 306 304 286 291 313 289 311 308 332 297 304 318 283 290 317 305 288 328 305 311 335 325 319 305 320 328 296 319 295 325 327 307 283 304 291 265 302 272 309 342 287 296 330 348 307 300 282 275 324 307 324 308 285 309 319 299 301 316 303 316 298 313 327 301 318 278 294 350 279 344 302 314 307 306 322 265 326 308 319 327 314 314 334 311 334 325 270 317 301 347 311 320 292 299 308 327 305 327 286 303 330 305 326 282 341 304 301 307 321 300 306 268 318 308 314 296 299 316 303 305 310 289 333 307 331 321 308 319 308 349 327 272 329 289 332 287 343 292 295 324 289 307 306 287 296 303 292 344 319 348 330 333 302 312 317 278 289 331 291 317 316 334 333 346 357 299 309 319 329 350 323 300 346 298 343 325 310 294 340 316 315 316 356 354 347 341 322 338 312 357 321 343 310 356 299 304 320 343 352 345 336 351 333 331 339 316 328 338 344 349 344 331 359 367 347 358 381 362 351 383 391 401 370 413 400 423 449 429 434 472 469 481 484 488 445 487 523 494 478 494 528 529 490 472 490 465 484 452 467 479 527 477 490 494</counts>
			</dataPoints>
		</scan>
	</xrdMeasurement>
</xrdMeasurements>
