<?xml version="1.0"?>
<xrdMeasurements xmlns="http://www.xrdml.com/XRDMeasurement/2.3" xmlns:xsi="http://www.w3.org/2001/XMLSchema-instance" xsi:schemaLocation="http://www.xrdml.com/XRDMeasurement/2.3 http://www.xrdml.com/XRDMeasurement/2.3/XRDMeasurement.xsd" status="Completed" recordIdentifier="{FC044D2A-F7BE-4298-9D72-1C45E62B3980}">
	<comment>
		<entry/>
	</comment>
	<sample type="To be analyzed">
		<id>GPSS_Li1p4Zr0p1In0p2Y0p2Mn0p5Cl4_122125_69474145f4d05ae3d697aeea</id>
		<name></name>
		<preparedBy></preparedBy>
	</sample>
	<xrdMeasurement measurementType="Scan" status="Completed" sampleMode="Reflection">
		<usedWavelength intended="K-Alpha 1">
			<kAlpha1 unit="Angstrom">1.5405980</kAlpha1>
			<kAlpha2 unit="Angstrom">1.5444260</kAlpha2>
			<kBeta unit="Angstrom">1.3922500</kBeta>
			<ratioKAlpha2KAlpha1>0.5000</ratioKAlpha2KAlpha1>
		</usedWavelength>
		<incidentBeamPath>
			<radius unit="mm">145.00</radius>
			<xRayTube id="1010048" name="Empyrean Cu LFF HR (9430 033 7310x)">
				<tension unit="kV">40.0</tension>
				<current unit="mA">15.0</current>
				<anodeMaterial>Cu</anodeMaterial>
				<focus type="Line">
					<length unit="mm">12.0</length>
					<width unit="mm">0.4</width>
					<takeOffAngle unit="deg">6.0</takeOffAngle>
				</focus>
			</xRayTube>
			<sollerSlit id="21010002" name="Soller slits 0.04 rad.">
				<opening unit="rad">0.0400</opening>
			</sollerSlit>
			<mask id="22031000" name="Fixed mask 13 mm">
				<width unit="mm">9.00</width>
			</mask>
			<divergenceSlit id="22120001" name="Divergence slit 1°" xsi:type="fixedDivergenceSlitType">
				<distanceToSample unit="mm">50.00</distanceToSample>
				<height unit="mm">1.52</height>
			</divergenceSlit>
		</incidentBeamPath>
		<sampleMovement xsi:type="spinningSampleMovementType">
			<spinnerRevolutionTime unit="seconds">1.0</spinnerRevolutionTime>
		</sampleMovement>
		<diffractedBeamPath>
			<radius unit="mm">145.00</radius>
			<antiScatterSlit id="22090040" name="AS slit 9 mm (PIXcel)" xsi:type="fixedAntiScatterSlitType">
				<height unit="mm">9.00</height>
			</antiScatterSlit>
			<sollerSlit id="21020003" name="Large Soller slits 0.04 rad.">
				<opening unit="rad">0.0400</opening>
			</sollerSlit>
			<filter id="20030001" name="Large beta-filter Nickel">
				<material>Ni</material>
				<thickness unit="mm">0.020</thickness>
			</filter>
			<detector id="7010019" name="PIXcel1D-Medipix3 detector" xsi:type="rtmsDetectorType">
				<phd unit="keV">
					<lowerLevel>4.02</lowerLevel>
					<upperLevel>11.27</upperLevel>
				</phd>
				<mode>Scanning</mode>
				<activeLength unit="deg">5.542</activeLength>
			</detector>
		</diffractedBeamPath>
		<scan appendNumber="0" mode="Continuous" scanAxis="Gonio" status="Completed">
			<header>
				<startTimeStamp>2025-12-22T14:31:35-08:00</startTimeStamp>
				<endTimeStamp>2025-12-22T14:39:42-08:00</endTimeStamp>
				<author>
					<name>AutomatedUser</name>
				</author>
				<source>
					<applicationSoftware version="1.7b (136)">PANalytical Aeris Instrument Suite</applicationSoftware>
					<instrumentControlSoftware version="3.2.00000000 20240306">AERIS</instrumentControlSoftware>
					<instrumentID>950485</instrumentID>
				</source>
			</header>
			<dataPoints>
				<positions axis="2Theta" unit="deg">
					<startPosition>10.00943322</startPosition>
					<endPosition>99.99442286</endPosition>
				</positions>
				<positions axis="Omega" unit="deg">
					<startPosition>5.00471661</startPosition>
					<endPosition>49.99721143</endPosition>
				</positions>
				<commonCountingTime unit="seconds">12.495</commonCountingTime>
				<counts unit="counts">2680 2595 2663 2615 2576 2608 2547 2668 2632 2634 2611 2643 2553 2696 2557 2641 2601 2707 2737 2614 2643 2632 2678 2658 2560 2661 2619 2494 2537 2609 2555 2581 2639 2580 2649 2612 2580 2611 2684 2592 2568 2634 2526 2565 2619 2566 2627 2636 2579 2624 2489 2647 2528 2702 2731 2601 2635 2565 2714 2581 2646 2640 2489 2613 2579 2496 2572 2656 2577 2586 2568 2653 2580 2683 2650 2658 2558 2624 2662 2694 2563 2630 2627 2653 2713 2540 2551 2645 2570 2601 2660 2699 2606 2693 2698 2642 2593 2566 2529 2662 2592 2672 2637 2667 2602 2602 2752 2630 2642 2643 2766 2593 2666 2632 2657 2571 2655 2597 2666 2551 2664 2715 2656 2622 2661 2610 2738 2681 2595 2622 2558 2671 2624 2589 2746 2661 2757 2665 2599 2473 2611 2645 2649 2590 2592 2646 2665 2593 2568 2597 2711 2643 2607 2677 2517 2607 2688 2612 2650 2628 2582 2619 2560 2592 2635 2570 2580 2662 2613 2620 2592 2631 2591 2631 2575 2666 2680 2611 2582 2554 2792 2591 2536 2534 2579 2550 2554 2589 2662 2591 2513 2537 2630 2475 2602 2620 2642 2603 2602 2556 2523 2606 2523 2493 2573 2520 2597 2611 2518 2454 2589 2577 2658 2578 2609 2496 2521 2426 2592 2420 2527 2513 2556 2518 2467 2521 2506 2421 2474 2511 2482 2468 2588 2471 2530 2532 2505 2570 2539 2526 2445 2538 2561 2511 2494 2467 2446 2540 2546 2488 2558 2576 2457 2427 2600 2532 2469 2464 2525 2556 2515 2510 2497 2455 2465 2538 2535 2404 2450 2450 2469 2573 2496 2416 2481 2416 2520 2527 2539 2512 2477 2445 2489 2464 2512 2479 2551 2482 2516 2475 2527 2505 2476 2541 2428 2584 2417 2543 2471 2488 2502 2536 2439 2503 2553 2513 2537 2512 2500 2576 2506 2555 2567 2500 2504 2389 2468 2387 2505 2465 2499 2461 2516 2562 2649 2484 2564 2618 2606 2602 2534 2513 2448 2577 2634 2492 2591 2544 2560 2555 2597 2644 2620 2613 2602 2659 2581 2551 2593 2674 2651 2610 2601 2624 2654 2632 2642 2618 2647 2670 2611 2640 2674 2654 2656 2662 2724 2716 2733 2717 2645 2700 2744 2803 2703 2700 2788 2607 2733 2770 2719 2778 2736 2732 2779 2770 2744 2759 2742 2770 2732 2798 2785 2880 2830 2796 2779 2775 2807 2856 2923 2796 2823 2774 2844 2952 2908 2927 2912 2898 2948 2847 2955 2948 2987 2967 2985 2922 2982 2963 2891 2961 2879 3074 2969 2980 3154 3020 3027 3077 3077 3070 3046 3160 3096 3129 3132 3141 3256 3107 3217 3096 3152 3138 3220 3030 3214 3240 3146 3329 3284 3319 3237 3294 3325 3308 3208 3408 3278 3343 3272 3515 3395 3425 3460 3506 3498 3449 3461 3501 3488 3362 3451 3485 3431 3440 3573 3385 3574 3293 3373 3343 3352 3399 3264 3262 3172 3119 2985 3008 2960 2963 2986 2851 2969 2980 2771 2854 2962 2955 2960 2912 2872 2862 2898 2879 2911 2867 2806 2824 2859 2921 2736 2899 2807 2800 2859 2915 2755 2906 2891 2905 2842 2826 2843 2821 2835 2834 2916 2728 2850 2865 2820 2856 2794 2832 2864 2827 2854 2770 2739 2791 2687 2802 2718 2790 2859 2764 2735 2796 2798 2766 2782 2747 2836 2789 2880 2764 2810 2828 2751 2810 2759 2763 2729 2829 2710 2835 2816 2803 2866 2921 2981 2826 2801 2831 2695 2861 2765 2885 2931 2837 2906 2817 2781 2840 2794 2929 2884 2884 2852 2808 2829 2786 2694 2814 2808 2846 2614 2799 2744 2672 2715 2718 2635 2665 2547 2670 2588 2578 2698 2612 2544 2658 2620 2634 2594 2573 2645 2630 2572 2480 2631 2586 2601 2585 2648 2578 2639 2605 2586 2590 2599 2658 2667 2694 2561 2519 2544 2603 2607 2606 2697 2599 2601 2627 2467 2629 2613 2564 2605 2584 2547 2475 2504 2619 2472 2533 2531 2477 2527 2527 2510 2595 2458 2548 2470 2556 2506 2566 2425 2588 2529 2521 2450 2533 2656 2542 2549 2407 2529 2561 2626 2593 2558 2666 2610 2551 2578 2554 2551 2536 2523 2540 2620 2529 2603 2655 2612 2549 2638 2646 2666 2576 2649 2570 2761 2606 2603 2657 2683 2648 2710 2607 2713 2753 2722 2772 2596 2708 2701 2672 2798 2692 2716 2744 2753 2702 2631 2656 2672 2703 2665 2583 2560 2595 2594 2499 2580 2412 2521 2499 2486 2527 2427 2385 2415 2575 2463 2398 2507 2458 2385 2429 2506 2516 2416 2341 2509 2532 2494 2460 2401 2466 2392 2477 2356 2485 2431 2481 2434 2461 2431 2434 2586 2405 2491 2410 2492 2449 2521 2369 2453 2466 2433 2473 2511 2379 2388 2396 2490 2425 2452 2373 2464 2401 2432 2431 2448 2403 2371 2407 2333 2376 2453 2480 2471 2315 2440 2465 2341 2432 2460 2464 2355 2351 2451 2476 2388 2393 2492 2432 2389 2388 2453 2411 2310 2341 2406 2406 2409 2329 2333 2415 2374 2396 2317 2412 2365 2314 2289 2456 2415 2432 2371 2355 2445 2386 2394 2348 2290 2379 2354 2349 2282 2342 2354 2310 2420 2321 2340 2233 2351 2340 2384 2292 2340 2348 2319 2261 2323 2301 2343 2346 2202 2357 2250 2321 2313 2299 2291 2401 2305 2340 2350 2246 2336 2260 2415 2329 2425 2210 2310 2333 2245 2359 2301 2345 2262 2379 2265 2264 2215 2314 2262 2284 2328 2221 2199 2276 2325 2243 2281 2321 2219 2412 2248 2363 2361 2329 2374 2249 2246 2202 2241 2231 2264 2305 2259 2323 2287 2306 2205 2220 2258 2155 2185 2254 2267 2265 2333 2259 2259 2286 2262 2226 2232 2270 2256 2261 2240 2293 2212 2294 2166 2255 2265 2247 2222 2204 2251 2240 2207 2194 2227 2246 2190 2149 2255 2271 2230 2264 2244 2218 2138 2187 2253 2132 2201 2273 2091 2201 2214 2189 2207 2144 2204 2225 2179 2117 2372 2144 2241 2161 2165 2221 2164 2259 2136 2123 2213 2185 2194 2223 2199 2294 2143 2149 2217 2148 2193 2245 2229 2132 2314 2224 2143 2188 2217 2233 2175 2180 2203 2168 2242 2185 2182 2146 2174 2243 2138 2138 2143 2204 2105 2120 2226 2168 2188 2222 2212 2211 2123 2227 2192 2211 2161 2219 2117 2203 2210 2237 2114 2201 2162 2100 2154 2272 2196 2192 2125 2252 2187 2259 2216 2119 2174 2312 2139 2225 2279 2207 2205 2294 2205 2197 2293 2152 2170 2146 2187 2283 2159 2279 2267 2192 2223 2290 2274 2169 2180 2305 2116 2245 2223 2218 2174 2211 2181 2185 2186 2198 2195 2247 2176 2242 2215 2251 2193 2195 2301 2239 2162 2242 2268 2209 2144 2278 2188 2307 2181 2214 2235 2226 2197 2181 2173 2226 2149 2156 2130 2188 2134 2199 2184 2190 2107 2235 2123 2156 2165 2202 2164 2127 2230 2133 2207 2187 2142 2196 2206 2172 2206 2228 2172 2246 2166 2098 2175 2120 2117 2048 2157 2095 2103 2053 2011 2115 2154 2212 2201 2060 2138 2142 2085 2052 2143 2152 2144 2073 2135 2007 2143 2028 2037 1983 2108 2050 2066 2032 2092 2057 2054 2122 2015 2103 2132 1972 1969 2055 2039 1979 1988 2009 1949 1975 2040 2090 2070 1994 1987 1973 1982 1957 2023 1996 1984 1989 1915 1874 1923 1880 1899 1957 1994 1953 1969 1923 1955 2014 1951 1894 1849 1922 1887 1900 1982 1918 1813 1863 1963 1936 1912 1902 1869 1894 1963 1889 1881 1913 1829 1897 1934 1929 1946 1897 1897 1857 1929 1866 1922 1863 1893 1986 1837 1820 1847 1867 1885 2035 1936 1840 1888 1801 1907 1898 1858 1878 1894 1874 1783 2020 1940 1802 1848 1834 1913 1907 1847 1840 1889 1889 1920 1881 1894 1811 1913 1850 1845 1800 1841 1839 1865 1880 1801 1847 1856 1820 1825 1796 1779 1709 1720 1788 1729 1711 1749 1696 1750 1728 1776 1747 1727 1681 1675 1739 1725 1695 1723 1803 1706 1702 1714 1718 1679 1687 1622 1741 1721 1612 1690 1685 1701 1728 1724 1725 1627 1726 1712 1679 1673 1613 1674 1722 1641 1702 1671 1657 1738 1661 1723 1660 1702 1677 1655 1701 1640 1663 1688 1675 1638 1725 1732 1642 1704 1790 1770 1667 1723 1668 1746 1706 1601 1767 1654 1697 1719 1686 1706 1646 1702 1591 1675 1569 1647 1675 1649 1663 1714 1728 1714 1659 1696 1721 1694 1675 1696 1640 1735 1713 1645 1657 1609 1662 1735 1616 1717 1684 1680 1742 1705 1686 1699 1659 1705 1753 1693 1674 1716 1783 1631 1638 1715 1678 1674 1670 1611 1641 1677 1739 1666 1716 1686 1732 1677 1601 1671 1753 1684 1673 1704 1668 1659 1674 1724 1630 1750 1648 1650 1669 1747 1699 1716 1675 1664 1665 1579 1654 1667 1687 1669 1719 1642 1722 1687 1667 1689 1762 1738 1689 1715 1676 1710 1635 1714 1655 1713 1669 1701 1711 1789 1692 1608 1647 1636 1722 1622 1642 1719 1692 1638 1642 1676 1650 1646 1669 1699 1619 1721 1609 1661 1715 1639 1674 1697 1703 1701 1780 1688 1620 1752 1699 1753 1661 1654 1614 1679 1634 1619 1674 1645 1630 1640 1635 1710 1641 1630 1639 1565 1689 1660 1581 1618 1620 1580 1677 1597 1594 1552 1702 1677 1636 1591 1642 1656 1592 1535 1673 1586 1589 1652 1566 1621 1545 1576 1582 1577 1589 1577 1650 1608 1605 1646 1606 1662 1551 1546 1485 1567 1544 1594 1630 1547 1517 1582 1559 1537 1560 1584 1594 1549 1552 1586 1546 1436 1525 1530 1550 1540 1512 1515 1567 1584 1502 1470 1593 1512 1488 1509 1505 1481 1546 1466 1507 1508 1478 1546 1511 1476 1503 1504 1519 1512 1518 1505 1480 1551 1495 1457 1528 1412 1517 1499 1498 1513 1467 1499 1432 1500 1515 1508 1517 1489 1478 1469 1534 1556 1505 1607 1512 1487 1545 1468 1447 1490 1536 1561 1543 1544 1478 1558 1563 1603 1578 1593 1591 1603 1554 1597 1586 1689 1576 1661 1674 1685 1748 1666 1646 1668 1730 1726 1721 1724 1742 1672 1655 1585 1655 1702 1669 1556 1741 1657 1677 1672 1577 1632 1643 1670 1680 1680 1759 1704 1669 1731 1694 1713 1714 1709 1813 1713 1748 1820 1786 1818 1854 1701 1825 1866 1825 1756 1790 1796 1711 1735 1664 1714 1645 1738 1692 1681 1570 1569 1599 1579 1489 1551 1529 1483 1549 1462 1511 1483 1484 1531 1519 1451 1513 1499 1527 1522 1455 1470 1472 1458 1403 1485 1421 1411 1427 1451 1437 1420 1458 1394 1432 1390 1463 1401 1396 1462 1462 1454 1450 1512 1528 1508 1538 1565 1580 1606 1553 1568 1603 1637 1665 1654 1669 1658 1611 1740 1740 1812 1812 1696 1700 1833 1796 1778 1757 1826 1773 1890 1785 1908 1797 1839 1809 1750 1682 1870 1870 1850 1684 1723 1784 1754 1806 1786 1890 1823 1871 1906 1800 1904 1924 2047 1959 1928 2002 2044 2014 2003 2016 1950 2044 2047 2021 2095 2003 2095 2075 2012 1944 1967 1940 1814 1837 1812 1763 1748 1606 1639 1553 1573 1525 1483 1525 1394 1419 1355 1449 1371 1421 1437 1355 1416 1375 1399 1305 1342 1347 1263 1293 1380 1358 1375 1322 1292 1298 1333 1270 1251 1326 1265 1315 1300 1260 1331 1325 1317 1314 1294 1280 1285 1274 1284 1293 1280 1240 1270 1300 1255 1206 1210 1228 1200 1215 1240 1262 1208 1217 1241 1267 1315 1223 1237 1252 1252 1184 1231 1279 1211 1232 1204 1227 1216 1261 1194 1292 1211 1218 1298 1231 1235 1286 1247 1236 1236 1245 1157 1190 1198 1203 1266 1149 1211 1148 1243 1219 1151 1254 1255 1228 1236 1174 1228 1255 1207 1231 1161 1234 1257 1337 1306 1313 1268 1380 1316 1344 1276 1392 1445 1444 1537 1489 1470 1555 1539 1492 1593 1675 1573 1655 1562 1550 1581 1544 1598 1514 1615 1604 1542 1474 1530 1589 1565 1532 1594 1663 1659 1646 1678 1638 1725 1748 1720 1691 1726 1873 1759 1792 1822 1813 1849 1861 1883 1860 1827 1880 1990 1793 1793 1792 1805 1733 1698 1668 1645 1554 1528 1505 1448 1378 1384 1327 1274 1358 1229 1247 1243 1172 1186 1188 1204 1180 1198 1262 1197 1177 1171 1235 1172 1189 1184 1138 1218 1198 1203 1185 1236 1217 1221 1211 1269 1162 1163 1273 1195 1136 1205 1218 1229 1181 1213 1222 1257 1227 1231 1139 1149 1137 1203 1167 1141 1154 1107 1104 1132 1128 1165 1066 1086 1095 1049 1169 1158 1172 1093 1075 1045 1104 1087 1063 1138 1127 1121 1077 1076 1172 1092 1080 1054 1122 1126 1124 1099 1105 1129 1108 1081 1099 1173 1095 1082 1118 1098 1159 1120 1085 1076 1096 1076 1221 1094 1102 1086 1087 1075 1117 1082 1113 1076 1122 1146 1036 1116 1144 1126 1082 1129 1121 1111 1109 1111 1128 1097 1088 1087 1082 1124 1129 1199 1140 1173 1121 1118 1093 1161 1156 1176 1175 1175 1102 1159 1132 1111 1193 1207 1181 1289 1211 1225 1290 1360 1275 1352 1313 1258 1277 1361 1452 1397 1420 1465 1457 1519 1560 1556 1611 1553 1627 1674 1675 1786 1778 1860 1884 1848 1938 1904 1966 2109 2077 2171 2202 2304 2409 2414 2542 2507 2635 2789 2778 2854 3104 2995 3131 3029 3168 3110 3097 3168 3202 3193 3153 3296 3155 3109 3222 3172 3087 3057 3029 3049 2969 3021 3048 3048 2986 3005 2930 3200 2964 3048 3058 3285 3129 3288 3354 3309 3404 3439 3422 3397 3490 3400 3488 3553 3332 3331 3287 3299 3168 3098 2962 2768 2681 2550 2496 2453 2217 2093 2053 1890 1773 1746 1667 1578 1517 1531 1426 1406 1315 1286 1250 1187 1228 1284 1207 1172 1174 1206 1275 1230 1193 1194 1226 1229 1128 1148 1251 1166 1120 1152 1170 1134 1137 1076 1104 1127 1155 1111 1172 1140 1140 1123 1138 1126 1100 1108 1160 1082 1128 1096 1081 1128 1110 1103 1169 1141 1090 1098 1113 1109 1056 1108 1046 1115 1028 1148 1126 1056 1123 1057 1111 1139 1100 1126 1103 1073 1053 1085 1046 1070 1015 1085 1045 1062 1118 1034 1075 1051 1038 1042 1023 1049 1034 1075 1065 1067 1065 1086 990 1071 1061 1028 1038 1002 1041 1022 966 1115 1014 1010 1026 982 1052 1062 1075 1016 1152 1013 1010 983 1056 997 996 1077 993 1010 1031 1029 1009 1025 1031 988 1006 998 956 1014 1055 999 964 1080 1032 1069 993 1043 1011 1000 1028 1030 1003 988 979 991 1006 986 1074 1012 1003 966 1049 1051 1062 1074 1102 1020 1046 1071 1028 1063 1063 1091 1101 1073 1064 1135 1072 1043 1078 1111 1047 1106 1067 1061 1034 1046 1030 1063 1047 1077 1066 1096 1070 1073 1083 1066 1057 1069 1064 1127 1080 1057 1177 1090 1121 1154 1103 1154 1131 1123 1105 1125 1114 1091 1128 1107 1129 1078 1084 1065 1112 1113 1045 1058 1056 1006 1085 1042 1093 1027 1002 1051 1044 1104 998 1046 1049 1051 1047 1021 1063 1019 1114 1020 971 1009 1050 1041 1000 957 1051 1067 1093 990 1037 1040 1020 1031 1019 918 990 1024 987 1027 1057 968 1048 1030 995 1073 966 1070 1036 1037 1034 1000 1020 1012 1044 1041 1046 1004 1006 1061 983 1002 950 1008 959 983 959 1050 1008 959 1003 1063 970 982 1037 966 963 1039 1012 957 974 979 959 1000 1038 982 966 986 973 939 1005 929 960 916 928 977 959 973 939 1029 942 982 968 945 991 951 1006 934 997 980 974 913 1010 956 966 951 982 980 928 945 1012 951 918 922 931 948 939 975 998 956 937 954 937 940 940 924 929 939 982 936 955 933 897 903 889 947 974 949 914 885 914 1013 892 927 994 939 971 953 958 902 866 938 937 938 960 961 975 981 934 966 904 926 918 918 981 972 998 951 934 932 950 929 889 883 923 952 943 910 888 973 942 938 873 910 883 962 969 933 895 917 971 933 917 897 937 915 910 835 974 956 909 973 945 943 982 899 971 953 966 946 908 974 915 987 961 897 996 953 931 966 978 938 951 911 936 949 928 891 951 897 923 898 853 885 873 900 919 956 925 963 987 871 915 912 885 955 965 965 981 917 955 958 972 962 948 964 911 924 924 985 947 951 978 973 1009 927 985 901 899 974 1002 926 946 934 954 952 956 875 988 951 920 1021 938 998 964 930 873 948 980 980 1014 869 954 938 929 945 949 1019 963 995 941 987 923 943 972 980 918 1019 933 982 1029 945 1001 957 958 1003 971 944 997 940 973 1071 987 1021 1010 1044 1059 1125 1058 1101 1141 1073 1154 1137 1211 1123 1207 1210 1243 1209 1192 1250 1259 1286 1227 1213 1244 1234 1284 1247 1220 1231 1310 1238 1252 1218 1214 1267 1249 1270 1239 1254 1311 1298 1293 1340 1326 1377 1346 1302 1374 1402 1338 1331 1336 1386 1465 1383 1383 1329 1405 1369 1382 1360 1257 1348 1234 1287 1241 1208 1054 1073 999 1111 1088 1041 986 967 994 922 999 940 932 928 990 918 944 942 914 939 945 925 888 922 946 938 963 937 909 966 933 912 855 919 931 902 983 895 887 896 871 970 887 924 900 930 917 933 880 928 899 961 935 942 933 907 918 907 973 887 920 988 932 925 914 936 908 912 933 950 929 928 905 952 923 895 953 940 936 884 934 890 882 963 984 947 856 1029 920 941 933 916 958 951 955 908 921 931 930 912 921 933 931 1026 944 978 1003 987 941 966 936 931 967 947 1003 988 929 1026 1008 1070 982 948 992 961 915 1016 1024 976 994 979 925 1035 981 1027 997 1014 1015 1032 970 1013 1024 1003 993 970 941 1052 984 994 1032 974 1025 1025 1007 1028 974 1010 996 988 1037 1050 985 980 977 1004 1009 958 991 1012 984 997 957 953 987 966 1042 1010 913 1034 1006 1054 1039 982 1039 992 997 987 909 1017 966 1048 981 964 935 1025 1035 991 981 1029 969 1000 1029 1062 1065 1025 1025 1056 946 999 958 1005 1006 1014 994 1040 1026 1000 989 1056 1005 964 1021 1058 957 973 935 949 921 931 937 956 927 943 997 929 895 906 945 972 930 962 958 922 941 947 960 956 959 915 914 999 956 994 920 954 949 956 1003 997 1001 1005 985 968 911 992 945 998 979 965 1030 968 888 1005 973 952 951 999 973 1033 978 1033 1057 1027 1023 1034 1002 978 1073 1066 1081 1050 1064 1088 998 1094 1084 1050 1049 1096 1083 1125 1223 1079 1182 1158 1172 1185 1116 1112 1200 1156 1160 1156 1185 1192 1198 1125 1151 1107 1104 1157 1133 1214 1159 1231 1220 1132 1182 1170 1188 1206 1227 1183 1150 1173 1182 1171 1166 1192 1179 1273 1238 1288 1232 1209 1185 1169 1152 1094 1165 1088 1137 1102 1058 1158 1056 1097 1056 1084 1062 1077 1004 1002 988 923 978 943 988 973 920 1001 972 967 918 970 926 971 930 862 934 931 917 944 897 879 924 888 896 954 882 914 899 907 927 968 986 931 906 879 866 915 890 941 914 961 908 898 878 918 881 886 907 843 872 877 869 878 905 934 899 864 967 844 880 911 873 894 924 891 927 921 946 930 908 889 931 902 889 898 902 893 896 883 883 917 902 857 855 880 904 907 872 943 855 957 915 950 906 958 908 894 922 933 877 931 932 928 941 944 871 930 888 846 927 892 923 895 873 901 878 895 947 929 885 855 891 856 876 916 963 906 914 886 921 921 918 916 924 930 922 905 941 910 920 936 865 893 847 890 864 854 854 879 884 852 836 923 876 813 906 917 863 913 904 899 843 946 901 882 882 926 920 939 929 899 931 898 933 954 950 939 864 851 869 928 908 919 907 943 894 953 865 952 864 937 917 920 904 926 889 942 934 932 896 892 894 924 905 937 892 935 906 889 937 889 937 876 943 847 928 844 924 917 973 921 886 908 853 948 876 874 917 940 932 936 920 869 950 867 928 973 877 892 939 936 923 922 960 1013 972 1037 975 982 947 944 965 988 957 967 1025 1028 1009 1013 965 982 1011 1046 1020 1011 1067 1059 1040 1024 1061 1061 1004 1082 1082 1034 1039 996 1020 1023 1000 1062 1034 1041 1088 1070 1067 1071 1061 1100 1030 1101 1164 1211 1161 1174 1164 1180 1215 1161 1270 1208 1321 1292 1417 1340 1380 1393 1457 1494 1543 1476 1539 1578 1668 1675 1686 1772 1833 1840 1934 1981 2137 2070 2241 2285 2174 2209 2326 2304 2443 2420 2540 2372 2473 2530 2526 2433 2593 2590 2560 2529 2667 2668 2579 2662 2701 2658 2662 2677 2574 2682 2567 2649 2602 2556 2533 2647 2625 2695 2604 2635 2622 2635 2680 2703 2644 2570 2542 2440 2508 2395 2415 2324 2255 2153 2119 2139 2032 2023 1865 1806 1766 1788 1662 1618 1623 1482 1479 1335 1334 1311 1333 1268 1223 1172 1231 1093 1126 1106 1080 1097 1089 1060 1102 1063 1062 1012 1038 1046 1043 1021 1015 1008 1046 964 995 1021 1049 985 995 985 966 981 1047 1026 942 956 994 986 967 953 923 935 990 906 979 950 982 950 1005 924 942 926 980 997 938 940 948 895 962 946 944 906 942 992 946 948 934 933 914 959 930 970 982 886 976 936 920 992 944 1014 952 968 928 977 972 1015 977 918 871 931 953 939 974 935 915 959 902 972 891 971 959 949 987 910 929 927 901 976 919 968 893 972 909 916 935 945 982 920 947 994 905 934 922 952 943 920 923 876 880 943 905 950 921 945 907 954 960 952 882 924 930 900 936 911 917 975 987 995 959 989 974 997 955 1004 992 1026 1006 1017 1076 1030 1058 1007 1055 1042 1038 1054 1045 1022 1035 1027 1034 1081 1075 1122 1052 1026 1013 1087 1058 1072 1052 1057 1087 1003 1057 1028 1014 1056 1023 1065 1006 1116 1119 1024 1100 1081 1042 1068 1043 1024 1112 997 1049 1022 1069 1082 1090 1008 1060 988 974 1070 989 1026 995 977 961 998 921 986 983 998 958 960 989 946 1013 972 959 965 973 965 907 1039 928 931 975 994 995 951 932 940 955 957 916 933 936 968 964 835 957 962 936 894 898 910 856 916 900 876 905 903 934 857 924 909 897 927 924 887 946 829 883 894 874 886 912 904 840 873 900 861 825 841 894 895 874 870 812 814 858 893 931 872 881 885 911 944 862 886 920 942 884 874 849 856 884 844 937 897 901 867 909 849 900 892 887 924 811 926 881 894 876 873 924 918 948 902 920 896 927 881 908 951 894 875 884 881 870 909 893 827 879 853 848 807 917 863 849 813 872 860 878 827 879 871 863 863 919 923 950 858 871 918 944 902 932 886 918 929 914 954 878 915 929 919 898 897 926 932 949 890 962 873 985 895 913 961 992 851 967 953 943 1014 904 972 872 979 969 918 959 891 909 892 905 925 1001 985 871 976 918 960 879 859 899 899 909 865 892 856 925 890 921 833 834 870 871 862 822 789 887 780 794 868 849 845 840 735 800 827 872 845 787 860 864 820 851 820 788 819 835 816 823 830 836 853 870 837 879 794 880 813 854 815 861 798 820 846 811 835 829 841 787 820 858 881 855 812 853 810 843 772 870 875 837 872 848 859 792 861 862 853 826 845 843 847 855 856 861 875 838 820 861 900 877 915 875 880 880 829 823 888 817 828 903 816 837 868 827 815 868 850 828 823 818 846 875 856 811 847 858 881 817 859 791 849 833 854 802 838 830 841 795 894 819 819 815 786 823 786 852 859 800 858 799 816 762 824 822 785 879 853 842 824 825 861 804 836 812 784 796 778 842 817 835 823 747 814 782 815 786 852 871 814 831 763 780 788 791 761 810 778 801 811 844 815 797 831 800 859 809 850 832 803 851 814 823 795 823 801 850 798 770 784 838 803 832 830 836 803 824 795 772 839 784 812 779 802 831 841 810 790 849 782 799 817 818 819 847 803 801 825 786 840 794 744 800 761 793 826 818 807 860 780 800 855 875 839 824 871 798 850 764 814 791 833 834 833 818 802 910 809 837 839 808 818 789 838 846 850 794 828 826 820 819 860 867 797 813 791 793 829 824 845 826 818 863 861 846 821 833 818 861 840 843 859 884 836 911 844 847 875 806 883 887 871 871 866 845 850 874 887 818 852 876 858 817 883 862 898 889 890 958 892 894 857 866 867 860 831 862 879 918 930 872 923 865 859 906 907 920 893 914 894 885 870 872 881 831 838 908 885 843 818 858 885 866 911 887 867 881 910 948 915 940 917 964 920 949 969 910 947 918 995 997 990 985 1005 951 997 926 989 992 980 1002 963 1017 1003 1042 992 955 922 1075 1009 992 981 1036 987 1001 981 1061 1023 1044 1030 1030 1027 1007 1074 1011 1016 1031 1038 1043 1032 989 970 960 1005 1028 961 952 937 940 896 929 917 946 895 951 930 959 926 895 898 882 867 910 884 835 860 842 862 850 835 852 854 858 834 890 888 834 816 854 872 839 895 889 850 823 810 842 893 857 895 892 935 891 929 985 905 875 875 956 873 940 917 954 989 991 903 930 903 972 878 926 905 949 967 916 969 901 939 933 961 923 983 943 948 914 926 934 963 985 1004 981 947 918 968 932 948 916 951 1010 889 933 903 885 946 953 927 900 879 963 874 894 892 876 892 897 894 854 857 896 852 858 927 936 872 885 810 925 927 899 933 914 890 864 922 906 905 896 978 940 952 914 927 914 966 902 908 971 886 916 904 930 933 883 888 919 948 888 925 972 851 913 895 845 932 987 963 897 896 969 864 887 905 933 922 905 918 892 938 877 910 870 863 865 902 945 842 858 848 831 885 857 876 872 873 890 928 867 933 929 933 873 887 851 909 886 998 905 947 928 949 914 1026 1076 982 1076 1047 1010 1046 1099 1095 1083 1123 1095 1150 1184 1178 1172 1099 1149 1225 1173 1135 1157 1180 1178 1234 1172 1257 1188 1192 1270 1250 1273 1194 1213 1302 1221 1266 1255 1214 1273 1289 1308 1254 1222 1270 1257 1297 1298 1308 1346 1225 1243 1208 1205 1209 1151 1201 1153 1182 1122 1168 1079 1091 1087 1076 1083 1016 1082 973 1014 1034 986 976 965 945 984 925 929 901 909 914 879 831 858 828 853 826 807 977 858 899 873 909 821 837 822 861 834 836 818 857 826 830 858 795 887 781 853 858 768 856 829 862 838 798 805 805 810 800 820 851 846 804 863 810 843 856 810 838 844 828 815 791 792 776 893 834 859 866 837 816 808 781 874 868 808 813 875 797 806 805 769 851 825 815 870 826 861 863 817 832 821 820 840 844 830 820 836 783 886 822 819 868 845 822 829 877 845 835 816 787 793 872 842 860 820 857 807 868 866 758 817 829 798 826 824 883 904 869 880 874 901 917 851 902 925 887 885 869 859 829 882 906 899 932 863 884 887 864 931 916 944 935 925 858 902 943 889 950 906 876 908 948 888 902 948 883 892 920 941 923 892 881 858 865 880 921 826 874 876 836 930 888 818 862 844 852 919 846 818 858 857 817 853 900 832 815 823 832 843 864 825 804 768 807 802 760 838 770 840 797 830 817 753 834 802 813 821 842 802 785 788 793 780 800 820 817 811 798 829 814 784 784 803 776 827 794 807 799 824 811 866 850 794 785 768 783 845 775 765 775 777 788 768 783 778 739 754 845 765 788 778 816 736 810 757 840 734 847 792 771 797 776 775 790 825 776 807 787 817 755 778 770 758 744 805 762 750 811 771 799 758 806 821 811 795 810 806 781 771 795 791 817 809 798 801 863 751 837 816 730 782 816 805 762 766 776 748 826 773 781 788 784 771 792 801 773 781 792 792 806 846 800 761 801 825 815 778 822 835 863 788 804 835 830 820 735 843 823 815 785 862 845 871 846 884 807 822 865 835 846 887 819 829 858 859 878 835 845 837 904 848 849 899 880 911 853 893 879 865 910 910 859 876 906 864 854 903 864 905 866 883 852 859 844 796 835 798 807 827 888 820 823 770 857 809 815 794 775 849 805 824 826 801 824 732 746 720 767 810 792 835 756 770 795 772 780 790 741 766 815 788 787 781 831 751 728 790 773 766 785 757 839 743 790 813 765 788 731 800 796 810 843 750 773 782 790 793 768 777 778 779 781 804 753 835 803 761 814 785 762 792 769 807 760 818 774 756 753 769 818 782 811 846 839 804 773 778 754 850 804 829 806 780 752 838 763 746 814 825 813 807 801 790 832 861 845 783 810 816 783 792 806 793 825 771 770 766 780 818 789 812 806 752 809 818 782 844 815 804 785 829 841 823 802 814 774 824 767 797 756 799 767 755 796 807 808 824 787 758 781 783 831 790 838 819 778 824 792 853 797 826 800 747 783 776 793 780 793 773 767 847 779 789 817 812 846 833 807 861 857 769 782 837 802 789 814 781 802 767 859 825 865 826 819 762 824 869 831 834 812 789 813 866 880 851 838 824 863 806 852 828 816 822 788 831 807 872 853 806 824 814 835 882 860 796 844 777 797 824 837 788 818 835 829 827 820 838 800 804 844 870 815 826 810 875 852 824 818 936 789 804 885 814 829 829 888 897 853 855 830 866 879 829 879 857 847 913 843 864 872 867 829 799 790 838 773 829 805 788 787 821 843 782 853 809 744 786 806 820 793 825 859 806 786 784 782 813 738 777 813 770 779 817 770 843 748 773 825 794 762 767 787 834 759 763 782 740 788 843 762 775 808 763 846 780 809 835 789 759 776 787 847 815 829 825 773 881 799 783 746 779 759 822 801 798 872 865 775 812 759 757 818 827 818 820 830 865 837 849 773 830 823 797 796 741 826 756 844 793 775 782 723 716 780 791 783 809 794 778 767 763 785 872 717 787 800 777 875 781 818 753 768 761 767 822 786 813 808 753 779 712 801 788 752 798 778 767 779 788 780 813 779 765 796 759 719 733 771 765 761 790 767 786 796 773 786 753 799 752 780 761 783 741 739 765 762 788 767 751 807 750 829 800 743 770 786 796 785 806 785 818 768 836 858 802 746 810 796 794 793 844 774 774 807 795 762 811 790 842 803 836 789 789 831 788 795 877 790 813 849 787 826 797 853 805 824 740 839 778 775 824 833 768 811 814 807 816 895 835 786 792 837 783 786 846 820 836 844 802 855 793 804 854 824 814 772 788 846 864 854 846 835 855 894 887 883 835 861 864 877 888 884 976 914 893 892 937 931 895 939 878 984 966 965 987 972 948 986 934 915 999 954 992 960 1019 968 1005 1003 1039 1011 943 986 972 987 986 1020 985 985 1032 969 1000 932 939 942 925 865 916 920 857 888 876 900 894 813 892 867 859 876 852 830 864 878 814 837 824 733 801 866 795 833 786 805 826 803 789 722 784 750 819 836 783 819 826 776 785 803 745 772 769 772 766 796 789 770 720 827 809 800 791 761 817 752 789 738 816 774 760 783 704 800 681 736 773 818 813 804 815 779 759 732 749 806 780 788 753 773 775 781 781 765 799 787 815 775 718 852 805 805 749 784 773 817 794 805 722 759 739 763 771 819 733 839 758 830 750 753 777 766 818 844 787 812 782 784 785 769 742 815 761 801 773 808 829 783 769 770 758 779 784 786 787 778 781 791 761 769 789 763 744 779 777 730 836 769 804 783 765 775 759 775 754 757 811 756 827 792 846 802 750 798 768 834 803 831 777 769 834 790 798 796 827 784 753 811 812 808 813 781 764 778 800 795 772 818 780 812 787 810 773 750 792 843 740 804 754 751 824 805 776 812 774 740 791 789 789 749 770 795 796 770 829 719 829 763 777 789 741 807 801 794 787 782 767 750 792 810 762 778 819 833 789 759 822 806 802 777 785 819 826 798 783 787 833 747 741 812 724 739 761 797 745 759 793 820 824 802 790 821 823 774 817 811 832 785 831 806 821 777 816 763 816 810 771 827 804 794 746 804 837 753 774 797 779 784 762 758 785 798 787 768 792 836 770 791 805 837 818 783 810 819 873 843 809 773 788 832 795 763 776 873 801 827 815 847 830 783 768 800 806 799 728 838 818 819 871 828 783 811 743 839 771 745 832 801 830 782 770 778 777 792 730 798 775 864 850 773 791 787 836 738 796 760 751 739 783 823 814 777 725 793 829 781 779 771 827 841 773 809 798 714 743 755 819 795 744 758 731 773 838 751 785 784 800 765 762 723 745 805 788 791 739 820 798 765 778 721 773 746 818 746 763 796 789 779 797 806 757 822 757 764 776 745 756 807 766 780 746 804 827 766 768 753 762 802 832 782 789 758 810 769 738 735 717 763 740 790 767 789 786 759 801 771 789 829 803 788 835 776 765 807 785 811 748 809 798 792 812 799 794 776 771 774 787 788 805 772 794 778 771 771 800 740 768 774 772 795 803 795 804 795 776 821 768 756 824 798 771 831 741 778 755 794 758 823 745 824 786 804 752 808 760 792 817 764 810 742 791 778 746 787 791 787 794 825 792 872 778 823 790 830 762 839 817 821 783 798 798 765 835 818 779 786 774 821 790 805 813 775 811 832 764 836 736 755 802 763 778 778 806 733 810 796 777 764 760 766 767 751 799 827 778 862 825 794 797 746 805 855 794 800 753 786 728 870 779 827 792 798 824 796 782 827 804 767 824 795 870 855 822 763 800 787 803 846 865 868 855 840 875 802 837 887 841 861 838 828 760 813 865 841 841 868 826 869 853 804 885 891 815 802 785 846 857 868 756 846 777 809 805 846 895 885 811 880 851 818 828 852 795 858 856 924 843 826 802 883 828 869 829 850 829 801 863 842 823 838 871 837 830 844 905 877 808 804 881 820 843 924 876 919 835 824 856 876 822 834 828 861 851 921 825 843 814 832 844 860 919 838 855 807 835 791 896 748 864 846 865 808 845 890 805 802 868 862 868 833 883 813 866 818 807 813 860 813 837 819 896 848 829 869 860 819 924 848 860 847 883 921 847 897 811 885 830 887 893 866 859 879 939 871 870 957 911 857 886 900 880 871 862 851 880 886 885 872 907 839 914 878 847 873 867 881 912 840 920 926 909 893 843 846 892 876 878 834 898 852 883 827 892 867 897 833 891 818 871 854 863 804 838 832 764 819 817 859 856 888 784 842 827 900 836 794 804 862 762 815 815 852 833 867 808 880 890 831 846 837 803 846 787 862 842 754 846 871 911 800 798 936 893 875 853 821 869 854 849 874 874 908 834 874 899 841 862 875 840 840 866 788 902 851 874 859 945 921 910 939 910 899 923 908 910 934 925 913 898 975 937 944 934 988 925 1000 962 999 991 999 1026 1094 1067 1087 1021 1105 1123 1112 1060 1227 1094 1175 1180 1157 1166 1218 1173 1173 1177 1231 1224 1264 1256 1200 1279 1237 1309 1319 1304 1329 1297 1361 1302 1252 1294 1305 1263 1254 1348 1367 1326 1237 1247 1246 1225 1277 1241 1250 1141 1191 1175 1189 1153 1226 1106 1222 1184 1147 1140 1057 1071 1118 1069 1138 1078 1127 1041 1099 1021 1002 1023 994 996 988 993 926 949 995 928 936 934 949 910 918 914 876 844 846 821 916 900 850 784 853 858 833 836 820 812 811 837 815 823 848 851 797 852 852 806 809 794 803 842 802 808 806 824 859 843 806 861 811 808 835 771 869 839 781 803 773 785 831 809 800 831 811 816 819 744 831 826 765 818 814 800 858 789 826 861 836 855 846 804 821 845 837 847 795 809 797 798 828 799 840 828 814 810 743 820 819 864 857 847 833 799 840 830 895 854 830 828 782 829 831 840 808 840 894 827 828 892 793 870 798 838 852 798 810 866 793 861 851 813 886 828 840 812 836 802 834 882 847 852 814 826 778 888 814 811 879 812 772 787 792 845 813 815 847 833 858 807 846 813 763 797 806 794 834 816 746 792 783 784 793 790 813 737 804 822 827 809 802 802 785 772 759 725 793 783 801 825 777 818 782 763 719 787 784 791 746 808 769 812 832 802 781 803 817 803 821 797 765 844 840 840 800 785 776 824 776 791 837 811 823 762 802 837 784 780 788 786 830 793 822 757 875 805 823 829 814 881 805 807 802 831 811 781 819 835 812 780 816 841 809 793 755 766 812 755 788 814 779 766 785 763 791 802 861 788 796 832 815 774 820 747 758 802 815 787 803 817 845 852 808 860 783 806 908 759 896 806 864 846 821 863 835 812 870 820 876 805 839 854 858 858 865 802 928 867 878 835 882 898 881 886 895 806 873 855 859 904 880 891 893 876 893 862 890 839 865 914 874 917 852 838 851 829 821 807 908 824 818 815 853 801 848 828 829 846 778 854 798 815 782 874 832 830 801 822 849 795 770 812 823 788 808 803 799 746 724 799 751 758 774 843 760 798 769 776 785 806 788 790 774 795 790 719 770 834 769 771 770 778 767 810 777 744 812 754 775 784 809 779 815 765 813 758 797 765 816 839 825 849 792 786 777 773 754 803 788 809 778 815 835 796 827 852 764 820 762 776 777 773 813 780 805 771 753 815 821 863 816 795 775 798 792 835 759 839 824 787 757 822 799 793 820 788 859 799 825 789 803 782 738 794 783 767 824 802 811 788 805 784 819 776 784 807 815 771 755 741 797 810 789 842 790 765 808 747 757 752 782 795 777 759 838 781 731 718 789 816 823 754 778 763 762 749 796 776 752 769 809 739 738 795 791 779 803 831 827 766 800 791 772 786 763 780 824 772 801 781 786 771 769 773 820 784 790 795 751 780 798 760 788 798 752 831 794 779 842 785 820 848 776 792 779 788 788 795 818 789 865 836 811 797 838 839 801 815 821 792 823 783 804 799 784 870 855 796 797 789 803 835 830 784 840 794 813 861 784 722 809 857 822 851 914 829 884 818 809 819 783 846 836 858 826 848 854 816 860 821 835 896 820 843 822 811 775 819 857 844 844 805 734 761 747 845 848 784 846 838 830 842 780 780 779 817 863 802 831 814 823 799 777 735 724 806 752 767 772 762 837 799 773 787 761 782 807 793 793 763 803 815 822 813 815 801 789 795 799 781 744 766 776 737 794 785 757 828 838 767 798 814 786 773 781 798 784 763 761 765 800 788 834 772 772 758 823 826 745 806 822 761 849 834 790 809 783 807 818 820 830 810 801 846 811 807 817 747 813 764 787 830 801 787 777 877 809 836 785 870 839 826 785 838 832 844 855 788 795 780 809 799 819 810 812 768 817 824 797 803 750 760 781 735 807 792 829 834 826 802 764 868 787 813 780 767 783 815 774 797 801 821 792 766 838 822 850 817 815 811 770 801 848 796 828 757 764 850 855 829 811 811 849 828 869 802 823 810 858 848 795 865 827 836 863 855 839 813 827 869 841 868 866 826 858 854 832 894 860 837 895 899 860 860 907 913 925 902 925 930 955 873 947 926 913 948 969 983 959 1033 1005 988 1035 1018 1051 1052 1004 1064 1022 1069 1009 1015 993 1095 1116 1089 1042 1120 1045 1090 1069 1105 1029 1082 1067 1108 1107 1189 1114 1162 1166 1094 1076 1094 1085 1097 1064 1099 1028 1079 1023 1047 1031 1045 1015 1008 957 991 998 1000 991 1002 966 996 1015 909 985 899 955 915 941 976 864 984 879 966 911 911 882 910 848 881 870 833 880 896 830 904 865 862 832 869 805 824 804 806 895 825 779 877 787 766 845 814 820 831 770 778 839 802 796 756 816 718 805 781 813 816 768 783 804 793 859 823 795 781 774 739 845 835 839 769 753 793 823 767 761 763 760 749 786 801 808 752 816 756 774 773 848 792 776 851 815 809 753 857 775 791 797 776 790 845 800 797 840 796 815 767 796 809 825 768 787 782 814 832 868 792 852 789 801 798 785 811 818 828 771 871 823 782 849 768 856 784 864 796 827 780 837 889 846 841 861 839 852 800 847 807 808 817 794 876 778 871 835 814 841 829 827 788 843 766 797 828 814 819 778 811 833 790 844 834 827 792 824 860 788 802 741 775 777 755 749 838 783 800 815 841 784 777 774 747 781 844 746 770 839 796 782 766 764 774 767 785 784 792 771 801 798 766 856 745 751 752 773 748 791 817 746 835 866 781 801 778 761 826 800 756 791 780 763 827 814 791 774 794 768 765 788 783 750 730 812 798 776 821 812 839 821 836 891 822 753 785 755 806 785 788 799 760 836 822 803 781 823 776 795 865 778 800 776 835 835 838 829 817 782 780 847 801 848 784 793 827 812 846 774 848 822 851 811 831 782 778 814 797 834 834 810 801 793 817 827 774 876 831 772 864 812 754 715 785 870 813 805 781 760 758 777 789 776 805 834 810 787 791 849 811 763 818 770 767 754 766 777 794 770 779 766 771 765 774 760 775 753 818 795 780 804 783 756 802 779 798 796 795 779 750 790 798 808 763 796 788 734 750 749 781 789 749 760 780 770 771 768 801 699 758 772 797 823 790 766 770 740 755 814 729 746 793 815 764 761 762 741 801 763 797 760 810 754 829 767 742 740 740 803 760 742 802 744 825 741 736 769 767 734 775 725 799 787 756 771 771 732 791 706 718 785 732 774 797 773 789 823 764 786 802 777 727 773 734 736 783 794 808 747 727 815 802 785 755 697 707 768 815 769 779 787 766 754 807 722 738 744 772 748 746 803 783 794 775 794 803 879 786 779 760 749 783 777 746 747 771 811 763 819 760 718 788 846 769 807 769 787 819 836 792 719 790 814 760 829 804 753 788 753 760 767 786 809 742 757 753 799 743 834 726 809 773 798 779 763 825 773 763 725 793 790 828 749 753 794 828 750 769 755 776 817 837 781 812 794 785 758 752 760 774 770 748 852 759 758 782 721 824 777 851 856 797 815 801 860 811 829 792 793 771 823 864 858 822 873 857 803 772 817 878 829 820 828 785 836 841 884 863 847 811 868 812 778 847 800 845 893 873 841 842 861 845 792 874 866 812 827 878 848 856 835 845 855 831 836 877 863 827 846 879 849 841 850 854 769 834 879 875 917 828 898 847 784 811 871 805 853 831 810 809 872 776 838 778 830 835 834 788 832 876 874 830 783 837 843 820 840 771 836 802 774 817 790 795 843 882 815 893 796 872 740 820 824 804 843 776 889 823 829 810 861 811 836 788 788 794 863 804 871 741 811 796 807 825 846 802 827 825 843 752</counts>
			</dataPoints>
		</scan>
	</xrdMeasurement>
</xrdMeasurements>
