<?xml version="1.0"?>
<xrdMeasurements xmlns="http://www.xrdml.com/XRDMeasurement/2.3" xmlns:xsi="http://www.w3.org/2001/XMLSchema-instance" xsi:schemaLocation="http://www.xrdml.com/XRDMeasurement/2.3 http://www.xrdml.com/XRDMeasurement/2.3/XRDMeasurement.xsd" status="Completed" recordIdentifier="{A71C13EC-14B5-4607-9F12-DD7B9EF727DE}">
	<comment>
		<entry/>
	</comment>
	<sample type="To be analyzed">
		<id>GPSS_Li1p5Mn0p5Bi0p3V0p2Cl4_121325_693cb366f4d05ae3d69752af</id>
		<name></name>
		<preparedBy></preparedBy>
	</sample>
	<xrdMeasurement measurementType="Scan" status="Completed" sampleMode="Reflection">
		<usedWavelength intended="K-Alpha 1">
			<kAlpha1 unit="Angstrom">1.5405980</kAlpha1>
			<kAlpha2 unit="Angstrom">1.5444260</kAlpha2>
			<kBeta unit="Angstrom">1.3922500</kBeta>
			<ratioKAlpha2KAlpha1>0.5000</ratioKAlpha2KAlpha1>
		</usedWavelength>
		<incidentBeamPath>
			<radius unit="mm">145.00</radius>
			<xRayTube id="1010048" name="Empyrean Cu LFF HR (9430 033 7310x)">
				<tension unit="kV">40.0</tension>
				<current unit="mA">15.0</current>
				<anodeMaterial>Cu</anodeMaterial>
				<focus type="Line">
					<length unit="mm">12.0</length>
					<width unit="mm">0.4</width>
					<takeOffAngle unit="deg">6.0</takeOffAngle>
				</focus>
			</xRayTube>
			<sollerSlit id="21010002" name="Soller slits 0.04 rad.">
				<opening unit="rad">0.0400</opening>
			</sollerSlit>
			<mask id="22031000" name="Fixed mask 13 mm">
				<width unit="mm">9.00</width>
			</mask>
			<divergenceSlit id="22120001" name="Divergence slit 1°" xsi:type="fixedDivergenceSlitType">
				<distanceToSample unit="mm">50.00</distanceToSample>
				<height unit="mm">1.52</height>
			</divergenceSlit>
		</incidentBeamPath>
		<sampleMovement xsi:type="spinningSampleMovementType">
			<spinnerRevolutionTime unit="seconds">1.0</spinnerRevolutionTime>
		</sampleMovement>
		<diffractedBeamPath>
			<radius unit="mm">145.00</radius>
			<antiScatterSlit id="22090040" name="AS slit 9 mm (PIXcel)" xsi:type="fixedAntiScatterSlitType">
				<height unit="mm">9.00</height>
			</antiScatterSlit>
			<sollerSlit id="21020003" name="Large Soller slits 0.04 rad.">
				<opening unit="rad">0.0400</opening>
			</sollerSlit>
			<filter id="20030001" name="Large beta-filter Nickel">
				<material>Ni</material>
				<thickness unit="mm">0.020</thickness>
			</filter>
			<detector id="7010019" name="PIXcel1D-Medipix3 detector" xsi:type="rtmsDetectorType">
				<phd unit="keV">
					<lowerLevel>4.02</lowerLevel>
					<upperLevel>11.27</upperLevel>
				</phd>
				<mode>Scanning</mode>
				<activeLength unit="deg">5.542</activeLength>
			</detector>
		</diffractedBeamPath>
		<scan appendNumber="0" mode="Continuous" scanAxis="Gonio" status="Completed">
			<header>
				<startTimeStamp>2025-12-16T13:15:51-08:00</startTimeStamp>
				<endTimeStamp>2025-12-16T13:23:58-08:00</endTimeStamp>
				<author>
					<name>AutomatedUser</name>
				</author>
				<source>
					<applicationSoftware version="1.7b (136)">PANalytical Aeris Instrument Suite</applicationSoftware>
					<instrumentControlSoftware version="3.2.00000000 20240306">AERIS</instrumentControlSoftware>
					<instrumentID>950485</instrumentID>
				</source>
			</header>
			<dataPoints>
				<positions axis="2Theta" unit="deg">
					<startPosition>10.00943322</startPosition>
					<endPosition>99.99442286</endPosition>
				</positions>
				<positions axis="Omega" unit="deg">
					<startPosition>5.00471661</startPosition>
					<endPosition>49.99721143</endPosition>
				</positions>
				<commonCountingTime unit="seconds">12.495</commonCountingTime>
				<counts unit="counts">2980 3040 3047 2908 3055 3029 3026 2970 2882 2985 2915 3077 3013 2963 3013 3063 2951 2979 2960 3004 3022 3042 3063 2982 3069 3052 3006 2969 2947 3070 3034 2947 3084 3082 3089 3095 3020 3062 2983 3064 2973 3073 2982 3065 3036 3089 2955 2992 3213 3027 3000 3057 3070 3095 3054 3026 3013 2981 3093 3107 3070 3115 3182 3103 3082 3112 3074 3158 3136 3168 3023 3146 3163 3110 3179 3052 3222 3141 3146 3226 3137 3146 3124 3140 3205 3263 3187 3264 3260 3174 3090 3207 3134 3132 3242 3241 3295 3175 3309 3215 3195 3229 3308 3136 3242 3196 3240 3101 3263 3184 3203 3215 3215 3229 3240 3273 3300 3129 3152 3215 3097 3210 3242 3228 3265 3200 3259 3227 3300 3167 3222 3269 3214 3211 3189 3352 3286 3220 3161 3245 3259 3266 3240 3177 3219 3133 3259 3127 3247 3167 3238 3229 3199 3274 3241 3191 3227 3168 3290 3058 3122 3239 3168 3224 3114 3198 3180 3178 3146 3234 3200 3200 3262 3204 3260 3269 3193 3157 3163 3144 3243 3178 3118 3220 3161 3130 3186 3136 3143 3192 3111 3070 3210 3090 3177 3120 3183 3162 3149 3125 3133 3153 3149 3094 3095 3055 3250 3024 3193 3130 3139 3097 3132 3161 3087 3065 3099 3009 3110 3145 3018 3125 3090 3127 3119 3030 3170 3101 3066 3088 3105 3136 2933 3044 3063 3046 3008 2997 3097 2998 3097 3115 3136 3112 3069 3077 3011 3118 3067 2956 3091 3043 2977 2948 3085 3023 2954 2954 3024 2963 3101 3064 3072 2955 3084 2950 2973 3013 2985 3017 3017 2965 2966 3030 3088 3037 2952 2973 3056 2990 3074 3087 3057 3120 3022 2994 3058 3001 3012 2955 2981 2927 2991 3116 3013 2970 3047 2987 2937 2971 3142 3003 3089 3041 3100 2952 3122 3018 3084 2984 3047 2998 3145 3029 3102 3016 3045 3032 3003 3092 3064 3046 3094 3142 2951 3023 2936 2957 3101 2986 3112 3065 3220 3074 3147 3129 3191 3113 3084 3058 3166 3069 3202 3138 3211 3002 3174 3181 3132 3183 3107 3179 3125 3084 3214 3152 3125 3216 3212 3161 3217 3089 3060 3165 3194 3178 3192 3230 3208 3191 3268 3202 3287 3260 3226 3302 3188 3278 3277 3244 3313 3338 3240 3309 3386 3352 3359 3345 3287 3405 3382 3396 3408 3356 3393 3444 3416 3494 3543 3378 3625 3463 3525 3625 3713 3761 3754 3907 3943 3922 4106 4240 4087 4266 4112 4148 4162 3993 4085 3991 4031 4064 3943 3907 4188 3974 3952 4031 4200 4172 4094 4058 4032 4108 4107 3905 4042 4003 4092 4034 3901 3982 3816 3911 3980 3927 3932 3905 3934 3935 3844 3889 3791 3907 3922 3914 3863 3980 3858 3768 3831 3915 3952 3790 3834 3826 3682 3941 3800 3711 3677 3703 3683 3593 3566 3650 3443 3569 3604 3550 3470 3482 3381 3427 3412 3521 3460 3454 3463 3410 3577 3391 3327 3324 3469 3355 3394 3418 3348 3333 3239 3278 3442 3256 3427 3249 3161 3295 3215 3311 3276 3225 3284 3232 3247 3179 3130 3241 3165 3236 3112 3169 3168 3181 3070 3093 3122 3106 3105 3140 3179 3099 3162 3129 3038 3135 3150 3088 2968 3193 3099 3013 3065 3070 2971 3009 3120 3033 2979 3018 3036 2957 3020 2947 2953 2942 2974 3081 3033 2885 2993 3043 3029 3050 3001 3000 2961 3061 3070 2886 2997 2877 2958 2934 2965 2912 2956 2894 2872 2989 3037 2923 2966 2927 2894 3033 3055 2904 2955 2842 2837 2901 2889 2985 2804 2802 2828 2822 2892 2899 2960 2836 2988 2815 2824 2889 2767 2899 2954 2754 2855 2892 2892 2915 2775 2828 2918 2846 2891 2753 2842 2833 2882 2886 2818 2786 2903 2865 2776 2870 2883 2848 2809 2901 2942 2888 2894 2908 2816 2824 2786 2780 2863 2939 2884 2902 2895 2947 2916 2925 2809 2793 2810 2779 2825 2805 2889 2827 2798 2863 2820 2801 2830 2857 2865 2774 2883 2810 2825 2789 2900 2775 2777 2862 2858 2838 2936 2773 2961 2807 2775 2696 2787 2790 2769 2732 2845 2875 2804 2786 2799 2761 2705 2738 2735 2819 2798 2854 2746 2742 2779 2772 2695 2786 2732 2743 2774 2800 2770 2637 2766 2797 2769 2766 2830 2643 2717 2815 2724 2705 2640 2778 2726 2666 2739 2803 2624 2687 2808 2740 2774 2741 2731 2792 2697 2748 2652 2729 2832 2696 2684 2654 2711 2690 2693 2753 2715 2643 2690 2778 2712 2650 2673 2740 2635 2761 2731 2640 2731 2658 2677 2641 2807 2695 2645 2664 2796 2747 2677 2789 2716 2765 2582 2731 2672 2676 2779 2790 2575 2665 2699 2684 2609 2636 2572 2652 2576 2605 2686 2647 2587 2622 2715 2476 2674 2586 2598 2624 2624 2687 2720 2623 2674 2712 2636 2561 2572 2649 2675 2623 2751 2660 2566 2617 2657 2604 2653 2530 2691 2727 2566 2580 2609 2701 2596 2599 2675 2628 2564 2632 2496 2563 2607 2524 2617 2619 2578 2632 2566 2612 2621 2622 2573 2658 2664 2508 2544 2573 2646 2582 2552 2616 2655 2647 2481 2624 2616 2505 2638 2607 2620 2569 2528 2539 2521 2509 2578 2501 2520 2593 2590 2541 2477 2539 2470 2587 2435 2513 2543 2539 2444 2516 2515 2520 2504 2530 2557 2560 2560 2513 2572 2566 2581 2455 2563 2551 2490 2535 2545 2536 2407 2430 2555 2490 2567 2590 2443 2518 2398 2335 2536 2529 2490 2447 2477 2462 2536 2457 2480 2483 2505 2511 2431 2438 2445 2493 2383 2456 2389 2459 2476 2438 2491 2438 2438 2406 2370 2445 2460 2405 2343 2426 2512 2471 2390 2403 2471 2424 2364 2430 2332 2377 2447 2453 2487 2383 2316 2373 2389 2427 2408 2410 2519 2446 2489 2374 2365 2318 2405 2387 2361 2392 2450 2478 2348 2533 2434 2378 2388 2387 2421 2372 2362 2387 2425 2387 2439 2278 2355 2390 2498 2458 2366 2413 2388 2362 2369 2436 2367 2430 2419 2401 2441 2387 2366 2337 2427 2335 2503 2406 2391 2391 2404 2348 2495 2425 2315 2391 2327 2384 2349 2416 2380 2390 2408 2386 2354 2341 2394 2333 2429 2441 2363 2376 2448 2322 2462 2340 2337 2466 2404 2439 2325 2373 2395 2395 2325 2399 2449 2346 2379 2393 2341 2362 2403 2348 2333 2413 2305 2481 2393 2349 2397 2373 2393 2350 2378 2442 2454 2403 2404 2349 2399 2457 2441 2398 2382 2372 2343 2321 2429 2393 2386 2400 2430 2429 2326 2282 2340 2391 2448 2515 2302 2468 2355 2385 2429 2367 2385 2329 2315 2321 2344 2447 2344 2349 2374 2314 2371 2307 2467 2249 2322 2334 2318 2268 2344 2369 2407 2340 2299 2309 2448 2310 2424 2320 2274 2379 2327 2388 2255 2278 2288 2275 2321 2297 2233 2308 2300 2298 2193 2376 2229 2327 2275 2382 2319 2263 2280 2167 2274 2225 2273 2354 2231 2207 2238 2241 2186 2276 2252 2213 2221 2253 2170 2197 2221 2221 2170 2209 2237 2243 2162 2139 2119 2117 2203 2098 2167 2174 2095 2155 2180 2171 2164 2106 2137 2061 2091 2119 2047 2111 2145 2209 2104 2052 2101 2143 2120 2036 2124 2084 2055 2047 2063 2057 2106 2078 2075 2011 2028 1970 2051 1982 1981 2040 2015 2084 2028 2037 2018 2059 2008 2046 1989 2027 1928 2008 2029 2029 1951 1893 1967 1965 1948 1977 1895 2002 1979 1946 1996 1971 1891 1950 1828 1904 2010 1920 2018 1968 1980 1906 2001 1939 1904 1887 1897 1866 1950 1898 1862 1860 1947 1917 1813 1894 1960 1804 1880 1972 1873 1851 1828 1925 1832 1898 1823 1861 1844 1804 1950 1842 1810 1885 1849 1865 1875 1891 1859 1809 1895 1794 1916 1840 1812 1886 1822 1875 1864 1873 1933 1839 1829 1795 1811 1860 1893 1834 1783 1783 1838 1832 1823 1769 1781 1838 1766 1761 1749 1871 1874 1793 1785 1730 1793 1770 1781 1780 1858 1755 1804 1809 1689 1761 1760 1756 1737 1771 1710 1732 1791 1794 1819 1732 1852 1793 1750 1760 1766 1759 1801 1750 1738 1838 1680 1760 1740 1690 1724 1813 1686 1737 1842 1680 1741 1713 1707 1735 1708 1716 1771 1814 1666 1707 1739 1768 1717 1711 1770 1760 1670 1732 1701 1747 1635 1785 1715 1703 1632 1665 1762 1753 1748 1835 1616 1814 1731 1712 1758 1769 1727 1655 1675 1666 1698 1709 1689 1757 1720 1748 1718 1838 1766 1733 1731 1764 1712 1720 1657 1742 1728 1736 1664 1699 1731 1735 1670 1717 1769 1725 1698 1796 1750 1720 1688 1725 1724 1770 1749 1729 1713 1778 1758 1762 1743 1767 1749 1822 1729 1814 1673 1732 1733 1724 1754 1838 1760 1713 1753 1752 1754 1784 1747 1761 1776 1719 1765 1830 1796 1804 1843 1737 1751 1800 1692 1683 1732 1781 1802 1660 1771 1765 1828 1768 1780 1775 1769 1697 1692 1722 1743 1808 1826 1784 1712 1754 1685 1718 1782 1685 1733 1738 1682 1675 1774 1726 1708 1704 1746 1707 1747 1699 1735 1698 1681 1713 1691 1651 1731 1733 1630 1616 1691 1698 1670 1675 1703 1721 1663 1710 1727 1644 1645 1681 1629 1639 1668 1677 1714 1673 1623 1602 1627 1704 1676 1678 1649 1660 1590 1646 1630 1591 1600 1649 1619 1713 1672 1566 1612 1637 1569 1640 1663 1652 1587 1651 1619 1746 1728 1579 1635 1618 1657 1592 1583 1630 1559 1614 1668 1639 1595 1540 1631 1589 1549 1611 1558 1526 1560 1577 1618 1547 1557 1535 1612 1506 1566 1540 1508 1591 1529 1469 1544 1550 1537 1538 1527 1588 1531 1517 1486 1514 1537 1578 1457 1512 1499 1464 1469 1510 1510 1453 1449 1489 1517 1480 1439 1519 1506 1459 1457 1511 1478 1446 1445 1439 1484 1436 1515 1379 1476 1449 1523 1401 1481 1514 1487 1479 1517 1467 1507 1485 1535 1520 1545 1553 1668 1651 1733 1655 1836 1849 1827 1880 1811 1932 1859 1883 1800 1810 1944 1833 1882 1791 1880 1734 1738 1654 1699 1704 1577 1666 1721 1566 1672 1656 1621 1647 1676 1531 1682 1675 1642 1580 1638 1612 1651 1653 1588 1669 1642 1640 1720 1635 1629 1519 1537 1598 1541 1574 1506 1547 1547 1511 1459 1532 1502 1414 1466 1432 1408 1390 1397 1344 1329 1393 1396 1334 1350 1369 1413 1350 1361 1376 1336 1409 1403 1356 1315 1311 1343 1350 1311 1332 1310 1348 1373 1354 1329 1273 1317 1334 1361 1241 1352 1340 1308 1322 1322 1308 1347 1300 1304 1364 1374 1375 1442 1431 1503 1502 1542 1585 1613 1675 1807 1894 1948 2179 2220 2253 2368 2360 2453 2543 2586 2560 2473 2398 2461 2337 2345 2313 2220 2066 2106 2006 2016 1930 1924 1943 1946 1955 1896 1908 1940 1966 1955 1958 1955 2018 1977 2014 2106 2052 2185 2192 2061 2278 2307 2381 2346 2377 2260 2335 2364 2280 2313 2290 2130 2150 2106 2062 1970 1918 1993 1765 1847 1848 1783 1804 1719 1740 1690 1764 1709 1681 1667 1636 1615 1609 1675 1678 1755 1644 1734 1693 1607 1581 1575 1480 1596 1501 1527 1537 1507 1473 1362 1409 1333 1320 1298 1308 1239 1334 1260 1333 1232 1303 1264 1240 1230 1225 1269 1197 1245 1200 1194 1112 1181 1123 1178 1091 1130 1197 1119 1101 1133 1142 1194 1100 1154 1110 1111 1087 1179 1093 1149 1090 1092 1117 1067 1081 1120 1166 1141 1110 1128 1114 1123 1091 1110 1099 1161 1131 1067 1142 1136 1081 1040 1090 1120 1089 1066 1117 1092 1052 1030 1026 1091 1117 1071 1082 1052 1098 1100 1078 1091 1038 1033 1072 1068 1009 1059 1093 1033 1064 1044 1061 1049 1083 1063 1040 1122 1033 1034 1073 1051 1048 1024 1011 1043 1036 1058 1035 1042 1094 1015 1075 1039 1082 1068 1099 1051 1121 1080 1030 1009 1065 1026 1088 1015 1005 1045 1037 1113 1021 1092 1054 1058 1016 1029 1035 1054 1016 992 1016 1082 1066 1055 1055 956 1004 1000 1028 1074 986 1103 1012 1129 1018 1052 1062 1005 1054 1022 1051 1044 1062 1042 1061 1046 1036 1088 1056 1096 1094 1107 1122 1056 1046 1039 1109 1059 1075 1127 1125 1134 1122 1116 1178 1119 1139 1116 1181 1183 1084 1113 1118 1209 1124 1138 1145 1163 1183 1221 1187 1219 1105 1217 1226 1162 1121 1095 1205 1161 1146 1134 1123 1147 1174 1140 1142 1104 1140 1155 1101 1033 1169 1109 1124 1104 1128 1098 1136 1144 1132 1083 1024 1138 1097 1103 1111 1156 1037 1076 1078 1082 1042 1052 1126 1044 1005 1055 1034 1013 1077 1044 1069 1008 1069 1077 1073 1084 1075 999 1008 1073 1016 1112 1091 1041 1120 1098 1063 1052 1056 1081 1111 1081 1074 1086 1059 1128 1109 1091 1010 1101 1082 1102 1135 1148 1102 1149 1058 1146 1083 1145 1161 1069 1143 1025 1132 1166 1084 1132 1069 1122 1066 1123 1089 1160 1116 1121 1073 1116 1127 1103 1113 1139 1081 1050 1072 1122 1189 1171 1186 1185 1121 1171 1147 1212 1124 1201 1235 1245 1251 1272 1406 1420 1502 1580 1635 1781 1935 2038 2230 2456 2482 2837 2838 3268 3175 3411 3420 3633 3645 3714 3748 3677 3687 3738 3609 3546 3530 3418 3238 3262 3122 3143 2988 2906 2801 2798 2792 2657 2573 2602 2471 2570 2537 2566 2524 2435 2510 2531 2440 2467 2566 2515 2460 2544 2535 2480 2633 2679 2690 2781 2683 2696 2737 2786 2737 2693 2637 2487 2612 2502 2513 2440 2446 2344 2273 2314 2177 2216 2133 2020 2035 1916 1915 1817 1736 1711 1698 1647 1694 1619 1595 1534 1537 1564 1509 1515 1530 1567 1539 1356 1381 1400 1391 1282 1397 1346 1383 1285 1279 1266 1258 1088 1270 1165 1198 1141 1078 1194 1089 1068 1075 1029 1093 1034 1013 1035 955 1044 1014 1058 964 1001 980 948 1031 1003 1055 979 957 977 994 972 961 979 1001 997 981 949 950 975 962 936 968 927 963 948 1017 967 919 1009 979 970 972 973 929 970 948 921 987 950 920 965 920 968 924 953 940 980 948 1036 931 965 955 958 975 940 866 909 907 901 858 926 956 882 981 907 997 941 917 923 907 894 904 923 896 959 928 943 869 939 868 882 871 908 943 889 922 974 895 870 915 933 915 937 928 898 916 956 901 925 859 897 904 900 936 887 881 910 886 907 845 890 933 947 862 826 856 909 872 906 851 872 881 911 910 909 896 839 841 845 875 822 825 853 890 849 811 843 861 897 872 865 885 844 872 831 890 844 845 884 858 850 887 819 844 819 816 807 838 806 814 819 864 852 826 821 831 867 875 821 850 918 849 876 904 808 858 897 834 911 882 901 853 878 890 834 914 869 829 839 845 888 840 869 843 862 863 860 828 878 807 765 817 857 814 848 844 795 781 840 798 819 869 832 813 827 838 785 807 831 887 812 857 773 815 893 819 827 898 846 908 863 884 850 869 848 914 873 867 848 823 839 804 752 907 819 886 799 878 796 857 812 827 798 858 850 825 806 809 793 846 771 811 803 736 795 758 831 816 817 817 796 741 835 822 777 821 754 823 763 790 813 760 820 849 793 786 799 770 787 813 776 739 802 734 797 738 824 762 777 840 766 800 835 831 799 789 744 786 771 739 766 836 796 817 761 805 807 794 781 761 803 769 812 753 852 814 834 759 834 831 799 805 790 788 771 811 811 775 751 807 808 796 763 789 753 760 741 779 812 830 732 784 797 742 786 770 802 837 740 759 739 796 766 787 789 738 736 776 738 725 759 790 786 765 804 761 752 766 727 817 830 756 807 760 754 830 769 722 780 773 777 797 771 752 805 742 793 710 753 723 787 722 755 804 777 779 717 797 794 789 770 736 751 775 744 777 769 797 770 742 797 787 797 751 744 771 747 788 799 792 794 720 740 725 771 755 750 768 726 748 692 708 749 752 732 785 786 740 760 724 751 769 770 754 696 804 792 767 759 733 785 717 740 758 740 722 760 710 736 743 740 810 750 799 753 746 764 744 768 686 746 737 729 748 716 756 743 714 664 766 744 709 758 712 729 703 734 757 749 691 678 724 695 681 783 735 726 759 758 734 710 751 755 759 728 748 732 769 753 701 723 696 715 688 750 722 759 731 735 764 734 752 764 725 774 691 744 742 716 730 721 715 721 733 697 744 742 748 700 728 744 723 735 748 755 746 791 778 692 716 761 751 706 740 740 722 731 728 769 734 747 729 703 717 798 732 750 776 738 723 706 742 640 700 705 716 677 725 685 737 684 699 721 758 687 719 711 681 713 719 726 729 767 755 722 721 729 680 726 688 682 744 746 742 726 703 717 747 715 720 768 710 726 704 731 756 734 729 693 700 692 710 707 690 746 711 735 723 713 750 730 773 741 754 732 737 741 707 680 696 711 715 728 719 680 704 730 712 695 727 635 732 746 749 674 747 706 783 747 727 706 736 720 758 773 710 744 719 777 802 741 749 707 770 730 758 759 761 755 679 730 668 707 792 757 712 739 751 706 728 751 764 758 766 740 708 736 718 703 691 688 730 708 698 712 726 729 699 710 733 739 703 734 748 687 711 761 687 698 686 753 762 693 722 725 780 717 773 736 715 719 734 724 759 715 758 698 691 711 738 710 726 727 778 689 724 678 736 778 658 746 738 741 717 676 693 726 765 772 658 691 741 688 737 734 681 668 710 711 760 707 730 696 791 718 757 703 742 778 692 742 715 731 731 709 703 679 710 676 686 736 726 741 717 735 783 792 744 710 690 726 785 748 689 745 754 672 755 759 762 651 796 674 736 683 721 675 720 745 709 710 725 708 707 711 738 696 734 709 760 754 719 715 683 706 686 713 724 709 724 695 744 723 732 679 730 732 753 742 767 796 768 820 830 816 847 873 891 998 896 903 873 976 880 924 922 996 934 950 953 942 903 942 901 1008 970 929 971 916 929 819 880 866 854 887 832 846 882 836 798 791 835 778 803 846 826 799 836 759 790 820 785 771 745 726 755 782 751 784 772 782 743 769 746 710 770 759 774 776 750 743 754 789 805 717 764 744 812 770 779 806 837 775 761 789 796 709 710 784 752 763 772 743 733 726 774 740 727 714 746 734 680 719 656 701 698 779 702 685 703 650 702 697 693 695 727 697 673 697 701 731 670 696 727 622 659 658 684 671 722 654 700 696 637 648 678 648 674 638 675 665 639 641 639 706 632 635 644 682 685 661 657 671 644 635 655 658 676 666 675 643 598 612 622 692 611 662 621 687 672 652 658 634 631 698 684 632 584 662 692 698 637 672 668 673 643 691 642 624 662 641 628 708 631 618 607 691 637 670 654 680 687 680 697 646 682 650 650 653 589 633 661 662 600 675 641 652 703 681 606 634 663 654 641 635 647 615 656 611 656 679 636 640 651 622 678 650 646 661 679 699 654 679 709 659 670 740 631 646 647 659 614 631 672 596 647 655 641 650 650 654 552 684 674 652 643 683 698 653 690 676 663 664 629 621 674 656 663 646 694 694 612 643 670 656 662 637 667 601 666 700 673 637 632 680 673 688 668 696 637 662 687 680 661 643 681 708 654 683 650 689 688 610 663 649 696 658 656 718 650 640 629 679 705 636 709 708 648 667 631 668 718 690 678 631 697 613 672 698 721 696 720 687 652 713 740 697 699 713 678 656 661 687 661 681 710 688 668 731 703 726 722 704 679 724 706 692 697 695 734 736 714 732 735 718 697 745 783 760 783 780 765 803 866 843 875 953 963 987 1087 1101 1176 1265 1329 1402 1489 1618 1639 1671 1843 1809 1882 1891 1940 1945 2054 2134 2012 1992 1969 2079 2036 2063 2029 2052 1904 1972 1903 1843 1787 1801 1819 1709 1664 1643 1625 1642 1483 1533 1374 1525 1394 1432 1353 1434 1381 1276 1240 1227 1269 1243 1191 1202 1159 1187 1095 1164 1079 1074 991 1060 1037 1014 1040 1011 1040 977 1057 992 958 1073 1052 1081 1075 1046 1120 1087 1122 1162 1219 1156 1191 1220 1205 1193 1157 1164 1189 1160 1160 1101 1177 1104 1108 1085 1105 1087 1133 1199 1145 1147 1155 1177 1136 1129 1108 1076 1072 1015 955 975 953 993 979 982 960 959 952 952 877 880 889 863 808 816 809 747 708 786 748 762 712 748 721 725 737 755 723 699 704 716 654 694 677 738 722 688 663 624 688 665 693 644 652 649 678 715 611 644 621 647 613 605 615 628 631 650 684 611 642 641 587 640 663 682 604 625 655 612 639 589 621 640 619 623 647 593 588 638 612 664 594 628 609 610 633 575 584 645 594 621 665 630 619 624 623 636 667 611 624 619 581 617 622 637 654 625 676 612 637 682 644 623 655 661 683 660 680 663 730 726 726 671 734 740 704 726 735 746 711 702 763 760 758 729 711 725 710 744 754 737 683 744 738 671 721 711 694 720 706 700 702 691 732 702 715 734 701 660 667 715 682 686 650 707 655 656 616 665 667 660 668 632 681 648 687 639 671 722 644 667 730 638 686 711 668 670 698 690 730 678 721 654 710 666 680 675 746 720 681 686 713 667 660 681 674 649 691 663 691 659 624 698 697 668 662 665 636 637 679 612 666 631 655 639 631 636 642 636 623 634 598 669 646 670 559 597 570 601 613 614 606 607 564 638 619 593 585 595 623 585 620 605 573 607 567 572 578 573 613 586 574 559 563 579 629 602 589 560 618 598 555 577 597 588 605 591 624 574 562 582 579 577 566 583 565 579 605 588 623 620 618 614 575 637 588 539 583 598 563 570 525 554 546 583 546 581 534 577 571 595 546 615 581 585 588 601 552 543 546 593 597 566 529 598 552 604 573 606 567 591 551 537 584 642 578 596 585 515 602 631 562 554 569 576 532 563 622 556 601 574 571 505 583 576 595 576 572 551 605 554 613 556 573 567 598 537 541 571 550 586 553 555 563 531 626 568 523 627 580 592 506 596 580 575 599 580 610 538 565 544 532 521 515 539 585 579 583 612 558 566 558 544 599 626 551 592 587 577 568 540 580 552 610 566 594 540 538 555 621 570 612 550 565 587 574 573 563 575 530 582 538 529 554 586 564 553 559 545 571 571 534 544 585 551 607 602 546 553 605 567 529 532 536 565 588 603 589 569 570 532 518 579 557 571 535 596 555 540 564 591 566 554 567 563 583 517 553 550 563 552 575 585 570 600 590 555 556 548 532 555 529 571 536 553 567 524 581 571 541 546 501 568 523 561 568 553 535 565 534 552 544 600 522 552 550 583 574 569 559 526 537 560 566 560 589 560 528 563 540 558 570 520 534 579 578 540 562 567 537 565 592 555 569 555 532 592 562 562 524 529 566 559 563 562 532 576 532 546 566 539 544 541 580 536 542 557 493 565 519 547 553 524 511 548 568 528 525 548 576 514 580 550 544 551 546 560 506 582 544 582 490 561 578 522 533 559 540 527 556 554 528 531 514 557 541 560 553 534 510 506 536 480 525 557 532 500 541 534 562 544 527 514 538 542 568 567 491 528 543 517 563 522 548 532 554 530 529 530 539 519 531 526 543 511 529 542 563 512 539 527 512 586 532 554 548 498 542 581 523 544 529 516 522 586 581 490 536 547 548 559 581 580 597 552 528 554 552 575 557 578 497 602 581 569 581 558 552 558 544 549 602 596 551 563 582 584 556 563 593 573 574 569 576 587 559 547 552 554 537 527 565 531 550 527 532 539 532 544 566 563 548 573 528 533 559 516 532 549 533 606 559 507 522 548 559 532 601 584 658 632 595 642 591 682 650 648 632 701 668 662 672 681 633 678 692 714 684 685 666 675 693 688 692 711 670 712 649 744 711 690 680 636 725 704 630 662 648 696 676 580 625 647 649 641 612 620 648 575 616 610 581 594 565 555 563 580 619 581 568 580 571 615 558 562 579 571 595 552 609 549 553 561 546 563 576 521 552 567 608 546 575 588 586 581 613 604 637 607 579 631 664 595 642 594 596 658 620 615 670 628 614 618 675 605 668 605 605 624 633 649 622 607 647 622 653 622 607 621 590 576 601 603 593 573 609 551 592 569 586 596 604 541 594 574 544 569 535 570 526 582 595 588 537 572 536 575 525 555 547 526 569 523 592 557 564 555 579 488 515 515 522 490 557 523 541 570 525 498 539 519 544 519 567 518 481 546 559 546 494 532 535 498 536 554 537 531 575 583 553 550 499 529 499 527 522 523 521 546 533 520 508 475 530 496 487 506 529 524 519 496 484 543 565 534 564 556 563 548 510 496 559 488 517 521 552 535 509 547 550 525 522 554 506 541 561 531 544 484 531 515 534 511 539 526 529 518 533 497 560 474 553 517 560 527 524 572 578 598 551 595 624 617 644 655 642 645 645 640 740 687 764 700 742 693 748 778 809 797 752 768 789 813 821 807 766 793 773 802 759 785 750 759 718 764 750 774 736 736 672 737 716 722 686 742 693 694 688 674 642 641 672 642 690 631 615 648 650 611 585 595 586 575 625 575 598 596 561 618 570 581 589 560 580 550 549 557 564 545 533 526 589 566 573 576 590 585 572 542 535 539 552 570 520 554 615 614 576 607 621 587 595 604 607 659 594 666 618 579 600 631 623 669 596 686 631 602 611 580 578 571 627 563 595 622 551 585 622 627 600 614 571 562 571 587 539 584 583 628 553 541 543 520 534 531 574 546 515 525 568 547 577 518 529 532 537 525 510 576 516 540 532 526 501 482 493 506 520 531 526 496 492 498 511 513 527 498 488 511 494 484 472 507 504 476 512 496 500 501 469 479 512 504 525 539 509 546 519 555 513 563 558 547 525 539 523 531 567 523 540 583 567 541 554 537 528 552 577 529 587 622 562 530 559 582 572 570 514 561 626 543 555 547 552 543 532 512 562 495 478 554 522 496 546 583 506 502 502 490 540 499 518 523 526 497 534 497 509 515 499 515 526 472 498 499 511 522 535 495 529 471 527 530 502 452 499 496 484 497 487 511 468 518 474 498 522 504 515 546 500 458 479 485 474 486 472 474 496 509 489 500 526 507 516 569 472 517 501 548 502 513 529 500 540 572 536 548 534 536 490 509 494 522 534 505 496 504 493 545 491 489 552 504 488 522 526 450 492 508 485 479 473 501 456 487 509 515 477 543 486 499 499 476 531 479 505 487 476 480 473 477 487 467 483 471 431 450 485 515 508 468 474 521 520 476 503 499 490 499 480 487 454 460 460 421 440 466 468 519 463 444 497 461 455 471 473 460 461 512 469 458 503 460 439 510 506 461 489 455 524 477 483 441 468 474 472 465 481 479 504 481 483 497 459 497 460 487 481 485 466 456 509 480 477 482 461 452 462 481 456 480 455 460 424 453 483 451 509 470 498 475 466 453 444 459 490 472 494 454 476 458 485 471 468 502 464 480 449 488 470 456 484 475 478 440 485 459 504 477 510 486 494 476 475 460 506 492 453 454 466 485 446 456 449 405 450 450 436 473 449 394 476 429 455 464 475 487 497 486 450 466 463 449 453 488 470 448 493 488 464 470 462 450 402 459 421 451 466 458 489 499 484 469 483 484 499 440 488 407 479 465 464 434 447 452 506 458 446 453 452 457 457 440 427 485 453 480 444 445 488 479 432 484 465 449 430 473 475 431 458 436 478 468 462 496 466 464 465 430 451 464 461 462 445 445 445 437 439 439 461 487 457 457 436 502 458 456 478 475 474 413 479 456 453 512 458 463 465 475 472 509 476 416 462 463 494 476 478 428 454 454 449 459 492 462 435 431 463 433 478 514 476 495 450 464 470 448 483 481 467 457 484 429 448 483 449 487 481 485 453 468 497 452 439 482 446 468 481 432 449 451 494 458 488 456 454 448 445 441 473 434 476 505 455 463 454 483 453 479 432 477 414 462 449 442 507 453 446 486 486 480 455 455 478 496 461 438 498 470 454 457 460 435 489 470 470 480 435 464 475 482 520 517 474 484 475 442 456 476 467 519 483 483 510 479 456 462 486 508 509 461 465 525 523 504 527 489 449 522 451 514 472 452 484 500 474 458 491 499 476 431 451 458 469 480 505 453 495 458 499 441 466 477 454 463 476 472 491 464 451 478 438 486 451 452 439 469 450 430 454 487 478 426 452 461 467 466 425 459 468 435 430 451 438 479 482 478 436 476 502 471 460 481 466 454 456 455 455 472 440 448 443 428 460 434 476 495 457 471 440 490 458 454 427 458 476 474 462 480 454 459 470 470 454 442 479 502 444 458 449 483 504 462 478 460 456 457 469 450 465 474 466 495 493 442 460 459 411 463 453 482 462 465 396 438 413 468 482 479 476 410 453 420 432 451 458 441 456 432 436 455 445 443 451 439 408 494 450 444 482 478 468 484 424 444 459 418 454 439 445 443 465 476 436 466 444 455 467 458 433 448 441 444 407 478 456 497 433 459 410 446 473 449 406 460 421 444 417 406 431 458 438 432 462 446 438 439 480 453 441 471 477 451 451 464 445 499 459 469 437 457 431 455 467 443 458 452 435 447 430 462 466 442 446 437 461 459 461 432 467 439 452 437 426 412 434 478 437 426 486 466 442 470 478 447 488 458 448 477 447 472 408 487 452 492 472 503 449 487 503 497 533 496 523 563 526 503 536 514 511 478 549 527 504 507 522 527 465 521 535 550 530 541 479 535 513 558 524 516 501 515 545 507 497 503 566 518 484 496 537 544 525 554 503 479 532 522 509 508 516 454 470 508 466 537 521 501 485 508 498 462 516 507 442 474 448 467 461 468 487 491 454 436 429 495 476 461 451 457 469 433 470 470 473 441 437 448 483 485 454 423 467 455 470 430 444 469 414 450 465 461 445 446 446 442 472 487 447 483 453 485 460 464 478 482 481 470 451 495 461 497 488 463 470 509 477 474 473 510 500 453 466 468 484 442 473 442 500 465 478 496 466 411 490 479 474 504 469 467 472 446 465 467 471 458 478 463 457 475 458 482 427 467 474 467 465 473 443 448 474 475 435 484 417 500 435 460 476 440 491 437 435 441 419 421 404 422 455 458 466 445 455 456 421 457 415 456 444 467 417 474 476 451 456 436 472 468 437 485 412 443 439 471 466 420 415 471 436 464 458 422 429 430 466 462 447 448 459 447 435 445 439 463 441 436 470 428 491 483 454 454 434 452 433 474 450 455 436 433 446 462 429 435 415 436 418 464 437 469 456 443 438 422 443 467 460 436 431 446 448 409 396 428 456 441 462 426 464 415 392 447 452 454 412 451 477 459 417 457 410 440 442 410 410 446 401 403 442 409 400 430 444 436 453 440 417 444 464 429 421 422 429 412 464 410 434 429 395 458 442 467 460 429 417 418 404 427 467 471 464 445 473 456 477 430 415 487 467 438 441 463 419 437 429 409 482 414 448 420 418 414 420 424 451 459 435 452 488 427 446 421 441 440 460 421 432 470 461 438 441 418 441 450 476 481 461 458 423 441 451 449 407 405 459 441 425 428 410 447 437 440 416 435 429 446 408 447 468 465 428 463 410 460 413 390 402 441 431 423 419 410 471 419 431 430 438 446 453 417 459 416 479 433 460 454 449 469 432 412 410 420 423 441 446 432 427 446 462 434 431 428 394 442 390 425 436 379 422 444 430 443 468 450 389 430 454 475 461 468 431 460 450 446 455 401 445 429 436 448 417 446 448 473 431 413 461 451 434 459 458 398 424 460 430 438 450 392 441 429 419 439 441 449 451 438 427 425 416 450 441 411 442 457 437 455 436 483 435 451 411 426 467 435 434 413 410 455 417 453 395 408 419 455 424 422 449 432 444 450 432 422 454 407 451 450 427 462 476 424 424 415 450 436 439 461 458 425 476 412 415 456 448 437 432 436 476 474 478 438 443 441 431 445 445 412 445 390 439 401 426 415 454 426 486 445 420 429 427 420 451 447 420 458 441 407 432 420 447 454 422 410 491 420 431 449 472 443 420 453 453 441 466 441 442 421 409 454 439 465 445 460 422 442 488 455 455 415 459 480 434 434 415 463 401 463 481 463 488 461 449 413 440 425 452 487 464 429 443 487 430 439 413 459 444 463 446 462 467 443 453 454 429 475 442 470 477 453 507 475 449 448 461 445 480 471 473 489 478 417 469 432 453 489 453 467 465 466 514 514 441 510 446 467 475 481 457 472 460 438 450 448 453 454 491 469 476 447 464 456 472 468 528 489 464 474 453 499 525 523 473 466 463 471 535 469 499 508 520 461 524 503 496 477 453 449 465 475 482 494 458 498 471 500 529 448 481 495 489 509 480 480 464 487 464 418 485 447 471 495 444 445 466 488 422 467 468 501 490 493 420 458 423 441 490 489 439 455 501 456 441 460 448 477 461 464 429 457 446 494 425 462 453 490 456 454 461 487 459 478 467 446 417 471 418 476 433 429 445 462 487 428 490 470 496 457 409 426 470 482 489 463 454 471 452 498 477 454 470 460 441 413 468 455 421 443 436 480 454 453 457 433 496 471 505 452 465 446 511 453 448 486 480 465 543 490 478 470 462 474 482 428 451 492 493 445 469 455 482 425 492 489 458 501 468 497 489 483 465 490 458 447 463 470 436 458 477 456 466 439 445 445 459 465 455 491 444 500 454 483 505 461 456 441 501 483 484 465 459 431 463 476 441 457 506 456 461 426 479 494 477 465 467 444 443 498 457 461 528 485 446 498 455 459 476 493 453 500 485 480 505 538 557 512 480 510 549 607 550 589 544 530 572 560 591 586 580 585 574 588 591 568 614 575 595 621 595 578 624 622 576 642 596 638 627 597 602 645 631 646 609 580 619 616 556 638 583 630 588 589 576 587 576 540 578 579 570 575 553 551 555 557 546 560 575 530 498 516 498 525 519 499 497 481 494 523 482 533 472 486 514 484 469 492 461 472 464 496 485 463 497 483 467 492 478 464 461 466 475 467 442 489 475 475 475 480 450 472 466 449 442 430 453 477 515 495 458 493 470 475 454 519 461 478 472 474 449 459 455 448 475 457 480 466 492 483 473 466 446 469 485 475 472 474 549 505 513 521 539 514 502 559 501 519 510 464 536 511 473 528 475 499 525 524 494 518 457 541 490 515 530 489 547 533 505 513 517 523 493 537 530 470 520 483 489 512 547 532 507 514 532 513 514 533 510 487 500 482 519 469 488 497 527 533 491 506 494 527 449 490 492 500 441 484 465 450 508 456 447 512 491 490 475 441 497 456 462 489 474 487 452 456 485 448 406 441 448 470 472 433 516 480 437 422 444 469 420 492 449 438 450 439 432 397 448 432 452 397 426 420 498 426 423 440 470 409 468 444 419 398 408 434 426 429 467 420 457 398 490 430 451 427 453 412 475 437 423 421 440 418 395 428 435 460 470 428 453 411 452 435 463 426 427 388 443 477 417 406 449 440 411 457 494 449 440 422 430 410 427 432 429 425 493 462 445 411 428 448 429 453 421 438 424 431 441 414 414 414 459 451 463 450 433 462 463 428 427 438 439 438 410 443 428 467 461 433 430 421 406 441 423 436 464 424 421 436 426 427 425 433 423 421 406 431 422 466 432 465 429 443 461 429 414 403 437 406 440 435 433 425 409 401 424 388 436 400 414 436 460 404 453 425 443 396 418 448 413 432 477 432 420 416 434 422 440 423 413 412 458 440 433 422 414 435 435 402 464 408 426 427 421 482 456 471 380 442 441 437 442 454 438 395 416 422 443 425 414 426 431 403 441 438 456 419 491 441 426 397 426 451 424 487 441 428 450 476 460 432 463 411 410 430 427 416 436 418 402 414 463 412 438 415 406 418 392 437 408 421 409 424 405 393 418 441 432 402 419 441 379 429 416 390 434 423 423 427 414 401 373 424 416 410 424 395 435 408 413 437 411 386 419 446 434 419 447 411 437 436 428 426 375 404 441 413 413 413 411 412 414 484 426 416 444 443 421 393 393 403 434 436 406 418 403 417 427 407 438 423 375 423 437 428 443 393 398 447 444 456 449 397 408 393 404 441 440 418 459 397 403 426 399 393 428 417 457 416 390 431 417 451 416 394 445 446 409 419 433 430 457 467 420 397 419 408 428 419 415 403 410 452 438 452 397 459 401 459 435 414 429 455 413 435 425 422 432 462 415 381 395 426 466 481 411 414 423 461 457 410 435 449 445 414 455 375 478 392 468 396 430 416 436 437 455 486 453 438 430 444 426 408 450 440 401 444 430 432 407 436 443 419 403 397 422 476 398 440 419 448 408 422 422 405 454 422 434 431 421 402 383 417 413 431 381 403 435 404 446 424 464 399 396 427 452 411 406 396 424 436 417 399 399 438 417 450 465 417 417 412 415 385 413 414 445 406 442 422 417 418 409 441 392 458 389 405 381 416 400 416 408 440 443 432 448 453 390 400 397 409 426 429 386 472 414 450 434 438 402 406 408 445 397 410 417 413 438 433 419 413 412 403 415 435 368 415 462 440 403 394 438 407 423 454 422 423 399 471 426 386 446 421 387 400 458 412 428 438 390 404 472 396 428 371 428 424 401 381 433 427 452 424 390 432 398 427 440 392 427 436 396 407 453 396 409 424 420 440 432 398 411 402 437 423 375 405 449 403 411 448 424 405 411 420 433 422 401 446 381 397 415 400 438 437 411 432 442 426 419 426 397 405 425 405 394 406 401 410 425 427 425 414 431 434 403 426 441 437 447 421 421 481 462 425 422 419 451 407 437 444 444 409 419 381 434 417 412 426 433 417 446 468 438 463 440 391 431 432 469 468 435 446 458 456 456 464 441 504 452 463 472 476 509 516 481 470 469 531 525 506 497 515 512 544 482 519 494 557 536 491 499 510 578 501 550 504 565 506 531 543 526 572 525 515 567 524 539 536 575 523 521 509 525 519 544 530 568 532 510 523 497 534 481 522 520 525 466 502 479 503 452 467 488 475 468 484 481 468 457 457 462 416 448 497 454 484 454 422 421 450 470 423 450 434 455 464 458 451 426 434 439 433 448 457 423 445 466 433 440 469 444 443 438 452 419 426 422 442 427 408 448 445 415 426 425 446 427 418 487 406 397 382 462 437 429 407 434 445 477 421 437 445 444 456 426 443 455 410 428 423 408 427 422 414 444 449 423 402 386 452 418 427 460 478 428 448 454 416 439 425 414 462 437 455 419 427 434 422 469 395 439 453 465 459 452 463 481 425 415 434 400 485 470 455 449 471 441 497 455 459 444 444 452 441 464 447 484 474 461 455 431 454 438 442 474 411 445 430 434 457 455 431 450 429 439 424 448 433 448 427 440 424 416 433 443 432 445 403 420 439 435 396 422 439 428 430 409 407 430 416 396 404 476 451 442 436 449 384 421 422 425 402 402 406 450 394 417 427 424 423 432 429 426 433 434 401 421 367 387 389 419 398 406 453 440 400 398 422 428 375 387 399 390 430 426 393 421 379 433 399 461 429 424 401 369 383 413 411 401 395 421 415 381 382 414 387 388 414 449 406 422 400 409 412 409 388 399 424 431 428 418 383 404 383 425 398 400 392 426 412 416 430 447 400 440 439 448 416 403 405 385 352 413 447 389 390 383 395 388 408 452 451 397 413 413 438 442 425 419 384 368 395 412 402 413 375 433 390 364 414 413 413 405 400 405 408 398 396 389 411 401 387 400 424 420 433 395 426 438 414 385 423 409 432 412 400 429 412 427 384 368 386 441 418 380 396 445 369 424 445 402 405 398 403 362 419 401 432 378 426 432 420 402 407 425 369 371 381 398 420 411 393 341 441 372 419 370 385 443 378 424 389 405 373 420 405 396 397 456 405 430 401 413 391 407 431 397 367 380 386 409 388 410 416 391 417 371 417 395 401 389 409 376 426 401 406 355 405 391 349 370 387 420 399 448 385 418 394 406 413 398 409 414 383 402 406 436 367 417 390 397 369 403 412 394 433 427 395 404 433 395 383 365 395 392 414 399 419 391 434 383 388 411 385 403 418 425 422 404 407 401 391 412 401 381 396 398 408 390 419 416 377 405 415 394 412 406 418 432 411 417 426 406 395 371 416 368 416 412 401 405 366 409 428 420 386 409 405 416 372 399 400 391 407 448 365 395 369 360 386 358 366 414 430 400 405 366 388 363 360 411 431 415 407 425 390 395 395 398 397 435 402 400 402 372 399 398 357 425 433 382 419 434 395 344 438 417 408 425 431 361 412 381 413 430 398 443 406 390 421 384 399 404 409 412 419 399 407 424 434 392 407 458 400 388 414 420 396 409 437 387 448 468 418 447 407 448 410 431 421 402 442 458 409 435 434 426 427 426 420 423 444 444 447 416 428 449 409 434 467 400 407 440 415 445 424 437 473 420 424 415 467 428 452 465 441 458 470 460 453 463 444 442 468 438 443 452 464 405 427 449 420 454 431 466 457 423 425 445 430 433 419 454 425 424 405 433 421 417 420 422 440 391 438 435 400 378 409 432 408 365 411 391 443 419 412 423</counts>
			</dataPoints>
		</scan>
	</xrdMeasurement>
</xrdMeasurements>
