<?xml version="1.0"?>
<xrdMeasurements xmlns="http://www.xrdml.com/XRDMeasurement/2.3" xmlns:xsi="http://www.w3.org/2001/XMLSchema-instance" xsi:schemaLocation="http://www.xrdml.com/XRDMeasurement/2.3 http://www.xrdml.com/XRDMeasurement/2.3/XRDMeasurement.xsd" status="Completed" recordIdentifier="{3486B199-40D5-49BE-A0A4-185B04FF556F}">
	<comment>
		<entry/>
	</comment>
	<sample type="To be analyzed">
		<id>GPSS_Li1p4Ni1p0V0p2Cl4_111825_691cd5d8f3837ac4a0a99fda</id>
		<name></name>
		<preparedBy></preparedBy>
	</sample>
	<xrdMeasurement measurementType="Scan" status="Completed" sampleMode="Reflection">
		<usedWavelength intended="K-Alpha 1">
			<kAlpha1 unit="Angstrom">1.5405980</kAlpha1>
			<kAlpha2 unit="Angstrom">1.5444260</kAlpha2>
			<kBeta unit="Angstrom">1.3922500</kBeta>
			<ratioKAlpha2KAlpha1>0.5000</ratioKAlpha2KAlpha1>
		</usedWavelength>
		<incidentBeamPath>
			<radius unit="mm">145.00</radius>
			<xRayTube id="1010048" name="Empyrean Cu LFF HR (9430 033 7310x)">
				<tension unit="kV">40.0</tension>
				<current unit="mA">15.0</current>
				<anodeMaterial>Cu</anodeMaterial>
				<focus type="Line">
					<length unit="mm">12.0</length>
					<width unit="mm">0.4</width>
					<takeOffAngle unit="deg">6.0</takeOffAngle>
				</focus>
			</xRayTube>
			<sollerSlit id="21010002" name="Soller slits 0.04 rad.">
				<opening unit="rad">0.0400</opening>
			</sollerSlit>
			<mask id="22031000" name="Fixed mask 13 mm">
				<width unit="mm">9.00</width>
			</mask>
			<divergenceSlit id="22120001" name="Divergence slit 1°" xsi:type="fixedDivergenceSlitType">
				<distanceToSample unit="mm">50.00</distanceToSample>
				<height unit="mm">1.52</height>
			</divergenceSlit>
		</incidentBeamPath>
		<sampleMovement xsi:type="spinningSampleMovementType">
			<spinnerRevolutionTime unit="seconds">1.0</spinnerRevolutionTime>
		</sampleMovement>
		<diffractedBeamPath>
			<radius unit="mm">145.00</radius>
			<antiScatterSlit id="22090040" name="AS slit 9 mm (PIXcel)" xsi:type="fixedAntiScatterSlitType">
				<height unit="mm">9.00</height>
			</antiScatterSlit>
			<sollerSlit id="21020003" name="Large Soller slits 0.04 rad.">
				<opening unit="rad">0.0400</opening>
			</sollerSlit>
			<filter id="20030001" name="Large beta-filter Nickel">
				<material>Ni</material>
				<thickness unit="mm">0.020</thickness>
			</filter>
			<detector id="7010019" name="PIXcel1D-Medipix3 detector" xsi:type="rtmsDetectorType">
				<phd unit="keV">
					<lowerLevel>4.02</lowerLevel>
					<upperLevel>11.27</upperLevel>
				</phd>
				<mode>Scanning</mode>
				<activeLength unit="deg">5.542</activeLength>
			</detector>
		</diffractedBeamPath>
		<scan appendNumber="0" mode="Continuous" scanAxis="Gonio" status="Completed">
			<header>
				<startTimeStamp>2025-11-22T12:37:33-08:00</startTimeStamp>
				<endTimeStamp>2025-11-22T12:45:40-08:00</endTimeStamp>
				<author>
					<name>AutomatedUser</name>
				</author>
				<source>
					<applicationSoftware version="1.7b (136)">PANalytical Aeris Instrument Suite</applicationSoftware>
					<instrumentControlSoftware version="3.2.00000000 20240306">AERIS</instrumentControlSoftware>
					<instrumentID>950485</instrumentID>
				</source>
			</header>
			<dataPoints>
				<positions axis="2Theta" unit="deg">
					<startPosition>10.00943322</startPosition>
					<endPosition>99.99442286</endPosition>
				</positions>
				<positions axis="Omega" unit="deg">
					<startPosition>5.00471661</startPosition>
					<endPosition>49.99721143</endPosition>
				</positions>
				<commonCountingTime unit="seconds">12.495</commonCountingTime>
				<counts unit="counts">3077 3061 3071 3113 3105 3195 3003 3133 3018 2970 3109 3111 3075 3109 3010 3155 3027 3174 3116 3073 3040 3042 3013 3120 3073 3101 3102 2955 2983 3094 3095 3029 3101 3040 3051 3269 3132 3113 3042 3110 3061 3100 3166 3224 3073 3091 3080 3139 3196 3167 3147 3175 3139 3179 3155 3290 3180 3109 3175 3263 3211 3240 3237 3202 3270 3087 3174 3175 3233 3171 3226 3235 3299 3213 3320 3311 3307 3333 3163 3241 3232 3218 3189 3298 3262 3264 3265 3405 3277 3260 3333 3411 3370 3384 3444 3324 3352 3334 3405 3363 3364 3429 3355 3398 3391 3581 3590 3375 3475 3483 3574 3475 3541 3504 3527 3525 3499 3471 3498 3499 3491 3432 3451 3427 3369 3379 3364 3457 3522 3366 3362 3287 3429 3313 3387 3247 3328 3374 3383 3293 3345 3333 3315 3316 3368 3291 3322 3296 3421 3256 3274 3343 3364 3246 3323 3268 3239 3348 3376 3302 3211 3300 3267 3271 3238 3194 3282 3307 3399 3266 3303 3279 3238 3379 3326 3392 3262 3320 3313 3275 3342 3358 3399 3267 3197 3379 3334 3463 3304 3273 3355 3349 3369 3286 3412 3231 3338 3341 3230 3406 3289 3275 3290 3305 3329 3245 3359 3260 3226 3240 3361 3277 3253 3343 3331 3221 3222 3322 3420 3179 3229 3233 3289 3309 3328 3242 3348 3318 3215 3200 3327 3277 3277 3281 3195 3293 3265 3246 3301 3393 3247 3340 3383 3272 3297 3287 3267 3264 3327 3298 3314 3240 3329 3299 3222 3272 3235 3374 3236 3246 3340 3303 3347 3249 3316 3389 3323 3331 3267 3209 3321 3346 3363 3275 3301 3349 3171 3364 3230 3398 3285 3281 3309 3270 3307 3421 3338 3459 3361 3200 3310 3295 3368 3379 3410 3426 3406 3475 3489 3251 3389 3415 3356 3344 3499 3406 3355 3371 3427 3364 3425 3485 3529 3507 3483 3362 3444 3364 3500 3390 3490 3359 3569 3530 3427 3494 3575 3463 3492 3595 3557 3428 3586 3506 3546 3485 3653 3581 3554 3531 3687 3605 3549 3668 3542 3469 3581 3596 3610 3635 3618 3591 3627 3631 3712 3645 3615 3683 3647 3684 3720 3648 3602 3734 3702 3708 3724 3644 3579 3757 3724 3613 3740 3726 3612 3773 3723 3708 3742 3669 3712 3724 3655 3672 3776 3762 3856 3733 3746 3781 3782 3809 3771 3766 3695 3772 3781 3756 3784 3784 3753 3758 3720 3762 3788 3827 3846 3823 3812 3897 3846 3835 3749 3992 3797 3917 3806 3862 4020 3945 3811 3878 3863 3774 3895 3953 3945 3879 4088 4037 4035 3930 4058 4100 4074 4208 4164 4215 4187 4295 4359 4484 4528 4574 4535 4744 4812 4873 4789 4834 4817 4891 4847 4821 4871 4905 4911 4954 5068 5029 5018 5197 5305 5201 5406 5688 5727 5914 6317 6486 6704 6949 7102 7610 7670 8412 8822 9166 9234 9901 9926 10096 10283 10244 10087 10191 10116 10343 10615 10897 11088 11289 11497 11754 11882 11894 11738 11483 11282 10998 10655 10052 9643 9214 8416 7929 7288 6923 6302 6090 5599 5296 5198 4937 4759 4620 4445 4343 4197 4056 4070 3926 3838 3843 3785 3866 3669 3702 3730 3803 3697 3608 3709 3486 3699 3618 3671 3582 3577 3615 3634 3603 3564 3404 3483 3550 3442 3593 3557 3477 3420 3450 3479 3453 3380 3445 3513 3465 3446 3279 3362 3417 3353 3380 3542 3270 3460 3413 3416 3370 3404 3394 3380 3342 3402 3387 3343 3373 3312 3335 3302 3464 3405 3409 3300 3335 3263 3371 3315 3289 3352 3267 3423 3265 3387 3432 3354 3349 3313 3273 3345 3346 3337 3389 3397 3290 3379 3288 3344 3261 3286 3267 3312 3413 3296 3315 3296 3303 3277 3330 3292 3247 3313 3266 3265 3230 3271 3288 3215 3322 3387 3173 3105 3250 3166 3298 3321 3250 3255 3254 3182 3251 3271 3242 3248 3251 3329 3304 3264 3251 3397 3312 3254 3323 3273 3384 3405 3279 3397 3392 3390 3439 3424 3494 3391 3456 3345 3362 3415 3378 3291 3350 3351 3264 3348 3334 3416 3468 3306 3176 3296 3310 3227 3309 3151 3177 3189 3229 3140 3191 3094 3286 3182 3140 3174 3231 3234 3310 3218 3292 3170 3150 3087 3192 3172 3211 3153 3211 3100 3263 3174 3111 3162 3166 3237 3141 3257 3092 3232 3172 3239 3282 3156 3203 3197 3215 3220 3163 3095 3103 3104 3110 3102 3174 3151 3147 3136 3092 3180 3213 3205 3126 3236 3068 3067 3113 3139 3149 3141 3143 3089 3093 3087 3190 3164 3096 3133 3086 3171 3073 3035 3133 3114 3277 3049 3117 3160 3088 3159 3076 3070 3094 3089 3142 3107 2980 3129 3129 3100 3119 3011 3155 3127 3012 3116 3126 3124 3082 3056 3136 3083 3164 3208 3228 3120 3209 3016 3107 3138 3093 3144 3115 3083 3115 3025 3135 3103 3076 3084 3089 3056 2995 3195 3156 3065 3061 3000 2995 3125 3088 3094 2962 3072 3162 3035 2973 3166 3043 3053 3021 2981 3022 2966 3001 2982 3071 3064 2980 3097 3001 3033 3109 3006 3023 3082 3072 3109 2951 3011 2990 3065 3014 3068 2970 3034 2995 2998 3002 3041 3048 2969 3006 3013 3035 3035 3031 3055 2920 2986 2927 3035 2893 2988 2922 3055 2903 2968 2910 2974 2998 2974 3037 3024 3086 2981 3076 2960 3053 2943 2959 2913 2926 2961 2963 2930 3070 2980 2897 2923 2939 2944 3106 3009 2867 2906 3001 2951 2966 3029 2952 2892 2916 2955 3010 2887 2826 2900 2902 2985 2888 2912 2871 2965 2912 2948 2915 2974 2856 2947 2955 2897 2875 2949 2983 2895 2930 2833 2822 2929 2919 2840 2889 2943 2955 2986 2986 2878 2927 2780 2841 2888 2889 2925 2790 2868 2864 2884 2905 2877 2941 2793 2854 2865 2929 2879 2875 2809 2818 2759 2919 3014 2773 2955 2791 2955 2889 2886 2890 2861 2891 2908 2966 2888 2790 2880 2823 2830 2937 2884 2831 2919 2949 2898 2984 2877 2834 2815 2809 3001 2966 3014 2829 2896 2852 2888 2869 2892 2986 2959 2827 2823 2933 2899 2985 2836 2867 2845 2943 2863 2895 2915 2927 2868 2972 2946 3023 2957 3035 2978 2907 2928 2915 2874 3026 2773 2903 2901 2897 2957 2950 2921 2943 2914 2900 2881 2888 2887 2838 2861 2898 2941 2845 2959 2831 2920 2858 2956 2875 2926 2805 2942 2855 2895 2935 2893 2962 2976 2864 2920 2814 2925 2894 2890 2869 2887 2855 2853 2967 2970 2937 2890 2888 2888 2852 2887 2932 2769 2882 2938 2922 2958 2825 2865 2865 2757 2914 2833 2900 2905 2915 2893 2915 2945 2868 2821 2850 2904 2875 2820 2802 2832 2842 2806 2834 2902 2832 2900 2835 2850 2884 2773 2769 2793 2780 2830 2854 2841 2807 2716 2919 2846 2862 2762 2762 2748 2737 2802 2734 2835 2805 2734 2796 2698 2757 2700 2755 2742 2677 2891 2698 2827 2739 2743 2725 2723 2619 2802 2809 2737 2752 2757 2652 2677 2743 2495 2717 2618 2750 2655 2651 2744 2718 2679 2706 2779 2752 2488 2644 2648 2670 2667 2592 2683 2692 2645 2606 2560 2596 2559 2592 2704 2565 2576 2600 2582 2688 2630 2532 2562 2556 2664 2442 2464 2595 2562 2587 2643 2425 2510 2551 2499 2558 2569 2575 2540 2502 2535 2409 2466 2476 2492 2502 2496 2561 2479 2452 2510 2435 2507 2368 2406 2340 2442 2344 2498 2363 2444 2324 2470 2436 2498 2346 2219 2461 2334 2380 2428 2435 2441 2344 2341 2381 2420 2320 2355 2287 2302 2372 2427 2429 2321 2384 2312 2307 2220 2210 2330 2323 2274 2401 2328 2304 2320 2334 2304 2277 2322 2291 2359 2327 2309 2343 2256 2272 2342 2329 2293 2356 2238 2330 2336 2252 2325 2295 2266 2273 2384 2316 2306 2328 2241 2291 2304 2246 2278 2291 2365 2343 2284 2379 2302 2328 2282 2322 2261 2265 2259 2339 2269 2301 2361 2335 2461 2385 2459 2543 2406 2435 2464 2384 2530 2406 2522 2448 2381 2313 2454 2405 2296 2391 2400 2324 2286 2355 2288 2317 2386 2374 2395 2364 2225 2253 2255 2211 2294 2193 2259 2309 2255 2170 2284 2284 2260 2299 2270 2333 2212 2146 2208 2231 2231 2253 2335 2271 2261 2237 2325 2222 2199 2220 2227 2254 2249 2355 2184 2208 2264 2248 2231 2241 2158 2180 2239 2254 2256 2223 2274 2270 2211 2249 2267 2094 2255 2281 2276 2359 2198 2330 2255 2274 2225 2256 2225 2326 2205 2205 2259 2260 2173 2178 2266 2238 2162 2219 2241 2303 2164 2213 2274 2217 2276 2223 2285 2257 2213 2325 2265 2253 2219 2260 2268 2245 2293 2328 2271 2249 2270 2338 2164 2189 2151 2223 2252 2218 2351 2193 2197 2292 2309 2207 2262 2300 2375 2282 2296 2362 2230 2320 2279 2334 2355 2290 2387 2289 2274 2333 2349 2319 2264 2352 2206 2347 2239 2300 2274 2324 2307 2334 2297 2268 2362 2341 2316 2257 2278 2327 2312 2198 2285 2239 2228 2255 2300 2247 2303 2283 2255 2164 2237 2238 2310 2230 2255 2293 2129 2192 2243 2182 2294 2151 2260 2207 2240 2203 2194 2078 2181 2086 2210 2133 2091 2101 2133 2114 2202 2109 2076 2083 2083 2125 2135 2173 2162 2103 2077 2196 2146 2121 2029 2141 2161 2081 2129 2171 2027 2130 2094 2018 2127 2058 2097 2075 1987 2093 2127 2061 2032 2054 2041 2148 2080 2007 1945 2070 2045 2027 2039 2014 2071 2029 2123 2113 2083 1944 2079 2015 1984 1973 2024 2013 2027 2040 2005 2078 1979 1977 1910 1968 2003 2031 2029 1992 2092 1938 1965 1956 1857 2013 2005 2018 2025 2001 1914 1940 1889 1905 1962 1945 1887 1875 1927 1930 1926 1926 1996 2010 1954 1941 1916 1958 1941 1900 1920 1910 1902 1883 1862 1951 1854 1883 1909 1821 1906 1898 1880 1876 1951 1994 1882 1907 1815 1881 1882 1914 1884 1923 1889 1860 1929 1886 1845 1924 1822 1877 1817 1897 1939 1915 1825 1900 1722 1786 1780 1861 1831 1806 1759 1893 1821 1809 1813 1840 1855 1827 1806 1769 1830 1819 1879 1820 1822 1822 1731 1791 1773 1813 1807 1806 1800 1889 1943 1766 1822 1756 1720 1779 1746 1941 1865 1899 1850 1893 1886 1944 1813 1861 1873 1893 1900 2007 1900 2006 2041 2110 2104 2092 2132 2240 2211 2193 2202 2067 2082 2118 2032 2010 2028 2010 2000 1957 1855 1943 1909 1857 1852 1822 1868 1860 1837 1773 1824 1733 1733 1712 1830 1761 1781 1805 1771 1755 1731 1829 1691 1790 1787 1716 1743 1766 1759 1793 1709 1759 1749 1702 1791 1698 1700 1671 1668 1751 1814 1766 1691 1726 1752 1685 1700 1781 1696 1763 1785 1732 1775 1787 1711 1792 1821 1766 1768 1833 1856 1725 1759 1781 1829 1786 1737 1876 1779 1900 1808 1897 1816 1921 1792 1858 1925 1898 1852 1970 1965 2068 2096 2090 2125 2335 2395 2464 2527 2645 2918 3135 3222 3319 3477 3745 3866 3964 3979 4102 4309 4304 4370 4429 4584 4598 4701 4783 4701 4587 4629 4320 4171 4013 3976 3747 3689 3568 3411 3191 3054 2750 2700 2633 2584 2379 2360 2311 2314 2275 2094 2165 2070 2095 2023 1919 1950 1917 1789 1851 1875 1814 1867 1896 1794 1731 1789 1767 1666 1824 1725 1723 1730 1780 1736 1753 1836 1746 1714 1732 1723 1712 1710 1721 1787 1719 1759 1719 1766 1756 1766 1714 1807 1775 1801 1793 1767 1826 1767 1811 1734 1735 1774 1722 1807 1717 1753 1705 1773 1825 1727 1731 1685 1720 1710 1819 1766 1754 1698 1687 1685 1744 1664 1654 1747 1714 1675 1680 1638 1695 1746 1710 1705 1749 1629 1754 1718 1795 1740 1752 1704 1713 1737 1771 1799 1803 1603 1745 1659 1701 1699 1664 1653 1693 1625 1663 1631 1687 1677 1712 1632 1684 1649 1710 1611 1611 1552 1657 1610 1551 1622 1608 1619 1618 1618 1551 1627 1640 1612 1538 1567 1546 1571 1580 1641 1565 1583 1623 1612 1625 1567 1619 1663 1570 1571 1568 1555 1524 1651 1570 1625 1589 1666 1654 1572 1551 1606 1604 1520 1654 1629 1608 1613 1613 1549 1581 1652 1553 1632 1520 1644 1615 1612 1616 1663 1643 1606 1554 1555 1587 1615 1600 1603 1605 1659 1708 1624 1684 1670 1640 1642 1722 1691 1667 1671 1641 1683 1585 1669 1615 1620 1654 1616 1646 1735 1718 1675 1656 1696 1759 1779 1742 1757 1684 1777 1737 1857 1815 1840 1836 1914 1883 1873 1894 1938 1954 1982 2048 2009 2081 2047 2026 2092 2053 1973 2079 1954 2017 1980 1974 1931 1946 1840 1879 1849 1856 1917 1807 1826 1802 1818 1767 1717 1693 1717 1639 1796 1691 1735 1669 1703 1684 1740 1652 1648 1691 1670 1628 1641 1606 1610 1660 1693 1673 1681 1684 1684 1682 1613 1651 1657 1690 1709 1617 1668 1659 1651 1607 1567 1658 1587 1587 1643 1621 1554 1648 1636 1531 1623 1632 1563 1615 1601 1630 1669 1618 1685 1719 1631 1580 1659 1613 1629 1639 1669 1623 1580 1657 1622 1615 1563 1544 1697 1647 1655 1593 1633 1659 1656 1672 1682 1642 1628 1641 1589 1639 1573 1600 1610 1637 1548 1650 1623 1534 1729 1538 1607 1660 1627 1598 1590 1639 1705 1563 1706 1553 1640 1583 1638 1620 1674 1596 1602 1585 1650 1676 1566 1584 1577 1599 1658 1663 1604 1611 1568 1662 1586 1612 1634 1653 1624 1800 1698 1747 1692 1752 1701 1707 1697 1732 1693 1723 1749 1826 1812 1872 1895 1912 2022 2002 2184 2240 2296 2427 2527 2786 2861 3024 3067 3314 3477 3651 4012 4135 4475 4550 4872 5152 5423 5668 5933 5863 5891 5792 5462 5416 5209 5091 4842 4690 4476 4174 4042 3757 3540 3364 3155 2984 2899 2690 2605 2482 2418 2224 2199 2115 2099 2044 1995 1868 1996 1962 1898 1839 1851 1847 1791 1814 1779 1746 1813 1709 1875 1716 1791 1690 1754 1734 1743 1732 1708 1754 1753 1686 1752 1703 1707 1814 1757 1738 1710 1770 1750 1761 1798 1745 1714 1713 1728 1779 1640 1782 1723 1731 1695 1732 1710 1763 1720 1777 1709 1728 1774 1828 1883 1789 1876 1858 1853 1823 1986 1996 1919 2011 1936 2036 2087 2147 2087 2233 2294 2297 2371 2438 2592 2732 2921 3111 3280 3390 3597 3854 4188 4402 4556 4754 4764 4815 4897 4705 4710 4540 4593 4460 4352 4238 4073 3938 3712 3649 3415 3246 3150 3051 2837 2745 2681 2595 2520 2400 2359 2370 2104 2169 2066 2010 2010 2049 1960 1928 1892 1731 1803 1814 1719 1707 1757 1756 1762 1707 1701 1735 1673 1767 1645 1708 1628 1587 1687 1622 1628 1645 1628 1623 1635 1605 1594 1551 1561 1602 1632 1587 1612 1584 1658 1630 1610 1579 1542 1547 1556 1558 1541 1562 1614 1584 1636 1481 1564 1613 1550 1519 1544 1500 1479 1537 1506 1592 1542 1479 1544 1505 1481 1540 1523 1536 1521 1574 1534 1540 1543 1516 1486 1600 1547 1590 1477 1511 1508 1533 1518 1513 1550 1460 1497 1473 1501 1479 1515 1534 1566 1561 1465 1527 1586 1574 1525 1568 1458 1533 1483 1546 1491 1583 1547 1454 1493 1544 1596 1494 1523 1484 1480 1631 1457 1555 1557 1577 1555 1501 1550 1554 1529 1518 1562 1468 1494 1480 1458 1560 1531 1550 1534 1489 1571 1431 1515 1512 1584 1480 1536 1485 1496 1449 1576 1542 1483 1515 1532 1586 1564 1456 1514 1626 1603 1550 1624 1573 1492 1464 1499 1521 1461 1494 1467 1459 1510 1485 1420 1497 1455 1459 1387 1487 1489 1485 1452 1437 1408 1452 1479 1390 1414 1455 1427 1498 1420 1493 1433 1507 1478 1412 1450 1418 1488 1477 1453 1395 1420 1434 1455 1451 1446 1355 1428 1406 1426 1430 1439 1397 1487 1390 1410 1402 1451 1468 1427 1395 1432 1433 1467 1401 1416 1409 1437 1414 1379 1413 1413 1390 1490 1482 1475 1429 1522 1387 1394 1569 1517 1457 1474 1492 1610 1564 1523 1556 1458 1519 1533 1492 1483 1532 1514 1513 1473 1506 1447 1514 1509 1489 1479 1504 1526 1497 1586 1576 1559 1473 1629 1587 1557 1662 1642 1623 1624 1557 1634 1634 1549 1611 1565 1582 1564 1583 1553 1549 1580 1516 1430 1524 1426 1442 1488 1426 1474 1360 1458 1408 1423 1396 1302 1344 1386 1403 1367 1439 1394 1406 1409 1432 1367 1352 1402 1288 1358 1375 1338 1354 1363 1288 1326 1375 1415 1283 1306 1393 1408 1310 1285 1313 1373 1408 1333 1342 1375 1388 1310 1350 1363 1327 1310 1388 1336 1337 1310 1330 1427 1360 1350 1340 1299 1336 1330 1315 1359 1296 1407 1293 1272 1422 1347 1269 1315 1370 1421 1356 1377 1363 1295 1381 1391 1350 1307 1312 1369 1362 1351 1290 1342 1373 1314 1385 1321 1316 1342 1336 1336 1328 1361 1305 1311 1260 1295 1345 1293 1313 1368 1336 1273 1305 1295 1264 1277 1326 1307 1299 1298 1351 1333 1301 1235 1373 1337 1305 1248 1347 1356 1313 1309 1277 1294 1304 1283 1233 1363 1322 1282 1380 1290 1282 1316 1330 1325 1331 1258 1250 1335 1288 1329 1274 1255 1365 1301 1303 1335 1277 1323 1319 1342 1265 1309 1267 1288 1376 1309 1328 1362 1322 1317 1313 1343 1319 1222 1304 1300 1263 1294 1343 1278 1292 1296 1305 1294 1310 1286 1314 1285 1342 1357 1362 1369 1222 1301 1316 1315 1319 1291 1323 1292 1322 1299 1300 1326 1250 1315 1249 1406 1288 1299 1300 1344 1304 1329 1287 1339 1249 1330 1290 1221 1207 1331 1304 1313 1270 1277 1281 1318 1287 1350 1261 1261 1236 1303 1260 1349 1298 1310 1306 1318 1303 1295 1269 1325 1299 1336 1329 1293 1310 1266 1274 1218 1312 1285 1232 1267 1293 1310 1225 1263 1227 1320 1250 1295 1299 1237 1330 1229 1230 1227 1294 1214 1339 1294 1306 1243 1302 1258 1304 1280 1271 1324 1258 1247 1244 1290 1201 1281 1382 1328 1280 1267 1281 1231 1300 1214 1297 1252 1313 1249 1332 1291 1342 1258 1326 1309 1334 1275 1292 1281 1246 1326 1340 1359 1308 1335 1354 1398 1297 1364 1398 1352 1373 1357 1348 1318 1324 1309 1300 1350 1364 1386 1324 1332 1325 1319 1315 1325 1281 1238 1283 1267 1320 1209 1288 1244 1255 1374 1274 1297 1235 1242 1269 1226 1238 1257 1252 1233 1235 1265 1256 1204 1234 1268 1316 1194 1278 1254 1314 1238 1291 1284 1302 1310 1229 1278 1191 1211 1269 1292 1256 1232 1278 1327 1233 1272 1253 1313 1210 1266 1310 1244 1220 1239 1240 1308 1240 1282 1267 1294 1205 1355 1270 1327 1291 1205 1289 1316 1301 1262 1275 1186 1263 1280 1252 1223 1295 1240 1292 1238 1270 1277 1336 1238 1187 1272 1207 1162 1277 1244 1261 1292 1239 1179 1256 1233 1269 1263 1211 1272 1233 1211 1239 1258 1243 1306 1242 1294 1190 1266 1223 1215 1290 1219 1219 1227 1300 1250 1264 1268 1224 1252 1264 1285 1239 1254 1229 1317 1275 1261 1239 1238 1219 1233 1287 1269 1271 1269 1254 1304 1194 1243 1252 1216 1212 1216 1167 1261 1179 1277 1257 1240 1247 1239 1279 1217 1306 1210 1274 1291 1285 1250 1193 1196 1289 1279 1223 1255 1317 1330 1224 1228 1256 1271 1253 1270 1225 1262 1281 1222 1199 1217 1228 1253 1247 1254 1234 1218 1213 1290 1232 1260 1230 1256 1240 1190 1201 1274 1306 1304 1320 1250 1190 1280 1303 1235 1235 1210 1267 1220 1233 1266 1228 1334 1310 1310 1317 1263 1255 1426 1286 1311 1347 1317 1409 1490 1417 1491 1487 1539 1527 1542 1578 1638 1571 1552 1571 1534 1487 1458 1496 1439 1522 1450 1475 1491 1387 1466 1401 1408 1332 1423 1336 1324 1257 1293 1310 1310 1363 1236 1250 1258 1214 1316 1267 1222 1271 1331 1343 1215 1295 1236 1287 1287 1242 1238 1292 1197 1271 1241 1219 1255 1275 1191 1259 1281 1250 1266 1310 1224 1266 1248 1241 1264 1256 1242 1255 1189 1247 1271 1209 1184 1291 1290 1277 1236 1172 1227 1212 1182 1270 1260 1244 1315 1293 1263 1291 1351 1254 1277 1275 1255 1272 1226 1270 1292 1317 1296 1318 1357 1376 1305 1349 1293 1335 1299 1351 1316 1426 1334 1408 1392 1399 1391 1398 1429 1369 1423 1477 1502 1461 1382 1434 1477 1462 1406 1552 1548 1570 1588 1572 1580 1600 1570 1745 1709 1742 1820 1691 1674 1802 1673 1654 1657 1690 1653 1605 1596 1653 1609 1529 1521 1556 1499 1477 1403 1435 1420 1468 1409 1342 1367 1342 1323 1380 1359 1384 1352 1265 1345 1367 1299 1339 1327 1325 1343 1279 1321 1328 1258 1324 1260 1237 1334 1226 1301 1305 1263 1267 1213 1314 1327 1247 1227 1258 1225 1279 1230 1309 1314 1283 1332 1318 1313 1264 1231 1270 1315 1312 1274 1318 1294 1291 1235 1318 1332 1253 1299 1295 1234 1297 1329 1337 1262 1282 1298 1274 1276 1288 1264 1295 1250 1268 1280 1206 1309 1273 1229 1325 1270 1267 1241 1246 1229 1333 1315 1230 1194 1314 1210 1253 1218 1287 1210 1281 1193 1254 1248 1278 1231 1229 1173 1240 1268 1295 1273 1281 1265 1266 1209 1317 1262 1282 1304 1286 1250 1218 1264 1197 1230 1192 1275 1371 1298 1280 1275 1355 1272 1250 1304 1231 1201 1263 1316 1293 1244 1214 1254 1250 1232 1297 1218 1269 1247 1263 1258 1267 1241 1252 1264 1243 1218 1308 1281 1287 1259 1281 1228 1281 1352 1211 1290 1253 1245 1271 1243 1238 1245 1253 1258 1264 1180 1279 1265 1223 1283 1274 1235 1258 1307 1268 1296 1257 1272 1232 1265 1248 1294 1343 1290 1291 1284 1266 1248 1348 1299 1286 1303 1316 1305 1318 1304 1344 1260 1349 1317 1239 1370 1366 1307 1362 1338 1423 1359 1296 1396 1386 1458 1491 1496 1544 1625 1585 1557 1703 1731 1734 1727 1834 1785 1823 1919 1945 2035 2112 2176 2345 2503 2664 2786 2980 2987 3113 2898 2998 3049 2853 2816 2699 2568 2501 2543 2505 2460 2511 2412 2310 2261 2144 2136 2020 1803 1845 1759 1658 1625 1560 1601 1515 1449 1462 1461 1378 1380 1381 1381 1320 1329 1372 1312 1292 1272 1293 1257 1261 1292 1343 1378 1251 1298 1319 1202 1311 1237 1295 1204 1241 1271 1232 1271 1267 1294 1253 1249 1295 1275 1300 1283 1308 1300 1243 1215 1235 1185 1320 1284 1253 1300 1234 1230 1244 1263 1327 1280 1279 1273 1267 1241 1266 1221 1286 1228 1286 1278 1281 1320 1172 1300 1251 1309 1248 1316 1217 1326 1289 1309 1215 1236 1284 1239 1332 1238 1290 1290 1296 1272 1323 1321 1293 1267 1313 1292 1291 1258 1285 1404 1306 1300 1309 1353 1379 1392 1415 1422 1385 1461 1465 1521 1544 1471 1669 1661 1661 1809 1811 1914 1955 1956 1985 1864 2015 1889 2011 1926 2002 1909 1908 1858 1891 1790 1834 1731 1799 1796 1869 1809 1801 1689 1633 1584 1666 1479 1590 1479 1563 1595 1474 1443 1436 1416 1386 1535 1464 1451 1469 1497 1471 1520 1551 1567 1641 1679 1694 1730 1836 1874 2129 2259 2414 2490 2714 2753 2905 2904 2887 2734 2735 2572 2525 2534 2511 2569 2566 2570 2585 2634 2586 2474 2504 2377 2327 2237 2099 2071 2019 2044 1907 1915 1847 1851 1857 1785 1754 1760 1755 1698 1670 1641 1521 1539 1506 1521 1434 1456 1443 1523 1415 1471 1375 1328 1389 1255 1268 1317 1258 1290 1221 1288 1268 1280 1266 1273 1287 1192 1256 1228 1286 1254 1233 1283 1212 1236 1217 1204 1216 1228 1205 1265 1257 1144 1298 1232 1243 1165 1216 1198 1206 1196 1252 1202 1211 1192 1251 1182 1209 1210 1211 1242 1253 1266 1173 1183 1220 1278 1213 1298 1208 1213 1186 1225 1190 1216 1190 1207 1168 1221 1196 1214 1230 1153 1235 1213 1224 1236 1180 1222 1126 1241 1211 1208 1258 1226 1181 1171 1268 1158 1256 1298 1189 1245 1182 1155 1236 1256 1241 1236 1265 1215 1267 1203 1215 1203 1190 1176 1152 1169 1165 1182 1163 1210 1159 1222 1262 1231 1142 1194 1222 1194 1167 1199 1248 1217 1233 1173 1158 1135 1175 1232 1181 1211 1205 1220 1198 1143 1246 1199 1178 1196 1172 1227 1155 1190 1166 1220 1196 1223 1194 1198 1186 1237 1211 1179 1193 1173 1183 1138 1243 1194 1180 1205 1245 1243 1206 1263 1182 1249 1214 1247 1244 1278 1248 1296 1237 1387 1406 1368 1373 1423 1503 1603 1560 1734 1743 1748 1849 1942 1852 1842 1795 1753 1713 1717 1730 1789 1724 1665 1694 1687 1733 1666 1697 1614 1614 1603 1532 1473 1426 1411 1389 1375 1355 1332 1394 1338 1281 1281 1299 1260 1211 1282 1263 1267 1168 1248 1213 1155 1229 1187 1216 1214 1170 1197 1237 1195 1193 1202 1188 1181 1120 1215 1209 1208 1226 1183 1207 1212 1182 1117 1090 1122 1170 1198 1178 1204 1150 1207 1235 1181 1222 1199 1218 1189 1178 1208 1170 1157 1110 1131 1125 1132 1111 1143 1116 1177 1161 1120 1127 1109 1111 1133 1167 1209 1096 1128 1133 1120 1076 1115 1139 1128 1126 1180 1150 1122 1085 1131 1130 1173 1097 1150 1123 1090 1089 1157 1198 1174 1134 1172 1142 1144 1140 1098 1186 1102 1187 1183 1196 1151 1132 1140 1107 1165 1156 1098 1207 1114 1136 1149 1131 1166 1073 1135 1134 1137 1181 1184 1179 1185 1146 1165 1168 1194 1221 1144 1173 1137 1149 1211 1207 1195 1161 1223 1166 1173 1199 1227 1177 1162 1148 1172 1184 1192 1188 1213 1231 1172 1151 1204 1134 1169 1205 1137 1164 1184 1143 1139 1152 1115 1097 1125 1107 1164 1164 1166 1152 1171 1203 1229 1169 1180 1141 1123 1198 1150 1114 1141 1111 1089 1179 1120 1125 1108 1187 1128 1072 1092 1182 1135 1120 1150 1177 1110 1122 1117 1070 1107 1089 1093 1086 1136 1141 1123 1208 1129 1151 1138 1187 1087 1154 1117 1126 1152 1154 1204 1126 1145 1164 1136 1070 1130 1150 1118 1099 1180 1168 1150 1113 1168 1084 1157 1153 1149 1148 1140 1140 1101 1157 1135 1117 1102 1115 1147 1132 1161 1110 1066 1139 1093 1152 1118 1157 1179 1150 1162 1097 1125 1186 1125 1127 1204 1138 1154 1135 1095 1126 1130 1142 1202 1116 1137 1119 1171 1127 1132 1110 1134 1123 1181 1097 1138 1122 1121 1130 1096 1138 1176 1141 1135 1172 1165 1087 1069 1132 1175 1106 1174 1128 1071 1182 1161 1151 1173 1187 1271 1179 1126 1107 1085 1167 1098 1223 1191 1201 1137 1209 1186 1181 1186 1224 1175 1215 1191 1152 1091 1102 1176 1197 1126 1173 1121 1204 1125 1148 1109 1136 1107 1171 1212 1165 1211 1135 1175 1136 1184 1144 1125 1141 1183 1127 1123 1151 1127 1154 1145 1153 1147 1230 1121 1091 1104 1113 1176 1139 1118 1125 1123 1160 1185 1115 1167 1173 1174 1143 1175 1211 1197 1222 1222 1220 1277 1304 1287 1275 1329 1344 1357 1326 1363 1390 1304 1338 1322 1289 1391 1297 1415 1394 1395 1463 1431 1492 1555 1624 1515 1608 1639 1707 1600 1606 1587 1627 1576 1554 1417 1520 1508 1497 1463 1439 1417 1496 1459 1440 1421 1351 1306 1383 1269 1265 1288 1227 1263 1200 1191 1166 1184 1121 1181 1225 1111 1102 1120 1136 1147 1130 1040 1193 1050 1125 1180 1109 1105 1096 1048 1096 1103 1103 1111 1083 1118 1069 1127 1129 1062 1097 1162 1091 1101 1088 1002 1099 1117 1065 1127 1067 1116 1108 1130 1071 1142 1082 1144 1083 1080 1049 1092 1101 1168 1076 1089 1083 1195 1145 1149 1104 1125 1111 1142 1041 1116 1122 1079 1092 1054 1096 1080 1101 1117 1096 1106 1095 1085 1132 1080 1144 1133 1119 1100 1152 1147 1108 1167 1098 1151 1120 1214 1148 1086 1098 1106 1131 1131 1097 1163 1077 1034 1112 1130 1095 1127 1112 1194 1108 1136 1122 1121 1158 1126 1114 1183 1191 1074 1106 1110 1124 1087 1142 1037 1113 1114 1158 1075 1153 1113 1130 1100 1100 1184 1125 1179 1148 1176 1119 1140 1152 1197 1162 1211 1197 1200 1204 1184 1170 1153 1150 1156 1140 1159 1154 1114 1155 1233 1163 1126 1185 1199 1094 1157 1168 1231 1127 1141 1169 1199 1096 1186 1127 1165 1163 1071 1101 1074 1167 1150 1087 1148 1125 1134 1070 1215 1132 1127 1143 1146 1200 1184 1142 1175 1180 1196 1135 1160 1187 1171 1163 1189 1200 1125 1161 1143 1147 1167 1162 1216 1147 1213 1170 1236 1222 1203 1184 1221 1266 1231 1258 1226 1199 1185 1213 1219 1297 1284 1234 1253 1268 1275 1206 1303 1310 1326 1358 1455 1423 1421 1565 1485 1600 1600 1583 1594 1560 1559 1494 1501 1404 1488 1416 1349 1405 1456 1441 1414 1370 1294 1346 1310 1368 1342 1354 1318 1289 1252 1280 1259 1171 1218 1224 1194 1156 1122 1209 1137 1192 1161 1138 1201 1144 1123 1088 1137 1117 1098 1074 1148 1205 1133 1089 1162 1099 1129 1036 1127 1093 1169 1121 1152 1141 1178 1094 1101 1104 1123 1109 1136 1097 1096 1141 1139 1108 1130 1181 1126 1048 1097 1068 1077 1138 1109 1110 1092 1156 1141 1091 1157 1104 1177 1157 1149 1100 1141 1130 1125 1117 1107 1165 1131 1181 1070 1078 1098 1099 1159 1163 1149 1104 1115 1121 1179 1136 1224 1141 1077 1183 1117 1116 1142 1120 1085 1118 1099 1135 1134 1169 1199 1153 1121 1100 1168 1130 1153 1175 1132 1160 1127 1065 1184 1197 1173 1161 1229 1176 1191 1196 1350 1281 1339 1377 1364 1412 1378 1360 1368 1413 1370 1378 1334 1339 1341 1370 1320 1334 1432 1380 1343 1420 1417 1389 1362 1351 1356 1315 1299 1333 1323 1311 1217 1183 1270 1231 1265 1195 1175 1162 1175 1210 1194 1188 1197 1234 1238 1168 1180 1216 1189 1261 1277 1288 1187 1233 1236 1249 1260 1261 1260 1241 1177 1216 1165 1181 1242 1239 1201 1217 1222 1228 1221 1197 1212 1169 1169 1224 1160 1196 1193 1255 1260 1187 1105 1157 1170 1209 1117 1132 1173 1216 1261 1290 1272 1268 1317 1308 1344 1347 1425 1519 1401 1416 1453 1491 1437 1473 1412 1387 1356 1356 1405 1410 1406 1337 1380 1375 1426 1349 1291 1383 1334 1382 1311 1325 1306 1281 1270 1190 1209 1168 1230 1181 1195 1252 1209 1272 1162 1118 1100 1180 1155 1153 1218 1170 1122 1130 1096 1118 1135 1124 1135 1151 1136 1062 1106 1106 1136 1138 1137 1152 1084 1092 1147 1105 1087 1045 1087 1109 1059 1115 1106 1159 1047 1093 1076 1084 1117 1144 1105 1086 1093 1093 1111 1118 1109 1129 1132 1102 1129 1106 1119 1146 1161 1092 1131 1141 1149 1155 1176 1117 1125 1155 1085 1122 1195 1152 1063 1140 1144 1188 1112 1100 1071 1179 1147 1040 1097 1129 1131 1121 1188 1159 1110 1104 1147 1173 1096 1227 1178 1181 1205 1213 1226 1193 1186 1252 1249 1150 1168 1256 1166 1173 1250 1178 1155 1267 1217 1248 1177 1141 1219 1194 1182 1181 1164 1238 1124 1172 1195 1183 1091 1168 1148 1155 1072 1134 1138 1171 1131 1061 1180 1087 1057 1113 1083 1163 1047 1136 1134 1139 1106 1124 1134 1136 1105 1103 1081 1096 1136 1080 1108 1072 1085 1023 1030 1137 1067 1040 1100 1072 1141 1065 1083 1096 1115 1113 1093 1126 1159 1120 1177 1152 1130 1184 1099 1088 1104 1118 1115 1105 1069 1108 1120 1100 1091 1095 1101 1124 1028 1076 1156 1094 1099 1038 1052 1070 1131 1073 1124 1126 1062 1036 1060 1051 1107 1053 1094 1062 1111 1048 1043 1106 999 1069 1091 1023 1082 1121 1082 1086 1086 1116 1064 1103 1057 1095 1078 1063 1108 1110 1092 1147 1054 1130 1078 1108 1085 1027 1094 1116 1136 1110 1118 1048 1104 1063 1128 1057 1137 1125 1082 1121 1129 1033 1117 1071 1120 1115 1028 1045 1101 1075 1049 1055 1038 1110 1093 1060 1121 1105 1149 1015 1100 1059 1120 1108 1059 1061 1123 1142 1130 1057 1148 1093 1102 1053 1072 1099 1127 1063 1066 1065 1058 1069 1042 1103 1117 1077 1071 1018 1060 1083 1080 1087 1043 1027 1114 1084 1054 1018 1136 1080 1068 1065 1085 1074 1072 1101 1090 970 1054 1040 1038 1069 1051 1032 1049 1128 1086 1127 1096 1042 1073 1034 1000 1040 1079 1103 1060 1046 1068 1027 1074 997 1049 1043 1066 1033 1078 1049 1072 1038 1050 1052 1074 1072 1098 1040 992 1070 1030 1094 1069 1016 1090 1089 1034 1020 998 1106 1081 1093 1098 1046 1069 1045 1107 1054 1016 990 1029 1077 1061 991 1019 1033 1049 1040 1094 1040 1071 1060 1043 1020 1064 1012 1031 1057 1076 1105 1053 1004 1080 1066 1096 1087 1060 1052 1103 1018 1083 1059 1082 1081 1071 1076 1036 1070 1066 1069 1083 1115 1105 1070 1105 1125 1093 1102 1107 1051 1129 1153 1162 1089 1061 1093 1117 1076 1101 1032 1073 1126 1093 1093 1057 1141 1133 1077 1068 1117 1054 1059 1079 1091 1085 1088 1024 1123 1079 1091 1069 1071 1106 1049 1091 1052 1065 1100 1115 1048 1020 1072 1014 1025 1067 1051 1030 1132 1060 1055 1043 989 1030 1077 1003 994 1066 1064 1073 998 1102 1009 1044 1005 1090 1011 1037 1030 1040 1054 1043 1068 1090 1047 1044 1087 1103 1095 1082 1065 1035 1046 1074 984 1046 1046 1039 1139 1044 1018 1129 1012 1061 1100 1066 1054 1035 1026 1097 983 996 1054 1043 1038 1081 1047 1037 1051 1105 1107 1051 1053 1064 1041 1053 1012 1029 1106 1015 1113 1081 1065 1061 1035 1047 1034 1007 1084 1032 1042 1083 1020 1022 1090 1048 1033 1025 1013 1029 1074 1087 1057 1054 1085 1022 1048 1032 1083 1030 1092 1015 1027 1062 1055 1045 1028 1098 1078 1019 1081 1070 1087 1081 1069 1042 1080 1035 1003 1040 1120 1040 1044 1029 1025 1091 1047 1048 1066 1026 1078 1061 1045 990 1027 1049 1057 1029 1010 1037 998 1087 1079 1076 1078 1030 1056 1091 1052 1059 1063 1077 974 1060 1019 1016 1032 1085 1098 1069 1061 1074 1055 1015 1038 1073 1056 1037 1049 1051 1070 1053 1039 1022 1054 1096 1091 1093 1143 1052 1060 1036 999 1052 1010 1105 1117 1089 1046 1115 1055 1042 1100 1170 1066 1086 1084 1100 1073 1043 1075 1106 1096 1150 1070 1039 1096 1104 1142 1082 1124 1099 1085 1155 1159 1145 1216 1205 1177 1156 1176 1223 1139 1130 1143 1155 1122 1175 1150 1172 1174 1150 1183 1172 1158 1185 1137 1175 1181 1181 1149 1149 1115 1180 1162 1159 1143 1152 1121 1193 1147 1212 1170 1118 1222 1211 1212 1200 1168 1225 1280 1208 1219 1215 1207 1236 1319 1246 1246 1226 1223 1200 1204 1218 1211 1249 1225 1135 1244 1156 1196 1186 1215 1144 1182 1167 1132 1109 1147 1113 1104 1137 1090 1108 1105 1091 1033 1035 1084 1058 1042 1101 1079 1078 1044 1108 1041 1099 1058 1098 1019 1106 1056 1074 1069 1095 1023 1087 1000 1111 1001 1008 1053 1015 1066 1025 1108 1021 1090 1036 1041 1042 1068 1045 992 1043 1091 1027 1054 1047 1053 983 1074 1070 1014 1138 1065 1058 1014 1097 1058 1112 1108 1058 1050 1070 1014 1037 992 1112 978 1112 1072 1089 996 1027 1011 1038 1041 996 1050 1034 1040 1059 1027 1062 1059 1039 1044 1065 1031 1098 1012 1035 1098 1037 1052 1022 1025 1057 1098 1043 1041 1015 1006 1000 1068 1077 1076 1081 1011 1045 1085 1035 1085 1059 1016 1031 1108 1010 1098 1046 1046 1002 1068 993 1023 1054 1028 1025 1025 1001 1012 1076 1016 992 1065 989 1024 1100 1045 1072 1056 1024 1022 1069 1083 1091 999 1010 1054 1069 1085 1021 1045 1027 1039 998 1064 1039 1075 1105 1079 1030 1019 1104 1042 1037 1051 1027 1109 1060 1078 1082 1081 1058 1060 1096 1066 1078 1096 1173 1060 1039 1034 1069 1061 1085 1064 1077 1115 1061 1046 1091 1049 1043 1099 1077 1057 1094 960 1058 1052 1053 1089 1043 1037 1067 1041 1094 1091 1127 1086 1061 1087 1062 1089 1139 1107 1061 1099 1025 1090 1080 1090 1104 1024 1087 1128 1074 1057 1143 1063 1152 1062 1131 1065 1102 1178 1100 1099 1155 1149 1197 1154 1173 1106 1159 1142 1156 1193 1215 1129 1200 1211 1167 1127 1147 1195 1126 1114 1128 1076 1195 1139 1142 1142 1137 1179 1204 1176 1131 1219 1108 1136 1135 1141 1126 1139 1072 1154 1106 1070 1120 1088 1121 1049 1053 1052 1025 1150 1067 1085 1105 1102 1019 1082 1044 1024 1113 1046 1067 1132 1014 1091 1028 1055 1029 1070 1086 1036 1110 1062 1055 1071 1032 1033 1059 1036 1076 1004 1103 1016 1071 1109 1070 1041 1052 978 1043 1029 942 1044 1092 1041 1079 1003 1026 1071 1074 1056 1072 1080 1043 1077 1081 1003 1015 1046 1024 978 1070 1092 1057 1071 1060 1071 1073 1060 1034 1087 1082 1020 1081 1113 1079 1027 1054 1056 1039 1074 1011 1040 1008 1044 1057 977 1057 1031 994 1021 1056 1024 1047 1041 1104 1067 1043 1025 1056 1046 1074 1040 1009 1039 1051 1065 1092 1064 1016 1086 1088 994 1052 1114 1067 1059 1076 1059 1085 1029 1042 1058 1044 1021 1051 1051 1031 1072 1044 1013 1042 1040 1107 1059 1098 1016 1044 1049 1104 1039 1102 1004 1083 1062 1052 1087 1042 1071 1063 1069 1051 1091 1051 989 1034 1040 1040 1040 982 1050 1061 1089 1086 1041 1114 1042 1092 1059 1106 1036 1040 997 1041 1051 1071 1060 1085 1110 1133 1014 1011 1055 1059 1059 1066 1067 976 1014 1034 1076 1032 1061 1076 1051 1023 1073 1100 1011 1033 1078 1046 1060 1031 1049 1054 1020 998 1088 1135 1055 1030 1019 1055 1032 1113 1023 1052 1074 1023 1056 1030 1021 1057 1038 1096 1089 1060 1027 1087 1024 1061 1018 976 1067 1054 1045 1028 1058 1092 1083 1060 1055 1006 1070 1073 1044 1015 1035 1095 1037 1066 1038 1036 1058 1012 1066 1098 1016 1051 1071 1078 1042 1022 1069 1093 987 989 1103 1100 1063 1051 1067 1076 1022 1006 1050 1045 1057 1074 1083 1016 1028 1072 1062 1051 1051 1025 999 969 1020 1088 1073 1030 1067 1036 996 1043 1075 1056 1075 1012 1041 1070 1026 1049 1034 1039 1012 1035 1042 1101 1027 1067 1054 1012 1039 1030 1017 1027 1065 996 1089 1102 1044 1072 1036 1026 1076 1066 1045 1015 1038 1013 1056 1061 1049 1029 1045 1105 1031 1051 1016 1041 1081 1021 1087 1107 1053 1143 1043 1057 1049 998 1129 1044 1086 1099 1102 1092 1064 1106 1149 1102 1131 1056 1121 1067 1137 1154 1107 1060 1091 1104 1093 1047 1125 1063 1100 1094 1110 1090 1086 1095 1073 1077 1141 1055 1101 1128 1135 1136 1111 1142 1130 1094 1122 1119 1154 1117 1161 1085 1094 1124 1127 1135 1082 1137 1164 1200 1139 1113 1134 1147 1130 1200 1099 1146 1170 1119 1155 1175 1211 1108 1093 1084 1172 1172 1095 1083 1086 1114 1134 1109 1058 1121 1093 1058 1132 1086 1124 1105 1113 1093 1175 1122 981 1131 1083 1083 1058 1129 1073 1030 1059 1066 1131 1063 1084 1056 1042 1033 1062 1015 1116 1043 1057 1034 977 1108 1063 1093 1101 1048 1033 1095 1007 1035 1061 1037 1055 1051 1028 1007 1032 1069 1055 1045 965 1106 1088 1085 1088 1041 1027 1045 1026 1090 1062 1011 1087 1020 1079 1054 1028 1041 1071 984 1049 1075 1131 1022 1070 1038 1030 1017 1087 1066 1036 1037 1058 1024 1095 1036 1066 1081 1055 1061 1016 994 1055 1115 993 1016 1016 1141 1041 1081 1055 1054 1094 1066 1068 1057 1087 1001 1020 1078 1121 1058 1063 1026 1052 1033 1082 1087 1142 1061 1103 1084 1052 1092 1037 1110 1087 1135 1080 1124 1119 1133 1104 1086 1106 1055 1136 1049 1064 1039 1157 1162 1079 1106 1097 1067 1124 1041 1079 1136 1117 1101 1122 1046 1115 1115 1085 1147 1113 1068 1098 1093 1083 1170 1074 1088 1094 1090 1123 1125 1104 1044 1109 1100 1104 1129 1192 1089 1186 1101 1127 1095 1125 1108 1177 1147 1177 1167 1166 1190 1208 1102 1131 1105 1156 1180 1106 1198 1197 1247 1234 1161 1222 1156 1217 1256 1212 1246 1261 1321 1426 1313 1345 1347 1290 1366 1411 1425 1394 1349 1362 1316 1279 1305 1276 1299 1301 1261 1279 1146 1243 1203 1317 1249 1229 1278 1226 1333 1223 1239 1271 1211 1233 1211 1246 1253 1198 1184 1189 1145 1165 1128 1135 1120 1131 1111 1104 1077 1089 1100 1099 1101 1065 1074 1136 1034 1053 1080 1114 1090 1023 1085 1066 1125 1045 1073 1026 1035 1061 1044 1092 1065 1100 1100 1041 1037 1130 1076 1094 1113 1047 1133 1068 1062 1072 1099 1138 1046 1073 1065 1095 1138 1081 1093 1049 1092 1138 1077 1081 1108 1048 1046 1134 1079 1058 1090 1058 1027 1053 1098 1080 1092 1077 1066 1034 1059 1058 980 1052 1045 1044 1064 1107 1077 1111 1025 1108 1134 1111 1052 1113 1055 1071 1077 1090 1118 1084 1051 1076 1035 1056 1014 1066 1070 1103 1064 1052 1021 1085 1079 1071 1035 1038 1013 998 1046 1065 1003 1044 1085 1019 1084 1054 1080 1006 1034 1097 1053 1071 1069 1034 1086 1088 1074 1091 1072 1144 1123 1055 1129 1107 1075 1034 1054 1054 1078 1072 1101 1102 1078 1036 1014 1074 1077 1095 1047 1087 1137 1096 1110 1048 1072 1074 1097 1103 1090 1096 1044 1081 1084 1071 1159 1026 1065 985 1084 1124 1052 1069 1028 1081 1013 1059 1071 1127 1042 1037 1058 1052 1104 1013 1107 1072 991 1087 1050 1091 1015 1045 1123 1044 1027 1034 1114 1102 1081 1094 1071 1066 1046 1042 1057 1079 1097 1088 1105 1073 1125 1050 1099 1127 1065 1094 1101 1127 1110 1130 1103 1167 1129 1065 1109 1106 1093 1029 1066 1133 1089 1106 1095 1139 1139 1110 1248 1166 1133 1167 1148 1232 1196 1257 1213 1238 1303 1239 1315 1386 1292 1275 1271 1336 1313 1337 1273 1289 1240 1268 1332 1289 1212 1284 1213 1249 1237 1201 1259 1264 1246 1219 1261 1259 1221 1219 1227 1292 1284 1260 1221 1236 1228 1211 1221 1198 1262 1143 1235 1195 1166 1192 1152 1146 1084 1171 1193 1055 1134 1161 1156 1137 1078 1121 1067 1148 1169 1139 1120 1104 1114 1094 1067 1135 1091 1042 1138 1119 1057 1066 1061 1063 1076 1146 1122 1142 1097 1083 1145 1103 1182 1176 1218 1143 1233 1155 1206 1233 1282 1308 1189 1171 1231 1229 1219 1251 1216 1232 1170 1199 1218 1167 1221 1181 1198 1183 1139 1182 1200 1167 1112 1223 1235 1110 1186 1147 1211 1190 1159 1159 1165 1157 1144 1119 1145 1165 1092 1100 1120 1139 1121 1112 1062 1103 1109 1105 1062 1117 1056 1119 1070 1033 1099 1063 1070 1054 1067 1020 1108 1069 1097 1076 1036 1095 1057 1087 1053 1006 1084 1057 1013 1082 1084 1055 1022 1061 1090 1060 1023 1074 1117 1060 1077 1066 1087 1063 1072 1073 1096 1060 1067 1069 1087 1064 1037 1120 1083 1086 1068 1018 1037 1067 1065 1134 1031 1099 1041 1101 1096 1070 1086 1034 1098 1078 1081 1082 1024 1103 1016 1146 1049 1043 1099 1108 1110 1101 1100 1084 1079 1087 1059 1070 1117 1061 1027 1091 1087 1081 1069 1060 1107 1055 1145 1056 1054 1041 1112 1066 1095 1055 1013 1032 1073 1047 1030 1107 1037 1053 1011 1006 1050 1085 1045 1045 1031 1041 1069 1029 1097 1012 1096 960 1036 1043 1080 1066 999 1075 1105 1055 1045 1082 1067 1072 1108 1140 969 1053 1056 1018 1033 1041 1017 998 1045 1028 1063 1031 1120 1087 1102 1020 1050 1051 1055 1020 1067 1064 1060 1020 1034 1074 1044 1017 1092 1081 1052 1106 1001 996 1036 1008 1047 1013 997 1033 995 1046 1024 1025 1071 1055 1061 1041 1043 1052 967 1014 1023 1039 1034 1028 1028 1024 1045 1015 1050 1111 1007 1025 1037 1026 1091 1024 1040 1054 1085 1052 984 1081 1035 1095 1035 964 1039 1026 1062 1053 1052 1057 1086 1046 1062 1086 1092 1049 1100 1085 1108 1056 1037 1005 1086 1042 996 1008 1079 1078 1110 1024 1049 1077 1046 1048 1102 1073 1056 1051 1076 1091 1029 1109 1080 1048 991 1038 997 1094 1122 1069 1124 1038 1095 1016 1010 1084 1005 949 1010 1040 1033 1055 1085 1037 1085 1005 1025 1058 1000 964 1027 1045 1010 1073 1021 1021 1045 1038 1047 998 1060 1051 1009 1062 1003 964 1054 1006 989 1007 1037 1040 1037 1082 956 1002 976 1006 1041 1062 971 973 1091 1032 1064 999 1050 1031 998 989 1026 1073 1026 1064 987 1028 1052 1011 1015 991 987 1028 1060 1035 1027 983 1019 1035 1011 995 1017 968 1046 1019 972 1015 1068 1011 1027 1012 997 1002 1017 1067 1025 1058 1025 1034 1053 1025 1025 1016 963 983 1030 1019 1049 1095 1051 1060 1070 984 1036 1039 1051 1035 986 1012 1027 1002 1003 995 1048 968 1007 1073 1042 994 1011 1118 992 1021 1094 1069 1044 1066 972 1007 979 1043 1017 1030 1009 995 979 975 1039 990 970 1018 1079 1019 1027 999 988 1023 1015 1024 973 1024 1017 1024 1037 1048 1070 1050 994 1081 1078 1029 1062 1036 1020 1051 1048 1018 977 1040 1037 1052 1040 1011 1033 981 1036 1029 1037 1025 966 1032 1026 1049 1001 1039 1034 1039 1027 1089 1043 1065 1081 1021 977 1041 1014 1023 1055 1003 1018 1076 1085 1093 1048 1041 1084 1082 1056 999 1091 1104 1104 1015 1128 1060 1101 1078 1116 1048 1109 1059 1032 1079 1043 1145 1034 1050 1080 1080 1127 1105 1084 1145 1043 1052 1117 1120 1113 1199 1131 1147 1112 1151 1216 1124 1176 1201 1180 1213 1156 1279 1252 1178 1260 1198 1234 1276 1217 1281 1226 1284 1157 1185 1165 1222 1260 1220 1154 1174 1161 1131 1135 1191 1124 1138 1210 1152 1142 1130 1175 1158 1120 1137 1150 1157 1133 1159 1141 1131 1231 1152 1052 1086 1065 1088 1115 1044 1108 1103 1044 1067 1123 1038 1083 1027 1051 1087 994 1019 980 1048 1058 1024 1115 982 1010 1040 976 1035 1061 1034 1039 1071 1054 1062 1061 1014 1029 1022 1060 1048 1037 1031 1070 1022 996 1060 982 1077 1054 1027 1017 1048 1016 1026 1024 992 1014 1006 1060 1061 1040 1006 1071 1037 1030 1043 1101 1057 1033 1087 1047 1083 1008 1057 1037 1043 1039 1092 1060 1040 1041 1002 1077 1088 1126 1032 1025 1050 1073 1066 1036 1064 1038 1101 1060 1061 1041 1096 1059 1098 1016 1067 1100 1019 1088 1068 1057 1094 1047 1015 1007 1086 1070 1074 1063 991 1008 1082 1030 1072 1059 1017 986 1098 1095 1087 1019 1039 1063 1057 1030 1031 1036 1016 1029 1049 1036 1055 1041 1035 974 1069 1018 1043 1037 1055 1012 1094 1039 1062 1060 1009 1083 1056 1105 1032 1052 1015 1068 1020 1055 1020 1034 986 1007 963 1046 1095 1093 1120 1029 1068 1055 1051 1052 1039 1052 1038 1074 994 1029 967 1081 1053 1033 1024 968 974 1038 1088 1023 1018 1041 1023 978 1090 1033 1052 1051 1064 1080 1082 1058 1036 1056 964 1009 1022 1071 1059 1016 996 1062 1028 1068 1063 990 1016 1051 1019 1074 1043 1074 1080 1047 1064 1060 1126 1047 1069 1096 1056 1060 1054 999 1016 1061 1082 1077 1068 1059 1047 1047 1059 996 1043 1100 1112 1121 1101 1085 1070 1041 1126 1069 1063 1111 1060 1127 1081 1079 1042 1122 1120 1042 1105 1031 1055 1057 1067 1038 1087 1052 1095 1017 1054 1126 1059 1002 1030 1052 1068 1044 1098 1015 997 1060 1065 1106 1065 1048 1004 1036 1041 1079 1013 1080 1078 1025 1081 1074 1092 1028 1085 1040 1073 1098 1058 1037 1030 1093 1007 1037 1091 1071 1079 1012 1027 1038 1073 1074 1004 1084 1088 1020 1075 1075 1064 1005 1044 1028 1043 1109 994 1056 1046 1013 1053 1032 1084 1037 1046 1003 994 1045 977 1065 1061 1068 1031 962 1023 1008 1057 1000 986 1044 1028 1014 1041 1085 1092 996 1023 1029 1084 1011 1043 1050 1011 1063 1035 1041 1109 1065 1071 1025 1076 1107 1049 1120 1098 1120 1132 1072 1088 1138 1138 1089 1065 1122 1088 1138 1132 1128 1079 1123 1024 1116 1124 1126 1079 1124 1136 1123 1098 1107 1062 1083 1083 1081 1070 1085 1110 1105 1099 1093 1109 1127 1160 1129 1148 1170 1133 1141 1146 1157 1163 1142 1143 1203 1150 1197 1154 1216 1141 1207 1165 1172 1160 1192 1125 1228 1160</counts>
			</dataPoints>
		</scan>
	</xrdMeasurement>
</xrdMeasurements>
