<?xml version="1.0"?>
<xrdMeasurements xmlns="http://www.xrdml.com/XRDMeasurement/2.3" xmlns:xsi="http://www.w3.org/2001/XMLSchema-instance" xsi:schemaLocation="http://www.xrdml.com/XRDMeasurement/2.3 http://www.xrdml.com/XRDMeasurement/2.3/XRDMeasurement.xsd" status="Completed" recordIdentifier="{B434E18F-8333-4EC9-A656-6AAA411A338A}">
	<comment>
		<entry/>
	</comment>
	<sample type="To be analyzed">
		<id>GPSS_Li1p6Co0p8In0p1Ta0p1Cl4_121825_6943d914f4d05ae3d69790bd</id>
		<name></name>
		<preparedBy></preparedBy>
	</sample>
	<xrdMeasurement measurementType="Scan" status="Completed" sampleMode="Reflection">
		<usedWavelength intended="K-Alpha 1">
			<kAlpha1 unit="Angstrom">1.5405980</kAlpha1>
			<kAlpha2 unit="Angstrom">1.5444260</kAlpha2>
			<kBeta unit="Angstrom">1.3922500</kBeta>
			<ratioKAlpha2KAlpha1>0.5000</ratioKAlpha2KAlpha1>
		</usedWavelength>
		<incidentBeamPath>
			<radius unit="mm">145.00</radius>
			<xRayTube id="1010048" name="Empyrean Cu LFF HR (9430 033 7310x)">
				<tension unit="kV">40.0</tension>
				<current unit="mA">15.0</current>
				<anodeMaterial>Cu</anodeMaterial>
				<focus type="Line">
					<length unit="mm">12.0</length>
					<width unit="mm">0.4</width>
					<takeOffAngle unit="deg">6.0</takeOffAngle>
				</focus>
			</xRayTube>
			<sollerSlit id="21010002" name="Soller slits 0.04 rad.">
				<opening unit="rad">0.0400</opening>
			</sollerSlit>
			<mask id="22031000" name="Fixed mask 13 mm">
				<width unit="mm">9.00</width>
			</mask>
			<divergenceSlit id="22120001" name="Divergence slit 1°" xsi:type="fixedDivergenceSlitType">
				<distanceToSample unit="mm">50.00</distanceToSample>
				<height unit="mm">1.52</height>
			</divergenceSlit>
		</incidentBeamPath>
		<sampleMovement xsi:type="spinningSampleMovementType">
			<spinnerRevolutionTime unit="seconds">1.0</spinnerRevolutionTime>
		</sampleMovement>
		<diffractedBeamPath>
			<radius unit="mm">145.00</radius>
			<antiScatterSlit id="22090040" name="AS slit 9 mm (PIXcel)" xsi:type="fixedAntiScatterSlitType">
				<height unit="mm">9.00</height>
			</antiScatterSlit>
			<sollerSlit id="21020003" name="Large Soller slits 0.04 rad.">
				<opening unit="rad">0.0400</opening>
			</sollerSlit>
			<filter id="20030001" name="Large beta-filter Nickel">
				<material>Ni</material>
				<thickness unit="mm">0.020</thickness>
			</filter>
			<detector id="7010019" name="PIXcel1D-Medipix3 detector" xsi:type="rtmsDetectorType">
				<phd unit="keV">
					<lowerLevel>4.02</lowerLevel>
					<upperLevel>11.27</upperLevel>
				</phd>
				<mode>Scanning</mode>
				<activeLength unit="deg">5.542</activeLength>
			</detector>
		</diffractedBeamPath>
		<scan appendNumber="0" mode="Continuous" scanAxis="Gonio" status="Completed">
			<header>
				<startTimeStamp>2025-12-22T12:01:56-08:00</startTimeStamp>
				<endTimeStamp>2025-12-22T12:10:04-08:00</endTimeStamp>
				<author>
					<name>AutomatedUser</name>
				</author>
				<source>
					<applicationSoftware version="1.7b (136)">PANalytical Aeris Instrument Suite</applicationSoftware>
					<instrumentControlSoftware version="3.2.00000000 20240306">AERIS</instrumentControlSoftware>
					<instrumentID>950485</instrumentID>
				</source>
			</header>
			<dataPoints>
				<positions axis="2Theta" unit="deg">
					<startPosition>10.00943322</startPosition>
					<endPosition>99.99442286</endPosition>
				</positions>
				<positions axis="Omega" unit="deg">
					<startPosition>5.00471661</startPosition>
					<endPosition>49.99721143</endPosition>
				</positions>
				<commonCountingTime unit="seconds">12.495</commonCountingTime>
				<counts unit="counts">3138 3120 3232 3220 3201 3119 3158 3116 3325 3211 3207 3201 3185 3197 3160 3186 3167 3217 3246 3258 3206 3301 3252 3289 3287 3270 3247 3274 3288 3322 3117 3251 3237 3315 3179 3228 3281 3309 3296 3330 3277 3335 3184 3309 3253 3279 3313 3224 3347 3324 3158 3264 3411 3421 3339 3413 3404 3396 3364 3398 3437 3332 3333 3400 3424 3521 3396 3409 3328 3355 3359 3341 3419 3447 3424 3409 3335 3492 3542 3413 3342 3379 3387 3432 3382 3384 3494 3425 3314 3478 3488 3448 3549 3439 3516 3419 3481 3500 3474 3434 3572 3504 3537 3446 3447 3486 3590 3405 3478 3502 3460 3545 3605 3583 3498 3523 3512 3514 3540 3493 3508 3619 3657 3546 3574 3581 3634 3576 3535 3594 3591 3493 3657 3650 3456 3493 3649 3648 3631 3534 3589 3552 3624 3641 3638 3481 3583 3718 3545 3784 3661 3704 3686 3615 3635 3571 3641 3624 3677 3648 3540 3558 3573 3563 3522 3759 3679 3679 3659 3710 3666 3632 3653 3699 3667 3642 3534 3744 3632 3658 3603 3633 3629 3665 3617 3609 3583 3776 3607 3746 3728 3623 3671 3737 3821 3693 3599 3644 3736 3694 3689 3590 3619 3604 3616 3589 3683 3665 3703 3760 3671 3715 3538 3640 3554 3546 3595 3644 3637 3632 3602 3645 3615 3624 3598 3641 3523 3634 3816 3571 3673 3605 3580 3568 3593 3578 3797 3672 3695 3665 3630 3448 3582 3682 3573 3614 3680 3664 3694 3715 3601 3684 3650 3652 3596 3602 3730 3541 3723 3555 3566 3784 3617 3639 3533 3585 3568 3623 3604 3675 3567 3586 3565 3539 3757 3624 3753 3643 3614 3671 3648 3745 3549 3624 3564 3582 3517 3676 3553 3619 3511 3664 3603 3796 3680 3676 3659 3613 3677 3591 3703 3636 3600 3546 3692 3644 3597 3653 3607 3605 3604 3700 3679 3620 3505 3650 3853 3587 3732 3685 3646 3697 3577 3641 3635 3596 3660 3697 3698 3740 3624 3730 3740 3598 3616 3696 3570 3710 3686 3805 3649 3710 3768 3661 3771 3764 3700 3710 3694 3736 3740 3638 3660 3701 3743 3723 3757 3825 3749 3806 3626 3771 3888 3842 3763 3716 3821 3904 3883 3890 3820 3817 3873 3872 3928 3925 3776 3768 3798 3847 3948 3860 3891 4010 3884 3883 3843 3880 3936 3843 3961 3819 3987 3863 3966 3965 3916 4035 3879 3950 3848 4042 3912 4014 4093 4039 3953 3947 4088 4027 4076 3933 4129 4140 4166 4067 4123 4092 4230 4053 4154 4234 4125 4130 4293 4178 4298 4291 4396 4423 4311 4427 4442 4461 4714 4449 4644 4705 4688 4899 4921 4937 5072 5007 5140 5068 5299 5172 5131 4981 5122 4954 4743 4714 4720 4766 4676 4657 4732 4482 4638 4652 4496 4392 4415 4373 4520 4697 4546 4537 4609 4560 4538 4558 4562 4482 4578 4588 4600 4460 4542 4501 4502 4489 4507 4428 4429 4462 4434 4308 4449 4403 4394 4330 4342 4143 4392 4342 4224 4217 4172 4186 4265 4189 4195 4149 4263 4103 4241 4191 4136 4103 4180 4102 4172 4050 4045 4033 4139 4105 4205 4207 4125 4018 4137 3893 4062 3981 4165 4174 3941 4027 3856 3982 4082 4049 3948 4017 3923 3982 4041 4065 4008 4041 4009 4043 3813 3888 3978 3907 4057 3891 3892 3968 3981 4120 3852 4103 3882 4019 3984 3894 3940 3956 4008 3937 3878 3761 3897 3854 3874 3872 4059 4011 3834 3880 3836 3912 3852 3956 3826 3824 3868 3813 3883 3765 3899 3834 3904 3931 3876 3934 3829 3780 3836 3788 3844 3812 3795 3789 3790 3816 3917 3846 3813 3789 3731 3796 3800 3809 3897 3781 3805 3787 3728 3813 3694 3859 3701 3688 3752 3778 3799 3777 3757 3775 3741 3829 3741 3734 3806 3731 3825 3729 3849 3790 3881 3820 3857 3719 3798 3835 3889 3791 3918 3876 3843 4031 4027 3744 3960 4011 3987 3923 3887 3999 3960 4042 4087 3882 4048 3924 3944 3892 4013 3864 3896 3958 3780 3789 3858 3809 3824 3709 3785 3769 3860 3776 3786 3817 3840 3750 3682 3864 3707 3796 3738 3792 3843 3802 3827 3712 3717 3769 3724 3723 3718 3682 3830 3781 3802 3614 3835 3706 3807 3678 3828 3612 3774 3681 3764 3686 3670 3564 3722 3865 3719 3714 3741 3643 3685 3703 3695 3661 3690 3740 3738 3604 3627 3667 3768 3573 3711 3735 3662 3761 3736 3789 3674 3776 3693 3634 3699 3756 3652 3628 3637 3692 3759 3621 3772 3673 3659 3663 3803 3616 3756 3688 3743 3594 3726 3758 3739 3721 3604 3657 3717 3715 3686 3641 3604 3692 3632 3584 3721 3539 3714 3662 3644 3705 3632 3774 3677 3710 3662 3719 3733 3618 3802 3647 3590 3655 3673 3747 3689 3562 3737 3590 3649 3578 3675 3644 3763 3603 3674 3665 3701 3687 3748 3563 3700 3747 3758 3668 3710 3667 3671 3687 3586 3688 3690 3594 3577 3777 3642 3690 3674 3803 3719 3709 3679 3649 3566 3735 3769 3644 3657 3702 3677 3703 3579 3591 3520 3676 3728 3715 3706 3694 3646 3539 3606 3659 3619 3626 3606 3520 3559 3577 3586 3653 3604 3652 3676 3669 3685 3624 3623 3583 3635 3618 3666 3647 3551 3529 3691 3638 3728 3644 3586 3583 3715 3653 3557 3595 3502 3634 3696 3699 3561 3605 3649 3543 3571 3636 3581 3689 3539 3608 3503 3736 3570 3601 3602 3674 3625 3544 3629 3576 3608 3608 3502 3629 3607 3582 3557 3636 3720 3593 3673 3553 3585 3571 3636 3506 3761 3679 3514 3640 3548 3492 3503 3529 3577 3623 3546 3655 3514 3630 3617 3664 3578 3586 3552 3666 3529 3537 3602 3593 3736 3530 3560 3520 3503 3534 3489 3571 3624 3573 3479 3493 3520 3565 3569 3632 3595 3492 3467 3510 3521 3644 3564 3511 3603 3481 3547 3482 3551 3639 3583 3595 3741 3592 3602 3697 3560 3585 3499 3533 3611 3599 3562 3640 3577 3574 3560 3507 3616 3540 3551 3575 3619 3457 3597 3523 3520 3548 3655 3560 3605 3583 3713 3531 3530 3611 3560 3586 3572 3525 3717 3512 3513 3635 3620 3486 3615 3560 3534 3466 3536 3546 3549 3552 3585 3559 3487 3650 3495 3516 3654 3531 3685 3567 3520 3591 3696 3644 3503 3545 3630 3563 3560 3519 3583 3736 3586 3567 3464 3583 3517 3713 3536 3660 3440 3673 3512 3531 3595 3526 3566 3700 3534 3677 3532 3600 3640 3559 3754 3524 3576 3598 3574 3602 3511 3578 3552 3576 3550 3581 3518 3491 3537 3621 3725 3748 3595 3671 3644 3525 3525 3525 3672 3410 3609 3597 3652 3513 3582 3516 3601 3591 3647 3453 3500 3576 3370 3519 3642 3580 3625 3665 3573 3593 3586 3480 3569 3587 3588 3674 3569 3606 3540 3626 3532 3621 3519 3571 3574 3507 3581 3600 3676 3574 3562 3496 3543 3478 3653 3561 3551 3559 3624 3566 3602 3540 3504 3467 3615 3463 3484 3582 3578 3541 3590 3511 3507 3622 3462 3649 3386 3544 3537 3491 3432 3577 3437 3559 3441 3533 3502 3418 3504 3477 3419 3476 3560 3485 3428 3491 3373 3463 3378 3566 3407 3448 3334 3451 3401 3389 3374 3347 3496 3432 3396 3395 3344 3426 3472 3329 3469 3325 3466 3358 3383 3391 3424 3422 3332 3391 3369 3377 3359 3375 3381 3407 3359 3343 3325 3394 3450 3277 3413 3268 3396 3347 3452 3376 3396 3311 3377 3292 3421 3377 3288 3372 3439 3372 3383 3263 3296 3333 3354 3218 3257 3329 3219 3265 3325 3250 3232 3322 3309 3346 3307 3414 3437 3411 3269 3287 3315 3308 3255 3320 3191 3298 3297 3268 3159 3239 3360 3270 3228 3228 3185 3223 3139 3237 3218 3207 3245 3247 3138 3297 3191 3267 3230 3289 3244 3270 3309 3242 3239 3220 3210 3240 3177 3209 3273 3251 3145 3345 3350 3281 3229 3213 3183 3226 3263 3163 3303 3374 3266 3296 3271 3325 3320 3371 3322 3472 3369 3466 3296 3241 3324 3429 3413 3275 3349 3394 3374 3444 3348 3292 3337 3402 3396 3353 3374 3406 3345 3329 3294 3393 3360 3453 3280 3373 3263 3387 3126 3332 3185 3281 3214 3209 3360 3270 3244 3162 3230 3184 3170 3183 3317 3231 3092 3253 3249 3158 3338 3189 3162 3189 3159 3209 3164 3249 3286 3170 3190 3215 3262 3135 3349 3128 3207 3192 3248 3205 3209 3135 3194 3201 3164 3135 3255 3172 3125 3213 3204 3171 3178 3141 3075 3049 3133 3199 3198 3133 3214 3182 3175 3043 3058 3232 3080 3122 3085 3180 3196 3201 3252 3160 3187 3249 3209 3193 3251 3199 3238 3189 3147 3235 3132 3213 3185 3273 3164 3281 3209 3163 3138 3201 3205 3207 3232 3084 3204 3224 3244 3251 3118 3167 3094 3256 3223 3219 3214 3333 3277 3223 3187 3184 3219 3178 3378 3128 3146 3189 3222 3184 3232 3215 3147 3303 3253 3288 3224 3069 3200 3272 3184 3243 3236 3130 3215 3157 3198 3187 3248 3188 3262 3225 3227 3116 3197 3245 3137 3236 3306 3102 3188 3306 3137 3182 3216 3133 3253 3223 3140 3133 3297 3252 3244 3118 3189 3160 3181 3162 3124 3220 3187 3226 3122 3212 3239 3085 3211 3329 3185 3134 3135 3192 3337 3206 3242 3170 3152 3150 3123 3107 3164 3112 3188 3196 3106 3244 3166 3135 3244 3166 3265 3257 3184 3212 3187 3158 3105 3141 3168 3283 3128 3167 3101 3060 3109 3107 3138 3183 3253 3113 3007 3184 3104 3107 3121 3064 3079 3137 3140 3083 3081 3117 3243 3065 3199 3018 3098 3168 3210 3050 3123 3165 2984 3134 3093 3148 3111 3060 3111 3128 3084 3184 3077 3115 3031 3067 3061 2981 3104 3052 3164 3127 3074 3017 3043 3176 3070 2927 3124 3045 3025 3085 3009 3079 3060 3085 2966 2922 2978 2902 3038 3000 3025 3057 2950 3055 3111 3091 2965 2946 3080 2937 3041 2986 3081 2963 2978 2936 2979 2945 2901 3020 2958 2888 2951 3037 2998 3010 3014 2942 3019 3004 2894 3090 2893 2980 3009 2983 3010 3002 2999 2930 3023 2994 3049 3044 2966 2887 2939 2945 3002 2922 2983 2935 3038 2917 2924 2914 2929 3012 3029 2997 3101 3030 3004 3120 3090 2994 3053 3052 3184 3164 3113 3161 3090 3286 3305 3227 3360 3284 3364 3306 3290 3423 3394 3331 3315 3340 3276 3246 3218 3228 3194 3318 3388 3351 3324 3267 3402 3392 3426 3503 3555 3439 3486 3425 3456 3401 3305 3531 3269 3253 3343 3341 3203 3132 3084 2964 3143 3069 3117 3065 3097 3116 3023 3028 3023 3062 3178 3065 3045 3088 3101 3075 3004 3066 3104 3176 2933 3088 3090 3029 2980 3018 2992 3073 2984 3060 2934 2878 3011 2918 3093 2981 2976 2975 2853 2906 2966 2916 3010 2975 2882 3000 2870 2925 2964 2878 2902 2875 2930 2888 2852 2908 2882 2859 2847 2838 2857 2966 2946 2924 2965 2964 2872 3038 3046 3127 3165 3290 3188 3347 3300 3397 3451 3504 3603 3701 3707 3828 3951 3897 4164 4091 4008 4008 4065 3963 3957 3855 3759 3894 3811 3684 3694 3609 3555 3498 3624 3459 3318 3460 3302 3387 3355 3308 3255 3128 3211 3196 3142 3082 3087 2961 2970 2898 3020 2996 2976 2954 2996 2880 2868 2859 2876 2987 2951 2911 2920 2829 2963 2882 2924 2762 2802 2860 2844 2804 2858 2843 2879 2858 2851 2819 2805 2845 2852 2830 2763 2711 2717 2635 2795 2746 2813 2830 2785 2803 2689 2721 2716 2756 2684 2825 2727 2688 2817 2691 2731 2767 2748 2733 2628 2794 2667 2668 2753 2718 2670 2805 2662 2727 2674 2638 2759 2718 2716 2658 2633 2669 2670 2703 2749 2729 2667 2757 2650 2639 2698 2673 2708 2650 2647 2594 2712 2656 2755 2707 2702 2650 2688 2668 2649 2625 2668 2552 2686 2796 2607 2635 2732 2685 2703 2699 2708 2633 2545 2627 2653 2766 2651 2639 2598 2604 2651 2682 2654 2667 2654 2670 2665 2730 2674 2688 2634 2575 2726 2726 2635 2572 2721 2592 2592 2625 2701 2632 2671 2703 2655 2618 2610 2533 2629 2699 2658 2770 2624 2589 2617 2703 2708 2612 2596 2552 2595 2665 2705 2686 2761 2572 2622 2646 2742 2608 2622 2655 2656 2644 2613 2561 2630 2598 2618 2611 2573 2567 2600 2602 2674 2540 2683 2731 2579 2604 2674 2620 2733 2627 2717 2648 2770 2607 2551 2648 2616 2547 2576 2612 2744 2648 2600 2687 2609 2672 2673 2653 2614 2671 2724 2619 2707 2681 2824 2724 2717 2651 2755 2767 2789 2690 2680 2655 2712 2692 2704 2604 2569 2702 2746 2697 2725 2752 2760 2639 2657 2726 2666 2669 2699 2732 2556 2723 2687 2601 2580 2697 2672 2686 2568 2686 2647 2716 2569 2548 2744 2627 2612 2584 2642 2637 2712 2630 2604 2619 2653 2568 2585 2600 2644 2629 2678 2583 2639 2562 2555 2680 2552 2606 2558 2549 2621 2561 2606 2502 2533 2631 2626 2642 2613 2611 2535 2704 2594 2625 2625 2641 2534 2638 2604 2563 2641 2664 2639 2577 2590 2599 2677 2653 2611 2589 2555 2679 2623 2664 2707 2666 2684 2735 2598 2745 2636 2723 2575 2616 2647 2664 2666 2628 2630 2691 2637 2714 2683 2633 2641 2712 2707 2609 2746 2670 2697 2724 2606 2688 2717 2714 2706 2595 2682 2775 2627 2750 2715 2660 2675 2739 2783 2758 2706 2793 2783 2690 2721 2748 2774 2738 2904 2807 2841 2829 2947 2850 2832 2952 2844 2977 3085 3157 3064 3167 3281 3128 3193 3252 3403 3486 3493 3611 3792 3901 4026 4093 4119 4145 4397 4390 4650 4685 4811 4752 4950 5080 4995 5163 5221 5080 5082 4810 4725 4754 4727 4667 4618 4542 4713 4794 4602 4634 4536 4563 4691 4731 4890 4833 4756 4814 4758 4705 4619 4496 4458 4215 4219 4028 3983 3813 3716 3668 3642 3455 3429 3231 3200 3218 3126 3157 3074 2974 3063 3061 3148 3070 2903 2897 2941 2941 2941 2991 2988 2948 2988 2962 2923 2976 2864 2939 2890 3155 2919 2938 2968 2919 2894 2933 2918 2887 2846 2878 2868 2913 2842 2852 2900 2822 2793 2765 2807 2663 2695 2751 2685 2725 2710 2799 2671 2745 2744 2614 2618 2656 2678 2668 2697 2646 2692 2559 2693 2613 2566 2663 2631 2654 2529 2560 2656 2537 2562 2496 2587 2612 2521 2569 2590 2623 2589 2543 2614 2556 2545 2625 2612 2548 2694 2526 2644 2477 2468 2548 2609 2504 2557 2589 2624 2502 2570 2470 2533 2499 2525 2476 2472 2622 2521 2604 2528 2496 2526 2501 2559 2495 2480 2553 2495 2581 2578 2520 2570 2608 2607 2539 2541 2486 2517 2449 2524 2531 2569 2550 2446 2557 2462 2515 2469 2537 2508 2514 2554 2528 2492 2416 2449 2441 2399 2529 2487 2509 2469 2508 2573 2462 2419 2545 2491 2421 2454 2520 2552 2575 2568 2390 2578 2383 2438 2555 2459 2580 2512 2466 2432 2429 2459 2478 2444 2472 2396 2389 2477 2479 2413 2440 2471 2455 2459 2461 2443 2532 2395 2432 2503 2408 2590 2418 2423 2540 2387 2494 2437 2510 2382 2448 2488 2514 2461 2366 2367 2458 2409 2465 2452 2480 2413 2351 2476 2511 2472 2379 2487 2451 2411 2404 2522 2315 2534 2401 2370 2511 2402 2433 2447 2414 2502 2489 2571 2380 2465 2477 2522 2481 2468 2417 2402 2439 2512 2519 2444 2460 2512 2505 2461 2522 2425 2489 2565 2523 2523 2556 2518 2540 2509 2518 2588 2605 2604 2608 2594 2569 2559 2535 2572 2551 2562 2638 2467 2538 2502 2544 2521 2474 2468 2488 2568 2442 2419 2492 2469 2535 2520 2393 2358 2403 2524 2419 2473 2485 2378 2424 2416 2488 2466 2399 2373 2364 2412 2474 2349 2397 2515 2371 2393 2437 2379 2427 2425 2471 2382 2396 2394 2492 2411 2451 2398 2433 2420 2448 2445 2462 2348 2450 2438 2395 2326 2407 2494 2434 2562 2427 2477 2478 2449 2417 2446 2395 2499 2467 2370 2425 2452 2393 2442 2505 2534 2448 2492 2474 2488 2483 2384 2486 2468 2459 2532 2494 2550 2576 2558 2507 2440 2512 2513 2554 2424 2567 2541 2516 2577 2460 2479 2501 2381 2446 2442 2457 2428 2460 2367 2231 2383 2323 2367 2461 2354 2402 2504 2383 2365 2374 2357 2437 2392 2373 2383 2376 2398 2391 2271 2363 2391 2379 2346 2289 2346 2304 2303 2363 2423 2370 2377 2230 2355 2429 2302 2395 2370 2309 2361 2350 2321 2262 2377 2333 2339 2293 2355 2406 2379 2330 2413 2344 2399 2373 2405 2379 2314 2349 2390 2401 2356 2318 2302 2331 2360 2358 2266 2354 2380 2376 2431 2429 2334 2439 2280 2300 2409 2398 2305 2381 2348 2386 2324 2369 2366 2360 2293 2377 2370 2316 2310 2331 2204 2352 2330 2377 2381 2383 2354 2271 2322 2363 2293 2305 2377 2359 2334 2378 2248 2375 2298 2321 2328 2349 2343 2277 2326 2395 2327 2324 2265 2440 2345 2418 2425 2359 2313 2407 2347 2336 2212 2255 2339 2424 2297 2386 2284 2292 2304 2387 2293 2295 2267 2273 2277 2332 2379 2330 2270 2341 2344 2332 2362 2353 2270 2348 2288 2329 2328 2320 2286 2305 2279 2307 2252 2269 2273 2400 2303 2253 2324 2387 2363 2383 2350 2240 2277 2370 2481 2344 2357 2262 2412 2264 2357 2275 2354 2303 2299 2397 2318 2295 2308 2336 2239 2286 2326 2347 2303 2386 2411 2183 2353 2330 2283 2295 2326 2317 2293 2255 2326 2365 2327 2279 2371 2256 2364 2300 2340 2321 2339 2285 2346 2214 2327 2343 2317 2286 2290 2355 2328 2401 2277 2313 2315 2346 2298 2379 2291 2277 2284 2244 2333 2295 2227 2226 2433 2362 2291 2240 2305 2347 2268 2335 2376 2332 2307 2297 2394 2398 2231 2267 2339 2337 2306 2315 2371 2286 2288 2281 2326 2343 2264 2411 2330 2383 2386 2341 2294 2268 2331 2308 2238 2311 2317 2358 2389 2222 2316 2330 2329 2310 2259 2257 2318 2307 2292 2274 2240 2333 2288 2276 2396 2341 2246 2345 2318 2330 2296 2379 2273 2297 2360 2393 2372 2414 2353 2349 2435 2298 2482 2373 2460 2375 2331 2470 2401 2331 2422 2382 2400 2312 2406 2393 2468 2336 2296 2352 2402 2485 2302 2481 2297 2359 2353 2429 2224 2325 2275 2354 2298 2331 2301 2350 2349 2260 2335 2322 2279 2266 2356 2340 2230 2266 2238 2297 2281 2284 2279 2283 2181 2314 2313 2254 2244 2302 2242 2259 2252 2302 2303 2291 2336 2279 2202 2388 2317 2245 2316 2252 2266 2310 2271 2321 2267 2175 2212 2287 2320 2286 2231 2318 2360 2271 2256 2253 2256 2286 2213 2266 2220 2316 2308 2375 2263 2292 2378 2300 2308 2264 2383 2279 2304 2261 2318 2177 2238 2297 2292 2250 2269 2282 2264 2210 2270 2364 2308 2234 2185 2250 2241 2309 2285 2281 2287 2371 2258 2344 2290 2314 2256 2348 2305 2207 2294 2267 2295 2203 2331 2269 2238 2332 2225 2236 2304 2190 2274 2258 2295 2296 2225 2267 2307 2227 2248 2357 2261 2227 2337 2311 2204 2306 2256 2195 2279 2349 2274 2255 2292 2340 2265 2308 2270 2243 2233 2193 2274 2271 2305 2268 2190 2175 2205 2340 2328 2192 2256 2279 2340 2224 2243 2251 2314 2261 2263 2298 2229 2260 2295 2292 2263 2213 2307 2273 2255 2290 2373 2227 2282 2194 2248 2284 2322 2328 2208 2235 2276 2267 2219 2251 2291 2257 2213 2224 2349 2303 2226 2243 2361 2298 2227 2312 2282 2341 2299 2378 2298 2289 2312 2382 2404 2427 2468 2391 2367 2358 2455 2450 2410 2547 2389 2504 2435 2432 2532 2421 2378 2491 2546 2391 2379 2530 2532 2399 2445 2453 2456 2381 2431 2448 2455 2443 2439 2439 2458 2429 2406 2534 2440 2429 2451 2416 2471 2320 2372 2372 2399 2469 2356 2381 2365 2360 2379 2299 2356 2306 2303 2271 2305 2392 2346 2363 2238 2353 2268 2241 2262 2314 2404 2238 2306 2304 2312 2330 2315 2230 2353 2347 2379 2230 2277 2206 2192 2266 2274 2330 2188 2276 2283 2333 2245 2275 2210 2309 2311 2270 2330 2242 2332 2244 2266 2250 2264 2185 2195 2183 2298 2362 2303 2220 2280 2282 2304 2334 2281 2250 2224 2206 2248 2278 2256 2316 2296 2286 2252 2332 2292 2260 2149 2390 2262 2258 2210 2165 2305 2276 2189 2208 2290 2196 2302 2241 2201 2231 2286 2086 2192 2223 2276 2242 2248 2231 2226 2239 2174 2279 2316 2240 2256 2215 2131 2307 2215 2245 2194 2139 2211 2207 2261 2228 2206 2229 2247 2164 2190 2199 2335 2190 2208 2316 2176 2212 2248 2135 2257 2213 2273 2170 2185 2146 2275 2167 2275 2178 2241 2153 2164 2216 2248 2161 2276 2249 2138 2159 2255 2221 2216 2228 2227 2201 2181 2138 2261 2169 2132 2178 2210 2162 2156 2285 2211 2169 2175 2222 2158 2252 2237 2135 2168 2054 2185 2218 2151 2204 2210 2234 2237 2145 2218 2166 2235 2220 2193 2195 2213 2241 2320 2219 2239 2069 2290 2219 2223 2228 2204 2214 2173 2271 2196 2223 2208 2209 2215 2219 2312 2154 2258 2174 2233 2246 2254 2156 2248 2179 2237 2117 2153 2226 2213 2157 2237 2263 2145 2162 2211 2292 2152 2235 2159 2129 2187 2253 2237 2284 2338 2248 2161 2218 2280 2158 2203 2251 2252 2214 2119 2267 2240 2183 2243 2227 2182 2213 2245 2207 2243 2230 2314 2218 2194 2203 2217 2169 2261 2156 2270 2253 2203 2136 2251 2199 2198 2189 2245 2172 2170 2158 2272 2222 2250 2206 2213 2123 2211 2271 2254 2215 2235 2260 2211 2164 2215 2213 2236 2221 2299 2257 2281 2243 2204 2275 2274 2203 2242 2240 2238 2142 2268 2155 2138 2274 2267 2258 2353 2281 2252 2171 2327 2220 2207 2382 2356 2337 2339 2217 2306 2267 2276 2291 2303 2329 2308 2303 2363 2382 2380 2385 2348 2382 2372 2519 2432 2509 2452 2608 2628 2779 2780 2781 2866 2943 3004 3049 3047 3090 3220 3209 3320 3306 3415 3395 3543 3545 3526 3634 3610 3471 3419 3400 3433 3433 3350 3094 3146 3347 3070 3108 3122 3054 2994 2977 2834 2872 2655 2669 2708 2716 2611 2622 2643 2695 2565 2553 2556 2587 2615 2540 2627 2605 2589 2559 2627 2622 2582 2546 2517 2540 2505 2542 2523 2515 2443 2545 2477 2454 2342 2403 2401 2429 2464 2312 2304 2401 2328 2352 2355 2312 2247 2313 2351 2318 2243 2265 2306 2332 2263 2281 2241 2295 2318 2264 2315 2326 2283 2280 2276 2288 2360 2219 2256 2302 2345 2233 2332 2333 2307 2335 2391 2418 2323 2303 2369 2441 2477 2418 2540 2404 2478 2315 2404 2345 2354 2329 2367 2285 2400 2326 2350 2321 2336 2326 2319 2289 2404 2336 2267 2253 2195 2232 2210 2262 2243 2263 2246 2238 2200 2181 2238 2278 2192 2220 2209 2288 2146 2227 2182 2183 2231 2165 2186 2126 2232 2160 2218 2290 2187 2160 2156 2111 2170 2218 2159 2216 2202 2226 2218 2195 2158 2147 2222 2137 2156 2176 2118 2267 2174 2195 2186 2153 2144 2153 2155 2208 2168 2108 2183 2102 2154 2224 2214 2144 2181 2205 2145 2178 2208 2104 2154 2152 2157 2248 2131 2217 2252 2199 2251 2153 2171 2212 2169 2210 2167 2226 2290 2224 2301 2275 2255 2180 2324 2279 2190 2285 2371 2327 2288 2309 2329 2299 2326 2304 2405 2311 2339 2335 2337 2317 2375 2362 2317 2256 2333 2283 2240 2243 2246 2229 2222 2280 2240 2310 2261 2298 2204 2214 2161 2249 2183 2302 2224 2264 2294 2304 2149 2245 2291 2193 2224 2266 2225 2351 2260 2173 2227 2243 2263 2317 2303 2228 2210 2255 2179 2188 2177 2249 2308 2220 2251 2227 2215 2167 2193 2147 2204 2210 2153 2274 2203 2188 2159 2147 2094 2149 2087 2193 2078 2226 2150 2191 2134 2162 2201 2215 2122 2204 2188 2103 2188 2193 2100 2179 2144 2191 2185 2156 2195 2180 2131 2203 2238 2178 2175 2215 2285 2270 2172 2247 2196 2104 2241 2137 2193 2156 2120 2183 2124 2194 2157 2202 2293 2197 2172 2242 2249 2211 2107 2169 2117 2212 2151 2235 2172 2174 2210 2110 2132 2089 2147 2161 2217 2176 2194 2137 2128 2060 2104 2148 2124 2140 2171 2107 2157 2066 2089 2073 2106 2115 2082 2082 2106 2090 2110 2101 2149 2087 2100 2113 2053 2044 2133 2014 2115 2120 2066 2126 2131 2154 2147 2090 2178 2115 2057 2157 2032 2174 2159 2061 2067 2121 2118 2097 2048 2011 2136 2059 2159 2159 2101 2104 2034 2020 2139 2118 2083 2155 2050 2143 2132 2096 2124 2148 2109 2095 2097 2129 2123 2170 2054 2132 2063 2050 2126 2153 2087 2165 2113 2098 2116 2081 2125 2071 2070 2135 2070 2010 2122 2076 2005 2091 2149 2024 2041 2020 2005 2020 2021 2172 2116 2065 2126 2137 2132 2158 2138 2113 2128 2012 2126 2063 2068 2080 2080 2091 2037 2068 2036 2034 2084 2052 2180 2022 2095 2078 2053 2058 2058 2104 2113 2056 2078 2118 2056 1941 2049 2089 2041 2012 2060 1996 2068 1975 2082 2077 2156 2094 2151 2096 2171 2087 2217 1989 2150 2160 2105 2027 2089 2073 2033 2085 2176 2040 2094 2068 1965 2062 2086 2080 2086 2119 2060 2035 1987 2061 1979 2107 2120 2032 2119 2093 2026 2055 2037 2045 2057 2095 1996 2026 2095 2052 2043 1991 2098 2045 2080 2108 2162 2120 2198 2168 2029 2146 2050 2040 2115 2135 2044 2092 2122 2041 2010 2108 2091 2108 2107 1964 2134 2135 2105 2054 2027 2032 2128 2079 2003 2069 2088 2052 1976 2122 2004 2115 2138 2103 2066 2088 2113 2051 2032 2090 2073 2062 2116 2084 2080 2062 2095 2053 2056 2107 2052 2043 2136 2063 2095 2060 1983 2023 2041 2043 2077 2106 2156 2005 2066 2099 2062 2048 2059 2073 2072 2136 2101 1979 2075 2042 1971 2020 2053 2079 2068 1958 1958 2021 2068 2096 2049 2039 1985 2020 2046 2022 2019 2047 2027 2049 1978 2055 2099 2105 2037 2031 2057 1929 2105 2114 2084 2128 2002 2045 2009 2045 2136 2038 2050 1996 2092 2045 2092 2003 2058 2073 2047 2089 2062 1964 2042 2023 2129 2020 2045 1947 2056 2092 1941 1978 2000 1962 2064 1993 2062 2030 2059 2107 2040 2112 1963 2069 1966 2053 2041 2085 2052 1957 2075 1997 1978 2031 2057 2076 2021 2038 2032 2085 2104 2019 1943 2035 2029 2060 2027 2084 2012 2053 2036 2005 2016 2067 2002 2074 2039 2063 2020 2071 1992 1990 2015 1990 2052 1999 2049 2024 1956 1968 2064 2028 1999 1994 2054 2109 1935 2058 2065 2033 1967 2055 2003 2061 2040 2003 2021 2035 2075 2073 2037 2040 2098 2108 2010 2078 2126 2024 2061 2069 2135 2042 2043 2101 2022 1986 2009 2104 2071 2043 2028 2084 1981 2119 2054 2061 2077 1954 2033 2085 2112 2017 2009 2138 1993 2041 2030 2017 2119 2066 2020 2078 2186 1988 2098 2089 2180 2064 2075 2083 2170 2037 2085 2071 2137 2013 2131 2089 2063 2069 2149 2207 2177 2156 2174 2195 2215 2120 2185 2267 2206 2301 2179 2264 2300 2201 2205 2261 2217 2266 2248 2233 2247 2296 2200 2170 2259 2180 2138 2239 2219 2211 2174 2085 2121 2066 2092 2144 2042 2082 2122 2004 2077 2227 2104 2103 1996 2023 2028 2058 2109 2104 2129 2054 2073 2090 2085 2103 2132 2052 1967 2066 2111 2082 2082 2207 2070 2124 2008 2112 2095 2014 2150 2031 2006 2090 2099 2031 2000 2075 2003 2096 2111 2086 2024 2036 2135 1977 1960 2074 2037 2110 2018 1927 2052 1987 1981 2011 2018 2041 2027 2041 2002 2002 2014 1943 2124 2081 2052 1929 1945 1967 2020 2047 2118 2004 2091 2030 2048 1997 1993 1966 2038 2018 1864 2062 1974 2023 2028 1963 1975 1989 1985 2048 2051 2059 1993 2062 2027 1990 1920 1987 2015 1959 1938 2034 2081 2101 1994 2068 1945 2050 2009 2017 2030 2009 2006 2025 2021 2020 2079 2025 1994 2100 1976 1985 2053 1954 2033 2118 1992 1933 1989 1973 1953 1944 1977 2024 1985 2048 2039 1938 1978 1985 2002 1985 1967 1970 2029 1998 2011 2012 2021 1968 2009 2051 2007 2036 1967 2021 1998 1992 1998 1989 1941 1964 2078 2017 1908 1957 2057 2031 2078 1971 1986 2016 1991 1968 2020 1979 2106 1973 2118 1943 1910 2077 2042 2048 2043 2036 1953 1961 2018 2050 2066 1940 1937 1976 2023 2058 2038 2065 1998 2095 2039 2072 2044 2032 2061 2032 1996 2071 1998 2002 2098 2029 1975 2046 2025 2017 2052 1966 2008 2001 2015 2085 2062 2058 2102 2083 2124 2119 2065 2146 2086 2148 2140 2189 2218 2183 2166 2184 2237 2335 2183 2261 2302 2264 2293 2223 2195 2381 2319 2239 2210 2206 2238 2128 2207 2121 2119 2254 2184 2144 2209 2246 2219 2147 2221 2097 2103 2176 2133 2181 2067 2219 2263 2152 2193 2242 2185 2262 2190 2301 2120 2153 2149 2150 2186 2125 2228 2080 2082 2043 2092 2036 2066 2136 2095 2104 2058 2053 1976 2113 2102 2043 2010 2021 2029 2055 2090 2020 2052 2017 1988 1999 1973 1957 1976 1957 1982 1976 2004 2024 2010 1941 2009 1942 2034 1977 1977 2020 1932 2039 1953 1898 1973 1909 2034 1929 1964 2009 1966 1935 1973 2039 1987 2012 1925 1976 1958 2028 2024 2010 1928 2034 2029 2000 1966 1981 1961 1933 1954 1895 2017 1957 1953 1991 1893 1988 1997 1911 1978 2038 1952 1977 2076 1997 1980 2027 1993 1989 1983 2002 2089 1964 1967 2055 2034 1986 1967 1910 2039 2009 1979 1936 1959 2011 2024 1978 2025 1995 1976 1959 2043 1951 2000 2027 1985 2040 2022 1868 1954 1936 1892 2001 1999 1983 1981 2037 1984 2009 2065 1928 1988 2097 1968 2005 2072 2040 2031 1928 1926 1985 2036 2028 1935 2016 2065 2028 1968 1999 1975 1981 2041 2064 2038 2084 2108 2098 2076 2020 2053 2022 2025 2051 1991 2051 1980 2095 2139 1953 2071 2045 2001 2057 2018 1979 2078 1975 2068 2027 2003 2047 1926 2081 2010 2094 2072 1989 2116 1983 2049 1926 1978 1946 1945 1957 1943 2030 1948 1989 1942 1973 2010 1985 2006 2011 2046 1979 1977 2027 2001 1915 2034 1972 1976 1975 1918 1939 1981 1952 1923 1962 1891 1995 1937 1995 1950 1912 2050 1963 1835 1993 1954 2037 1873 1948 1984 1949 2069 1898 1962 1975 1985 1902 1920 1923 1984 1945 1990 1927 1947 1986 1898 1931 1942 2050 1954 1991 1952 2008 1962 1907 1967 1881 1897 1922 2014 1834 1949 1913 1948 1931 1909 1920 1971 1878 1941 1906 1917 2037 2049 1889 1971 1907 1968 1945 1960 1975 1852 1881 1867 1955 1936 1995 1959 1925 1999 1972 1927 2027 1899 1885 1953 1849 1893 1901 1962 1988 1967 1933 2001 1910 2037 1976 1908 1965 1903 1923 1866 1974 1892 1943 1929 1933 1949 1803 1945 1895 1963 1950 2008 1922 1935 1914 1901 1939 1917 1884 1849 1898 2009 1895 1909 1925 1868 1925 1941 1950 1988 1922 2012 1865 1933 1988 1941 1977 1908 1898 1884 1951 1928 1951 1924 1944 1868 1957 2021 1904 1935 1934 1946 1964 1899 1863 1913 1940 1943 1894 1872 1919 1955 1962 1921 1837 1883 1910 1919 1884 1939 1918 1859 2005 1846 1874 1859 1908 1951 1949 1897 1979 2011 1832 1845 1910 1917 1888 1919 1909 1827 1970 1948 1834 1882 1937 1811 1911 1962 1909 1858 1953 1893 1925 1892 1920 1935 1898 1942 1833 1859 1892 1954 1983 1919 1851 1944 1956 1935 1790 1873 1887 1924 1975 1844 1935 1888 1907 1912 1959 1898 1927 1874 1915 1965 1910 1928 1887 1833 1875 1972 1895 1840 1883 1947 1966 2018 1903 1910 1834 1881 1932 1825 1883 1885 1870 1907 1870 1888 1923 1905 1948 1958 1825 1953 1889 1914 1892 1866 1935 1942 1914 1853 1915 1941 1874 1866 1974 1990 1892 2008 1938 1947 1917 2010 1877 1937 1906 1888 1971 1879 1858 1895 1891 1953 1936 1941 1920 1863 1965 1945 1899 1923 1974 1882 1961 1926 1908 1967 1887 1827 1962 1900 1857 1988 1907 1922 1874 1957 2093 1951 1888 1974 1821 1946 1881 1891 1913 1920 1887 1882 1882 1946 1897 1858 1970 1906 1917 1894 1865 1950 2034 1874 1944 1917 1840 1847 1983 1969 1923 2002 1889 1965 1936 1889 1993 1913 1916 1930 1810 1929 1986 1977 1925 1916 1862 1906 1921 1855 1856 1809 1886 1942 1895 1814 1875 1848 1932 1937 1854 1831 1949 1964 1873 1898 2009 1917 1893 1906 1820 1786 1817 1941 1909 1887 1933 1914 1942 1940 1943 1937 1930 1902 1920 1948 1858 1861 1911 1855 1883 1925 1809 1965 1954 1816 1894 1898 1890 1815 1862 1832 1764 1914 1962 1884 1851 1885 1873 1886 1882 1848 1949 1792 1957 1908 1987 1919 1808 1862 1829 2010 1864 1893 1828 1912 1958 1885 1856 2027 1908 1906 1944 1942 1830 1930 1849 1892 1966 1889 2015 1904 1898 1863 1985 1932 1919 1867 1878 1911 1900 1896 1991 2016 1900 2001 1940 1955 1864 1906 1828 1909 1928 1862 1990 1901 2016 1977 1879 1986 1872 1917 1864 1862 1974 1902 1903 1862 1916 1812 1856 1884 1905 1853 1858 1988 1939 1968 1950 1931 1875 2012 1841 1897 1898 1915 1898 1983 1855 1855 1947 1915 1919 1835 1908 1743 1872 1879 1863 1897 1870 1838 1777 1918 1863 1837 1917 1764 1907 1807 1818 1851 1855 1838 1978 1978 1837 1862 1880 1874 1920 1875 1860 1896 1864 1832 1796 1844 1914 1849 1883 1954 1836 1942 1816 1855 1866 1788 1806 1888 1873 1887 1919 1927 1881 1859 1897 1868 1818 1873 1840 1839 1873 1896 1828 1886 1844 1841 1872 1863 1793 1970 1849 1860 1887 1859 1912 1914 1902 1943 1884 1900 1808 1812 1800 1834 1846 1820 1894 1889 1874 1860 1883 1867 1872 1870 1865 1876 1918 1926 1871 1871 1889 1832 1909 1824 1882 1846 1848 1951 1913 1827 1834 1864 1929 1912 1943 1897 1896 1863 1955 1911 1906 1874 1848 1834 1871 1871 1867 1839 1845 1845 1842 1888 1789 1807 1917 1902 1835 1842 1934 1867 1918 1884 1818 1889 1833 1810 1854 1846 1894 1888 1903 1915 1880 1882 1811 1876 1920 1819 1907 1866 1938 1873 1922 1817 1860 1832 1851 1825 1882 1911 1860 1809 1855 1818 1887 1862 1921 1921 1854 1884 1858 1833 1796 1843 1816 1872 1825 1869 1884 1892 1881 1882 1968 1852 1894 1905 1899 1851 1903 1862 1852 1877 1851 1859 1876 1970 1875 1903 1820 1935 1850 1817 1858 1948 1851 1920 1932 1887 1946 1861 1921 1944 1843 1875 1952 1937 1850 1909 1888 1929 1881 1940 1959 1954 1996 1983 1970 1967 1915 1965 1937 1956 1949 1935 1900 1925 1963 1927 1993 1935 1945 1941 1903 1993 1966 1973 1882 1794 1939 1843 1922 2020 1971 1978 1862 1941 1960 1865 1877 1896 1872 1922 1924 1999 1880 1971 1867 1935 1873 1929 1970 1946 1928 1826 1963 1894 1923 1886 1861 1911 1925 1941 1882 1921 1936 1954 1924 1837 1993 1872 1895 1946 1874 1930 1858 1890 1922 1888 1857 1817 1889 1925 1900 1907 1853 1828 1915 1883 1890 1889 1858 1880 1791 1926 1865 1839 1845 1958 1840 1799 1853 1879 1880 1833 1902 1837 1852 1858 1878 1858 1897 1837 1862 1886 1929 1906 1930 1855 1873 1873 1860 1855 1901 1771 1834 1777 1825 1846 1848 1871 1955 1807 1820 1882 1838 1814 1850 1824 1821 1901 1897 1892 1901 1838 1875 1878 1810 1820 1831 1960 1818 1874 1835 1935 1812 1844 1842 1894 1890 1884 1860 1883 1899 1831 1869 1876 1933 1814 1898 1759 1817 1837 1857 1778 1898 1828 1912 1866 1874 1873 1891 1883 1848 1738 1853 1810 1827 1795 1809 1893 1873 1895 1869 1839 1787 1852 1853 1864 1866 1820 1835 1865 1829 1855 1842 1859 1862 1832 1826 1835 1864 1846 1752 1796 1777 1922 1871 1829 1829 1758 1916 1814 1895 1878 1811 1825 1824 1858 1850 1824 1810 1797 1837 1893 1824 1865 1890 1773 1831 1886 1811 1803 1784 1859 1893 1831 1834 1842 1890 1796 1801 1782 1828 1896 1806 1887 1882 1830 1832 1903 1816 1869 1887 1891 1895 1917 1952 1917 1788 1854 1781 1838 1886 1816 1885 1743 1877 1860 1865 1875 1912 1812 1890 1815 1880 1810 1880 1905 1867 1781 1845 1896 1771 1789 1877 1768 1758 1883 1918 1847 1828 1884 1897 1848 1841 1889 1833 1827 1781 1873 1854 1887 1877 1864 1809 1850 1889 1841 1894 1776 1861 1820 1966 1760 1755 1867 1796 1776 1885 1729 1783 1852 1780 1814 1848 1849 1758 1818 1774 1813 1835 1784 1768 1805 1845 1821 1813 1874 1840 1860 1800 1801 1804 1822 1854 1797 1891 1770 1828 1790 1839 1849 1812 1846 1828 1793 1820 1791 1826 1822 1844 1803 1831 1753 1797 1839 1841 1857 1814 1858 1827 1918 1837 1858 1820 1904 1873 1869 1830 1793 1787 1820 1839 1876 1927 1790 1847 1811 1757 1881 1771 1882 1880 1852 1854 1813 1792 1819 1832 1710 1767 1792 1852 1777 1901 1842 1800 1842 1891 1782 1880 1898 1846 1824 1817 1782 1779 1835 1836 1861 1767 1790 1859 1835 1840 1856 1775 1911 1842 1814 1820 1800 1790 1815 1800 1810 1765 1842 1868 1895 1815 1789 1882 1780 1861 1778 1816 1741 1817 1802 1808 1897 1793 1843 1791 1872 1871 1868 1839 1856 1786 1877 1799 1806 1772 1871 1860 1782 1851 1839 1793 1729 1848 1790 1844 1843 1865 1856 1831 1776 1872 1843 1900 1882 1795 1900 1754 1863 1822 1779 1787 1799 1789 1871 1776 1792 1768 1933 1790 1792 1826 1707 1794 1761 1816 1896 1757 1799 1787 1741 1806 1808 1786 1877 1818 1728 1803 1803 1831 1788 1793 1768 1832 1804 1802 1865 1902 1869 1825 1760 1785 1889 1865 1789 1774 1803 1843 1838 1848 1824 1756 1803 1811 1835 1831 1838 1927 1815 1840 1845 1742 1784 1831 1791 1982 1780 1848 1849 1815 1799 1805 1804 1894 1809 1830 1783 1786 1859 1854 1818 1771 1852 1862 1795 1754 1890 1837 1839 1859 1777 1829 1860 1805 1780 1816 1717 1813 1834 1818 1840 1802 1866 1783 1683 1895 1809 1760 1777 1875 1760 1838 1820 1858 1798 1804 1892 1790 1737 1785 1821 1835 1849 1858 1862 1846 1879 1838 1798 1806 1803 1831 1790 1808 1840 1785 1778 1792 1797 1834 1856 1870 1861 1852 1798 1792 1836 1834 1780 1829 1804 1838 1779 1867 1777 1783 1792 1800 1837 1810 1778 1805 1824 1790 1861 1864 1865 1863 1793 1782 1847 1882 1900 1789 1824 1842 1784 1794 1777 1822 1834 1805 1852 1860 1942 1930 1800 1838 1776 1847 1855 1874 1851 1849 1836 1815 1829 1825 1916 1843 1830 1949 1819 1835 1940 1871 1815 1907 1868 1853 1777 1887 1866 1865 1821 1870 1826 1816 1821 1836 1916 1811 1961 1898 1857 1865 1921 1908 1863 1911 1877 1853 1938 1853 1767 1833 1882 1876 1930 1917 1925 1845 1853 1809 1814 1862 1915 1851 1847 1852 1867 1832 1904 1843 1841 1831 1867 1968 1769 1781 1894 1818 1818 1813 1872 1845 1943 1859 1800 1805 1972 1928 1855 1866 1835 1812 1791 1773 1901 1833 1836 1856 1861 1838 1819 1872 1842 1873 1834 1770 1779 1838 1834 1769 1839 1799 1776 1894 1767 1853 1792 1872 1846 1810 1868 1825 1791 1875 1817 1809 1821 1755 1805 1833 1768 1812 1749 1832 1854 1838 1833 1870 1842 1823 1850 1821 1862 1844 1751 1891 1864 1834 1827 1806 1808 1875 1743 1784 1841 1769 1867 1800 1872 1770 1897 1762 1788 1895 1751 1813 1873 1799 1775 1794 1784 1808 1823 1839 1835 1826 1845 1807 1864 1768 1905 1830 1814 1809 1812 1878 1804 1764 1812 1786 1875 1936 1848 1831 1840 1898 1825 1837 1752 1867 1817 1750 1845 1828 1817 1796 1862 1854 1860 1756 1832 1851 1817 1779 1842 1831 1808 1820 1859 1805 1811 1778 1811 1833 1883 1789 1846 1875 1808 1797 1839 1813 1790 1813 1877 1846 1869 1764 1791 1772 1835 1849 1805 1877 1839 1798 1742 1775 1865 1855 1803 1853 1859 1781 1882 1746 1858 1851 1836 1817 1791 1918 1865 1863 1874 1868 1849 1820 1918 1894 1768 1927 1922 1858 1909 1868 1929 1839 1924 1930 1964 1941 1952 1971 1967 2011 2031 2013 2035 1956 1946 1973 1906 1964 1940 1845 1999 1947 2014 1924 2020 1905 1992 1934 1917 1965 1906 1975 1900 1924 1981 1942 1896 1884 1961 1944 1863 1932 1984 1871 1969 1943 1997 2018 2033 1879 1868 1987 1910 1899 1934 1879 1903 1952 1853 1938 1893 1907 1963 1871 1863 1841 1782 1936 1932 1901 1963 1889 1895 1938 1825 1887 1869 1898 1876 1908 1939 1866 1923 1872 1853 1845 1924 1890 1853 1916 1870 1839 1964 1922 1897 1801 1937 1838 1887 1727 1870 1888 1885 1839 1900 1817 1818 1861 1840 1896 1781 1821 1879 1782 1837 1831 1783 1801 1805 1849 1827 1775 1869 1880 1820 1792 1763 1838 1821 1848 1760 1882 1862 1838 1849 1739 1847 1862 1802 1906 1876 1823 1824 1775 1789 1810 1869 1817 1824 1887 1785 1834 1808 1828 1820 1865 1799 1810 1895 1820 1697 1781 1802 1825 1837 1843 1771 1815 1839 1871 1800 1808 1765 1752 1840 1870 1757 1868 1753 1828 1841 1827 1865 1779 1907 1882 1829 1847 1827 1873 1808 1814 1823 1851 1791 1791 1771 1778 1828 1774 1832 1739 1764 1812 1806 1798 1826 1833 1775 1793 1708 1861 1876 1920 1772 1826 1856 1864 1823 1744 1873 1739 1737 1820 1822 1808 1795 1787 1827 1808 1829 1867 1810 1843 1842 1809 1829 1817 1842 1812 1813 1857 1826 1839 1840 1854 1827 1841 1862 1913 1861 1849 1817 1807 1877 1789 1832 1858 1825 1799 1774 1779 1864 1748 1806 1838 1888 1813 1860 1796 1896 1733 1836 1783 1811 1845 1835 1772 1706 1814 1809 1855 1819 1765 1787 1769 1825 1792 1886 1832 1787 1804 1862 1777 1759 1850 1838 1752 1811 1786 1699 1765 1864 1713 1764 1765 1700 1737 1760 1765 1805 1762 1790 1720 1768 1729 1793 1835 1804 1793 1712 1803 1791 1671 1800 1737 1763 1781 1807 1783 1818 1740 1789 1765 1834 1800 1867 1775 1837 1773 1754 1775 1805 1848 1752 1796 1747 1780 1801 1775 1767 1760 1790 1759 1799 1750 1791 1774 1803 1892 1818 1787 1846 1730 1762 1799 1807 1712 1748 1697 1737 1853 1829 1758 1847 1781 1701 1779 1862 1768 1805 1730 1729 1717 1787 1775 1723 1762 1798 1820 1773 1713 1759 1685 1808 1800 1757 1818 1825 1731 1747 1726 1721 1721 1827 1802 1827 1817 1769 1772 1817 1814 1773 1762 1824 1784 1833 1768 1741 1765 1746 1790 1827 1810 1713 1723 1760 1763 1812 1735 1791 1789 1814 1822 1761 1809 1717 1738 1779 1699 1804 1727 1757 1634 1753 1769 1756 1732 1736 1755 1801 1761 1693 1718 1786 1817 1731 1746 1754 1705 1820 1756 1823 1732 1767 1787 1771 1840 1825 1809 1822 1730 1793 1819 1723 1748 1751 1745 1727 1774 1788 1780 1710 1804 1747 1827 1742 1675 1789 1796 1697 1691 1804 1762 1768 1699 1796 1743 1722 1731 1771 1773 1737 1745 1696 1698 1694 1804 1807 1708 1746 1743 1673 1817 1785 1789 1777 1823 1796 1836 1790 1758 1775 1731 1739 1833 1791 1775 1749 1704 1720 1797 1725 1820 1770 1714 1785 1665 1776 1782 1722 1782 1732 1754 1734 1677 1762 1715 1745 1753 1712 1806 1817 1778 1707 1755 1737 1720 1695 1756 1738 1765 1744 1781 1764 1727 1734 1708 1731 1783 1766 1782 1695 1786 1775 1834 1760 1859 1787 1764 1814 1780 1784 1803 1704 1771 1775 1785 1791 1726 1870 1753 1782 1778 1764 1752 1731 1824 1775 1745 1737 1784 1721 1729 1770 1762 1753 1712 1744 1798 1727 1801 1674 1714 1741 1754 1812 1773 1731 1789 1842 1785 1695 1663 1736 1762 1757 1763 1789 1820 1754 1761 1799 1810 1753 1722 1811 1713 1722 1672 1761 1801 1815 1706 1758 1811 1791 1828 1717 1800 1699 1819 1778 1756 1763 1761 1790 1785 1783 1734 1757 1782 1690 1719 1809 1739 1760 1722 1838 1770 1790 1745 1832 1788 1768 1833 1782 1695 1772 1759 1768 1715 1748 1741 1776 1759 1824 1733 1783 1719 1773 1663 1749 1811 1758 1686 1716 1716 1811 1782 1739 1744 1653 1755 1729 1731 1684 1817 1724 1796 1699 1749 1791 1714 1685 1685 1694 1795 1758 1869 1849 1742 1790 1683 1710 1817 1710 1818 1700 1814 1769 1821 1742 1736 1819 1769 1802 1716 1687 1734 1835 1777 1782 1800 1816 1743 1741 1780 1711 1719 1763 1764 1840 1770 1679 1707 1747 1772 1760 1793 1724 1733 1673 1745 1709 1729 1758 1784 1738 1800 1765 1753 1801 1774 1798 1737 1761 1765 1757 1719 1761 1656 1751 1760 1705 1764 1791 1794 1761 1702 1717 1743 1803 1744 1736 1688 1698 1714 1644 1800 1735 1753 1725 1710 1687 1671 1737 1758 1715 1734 1793 1698 1708 1776 1781 1751 1774 1663 1775 1750 1724 1699 1732 1812 1681 1821 1807 1718 1745 1801 1748 1680 1680 1769 1762 1797 1797 1705 1756 1726 1711 1706 1732 1707 1709 1802 1737 1710 1766 1640 1696 1696 1769 1734 1706 1755 1812 1782 1821 1809 1714 1752 1786 1746 1701 1774 1706 1746 1776 1799 1704 1652 1701 1711 1756 1751 1662 1753 1812 1695 1694 1689 1670 1697 1716 1702 1821 1772 1763 1759 1670 1782 1774 1709 1789 1714 1761 1675 1769 1748 1732 1752 1746 1758 1713 1785 1751 1793 1710 1686 1713 1717 1789 1730 1706 1754 1775 1730 1707 1727 1764 1787 1651 1665 1727 1735 1749 1693 1802 1787 1771 1740 1759 1730 1795 1772 1764 1800 1743 1772 1778 1775 1805 1765 1734 1714 1743 1763 1705 1798 1734 1837 1800 1780 1787 1868 1819 1782 1736 1710 1848 1764 1822 1882 1824 1840 1785 1785 1816 1840 1796 1786 1787 1827 1762 1805 1820 1769 1804 1877 1773 1799 1829 1818 1857 1800 1864 1866 1779 1808 1785 1829 1835 1766 1759 1821 1817 1881 1788 1828 1761 1940 1825 1818 1799 1822 1835 1823 1752 1714 1938 1835 1818 1730 1745 1746 1807 1828 1775 1748 1772 1765 1789 1751 1759 1814 1770 1779 1780 1797 1795 1734 1833 1805 1823 1744 1781 1748 1734 1720 1800 1724 1847 1851 1804 1715 1772 1838 1786 1800 1777 1801 1799 1732 1787 1817 1839 1812 1773 1813 1771 1817 1817 1786 1692 1832 1850 1775 1795 1800 1793 1783 1728 1865 1708 1783 1772 1755 1736 1755 1728 1837 1715 1743 1725 1777 1772 1725 1686 1755 1691 1757 1803 1745 1711 1651 1748 1800 1789 1659 1796 1730 1730 1741 1707 1817 1744 1856 1690 1744 1728 1803 1750 1745 1682 1789 1764 1668 1736 1738 1703 1721 1670 1773 1729 1802 1750 1779 1657 1819 1625 1796 1751 1720 1788 1739 1782 1683 1770 1733 1712 1697 1732 1751 1782 1709 1738 1748 1754 1673 1694 1762 1714 1772 1764 1690 1728 1760 1799 1721 1704 1746 1785 1729 1728 1765 1717 1690 1678 1726 1693 1664 1728 1683 1799 1739 1794 1740 1701 1755 1775 1691 1727 1766 1716 1825 1750 1677 1761 1669 1696 1680 1678 1761 1760 1756 1821 1736 1739 1742 1733 1763 1731 1694 1727 1688 1643 1754 1745 1751 1760 1770 1791 1730 1761 1830 1713 1695 1736 1757 1712 1678 1651 1821 1700 1704 1841 1734 1734 1778 1658 1715 1633 1755 1782 1744 1663 1759 1819 1760 1800 1736 1713 1738 1655 1762 1810 1761 1692 1693 1724 1744 1719 1790 1745 1714 1760 1734 1691 1699 1695 1678 1649 1760 1722 1720 1715 1679 1731 1670 1739 1752 1764 1754 1750 1783 1734 1682 1641 1651 1719 1660 1780 1761 1695 1769 1785 1707 1749 1725 1669 1807 1739 1694 1690 1684 1784 1719 1730 1705 1649 1756 1708 1741 1666 1768 1699 1664 1689 1700 1738 1734 1625 1732 1701 1628 1719 1649 1754 1776 1681 1712 1687 1693 1735 1747 1625 1676 1673 1703 1744 1761 1710 1745 1700 1757 1661 1694 1717 1765 1754 1737 1773 1736 1722 1754 1650 1684 1768 1742 1708 1712 1613 1694 1670 1655 1738 1704 1660 1706 1655 1739 1660 1659 1729 1662 1706 1660 1702 1741 1704 1732 1767 1682 1688 1684 1715 1666 1695 1650 1730 1718 1676 1703 1659 1757 1710 1669 1630 1684 1621 1736 1712 1652 1811 1698 1673 1736 1670 1735 1665 1671 1665 1705 1742 1734 1700 1743 1712 1661 1638 1693 1799 1665 1678 1637 1693 1739 1696 1724 1705 1678 1687 1646 1707 1752 1735 1794 1672 1718 1731 1750 1750 1622 1805 1673 1699 1646 1742 1771 1676 1727 1705 1762 1702 1733 1694 1697 1714 1700 1753 1670 1626 1686 1732 1689 1674 1777 1718 1772 1789 1639 1688 1654 1730 1680 1677 1741 1686 1721 1820 1677 1756 1686</counts>
			</dataPoints>
		</scan>
	</xrdMeasurement>
</xrdMeasurements>
