<?xml version="1.0"?>
<xrdMeasurements xmlns="http://www.xrdml.com/XRDMeasurement/2.3" xmlns:xsi="http://www.w3.org/2001/XMLSchema-instance" xsi:schemaLocation="http://www.xrdml.com/XRDMeasurement/2.3 http://www.xrdml.com/XRDMeasurement/2.3/XRDMeasurement.xsd" status="Completed" recordIdentifier="{F81F5D0A-F472-4089-8478-32A7C580B4AC}">
	<comment>
		<entry/>
	</comment>
	<sample type="To be analyzed">
		<id>GPSS_Li2MnCl4_110625_690d9f07f040177efa2b78ee</id>
		<name></name>
		<preparedBy></preparedBy>
	</sample>
	<xrdMeasurement measurementType="Scan" status="Completed" sampleMode="Reflection">
		<usedWavelength intended="K-Alpha 1">
			<kAlpha1 unit="Angstrom">1.5405980</kAlpha1>
			<kAlpha2 unit="Angstrom">1.5444260</kAlpha2>
			<kBeta unit="Angstrom">1.3922500</kBeta>
			<ratioKAlpha2KAlpha1>0.5000</ratioKAlpha2KAlpha1>
		</usedWavelength>
		<incidentBeamPath>
			<radius unit="mm">145.00</radius>
			<xRayTube id="1010048" name="Empyrean Cu LFF HR (9430 033 7310x)">
				<tension unit="kV">40.0</tension>
				<current unit="mA">15.0</current>
				<anodeMaterial>Cu</anodeMaterial>
				<focus type="Line">
					<length unit="mm">12.0</length>
					<width unit="mm">0.4</width>
					<takeOffAngle unit="deg">6.0</takeOffAngle>
				</focus>
			</xRayTube>
			<sollerSlit id="21010002" name="Soller slits 0.04 rad.">
				<opening unit="rad">0.0400</opening>
			</sollerSlit>
			<mask id="22031000" name="Fixed mask 13 mm">
				<width unit="mm">9.00</width>
			</mask>
			<divergenceSlit id="22120001" name="Divergence slit 1°" xsi:type="fixedDivergenceSlitType">
				<distanceToSample unit="mm">50.00</distanceToSample>
				<height unit="mm">1.52</height>
			</divergenceSlit>
		</incidentBeamPath>
		<sampleMovement xsi:type="spinningSampleMovementType">
			<spinnerRevolutionTime unit="seconds">1.0</spinnerRevolutionTime>
		</sampleMovement>
		<diffractedBeamPath>
			<radius unit="mm">145.00</radius>
			<antiScatterSlit id="22090040" name="AS slit 9 mm (PIXcel)" xsi:type="fixedAntiScatterSlitType">
				<height unit="mm">9.00</height>
			</antiScatterSlit>
			<sollerSlit id="21020003" name="Large Soller slits 0.04 rad.">
				<opening unit="rad">0.0400</opening>
			</sollerSlit>
			<filter id="20030001" name="Large beta-filter Nickel">
				<material>Ni</material>
				<thickness unit="mm">0.020</thickness>
			</filter>
			<detector id="7010019" name="PIXcel1D-Medipix3 detector" xsi:type="rtmsDetectorType">
				<phd unit="keV">
					<lowerLevel>4.02</lowerLevel>
					<upperLevel>11.27</upperLevel>
				</phd>
				<mode>Scanning</mode>
				<activeLength unit="deg">5.542</activeLength>
			</detector>
		</diffractedBeamPath>
		<scan appendNumber="0" mode="Continuous" scanAxis="Gonio" status="Completed">
			<header>
				<startTimeStamp>2025-11-09T12:41:07-08:00</startTimeStamp>
				<endTimeStamp>2025-11-09T12:49:15-08:00</endTimeStamp>
				<author>
					<name>AutomatedUser</name>
				</author>
				<source>
					<applicationSoftware version="1.7b (136)">PANalytical Aeris Instrument Suite</applicationSoftware>
					<instrumentControlSoftware version="3.2.00000000 20240306">AERIS</instrumentControlSoftware>
					<instrumentID>950485</instrumentID>
				</source>
			</header>
			<dataPoints>
				<positions axis="2Theta" unit="deg">
					<startPosition>10.00943322</startPosition>
					<endPosition>99.99442286</endPosition>
				</positions>
				<positions axis="Omega" unit="deg">
					<startPosition>5.00471661</startPosition>
					<endPosition>49.99721143</endPosition>
				</positions>
				<commonCountingTime unit="seconds">12.495</commonCountingTime>
				<counts unit="counts">2858 2830 2770 2764 2831 2834 2850 2826 2833 2812 2835 2853 2785 2778 2731 2716 2783 2800 2768 2839 2756 2929 2791 2759 2756 2763 2768 2796 2818 2668 2808 2828 2755 2791 2609 2809 2741 2885 2672 2850 2723 2792 2725 2764 2824 2758 2752 2822 2747 2760 2856 2714 2801 2805 2828 2718 2760 2743 2752 2820 2741 2793 2777 2687 2784 2811 2713 2835 2866 2795 2880 2727 2843 2767 2789 2835 2802 2841 2823 2837 2758 2785 2838 2761 2822 2752 2718 2760 2651 2808 2708 2827 2802 2787 2721 2769 2756 2775 2662 2778 2786 2743 2843 2739 2744 2750 2728 2751 2747 2782 2714 2739 2714 2719 2660 2754 2805 2842 2765 2693 2750 2790 2793 2671 2715 2750 2619 2775 2772 2761 2742 2771 2816 2727 2770 2643 2678 2676 2659 2679 2710 2605 2654 2699 2731 2817 2717 2797 2771 2622 2673 2742 2739 2739 2754 2682 2742 2704 2844 2672 2758 2698 2660 2789 2705 2710 2733 2716 2808 2628 2752 2770 2747 2675 2766 2637 2623 2770 2790 2718 2856 2692 2760 2796 2760 2683 2773 2677 2676 2687 2634 2825 2692 2662 2726 2709 2623 2706 2687 2695 2681 2586 2668 2667 2667 2775 2735 2806 2673 2762 2706 2755 2728 2754 2734 2645 2808 2773 2809 2674 2834 2687 2710 2686 2753 2721 2760 2685 2822 2697 2679 2735 2717 2779 2656 2743 2736 2649 2705 2571 2655 2626 2823 2666 2723 2633 2758 2814 2668 2723 2776 2740 2789 2740 2723 2783 2698 2692 2778 2738 2674 2731 2788 2825 2753 2835 2790 2738 2699 2713 2770 2703 2797 2697 2780 2831 2705 2691 2750 2747 2750 2756 2750 2797 2732 2839 2794 2835 2841 2859 2926 2820 2780 2847 2802 2904 2700 2778 2879 2803 2770 2873 2802 2781 2846 2864 2799 2876 2939 2978 2913 2929 2825 2815 2897 3035 2948 2908 2833 2885 2962 2929 2983 2943 2920 3057 3010 3098 3024 2979 2869 3004 2930 3006 2985 2963 2982 3097 3055 3023 2986 2955 3140 3110 3011 3044 3098 3213 3124 3135 2951 3077 3162 3142 3099 3108 3120 3016 3182 3126 3190 3126 3211 3182 3228 3182 3198 3121 3162 3143 3332 3281 3246 3352 3301 3365 3262 3323 3385 3271 3357 3347 3278 3272 3335 3384 3365 3310 3341 3457 3388 3388 3390 3393 3381 3377 3503 3499 3472 3539 3611 3502 3553 3535 3547 3581 3630 3538 3575 3559 3655 3621 3686 3630 3686 3602 3694 3735 3779 3814 3804 3720 3830 3790 3901 3917 3901 3911 3854 3956 4072 3974 4100 4080 4127 4094 4151 4223 4170 4232 4232 4184 4276 4412 4321 4353 4489 4439 4511 4489 4400 4625 4647 4681 4639 4654 4723 4651 4612 4412 4493 4439 4465 4344 4183 4286 4432 4165 4362 4390 4449 4340 4498 4439 4513 4603 4715 4785 4724 4798 4892 4834 5018 5054 5090 5195 5155 5251 5327 5437 5222 5520 5595 5544 5551 5586 5727 5640 5764 5642 5693 5649 5549 5430 5287 5134 5076 4779 4533 4408 4102 4003 3943 3640 3615 3640 3632 3720 3467 3460 3533 3509 3454 3482 3339 3445 3284 3370 3386 3357 3342 3432 3371 3480 3341 3297 3365 3357 3371 3346 3304 3236 3228 3165 3387 3250 3288 3303 3295 3267 3278 3357 3192 3293 3344 3341 3275 3214 3222 3207 3261 3231 3137 3181 3112 3274 3223 3210 3181 3211 3209 3126 3256 3164 3136 3262 3136 3068 3240 3180 3168 3223 3178 3209 3090 3175 3067 3187 3077 3242 3155 3083 3153 3144 3156 3278 3094 3215 3131 3053 3110 3152 3265 3082 3047 3091 3093 3086 3105 2993 3125 3047 3014 3230 3048 3144 3037 3138 3051 3086 2918 3013 3027 3136 3119 3054 3057 3109 3093 3048 3050 3069 3047 3079 3012 3005 3041 3135 3020 3008 2964 3038 2931 2936 3159 2929 3039 3042 3026 3014 2999 2967 3055 3097 3038 3050 3067 3067 3086 3036 2990 3005 3001 2940 2978 3021 3055 3012 3021 3037 3190 2984 2981 3037 3033 2993 3070 2953 2957 3045 3010 2923 3062 3014 2910 3002 2947 3024 2950 2990 2934 3002 2989 3035 2939 2890 2975 2967 3011 3039 2891 2971 3000 3038 2991 3005 2980 2918 2974 2874 3009 2967 2968 2973 2983 2980 2933 2866 3093 3035 2858 3027 2945 2913 2811 2959 2943 2926 2892 2996 2965 2824 2939 2829 2906 2859 2841 2891 2952 3028 2853 2970 2891 2808 2895 2982 2862 2822 2898 2865 2910 2946 2860 2972 2865 2919 2867 2952 2782 2949 2953 3012 3040 2891 2839 2891 2997 2846 2855 2770 2783 2891 2915 2936 2820 2900 2919 2969 2860 2946 2873 2985 2867 2944 2838 2827 2813 2789 2876 2850 2877 2860 3019 2853 2899 2840 2883 2889 2874 2879 2906 2909 2816 2843 2926 2875 2860 2842 2867 2822 2794 2793 2941 2945 2875 3018 2827 2808 2763 2868 2787 2852 2874 2899 2928 2834 2818 2714 2927 2865 2836 2800 2839 2788 2834 2882 2837 2811 2967 2801 2839 2738 2861 2771 2847 3036 2815 2783 2784 2784 2681 2786 2770 2926 2831 2828 2706 2875 2867 2841 2734 2840 2843 2818 2784 2779 2736 2853 2813 2865 2710 2802 2833 2831 2833 2808 2813 2786 2866 2784 2796 2791 2813 2702 2787 2760 2803 2853 2705 2764 2700 2711 2695 2721 2730 2741 2769 2715 2644 2729 2694 2734 2756 2843 2732 2809 2732 2745 2750 2692 2652 2656 2812 2594 2828 2675 2675 2739 2735 2696 2738 2708 2711 2582 2669 2671 2792 2743 2697 2671 2670 2625 2753 2642 2607 2692 2669 2619 2602 2693 2723 2766 2692 2697 2654 2730 2677 2705 2652 2744 2640 2633 2585 2739 2602 2637 2679 2699 2740 2609 2601 2674 2732 2622 2726 2649 2698 2678 2679 2754 2651 2697 2688 2686 2681 2594 2649 2604 2657 2653 2618 2690 2539 2674 2740 2688 2651 2665 2645 2657 2631 2661 2668 2611 2676 2637 2631 2677 2658 2704 2622 2569 2608 2616 2608 2592 2564 2722 2639 2699 2638 2620 2736 2631 2737 2620 2677 2788 2540 2646 2604 2599 2698 2629 2497 2606 2589 2622 2606 2592 2661 2691 2690 2618 2707 2642 2644 2598 2657 2578 2672 2567 2565 2581 2743 2641 2699 2652 2620 2569 2599 2640 2649 2645 2600 2681 2533 2647 2603 2691 2665 2654 2569 2758 2593 2561 2664 2664 2608 2734 2576 2657 2620 2592 2679 2620 2722 2711 2675 2706 2615 2637 2642 2643 2655 2562 2612 2706 2652 2579 2565 2599 2669 2648 2587 2587 2679 2607 2680 2674 2629 2724 2597 2644 2633 2693 2598 2548 2605 2645 2578 2627 2574 2682 2556 2571 2582 2536 2648 2598 2624 2677 2635 2693 2586 2609 2572 2634 2630 2555 2630 2565 2597 2567 2621 2611 2589 2524 2719 2629 2525 2563 2654 2540 2640 2568 2550 2484 2601 2617 2513 2511 2523 2466 2590 2615 2467 2488 2567 2496 2559 2507 2536 2473 2516 2487 2539 2532 2589 2452 2551 2483 2536 2479 2455 2442 2487 2408 2441 2421 2417 2493 2440 2387 2466 2489 2439 2494 2402 2346 2258 2399 2493 2386 2353 2449 2403 2366 2379 2399 2443 2393 2386 2405 2383 2447 2403 2318 2379 2350 2300 2285 2297 2357 2340 2348 2311 2391 2266 2373 2344 2340 2329 2355 2286 2370 2253 2207 2334 2299 2254 2290 2242 2191 2242 2175 2225 2157 2145 2284 2301 2143 2243 2231 2249 2246 2256 2221 2244 2242 2196 2188 2271 2200 2276 2139 2242 2224 2152 2187 2229 2103 2210 2146 2178 2121 2132 2181 2119 2156 2191 2096 2110 2126 2198 2126 2182 2191 2121 2102 2148 2131 2145 2191 2082 2125 2120 2106 2093 2203 2110 2096 2130 2020 2191 2039 2101 2136 2154 2097 2044 2151 2088 2111 2019 2147 2163 2047 2015 1995 2121 2052 2046 2049 2052 2054 2056 2078 2094 2020 2041 2061 2013 2062 1964 2042 2045 2082 2069 2098 2062 2107 2042 1975 2032 2082 2097 2037 2031 1976 2000 2054 1932 2021 2013 2026 1992 2060 1985 2014 2033 2027 2036 2014 2072 2030 2016 2035 2013 2020 1976 2073 2028 2004 2011 2047 2073 2036 1934 2015 2051 2032 1956 1941 1996 1945 2044 2013 1975 1924 1922 1914 2005 1956 2072 2012 1988 1995 2029 2008 1959 2031 1972 2007 1979 1986 1963 1945 2004 2047 1951 2052 2050 2032 2019 2112 2059 1946 1982 1983 2079 1967 2055 2060 2039 2083 1941 1970 1943 1972 2020 2053 2101 2006 2045 2016 2019 1982 1943 2024 2038 1896 1999 1972 1914 1990 2061 2055 2001 1963 1973 1994 2116 2015 1958 2059 2000 2009 2000 2009 1918 1986 1943 1941 2071 2004 2098 2203 2052 1957 2116 2050 1951 2004 2010 1969 1995 1978 1961 1957 1900 1995 1971 2016 1993 2006 2037 1921 2020 1968 2098 1976 2038 2098 2076 1986 2048 2065 2011 1970 2061 2049 1948 2073 1968 1956 2082 2008 1989 1972 2024 2047 2038 2024 2008 1980 2046 1946 1967 2021 2034 2024 1997 1975 2057 1977 1978 1969 2058 1978 2029 2044 1917 1955 1913 2007 1946 1983 1897 1952 2029 1901 2060 2005 2041 2005 2019 2021 2007 2023 2069 1986 1933 1957 1961 1917 1927 1932 1967 2079 1952 1897 1973 1914 2002 1913 1979 1953 2000 1980 2000 1916 1908 1868 1944 1937 1994 1859 1910 1820 1881 1902 1890 1909 1839 1916 1954 1931 1900 1954 1950 1882 1870 1869 1884 1924 1875 1884 1893 1870 1832 1812 1824 1842 1842 1831 1808 1832 1872 1818 1861 1821 1796 1814 1844 1831 1848 1805 1887 1850 1818 1791 1766 1815 1795 1857 1768 1827 1858 1839 1773 1817 1828 1768 1840 1815 1815 1770 1861 1741 1840 1827 1731 1752 1748 1766 1776 1742 1733 1791 1778 1804 1839 1849 1825 1780 1844 1774 1825 1852 1815 1804 1875 1844 1919 1828 1980 1952 2036 1941 2019 1906 2004 2027 1996 2025 2146 2160 2112 2131 2082 2150 2139 2143 2155 2268 2193 2351 2292 2444 2419 2450 2589 2589 2474 2653 2632 2674 2657 2648 2726 2708 2793 2800 2805 2813 2713 2825 2736 2894 2928 2927 2922 2837 2939 2870 2764 2737 2583 2640 2420 2392 2300 2206 2159 2048 2085 1968 2018 1844 1818 1819 1828 1798 1863 1819 1745 1765 1751 1774 1648 1712 1702 1700 1717 1706 1705 1724 1687 1776 1663 1690 1710 1597 1666 1753 1666 1700 1684 1594 1640 1591 1577 1620 1645 1609 1624 1610 1635 1632 1634 1646 1698 1590 1666 1732 1650 1701 1651 1691 1679 1695 1703 1683 1746 1794 1731 1805 1815 1821 1820 1808 1884 1876 1872 1934 1948 1985 1969 2011 2012 2112 2077 2244 2137 2213 2223 2243 2255 2268 2378 2396 2389 2397 2498 2392 2496 2563 2523 2473 2577 2655 2679 2621 2724 2581 2735 2762 2759 2663 2697 2689 2713 2629 2599 2528 2416 2416 2305 2383 2296 2248 2350 2290 2326 2217 2259 2280 2327 2390 2305 2288 2312 2285 2317 2249 2283 2265 2459 2340 2382 2378 2501 2365 2416 2533 2441 2385 2453 2530 2534 2481 2561 2443 2584 2663 2692 2601 2547 2637 2755 2611 2630 2531 2560 2587 2504 2505 2473 2509 2410 2171 2233 2099 2048 1940 1792 1913 1826 1705 1783 1647 1674 1548 1637 1562 1602 1574 1545 1541 1580 1544 1576 1602 1564 1553 1547 1568 1630 1574 1549 1515 1564 1538 1557 1560 1583 1569 1522 1533 1516 1530 1480 1537 1459 1503 1523 1477 1500 1464 1506 1516 1490 1499 1556 1461 1474 1466 1482 1500 1455 1473 1396 1405 1436 1485 1456 1455 1369 1522 1501 1443 1468 1443 1432 1503 1447 1390 1448 1423 1473 1479 1459 1444 1371 1413 1490 1493 1471 1376 1509 1454 1441 1471 1410 1466 1416 1436 1429 1419 1431 1408 1439 1318 1387 1426 1504 1439 1457 1348 1372 1512 1466 1373 1398 1386 1388 1377 1331 1392 1446 1315 1416 1378 1425 1393 1372 1343 1379 1396 1384 1429 1425 1465 1456 1431 1458 1334 1430 1343 1405 1438 1334 1382 1370 1390 1344 1472 1349 1370 1409 1476 1358 1395 1397 1372 1387 1411 1424 1425 1374 1413 1416 1318 1404 1381 1336 1401 1361 1450 1358 1370 1434 1352 1368 1424 1417 1387 1425 1439 1426 1427 1402 1388 1430 1354 1442 1354 1376 1347 1389 1381 1426 1464 1392 1397 1414 1413 1441 1367 1387 1389 1461 1366 1468 1371 1409 1424 1394 1387 1371 1358 1500 1370 1390 1345 1339 1332 1371 1408 1360 1413 1449 1372 1380 1375 1373 1365 1343 1352 1412 1374 1389 1416 1418 1394 1422 1360 1414 1392 1456 1388 1344 1438 1424 1351 1375 1406 1406 1385 1429 1329 1370 1387 1375 1368 1371 1452 1478 1377 1383 1378 1381 1421 1483 1418 1372 1494 1435 1453 1405 1396 1489 1423 1432 1389 1365 1423 1420 1484 1421 1462 1427 1425 1447 1449 1411 1483 1401 1371 1466 1465 1404 1475 1435 1515 1438 1464 1423 1483 1534 1502 1485 1454 1528 1494 1505 1614 1522 1502 1580 1563 1553 1634 1672 1635 1613 1664 1690 1723 1769 1724 1780 1816 1886 1972 1948 2079 2090 2231 2208 2262 2395 2276 2579 2473 2663 2626 2850 2903 2974 3086 3182 3389 3510 3471 3632 3894 4029 3940 4241 4228 4275 4252 4449 4456 4581 4687 4647 4689 4762 4994 4929 5009 5230 5146 5159 5310 5252 5488 5625 5605 5453 5439 5414 5168 5131 4764 4745 4576 4384 4429 4174 4181 4098 4086 3932 3960 3898 3817 3967 3803 3883 3959 3939 4132 3968 4108 4169 4110 4362 4167 4224 4331 4224 4256 4482 4457 4517 4578 4583 4485 4361 4319 4378 4319 4269 4186 4271 4289 4279 4254 4357 4119 4093 3957 3810 3761 3698 3834 3768 3621 3564 3415 3503 3557 3341 3295 3283 3122 3166 2978 2869 2796 2655 2512 2405 2310 2175 2158 2095 1982 1851 1791 1783 1694 1625 1625 1638 1562 1557 1521 1550 1565 1509 1517 1429 1494 1391 1430 1434 1516 1379 1485 1363 1480 1420 1382 1415 1363 1381 1356 1429 1394 1432 1433 1470 1441 1323 1337 1476 1435 1340 1349 1481 1356 1420 1364 1341 1380 1346 1403 1381 1330 1304 1331 1339 1359 1325 1410 1382 1314 1392 1333 1251 1357 1329 1388 1401 1334 1290 1328 1339 1334 1291 1319 1191 1368 1302 1334 1333 1341 1338 1357 1373 1360 1328 1331 1346 1268 1336 1348 1356 1331 1339 1314 1265 1314 1242 1249 1298 1313 1372 1265 1340 1292 1292 1328 1302 1308 1288 1293 1335 1341 1371 1290 1331 1360 1351 1289 1243 1271 1286 1300 1300 1306 1316 1316 1296 1375 1218 1257 1262 1271 1260 1302 1214 1344 1272 1301 1296 1357 1322 1301 1367 1273 1323 1262 1254 1311 1313 1318 1224 1304 1285 1282 1215 1317 1254 1258 1238 1245 1334 1243 1330 1365 1280 1217 1296 1283 1266 1288 1354 1255 1219 1356 1270 1314 1308 1281 1287 1287 1322 1310 1318 1333 1343 1269 1321 1289 1260 1369 1260 1305 1324 1315 1309 1305 1338 1340 1262 1355 1295 1334 1298 1235 1332 1298 1351 1362 1362 1325 1380 1388 1358 1309 1316 1342 1327 1324 1354 1343 1317 1333 1369 1310 1332 1317 1322 1377 1290 1377 1342 1372 1355 1313 1305 1353 1367 1353 1405 1394 1462 1367 1347 1409 1369 1391 1412 1394 1400 1452 1435 1382 1335 1394 1397 1427 1429 1444 1458 1432 1402 1412 1427 1395 1434 1377 1383 1412 1422 1307 1350 1334 1288 1343 1323 1307 1309 1288 1329 1282 1315 1308 1264 1302 1210 1286 1203 1366 1260 1187 1229 1197 1279 1209 1208 1230 1218 1213 1223 1242 1226 1252 1263 1187 1195 1231 1215 1182 1232 1258 1154 1197 1190 1203 1260 1170 1236 1207 1261 1240 1206 1241 1239 1149 1180 1259 1213 1168 1199 1184 1222 1232 1221 1201 1181 1209 1182 1224 1171 1242 1195 1203 1154 1153 1116 1141 1161 1233 1169 1193 1234 1211 1142 1227 1168 1201 1169 1181 1240 1199 1212 1221 1179 1162 1217 1227 1188 1198 1244 1132 1190 1220 1272 1166 1160 1222 1139 1215 1169 1177 1148 1136 1164 1148 1148 1152 1168 1239 1188 1189 1205 1122 1124 1222 1177 1158 1171 1178 1178 1125 1187 1267 1155 1212 1209 1230 1232 1224 1204 1210 1170 1135 1185 1229 1167 1179 1189 1121 1186 1124 1121 1228 1189 1117 1187 1159 1171 1132 1215 1126 1164 1246 1126 1168 1170 1157 1170 1164 1142 1184 1081 1217 1221 1154 1150 1175 1181 1261 1183 1189 1176 1165 1116 1169 1113 1205 1196 1191 1110 1161 1168 1192 1236 1169 1147 1214 1148 1166 1200 1170 1129 1199 1179 1140 1172 1216 1143 1147 1151 1141 1134 1173 1152 1183 1140 1167 1180 1182 1180 1107 1155 1156 1178 1146 1133 1158 1072 1198 1195 1114 1230 1162 1144 1204 1077 1164 1147 1102 1143 1156 1125 1163 1143 1182 1192 1165 1192 1163 1109 1150 1187 1124 1226 1139 1138 1189 1083 1157 1165 1129 1192 1136 1108 1173 1169 1118 1121 1156 1160 1146 1096 1149 1096 1143 1098 1113 1111 1124 1127 1154 1202 1149 1146 1196 1128 1172 1129 1171 1164 1128 1181 1062 1122 1144 1110 1150 1123 1147 1095 1138 1073 1178 1149 1179 1159 1171 1127 1102 1148 1151 1127 1134 1137 1122 1110 1127 1177 1132 1127 1163 1135 1214 1159 1220 1151 1196 1158 1163 1116 1136 1178 1112 1178 1162 1113 1146 1102 1175 1187 1135 1144 1221 1158 1170 1126 1180 1149 1105 1151 1198 1171 1121 1141 1105 1157 1196 1174 1064 1141 1118 1125 1176 1159 1144 1171 1184 1178 1135 1174 1167 1171 1163 1150 1165 1156 1154 1078 1164 1112 1177 1154 1141 1159 1202 1122 1201 1134 1095 1197 1065 1197 1154 1177 1088 1128 1100 1080 1033 1106 1149 1136 1134 1161 1186 1193 1195 1123 1185 1185 1131 1143 1191 1197 1198 1124 1085 1223 1100 1057 1079 1150 1126 1153 1138 1114 1104 1170 1146 1062 1173 1117 1148 1125 1107 1149 1119 1155 1100 1120 1097 1166 1134 1137 1097 1109 1136 1171 1144 1110 1126 1151 1209 1123 1158 1132 1117 1151 1098 1119 1073 1195 1154 1104 1118 1089 1146 1183 1090 1215 1150 1152 1127 1198 1109 1114 1106 1150 1195 1119 1146 1209 1063 1127 1110 1156 1153 1091 1126 1111 1183 1117 1172 1120 1100 1120 1126 1149 1166 1123 1114 1186 1167 1128 1112 1178 1153 1112 1086 1140 1112 1127 1146 1105 1193 1106 1164 1145 1197 1177 1136 1162 1116 1092 1150 1131 1151 1141 1120 1106 1163 1115 1123 1121 1154 1178 1161 1119 1182 1115 1126 1123 1117 1104 1239 1103 1051 1163 1091 1133 1147 1136 1158 1088 1114 1106 1121 1135 1134 1113 1082 1147 1152 1107 1128 1196 1141 1117 1137 1110 1135 1141 1133 1137 1093 1229 1149 1135 1173 1252 1141 1145 1210 1150 1193 1131 1116 1187 1203 1157 1202 1215 1174 1248 1177 1258 1184 1223 1243 1301 1269 1241 1329 1291 1279 1388 1407 1325 1426 1319 1400 1437 1398 1426 1389 1402 1377 1403 1451 1406 1388 1491 1369 1443 1324 1451 1457 1472 1417 1385 1415 1497 1411 1470 1462 1408 1390 1372 1379 1371 1309 1243 1290 1279 1307 1310 1332 1227 1212 1190 1196 1245 1167 1144 1187 1170 1141 1101 1162 1190 1198 1218 1158 1229 1144 1152 1146 1201 1152 1207 1141 1140 1179 1110 1157 1210 1183 1141 1200 1200 1242 1154 1240 1121 1181 1215 1157 1229 1258 1238 1236 1266 1259 1262 1319 1279 1274 1299 1345 1253 1281 1377 1330 1355 1309 1356 1357 1392 1333 1304 1322 1289 1392 1369 1316 1393 1307 1293 1382 1295 1341 1371 1394 1370 1341 1406 1398 1304 1410 1295 1296 1298 1284 1229 1273 1198 1287 1243 1193 1224 1229 1184 1217 1156 1203 1184 1201 1193 1256 1195 1189 1166 1114 1159 1121 1100 1203 1140 1172 1113 1192 1168 1145 1186 1105 1167 1163 1228 1125 1177 1155 1125 1250 1152 1078 1194 1177 1178 1099 1217 1116 1155 1179 1135 1153 1130 1109 1131 1181 1138 1136 1151 1119 1129 1114 1142 1146 1152 1174 1157 1154 1109 1094 1117 1176 1086 1129 1159 1084 1136 1174 1135 1097 1075 1189 997 1110 1126 1140 1104 1080 1138 1124 1075 1163 1142 1134 1134 1103 1121 1118 1108 1110 1179 1145 1163 1147 1115 1108 1079 1125 1041 1080 1083 1182 1117 1107 1189 1194 1206 1111 1087 1091 1111 1130 1109 1109 1188 1132 1143 1063 1090 1150 1169 1129 1115 1165 1120 1174 1122 1160 1140 1147 1163 1197 1121 1093 1183 1107 1168 1147 1143 1098 1126 1062 1093 1160 1122 1178 1184 1171 1203 1092 1142 1074 1094 1168 1140 1103 1084 1170 1091 1100 1130 1185 1179 1139 1161 1129 1090 1197 1144 1159 1180 1136 1113 1117 1131 1226 1133 1101 1183 1193 1153 1141 1171 1149 1139 1117 1144 1179 1171 1150 1171 1192 1144 1191 1153 1140 1108 1163 1264 1186 1170 1212 1184 1142 1194 1174 1187 1124 1150 1174 1202 1229 1187 1242 1189 1206 1216 1221 1207 1235 1204 1227 1169 1288 1297 1236 1254 1341 1331 1305 1352 1405 1394 1439 1480 1492 1633 1701 1684 1793 1924 1880 2053 2052 2209 2184 2213 2449 2622 2554 2802 2979 3173 3169 3243 3304 3402 3398 3446 3401 3463 3472 3582 3488 3384 3422 3459 3529 3369 3554 3424 3472 3445 3534 3512 3369 3461 3424 3418 3352 3201 3192 3082 2969 2770 2706 2474 2451 2328 2296 2268 2094 2078 1984 1937 1868 1724 1641 1586 1495 1424 1452 1446 1357 1348 1350 1235 1302 1288 1253 1316 1318 1266 1229 1248 1322 1226 1266 1264 1286 1276 1272 1327 1287 1326 1271 1316 1288 1249 1324 1365 1281 1327 1331 1421 1426 1398 1484 1440 1438 1545 1552 1639 1651 1633 1780 1747 1847 1954 1950 2030 2081 2069 2060 2116 2154 2112 2138 2213 2257 2200 2236 2303 2157 2256 2197 2291 2234 2210 2254 2309 2210 2268 2219 2111 2248 2142 2167 2162 2071 1948 2040 1906 1977 1939 1967 1932 1836 1863 1860 1737 1672 1801 1674 1637 1639 1512 1589 1511 1477 1484 1474 1403 1429 1310 1316 1346 1313 1298 1279 1234 1297 1205 1246 1274 1181 1252 1183 1227 1195 1180 1177 1223 1180 1192 1243 1137 1198 1098 1177 1145 1163 1095 1126 1137 1145 1181 1174 1187 1171 1195 1097 1235 1150 1162 1180 1081 1175 1227 1086 1106 1106 1189 1167 1106 1162 1148 1148 1186 1202 1193 1182 1178 1179 1178 1107 1260 1230 1212 1249 1282 1291 1324 1265 1306 1365 1301 1362 1427 1382 1368 1430 1379 1435 1479 1463 1453 1456 1475 1558 1570 1553 1567 1589 1605 1521 1575 1644 1535 1515 1568 1635 1568 1579 1518 1556 1507 1488 1524 1506 1534 1544 1468 1413 1444 1464 1517 1456 1417 1400 1307 1290 1325 1271 1218 1241 1245 1198 1234 1245 1174 1254 1212 1263 1167 1134 1128 1159 1146 1151 1133 1057 1085 1162 1134 1109 1112 1159 1107 1114 1097 1042 1116 1082 1087 1104 1084 1100 1075 1091 1097 1091 1049 1036 1090 1091 1139 1042 1108 1078 1086 1081 1109 1091 1068 1089 1050 1040 1087 1093 1074 1031 1073 1031 1094 1006 1072 1040 1019 1043 1075 1041 1059 1110 1108 1062 1069 1038 1099 1091 1046 1054 1048 1092 1085 996 1064 1086 1066 1051 1002 1065 1080 1045 1000 1012 1051 1078 1061 1020 1086 1081 1005 1022 1112 1104 1022 997 1008 1012 977 1041 1065 1036 1020 1139 1078 1096 1073 1062 1093 1019 1088 1110 1013 1042 1072 1048 1061 1044 1033 1081 1079 1021 1052 1047 1093 978 1080 1057 1033 1049 1013 1031 1063 1057 1085 1032 1068 1066 988 1068 1068 1043 1009 1036 1084 1008 1027 979 1050 981 1031 1054 1013 1042 1002 1042 1018 1048 1076 989 1050 1084 1049 1043 1053 1029 1055 1032 991 1010 959 1043 1063 987 1013 1055 1026 1101 1047 1034 1093 1074 1053 1074 1058 1046 1096 1069 1020 1040 1098 1089 1049 1009 1027 1087 1038 1071 984 1067 983 1076 1071 1052 1060 1049 1049 1114 1052 1057 1009 998 1097 1046 1016 1019 1035 990 1044 1040 1067 1043 1030 946 1057 1025 1080 1038 1014 939 1052 1098 1026 1121 1022 1110 1053 1079 1090 1060 1064 1058 1017 1051 1071 1097 1005 1021 1011 995 1053 1026 994 1072 1010 1016 1045 1023 1000 958 1083 1047 1062 999 1096 1019 998 1054 1080 1055 1047 1026 1046 1119 1095 1043 1046 995 1053 1020 1039 1048 983 1056 1031 1067 1049 999 1056 941 987 1029 1017 996 1052 1033 1033 1061 1079 964 1020 1042 1087 995 994 1034 1047 1006 1053 960 1001 1072 1020 1003 1015 979 1063 1024 1019 1051 1072 996 1025 1043 986 1017 1019 1002 1012 1057 1038 1037 1079 1068 1024 961 1016 1031 1061 1005 1002 990 996 1057 1062 1040 1005 1003 1052 1005 1033 1040 1014 1007 1022 994 984 977 1030 1017 1019 1012 1018 1041 1044 1058 991 1053 1034 1093 996 1093 1063 1077 1014 983 1069 962 1055 1033 952 961 1060 1052 1000 1016 973 1076 1026 1053 1011 981 1033 988 1018 999 1055 1025 1046 1032 1058 1114 1021 978 1029 990 1030 992 1076 1035 1040 1066 1065 1040 1008 981 1020 956 1045 1002 1070 1010 1023 1033 987 1046 1046 1025 1017 971 959 1032 1029 1040 1005 1035 972 1001 966 1010 1010 1029 1002 967 1046 1023 1027 1039 967 989 1005 1004 1043 987 974 1087 1036 1024 1054 995 1071 1005 1008 1006 995 1057 1024 1078 1025 1036 1043 1033 1023 1046 1021 1022 1086 1053 1052 1026 978 996 1040 970 1066 1057 1073 1042 1103 1030 1019 1063 1106 1079 1038 1126 1098 1066 1065 1089 1076 1149 1152 1132 1106 1177 1161 1112 1106 1117 1130 1157 1089 1114 1077 1089 1126 1213 1121 1123 1114 1196 1121 1141 1089 1159 1120 1122 1134 1148 1102 1060 1016 1161 1103 1122 1078 1044 1067 1106 1054 1113 1106 1147 1115 1053 1074 1058 1116 1123 1183 1064 1091 1020 1128 1044 1081 1119 1063 1073 1126 1074 1125 1187 1132 1182 1147 1127 1224 1232 1225 1243 1197 1232 1229 1314 1293 1193 1256 1246 1265 1236 1333 1192 1238 1236 1272 1227 1201 1307 1236 1193 1210 1203 1356 1174 1200 1190 1135 1180 1139 1080 1152 1189 1106 1174 1066 1084 1059 1053 1083 1115 1048 1073 1033 1110 1090 1146 1071 983 1126 1047 1042 1008 1049 1075 990 1034 1029 1046 991 1044 1013 1000 1014 1026 993 1008 1088 1016 1052 1060 1042 1054 1092 1049 1041 1046 1121 1050 1009 1059 1079 1098 1011 1047 1049 1098 1042 1066 1040 1129 1056 1097 1075 1098 1152 1155 1109 1070 1208 1173 1178 1191 1174 1270 1257 1307 1294 1352 1262 1364 1397 1464 1447 1485 1576 1556 1602 1616 1558 1484 1602 1573 1521 1549 1621 1540 1557 1548 1526 1536 1508 1472 1514 1544 1478 1448 1448 1357 1361 1339 1383 1306 1340 1302 1306 1286 1261 1204 1192 1157 1184 1237 1150 1160 1237 1175 1120 1138 1115 1101 1125 1054 1102 1059 1053 1031 1008 1086 1019 1099 1017 1058 1033 1065 1060 1010 990 989 1036 979 1012 1019 1006 1034 1031 1017 1002 1006 1076 1053 1050 1029 1045 1040 931 1035 1039 1038 1037 1020 1026 1043 989 1040 978 1015 1018 1050 1020 1008 992 1039 1022 1039 998 1018 1024 1021 1018 995 1051 1050 1000 1002 976 1049 1058 1060 1030 1044 1103 1067 1110 1164 1111 1111 1078 1042 1065 1126 1108 1057 1138 1071 1133 1159 1141 1154 1192 1150 1246 1314 1295 1366 1339 1367 1331 1495 1519 1424 1429 1470 1407 1408 1476 1548 1420 1480 1465 1524 1439 1535 1553 1527 1583 1578 1598 1616 1656 1668 1647 1625 1639 1662 1677 1643 1608 1579 1506 1521 1454 1562 1531 1391 1478 1461 1440 1500 1401 1415 1421 1362 1395 1350 1368 1279 1365 1283 1270 1310 1232 1189 1247 1179 1150 1251 1197 1172 1150 1143 1149 1122 1056 1101 1139 1076 1096 1073 1030 1128 1051 1066 1055 1103 1075 1065 1084 1096 1001 1033 1063 1049 1024 982 1035 1055 1052 1048 1070 1036 1029 1054 1030 997 996 1098 1045 1037 1007 1048 1097 1085 992 1063 1063 1126 1072 1052 1112 1122 1059 1020 1060 1102 1086 1169 1182 1152 1166 1172 1157 1246 1143 1105 1239 1240 1190 1159 1169 1179 1261 1219 1165 1218 1185 1174 1197 1172 1192 1241 1272 1195 1163 1156 1124 1107 1190 1199 1157 1106 1133 1176 1119 1147 1125 1060 1102 1110 1074 1052 1077 1090 1101 1004 1104 1072 1078 1102 1097 1071 1042 1027 988 1028 1019 1126 1080 1069 1067 1082 1050 991 1095 1059 1149 1074 999 1127 1136 1103 1117 1112 1098 1078 1179 1153 1224 1098 1098 1129 1092 1140 1074 1127 1164 1157 1134 1129 1214 1221 1122 1149 1242 1136 1171 1232 1227 1215 1189 1215 1127 1180 1158 1157 1265 1123 1167 1180 1218 1156 1182 1217 1171 1204 1173 1202 1172 1117 1105 1127 1094 1107 1114 1119 1095 1083 1081 1046 1101 1080 1046 1091 1052 1075 1080 1067 1064 1049 1089 1014 1018 1088 1024 995 1056 996 1007 1007 1030 1015 1055 1066 1060 1033 994 1062 996 1028 1008 969 1051 1002 1109 1022 991 940 1045 968 1032 1047 1044 987 1012 997 1028 978 981 1004 996 949 995 1028 961 1008 998 977 930 979 981 1055 947 1001 979 982 992 976 1023 952 985 1001 1062 1006 1037 981 932 1041 1033 997 986 1097 1005 999 972 963 992 968 1005 1011 1008 1041 984 998 1001 1030 1026 989 1001 1003 975 1063 1031 1059 1005 1015 1003 1060 1010 990 1028 1046 1055 1034 1033 1017 1012 1012 1082 1027 1084 1053 1028 1081 1118 1037 1040 1080 1002 998 1054 1031 1081 1093 1030 1034 1056 1038 1038 997 1027 1040 991 1046 1021 1037 1006 1013 1061 1063 1018 1059 1018 1058 995 1041 1006 1015 1034 1067 1029 966 997 1020 1043 1026 1023 980 1029 996 966 942 986 958 1022 970 978 990 970 1002 1010 987 953 1002 998 962 1010 921 979 965 1008 1030 1008 1007 903 962 1008 1021 970 988 973 991 939 993 997 989 1030 970 992 943 958 936 922 981 923 949 1006 992 960 1013 955 1004 977 1017 934 1008 975 924 1007 958 943 965 920 972 945 1019 944 991 1002 953 988 939 1026 984 987 964 967 928 956 992 910 915 952 931 956 976 966 956 932 975 967 957 1027 937 1020 996 1009 998 987 1050 924 938 988 1008 911 1018 969 948 1017 960 965 975 955 950 955 924 954 931 994 986 981 961 955 948 981 1003 967 986 986 913 980 1019 956 997 976 967 964 931 932 989 967 950 1017 1037 998 947 937 964 978 1009 989 968 1035 913 970 956 1004 965 953 950 936 959 980 938 983 950 1020 931 962 993 983 1027 1005 942 1007 982 944 976 957 963 1000 964 1059 954 938 1014 977 975 1000 952 972 943 992 938 925 927 962 1012 960 952 1025 987 978 998 962 984 942 993 1003 936 937 936 927 1002 936 975 946 937 1031 990 964 1020 965 928 1003 948 955 966 925 959 967 968 984 965 984 943 965 999 983 995 1000 955 972 987 949 933 1012 1023 1014 963 923 988 926 974 991 1002 959 971 966 967 972 1017 1009 1029 989 1004 988 1024 977 1058 992 1012 1051 1008 1047 1054 1052 968 1073 1052 975 1002 1055 1022 1064 1054 1052 1023 1026 1083 1003 1047 1059 1009 1045 1065 1003 984 1004 972 940 1013 1005 980 1011 1046 969 979 970 978 1036 1002 1030 970 1012 995 1023 954 1036 960 977 1097 983 1023 1024 982 970 1025 968 1046 990 978 987 973 945 965 1000 1042 1007 1027 1073 1038 1028 1081 1008 1007 1009 1058 1005 960 993 993 1026 1005 1021 997 949 984 1077 985 978 1003 950 1067 962 1052 933 1020 1038 1017 1057 1016 1079 1020 973 1006 971 1012 969 980 1039 1002 1007 1009 1069 1007 1059 1052 970 1018 983 975 986 988 986 991 979 964 1022 987 989 1027 1000 982 954 988 984 984 1026 951 989 1017 1003 1013 973 983 961 957 938 998 944 992 957 996 1002 973 955 1038 971 938 998 989 966 924 962 979 1010 1000 946 993 957 962 976 946 1015 917 971 938 900 974 1003 951 991 911 934 940 972 947 928 925 937 1023 1003 982 921 928 995 952 961 955 982 976 972 1022 955 922 993 976 969 922 983 959 964 949 991 1003 990 1008 986 949 948 967 1027 977 1022 918 1035 1032 1000 934 925 909 971 950 990 958 981 957 984 879 948 1013 960 964 999 992 930 954 961 979 959 940 987 977 1009 951 985 987 955 1020 929 1001 963 959 952 1015 987 939 999 1015 1046 1004 967 1013 961 968 992 994 982 998 1006 995 937 987 981 1024 1018 1020 1010 1022 1002 1074 1058 1022 1062 1051 1046 1057 1118 1102 1101 1121 1127 1095 1094 1225 1188 1106 1129 1201 1206 1141 1087 1149 1142 1143 1159 1119 1149 1083 1105 1172 1195 1125 1147 1166 1157 1092 1118 1196 1055 1128 1079 1064 1088 1095 1059 1104 1054 1075 1028 1060 1011 961 1041 1019 1088 1045 1044 1054 1032 929 1038 1066 1014 995 1054 1022 1074 985 1065 974 988 1007 999 986 1021 1017 997 1058 1023 1030 1014 1102 998 994 1028 1034 1080 1037 1010 1072 1047 1045 1056 1029 1042 1072 1069 1131 1087 1037 1068 1077 1127 1118 1122 1201 1067 1017 1104 1092 1086 1041 1128 1103 1133 1068 1072 1100 1089 1113 1061 1130 1092 1071 1056 1032 1037 1073 1051 1073 990 1056 1052 1039 1069 1013 987 1046 1047 1010 1073 1051 1085 1026 1025 1028 1076 1026 968 976 991 1017 1039 1052 1078 1059 1050 1022 1028 1000 1064 1001 1012 1030 1042 1004 1071 1071 1014 1089 1052 1081 1103 1104 1068 1088 1134 1200 1147 1078 1138 1077 1111 1114 1117 1132 1080 1040 1097 1057 1159 1085 1000 1048 1030 1071 1058 1106 1067 1099 1038 1057 1086 1063 1063 986 1075 999 1020 1034 1011 1030 1019 988 979 1048 983 995 981 964 957 979 997 989 956 929 939 927 998 962 973 1015 995 1019 1044 986 888 989 1017 916 1001 970 986 981 911 929 994 990 1019 944 955 973 952 1018 938 941 944 1004 1008 894 947 934 940 1022 994 926 974 877 938 995 899 937 923 988 1010 950 886 977 955 961 954 983 991 965 939 981 955 999 977 1024 898 980 971 976 971 1009 931 992 939 936 940 930 887 920 975 928 920 1054 931 922 989 913 992 928 1003 956 997 962 949 998 977 927 965 927 952 995 941 965 943 1017 920 982 973 967 985 1003 936 980 913 966 943 945 920 999 1001 962 944 922 883 917 954 964 973 997 951 951 931 1001 1003 955 966 967 970 964 958 954 992 1029 964 909 1032 1010 966 962 966 947 996 988 973 870 1012 968 915 945 967 907 962 1002 975 950 942 973 997 964 959 960 965 927 955 944 963 990 959 943 937 981 886 995 1001 939 944 949 1004 995 994 945 952 909 923 984 984 973 911 976 973 937 965 942 966 966 965 907 966 945 925 952 984 954 931 980 905 964 957 1012 1019 944 965 946 1006 907 964 954 973 962 959 1030 950 985 927 937 974 999 1013 913 916 971 914 995 931 897 985 921 976 969 950 943 959 912 951 979 976 962 975 998 967 965 934 1011 903 1012 987 979 938 982 919 1018 935 966 939 963 941 964 968 927 917 943 892 954 951 947 949 970 930 1011 912 926 923 934 1063 931 945 939 985 963 933 999 946 967 973 958 1002 966 978 996 958 988 974 986 980 985 963 995 936 991 950 978 964 978 910 978 905 992 902 934 920 956 959 960 992 945 980 967 967 967 950 1004 916 1025 954 1011 954 972 981 964 984 968 955 976 951 953 921 945 963 963 941 957 1020 970 969 938 970 969 1022 978 983 953 947 955 961 982 980 939 954 1003 931 916 949 967 971 940 942 977 998 964 944 952 907 999 989 979 953 989 1025 1025 945 942 925 948 984 969 1013 1018 1023 969 1001 958 975 969 1042 953 982 990 1033 999 976 992 986 980 1032 976 1000 1024 1051 1017 1060 1042 1028 1040 1087 1051 1079 1055 1087 1077 1041 1098 1059 1054 1054 994 1003 1029 1019 1101 1027 1044 1084 1102 1091 1038 1033 1081 1077 1055 1037 1083 1031 985 1040 1025 993 1016 1030 1018 1066 948 996 1022 1059 1052 1023 1013 1035 1019 1064 1029 1053 1012 1025 1017 1061 1014 984 998 1059 1031 1000 1030 1062 1051 1052 1101 1017 1031 987 1076 1063 1030 1043 1056 1014 1051 1031 1062 1042 1054 1081 1030 1071 1042 1121 1029 1034 977 979 946 1045 923 1020 1002 992 1042 990 1031 995 976 1011 975 953 1003 968 982 957 967 959 978 991 979 980 982 1012 978 968 959 956 979 1028 1030 977 1015 949 946 939 1027 958 960 1002 990 965 1012 1027 977 1013 954 957 982 980 985 1014 948 957 1008 986 987 959 987 969 964 1018 1011 967 969 955 1015 1003 994 972 1015 985 1032 935 1025 947 952 906 989 1057 986 981 956 991 980 957 1020 956 999 950 968 964 1003 944 944 989 1001 986 919 909 987 1013 1050 1000 955 1009 1046 998 957 960 971 1010 953 1015 955 996 995 990 975 1003 1017 1007 1017 1007 1021 1000 1059 1011 1035 984 1038 1029 1076 1040 980 1083 1031 1063 1024 1061 1081 1068 1085 1044 1091 1097 1104 1124 1052 1139 1205 1145 1182 1125 1167 1167 1183 1136 1105 1173 1103 1167 1145 1133 1198 1160 1077 1194 1160 1160 1170 1141 1133 1148 1136 1132 1128 1141 1167 1172 1150 1211 1185 1198 1167 1271 1241 1236 1278 1233 1226 1271 1314 1300 1302 1407 1372 1403 1419 1408 1409 1452 1381 1389 1377 1350 1392 1430 1404 1413 1464 1466 1443 1485 1493 1567 1565 1558 1534 1550 1573 1515 1505 1492 1460 1509 1444 1332 1439 1473 1376 1346 1342 1275 1373 1319 1387 1361 1338 1392 1351 1342 1309 1261 1272 1221 1193 1213 1215 1224 1157 1156 1092 1059 1211 1154 1160 1140 1105 1119 1090 1121 1097 1097 1082 1039 1053 1104 1047 1075 1071 1090 1012 1010 1047 1005 1002 1014 1047 1090 1022 1022 1068 993 1041 1042 1031 1074 1040 1079 979 973 975 1035 1008 978 962 1041 1043 1010 958 1035 976 1033 1053 949 1078 969 1009 1018 1015 1018 984 975 1062 1015 997 1042 1040 1032 1020 1011 981 914 978 988 996 1011 999 1066 1080 981 1038 987 1014 1008 940 1029 1039 1017 1039 1012 973 980 1024 984 959 1000 1075 996 1060 994 1058 1083 1069 1047 1101 1050 1055 1057 1090 1117 1052 1107 1158 1096 1111 1117 1196 1117 1155 1123 1160 1181 1195 1200 1183 1260 1228 1273 1275 1326 1320 1351 1319 1341 1404 1356 1408 1416 1389 1376 1313 1384 1316 1460 1420 1397 1377 1379 1397 1390 1425 1338 1385 1394 1391 1380 1352 1372 1320 1349 1359 1278 1353 1237 1306 1245 1315 1248 1294 1237 1202 1183 1185 1167 1209 1148 1216 1123 1137 1171 1212 1171 1117 1131 1104 1101 1071 1009 1111 1048 1034 1005 1029 1041 1018 1017 984 970 1040 1097 1071 1026 1042 1017 1044 995 1021 1064 957 1044 1010 945 1040 1045 993 950 1006 1011 974 1020 1000 1000 990 974 1024 969 973 1000 968 904 1001 1044 947 1015 941 1024 959 1009 1022 1004 961 936 945 962 948 1039 970 918 962 1026 942 999 950 967 937 979 1016 1014 917 1034 980 958 962 966 954 1043 957 1029 1004 964 1004 1044 1018 1001 1016 967 1011 999 1040 978 1058 981 1059 1093 968 922 990 1068 1008 1023 946 994 1042 975 940 985 982 938 957 980 955 1000 986 985 1019 991 999 935 1016 1036 1029 956 999 967 998 1045 921 1022 1003 948 985 950 969 971 1075 948 939 1009 1002 942 985 969 937 910 954 962 972 963 980 961 926 973 947 1007 972 931 988 1012 892 952 975 981 962 929 908 945 934 1033 958 954 915 1011 992 956 996 1001 882 982 993 966 933 981 981 1007 974 975 967 956 938 971 929 970 945 989 964 977 995 905 959 1009 920 936 990 965 985 931 947 1023 968 943 975 973 930 1014 958 953 989 941 985 962 1010 1007 965 1009 921 983 943 942 921 941 958 1038 953 1025 988 930 977 1003 970 983 929 1027 968 1012 972 1021 959 982 908 967 987 922 963 966 1018 895 990 949 992 995 933 932 936 939 964 1001 935 980 944 971 989 954 994 988 1003 961 965 960 942 1022 998 967 885 971 985 973 957 949 991 968 960 926 947 957 961 1004 915 987 918 942 978 991 950 952 1004 939 988 984 994 1009 981 975 964 906 988 911 969 890 894 965 961 1013 936 961 975 991 952 946 943 942 953 991 960 996 967 940 972 931 957 996 994 1031 939 1007 968 1045 1023 971 975 950 967 964 988 965 971 993 930 1020 1025 980 1034 978 948 986 943 990 974 1019 1086 921 963 993 1019 1022 974 989 950 934 996 1013 976 1077 937 1006 1018 1041 1000 1045 999 972 987 1008 975 1073 1008 1010 1054 1015 1009 1027 1010 988 1014 1011 1050 987 981 1002 990 1078 1028 1013 1021 1035 992 1030 961 983 1006 990 1020 1033 977 994 994 1008 978 1052 973 1038 964 983 1014 992 988 1000 1041 980 977 1041 952 1021 1068 978 1005 1004 1032 996 1028 993 1094 1033 1045 983 1086 994 1029 971 1017 1028 1063 965 973 1032 1012 1040 983 990 970 959 1014 939 1051 1038 1012 985 974 985 979 967 981 1016 971 954 985 1004 959 1035 988 1065 1017 1017 1005 1024 970 972 942 974 1002 970 1018 966 999 978 958 996 978 958 992 991 972 1010 995 1001 950 1004 944 974 964 986 953 967 949 991 953 951 970 1009 941 947 989 936 984 979 1020 1024 972 992 969 951 1004 943 1003 980 903 1010 931 1018 987 993 940 946 908 998 959 996 982 1072 1016 984 1024 999 1001 911 996 972 944 970 1005 952 982 942 950 973 995 941 993 918 993 956 959 1042 930 957 978 965 942 977 992 962 1006 1024 984 955 962 965 987 986 1033 993 1000 978 963 1007 973 947 1035 995 1015 974 1017 932 967 973 1002 1023 1033 1009 982 1016 965 970 1041 980 1000 1018 992 979 964 1031 1041 983 1038 1045 1034 953 994 1033 992 1005 975 1066 1012 1015 1023 1038 1032 1089 1069 1076 1096 1081 1045 1125 1121 1146 1106 1169 1194 1198 1207 1251 1271 1274 1267 1364 1301 1386 1334 1337 1388 1308 1315 1317 1319 1327 1211 1271 1308 1287 1274 1263 1350 1335 1282 1304 1290 1302 1251 1253 1299 1231 1235 1274 1202 1220 1323 1262 1268 1238 1194 1191 1231 1193 1192 1101 1163 1162 1098 1131 1105 1097 1087 1103 1134 1184 1132 1109 1099 1109 1079 1072 1051 1034 1051 1052 1057 1042 973 1060 1048 1058 1041 1034 1060 1037 1017 1051 1047 1036 1009 1081 1085 1069 1064 1047 1137 1083 1133 1107 1077 1094 1072 1089 1059 1079 1047 1018 1144 1120 1110 1046 1055 1071 1093 1032 1109 1108 1082 1037 1081 1048 1080 1044 1131 1073 1049 1041 1073 1054 1050 1052 1123 1109 1045 1032 1049 1012 975 989 1012 1035 1013 1096 1011 1056 1059 1020 984 960 976 950 1028 1013 1082 978 1000 1002 952 980 960 1012 960 983 1006 995 1042 1012 1004 1001 921 987 1035 990 980 995 1000 985 968 995 959 1018 1031 1013 1006 1019 1084 1003 1016 1002 965 1029 1009 1038 1098 1017 1009 997 1034 1066 1066 992 1027 1005 975 1021 1092 1043 1057 1079 1046 1107 1086 992 1016 1122 1071 1023 1064 1055 1079 1033 1103 996 1060 1020 1046 1083 1105 1059 1100 1096 1158 1135 1089 1071 1121 1088 1087 1099 1140 1107 1093 1148 1145 1067 1111 1065 1152 1095 1107 1075 1053 1086 1062 1031 1058 1110 1075 1029 1053 1018 1087 1068 1112 1076 1037 1085 1057 1062 1094 1099 1088 1060 1094 1078 1051 1032 1005 1049 1017 1062 1024 1084 1054 1031 1043 990 992 997 983 973 1018 993 1004 937 1011 970 1000 1034 966 970 978 991 969 1002 982 1014 961 1018 1036 1010 990 946 942 980 1013 952 1017 988 971 1014 984 998 955 984 952 976 933 951 950 962 1051 997 987 943 978 984 1018 1010 1000 982 970 988 1060 1012 951 963 925 998 1004 1035 979 998 1001 977 993 1009 1015 997 996 1017 998 1031 990 1005 959 960 972 979 995 963 1028 989 994 1012 999 966 976 1016 1038 977 964 978 978 981 966 1021 998 973 988 997 974 951 975 983 935 994 968 974 980 1033 992 1025 1006 970 972 985 982 982 963 1002 994 938 976 965 1041 954 1018 985 964 964 950 1002 990 951 949 966 1010 958 985 982 954 968 959 984 979 960 976 921 948 991 987 997 962 986 971 951 931 962 945 952 1039 981 905 968 978 931 980 946 985 927 991 956 986 950 963 981 947 959 954 898 947 896 980 949 968 984 943 987 941 979 952 969 934 972 982 978 920 956 929 966 1015 951 953 947 918 981 944 984 971 940 904 951 1012 973 937 1002 1004 948 1023 1018 964 997 972 983 983 885 945 923 982 938 915 973 977 947 1010 985 958 892 969 950 1010 968 944 1006 973 945 934 994 990 991 963 978 1023 949 994 955 938 933 994 938 945 1028 897 940 975 1011 988 933 979 999 1000 969 934 967 941 1020 963 927 964 921 936 1005 911 902 997 958 892 927 967 935 1013 994 941 955 974 947 992 944 971 963 948 1017 929 910 982 1026 972 929 942 934 1027 1001 1020 964 953 973 948 969 977 950 981 922 960 948 985 970 925 987 948 1035 1025 943 970 1004 998 982 979 914 963 984 1018 1011 959 967 1005 994 1031 1035 1031 1034 974 1048 983 1005 1042 1018 1004 1040 1083 1033 989 1045 1005 992 1039 1065 1007 1002 981 976 1000 1044 991 991 972 987 1047 955 971 1002 942 994 1007 1032 1053 993 994 1047 1020 938 1001 1049 984 1053 963 1041 990 1065 1045 964 1030 968 1000 1032 989 1056 990 1037 1016 1046 954 1035 979 1006 974 1021 991 971 1009 1035 1001 1008 992 980 927 1002 969 1002 997 979 1014 982 1021 1005 941 1028 1011 958 1026 964 936 949 960 1002 1023 1014 1020 1046 988 1003 1022 975 988 1003 1045 984 997 989 933 1034 918 937 958</counts>
			</dataPoints>
		</scan>
	</xrdMeasurement>
</xrdMeasurements>
