<?xml version="1.0"?>
<xrdMeasurements xmlns="http://www.xrdml.com/XRDMeasurement/2.3" xmlns:xsi="http://www.w3.org/2001/XMLSchema-instance" xsi:schemaLocation="http://www.xrdml.com/XRDMeasurement/2.3 http://www.xrdml.com/XRDMeasurement/2.3/XRDMeasurement.xsd" status="Completed" recordIdentifier="{FF743DEB-5D57-4ACC-9B0C-B3FADF3120EB}">
	<comment>
		<entry/>
	</comment>
	<sample type="To be analyzed">
		<id>GPSS_Li2Co0p5Zn0p5Cl4_100725_68e5a8e007cf888582f935ca</id>
		<name></name>
		<preparedBy></preparedBy>
	</sample>
	<xrdMeasurement measurementType="Scan" status="Completed" sampleMode="Reflection">
		<usedWavelength intended="K-Alpha 1">
			<kAlpha1 unit="Angstrom">1.5405980</kAlpha1>
			<kAlpha2 unit="Angstrom">1.5444260</kAlpha2>
			<kBeta unit="Angstrom">1.3922500</kBeta>
			<ratioKAlpha2KAlpha1>0.5000</ratioKAlpha2KAlpha1>
		</usedWavelength>
		<incidentBeamPath>
			<radius unit="mm">145.00</radius>
			<xRayTube id="1010048" name="Empyrean Cu LFF HR (9430 033 7310x)">
				<tension unit="kV">40.0</tension>
				<current unit="mA">15.0</current>
				<anodeMaterial>Cu</anodeMaterial>
				<focus type="Line">
					<length unit="mm">12.0</length>
					<width unit="mm">0.4</width>
					<takeOffAngle unit="deg">6.0</takeOffAngle>
				</focus>
			</xRayTube>
			<sollerSlit id="21010002" name="Soller slits 0.04 rad.">
				<opening unit="rad">0.0400</opening>
			</sollerSlit>
			<mask id="22031000" name="Fixed mask 13 mm">
				<width unit="mm">9.00</width>
			</mask>
			<divergenceSlit id="22120001" name="Divergence slit 1°" xsi:type="fixedDivergenceSlitType">
				<distanceToSample unit="mm">50.00</distanceToSample>
				<height unit="mm">1.52</height>
			</divergenceSlit>
		</incidentBeamPath>
		<sampleMovement xsi:type="spinningSampleMovementType">
			<spinnerRevolutionTime unit="seconds">1.0</spinnerRevolutionTime>
		</sampleMovement>
		<diffractedBeamPath>
			<radius unit="mm">145.00</radius>
			<antiScatterSlit id="22090040" name="AS slit 9 mm (PIXcel)" xsi:type="fixedAntiScatterSlitType">
				<height unit="mm">9.00</height>
			</antiScatterSlit>
			<sollerSlit id="21020003" name="Large Soller slits 0.04 rad.">
				<opening unit="rad">0.0400</opening>
			</sollerSlit>
			<filter id="20030001" name="Large beta-filter Nickel">
				<material>Ni</material>
				<thickness unit="mm">0.020</thickness>
			</filter>
			<detector id="7010019" name="PIXcel1D-Medipix3 detector" xsi:type="rtmsDetectorType">
				<phd unit="keV">
					<lowerLevel>4.02</lowerLevel>
					<upperLevel>11.27</upperLevel>
				</phd>
				<mode>Scanning</mode>
				<activeLength unit="deg">5.542</activeLength>
			</detector>
		</diffractedBeamPath>
		<scan appendNumber="0" mode="Continuous" scanAxis="Gonio" status="Completed">
			<header>
				<startTimeStamp>2025-10-09T14:02:41-07:00</startTimeStamp>
				<endTimeStamp>2025-10-09T14:10:48-07:00</endTimeStamp>
				<author>
					<name>AutomatedUser</name>
				</author>
				<source>
					<applicationSoftware version="1.7b (136)">PANalytical Aeris Instrument Suite</applicationSoftware>
					<instrumentControlSoftware version="3.2.00000000 20240306">AERIS</instrumentControlSoftware>
					<instrumentID>950485</instrumentID>
				</source>
			</header>
			<dataPoints>
				<positions axis="2Theta" unit="deg">
					<startPosition>10.00943322</startPosition>
					<endPosition>99.99442286</endPosition>
				</positions>
				<positions axis="Omega" unit="deg">
					<startPosition>5.00471661</startPosition>
					<endPosition>49.99721143</endPosition>
				</positions>
				<commonCountingTime unit="seconds">12.495</commonCountingTime>
				<counts unit="counts">2944 2828 2991 2811 2880 2852 2821 2901 2903 2865 2879 2901 2893 2899 2972 2933 2832 2852 2881 2841 2789 2877 2830 2849 2894 2822 2780 2863 2935 2873 2819 2886 2828 3021 2808 2981 2913 2947 2874 2858 2934 2906 2910 2913 2882 2860 2843 2900 2903 2860 2924 2880 2833 2781 2892 2854 2879 2853 2874 2982 2963 2872 2897 2988 2949 2891 2954 2875 2942 2913 3014 2984 2967 2940 2890 2990 2973 2974 2935 2947 2955 2895 2936 3046 2886 3019 2906 2960 2941 2921 2931 2949 3012 3030 2978 2937 2885 2949 2924 3069 2956 3029 2956 3083 3034 2927 3039 2945 3013 3010 3078 2941 2977 2974 3076 3005 2892 2884 3058 2947 2983 3008 2905 2947 2949 3030 2925 3040 2963 3049 2943 2928 3030 2947 2793 2947 3078 2982 3027 2987 2953 2871 2886 2908 2873 2963 2860 2937 2944 3033 2913 2940 2913 2979 2986 2953 2876 2805 2961 2858 2835 2855 2859 2849 2915 2885 2782 2993 2922 2837 2827 2912 2936 2928 2933 2873 2855 2798 2945 2977 2876 2956 2984 2883 2920 2890 2931 2901 2851 2943 2816 2893 2834 2890 2856 2835 2911 2821 2864 2833 2824 2832 2913 2895 2866 2904 2875 2864 2752 2781 2905 2816 2888 2876 2783 2799 2814 2840 2822 2744 2794 2799 2701 2761 2853 2838 2824 2858 2880 2888 2774 2859 2743 2813 2749 2756 2723 2860 2797 2871 2840 2943 2781 2843 2936 2832 2754 2811 2856 2747 2739 2853 2793 2872 2763 2697 2812 2871 2797 2784 2734 2797 2745 2756 2722 2778 2789 2827 2741 2770 2800 2808 2800 2895 2736 2860 2834 2869 2805 2688 2851 2857 2777 2805 2777 2844 2767 2861 2865 2789 2807 2865 2767 2793 2821 2707 2901 2766 2947 2748 2887 2856 2847 2858 2845 2876 2916 2958 2831 2765 2832 2822 2790 2850 2840 2842 2845 2787 2771 2915 2850 2842 2789 2910 2896 2833 2922 2825 2842 2843 2836 2894 2873 2880 2947 2838 2960 2974 2923 2888 3023 2903 2907 2928 2966 2897 2940 2939 2962 2993 2871 3033 2982 2880 3011 3090 2986 3003 2981 3134 3001 2960 2977 3054 3076 3024 3090 3060 3098 2998 3049 3032 3107 3125 3073 3038 3097 3129 3062 3156 3133 3221 3191 3137 3226 3090 3089 3152 3182 3207 3093 3179 3187 3212 3252 3094 3131 3231 3062 3152 3239 3301 3236 3249 3167 3202 3257 3187 3168 3228 3150 3292 3197 3265 3271 3277 3277 3297 3325 3180 3180 3251 3307 3299 3225 3328 3256 3274 3264 3311 3267 3318 3280 3296 3439 3272 3421 3355 3490 3303 3490 3380 3337 3295 3490 3321 3470 3454 3384 3330 3441 3280 3319 3316 3427 3389 3421 3399 3487 3414 3305 3346 3318 3355 3387 3364 3313 3417 3374 3439 3284 3396 3405 3399 3455 3473 3348 3380 3352 3352 3335 3509 3435 3420 3297 3399 3305 3422 3377 3468 3364 3440 3304 3351 3340 3347 3290 3381 3227 3210 3335 3287 3338 3186 3188 3204 3274 3199 3313 3322 3301 3287 3241 3369 3361 3262 3177 3278 3280 3266 3254 3107 3262 3184 3111 3264 3186 3152 3193 3213 3125 3139 3182 3169 3206 3096 3060 3078 3075 3106 3183 3122 3115 3169 3195 3134 3175 3128 3093 3172 3108 3181 3034 3186 3128 3093 3128 3102 3068 3155 3133 3071 3134 3133 3101 3140 3112 3052 3058 3166 3015 3103 3037 3026 3109 3080 2968 3075 3002 3016 3103 3138 3016 3042 3085 3031 3040 2913 3044 3015 2919 2982 2995 3012 2962 3025 2983 2928 3019 2892 2817 2831 2862 2927 2889 2895 2897 2885 2924 2885 2881 2959 2920 2833 2847 2882 2935 2916 2859 2851 2929 2859 2897 2857 2902 2926 2885 2917 2878 2886 2876 2887 2851 2826 2959 2770 2864 2848 2878 2866 2909 2927 2751 2884 2772 2922 3030 2846 2879 2856 2949 2895 2989 2870 2969 2917 2872 2920 2815 2823 2826 2923 2968 2871 2819 2960 2811 2837 2813 2819 2881 2739 2871 2758 2828 2845 2920 2852 2899 2889 2915 2856 2911 2837 2809 2741 2966 2857 2953 2886 2869 2839 2850 2883 2833 2896 2857 2801 2699 2764 2879 2741 2732 2855 2891 2817 2817 2815 2884 2736 2829 2764 2836 2737 2722 2762 2797 2740 2759 2828 2833 2836 2801 2635 2764 2752 2702 2727 2785 2833 2741 2761 2804 2734 2815 2738 2801 2715 2777 2713 2766 2753 2722 2776 2706 2752 2792 2861 2714 2788 2781 2777 2839 2721 2842 2735 2792 2821 2742 2714 2762 2788 2846 2740 2699 2713 2671 2710 2788 2855 2770 2773 2769 2740 2746 2767 2748 2810 2853 2709 2797 2823 2867 2859 2816 2730 2777 2836 2783 2826 2904 2922 2860 2873 3008 2887 2779 2915 2890 2815 2840 2858 2933 2912 2938 2774 2900 2951 2920 2888 2880 2969 2816 2880 2867 2815 2815 2801 2818 2815 2885 2760 2826 2909 2812 2869 2783 2840 2722 2715 2854 2821 2730 2882 2736 2775 2856 2836 2890 2764 2724 2850 2869 2757 2751 2743 2750 2667 2727 2745 2844 2668 2871 2685 2752 2698 2747 2674 2683 2640 2631 2698 2676 2642 2711 2614 2625 2655 2767 2712 2598 2610 2650 2663 2720 2586 2665 2740 2636 2602 2583 2633 2641 2703 2666 2634 2617 2645 2633 2642 2700 2624 2649 2665 2563 2692 2577 2577 2562 2615 2565 2618 2629 2555 2665 2519 2643 2617 2597 2692 2603 2703 2608 2525 2568 2658 2646 2629 2650 2687 2489 2570 2593 2705 2653 2639 2674 2521 2634 2615 2606 2626 2552 2587 2525 2656 2604 2629 2672 2578 2615 2695 2612 2567 2664 2522 2623 2492 2593 2517 2615 2596 2451 2530 2575 2611 2554 2522 2553 2607 2554 2594 2524 2582 2573 2529 2549 2545 2515 2526 2588 2496 2521 2485 2551 2612 2516 2632 2584 2613 2485 2525 2421 2496 2544 2477 2410 2501 2523 2489 2547 2548 2550 2505 2578 2486 2627 2530 2504 2447 2628 2566 2451 2529 2530 2426 2524 2536 2595 2528 2511 2541 2575 2516 2615 2545 2502 2527 2499 2567 2498 2460 2509 2559 2455 2571 2588 2531 2519 2576 2514 2455 2503 2541 2543 2564 2499 2663 2476 2502 2647 2569 2510 2548 2604 2598 2550 2519 2507 2479 2569 2462 2485 2513 2580 2562 2539 2541 2538 2497 2592 2528 2587 2549 2505 2566 2521 2572 2528 2575 2547 2624 2553 2557 2520 2569 2552 2547 2591 2531 2558 2520 2502 2595 2532 2505 2685 2600 2523 2594 2615 2423 2493 2585 2514 2642 2475 2576 2557 2599 2627 2619 2573 2666 2509 2633 2601 2629 2652 2598 2572 2621 2569 2591 2541 2517 2620 2626 2552 2557 2595 2576 2593 2587 2502 2606 2511 2476 2536 2620 2430 2551 2554 2548 2497 2489 2550 2509 2328 2481 2598 2483 2540 2443 2539 2570 2528 2455 2536 2556 2623 2426 2434 2482 2389 2534 2426 2566 2484 2440 2523 2452 2472 2419 2431 2452 2463 2448 2555 2456 2515 2574 2461 2510 2451 2451 2392 2587 2509 2406 2448 2491 2439 2388 2446 2420 2333 2398 2392 2331 2520 2362 2383 2425 2299 2341 2367 2431 2394 2347 2371 2354 2324 2387 2285 2347 2299 2359 2393 2324 2318 2303 2384 2299 2407 2411 2341 2371 2370 2281 2272 2222 2291 2308 2366 2235 2243 2364 2218 2302 2275 2298 2208 2245 2214 2157 2241 2259 2192 2247 2217 2228 2249 2227 2217 2180 2263 2195 2246 2231 2313 2124 2272 2206 2042 2117 2089 2172 2215 2188 2254 2171 2193 2126 2126 2119 2143 2142 2044 2050 2117 2126 2185 2195 2117 2161 2082 2101 2153 2075 2120 2196 2200 2120 2183 2139 2075 2095 2092 2084 2136 2055 2035 2055 2091 2105 2006 2077 2106 2085 2079 2082 2108 2071 2093 2056 2102 2070 2103 2103 2113 2206 2116 2121 2124 2126 2178 2130 2206 2147 2203 2221 2184 2187 2139 2169 2034 2144 2165 2139 2085 2088 2165 2138 2129 2057 1994 2088 2120 2097 2021 2007 2132 2074 2040 2010 2088 2096 2102 2081 2013 1986 1968 2028 2029 1947 2058 2018 1960 1977 2045 2006 1990 1966 1982 1959 2074 2007 2096 2074 2065 2229 2074 2135 2045 2123 2102 2136 2015 2030 1961 2018 1993 1965 2000 1997 2075 1957 1917 1973 1922 1883 1978 1995 1929 1954 1933 1865 1957 1941 1951 1934 1928 1957 1987 1925 1877 1982 1944 1986 1923 1972 2030 2091 1949 1946 1980 1982 1956 1930 1926 2018 2010 2010 2024 1950 1919 1931 2014 1989 1997 1960 1999 2021 1934 1943 1968 1945 2014 1978 1986 1903 2063 1848 1972 1954 1962 2019 1968 1958 2012 1940 1955 1988 1961 1908 1998 1960 1972 1976 1935 1957 2029 1938 1946 1945 1960 1910 1957 1976 2022 1972 1922 1932 1927 1952 1993 1907 1940 1945 1963 2006 1936 1991 1952 1918 1924 1948 1993 1929 1981 1943 1959 2008 1928 1895 2012 1915 2026 1998 1910 1883 1964 1952 1942 1931 2044 1888 2050 1970 1901 1867 1927 1897 1910 1921 1983 1889 1781 1985 1971 1952 1964 1924 1906 1982 1956 2020 1931 1939 1906 1913 1916 1961 1876 1914 1907 1833 1949 1918 1979 1968 1939 2010 1911 1923 1951 1879 1902 1837 1956 1887 1970 1868 1922 1930 1934 1931 1915 1895 1873 1917 1874 1899 1871 1834 1919 1900 1926 1864 1909 1867 1822 1869 1820 1792 1814 1861 1845 1829 1862 1904 1865 1767 1794 1820 1821 1846 1846 1797 1824 1847 1839 1821 1803 1859 1791 1778 1790 1780 1831 1808 1794 1823 1918 1745 1815 1786 1780 1723 1780 1802 1721 1777 1721 1667 1835 1742 1814 1769 1785 1695 1875 1724 1754 1734 1703 1781 1748 1720 1693 1779 1773 1725 1840 1744 1762 1775 1797 1724 1743 1731 1776 1791 1751 1730 1799 1741 1740 1753 1739 1795 1695 1774 1791 1705 1727 1732 1680 1728 1721 1669 1761 1655 1680 1781 1804 1750 1741 1635 1745 1704 1676 1769 1717 1717 1819 1697 1849 1712 1707 1688 1761 1751 1756 1659 1758 1695 1636 1689 1636 1678 1672 1659 1747 1742 1710 1622 1603 1792 1702 1788 1786 1742 1825 1913 1886 1868 1875 1981 1975 1965 2000 1958 1943 2014 1982 1921 2002 1998 1899 1946 2028 1940 2017 2001 1865 1949 1898 1875 1795 1809 1841 1724 1776 1790 1748 1752 1803 1685 1705 1659 1675 1708 1676 1663 1653 1782 1795 1755 1656 1829 1781 1782 1724 1785 1747 1781 1780 1811 1723 1760 1691 1718 1577 1655 1617 1674 1620 1664 1627 1632 1696 1690 1660 1620 1703 1714 1644 1684 1698 1638 1666 1701 1737 1668 1747 1642 1648 1579 1670 1678 1680 1637 1692 1627 1677 1558 1648 1543 1583 1625 1587 1528 1594 1608 1566 1536 1601 1544 1549 1612 1595 1575 1578 1659 1665 1744 1690 1751 1774 1830 1837 1854 1890 1964 1998 1958 2052 2023 2096 2000 1992 2079 2084 2070 2130 1995 1922 1988 1997 1922 1855 1938 1815 1786 1806 1762 1729 1709 1745 1685 1759 1672 1704 1683 1641 1607 1596 1643 1685 1717 1662 1632 1620 1738 1693 1689 1724 1751 1686 1748 1728 1750 1709 1729 1766 1770 1672 1687 1687 1680 1724 1642 1584 1529 1499 1566 1552 1482 1555 1549 1500 1494 1505 1495 1545 1487 1428 1530 1553 1552 1584 1438 1488 1471 1558 1496 1485 1517 1535 1551 1618 1471 1437 1565 1501 1568 1485 1440 1544 1551 1557 1486 1590 1439 1497 1474 1466 1520 1494 1496 1450 1399 1425 1461 1457 1450 1455 1466 1409 1474 1522 1516 1475 1498 1430 1451 1483 1519 1505 1444 1523 1520 1456 1436 1494 1490 1412 1518 1383 1466 1392 1409 1412 1416 1533 1425 1431 1399 1457 1449 1428 1435 1480 1420 1449 1406 1437 1403 1440 1463 1518 1407 1419 1427 1485 1356 1325 1429 1392 1364 1398 1336 1364 1389 1392 1313 1420 1350 1357 1404 1362 1315 1312 1320 1288 1305 1345 1368 1298 1313 1316 1255 1323 1357 1283 1368 1277 1316 1302 1270 1282 1306 1351 1321 1317 1290 1318 1293 1253 1282 1323 1231 1288 1285 1282 1261 1284 1223 1295 1294 1325 1354 1364 1243 1267 1273 1253 1261 1325 1220 1266 1291 1307 1278 1323 1223 1313 1295 1315 1245 1300 1251 1322 1160 1279 1270 1252 1292 1271 1252 1217 1282 1275 1257 1260 1266 1246 1282 1275 1302 1260 1217 1281 1348 1264 1345 1325 1333 1318 1390 1299 1262 1314 1338 1365 1374 1330 1322 1305 1259 1301 1273 1381 1275 1331 1217 1354 1330 1358 1316 1278 1258 1345 1379 1311 1332 1338 1268 1315 1324 1336 1284 1343 1304 1288 1323 1232 1280 1282 1324 1337 1293 1303 1305 1303 1264 1290 1361 1316 1255 1222 1218 1282 1246 1316 1258 1304 1216 1266 1285 1280 1287 1299 1267 1335 1297 1318 1230 1280 1218 1313 1256 1261 1301 1296 1272 1260 1221 1299 1263 1279 1305 1262 1241 1273 1239 1154 1239 1184 1298 1296 1207 1258 1208 1253 1214 1218 1245 1235 1224 1281 1238 1287 1240 1259 1236 1164 1247 1224 1217 1224 1192 1254 1188 1240 1214 1236 1217 1205 1254 1223 1223 1154 1195 1265 1211 1197 1230 1271 1224 1273 1217 1224 1211 1212 1230 1215 1230 1234 1287 1223 1237 1199 1247 1225 1236 1153 1194 1171 1179 1157 1176 1191 1224 1254 1213 1253 1259 1216 1246 1267 1290 1282 1312 1337 1362 1390 1349 1389 1428 1619 1534 1595 1609 1605 1780 1670 1758 1824 1787 1808 1793 1866 1776 1829 1758 1845 1726 1744 1689 1612 1581 1546 1622 1591 1481 1486 1474 1459 1498 1516 1460 1510 1407 1436 1421 1458 1435 1433 1450 1487 1447 1462 1467 1467 1472 1481 1423 1428 1523 1486 1483 1520 1491 1477 1633 1468 1575 1614 1624 1642 1618 1615 1605 1636 1592 1575 1625 1616 1597 1508 1505 1473 1472 1404 1397 1452 1433 1337 1374 1327 1364 1355 1406 1359 1367 1384 1368 1346 1401 1360 1506 1346 1441 1374 1436 1369 1412 1401 1517 1399 1426 1401 1367 1321 1291 1325 1386 1291 1348 1290 1278 1232 1265 1257 1264 1242 1243 1266 1242 1234 1210 1301 1265 1235 1205 1228 1159 1298 1172 1229 1239 1160 1225 1294 1235 1226 1182 1215 1179 1232 1176 1219 1203 1164 1291 1214 1270 1237 1178 1211 1195 1195 1192 1270 1184 1211 1185 1128 1162 1175 1152 1168 1140 1146 1136 1222 1147 1173 1168 1107 1145 1090 1182 1098 1114 1085 1101 1056 1080 1138 1181 1144 1093 1203 1112 1170 1128 1134 1091 1193 1084 1104 1102 1103 1140 1134 1130 1098 1099 1090 1102 1093 1127 1125 1119 1125 1077 1059 1171 1151 1155 1117 1156 1127 1094 1130 1082 1132 1165 1073 1096 1107 1114 1125 1118 1141 1127 1133 1095 1158 1068 1156 1100 1052 1087 1108 976 1065 1119 1144 1104 1072 1131 1038 1158 1053 1081 1098 1062 1121 1101 1058 1145 1074 1091 1156 1081 1136 1139 1116 1123 1100 1103 1121 1060 1153 1070 1103 1032 1090 1116 1086 1069 1044 1047 1053 1031 1073 1099 1095 1067 1081 1079 1093 1067 1119 1073 1065 1058 1066 1140 1070 1153 1103 1121 1123 1144 1135 1100 1148 1115 1176 1128 1156 1088 1088 1109 1101 1142 1126 1087 1129 1084 1131 1033 1106 1109 1095 1123 1162 1123 1134 1108 1061 1137 1084 1115 1085 1080 1106 1094 1085 1114 1090 1051 1104 1113 1087 1114 1072 1115 1153 1101 1057 1110 1091 1128 1132 1069 1115 1052 1064 1120 1060 1065 1033 1046 1078 1104 1064 1152 1126 1091 1082 1097 1129 1088 1035 1055 1073 1115 1010 1090 1058 1095 1060 1064 1072 1063 1111 1111 1085 1113 1064 1051 1091 1119 1080 1103 1077 993 1123 1005 1048 1050 1090 1074 1034 1022 1092 1124 1090 1120 1046 1087 1079 1040 1064 1053 1004 1028 1064 1052 1113 1091 1091 1058 1084 1033 1029 1063 1090 1022 1083 1057 1128 1043 1097 1015 1050 1061 1086 1108 1045 1062 1074 1044 1061 999 1009 1025 1072 1066 1054 1033 980 1088 1041 1065 1070 1037 1081 1079 1026 1039 1083 1076 1100 1078 1119 1082 1170 1130 1162 1100 1176 1126 1139 1079 1168 1178 1099 1041 1174 1159 1162 1121 1100 1141 1141 1077 1085 1066 1125 1088 1095 1105 1030 1128 1069 1071 1018 1055 1078 1054 1033 1082 1074 1098 1031 1075 1040 1027 1131 1011 1070 1054 1091 1081 1078 1122 1038 1086 1085 1072 1059 987 1043 988 1071 1019 1050 1021 1051 938 1052 1016 1044 993 1041 1007 1003 1053 1064 997 1008 1079 953 1016 1031 1035 965 1045 997 1067 999 1063 1051 1011 1002 1013 993 1036 986 1065 988 1078 1034 1064 1000 1087 1003 1087 1002 993 1005 969 999 1052 1019 1019 1071 995 1005 1052 989 1044 1079 1024 1048 1031 998 1049 1024 1022 1039 1000 1013 1014 1043 950 944 1007 983 1040 973 1001 1031 1044 995 1052 1054 976 932 1053 943 998 998 1021 989 976 1007 1065 946 1006 1024 1026 991 972 974 1026 1033 1042 1038 998 1013 994 983 987 970 1027 945 978 1016 1026 959 1007 943 1059 960 995 981 1023 934 1061 989 1028 1009 1001 1017 964 1002 989 1023 1006 1037 1042 1013 968 969 979 1003 978 971 1019 983 973 1027 988 950 969 972 974 994 1008 1026 1023 988 1101 983 1024 1005 968 969 1025 1014 969 970 1035 1082 992 1016 969 1004 1006 1019 1072 964 968 964 1016 1059 1015 1024 979 993 943 946 972 986 1020 1007 1028 1013 1018 984 978 1022 982 957 964 1027 990 973 1004 977 1017 1028 972 1011 1052 949 963 966 1024 1067 973 981 1019 1002 996 1030 986 1080 994 1063 1033 1000 1034 1039 1015 990 1007 993 1035 1058 1010 991 1079 1057 977 1051 1048 1032 999 1043 1039 1044 1074 1062 949 1021 1022 1061 1034 1095 1059 1036 1004 1092 1039 989 980 963 976 982 985 1022 992 1109 1059 980 1029 1011 1028 959 999 957 964 956 988 985 980 953 967 993 976 1002 1051 1014 1005 974 1004 959 974 1003 997 953 968 978 954 1006 998 969 969 978 924 957 1001 1004 1057 1016 1072 1048 1032 1001 1072 961 996 967 984 1060 910 948 953 969 996 985 919 1009 996 940 1020 987 1005 959 926 977 957 986 997 992 961 972 991 975 1001 941 999 968 979 993 1013 1009 1003 955 907 966 949 967 964 1052 984 991 1034 1030 989 941 939 978 934 934 955 978 1003 953 995 1030 1002 993 999 946 972 961 1025 1038 937 977 1002 971 974 919 954 953 980 989 960 908 944 1003 946 1000 928 982 976 968 967 1004 952 1054 988 1004 936 978 994 969 985 964 980 940 1050 1026 960 960 940 1031 949 916 993 974 985 957 915 1036 993 992 986 998 933 929 944 935 922 937 971 946 913 963 941 903 962 981 966 1025 951 959 988 960 977 1019 935 907 947 946 1010 932 974 965 1013 979 1016 973 994 930 975 973 1020 1049 1021 1022 1099 1027 1063 1025 1082 1116 1050 1064 1007 1077 1085 1070 1145 1036 1042 1128 1113 1027 1030 1057 1054 1035 1061 983 1006 1033 1016 1010 1017 1068 994 1030 968 1049 1020 987 1015 1000 1041 1040 1027 986 1040 1065 1005 1026 1034 1025 1001 995 965 964 1021 1065 975 998 1017 1051 994 1028 1052 947 1026 1055 961 967 1019 985 969 955 1003 953 955 923 959 968 1007 964 970 935 934 954 982 1013 944 994 972 919 891 932 969 1018 984 956 1007 959 941 1030 1024 915 960 966 946 993 916 961 905 950 961 997 967 922 977 946 993 925 1021 954 971 989 971 1004 1021 979 988 962 986 969 974 934 899 975 971 951 980 962 904 939 966 906 924 936 958 1000 926 931 978 941 1042 975 961 964 984 1020 1004 984 954 964 938 980 951 984 985 977 1004 942 1030 947 973 1019 997 991 958 992 954 986 951 996 967 979 945 938 957 916 902 953 979 940 889 916 933 973 953 948 953 967 1016 967 982 951 915 902 974 953 962 925 949 1004 931 1033 920 939 952 976 948 957 985 913 950 870 919 955 934 894 969 894 933 928 914 871 930 973 1001 947 962 864 964 935 961 945 873 1027 1035 949 919 944 945 984 931 899 922 1002 949 984 942 933 987 982 972 945 970 958 944 951 954 949 971 910 948 929 959 908 994 927 932 954 1010 936 969 932 929 951 892 945 1008 959 942 968 996 994 970 965 953 985 927 952 1000 968 929 902 981 960 927 897 999 884 984 930 911 942 952 921 923 925 965 1006 962 887 1002 909 1010 954 962 948 929 917 926 995 939 918 975 954 945 944 968 948 1016 993 944 929 964 933 918 919 933 969 939 978 934 925 960 943 996 949 946 964 961 945 998 909 967 926 962 990 1011 924 894 968 995 958 963 986 990 978 982 999 956 957 996 945 948 962 950 985 991 970 1024 987 1050 1054 1007 1063 1083 1108 1176 1196 1202 1224 1241 1345 1298 1435 1419 1473 1423 1410 1461 1469 1372 1536 1481 1626 1555 1621 1640 1657 1565 1635 1570 1585 1531 1540 1568 1494 1549 1543 1485 1438 1398 1467 1399 1385 1353 1412 1360 1390 1348 1350 1353 1368 1343 1327 1362 1358 1386 1327 1351 1354 1311 1395 1386 1351 1361 1364 1357 1264 1315 1178 1253 1248 1255 1287 1246 1193 1184 1228 1249 1180 1223 1180 1158 1190 1133 1088 1133 1066 1053 1097 1095 1034 1088 1054 1024 1073 1048 1077 1041 1069 1030 1032 1033 1030 1100 1065 1047 1035 1034 1027 1066 1032 961 1034 1019 1002 974 1009 1080 992 929 961 959 976 978 930 980 951 949 968 972 962 947 960 993 1024 1002 1011 1022 1023 1057 1008 1003 1070 1065 1033 986 1021 1037 1051 1086 1050 1003 1043 1008 1049 1018 1042 953 1008 1060 1095 981 1019 973 1049 995 989 960 984 908 964 994 944 957 943 970 924 952 916 951 963 977 973 994 1011 983 895 914 927 928 980 960 898 936 949 978 907 928 968 916 927 942 969 886 946 943 967 901 914 972 967 988 959 992 959 943 918 864 914 978 930 961 840 919 923 914 956 919 917 854 915 897 926 986 884 881 1014 933 933 940 942 927 941 922 962 942 996 981 908 1017 1003 921 918 878 1010 983 916 945 932 906 902 922 965 912 979 953 942 937 948 935 972 928 967 919 907 901 932 909 979 926 955 920 982 906 875 859 990 897 907 946 940 869 944 938 923 935 929 928 883 920 909 884 892 938 931 948 961 970 945 908 900 928 939 949 951 916 971 963 943 1028 969 946 982 952 974 962 971 941 913 987 973 1009 945 941 914 1011 983 971 985 942 943 1015 987 956 900 912 965 935 984 977 972 941 923 943 916 1032 967 961 941 944 952 933 1015 968 973 953 954 978 913 942 948 982 877 993 971 917 889 924 930 959 885 965 990 926 881 888 908 904 968 915 947 967 898 933 936 913 936 943 921 916 936 902 976 924 955 913 918 902 905 953 881 848 953 915 867 876 929 862 941 920 952 898 893 881 918 883 900 893 857 896 828 925 867 903 901 870 959 858 867 911 849 890 922 886 866 879 883 874 847 892 873 904 921 921 854 851 848 933 855 832 856 890 865 994 900 939 821 904 960 877 892 948 916 898 942 904 881 927 864 855 844 913 892 878 865 854 861 906 864 878 846 920 891 931 888 899 913 892 904 868 873 894 861 860 826 903 892 856 907 933 916 847 909 841 933 865 860 923 838 860 798 841 868 891 851 841 865 829 921 874 929 932 906 860 890 780 869 935 884 878 847 865 869 816 863 830 859 907 861 885 881 886 854 839 837 874 857 899 837 869 884 862 803 822 870 850 890 856 874 815 845 856 909 849 876 878 870 915 871 851 888 854 870 954 898 913 828 871 858 848 885 882 854 879 826 891 883 880 909 829 858 794 896 876 885 875 935 881 921 849 856 900 893 932 934 887 859 867 843 824 912 869 874 899 894 837 892 846 894 818 858 874 865 840 902 832 866 919 947 860 852 885 886 892 912 893 890 922 795 893 864 892 828 866 849 878 865 823 859 907 879 819 845 934 862 817 853 901 925 874 902 857 905 837 799 859 830 893 809 861 879 865 861 864 840 836 880 877 800 860 869 813 885 889 869 846 858 867 852 855 889 818 891 859 874 879 873 822 880 802 873 842 866 886 823 831 853 863 850 896 813 843 820 878 842 859 858 838 830 808 850 824 818 892 890 845 902 822 826 856 859 814 867 822 896 821 853 907 867 851 847 825 853 875 864 866 879 851 830 856 819 860 816 895 806 867 830 833 849 820 877 880 855 868 799 887 814 831 842 833 904 945 813 862 829 853 846 841 891 881 873 848 886 848 928 851 860 833 863 857 891 888 842 913 844 889 849 881 898 926 843 925 912 948 891 954 868 855 913 920 873 902 877 944 853 889 888 915 886 846 886 919 893 866 849 872 925 871 834 872 862 887 912 916 879 879 866 894 899 863 846 916 857 890 924 863 900 870 900 900 849 931 937 887 927 841 931 907 988 987 961 954 1007 1029 1054 1104 1095 1178 1178 1188 1215 1196 1188 1277 1245 1218 1346 1246 1277 1280 1292 1339 1290 1280 1289 1212 1291 1237 1346 1256 1202 1209 1237 1150 1250 1265 1228 1149 1142 1164 1125 1087 1085 1034 1019 1074 1045 1106 1057 1092 1010 1017 988 1011 984 1046 911 931 985 947 974 897 985 965 921 998 990 959 957 975 928 938 917 949 956 927 907 889 914 908 907 914 952 927 866 958 883 909 934 897 910 887 870 919 862 862 887 865 919 923 889 885 869 918 867 910 875 913 889 905 920 872 864 835 810 897 789 878 895 872 855 902 878 868 912 921 869 908 865 845 874 863 870 917 905 828 819 782 829 819 844 881 870 880 794 794 775 812 850 863 823 836 804 848 822 860 857 815 841 836 865 857 865 860 818 860 865 873 797 854 820 881 811 813 830 846 842 859 877 839 803 838 835 814 862 824 839 789 871 875 856 854 852 819 824 862 845 832 814 826 821 821 937 867 859 834 809 790 797 838 843 809 853 869 844 869 877 867 883 878 858 855 860 845 849 887 854 828 841 841 813 844 834 844 860 857 834 799 826 819 777 834 815 824 786 826 819 901 914 822 845 829 799 849 898 812 834 804 854 832 791 849 862 841 855 847 797 872 841 819 866 864 897 879 888 891 835 917 878 827 847 921 896 861 825 822 802 867 903 915 880 888 877 878 838 873 866 834 857 834 896 882 864 915 812 836 907 919 862 879 864 839 877 834 886 880 840 836 875 870 855 841 889 798 843 840 829 887 912 806 819 831 853 861 825 879 828 850 832 812 818 894 838 839 820 818 842 820 822 842 814 796 827 806 843 838 873 842 872 839 838 864 818 819 873 874 919 871 803 884 831 826 848 852 884 852 813 819 844 817 846 825 858 870 844 859 830 833 810 829 825 888 841 783 833 856 812 853 843 889 840 850 854 865 844 907 817 863 837 826 890 828 770 841 838 898 871 884 876 866 830 810 863 842 890 866 820 918 798 872 832 816 847 832 804 852 842 835 885 848 820 862 871 812 829 876 884 888 872 849 881 851 845 879 868 857 893 854 836 869 810 829 804 861 901 871 852 844 826 855 886 908 927 811 907 823 887 865 863 870 878 817 846 885 844 825 801 874 864 815 907 859 845 851 882 850 841 858 857 830 869 890 838 797 838 790 783 841 839 879 846 878 915 860 824 820 866 865 881 831 834 843 818 833 804 873 842 853 835 828 815 816 813 846 853 853 857 801 804 828 815 861 828 906 860 780 851 739 859 800 832 818 858 868 835 828 821 837 831 861 808 814 821 855 857 812 820 857 862 822 822 844 817 801 844 809 836 819 854 825 845 778 826 827 844 822 836 861 854 830 847 836 858 874 866 820 833 863 839 853 854 849 805 832 836 841 803 804 830 838 825 812 841 841 889 842 803 823 850 801 803 851 795 844 785 847 828 828 888 813 845 830 818 825 791 822 777 844 776 865 814 856 843 841 812 875 814 830 823 818 851 817 841 827 861 878 800 868 819 816 823 830 841 827 804 868 811 811 819 790 822 791 855 843 798 858 837 843 845 819 839 860 845 832 820 848 845 783 820 817 846 807 877 799 823 750 809 767 812 782 787 801 752 842 850 840 827 821 816 820 803 796 841 832 863 841 799 748 791 803 815 829 841 852 816 811 779 790 822 840 801 842 773 859 808 820 831 797 757 765 810 854 802 805 834 826 851 821 882 829 810 766 827 788 794 812 870 824 820 791 812 811 853 754 782 764 802 788 809 829 835 762 805 826 814 782 769 788 854 864 795 791 770 809 774 832 792 864 797 822 868 835 829 772 781 804 854 862 830 809 840 806 804 812 857 850 795 808 860 816 854 832 832 808 814 827 836 796 797 774 797 846 775 788 779 869 863 833 809 810 799 850 821 858 798 733 780 849 837 822 806 815 844 835 803 818 809 793 862 858 813 790 841 776 838 828 832 802 814 822 856 833 870 818 786 801 833 819 868 825 834 843 846 769 805 799 842 791 804 830 815 834 836 762 818 837 813 812 796 796 788 830 784 837 788 774 833 776 833 806 776 841 822 836 824 822 867 789 802 850 800 786 813 819 868 802 814 764 807 858 796 764 839 830 813 838 820 825 771 796 852 776 824 804 801 823 795 807 762 823 867 800 805 787 848 807 777 825 811 802 816 763 827 820 809 806 829 796 783 761 774 814 860 790 831 797 811 790 828 785 811 814 784 854 803 802 828 804 799 840 809 836 818 814 853 776 809 841 818 863 822 842 816 855 821 830 837 813 825 790 845 838 850 868 791 825 842 820 822 884 833 878 835 814 847 854 838 812 845 824 787 839 820 809 864 854 828 873 823 883 853 827 813 847 838 847 787 847 795 809 862 827 853 898 865 849 781 869 803 803 854 780 854 801 812 814 836 827 787 849 786 803 757 843 821 778 839 799 796 830 842 860 843 793 832 833 777 800 795 888 772 767 811 823 809 856 891 792 738 785 840 765 813 817 846 795 783 853 846 873 793 793 829 853 827 795 881 835 841 835 848 832 828 859 816 831 880 840 782 833 859 774 851 826 867 840 833 792 836 775 845 786 805 807 853 816 836 775 827 773 795 818 833 795 837 764 814 833 794 785 832 844 816 793 789 800 795 783 802 835 786 806 794 815 864 815 804 774 813 821 820 813 810 823 776 835 783 817 841 835 812 837 796 819 797 827 764 801 827 777 844 829 750 842 855 806 791 871 820 852 829 829 796 817 762 869 792 784 819 835 815 788 847 782 828 824 827 810 834 785 817 785 841 798 821 755 831 768 797 805 769 799 777 803 773 797 763 806 779 818 855 832 763 830 845 824 810 778 794 805 826 776 781 836 849 828 805 787 789 781 857 788 813 886 845 775 858 781 786 780 804 830 840 784 775 859 818 821 809 843 834 809 843 783 788 852 820 812 846 840 830 798 844 838 794 853 812 808 823 818 835 840 817 835 845 825 889 850 830 880 799 874 843 876 806 834 823 850 862 836 793 826 810 809 836 859 827 787 820 837 847 859 845 809 843 865 878 830 842 861 831 844 874 885 867 833 815 817 878 856 866 818 888 802 890 880 882 830 876 855 820 769 809 826 842 845 792 833 814 831 838 857 858 785 836 810 781 810 814 789 844 776 806 840 867 781 848 866 802 827 830 784 804 821 806 801 802 797 809 826 793 734 825 807 853 830 808 789 800 760 807 800 829 833 851 817 810 867 810 871 831 842 834 781 799 809 811 831 844 835 832 840 824 780 800 785 881 844 814 820 860 845 847 785 772 794 869 763 769 782 844 799 836 845 773 826 813 814 833 855 844 829 846 879 821 817 825 781 784 832 809 832 817 852 782 828 810 848 865 849 861 820 846 865 793 870 841 865 836 895 876 827 829 865 859 868 784 865 875 858 897 898 836 868 886 864 903 853 856 837 883 845 858 846 790 843 849 882 794 797 876 788 797 847 826 842 817 809 799 811 856 833 789 830 838 857 835 843 818 795 828 816 813 804 812 797 812 784 848 851 792 872 849 803 833 847 831 819 784 831 828 824 758 822 821 857 808 810 885 858 862 840 803 825 804 801 811 816 783 854 807 893 833 813 837 853 829 845 820 767 759 787 821 814 801 831 812 806 795 856 826 814 812 806 856 776 835 810 833 821 819 800 793 800 822 823 789 799 789 867 848 792 808 844 843 791 819 850 810 790 787 793 799 858 802 845 762 853 840 750 852 813 790 830 796 839 833 828 790 825 842 764 820 793 850 768 808 863 878 816 839 833 855 810 851 786 867 817 802 804 832 820 831 847 843 819 828 823 828 825 803 759 852 803 833 814 781 829 831 773 795 762 794 762 802 777 804 837 773 821 818 868 798 821 835 804 853 806 850 860 812 893 760 820 770 811 839 771 846 813 811 797 821 842 771 818 804 814 859 793 777 813 790 828 850 801 740 884 843 798 842 773 836 827 883 810 837 845 846 807 829 808 841 783 804 879 821 855 798 874 862 790 854 835 851 849 814 844 799 837 834 849 827 806 847 815 808 822 851 842 832 811 807 870 839 798 857 816 816 818 862 836 754 820 876 845 825 836 783 820 850 797 837 870 855 837 849 805 856 845 843 849 795 830 816 856 833 834 862 843 810 836 809 812 844 792 798 848 839 861 805 825 849 815 779 822 864 851 842 825 837 872 803 793 863 861 800 866 827 823 853 797 828 792 836 859 809 813 811 801 853 796 827 857 863 773 782 757 878 812 865 774 815 793 827 844 830 840 783 807 839 873 816 846 760 860 818 822 764 851 870 825 834 825 878 818 836 798 829 818 819 817 839 829 827 841 874 870 826 840 854 869 838 822 830 856 830 898 824 860 794 856 876 826 847 833 856 843 781 817 847 861 788 848 770 917 846 819 813 857 845 789 768 836 822 888 848 836 841 813 854 888 854 810 874 807 828 826 800 814 844 876 871 809 846 883 863 907 902 903 827 839 827 804 839 790 843 843 894 873 882 870 803 879 845 839 784 863 837 841 798 863 840 797 814 872 788 833 879 851 893 856 901 852 871 828 930 899 844 925 881 890 944 814 881 882 882 927 900 865 906 892 897 890 901 897 848 929 902 896 904 921 867 895 864 897 928 930 900 896 928 954 928 923 945 870 913 949 866 900 920 926 924 896 900 967 871 894 894 874 907 890 850 864 824 859 898 928 890 849 843 889 832 852 863 885 856 894 859 825 875 842 903 863 885 806 866 815 858 834 841 792 863 866 896 835 854 883 819 846 906 886 812 815 826 892 870 823 859 877 829 876 833 873 826 822 835 772 853 848 846 812 781 854 829 827 818 843 901 863 876 868 832 844 885 787 843 816 827 826 840 835 827 817 804 889 841 818 833 774 854 827 831 835 843 850 849 817 791 843 815 807 764 788 822 869 842 841 779 844 848 845 857 828 836 860 830 844 850 873 822 836 878 863 807 883 848 816 854 808 857 854 822 836 848 815 830 844 830 832 879 850 842 833 816 825 832 858 810 812 848 805 803 857 853 812 940 817 810 844 844 880 875 843 850 822 798 841 833 881 848 827 880 848 832 853 829 816 825 830 853 864 816 846 908 869 849 857 885 860 880 900 862 844 847 867 888 886 855 842 824 903 820 859 882 857 827 848 801 851 906 885 844 891 871 895 888 878 864 846 895 862 856 893 888 893 867 897 886 881 883 851 878 903 894 869 892 831 873 852 923 864 863 868 882 879 879 816 842 880 895 837 900 859 840 876 838 856 867 896 843 854 832 918 893 860 882 777 835 851 852 857 846 830 835 839 871 840 896 782 872 814 853 808 870 836 790 846 785 857 858 859 853 858 904 853 842 810 794 802 841 815 819 808 839 839 782 820 796 882 824 830 839 832 786 854 849 832 879 867 801 810 856 844 841 855 837 828 820 832 798 834 852 833 863 794 828 840 862 821 861 849 834 840 799 852 867 814 811 808 840 828 805 809 829 822 853 815 840 796 862 834 838 849 842 818 813 831 856 794 867 832 901 861 811 802 854 836 806 899 846 798 824 889 817 832 848 834 801 799 833 806 823 781 827 816 844 871 823 835 845 844 850 833 825 785 850 816 914 860 878 814 815 854 810 854 835 822 843 836 805 847 835 828 874 833 840 815 837 852 796 827 797 812 804 808 824 868 877 882 866 859 824 788 841 827 832 874 804 893 783 834 825 813 852 903 830 905 807 821 867 839 807 855 811 890 858 856 911 859 873 875 852 892 860 827 816 831 856 851 839 859 833 866 857 875 856 868 839 865 864 876 815 835 885 904 862 855 833 833 816 834 865 787 822 814 778 891 846 787 803 807 879 805 839 850 795 855 900 811 837 850 791 819 812 802 826 825 838 832 835 812 768 830 839 832 790 883 798 866 806 872 797 819 793 785 800 817 821 851 858 851 794 839 823 839 782 813 818 825 778 830 856 802 779 845 847 840 811 825 824 776 867 847 858 802 843 805 779 820 754 840 842 849 839 802 796 804 848 797 842 750 825 818 822 830 805 829 819 845 764 880 806 777 822 806 835 795 839 828 807 751 839 871 815 830 854 792 854 815 791 837 780 848 771 822 843 804 887 821 788 852 869 791 782 837 805 821 807 821 773 816 804 826 803 811 777 783 814 833 847 813 803 838 821 752 819 809 859 825 852 787 807 808 780 798 836 847 873 824 785 832 847 813 828 831 783 798 760 830 813 873 783 772 805 819 870 802 865 843 834 844 804 830 833 814 840 842 841 840 795 845 777 846 835 837 783 837 876 783 819 850 811 851 833 825 832 844 859 845 811 801 817 787 849 819 853 831 869 852 832 755 820 803 776 847 846 787 849 808 831 842 843 821 823 816 838 826 765 797 814 819 861 850 854 811 801 849 853 868 833 857 810 800 799 793 769 855 860 762 800 898 821 862 846 785 844 817 826 856 834 806 803 875 837 756 830 817 781 773 846 847 822 837 854 831 823 823 788 774 806 851 763 760 807 803 866 800 792 845 824 820 812 816 808 829 842 838 824 811 829 799 835 844 890 845 847 861 836 834 816 863 841 882 880 803 795 857 814 816 824 805 778 809 828 838 830 772 830 816 815 840 733 821 834 811 853 766 850 858 781 880 810 828 826 814 840 801 807 804 785 823 796 859 824 824 832 810 820 814 818 845 850 822 834 805 823 859 780 740 862 830 834 815 809 843 813 813 813 828 799 853 837 849 813 837 818 847 857 869 812 827 810 806 860 822 817 821 847 799 851 767 820 865 847 822 837 839 845 816 880 819 853 832 825 815 821 813 872 825 808 844 821 821 850 843 847 796 814 829 844 825 857 832 887 814 857 847 815 800 810 779 823 822 822 882 886 889 841 868 857 816 860 831 848 840 858 812 836 830 837 838 855 812 822 832 783 859 873 818 819 815 834 817 854 853 874 779 897 814 880 819 835 786 887 786 805 831 847 789 818 843 842 777 829 847 822 838 775 857 818 829 828 805 781 835 800 811 857 830 833 815 844 859 790 862 794 828 859 799 817 778 813 803 815 799 886 824 835 868 797 862 820 829 819 785 832 796 840 805 806 839 796 853 872 821 804 824 827 827 807 848 814 831 820 838 841 811 842 836 826 879 857 789 797 811 838 876 769 867 825 784 862 796 760 790 847 801 778 821 787 814 762 837 910 832 832 829 862 849 834 823 808 888 826 866 844 814 796 854 830 841 793 910 813 861 848 857 861 902 873 890 884 853 840 842 870 838 911 949 902 933 855 900 926 915 984 925 917 905 900 906 857 886 892 884 923 892 908 900 864 904 899 899 892 886 969 881 904 941 939 913 915 941 928 864 920 883 886 906 920 895 913 876 879 930 894 907 871 888 859 890 890 855 886 888 912 866 885 904 893 863 882 868 823 837 856 826 890 911 834 848 807 832 874 863 867 814 814 842 868 849 831 825 872 848 830 881 792 852 851 825 845 840 871 858 805 879 790 885 808 808 795 807 848 798 836 847 811 795 869 846 839 922 870 864 813 799 872 871 877 834 847 830 890 822 777 842 834 856 823 803 793 811 838 825 805 862 855 818 870 821 837 778 833 822 838 815 866 820 829 877 789 845 819 821 830 856 842 856 816 796 834 881 859 868 808 830 837 782 813 815 802 844 763 895 822 783 852 865 839 872 865 785 826 898 852 849 831 866 837 838 805 816 811 817 815 856 880 816 877 832 847 823 822 836 840 850 810 849 865 863 819 816 807 847 862 841 820 817 834 851 799 800 869 872 830 857 850 795 863 870 889 848 843 819 803 826 854 873 805 790 863 843 897 833 859 814 788 785 826 762 845 807 833 856 845 827 801 836 797 779 813 852 805 812 814 818 835 796 777 820 853 870 828 814 852 760 831 824 834 847 812 883 876 871 823 810 826 865 832 850 824 771 848 812 846 815 831 816 809 857 825 838 869 854 868 833 842 814 850 828 890 835 830 829 849 840 848 796 813 815 789 832 876 832 836 826 828 840 829 865 824 870 816 797 811 818 873 870 841 882 879 841 823 843 840 847 832 829 869 899 843 797 840 839 860 836 867 820 831 836 842 808 862 814 865 812 865 847 811 821 815 832 812 848 798 836 808 809 820 853 790 806 830 839 832 843 825 859 810 815 855 797 796 812 850 833 809 790 895 818 815 786 821 825 838 865 834 831 841 821 805 783 863 854 844 853 836 863 924 863 792 809 759 787 827 808 864 805 844 801 801 823 805 831 869 823 810 840 763 836 857 798 764 844 787 858 816 832 815 779 918 788 831 805 827 777 803 784 776 840 847 836 797 849 839 835 877 846 793 837 863 870 843 808 863 837 780 840 769 806 831 840 856 837 838 882 839 838 836 839 851 887 820 781 834 865 838 817 836 781 862 787 828 822 856 811 835 825 805 851 859 836 871 867 858 843 826 815 859 848 847 850 818 836 855 780 836 800 835 809 835 825 879 750 810 839 867 812 866 831 860 824 874 806 775 801 848 827 841 828 801 825 811 806 796 844 821 808</counts>
			</dataPoints>
		</scan>
	</xrdMeasurement>
</xrdMeasurements>
