<?xml version="1.0"?>
<xrdMeasurements xmlns="http://www.xrdml.com/XRDMeasurement/2.3" xmlns:xsi="http://www.w3.org/2001/XMLSchema-instance" xsi:schemaLocation="http://www.xrdml.com/XRDMeasurement/2.3 http://www.xrdml.com/XRDMeasurement/2.3/XRDMeasurement.xsd" status="Completed" recordIdentifier="{5ECE5B71-1095-445D-85B6-6306F1E31BF8}">
	<comment>
		<entry/>
	</comment>
	<sample type="To be analyzed">
		<id>GPSS_Li1p5Mn0p6Bi0p35Ta0p05Cl4_121325_693cb366f4d05ae3d69752ae</id>
		<name></name>
		<preparedBy></preparedBy>
	</sample>
	<xrdMeasurement measurementType="Scan" status="Completed" sampleMode="Reflection">
		<usedWavelength intended="K-Alpha 1">
			<kAlpha1 unit="Angstrom">1.5405980</kAlpha1>
			<kAlpha2 unit="Angstrom">1.5444260</kAlpha2>
			<kBeta unit="Angstrom">1.3922500</kBeta>
			<ratioKAlpha2KAlpha1>0.5000</ratioKAlpha2KAlpha1>
		</usedWavelength>
		<incidentBeamPath>
			<radius unit="mm">145.00</radius>
			<xRayTube id="1010048" name="Empyrean Cu LFF HR (9430 033 7310x)">
				<tension unit="kV">40.0</tension>
				<current unit="mA">15.0</current>
				<anodeMaterial>Cu</anodeMaterial>
				<focus type="Line">
					<length unit="mm">12.0</length>
					<width unit="mm">0.4</width>
					<takeOffAngle unit="deg">6.0</takeOffAngle>
				</focus>
			</xRayTube>
			<sollerSlit id="21010002" name="Soller slits 0.04 rad.">
				<opening unit="rad">0.0400</opening>
			</sollerSlit>
			<mask id="22031000" name="Fixed mask 13 mm">
				<width unit="mm">9.00</width>
			</mask>
			<divergenceSlit id="22120001" name="Divergence slit 1°" xsi:type="fixedDivergenceSlitType">
				<distanceToSample unit="mm">50.00</distanceToSample>
				<height unit="mm">1.52</height>
			</divergenceSlit>
		</incidentBeamPath>
		<sampleMovement xsi:type="spinningSampleMovementType">
			<spinnerRevolutionTime unit="seconds">1.0</spinnerRevolutionTime>
		</sampleMovement>
		<diffractedBeamPath>
			<radius unit="mm">145.00</radius>
			<antiScatterSlit id="22090040" name="AS slit 9 mm (PIXcel)" xsi:type="fixedAntiScatterSlitType">
				<height unit="mm">9.00</height>
			</antiScatterSlit>
			<sollerSlit id="21020003" name="Large Soller slits 0.04 rad.">
				<opening unit="rad">0.0400</opening>
			</sollerSlit>
			<filter id="20030001" name="Large beta-filter Nickel">
				<material>Ni</material>
				<thickness unit="mm">0.020</thickness>
			</filter>
			<detector id="7010019" name="PIXcel1D-Medipix3 detector" xsi:type="rtmsDetectorType">
				<phd unit="keV">
					<lowerLevel>4.02</lowerLevel>
					<upperLevel>11.27</upperLevel>
				</phd>
				<mode>Scanning</mode>
				<activeLength unit="deg">5.542</activeLength>
			</detector>
		</diffractedBeamPath>
		<scan appendNumber="0" mode="Continuous" scanAxis="Gonio" status="Completed">
			<header>
				<startTimeStamp>2025-12-16T13:07:05-08:00</startTimeStamp>
				<endTimeStamp>2025-12-16T13:15:12-08:00</endTimeStamp>
				<author>
					<name>AutomatedUser</name>
				</author>
				<source>
					<applicationSoftware version="1.7b (136)">PANalytical Aeris Instrument Suite</applicationSoftware>
					<instrumentControlSoftware version="3.2.00000000 20240306">AERIS</instrumentControlSoftware>
					<instrumentID>950485</instrumentID>
				</source>
			</header>
			<dataPoints>
				<positions axis="2Theta" unit="deg">
					<startPosition>10.00943322</startPosition>
					<endPosition>99.99442286</endPosition>
				</positions>
				<positions axis="Omega" unit="deg">
					<startPosition>5.00471661</startPosition>
					<endPosition>49.99721143</endPosition>
				</positions>
				<commonCountingTime unit="seconds">12.495</commonCountingTime>
				<counts unit="counts">3191 3050 2991 3210 3022 3131 3119 3044 3027 3135 2980 3074 3116 3078 3235 3084 3093 3018 3119 3145 3002 3089 3087 3138 3129 2982 3162 3092 3086 3144 3122 3223 3152 3114 3070 3068 3117 3069 3181 3116 3124 3039 3128 3061 3069 3144 3112 3199 3072 3171 3179 3147 3011 3134 3031 3252 3053 3147 3082 3226 3012 3128 3138 3155 3112 3208 3156 3112 3146 3161 3133 3134 3185 3222 3238 3122 3080 3186 3086 3074 3216 3131 3169 3180 3187 3055 3185 3100 3172 3196 3073 3260 3137 3202 3236 3207 3151 3154 3146 3218 3143 3275 3232 3214 3294 3275 3241 3142 3136 3232 3205 3274 3248 3323 3248 3276 3234 3226 3207 3250 3202 3164 3223 3105 3218 3264 3268 3293 3301 3341 3258 3230 3199 3274 3320 3234 3298 3338 3273 3313 3240 3242 3122 3208 3230 3206 3214 3266 3229 3197 3247 3317 3316 3278 3296 3340 3274 3223 3309 3332 3385 3311 3218 3203 3175 3306 3212 3306 3266 3283 3278 3276 3276 3320 3272 3318 3362 3137 3241 3314 3317 3421 3402 3375 3266 3355 3454 3225 3274 3313 3244 3335 3302 3298 3256 3339 3217 3346 3310 3240 3250 3242 3324 3283 3255 3124 3301 3194 3339 3240 3259 3274 3211 3280 3252 3129 3293 3289 3390 3342 3252 3319 3321 3320 3209 3274 3216 3245 3241 3237 3238 3233 3262 3246 3204 3321 3261 3297 3299 3226 3285 3266 3277 3370 3209 3324 3193 3350 3304 3145 3179 3232 3288 3237 3227 3248 3255 3304 3193 3294 3306 3216 3350 3246 3172 3277 3209 3361 3398 3193 3338 3278 3292 3244 3266 3268 3253 3287 3193 3334 3195 3167 3345 3163 3249 3184 3212 3240 3279 3264 3292 3262 3366 3280 3292 3213 3222 3183 3295 3162 3268 3198 3268 3271 3199 3303 3160 3252 3223 3168 3438 3261 3234 3332 3147 3293 3234 3379 3310 3328 3188 3335 3245 3304 3378 3268 3277 3405 3404 3405 3286 3406 3257 3331 3356 3344 3420 3525 3358 3369 3357 3411 3384 3382 3345 3312 3291 3403 3380 3434 3482 3376 3385 3345 3419 3386 3366 3434 3416 3495 3415 3484 3509 3546 3622 3475 3536 3529 3463 3421 3457 3581 3478 3422 3536 3481 3576 3706 3635 3577 3638 3585 3481 3614 3596 3574 3677 3611 3579 3624 3677 3622 3568 3630 3709 3811 3640 3675 3703 3602 3686 3769 3717 3747 3698 3709 3774 3700 3755 3835 3931 3719 3762 3855 3843 3988 3996 4019 3994 4100 4058 4127 4117 4056 4189 4285 4194 4422 4385 4331 4424 4326 4399 4573 4497 4635 4577 4659 4757 4729 4745 4841 4912 4827 4935 5108 5087 5075 5132 5203 4980 5101 5127 5206 5122 5246 5088 4938 4895 4597 4573 4614 4644 4532 4527 4435 4493 4458 4400 4533 4584 4503 4449 4548 4438 4559 4569 4759 4772 4629 4876 4856 4779 4923 4946 5126 5289 5204 5257 5354 5493 5688 5763 5796 5888 6075 6242 6399 6532 6587 6816 6989 7129 7055 7334 7558 7590 7813 8043 8293 8508 8725 8865 8973 9090 9243 9229 9077 9208 9112 9055 8819 8493 8052 7731 7365 6935 6664 6313 6290 5983 5767 5598 5466 5135 5187 4986 4891 4901 4674 4642 4565 4582 4418 4402 4282 4096 4189 4074 4124 3971 3826 3833 3776 3777 3888 3725 3766 3622 3682 3561 3695 3640 3532 3706 3631 3681 3565 3551 3461 3562 3516 3543 3479 3477 3471 3408 3419 3449 3415 3455 3422 3526 3473 3475 3486 3532 3461 3429 3498 3450 3488 3511 3573 3359 3480 3424 3382 3439 3391 3435 3454 3444 3523 3425 3453 3358 3378 3411 3387 3378 3360 3361 3346 3417 3402 3375 3330 3362 3439 3346 3202 3375 3324 3374 3376 3376 3298 3261 3366 3295 3384 3369 3303 3417 3306 3359 3436 3303 3365 3367 3304 3367 3179 3394 3315 3254 3263 3224 3263 3325 3329 3401 3196 3318 3290 3194 3269 3345 3342 3284 3371 3348 3382 3301 3339 3292 3273 3266 3358 3265 3305 3290 3330 3228 3228 3338 3155 3337 3226 3289 3412 3365 3424 3237 3332 3279 3360 3262 3216 3229 3210 3293 3336 3230 3214 3241 3301 3222 3275 3216 3302 3226 3237 3197 3304 3275 3246 3268 3222 3130 3293 3271 3298 3256 3283 3114 3225 3276 3176 3279 3191 3230 3173 3314 3222 3218 3158 3144 3211 3257 3241 3272 3088 3210 3296 3148 3142 3196 3109 3230 3178 3140 3151 3218 3082 3260 3307 3189 3198 3228 3174 3141 3152 3309 3194 3218 3163 3167 3156 3240 3078 3181 3291 3161 3094 3227 3297 3188 3224 3126 3126 3225 3179 3131 3260 3149 3227 3226 3055 3155 3198 3135 3200 3168 3136 3160 3137 3114 3209 3199 3162 3134 3142 3242 3287 3263 3143 3141 3221 3111 3168 3127 3235 3155 3112 3166 3108 3106 3279 3148 3266 3141 3336 3234 3114 3157 3148 3157 3084 3150 3218 3060 3093 3051 3140 3114 2979 3111 3137 3124 3094 3145 3087 3145 3182 3167 3158 3177 3095 3197 3139 3176 3072 3034 3165 3172 3054 2947 3224 3060 3115 3171 3168 3213 3108 3128 3139 3136 3131 3107 3190 3128 3046 3118 3013 3076 3055 2991 3076 3064 3065 3200 3062 3081 3022 3137 3049 3074 3110 3028 3133 3055 3079 3030 3100 3067 3183 3008 3028 3103 3079 3065 3106 3078 2973 2995 3034 3079 3042 3027 3074 3019 3018 3120 3049 3078 3067 3125 3034 3037 2977 2968 3096 2951 2946 3035 3044 3073 3031 2943 3070 2995 3044 3015 3075 3029 2950 2917 3073 2962 3111 2931 3045 3009 3006 3060 2952 3173 3124 2938 3065 2998 3055 2968 2967 2911 3065 2970 3040 3043 2946 2990 3101 2984 3044 3079 3047 2942 2939 3105 2971 3084 2942 2977 2853 2926 3022 2971 3073 3021 3021 2965 2982 2965 3010 3027 3014 3042 3068 2976 3047 2951 2921 3112 2949 2840 3025 2946 2865 2921 2921 2910 2966 2946 2994 2899 2987 2986 2986 2848 2853 2838 2917 2891 2911 2917 2953 2946 2963 3056 2941 2901 2947 2978 2962 2983 2850 2955 3036 2989 2924 2935 2884 3033 2880 2927 3013 2945 2936 2920 2993 3033 3052 2915 2953 3010 3023 2962 2963 3038 2913 3006 3064 2936 2943 2937 3013 3092 2962 3044 2918 2924 2947 2955 2929 3012 2848 3085 2906 2997 2832 3029 3015 3000 2958 2939 2971 3001 2914 3003 2954 2944 3007 2991 2867 2985 2966 2983 2955 2957 2935 2963 2903 2910 2924 2979 2979 2971 2990 2942 3009 3094 3070 2962 2984 2920 2912 2923 2946 3045 3009 2903 3005 3007 2999 2941 3000 3031 3083 3076 2977 2953 2944 2928 3009 2868 2996 2882 3004 2957 2968 3020 2991 2962 2936 2968 2907 2997 2943 2961 3057 2967 2954 2937 2988 2976 2835 2826 3070 2917 3032 2915 2984 2929 2974 2882 2956 2898 2931 2890 3000 2929 2956 2994 2885 2952 2937 2996 2941 2793 2975 2758 2856 2937 2831 2818 2910 2896 2863 2996 2871 2941 2845 2838 2977 2948 2952 2925 2889 2825 2869 2812 2937 2751 3045 2840 2841 2860 2869 2803 2860 2807 2756 2837 2886 2954 2722 2926 2803 2892 2746 2767 2875 2938 2833 2888 2814 2816 2803 2901 2861 2800 2917 2753 2746 2777 2763 2719 2847 2757 2797 2802 2812 2750 2861 2718 2836 2769 2725 2711 2780 2708 2591 2737 2800 2672 2710 2734 2726 2639 2685 2659 2745 2638 2638 2681 2609 2680 2624 2662 2651 2686 2660 2695 2583 2800 2546 2582 2629 2520 2619 2541 2624 2582 2614 2572 2657 2557 2582 2592 2619 2609 2683 2698 2599 2549 2569 2601 2594 2512 2541 2594 2513 2475 2465 2575 2532 2497 2530 2560 2495 2509 2483 2488 2535 2600 2464 2544 2544 2517 2538 2465 2508 2495 2540 2499 2527 2531 2612 2535 2566 2428 2542 2596 2485 2506 2569 2526 2516 2445 2490 2599 2491 2511 2451 2536 2456 2408 2450 2446 2380 2520 2444 2486 2437 2453 2505 2429 2404 2426 2477 2459 2476 2379 2421 2439 2452 2443 2474 2499 2518 2395 2438 2449 2461 2396 2401 2443 2513 2375 2414 2403 2483 2421 2400 2317 2317 2500 2450 2363 2473 2341 2435 2437 2323 2410 2380 2397 2429 2350 2404 2430 2403 2496 2359 2393 2447 2404 2494 2430 2418 2314 2301 2409 2377 2451 2343 2312 2346 2420 2370 2285 2335 2522 2465 2568 2385 2505 2419 2521 2435 2376 2432 2346 2371 2474 2473 2561 2477 2520 2421 2533 2346 2402 2590 2499 2429 2501 2550 2546 2437 2603 2420 2558 2520 2540 2580 2496 2467 2543 2496 2499 2452 2433 2462 2383 2574 2415 2372 2443 2467 2507 2403 2452 2367 2388 2515 2286 2374 2443 2420 2424 2455 2432 2538 2414 2433 2494 2477 2425 2384 2405 2487 2440 2399 2427 2450 2360 2468 2515 2346 2381 2396 2418 2411 2389 2476 2426 2443 2467 2382 2425 2482 2468 2484 2364 2440 2478 2326 2452 2385 2457 2446 2410 2478 2432 2437 2337 2464 2414 2390 2427 2442 2471 2497 2478 2453 2478 2374 2430 2455 2421 2426 2379 2374 2378 2453 2376 2417 2468 2336 2404 2375 2428 2446 2387 2354 2335 2412 2438 2430 2482 2412 2392 2351 2327 2459 2358 2405 2357 2305 2315 2388 2430 2374 2404 2378 2396 2403 2324 2408 2333 2273 2412 2460 2413 2429 2376 2442 2281 2365 2403 2281 2430 2452 2331 2373 2360 2397 2396 2363 2387 2400 2453 2368 2361 2537 2419 2497 2459 2425 2472 2498 2473 2386 2604 2544 2430 2543 2504 2565 2589 2614 2565 2547 2606 2614 2660 2576 2587 2502 2627 2459 2416 2418 2498 2458 2367 2424 2344 2298 2296 2319 2321 2269 2290 2286 2248 2309 2178 2279 2256 2313 2235 2300 2233 2190 2198 2220 2154 2155 2194 2287 2116 2170 2191 2259 2242 2132 2164 2180 2241 2259 2205 2238 2142 2115 2197 2241 2216 2217 2214 2167 2199 2309 2188 2288 2230 2276 2312 2222 2303 2384 2352 2360 2258 2341 2407 2453 2444 2497 2490 2582 2561 2588 2670 2760 2704 2727 2733 2716 2855 2956 2958 2875 3002 2939 2987 3009 3153 3125 3118 3056 2958 2955 2791 2831 2720 2603 2612 2622 2496 2564 2380 2421 2317 2214 2389 2324 2379 2306 2235 2251 2368 2284 2372 2333 2313 2415 2236 2296 2262 2308 2340 2305 2333 2288 2174 2258 2186 2239 2175 2165 2206 2092 2192 2115 2188 2083 2145 2119 2058 2123 2136 2075 2162 1986 2105 2065 2053 2103 2189 2050 2009 2050 2075 2100 2022 2067 2054 2144 1961 2110 2120 2167 2191 2238 2087 2095 2117 2153 2179 2193 2180 2180 2341 2365 2389 2379 2391 2441 2600 2544 2605 2629 2810 2776 2751 2877 2944 3005 3147 3257 3261 3440 3323 3417 3939 3765 3892 3944 4173 4434 4374 4497 4492 4642 4692 4540 4554 4439 4207 4259 4106 4065 3981 3823 3578 3464 3290 3232 3144 3058 3019 3000 2773 2865 2929 2879 2841 2717 2716 2704 2619 2568 2648 2529 2562 2573 2641 2556 2602 2539 2572 2536 2512 2670 2705 2720 2635 2720 2734 2807 2895 2899 2950 2901 3075 3098 3143 3040 3140 3316 3175 3183 3301 3242 3037 3144 2992 2994 2772 2803 2640 2717 2592 2489 2416 2387 2329 2249 2207 2162 2178 2055 2229 2137 2089 2117 2170 2052 2149 2041 2110 2188 2076 2066 2086 2019 2131 2043 1983 2011 2053 2092 2102 2225 2112 2029 2247 2109 2083 2119 2137 2088 2122 2149 2182 2186 2199 2227 2179 2207 2313 2221 2248 2292 2251 2297 2337 2350 2204 2273 2318 2283 2176 2192 2217 2194 2215 2218 2148 2111 2092 2086 2130 2117 2062 2035 2114 2092 2053 2085 2072 2006 2071 2058 2096 2044 2019 2072 2067 2035 1988 2028 1978 1914 2002 2024 2021 1977 1893 1804 1878 1880 1940 1838 1951 1897 1830 1867 1922 1952 1954 1867 1909 1895 1901 1810 1870 1941 1890 1761 1791 1933 1916 1871 1891 1806 1876 1881 1950 1858 1835 1833 1918 1931 1892 1871 1877 1814 1886 1937 1899 1954 1974 1922 1963 1930 1961 2015 1928 1972 1985 1977 1999 2016 1946 2186 2149 2009 2118 2158 2162 2173 2160 2187 2116 2158 2079 2130 2036 2079 2100 2008 2042 1987 1985 1937 1933 1886 1908 1954 1861 1848 1867 1808 1839 1746 1798 1853 1734 1767 1736 1760 1785 1769 1805 1788 1858 1819 1860 1778 1687 1702 1815 1801 1797 1647 1766 1727 1805 1686 1768 1810 1701 1721 1731 1716 1739 1757 1767 1727 1694 1762 1812 1731 1789 1730 1761 1749 1725 1769 1726 1717 1810 1750 1787 1771 1760 1771 1734 1764 1700 1817 1765 1825 1738 1826 1764 1748 1812 1776 1773 1731 1816 1679 1716 1788 1744 1748 1754 1730 1756 1804 1816 1773 1768 1794 1788 1696 1724 1692 1797 1814 1760 1759 1760 1739 1770 1838 1758 1807 1710 1780 1849 1848 1893 1814 1752 1877 1802 1822 1813 1801 1884 1858 1869 1813 1803 1940 1952 1941 2046 1917 1959 1979 1961 2052 1987 2020 2082 2043 2076 1990 2042 2051 2033 2055 2023 2101 2094 1948 2090 2113 2159 2122 2209 2168 2235 2287 2293 2303 2346 2438 2538 2513 2708 2792 2814 2929 2967 3166 3293 3363 3492 3680 3676 3968 4054 4316 4237 4646 4947 5119 5273 5539 5793 5940 6350 6521 6758 7183 7214 7659 7686 7846 8147 8037 7799 7679 7431 6949 6695 6371 6180 5830 5427 5134 4942 4577 4259 3835 3623 3339 3260 3142 2992 2878 2878 2735 2680 2731 2557 2577 2682 2549 2525 2446 2488 2388 2379 2340 2325 2291 2266 2179 2234 2126 2114 2189 2196 2129 2086 2157 2214 2191 2257 2164 2235 2232 2209 2378 2316 2370 2312 2331 2460 2470 2614 2621 2851 2791 2810 2785 2795 2745 2741 2684 2595 2620 2533 2424 2446 2269 2256 2154 2125 2076 2112 2074 1878 1952 1860 1920 1904 1833 1905 1872 1878 1863 1777 1853 1830 1893 1759 1875 1841 1846 1852 1752 1789 1890 1848 1720 1829 1814 1824 1905 1766 1880 1843 1835 1746 1722 1816 1821 1861 1731 1789 1774 1754 1826 1766 1857 1836 1827 1927 1766 1820 1779 1904 1852 1849 1846 1920 1800 1903 1934 1863 1884 1881 1957 1776 1938 1863 1853 1896 1817 1930 1908 1945 1977 1974 1979 2125 1988 2109 1967 2120 2068 2150 2122 2283 2263 2267 2219 2353 2419 2421 2454 2516 2538 2642 2567 2653 2675 2772 2851 2939 2900 3120 3147 3066 3376 3363 3474 3542 3576 3798 3810 3822 3938 4073 4131 4120 4081 4163 4181 4079 4039 3811 3694 3757 3446 3403 3249 3109 3124 2812 2738 2629 2552 2382 2344 2237 2219 2170 2127 2141 2159 2057 2068 1983 2033 1978 2049 1945 1889 1852 1901 1888 1879 1844 1896 1897 1763 1798 1742 1834 1818 1780 1825 1800 1811 1716 1825 1708 1801 1705 1682 1669 1778 1680 1708 1689 1680 1756 1791 1749 1739 1706 1713 1756 1715 1728 1691 1794 1693 1679 1653 1803 1737 1790 1732 1732 1836 1775 1755 1759 1749 1807 1781 1842 1750 1800 1767 1719 1738 1872 1755 1719 1775 1699 1763 1778 1726 1813 1706 1655 1761 1717 1738 1765 1717 1660 1737 1731 1624 1628 1696 1659 1687 1695 1664 1718 1685 1714 1669 1720 1724 1651 1753 1688 1635 1636 1680 1624 1670 1687 1690 1644 1723 1673 1784 1741 1707 1790 1729 1721 1709 1760 1681 1706 1745 1696 1842 1791 1781 1751 1712 1743 1721 1725 1725 1724 1684 1775 1733 1738 1661 1731 1827 1729 1697 1735 1665 1810 1780 1710 1695 1711 1689 1737 1742 1738 1651 1660 1792 1666 1781 1631 1669 1691 1715 1617 1732 1684 1690 1657 1661 1657 1598 1605 1617 1680 1616 1676 1568 1589 1570 1632 1550 1592 1612 1642 1618 1611 1598 1580 1519 1548 1545 1671 1608 1595 1613 1574 1585 1631 1632 1607 1601 1566 1590 1646 1595 1650 1660 1582 1557 1633 1600 1593 1594 1580 1625 1594 1544 1567 1563 1546 1579 1542 1601 1581 1591 1568 1612 1571 1617 1588 1627 1599 1576 1589 1596 1576 1647 1524 1549 1567 1580 1676 1644 1562 1584 1597 1631 1611 1654 1591 1695 1654 1639 1553 1666 1582 1603 1654 1650 1636 1681 1630 1708 1731 1708 1744 1688 1741 1705 1757 1812 1867 1774 1873 1835 1867 1855 1872 1858 1882 1917 1899 1919 1888 1838 1826 1838 1815 1833 1790 1719 1736 1862 1792 1739 1659 1672 1641 1690 1659 1636 1643 1632 1625 1733 1629 1672 1585 1710 1684 1742 1592 1603 1570 1559 1544 1620 1635 1596 1609 1600 1611 1548 1536 1602 1539 1492 1649 1621 1643 1564 1541 1534 1615 1547 1523 1590 1619 1573 1597 1610 1568 1645 1618 1608 1627 1575 1588 1560 1565 1700 1578 1602 1645 1656 1693 1671 1585 1623 1724 1639 1720 1676 1687 1680 1639 1649 1764 1635 1636 1557 1716 1701 1606 1700 1643 1633 1675 1614 1591 1611 1638 1586 1590 1560 1520 1567 1584 1555 1619 1603 1515 1530 1575 1477 1553 1520 1626 1591 1551 1598 1600 1587 1541 1553 1611 1547 1535 1485 1504 1599 1563 1585 1561 1494 1536 1595 1550 1533 1582 1552 1616 1525 1602 1554 1595 1595 1597 1536 1589 1604 1537 1556 1538 1521 1554 1603 1549 1520 1628 1598 1670 1642 1591 1576 1640 1626 1637 1602 1558 1599 1631 1557 1611 1628 1602 1571 1607 1525 1558 1560 1560 1561 1574 1570 1520 1535 1490 1546 1539 1557 1535 1553 1530 1586 1546 1508 1580 1550 1507 1562 1520 1551 1576 1550 1558 1559 1521 1549 1522 1542 1540 1537 1530 1561 1556 1592 1508 1576 1441 1471 1536 1500 1487 1532 1502 1573 1590 1487 1558 1503 1555 1457 1486 1494 1571 1535 1520 1560 1566 1503 1581 1554 1505 1556 1544 1488 1498 1436 1513 1483 1526 1547 1547 1510 1423 1571 1521 1513 1533 1553 1525 1535 1544 1478 1414 1477 1496 1586 1524 1568 1582 1561 1535 1529 1551 1523 1593 1550 1507 1549 1479 1470 1483 1567 1488 1482 1565 1490 1557 1488 1541 1491 1479 1487 1561 1612 1510 1478 1493 1570 1594 1500 1561 1591 1524 1479 1469 1568 1509 1496 1537 1537 1514 1616 1504 1485 1509 1501 1517 1468 1531 1596 1474 1577 1595 1556 1544 1504 1562 1562 1514 1603 1566 1555 1632 1623 1623 1561 1677 1556 1617 1669 1637 1583 1704 1596 1657 1608 1729 1579 1682 1638 1582 1662 1666 1784 1693 1710 1612 1738 1613 1665 1706 1666 1680 1675 1642 1580 1583 1633 1636 1642 1600 1538 1563 1574 1597 1543 1488 1521 1537 1590 1558 1558 1518 1504 1636 1479 1561 1501 1555 1536 1507 1513 1601 1568 1559 1541 1616 1559 1619 1529 1539 1589 1563 1641 1563 1633 1637 1650 1641 1592 1655 1656 1617 1607 1669 1580 1647 1683 1617 1599 1614 1667 1605 1603 1645 1620 1697 1623 1584 1616 1644 1630 1605 1555 1540 1655 1614 1583 1629 1561 1590 1602 1604 1663 1678 1633 1690 1703 1699 1734 1706 1607 1645 1768 1709 1752 1775 1806 1789 1767 1745 1882 1831 1878 1879 1822 1945 1979 2036 1942 2010 2103 2077 2251 2119 2145 2291 2146 2124 2177 2093 2084 2075 1940 2090 2012 1970 1934 1956 1815 1813 1778 1706 1683 1648 1675 1665 1641 1648 1618 1565 1583 1581 1498 1545 1633 1567 1594 1571 1539 1602 1502 1548 1594 1560 1557 1530 1545 1510 1610 1454 1457 1538 1621 1550 1562 1504 1598 1523 1540 1552 1518 1520 1472 1525 1500 1508 1489 1547 1535 1481 1473 1483 1559 1494 1494 1490 1551 1470 1487 1495 1494 1507 1589 1550 1535 1502 1509 1534 1525 1551 1510 1538 1543 1548 1558 1670 1583 1547 1570 1570 1610 1480 1535 1525 1518 1554 1524 1519 1571 1532 1516 1539 1567 1495 1519 1538 1504 1533 1590 1516 1520 1505 1524 1500 1476 1532 1450 1493 1555 1565 1510 1524 1454 1574 1508 1531 1522 1495 1508 1481 1505 1518 1608 1604 1530 1548 1481 1460 1543 1565 1517 1564 1552 1584 1493 1451 1491 1432 1532 1533 1594 1427 1555 1565 1561 1522 1464 1567 1541 1486 1504 1536 1511 1543 1489 1507 1493 1528 1523 1507 1605 1456 1541 1488 1490 1576 1611 1510 1511 1467 1513 1538 1554 1586 1540 1529 1578 1530 1535 1539 1545 1602 1533 1549 1560 1678 1609 1629 1600 1645 1607 1600 1584 1626 1695 1636 1720 1695 1679 1602 1674 1675 1653 1693 1744 1771 1685 1727 1819 1766 1789 1746 1797 1766 1744 1832 1834 1812 1873 1749 1787 1829 1876 1918 1826 1934 1943 1979 1903 2003 2004 1997 1958 1970 1974 1883 1884 1840 1857 1811 1824 1788 1812 1770 1688 1742 1651 1638 1696 1646 1598 1626 1601 1636 1568 1567 1537 1585 1548 1583 1587 1574 1580 1551 1548 1534 1560 1527 1545 1532 1571 1544 1436 1585 1509 1599 1498 1539 1531 1492 1565 1537 1515 1531 1520 1563 1543 1497 1579 1501 1527 1531 1583 1548 1517 1508 1520 1559 1563 1496 1525 1555 1558 1557 1595 1588 1507 1568 1525 1537 1542 1620 1551 1524 1573 1532 1633 1632 1613 1634 1638 1641 1590 1648 1601 1615 1650 1712 1589 1694 1682 1580 1757 1649 1717 1779 1771 1865 1750 1857 1906 1896 1921 1872 2047 2047 2150 2158 2137 2265 2333 2350 2366 2410 2578 2636 2832 2852 3079 3154 3325 3466 3651 3694 4024 4184 4386 4547 4864 5100 5195 5340 5506 5437 5435 5157 5173 4905 4600 4568 4371 4275 4067 3947 3737 3557 3576 3373 3208 3103 2836 2655 2555 2514 2377 2407 2226 2107 2110 1990 1985 1975 1908 1936 1858 1873 1768 1761 1802 1783 1722 1687 1709 1695 1661 1651 1645 1566 1659 1634 1620 1578 1596 1587 1593 1643 1598 1545 1523 1596 1495 1576 1606 1495 1647 1594 1528 1613 1592 1560 1593 1548 1618 1590 1558 1599 1639 1559 1609 1652 1554 1685 1683 1560 1659 1637 1627 1597 1684 1699 1744 1733 1678 1766 1782 1811 1777 1824 1808 1917 1891 1863 1868 1900 1829 1921 1842 1835 1803 1770 1793 1828 1798 1808 1780 1859 1666 1758 1769 1667 1678 1609 1706 1600 1612 1540 1588 1557 1502 1643 1585 1535 1587 1562 1539 1539 1500 1487 1488 1496 1541 1442 1552 1555 1460 1506 1568 1536 1550 1505 1594 1505 1559 1491 1497 1488 1494 1559 1465 1515 1460 1506 1475 1502 1541 1547 1539 1482 1568 1547 1485 1481 1463 1530 1522 1471 1529 1493 1455 1477 1470 1540 1568 1555 1556 1449 1544 1565 1549 1533 1535 1462 1533 1484 1514 1655 1563 1591 1588 1633 1620 1619 1635 1638 1602 1620 1646 1636 1616 1693 1669 1722 1693 1704 1760 1777 1795 1876 1852 1890 1925 1894 1953 1857 1871 1897 1882 1917 1972 1941 1928 1800 1811 1891 1922 1898 1868 1844 1872 1872 1746 1848 1811 1789 1842 1819 1776 1724 1785 1854 1798 1820 1958 1899 1924 1887 1909 2011 2076 2029 2123 2209 2143 2118 2221 2302 2301 2393 2308 2422 2523 2411 2336 2350 2397 2311 2392 2273 2266 2248 2223 2156 2139 2112 2085 2102 2002 2005 1965 1910 1871 1904 1858 1790 1794 1819 1827 1837 1771 1811 1747 1775 1718 1780 1798 1727 1750 1796 1853 1859 1760 1892 1890 1889 1945 1956 1961 1947 2036 2049 1966 2167 2130 2154 2166 2221 2255 2331 2438 2428 2393 2495 2337 2403 2325 2328 2299 2212 2109 2138 2148 1996 2026 2035 1980 2016 1879 1836 1877 1831 1792 1674 1598 1722 1649 1649 1581 1588 1528 1603 1578 1557 1501 1473 1510 1482 1558 1446 1570 1522 1521 1488 1505 1508 1470 1484 1599 1476 1432 1527 1543 1436 1521 1436 1473 1451 1421 1489 1517 1476 1415 1496 1503 1487 1462 1456 1502 1488 1474 1526 1429 1488 1510 1488 1440 1452 1482 1449 1531 1436 1478 1455 1511 1547 1462 1444 1449 1399 1504 1474 1510 1463 1486 1447 1522 1451 1500 1485 1495 1491 1450 1506 1469 1414 1417 1452 1500 1364 1475 1475 1505 1495 1458 1533 1456 1405 1411 1462 1466 1438 1392 1436 1457 1487 1503 1496 1365 1423 1472 1466 1438 1392 1465 1347 1414 1489 1416 1521 1439 1445 1482 1463 1440 1444 1427 1465 1453 1352 1415 1365 1450 1492 1498 1432 1401 1507 1446 1448 1457 1468 1403 1436 1466 1496 1425 1444 1408 1441 1447 1458 1446 1497 1443 1424 1468 1441 1451 1493 1539 1437 1437 1526 1442 1453 1534 1489 1497 1441 1572 1565 1537 1522 1510 1436 1505 1471 1589 1443 1608 1559 1560 1622 1608 1524 1585 1527 1649 1565 1625 1564 1626 1595 1640 1631 1670 1588 1594 1675 1601 1603 1670 1776 1711 1660 1787 1789 1804 1852 1855 1865 1943 1898 1890 1907 1921 1891 1903 1821 1785 1850 1817 1827 1785 1773 1754 1844 1728 1772 1735 1734 1647 1716 1644 1636 1693 1552 1600 1549 1529 1532 1469 1616 1554 1483 1518 1468 1564 1459 1473 1536 1514 1523 1484 1434 1468 1429 1460 1455 1522 1441 1488 1358 1429 1467 1473 1436 1470 1411 1455 1461 1413 1440 1333 1446 1505 1468 1384 1400 1413 1442 1419 1500 1451 1475 1439 1444 1526 1413 1440 1396 1464 1461 1439 1522 1418 1513 1511 1526 1458 1471 1433 1542 1435 1489 1489 1429 1450 1408 1500 1435 1458 1469 1512 1344 1413 1462 1387 1403 1417 1484 1421 1485 1464 1312 1480 1418 1360 1453 1461 1396 1432 1415 1431 1399 1393 1470 1449 1432 1458 1431 1414 1475 1466 1398 1464 1405 1392 1449 1466 1475 1458 1449 1430 1459 1438 1450 1490 1417 1465 1472 1498 1495 1471 1535 1501 1526 1538 1501 1526 1520 1519 1534 1463 1557 1536 1582 1513 1509 1460 1515 1540 1507 1503 1534 1475 1512 1507 1511 1496 1509 1485 1511 1488 1501 1474 1481 1422 1533 1508 1426 1535 1471 1461 1409 1485 1418 1405 1384 1456 1460 1507 1509 1456 1489 1495 1472 1481 1376 1449 1462 1459 1417 1506 1428 1492 1535 1471 1536 1465 1502 1582 1539 1488 1593 1555 1546 1490 1521 1468 1395 1507 1510 1525 1547 1515 1569 1500 1516 1448 1462 1450 1440 1533 1477 1516 1430 1410 1480 1488 1432 1532 1481 1419 1466 1404 1492 1421 1466 1494 1444 1454 1408 1500 1421 1543 1490 1586 1433 1547 1549 1520 1571 1551 1650 1582 1605 1617 1649 1723 1673 1748 1748 1837 1842 1872 1869 1918 1994 1888 1945 1936 1877 1912 1871 1795 1853 1806 1724 1758 1705 1788 1704 1711 1713 1674 1654 1675 1681 1583 1584 1585 1538 1616 1603 1517 1477 1578 1469 1531 1520 1481 1524 1521 1531 1452 1463 1505 1552 1437 1473 1449 1510 1527 1517 1537 1553 1483 1516 1570 1561 1564 1520 1500 1540 1554 1535 1531 1521 1483 1578 1537 1542 1501 1516 1426 1529 1499 1549 1493 1477 1464 1555 1441 1447 1448 1507 1493 1438 1516 1449 1498 1375 1399 1450 1481 1463 1451 1494 1392 1521 1517 1463 1421 1399 1472 1515 1432 1508 1450 1466 1441 1453 1459 1481 1463 1505 1577 1505 1513 1474 1565 1494 1569 1641 1604 1555 1582 1577 1553 1599 1563 1592 1589 1700 1543 1603 1590 1532 1503 1533 1627 1546 1520 1504 1493 1500 1513 1623 1564 1548 1479 1523 1507 1488 1412 1434 1496 1468 1510 1411 1471 1443 1464 1439 1500 1448 1533 1480 1468 1438 1492 1488 1469 1476 1520 1483 1458 1597 1502 1432 1428 1498 1493 1396 1444 1538 1518 1444 1460 1477 1490 1471 1349 1435 1429 1427 1472 1417 1331 1385 1407 1414 1414 1410 1426 1453 1394 1325 1410 1369 1431 1416 1383 1402 1507 1399 1391 1436 1386 1426 1443 1476 1463 1406 1480 1483 1390 1472 1502 1412 1515 1499 1512 1488 1551 1532 1590 1596 1569 1530 1587 1547 1567 1644 1555 1647 1580 1582 1602 1548 1602 1609 1683 1728 1703 1706 1724 1781 1819 1853 1900 1932 2012 2096 2101 2246 2197 2290 2360 2393 2448 2419 2471 2293 2295 2294 2219 2161 2081 2129 2029 2054 2037 1971 2045 1946 1958 1956 1848 1912 1919 1805 1825 1792 1768 1702 1630 1699 1651 1625 1665 1588 1643 1479 1655 1547 1542 1503 1528 1537 1545 1578 1544 1638 1468 1591 1450 1498 1459 1517 1539 1492 1479 1388 1482 1455 1465 1490 1508 1501 1507 1530 1499 1569 1545 1476 1583 1459 1582 1480 1496 1486 1400 1504 1431 1469 1402 1446 1527 1392 1464 1515 1468 1450 1511 1513 1449 1432 1510 1444 1495 1426 1442 1508 1448 1549 1453 1446 1495 1421 1349 1436 1434 1478 1413 1488 1475 1478 1477 1542 1459 1568 1508 1451 1483 1502 1523 1563 1495 1489 1577 1443 1491 1512 1546 1536 1500 1463 1495 1466 1453 1409 1503 1426 1540 1504 1502 1432 1515 1525 1403 1440 1450 1461 1392 1405 1467 1443 1458 1436 1397 1418 1428 1387 1443 1459 1378 1450 1425 1410 1419 1425 1474 1354 1439 1422 1364 1376 1474 1409 1402 1434 1387 1499 1453 1473 1478 1487 1457 1418 1499 1433 1486 1570 1501 1491 1601 1584 1492 1580 1561 1605 1558 1611 1571 1610 1596 1630 1609 1535 1509 1507 1468 1496 1509 1518 1465 1570 1519 1519 1445 1519 1532 1540 1458 1458 1537 1465 1475 1434 1419 1483 1442 1464 1461 1375 1452 1437 1418 1410 1432 1483 1385 1398 1335 1428 1418 1391 1432 1325 1411 1415 1445 1381 1386 1416 1360 1385 1411 1404 1337 1463 1330 1366 1401 1382 1405 1340 1397 1376 1442 1389 1445 1474 1463 1372 1416 1395 1392 1361 1383 1396 1330 1386 1352 1380 1377 1421 1471 1391 1440 1375 1327 1464 1432 1485 1383 1466 1390 1483 1496 1518 1483 1518 1488 1443 1437 1570 1555 1612 1617 1621 1580 1726 1656 1680 1734 1708 1771 1751 1678 1683 1641 1593 1678 1671 1614 1562 1628 1591 1552 1651 1556 1546 1582 1567 1582 1496 1499 1538 1523 1492 1441 1399 1500 1416 1512 1492 1501 1433 1504 1415 1394 1415 1453 1414 1398 1377 1423 1442 1430 1394 1331 1418 1414 1363 1446 1349 1464 1405 1409 1369 1408 1372 1395 1398 1418 1440 1420 1476 1413 1468 1397 1390 1334 1475 1390 1358 1409 1460 1452 1513 1486 1442 1466 1433 1382 1431 1421 1442 1481 1508 1419 1387 1422 1455 1465 1526 1521 1476 1487 1529 1494 1574 1540 1604 1573 1546 1657 1641 1731 1666 1680 1676 1607 1648 1680 1738 1590 1621 1682 1545 1617 1516 1497 1575 1537 1495 1533 1511 1619 1583 1557 1564 1466 1489 1519 1381 1518 1371 1449 1414 1447 1519 1475 1394 1474 1425 1379 1462 1380 1372 1380 1452 1418 1387 1353 1408 1423 1432 1406 1403 1404 1418 1371 1390 1353 1422 1373 1469 1378 1388 1396 1449 1355 1379 1396 1414 1416 1489 1421 1436 1371 1367 1436 1386 1431 1350 1387 1419 1391 1520 1428 1423 1453 1374 1433 1395 1415 1430 1420 1358 1383 1434 1428 1425 1462 1431 1471 1415 1411 1418 1441 1412 1451 1406 1453 1431 1454 1479 1410 1440 1377 1520 1492 1450 1483 1500 1474 1449 1514 1545 1466 1470 1581 1582 1568 1535 1510 1529 1518 1579 1605 1608 1586 1544 1519 1504 1537 1544 1497 1596 1551 1517 1454 1526 1526 1486 1444 1417 1460 1416 1388 1418 1488 1393 1414 1478 1436 1400 1483 1363 1467 1407 1402 1368 1440 1467 1395 1372 1400 1370 1418 1325 1456 1360 1385 1427 1416 1432 1393 1362 1433 1405 1364 1370 1424 1353 1371 1413 1351 1389 1369 1426 1412 1356 1323 1399 1325 1441 1415 1429 1354 1375 1386 1444 1440 1340 1438 1423 1366 1427 1401 1450 1383 1489 1423 1434 1393 1364 1415 1380 1431 1355 1407 1377 1405 1375 1377 1352 1362 1423 1342 1362 1384 1372 1382 1375 1388 1355 1380 1348 1357 1367 1442 1306 1413 1402 1373 1349 1383 1336 1386 1391 1398 1348 1320 1430 1352 1379 1341 1410 1379 1415 1394 1376 1472 1440 1404 1406 1376 1452 1410 1418 1440 1546 1458 1556 1496 1489 1429 1516 1538 1502 1473 1451 1479 1402 1478 1469 1406 1415 1511 1495 1427 1476 1428 1471 1468 1481 1405 1463 1444 1436 1388 1414 1279 1349 1427 1351 1409 1416 1399 1289 1362 1410 1348 1427 1326 1367 1380 1407 1431 1367 1365 1368 1374 1400 1378 1350 1343 1420 1282 1324 1360 1353 1290 1311 1390 1390 1366 1354 1294 1384 1388 1402 1368 1314 1427 1343 1269 1322 1380 1301 1312 1360 1350 1395 1370 1411 1332 1252 1310 1335 1392 1372 1290 1372 1362 1368 1387 1271 1323 1361 1349 1325 1338 1311 1290 1288 1377 1353 1334 1390 1429 1377 1317 1360 1355 1375 1405 1350 1340 1297 1330 1357 1287 1348 1301 1373 1401 1319 1359 1384 1381 1357 1381 1327 1388 1266 1356 1357 1334 1380 1300 1274 1343 1371 1335 1329 1395 1384 1432 1323 1288 1328 1284 1366 1306 1320 1443 1321 1398 1310 1372 1356 1378 1334 1382 1391 1301 1423 1409 1350 1309 1301 1376 1354 1298 1362 1422 1267 1447 1405 1363 1394 1405 1376 1338 1386 1388 1441 1331 1374 1337 1379 1420 1445 1361 1434 1415 1385 1433 1354 1350 1320 1300 1350 1379 1364 1380 1363 1369 1392 1368 1403 1421 1288 1369 1325 1413 1299 1336 1313 1381 1348 1338 1372 1320 1333 1391 1305 1346 1254 1387 1323 1408 1343 1371 1352 1368 1362 1345 1355 1381 1389 1325 1388 1373 1390 1278 1266 1359 1285 1383 1330 1363 1338 1363 1345 1345 1482 1300 1411 1401 1405 1376 1335 1347 1348 1413 1370 1365 1341 1369 1376 1373 1443 1406 1429 1379 1412 1441 1340 1407 1349 1419 1397 1438 1439 1401 1507 1423 1550 1469 1435 1422 1524 1498 1533 1501 1555 1555 1624 1548 1593 1624 1672 1828 1775 1744 1694 1694 1708 1826 1718 1689 1646 1580 1614 1647 1624 1529 1589 1591 1610 1555 1614 1601 1506 1635 1552 1605 1572 1593 1472 1484 1490 1583 1576 1469 1447 1419 1415 1441 1374 1412 1462 1348 1364 1383 1383 1399 1316 1376 1389 1461 1325 1395 1352 1438 1395 1363 1376 1390 1337 1320 1361 1329 1467 1397 1439 1369 1359 1363 1301 1394 1377 1401 1336 1309 1414 1439 1354 1346 1372 1329 1265 1314 1384 1463 1426 1274 1399 1401 1380 1404 1378 1333 1395 1386 1351 1411 1348 1362 1310 1446 1380 1427 1368 1334 1320 1360 1413 1387 1349 1395 1320 1365 1451 1396 1325 1433 1387 1367 1337 1394 1388 1328 1338 1376 1383 1333 1317 1451 1369 1393 1391 1370 1324 1347 1534 1417 1447 1413 1428 1439 1416 1403 1485 1402 1453 1353 1444 1419 1459 1437 1466 1480 1463 1475 1482 1507 1476 1502 1490 1497 1509 1423 1470 1509 1516 1441 1464 1522 1416 1451 1425 1400 1477 1477 1477 1465 1462 1489 1446 1479 1450 1410 1470 1445 1354 1458 1390 1429 1434 1436 1382 1354 1458 1388 1409 1360 1319 1334 1386 1376 1400 1385 1360 1425 1356 1320 1383 1338 1284 1398 1374 1324 1360 1407 1338 1295 1289 1325 1364 1324 1385 1352 1451 1345 1350 1337 1355 1422 1335 1364 1332 1322 1334 1414 1365 1327 1376 1369 1369 1402 1399 1432 1319 1329 1361 1334 1326 1334 1369 1355 1284 1385 1334 1353 1343 1367 1324 1314 1354 1389 1405 1363 1285 1341 1383 1331 1364 1418 1288 1335 1310 1311 1301 1392 1405 1310 1400 1396 1308 1327 1360 1364 1352 1392 1342 1361 1375 1346 1377 1305 1379 1318 1372 1363 1335 1337 1389 1370 1405 1327 1365 1296 1356 1329 1335 1259 1352 1354 1328 1397 1328 1342 1339 1362 1317 1325 1322 1363 1343 1394 1349 1345 1383 1345 1344 1335 1402 1381 1350 1365 1385 1400 1361 1371 1354 1378 1284 1370 1367 1385 1339 1332 1333 1399 1349 1293 1345 1379 1396 1406 1396 1382 1441 1313 1314 1308 1315 1351 1318 1357 1340 1374 1397 1327 1327 1294 1357 1348 1348 1387 1318 1353 1390 1346 1298 1403 1238 1312 1309 1431 1334 1335 1365 1338 1315 1383 1357 1347 1312 1348 1392 1349 1300 1416 1320 1344 1311 1315 1401 1322 1365 1344 1275 1317 1275 1320 1345 1352 1362 1351 1319 1268 1419 1283 1371 1319 1315 1350 1322 1421 1402 1362 1400 1365 1283 1348 1351 1347 1337 1379 1388 1425 1354 1384 1327 1331 1377 1335 1330 1381 1353 1316 1362 1316 1362 1392 1330 1379 1375 1355 1296 1365 1391 1363 1339 1387 1402 1399 1412 1455 1339 1404 1344 1432 1385 1398 1521 1523 1491 1399 1395 1384 1428 1449 1466 1475 1445 1470 1472 1540 1528 1476 1475 1538 1576 1462 1498 1489 1531 1434 1480 1449 1463 1482 1519 1368 1471 1456 1469 1438 1521 1445 1462 1478 1446 1467 1458 1433 1466 1362 1552 1445 1457 1421 1407 1419 1446 1383 1438 1402 1494 1421 1401 1343 1457 1460 1353 1416 1452 1392 1439 1423 1409 1368 1412 1353 1387 1426 1423 1405 1386 1297 1408 1372 1375 1401 1394 1405 1354 1371 1282 1368 1314 1305 1306 1381 1338 1320 1365 1365 1315 1413 1357 1378 1356 1350 1329 1328 1344 1316 1408 1389 1315 1389 1345 1315 1377 1365 1318 1340 1333 1412 1364 1361 1328 1438 1361 1310 1364 1353 1277 1385 1304 1344 1330 1380 1290 1354 1343 1329 1359 1337 1375 1309 1396 1282 1370 1374 1387 1383 1332 1343 1352 1413 1395 1369 1376 1313 1360 1315 1328 1361 1347 1424 1281 1344 1350 1378 1377 1297 1389 1379 1352 1419 1385 1416 1435 1357 1412 1403 1459 1433 1417 1384 1467 1417 1455 1427 1524 1561 1431 1397 1453 1482 1384 1502 1360 1376 1378 1422 1419 1421 1341 1422 1359 1404 1395 1433 1402 1369 1380 1437 1455 1407 1461 1448 1371 1373 1418 1453 1468 1347 1404 1381 1379 1404 1407 1403 1372 1371 1369 1482 1405 1434 1450 1413 1437 1482 1454 1472 1395 1499 1514 1498 1608 1522 1533 1493 1502 1523 1474 1509 1516 1502 1476 1486 1459 1482 1468 1440 1438 1499 1432 1440 1355 1509 1435 1470 1502 1466 1468 1433 1436 1499 1441 1422 1411 1382 1378 1440 1456 1389 1328 1260 1363 1347 1361 1366 1396 1386 1371 1391 1390 1348 1333 1435 1400 1311 1352 1326 1416 1394 1389 1314 1407 1378 1345 1342 1345 1386 1357 1400 1339 1347 1362 1333 1374 1327 1426 1363 1343 1384 1350 1371 1343 1354 1372 1382 1356 1403 1302 1345 1326 1342 1353 1405 1328 1404 1362 1405 1378 1396 1353 1319 1283 1369 1364 1374 1395 1346 1346 1399 1321 1397 1354 1409 1386 1378 1368 1398 1380 1446 1379 1410 1434 1389 1347 1346 1363 1397 1411 1339 1412 1353 1286 1417 1347 1363 1392 1386 1356 1386 1392 1420 1265 1378 1333 1410 1370 1426 1397 1428 1399 1400 1393 1364 1412 1422 1402 1437 1418 1365 1376 1384 1369 1363 1412 1463 1369 1367 1390 1407 1396 1418 1439 1405 1476 1436 1404 1432 1509 1428 1498 1509 1425 1455 1471 1503 1403 1402 1389 1463 1519 1480 1464 1420 1384 1488 1518 1493 1421 1465 1471 1457 1526 1529 1447 1551 1522 1471 1505 1548 1510 1544 1491 1568 1562 1587 1569 1589 1664 1635 1638 1692 1671 1783 1777 1819 1950 1985 1955 2021 2056 2132 2215 2173 2169 2196 2173 2166 2132 2100 2060 1906 1961 1905 1813 1830 1791 1786 1798 1737 1806 1852 1684 1867 1857 1873 1947 1864 1806 1827 1793 1730 1703 1709 1619 1634 1625 1606 1565 1623 1565 1465 1538 1470 1451 1460 1481 1440 1447 1374 1493 1438 1424 1469 1398 1462 1448 1424 1378 1397 1395 1384 1379 1380 1414 1462 1408 1331 1421 1373 1383 1409 1390 1377 1402 1412 1441 1355 1432 1360 1397 1389 1389 1401 1483 1433 1392 1352 1412 1361 1426 1363 1457 1383 1305 1355 1359 1289 1401 1402 1422 1361 1398 1374 1380 1352 1342 1405 1418 1438 1373 1460 1440 1425 1385 1376 1531 1413 1435 1454 1463 1463 1447 1364 1478 1447 1385 1418 1456 1465 1428 1435 1455 1393 1520 1493 1442 1461 1424 1431 1419 1499 1498 1464 1463 1468 1472 1439 1482 1469 1507 1495 1416 1484 1501 1455 1502 1452 1410 1488 1436 1442 1422 1406 1425 1411 1520 1484 1541 1471 1509 1446 1456 1501 1465 1528 1501 1567 1503 1487 1472 1474 1514 1556 1483 1510 1436 1549 1461 1503 1506 1443 1509 1510 1491 1539 1516 1487 1532 1434 1533 1494 1446 1594 1439 1449 1491 1514 1421 1445 1478 1419 1422 1382 1406 1519 1373 1467 1509 1494 1371 1408 1438 1438 1455 1453 1404 1403 1353 1450 1436 1358 1428 1399 1360 1417 1345 1484 1384 1323 1437 1382 1365 1348 1395 1375 1366 1348 1342 1380 1416 1387 1339 1322 1384 1322 1353 1304 1422 1411 1321 1467 1288 1351 1376 1313 1399 1413 1352 1376 1361 1412 1422 1370 1364 1300 1354 1399 1396 1347 1388 1448 1327 1439 1423 1353 1388 1364 1421 1410 1330 1414 1377 1422 1354 1346 1380 1419 1345 1275 1363 1348 1382 1365 1411 1455 1365 1431 1440 1361 1401 1403 1391 1402 1415 1356 1403 1357 1407 1406 1388 1378 1442 1416 1385 1376 1384 1337 1377 1394 1412 1414 1355 1428 1383 1368 1392 1318 1438 1453 1412 1333 1396 1378 1461 1388 1348 1420 1407 1384 1344 1351 1359 1401 1357 1395 1388 1319 1363 1435 1353 1318 1348 1375 1350 1394 1339 1370 1339 1329 1374 1392 1410 1306 1341 1378 1380 1377 1373 1406 1338 1399 1422 1338 1428 1370 1356 1409 1375 1411 1379 1345 1337 1418 1397 1418 1329 1394 1394 1463 1412 1389 1319 1384 1395 1369 1316 1291 1288 1402 1376 1303 1374 1371 1393 1334 1424 1364 1380 1322 1433 1376 1287 1438 1348 1358 1338 1375 1387 1326 1362 1409 1429 1320 1394 1409 1378 1367 1411 1326 1353 1365 1347 1371 1369 1367 1293 1347 1412 1395 1394 1331 1436 1393 1326 1373 1390 1351 1369 1357 1403 1394 1415 1394 1393 1342 1335 1429 1431 1347 1451 1364 1399 1360 1388 1413 1398 1344 1411 1361 1457 1369 1400 1439 1318 1382 1397 1345 1343 1355 1351 1383 1450 1387 1351 1514 1428 1350 1410 1440 1427 1452 1441 1445 1437 1399 1367 1428 1460 1419 1428 1514 1383 1494 1421 1449 1476 1478 1472 1491 1447 1461 1473 1455 1480 1576 1520 1544 1567 1555 1665 1592 1622 1643 1632 1551 1620 1563 1534 1511 1582 1564 1559 1583 1476 1521 1544 1521 1543 1465 1514 1497 1541 1501 1574 1517 1509 1549 1504 1534 1495 1442 1479 1506 1424 1469 1461 1462 1422 1430 1417 1419 1453 1397 1468 1409 1432 1433 1478 1428 1387 1468 1418 1374 1381 1412 1374 1424 1481 1343 1435 1382 1457 1418 1396 1405 1378 1421 1354 1410 1492 1366 1443 1440 1409 1392 1425 1457 1503 1547 1389 1435 1432 1497 1464 1510 1494 1496 1517 1591 1528 1531 1591 1547 1668 1596 1590 1721 1637 1680 1515 1621 1636 1612 1619 1597 1550 1541 1512 1539 1485 1496 1498 1523 1500 1482 1516 1503 1517 1516 1420 1555 1528 1444 1436 1565 1509 1518 1522 1503 1467 1503 1465 1439 1415 1471 1477 1401 1404 1453 1437 1374 1472 1487 1362 1413 1462 1409 1376 1418 1416 1450 1460 1389 1379 1381 1410 1428 1396 1384 1367 1334 1426 1363 1382 1445 1343 1418 1379 1348 1423 1341 1422 1403 1467 1397 1342 1398 1414 1376 1416 1439 1435 1454 1418 1410 1499 1413 1410 1457 1385 1382 1364 1394 1356 1431 1365 1403 1359 1407 1368 1417 1320 1416 1319 1363 1363 1410 1453 1420 1394 1381 1384 1330 1379 1462 1408 1428 1444 1336 1379 1415 1454 1361 1393 1393 1321 1441 1352 1442 1462 1355 1413 1340 1382 1413 1436 1457 1382 1376 1320 1387 1375 1422 1372 1308 1373 1392 1379 1373 1449 1389 1359 1391 1370 1441 1348 1313 1344 1287 1361 1427 1323 1456 1376 1362 1370 1368 1333 1441 1385 1373 1356 1336 1325 1428 1396 1394 1365 1329 1339 1340 1374 1323 1385 1376 1438 1396 1384 1405 1392 1388 1365 1365 1422 1297 1410 1335 1331 1525 1334 1440 1342 1368 1374 1309 1440 1377 1401 1384 1310 1385 1343 1398 1382 1347 1384 1438 1274 1365 1392 1312 1417 1423 1376 1427 1377 1329 1389 1391 1419 1389 1404 1381 1493 1396 1462 1378 1472 1471 1375 1435 1377 1369 1449 1375 1460 1389 1384 1373 1503 1467 1406 1450 1429 1432 1524 1474 1499 1503 1505 1557 1564 1528 1527 1574 1664 1603 1576 1561 1617 1659 1674 1702 1736 1787 1826 1990 1829 1864 1927 1971 1957 1926 1983 2003 1931 1864 1954 1840 1828 1770 1635 1811 1666 1653 1585 1618 1689 1697 1688 1624 1590 1660 1620 1699 1634 1711 1707 1703 1747 1734 1754 1669 1753 1691 1601 1602 1580 1522 1514 1495 1448 1518 1431 1445 1451 1436 1460 1442 1458 1359 1435 1390 1336 1361 1414 1445 1405 1500 1322 1424 1334 1375 1384 1395 1384 1404 1377 1394 1415 1467 1375 1371 1414 1458 1360 1371 1420 1394 1394 1420 1432 1424 1381 1358 1417 1388 1422 1474 1415 1376 1347 1393 1403 1379 1450 1419 1342 1373 1385 1409 1282 1378 1397 1361 1345 1415 1280 1390 1345 1395 1431 1413 1385 1414 1440 1422 1384 1409 1421 1349 1400 1411 1352 1435 1408 1402 1359 1355 1402 1369 1360 1422 1398 1372 1345 1392 1406 1406 1386 1371 1380 1359 1323 1381 1344 1379 1315 1325 1373 1456 1336 1374 1374 1333 1368 1336 1361 1316 1362 1397 1369 1371 1405 1383 1367 1358 1349 1426 1373 1418 1406 1367 1432 1333 1371 1373 1340 1358 1379 1315 1486 1390 1472 1342 1371 1404 1427 1355 1436 1367 1425 1321 1393 1321 1322 1409 1364 1403 1386 1382 1384 1425 1348 1429 1407 1351 1410 1379 1413 1407 1361 1400 1349 1438 1427 1424 1383 1380 1431 1410 1403 1402 1415 1517 1434 1433 1400 1349 1385 1388 1405 1360 1324 1423 1407 1389 1403 1357 1419 1467 1451 1401 1361 1404 1384 1401 1424 1358 1381 1379 1441 1415 1379 1406 1412 1383 1427 1426 1359 1403 1470 1351 1423 1395 1441 1442 1293 1279 1412 1441 1415 1368 1363 1400 1343 1255 1372 1396 1457 1381 1312 1386 1371 1339 1418 1331 1369 1349 1317 1413 1379 1397 1338 1344 1343 1310 1344 1350 1352 1390 1284 1338 1292 1371 1286 1295 1331 1330 1314 1441 1377 1341 1359 1324 1373 1351 1357 1398 1378 1338 1312 1321 1302 1292 1380 1369 1410 1379 1428 1299 1398 1380 1370 1401 1361 1332 1457 1421 1387 1356 1381 1420 1364 1353 1376 1411 1401 1406 1399 1388 1284 1379 1326 1345 1345 1320 1324 1348 1337 1335 1415 1359 1370 1399 1366 1351 1356 1296 1391 1333 1373 1377 1453 1377 1307 1384 1467 1382 1455 1381 1435 1386 1398 1379 1390 1352 1377 1389 1371 1360 1413 1336 1461 1362 1406 1441 1351 1401 1458 1401 1407 1418 1311 1326 1349 1295 1449 1439 1411 1451 1425 1385 1419 1417 1418 1375 1359 1397 1344 1392 1385 1424 1371 1362 1405 1363 1421 1422 1420 1401 1424 1412 1388 1418 1365 1333 1397 1310 1358 1366 1386 1373 1388 1306 1372 1296 1306 1394 1309 1392 1366 1341 1375 1310 1363 1301 1396 1309 1349 1349 1364 1333 1314 1306 1397 1392 1417 1281 1363 1354 1347 1394 1409 1374 1320 1376 1330 1307 1338 1364 1368 1287 1329 1374 1322 1340 1370 1390 1293 1358 1326 1356 1377 1354 1389 1347 1304 1381 1288 1311 1372 1383 1360 1391 1291 1344 1438 1318 1470 1372 1353 1378 1393 1383 1379 1402 1358 1304 1398 1344 1346 1375 1396 1374 1295 1312 1314 1380 1376 1369 1415 1377 1365 1344 1451 1357 1309 1342 1340 1371 1398 1420 1417 1398 1435 1378 1340 1361 1396 1373 1410 1403 1392 1427 1385 1352 1424 1383 1360 1404 1434 1438 1406 1504 1360 1450 1372 1417 1500 1445 1434 1382 1446 1445 1424 1442 1403 1472 1459 1367 1413 1454 1510 1391 1460 1403 1389 1348 1429 1389 1400 1392 1439 1375 1429 1400 1401 1365 1425 1432 1391 1406 1412 1444 1429 1445 1458 1301 1442 1497 1402 1418 1363 1444 1472 1443 1455 1442 1432 1502 1452 1428 1463 1537 1387 1443 1518 1522 1507 1450 1565 1466 1484 1442 1466 1467 1417 1399 1476 1454 1474 1460 1421 1419 1426 1423 1496 1392 1442 1426 1485 1442 1432 1502 1454 1478 1430 1466 1470 1509 1448 1435 1420 1428 1424 1453 1475 1416 1462 1435 1394 1469 1435 1434 1436 1484 1474 1399 1457 1450 1465 1522 1470 1508 1491 1475 1516 1558 1556 1407 1524 1465 1470 1405 1415 1422 1427 1406 1423 1427 1506 1427 1460 1438 1471 1405 1466 1459 1564 1473 1455 1429 1447 1538 1459 1546 1559 1645 1537 1550 1469 1444 1568 1463</counts>
			</dataPoints>
		</scan>
	</xrdMeasurement>
</xrdMeasurements>
