<?xml version="1.0"?>
<xrdMeasurements xmlns="http://www.xrdml.com/XRDMeasurement/2.3" xmlns:xsi="http://www.w3.org/2001/XMLSchema-instance" xsi:schemaLocation="http://www.xrdml.com/XRDMeasurement/2.3 http://www.xrdml.com/XRDMeasurement/2.3/XRDMeasurement.xsd" status="Completed" recordIdentifier="{DFA0D8FD-DC0D-4EC5-8A29-38489A078978}">
	<comment>
		<entry/>
	</comment>
	<sample type="To be analyzed">
		<id>GPSS_Li1p4Co0p8Ta0p2Cl4_101325_68ed636b07cf888582f978df</id>
		<name></name>
		<preparedBy></preparedBy>
	</sample>
	<xrdMeasurement measurementType="Scan" status="Completed" sampleMode="Reflection">
		<usedWavelength intended="K-Alpha 1">
			<kAlpha1 unit="Angstrom">1.5405980</kAlpha1>
			<kAlpha2 unit="Angstrom">1.5444260</kAlpha2>
			<kBeta unit="Angstrom">1.3922500</kBeta>
			<ratioKAlpha2KAlpha1>0.5000</ratioKAlpha2KAlpha1>
		</usedWavelength>
		<incidentBeamPath>
			<radius unit="mm">145.00</radius>
			<xRayTube id="1010048" name="Empyrean Cu LFF HR (9430 033 7310x)">
				<tension unit="kV">40.0</tension>
				<current unit="mA">15.0</current>
				<anodeMaterial>Cu</anodeMaterial>
				<focus type="Line">
					<length unit="mm">12.0</length>
					<width unit="mm">0.4</width>
					<takeOffAngle unit="deg">6.0</takeOffAngle>
				</focus>
			</xRayTube>
			<sollerSlit id="21010002" name="Soller slits 0.04 rad.">
				<opening unit="rad">0.0400</opening>
			</sollerSlit>
			<mask id="22031000" name="Fixed mask 13 mm">
				<width unit="mm">9.00</width>
			</mask>
			<divergenceSlit id="22120001" name="Divergence slit 1°" xsi:type="fixedDivergenceSlitType">
				<distanceToSample unit="mm">50.00</distanceToSample>
				<height unit="mm">1.52</height>
			</divergenceSlit>
		</incidentBeamPath>
		<sampleMovement xsi:type="spinningSampleMovementType">
			<spinnerRevolutionTime unit="seconds">1.0</spinnerRevolutionTime>
		</sampleMovement>
		<diffractedBeamPath>
			<radius unit="mm">145.00</radius>
			<antiScatterSlit id="22090040" name="AS slit 9 mm (PIXcel)" xsi:type="fixedAntiScatterSlitType">
				<height unit="mm">9.00</height>
			</antiScatterSlit>
			<sollerSlit id="21020003" name="Large Soller slits 0.04 rad.">
				<opening unit="rad">0.0400</opening>
			</sollerSlit>
			<filter id="20030001" name="Large beta-filter Nickel">
				<material>Ni</material>
				<thickness unit="mm">0.020</thickness>
			</filter>
			<detector id="7010019" name="PIXcel1D-Medipix3 detector" xsi:type="rtmsDetectorType">
				<phd unit="keV">
					<lowerLevel>4.02</lowerLevel>
					<upperLevel>11.27</upperLevel>
				</phd>
				<mode>Scanning</mode>
				<activeLength unit="deg">5.542</activeLength>
			</detector>
		</diffractedBeamPath>
		<scan appendNumber="0" mode="Continuous" scanAxis="Gonio" status="Completed">
			<header>
				<startTimeStamp>2025-10-21T10:43:53-07:00</startTimeStamp>
				<endTimeStamp>2025-10-21T10:52:00-07:00</endTimeStamp>
				<author>
					<name>AutomatedUser</name>
				</author>
				<source>
					<applicationSoftware version="1.7b (136)">PANalytical Aeris Instrument Suite</applicationSoftware>
					<instrumentControlSoftware version="3.2.00000000 20240306">AERIS</instrumentControlSoftware>
					<instrumentID>950485</instrumentID>
				</source>
			</header>
			<dataPoints>
				<positions axis="2Theta" unit="deg">
					<startPosition>10.00943322</startPosition>
					<endPosition>99.99442286</endPosition>
				</positions>
				<positions axis="Omega" unit="deg">
					<startPosition>5.00471661</startPosition>
					<endPosition>49.99721143</endPosition>
				</positions>
				<commonCountingTime unit="seconds">12.495</commonCountingTime>
				<counts unit="counts">3179 3149 3196 3120 3224 3194 3159 3142 3111 3032 3184 3180 3158 3164 3145 3174 3090 3116 3019 3102 3160 3256 3136 3176 3183 3155 3040 3193 3077 3114 3122 3212 3153 3189 3072 3073 3164 3049 3109 2986 3186 3206 3181 3147 3078 3162 3200 3154 3289 3111 3107 3151 3083 3132 3091 3095 3148 3154 3205 3195 3151 3128 3235 3152 3322 3280 3170 3250 3240 3164 3129 3209 3170 3187 3243 3190 3127 3175 3153 3166 3134 3088 3203 3246 3146 3225 3110 3173 3276 3231 3209 3302 3215 3221 3093 3210 3222 3130 3203 3303 3239 3164 3205 3166 3263 3264 3265 3128 3201 3180 3184 3085 3158 3094 3177 3220 3223 3260 3097 3166 3179 3240 3193 3144 3289 3228 3167 3182 3214 3290 3249 3297 3193 3173 3161 3153 3154 3222 3196 3217 3129 3289 3237 3243 3200 3155 3229 3209 3187 3124 3241 3101 3160 3275 3202 3243 3118 3187 3162 3111 3172 3276 3205 3198 3135 3180 3306 3156 3164 3220 3163 3237 3221 3192 3254 3202 3145 3065 3143 3185 3155 3209 3098 3171 3173 3276 3211 3140 3170 3310 3381 3177 3156 3080 3034 3160 3098 3206 3163 3215 3258 3108 3253 3109 3210 3164 3189 3210 3127 3125 3190 3124 3265 3187 3231 3170 3320 3262 3188 3195 3281 3228 3157 3161 3158 3139 3137 3074 3177 3201 3072 3077 3171 3204 3235 3177 3221 3152 3151 3183 3208 3128 3256 3192 3216 3151 3234 3160 3185 3266 3247 3245 3167 3182 3179 3138 3114 3149 3205 3234 3316 3232 3157 3247 3218 3395 3166 3284 3234 3196 3168 3178 3170 3166 3191 3347 3107 3258 3284 3177 3185 3322 3210 3188 3124 3287 3161 3277 3211 3247 3242 3275 3310 3365 3289 3264 3311 3357 3314 3360 3306 3377 3202 3323 3161 3325 3358 3352 3332 3255 3434 3454 3362 3399 3448 3370 3384 3200 3382 3383 3391 3384 3486 3427 3365 3348 3361 3366 3392 3419 3325 3383 3305 3447 3451 3376 3539 3407 3478 3401 3432 3446 3460 3594 3490 3557 3512 3534 3549 3438 3552 3644 3499 3715 3544 3563 3532 3378 3400 3531 3602 3577 3608 3617 3674 3609 3663 3630 3663 3585 3597 3681 3647 3589 3625 3745 3806 3633 3720 3711 3647 3721 3671 3783 3771 3676 3809 3626 3792 3742 3714 3688 3699 3821 3688 3832 3846 3798 3800 3808 3874 3808 3860 3745 3747 3776 3810 3760 3791 3815 3764 3708 3799 3935 3747 3881 3963 3876 3932 3877 3968 3906 3959 3878 3961 4028 3908 4044 3984 3972 3981 3968 4005 4003 3984 4128 4036 4027 4025 4126 4053 4068 3998 4144 4138 4026 4058 4053 4190 4222 4002 4104 4208 4084 4214 4073 4113 4136 4182 4205 4225 4286 4212 4265 4049 4196 4213 4231 4190 4179 4290 4326 4356 4378 4257 4265 4376 4411 4403 4435 4487 4382 4491 4493 4450 4481 4671 4589 4404 4539 4443 4498 4508 4588 4563 4698 4644 4656 4426 4510 4521 4449 4407 4343 4224 4120 4161 4210 4075 4087 4117 4120 3958 4193 4181 4178 4259 4248 4142 4145 4219 4166 4129 4157 4232 4048 4150 3975 3898 3925 3979 4020 3984 3925 3851 3920 3960 3773 3916 3738 3646 3613 3761 3785 3627 3659 3679 3760 3551 3659 3593 3639 3633 3675 3724 3641 3667 3652 3687 3589 3669 3579 3623 3601 3682 3633 3571 3520 3622 3626 3598 3497 3646 3637 3718 3554 3618 3674 3665 3611 3503 3585 3587 3555 3612 3559 3593 3686 3509 3558 3636 3586 3570 3525 3565 3493 3602 3539 3474 3562 3463 3574 3558 3443 3553 3566 3608 3496 3495 3480 3653 3598 3595 3578 3492 3561 3475 3542 3392 3511 3488 3481 3615 3564 3481 3407 3482 3438 3586 3506 3505 3447 3501 3393 3431 3642 3533 3433 3512 3392 3492 3448 3510 3510 3441 3553 3536 3496 3501 3430 3616 3400 3487 3581 3580 3452 3522 3530 3584 3574 3448 3508 3493 3580 3412 3550 3586 3579 3497 3499 3343 3479 3465 3491 3511 3492 3547 3494 3544 3512 3536 3399 3529 3455 3601 3543 3508 3553 3507 3435 3495 3511 3501 3422 3526 3482 3477 3532 3533 3594 3468 3553 3512 3581 3527 3585 3642 3394 3568 3552 3574 3564 3590 3470 3385 3539 3445 3325 3593 3448 3452 3417 3430 3378 3383 3448 3393 3421 3440 3468 3317 3291 3364 3444 3351 3417 3446 3356 3389 3358 3406 3401 3357 3320 3378 3405 3374 3493 3494 3370 3441 3417 3433 3503 3391 3463 3420 3441 3396 3421 3466 3338 3427 3378 3466 3359 3453 3365 3373 3498 3429 3362 3436 3418 3361 3439 3334 3314 3354 3384 3342 3338 3422 3389 3350 3344 3318 3472 3370 3306 3376 3455 3332 3384 3480 3269 3443 3362 3355 3316 3283 3368 3309 3547 3325 3324 3398 3355 3348 3436 3292 3334 3304 3402 3382 3437 3301 3423 3331 3339 3320 3492 3307 3276 3317 3305 3333 3382 3356 3324 3317 3298 3216 3415 3392 3308 3232 3373 3298 3394 3293 3346 3383 3461 3307 3367 3248 3327 3304 3310 3328 3386 3320 3295 3311 3367 3332 3291 3309 3253 3388 3263 3266 3302 3241 3290 3353 3435 3313 3186 3196 3342 3349 3372 3321 3368 3228 3389 3249 3217 3248 3420 3337 3490 3244 3230 3309 3296 3262 3320 3216 3397 3256 3364 3349 3289 3256 3221 3319 3154 3297 3218 3366 3253 3310 3265 3276 3266 3275 3322 3281 3307 3261 3225 3270 3339 3158 3241 3234 3203 3222 3246 3205 3296 3222 3206 3208 3278 3256 3097 3299 3289 3171 3227 3238 3254 3256 3183 3212 3296 3219 3343 3215 3232 3267 3221 3182 3215 3223 3186 3294 3202 3262 3316 3182 3224 3237 3189 3193 3192 3280 3212 3235 3188 3217 3216 3331 3217 3229 3276 3182 3205 3245 3138 3134 3252 3273 3257 3203 3203 3143 3269 3111 3172 3117 3146 3183 3247 3184 3217 3206 3271 3228 3265 3183 3220 3188 3230 3268 3262 3181 3184 3235 3184 3231 3285 3127 3279 3157 3202 3164 3117 3218 3137 3206 3194 3249 3274 3271 3151 3254 3193 3286 3318 3201 3123 3239 3344 3072 3239 3172 3176 3123 3223 3208 3186 3284 3118 3318 3191 3257 3269 3270 3193 3209 3147 3287 3277 3288 3275 3302 3148 3148 3202 3167 3243 3107 3256 3259 3395 3234 3229 3291 3291 3271 3171 3223 3216 3294 3342 3288 3229 3310 3217 3330 3262 3349 3212 3273 3154 3245 3204 3247 3184 3293 3248 3346 3337 3162 3263 3212 3200 3372 3195 3266 3219 3270 3210 3247 3287 3272 3208 3186 3326 3202 3270 3299 3144 3179 3244 3297 3211 3212 3266 3351 3290 3198 3164 3218 3169 3212 3082 3130 3193 3258 3331 3287 3329 3275 3133 3283 3255 3177 3294 3249 3284 3123 3201 3142 3253 3265 3191 3178 3302 3181 3185 3110 3190 3134 3079 3279 3214 3172 3184 3192 3093 3187 3155 3212 3217 3174 3214 3214 3165 3186 3233 3215 3026 3166 3099 3179 3153 3036 3226 3128 3078 3174 3088 3050 3119 2992 3102 3072 3115 3199 3137 2955 3067 3021 3041 3006 3059 3009 3000 3151 3103 2900 3067 3115 2974 3010 2982 3005 3105 3113 2918 2995 3036 2996 3008 2962 2922 2990 3089 2931 2985 2987 3013 3051 2869 3016 2920 2927 2893 2839 2996 2926 2847 2920 2986 2900 2968 2983 2940 2963 2912 2958 2820 2840 2940 2876 2843 2877 2853 2956 2847 2877 2883 2835 2920 2873 2755 2948 2862 2961 2844 2892 2928 2918 2793 2882 2894 2815 2773 2826 2949 2854 2807 2861 2845 2914 2798 2849 2831 2812 2824 2859 2719 2908 2767 2815 2835 2769 2852 2803 2775 2872 2709 2834 2804 2857 2802 2833 2690 2811 2740 2761 2802 2717 2820 2695 2710 2804 2749 2830 2714 2741 2701 2806 2794 2728 2763 2795 2693 2751 2851 2747 2755 2822 2679 2789 2746 2788 2816 2867 2805 2769 2773 2806 2836 2795 2745 2746 2810 2758 2851 2735 2656 2798 2721 2785 2680 2727 2789 2721 2862 2807 2668 2700 2752 2695 2718 2772 2700 2854 2694 2755 2755 2881 2777 2744 2835 2839 2779 2794 2800 2728 2723 2757 2854 2851 2830 2850 2816 2740 2745 2769 2831 2787 2725 2783 2798 2753 2834 2732 2766 2813 2843 2805 2748 2682 2707 2738 2773 2836 2803 2786 2824 2759 2727 2732 2809 2740 2792 2807 2752 2727 2750 2794 2761 2797 2696 2681 2750 2792 2793 2718 2683 2636 2708 2664 2707 2819 2720 2743 2683 2637 2797 2707 2798 2774 2757 2756 2711 2680 2732 2800 2753 2698 2772 2631 2689 2675 2691 2699 2694 2770 2761 2787 2773 2684 2775 2767 2745 2775 2686 2820 2771 2698 2855 2705 2822 2691 2750 2757 2747 2685 2757 2733 2752 2756 2721 2776 2739 2688 2689 2725 2816 2679 2704 2689 2761 2751 2823 2710 2770 2775 2695 2728 2685 2796 2753 2691 2762 2622 2691 2734 2803 2651 2732 2756 2710 2754 2726 2722 2742 2667 2802 2704 2759 2695 2820 2710 2641 2756 2677 2739 2673 2717 2715 2699 2710 2707 2702 2700 2712 2662 2650 2678 2741 2747 2708 2678 2780 2703 2685 2659 2761 2749 2716 2578 2623 2668 2790 2700 2700 2767 2641 2655 2694 2689 2664 2662 2654 2597 2616 2634 2675 2636 2754 2657 2717 2678 2637 2641 2611 2636 2637 2625 2638 2586 2687 2659 2634 2635 2615 2617 2587 2599 2520 2609 2602 2703 2527 2694 2559 2633 2537 2643 2543 2575 2571 2581 2480 2687 2538 2585 2562 2643 2604 2488 2624 2567 2591 2599 2510 2442 2497 2507 2489 2562 2598 2615 2564 2620 2580 2615 2491 2421 2579 2478 2458 2584 2649 2549 2543 2478 2547 2494 2523 2499 2517 2473 2522 2567 2452 2547 2486 2520 2549 2511 2503 2410 2490 2370 2420 2439 2461 2497 2446 2513 2414 2425 2440 2388 2483 2426 2468 2439 2487 2467 2459 2470 2465 2470 2521 2470 2471 2512 2371 2427 2429 2403 2490 2464 2484 2432 2418 2392 2435 2317 2400 2316 2465 2422 2401 2448 2368 2354 2456 2439 2450 2410 2424 2422 2408 2382 2415 2388 2510 2412 2475 2326 2436 2498 2431 2401 2377 2380 2442 2379 2442 2409 2443 2415 2422 2560 2519 2362 2401 2516 2398 2499 2377 2502 2447 2411 2407 2384 2400 2449 2476 2381 2349 2397 2545 2492 2511 2432 2463 2428 2528 2379 2459 2480 2469 2490 2406 2414 2473 2474 2489 2497 2447 2549 2484 2416 2483 2470 2492 2525 2534 2493 2532 2573 2458 2465 2491 2523 2545 2540 2586 2527 2599 2586 2532 2546 2539 2594 2428 2566 2601 2679 2504 2491 2533 2530 2470 2562 2549 2584 2497 2505 2485 2559 2589 2644 2556 2489 2431 2516 2507 2486 2455 2368 2425 2421 2399 2369 2395 2401 2471 2394 2450 2347 2515 2378 2430 2490 2491 2421 2336 2475 2398 2464 2471 2457 2389 2433 2448 2412 2506 2478 2511 2503 2462 2441 2415 2513 2455 2556 2574 2499 2569 2504 2622 2456 2492 2480 2555 2563 2475 2526 2511 2499 2426 2478 2524 2425 2427 2456 2433 2508 2493 2551 2526 2556 2535 2525 2585 2507 2587 2556 2564 2550 2495 2652 2595 2724 2613 2693 2693 2735 2716 2630 2715 2739 2737 2761 2731 2762 2725 2709 2780 2700 2730 2742 2551 2663 2767 2618 2681 2679 2533 2524 2490 2612 2511 2516 2576 2466 2511 2550 2529 2457 2430 2458 2419 2420 2321 2316 2313 2322 2310 2275 2325 2201 2201 2247 2244 2238 2201 2181 2175 2288 2172 2196 2311 2317 2265 2294 2235 2233 2250 2231 2300 2264 2289 2160 2294 2242 2255 2119 2320 2252 2279 2168 2167 2276 2181 2242 2238 2117 2196 2208 2234 2230 2306 2150 2233 2058 2234 2231 2148 2166 2253 2250 2259 2222 2232 2184 2236 2175 2205 2180 2108 2216 2186 2239 2161 2193 2161 2230 2206 2189 2151 2140 2213 2155 2222 2182 2177 2200 2213 2141 2155 2167 2224 2239 2207 2179 2224 2240 2220 2101 2118 2165 2166 2151 2097 2187 2194 2183 2163 2223 2182 2182 2209 2157 2218 2233 2283 2218 2215 2186 2148 2245 2200 2213 2177 2207 2215 2250 2145 2338 2112 2264 2298 2152 2164 2209 2223 2186 2260 2272 2142 2282 2071 2257 2210 2225 2166 2153 2171 2166 2219 2222 2202 2182 2093 2123 2122 2186 2270 2147 2214 2159 2200 2182 2163 2233 2191 2247 2223 2295 2257 2232 2132 2240 2151 2156 2267 2131 2166 2126 2184 2244 2194 2141 2232 2187 2209 2254 2165 2232 2146 2188 2205 2245 2173 2154 2286 2337 2159 2175 2264 2192 2185 2322 2208 2237 2303 2226 2242 2225 2209 2260 2164 2166 2192 2211 2197 2205 2174 2243 2238 2222 2219 2162 2126 2096 2204 2164 2252 2258 2293 2193 2142 2296 2315 2089 2209 2231 2252 2086 2184 2126 2199 2153 2219 2214 2133 2238 2207 2195 2249 2204 2204 2126 2198 2214 2207 2163 2257 2094 2268 2213 2159 2246 2213 2166 2207 2163 2180 2123 2206 2215 2094 2191 2151 2055 2203 2266 2213 2138 2236 2203 2093 2164 2191 2164 2189 2202 2142 2122 2235 2152 2166 2181 2214 2079 2280 2229 2249 2239 2213 2159 2194 2120 2169 2131 2161 2173 2200 2193 2072 2141 2164 2239 2178 2141 2154 2236 2314 2160 2195 2172 2147 2161 2257 2225 2161 2253 2192 2172 2289 2148 2268 2228 2264 2050 2236 2214 2243 2244 2309 2237 2206 2334 2289 2291 2218 2285 2212 2340 2331 2285 2241 2383 2382 2410 2470 2475 2530 2615 2560 2574 2626 2737 2687 2714 2687 2713 2744 2730 2742 2698 2791 2648 2693 2759 2721 2837 2742 2687 2889 2912 3018 3027 3186 3235 3451 3480 3367 3284 3311 3189 3125 3105 3276 3163 3177 3244 3191 3125 3058 3048 3176 3139 3230 3273 3268 3312 3214 3310 3430 3357 3426 3537 3444 3435 3540 3579 3537 3537 3528 3438 3460 3442 3378 3446 3419 3318 3352 3369 3351 3490 3337 3304 3374 3312 3375 3488 3357 3275 3255 3146 3254 3054 3007 2949 2920 2823 2730 2667 2755 2572 2641 2676 2534 2530 2540 2445 2490 2402 2480 2460 2477 2442 2448 2500 2449 2461 2350 2487 2350 2475 2315 2610 2386 2525 2452 2402 2338 2402 2426 2348 2354 2316 2361 2434 2346 2465 2416 2349 2313 2376 2396 2371 2305 2313 2307 2346 2293 2229 2260 2232 2267 2198 2268 2231 2195 2333 2243 2296 2175 2216 2255 2227 2125 2186 2220 2152 2155 2177 2205 2126 2124 2185 2162 2156 2237 2110 2185 2164 2135 2170 2132 2105 2148 2248 2174 2181 2193 2168 2202 2186 2287 2155 2116 2189 2103 2128 2143 2173 2169 2242 2175 2126 2275 2140 2172 2136 2220 2231 2162 2197 2151 2081 2215 2100 2123 2233 2028 2173 2130 2126 2178 2095 2203 2107 2149 2099 2048 2151 2059 2161 2124 2122 2086 2067 2075 2169 2098 2167 2149 2090 2077 2195 2180 2155 2152 2210 2176 2129 2129 2129 2134 2143 2144 2071 2157 2161 2137 2153 2158 2124 2128 2181 2114 2127 2124 2164 2150 2123 2046 2085 2114 2060 2081 2173 2149 2086 2083 2136 2129 2148 2152 2120 2178 2123 2200 2139 2211 2062 2095 2087 2091 2065 2079 2165 2073 2109 2178 2062 2149 2066 2182 2086 2039 2147 2116 2108 2126 2127 2076 2204 2106 2077 2137 2153 2137 2058 2109 2138 2144 2195 2119 2189 2141 2056 2133 2204 2125 2083 2103 2071 2196 2094 2142 2165 2082 2106 2134 2079 2018 2059 2099 2126 2139 2100 2207 2016 2087 2115 2081 2105 2114 2153 2110 2223 2171 2106 2172 2162 2171 2156 2148 2105 2137 2187 2086 2228 2101 2148 2141 2129 2185 2256 2183 2126 2214 2149 2186 2098 2103 2086 2198 2180 2168 2104 2286 2192 2140 2185 2179 2062 2207 2176 2154 2197 2131 2064 2100 2108 2068 2048 2050 2051 2157 2083 2105 2114 2108 2161 2158 2120 2092 2096 2082 2089 2101 2103 2063 2155 2064 2136 2026 2043 2170 2162 2027 2099 2097 2125 2069 2112 2098 2158 2149 2153 2182 2082 2140 2108 2063 2100 2087 2158 2061 2196 2139 2069 2135 2163 2198 2203 2048 2082 2140 2121 2123 2163 2117 2099 2088 2072 2107 2105 2204 2144 2139 2091 2078 2105 2100 2217 2112 2171 2155 2133 2223 2107 2181 2176 2061 2104 2091 2159 2037 2118 2154 2136 2087 2189 2130 2065 2147 2107 2097 2044 2105 2109 2148 2096 2064 2100 2086 2139 2158 2020 2165 2064 2085 2041 1952 2069 2024 2100 2021 2043 2137 2027 2056 2097 1988 2101 2076 2082 2032 2021 2145 2025 2020 1967 2028 2023 1983 2026 2075 2088 2084 2120 2109 2021 2010 2028 2021 2047 2120 2090 2078 2100 2073 2142 2000 2048 1988 2031 2027 2021 1997 2132 2091 2045 2164 1985 1987 2067 2089 2168 2077 2082 2026 2124 2048 2076 1995 2036 2097 2054 1994 2016 2055 1981 2053 2000 2052 1979 2075 1990 2027 2026 2139 1940 2011 2050 2090 1984 2070 2079 2098 1997 2029 2086 1968 2070 2082 2146 2004 2117 2066 2037 2020 2050 1996 2013 2102 2001 2023 2072 1998 2090 2043 2056 1901 2002 2083 2062 2032 2045 2013 2055 2127 2079 2030 2112 2001 2084 2086 2084 2081 2040 2105 2036 2034 2064 2089 2001 2054 2077 1991 1999 2021 2022 2123 2099 1983 2054 2097 2057 2015 2034 2034 2062 2051 2061 2047 2062 2111 2090 2047 2108 1977 2074 2134 2092 1978 2034 2055 2023 2031 2060 2015 2098 2029 2111 1934 2132 1996 2013 2011 2075 2027 2199 2124 2086 2082 2046 2028 1978 2113 1938 2102 2118 2029 2039 1972 2002 2081 2059 2046 2058 2070 2095 2128 1956 2028 2078 2067 2030 2060 2061 2157 2094 2095 1988 1947 2003 2040 2009 2065 1995 2046 2039 2027 2043 2029 2044 2047 2013 1994 2025 2006 2046 2088 2029 2060 2109 2063 2066 2021 2038 2113 1987 1956 2060 2011 2048 2021 2054 1990 1970 2052 2034 2071 2109 2038 2100 2039 2132 1998 2055 2064 2055 2069 1982 2085 2031 2058 2077 2043 2015 2046 2019 2007 2044 2104 1995 2104 2059 2015 2089 2062 2115 2031 2064 2031 1995 2098 2009 2133 2007 2087 2054 2057 2018 2013 2106 2111 1971 2096 2082 2040 2100 2139 2090 1987 2073 2065 2116 2122 2065 1977 2100 2065 2101 2043 2038 2063 2072 2150 2136 2101 2099 2059 2086 2129 2089 2058 2029 2155 2075 2024 2013 2118 2080 2086 2098 2117 2037 1995 2009 2055 2088 2162 2088 2104 2047 2018 2039 1968 1985 2012 2098 2025 2032 2042 2039 2048 2061 1986 2086 2063 2008 2055 2024 1976 2069 2005 2027 2051 2078 2013 2064 2086 2036 1976 2025 2043 2052 1993 2082 2082 2026 2076 2094 2057 2101 2048 2021 2070 2009 2022 2024 2015 1956 2118 1999 2093 2120 2019 2043 2149 2073 2001 2021 2098 1937 2056 2007 2075 2037 2076 1993 2009 1973 2032 1994 2008 2038 2065 2054 2036 2026 1987 1982 2072 2003 2015 2054 2016 1967 2051 2030 1971 1980 1952 2055 2047 1986 1997 2047 2066 2035 2005 2014 1959 2014 2063 2049 2087 2041 2022 2103 2034 2063 2014 2066 2059 2087 2033 2088 2031 2027 2063 1950 2031 2090 2005 2060 1952 2039 2100 2070 2160 1988 2107 2032 2094 2055 2017 2076 2085 2058 2075 2051 2016 2000 2047 1995 2053 2018 1971 2013 2057 2064 2025 2072 2083 2002 1985 2067 2036 2141 2025 2150 1996 2103 2048 2057 2086 2055 2075 2135 2047 2130 2066 2036 2030 2166 2170 2092 2105 2096 2109 2168 2066 2079 2091 2098 2079 2101 2052 2014 2089 2165 2176 2124 2087 2063 2126 2117 2117 2122 2227 2166 2146 2145 2194 2083 2065 2061 2193 2186 2193 2107 2211 2190 2128 2142 2168 2172 2136 2244 2171 2199 2176 2190 2160 2154 2217 2167 2175 2221 2177 2232 2141 2165 2137 2181 2218 2126 2167 2116 2134 2083 2121 2169 2113 2141 2239 2161 2101 2180 2111 2164 2152 2088 2139 2161 2063 2063 2032 2169 2133 2114 2137 2102 2119 2039 2136 2037 2145 2044 2060 2049 2115 2063 2068 2092 2049 2051 2047 2070 2070 2051 2064 1981 2082 2045 2102 2027 2075 2037 2057 2084 2108 2004 2064 2050 2056 2070 2041 2096 2148 2068 1964 2073 2030 1998 2068 2100 2116 2059 2002 2015 2051 2030 2131 2042 2017 1930 2012 2075 2042 2020 2071 2121 2074 2052 2078 2032 2060 2108 2147 2027 2008 2024 2012 2103 1948 2053 2025 2011 1990 2034 2086 2048 2081 1992 2094 2023 2035 2037 2034 2087 2002 2024 2122 1966 2034 2021 1992 1984 2044 1976 2033 2031 2092 2070 2089 2022 1949 2028 2048 2084 2136 2042 2074 2117 2030 2000 2053 2050 1970 1974 2042 2119 2034 2079 2082 2071 2086 2012 2070 2026 2012 2030 2037 2065 1985 2001 2035 1994 1987 2099 2052 2029 2039 2006 2032 2054 2014 2007 2101 1989 2001 1906 2050 2006 1959 2086 2061 2030 2009 2030 2046 2148 2004 2034 2017 2022 2154 1955 2031 2045 1984 2073 2063 2043 2034 2003 2026 2072 2083 2015 2112 2061 1984 2078 2093 2086 2051 2022 2076 2096 1987 2121 1932 1990 1993 2051 2065 2088 2075 2060 2046 2057 2078 2038 2075 2005 2004 2073 1962 2061 2077 2013 1959 2034 2088 1981 2063 2080 2012 2069 2116 2055 2030 2035 2037 1988 2064 2080 1988 2119 2040 2007 2057 2088 2047 1998 2086 2112 1939 2000 1990 2020 2090 2003 2073 2053 2023 2046 2081 2070 2046 2008 2093 2052 2020 2049 2118 2074 2092 2015 1998 2032 1903 2037 2094 2037 2006 1986 2091 2011 2128 2071 2048 2050 2027 2095 2021 1987 2119 2037 2039 2054 2087 2066 2007 2013 2096 1990 2129 2046 2067 2060 2009 2047 2132 2110 2080 2065 2128 2132 2140 2136 2107 2178 2138 2038 2145 2180 2155 2184 2185 2244 2168 2206 2332 2219 2328 2247 2262 2418 2417 2377 2349 2397 2411 2460 2392 2342 2332 2398 2448 2424 2368 2311 2382 2361 2345 2303 2243 2353 2326 2353 2371 2410 2362 2439 2468 2311 2367 2366 2409 2531 2493 2520 2495 2526 2550 2664 2541 2585 2616 2721 2671 2634 2695 2739 2740 2748 2778 2787 2715 2647 2739 2775 2626 2671 2685 2642 2592 2500 2538 2598 2517 2549 2376 2354 2474 2437 2366 2310 2319 2327 2253 2140 2251 2234 2275 2170 2236 2153 2187 2280 2213 2249 2144 2275 2168 2244 2229 2269 2276 2190 2223 2211 2247 2261 2274 2264 2330 2279 2305 2203 2252 2219 2264 2190 2194 2269 2253 2265 2247 2223 2355 2190 2190 2175 2142 2158 2254 2251 2237 2154 2162 2198 2219 2123 2159 2187 2268 2230 2256 2232 2173 2200 2222 2206 2269 2271 2199 2275 2242 2197 2363 2234 2243 2367 2355 2366 2338 2317 2242 2262 2174 2163 2323 2142 2182 2157 2244 2152 2183 2163 2170 2144 2077 2134 2163 2186 2085 2098 2086 2146 2048 1973 2109 2093 2060 2015 2079 2037 2075 1979 2037 2008 2107 2063 2061 2054 1956 1982 1983 2054 2008 2024 2096 1989 2053 2051 2125 2000 2052 2081 2112 2138 2004 2043 2020 1986 1962 2083 2031 2056 1992 2020 2044 2095 2019 2008 2093 1955 2012 1979 2028 2053 1986 2142 2112 2063 2048 2094 2107 2059 2060 2079 2158 2166 2121 2153 2167 2161 2073 1974 2133 1986 2067 1999 2010 2119 2153 2076 2058 2130 2017 2043 2042 2117 2082 2003 1967 2132 2081 2000 2073 2120 2139 2144 2090 2145 2151 2105 2191 2103 2079 2167 2111 2070 2169 2141 2176 2091 2129 2128 2062 2094 2097 2153 2174 2137 2113 2074 1999 2161 2122 1990 2052 2033 2109 2104 2116 2126 2081 2078 2053 2109 2121 2098 2110 2095 2050 2145 2093 2040 2139 2127 2158 2039 2090 2059 2084 2153 2063 2030 2082 2081 2117 2063 2080 2093 2109 2142 2127 2148 2079 2166 2088 2071 2104 2096 2060 2068 2107 2200 2161 2099 2105 2093 2097 2082 2043 2093 2095 1987 2140 2031 2084 2056 2123 2047 2120 2010 1996 2049 2070 2107 2129 2071 2122 2127 2028 2115 2086 2085 2098 2086 2060 2105 2082 2089 2057 2071 2092 2037 2091 2185 2097 2109 2139 2060 2009 1951 2081 2133 2057 2086 2047 2117 2029 2016 1954 2106 2186 2069 1987 2141 1968 2047 1993 2040 1970 2048 2084 2016 2015 2040 1963 2042 2014 2045 1995 2006 1986 1987 1966 2062 2020 1999 2062 2068 2007 1992 2152 2034 1987 1950 2000 2000 1936 2034 1953 2074 1940 2102 2073 2008 2020 2042 1994 1991 2035 1988 2061 2066 1953 1999 2007 2030 2039 1914 1972 1958 2026 2100 2043 1984 2037 2029 1958 2049 2069 2027 2089 2058 2122 1996 2122 2005 2071 2025 2004 2097 2044 2035 2016 2018 2067 2046 1996 1956 2013 2027 2016 1948 2100 2020 2108 1957 2063 2020 2017 1970 2011 2037 2095 2108 2024 2039 2053 2007 2049 2012 1969 2018 2003 2061 2000 2010 2038 2041 1974 2034 2017 2017 2025 2037 1978 2021 1998 2029 2080 2084 2008 1980 2012 1981 1996 2000 2048 2073 2083 2012 2068 2027 2011 2033 1974 2021 1974 1929 1995 1964 1951 1973 2009 2021 1978 2032 1885 2017 2012 1964 1973 1986 1997 2012 1990 2042 2013 2007 1993 2027 1952 1917 2080 2010 1985 2034 2003 2014 2034 1990 2002 2001 2062 2017 2046 1953 2088 2012 1937 1952 2101 1938 2012 2022 1994 2074 1928 2006 2020 1976 2057 1958 2075 2038 1990 2045 1920 2110 1937 2027 2080 1958 1970 2108 2056 2005 2075 2015 2062 2005 2052 2001 2039 1971 2089 2045 1958 2051 2062 2028 1980 2026 2004 2029 2031 1920 2002 2099 2035 2026 1940 1965 2016 1998 1993 2095 2027 2020 2006 1974 1985 2007 2004 1991 1967 2030 2013 1958 2021 1976 2026 1957 2068 1988 1935 1933 1964 1959 1990 1936 1957 2046 2031 2006 2050 1987 1985 1990 2060 1910 1988 2027 2092 2067 2060 1947 2026 1970 1976 2052 1994 2053 1968 1985 2017 1924 1960 2006 2008 2017 1970 2010 1915 1954 1981 2015 1924 1990 2041 1981 2047 2032 2109 1996 2000 1980 1991 2000 1969 1987 2027 2020 1990 1960 2076 1959 2046 1941 2020 2022 1979 1986 2023 1971 2042 2034 2061 1875 2024 2039 2022 1917 1995 1908 1983 1986 1952 1954 1989 1966 2029 1997 2012 1943 1998 1964 2021 2038 2029 2028 2001 1973 1942 1922 1957 2004 1942 2021 1972 2064 2042 1967 1970 2054 2012 1983 2003 2015 2037 2012 1985 2020 1983 1942 1962 1977 2024 1999 2015 1959 1931 2099 1936 1953 1970 1965 2002 2006 1979 2068 1993 2026 1946 1988 1954 2032 2014 2009 2016 1989 2110 2072 1989 2013 1960 2005 2077 1994 1988 1982 2011 2015 1962 2040 2017 1967 1950 2042 1960 1910 1982 2027 1944 2075 2092 2077 1977 2025 1948 1979 2075 2000 1936 1938 2052 2017 2067 2009 2041 2081 1970 2066 1998 2081 1995 2065 2045 2025 2054 1984 2028 2050 2099 2016 2060 2080 2018 2104 2104 2046 1992 2059 1966 2080 2072 2053 2005 2033 2050 1933 2079 2076 2106 2078 2125 2037 2087 2153 2132 2114 2083 2123 2116 2127 2091 2048 2007 2029 2097 1996 2122 2084 2161 2067 2134 2089 2136 2133 2015 2148 2055 2173 2066 2078 2081 2114 2129 2155 2054 2059 2030 2023 2136 2111 2060 2040 2066 2112 2012 2048 2049 2017 2074 2109 2069 2036 2075 2010 2005 2022 2023 2003 2011 1974 1992 2111 2041 2009 2039 2045 1936 2139 2057 2048 2026 2141 2008 1951 2073 2046 2017 2030 1997 1965 2038 1995 2094 1976 2051 1916 2020 1949 2132 1992 1973 1956 1985 2003 1977 1969 2017 2054 1989 1977 2008 1885 1921 1984 1961 2011 2040 1965 2022 2037 1975 1988 2020 2022 2037 1954 2011 1939 1981 1955 1887 2003 1894 1937 1990 2052 2062 2052 1966 1991 1897 2010 1909 1977 1994 2017 1931 1925 2063 1987 1977 1976 2115 2013 1873 1931 1992 2022 2053 2011 2087 2079 2015 2049 1984 2029 2015 1954 2046 2005 1991 1974 1973 1984 1912 2041 1990 2039 1982 1998 1932 1965 1937 2081 1937 2018 2001 2028 2119 2066 1955 1997 1956 1921 2033 1961 1943 2091 1978 2018 1949 1984 1970 1910 2026 1982 2008 1939 2015 1992 2003 2023 2042 2007 2023 2025 1912 1970 1940 1959 1951 1941 2048 1995 1989 1992 1943 2017 1933 1985 1901 1953 1983 2033 1991 2002 2104 2042 2040 1972 2005 1972 2066 1953 1997 2030 2050 1981 1989 2022 1965 2094 2064 1984 1975 1945 2095 1970 2016 2029 2014 2076 2100 2064 2050 2106 2096 2068 2105 2115 2073 2181 2020 2096 2128 2170 2106 2051 2155 2068 2077 2103 2084 2086 2123 2111 2048 2078 2053 2120 2102 2197 2135 2146 2142 2081 2103 2146 2161 2176 2161 2156 2173 2075 2294 2135 2185 2156 2249 2155 2158 2243 2220 2217 2169 2165 2210 2179 2268 2276 2132 2120 2131 2068 2038 2078 2081 2073 2073 2136 2101 2146 2085 2062 2106 2037 2057 2074 2088 2091 2083 2206 2143 2059 2082 2138 2052 2075 2074 2013 2067 2105 2119 2058 2083 2067 2090 2074 2064 2095 2034 2042 2045 2194 2039 2085 2105 2025 2039 2012 2141 2028 2066 2026 2004 2037 2016 2133 2087 1936 1974 2017 2008 1926 1898 1978 1961 2019 2009 2070 2042 2038 2069 1879 2077 2028 2051 2015 2013 2016 2063 2014 2034 2023 2130 2015 2031 2013 2048 2019 2035 2019 2058 2014 2010 2055 2058 2046 2018 1957 2011 2032 2148 2067 2022 2026 2031 2025 2034 2070 2044 1965 2087 2068 2092 2036 2118 2053 2106 2120 2036 2083 2079 2016 1958 1979 2066 2132 2060 2034 2022 2021 2024 2035 2048 2066 2080 2111 2147 2043 2039 2101 2050 2057 2093 2077 2028 2029 2018 1966 2018 2026 1996 2011 2068 2047 2061 2019 2022 2095 2072 2096 2044 1919 2037 1969 2073 2051 2072 2118 2036 1956 2115 2025 2044 2123 2057 2005 2055 2102 2096 2019 2052 2028 2036 2065 1971 2091 2083 2108 2076 2118 2115 2025 2056 2021 2133 2058 1978 2093 2093 1990 2089 2028 2133 2074 2012 2069 2076 2057 2092 2037 2057 2078 2063 2034 2009 2056 2029 2107 1974 2008 2027 1996 2012 2034 1997 1996 1955 1986 2029 1964 2016 2065 2069 2069 1986 2012 2081 2088 2024 2094 1958 2042 1949 2001 2088 2084 1995 2093 2026 1971 2039 2029 2062 1975 1982 2084 1996 2013 2063 2024 1985 1976 2027 1975 2008 2009 1999 1970 2060 1979 2004 2020 1973 1981 1939 2037 2029 1962 2012 1965 1985 1982 1903 2016 2041 2014 2030 2022 1944 1987 1945 2085 1999 1957 1952 1941 1999 1985 1913 2062 1939 2023 2034 1987 2012 2061 1958 2022 1995 2050 1999 2082 1901 1982 1935 1955 1987 1998 1988 2019 2008 1963 2012 1968 1979 1981 1959 1977 2058 2100 2074 1950 1930 1914 1952 1950 1934 1955 1974 2025 2037 2029 2021 1988 1951 2011 2021 1959 1974 1930 1916 1971 1976 1969 1965 1966 2027 2030 1974 1956 1997 2080 2079 2000 2009 2032 2008 1952 1974 1980 1908 1918 1958 1999 1973 1985 1969 2028 1985 2083 1885 1973 1916 1926 1988 1950 1960 1964 2012 2033 1988 1998 2002 1991 1903 1891 2055 1884 1987 2037 1957 1990 2053 1972 1997 1961 2028 1958 2011 1925 2026 1939 1906 1996 1945 1930 2067 1957 2033 1917 1983 2004 1993 1942 1979 1985 1937 1957 2008 2054 1990 2011 1931 1984 1972 2016 1954 1972 1983 2031 2016 2031 2014 1984 1935 1930 2030 1970 2021 2005 2009 1942 1987 2003 1996 1924 1995 1953 2046 1971 1932 1981 2012 2003 2042 1981 1997 1960 2000 2078 2041 2029 1942 2013 1958 1978 1976 2074 2016 1933 2023 2020 1953 2013 1992 1965 2041 1975 2053 1993 1997 1973 2097 1940 1957 2051 2073 2028 1969 1956 1965 1979 1977 2037 1965 2026 1988 1989 2003 1944 2034 2033 1941 2060 1977 2008 1928 1967 1962 1921 1981 1983 1986 2111 1848 1961 2011 2030 1997 1970 1923 1973 2017 2013 2068 2020 1990 1989 2000 2015 2020 2020 1948 1992 2050 2017 2014 1947 2034 1969 2060 2048 1972 1867 2001 2039 1930 1955 1909 1902 1980 1972 1925 1906 1926 2042 1882 1959 1955 1979 2034 1949 1994 1964 2094 1976 1997 2013 2015 1997 1890 2061 1965 1970 2032 2018 1993 2074 2019 2051 2007 1882 1980 1940 1968 1994 2016 1966 2011 2021 1974 1960 1967 2088 1906 1960 2009 1976 1949 1979 1939 1973 1981 1995 1927 2026 2002 1909 2001 2027 1928 1967 2012 2060 1960 1968 1959 1967 2056 1898 2007 1991 2031 1872 2054 2013 1966 2087 2043 1953 1908 1975 1991 1972 2008 1929 1996 2027 1941 1971 1984 1977 2051 2047 1942 2009 1982 2006 1965 1978 2030 1965 1964 1997 2052 1955 1942 1945 1978 2027 2022 1923 1983 1948 2008 1922 2031 1936 1982 2088 1934 1933 1976 2017 1902 1934 2023 1983 1966 1973 2034 2032 2025 1903 2044 2024 2045 2012 2047 1980 1930 2088 2056 2049 1951 2022 2027 2014 2009 2063 2037 2026 1996 2019 2079 2072 2042 2107 2084 2102 2001 1983 2041 2083 2054 1952 1970 1951 1975 1991 1966 1902 2001 2018 1991 1999 2048 2023 1987 2020 1958 2010 1958 2095 1982 2007 2057 1931 1954 1965 1990 2055 1921 2027 2039 1978 2028 2066 1989 2041 2085 1986 2008 1911 1948 1997 1997 1963 2026 2014 1895 1952 1997 1992 1984 1974 1959 2031 1859 2015 2047 1998 2046 2064 1969 2045 2014 1966 1918 2082 1983 2047 1968 1958 1920 2002 1963 2001 2027 2019 2005 1988 1942 2019 2009 1941 2013 1900 2036 1903 1951 1982 2028 1986 1986 1946 1949 1993 1986 1968 2017 1989 1983 2013 1954 2042 2031 1925 1988 1972 2020 2023 1959 2125 1987 2075 2038 2031 2029 2017 1905 2089 2008 2017 2019 2041 2019 2020 2036 2024 2047 1977 2069 1999 1982 1950 2002 2059 1920 2037 1957 1981 2022 1942 2011 2048 1982 2008 1944 2048 1944 2045 2008 2009 1982 1937 2024 1908 1988 2026 1929 1943 1985 1941 2036 2070 2022 1980 2010 2083 2011 1981 1908 2017 1932 2049 2068 1979 2017 1984 1933 2006 1897 2004 1917 1932 2003 2055 2017 1915 1968 2027 1960 2011 2087 1941 1982 1965 2036 1974 2048 1982 1975 1941 1917 1991 1940 2021 2002 2008 2033 1997 2025 1985 2049 1994 2021 1986 2005 2034 2024 2009 1880 2034 2031 2010 2047 2024 2057 2027 2065 1974 1991 1991 2017 2032 2012 2018 1976 2031 2055 1972 2040 2037 1950 2027 2067 2053 2024 1961 2043 2074 2051 2017 2066 1984 2033 1999 2001 2023 1991 2026 2046 2110 2091 2058 2100 2012 2103 2001 2008 2003 2094 2173 2053 2070 2042 2041 2112 2091 2095 1978 1977 2061 2091 2033 2001 2060 2092 2048 2073 2049 2100 2071 2015 2080 2060 2068 2000 2060 2047 1910 1972 2061 2084 2075 2040 2060 2090 2047 2047 2014 2110 1992 1969 1964 2035 2042 2003 1960 2101 2042 2039 2050 2083 2074 1967 1981 2069 2034 1928 2047 2087 2048 1997 1998 2040 1967 2017 2022 2041 1956 1909 2012 2009 2010 2032 1991 2004 2038 2010 2099 2044 2032 1988 2053 2015 2018 1999 1990 2043 1968 2066 1962 2003 1989 1994 1964 1997 2017 2066 1996 2063 1971 2004 2024 2008 2046 2011 2016 2037 2024 2052 1926 1978 1937 2039 2020 1954 1986 2058 1987 2034 2050 1978 1991 2020 2050 1980 2020 2013 1968 2023 1999 2016 1939 1940 1948 2003 2022 1968 2050 2021 2008 2004 1993 2025 2006 1960 1953 2025 1987 2002 2034 1952 2029 2026 1969 1983 1995 2032 1938 1970 2007 1959 2042 2010 2078 2043 2007 1961 2002 1932 2068 1997 2016 1998 1989 1916 2030 2046 2083 1989 2101 1961 1997 2038 1971 1935 1988 1932 2050 2016 2056 1983 2068 1980 2022 1933 2082 1975 1945 1951 2023 1997 1926 1967 1947 1970 1981 1994 1999 1927 1926 2006 2039 1980 1992 2038 1950 1978 2047 2058 2095 2004 1975 2021 2054 2094 2045 2077 2061 1983 1975 2010 2010 2063 1987 2028 1929 1955 1924 1957 1955 2017 1928 1952 1987 2042 1974 2051 2016 1895 1996 2031 2024 1990 2020 2052 2031 2057 2058 2041 1971 1939 2052 1978 2015 2046 1930 2097 2013 2030 2032 1963 1967 1935 2029 2052 2067 1978 1963 1965 1980 1932 1941 1957 2018 2064 2043 1956 2066 2003 2019 2029 2042 2003 1954 1963 1995 1983 2046 2087 1931 2024 2042 2044 1984 2019 2008 1997 2075 1979 1983 1975 1977 2043 2053 2095 2052 1978 1910 2067 2033 2049 1986 2034 2097 2042 1972 1982 2034 2093 1995 1926 2078 2060 2037 1925 1944 2076 2032 2019 1904 2055 2074 1950 1910 2015 1973 2003 2039 2013 2055 2011 2010 2059 1983 1928 2014 2022 2105 1988 1922 1912 2046 2040 2072 2010 1999 1997 2033 2006 2057 2024 2063 2007 2009 2012 2010 2037 2029 2079 1988 1942 1996 1995 1949 1974 2044 1990 2047 1960 1963 1956 2065 1959 2068 2025 1988 2013 2007 2023 2006 1976 2017 2069 2044 1971 1968 2046 2026 1990 1985 1955 1967 2041 1970 2014 1997 1974 1997 1972 1993 1977 1982 1879 1982 1929 1999 2055 2029 1993 1977 2047 2043 2007 1976 1991 1978 1948 2016 2047 1953 1991 1963 1951 2033 2013 1962 1998 2007 1962 2001 2010 2007 2004 2039 2074 2060 1980 2072 1994 1993 2039 2048 2041 1991 2048 1902 2056 1916 1982 1897 2036 1934 1953 2007 1941 2090 1964 2039 1980 2075 2012 1990 2059 1993 2046 2066 2008 2033 2017 1993 2001 2049 2061 1968 1993 2067 2009 2051 2000 1992 1984 2007 1983 1969 1992 2003 2035 1979 1993 2001 2037 2023 1997 2051 1917 2029 2086 2030 2048 2053 1986 2094 2029 2097 2028 2101 2008 2012 1988 2044 1943 1988 1965 1983 2053 2018 1996 1921 1987 2010 2047 1969 1964 2082 1963 2075 1945 2016 2004 2104 2070 1936 2046 2127 2049 1958 1978 1969 2058 2014 2009 2048 2067 2022 1955 1967 1998 1931 2002 2068 1942 2018 2047 2013 1958 2001 1993 1956 2068 2016 2027 1984 1975 1998 1995 1996 1955 1979 1986 2077 1975 2063 2049 2021 1991 2021 2119 1971 1978 1983 1998 1958 1974 2046 2104 1975 2025 2016 1974 1990 2031 2055 1983 2096 1980 2096 2077 2060 2044 2118 2018 2088 1993 2056 2089 1994 1980 2042 2061 1943 1948 2031 1974 2077 2027 1963 1986 2051 1950 1992 2015 1989 2043 2005 2031 2044 2024 2034 2025 1959 2056 2036 1992 1997 1965 1982 2004 2075 2057 2010 2118 1969 2057 2003 2017 2099 2007 2058 1997 2054 2055 2076 2090 2027 2063 2048 2055 2041 2031 1977 2035 2114 2053 2083 2032 2012 2027 1973 1918 2025 2072 2011 1975 2019 2041 2038 2053 2059 1954 2117 2062 1929 2101 1988 2040 2020 2005 2019 2070 2016 2087 2033 2001 2163 2025 2089 2055 2051 2061 1906 2045 2055 2005 2111 2124 2035 2032 1984 1957 2015 2034 2083 2160 2094 2115 2088 1963 2129 2000 2076 2051 2080 2067 2075 2020 2072 2088 2085 2009 2056 2060 2098 2055 2015 2091 2140 1995 1987 2013 2152 2108 2044 2127 2033 2036 2108 1960 1958 2072 2073 1931 2091 1993 2023 2122 2069 2162 2032 2003 2003 2083 2077 2042 1992 2035 2013 2024 1997 2109 2026 1961 2013 2003 2065 2030 2081 2076 2050 2065 2054 2018 2014 1997 1936 2121 1988 2071 2032 2047 2029 2001 2028 2005 1943 2082 1922 2022 1981 1991 1967 1945 1998 2091 2029 1998 2046 2029 2113 2001 2065 2077 2077 1993 2073 2076 2013 2021 2001 2051 1961 2042 1878 2067 2104 2108 1999 2098 2039 2047 2113 2092 2066 1998 1979 2084 1994 1979 2070 2018 2061 2060 2002 1963 1999 2015 1984 2106 1922 2120 1999 2088 2095 1950 2036 1937 2081 1992 2037 2024 2042 2076 1966 2015 2033 2057 2011 2061 1977 2013 2026 2120 1986 2090 2082 2017 2041 2015 1988 2063 1984 1998 1954 2018 1981 2083 2090 2075 2020 2077 1943 2052 2014 2017 2043 1993 2018 1973 2109 1981 1980 2046 2043 2103 2034 2014 2047 2000 1959 2028 2004 2110 2078 2058 2032 1946 2096 2113 2149 2075 2121 2093 2149 2100 2132 2058 2079 1985 2035 2126 2063 2103 2060 2132 2093 2042 2153 2111 2111 2164 2136 2087 2118 2132 2068 2209 2122 2184 2254 2139 2164 2160 2117 2127 2122 2141 2203 2231 2230 2189 2186 2073 2086 2163 2209 2096 2142 2203 2087 2104 2128 2142 2166 2185 2179 2190 2097 2099 2167 2059 2090 2105 2181 2148 2173 2174 2192 2128 2127 2108 2175 2132 2174 2080 2171 2084 2223 2083 2115 2076 2160 2019 2092 2107 2207 2074 2078 2141 2054 2076 2085 2159 2075 2136 2143 2095 2028 2078 2040 2041 2055 2069 2079 2056 2082 2152 2126 1910 2054 2065 2045 2065 2103 1980 2030 2063 2015 2125 2084 2060 2081 2063 2110 2106 2081 2086 2032 2125 2075 2107 2039 2088 1990 2060 2060 2058 2097 2019 2061 2029 2070 2072 2022 2063 2024 1992 2052 2092 2004 2120 1983 2042 2026 2049 2066 2023 2040 2013 2119 2153 2141 2075 2070 2021 2033 2085 2091 2035 2062 2138 1955 2019 2114 2059 2031 2058 2021 2075 1951 2001 2031 2065 2024 1967 2047 2148 2008 2025 2004 2008 2060 2144 1995 1993 1987 2069 2007 2062 2081 2005 2096 2098 2067 2051 2042 2053 2021 2079 2009 2137 2074 2040 2040 2089 2072 2102 2115 2071 2098 2174 2092 2082 2050 2100 2074 2212 2069 2018 2104 2053 2021 2097 2048 2175 2071 2172 2117 2124 2181 2152 2144 2084 2140 2041 2110 2075 2123 2110 2138 2144 2089 2077 2129 1970 2118 2103 2071 2024 2065 2152 2117 2042 2096 2050 2087 2197 2108 2057 2054 2071 2043 2148 2061 2057 2042 2088 2165 2075 2016 2022 2010 2104 2185 2026 1999 2116 2019 2028 2033 1990 2062 2087 2014 2014 2052 2062 1985 2060 2103 2094 2028 2059 2020 2011 2095 2169 2117 2101 1984 2054 1956 2059 1974 2083 2049 2046 1979 2052 1954 2025 2036 2065 1998 1895 2018 2013 2071 1956 2056 2083 2043 2066 1980 2064 2081 2016 2045 2042 2092 1991 2006 2035 2020 2015 2026 2082 2038 2012 2028 2032 2010 2025 1945 2039 2050 1973 1965 1948 2089 2063 2022 2082 2021 2018 2004 2080 2043 2056 1992 1984 1999 2085 2033 2013 1955 2059 2002 2051 2099 2070 1988 2032 1986 2004 1970 2049 2063 2021 2100 1994 2021 1985 1940 2095 1990 1915 2056 2095 2016 2074 1949 2034 2067 2060 2027 1966 1962 2049 2057 1952 1966 1963 2010 2006 1915 2046 2101 2095 2047 1981 1973 2010 2020 2094 2051 2018 1937 2012 1984 2084 2038 1984 2024 2074 1985 2047 2055 1979 1992 2013 2052 2051 1984 2077 2119 2049 2080 2014 2083 2065 1996 2042 2060 2000 1991 2065 1959 2056 2075 1980 2008 2000 2032 1997 2003 1970 2001 2046 2019 2045 2073 1958 1973 1977 2044 2112 1956 2035 2051 2132 1994 2024 2078 2028 2034 2017 1910 2014 1964 2001 2027 1986 1910 1999 2033 1974 1990 2055 2007 2066 2018 1981 2046 2080 2081 2107 2049 1934 2002 1979 2078 1996 1939 1988 1992 1999 2002 2043 2020 2029 2061 2036 1978 2076 1999 2013 1947 1977 2027 2023 2071 2052 2014 1961 1963 1992 1970 2033 2000 1947 1937 1990 1965 2033 1974 1974 1995 1972 2028 2049 1994 1961 1993 1977 2035 2047 1958 2108 2057 1992 2028 2004 2018 1969 2028 2001 2083 2019 2024 2041 2050 2030 1967 2014 2021 1992 1972 2031 2046 1979 1919 2061 1998 1950 2067 2094 1931 2035 2049 2037 1924 2083 2006 1976 1999 2019 1963 1996 2099 1945 1999 2072 2023 2105 2037 2084 1954 2123 2056 2085 2031 2020 1998 1975 2006 1984 2063 2024 2008 2029 2027 2005 1983 2013 1981 2100 1955 2016 2091 2060 2042 1970 2010 1978 2071 2054 1969 2037 2028 1999 1999 2139 2082 2031 1930 2001 1980 1974 1953 2001 1968 2084 2067 1932 2077 1969 2050 1984 1947 2055 2010 2007 1985 2041 1994 1992 2065 2060 2031 2011 2002 2007 1968 2045 2110 2038 2094 2049 2059 2026 2088 2051 2004 2069 2074 2049 2045 1990 2042 2053 2036 1982 1926 1948 2022 2001 2145 2010 2053 2065 1975 2049 2030 1967 2017 2002 1972 2009 2042 2008 2009 2041 2015 2036 2047 2049 1999 2026 2032 2039 2006 1979 2049 1963 2112 1987 2067 2044 2084 2090 2034 1927 2039 1948 2076 2097 1991 2123 1934 2039 2018 2087 2037 2013 2110 2002 2065 2091 1986 1929 2025 1949 1964 2070 1990 2067 1989 2051 2000 1992 2039 2052 1920 2013 2080 1987 1998 2069 2089 2003 2003 2005 1996 2036 1948 2048 2046 2022 1978 2015 2066 1962 2111 2065 2102 2072 2062 1965 1978 1973 1980 1994 2090 2006 2001 2099 2018 2058 2055 2081 2057 1954 1987 1971 1979 2117 1988 1961 2031 2056 1975 2034 1949 1925 2029 2065 2007 2004 1907 2065 2001 1961 2064 1963 2020 1978 2052 2067 1969 2036 2076 1985 1990 1993 1961 2029 2048 2123 2063 2049 1966 1954 2155 2076 1978 2006 2084 1979 1977 1968 2134 2064 2068 2093 1988 2003 2007 1991 2026 2084 1928 2001 2118 1931 2076 2011 2045 1975 2029 1948 1983 2014 2022 2003 2087 1992 2003 2092 1956 1992 2119 2053 2122 1983 2044 1974 2051 2013 2036 1991 2114 2052 1984 1984 1967 1988 1973 2045 2071 2053 2094 1985 2030 2112 2028 2007 2006 2054 2044 1996 1916 1950 2055 1992 2060 2041 2080 2096 2016 1981 2014 2026 2041 1959 2094 2094 1981 1963 1997 2044 2007 2079 2034 1969 2026 1984 1983 2080 2062 1980 2085 2076 2020 2070 2102 2037 2139 2153 2023 2147 2075 2039 2006 2111 2070 2129 2154 2023 2067 2071 2094 2053 2171 2077 2167 2053 2104 2131 2085 2107 2044 2020 2129 2120 2011 2188 2056 2072 2135 2123 2084 2215 2140 2091 2145 2195 2110 2172 2047 2073 2060 2099 2077 2141 2117 2042 2003 2200 2130 2026 2103 2090 2086 2105 2149 2079 2085 2121 2056 2052 2136 2058 2142 2063 2102 2066 2069 2035 2073 2107 2175 2082 2086 2172 2045 2173 2090 2063 2063 2166 2077 2024 2075 2126 2059 2010 2007 2056 2013 2072 2089 2070 2055 2101 2148 2057 2084 2047 1968 1997 2081 2097 2114 2018 2079 1979 2048 2074 2052 2085 2129 1997 1982 2036 2005 1998 1983 2036 2044 1982 2008 2143 2046 2099 2099 1990 2120 2037 2024 1981 2155 2120 2113 2069 2068 2045 2056 2082 2081 2025 2024 2075 2077 2031 2029 2127 2047 2071 1999 2010 2080 2049 1975 2042 2030 2123 2046 2042 1984 2105 2152 2007 1962 2081 2062 1998 2169 1988 2059 2063 2048 2002 1997 2042 1979 2028 1932 2059 2022 2112 2021 2013 2062 2022 2038 1946 2098 2001 2017 1978 1975 1969 2019 1997 1969 2076 1988 2038 2054 1977 2041 2026 2011 2002 2038 2044 1981 2018 2015 2018 2025 2014 2000 2001 2029 1981 2003 2006 2088 2023 2048 1981 2045 2042 2076 2073 2015 2141 2035 2040 1884 2044 2016 2126 2033 2056 2002 2054 2006 2029 2035 2103 2079 1967 2063 2003 2128 2031 2117 2035 2046 2165 2082 1979 2031 2057 2074 2041 2074 1988 2108 2038 2007 2011 2021 2065 1911 2115 2153 2029 2065 1962 2052 2095 2127 2052 2062 1987 2058 2069 2071 2112 2039 2016 2042 2117 2013 2010 2023 2007 1997 2032 2028 2112 2088 2029 2096 2026 2003 2002 2080 2105 2015 2042 2015 2043 2071 2055 2000 2035 2033 2033 2091 2101 1952 2016 2070 2033 2033 2043 2002 2040 2015 2116 2104 1987 2070 2043 2071 2056 2021 2044 2111 1973 2130 1995 2036 2056 2083 1936 2037 2053 2058 2080 2018 2004 1998 2024 1987 2040 1956 2056 1960 2036 2056 2019 1971 2069 2035 1969 1965 2015 2114 1998 1990 1998 2028 1982 2039 2037 1993 1973 2025 2064 2049 2022 2022 2000 2101 1999 1951 2079 2033 2002 1994 2046 2080 2013 2078 2035 2045 1947 2117 1975 1979 2026 2078 2073 2111 2033 2003 2047 1998 2058 2065 2075 1927 2053 2061 2021 2052 2023 1966 2059 2026 2087 1945 1974 2033 2120 2023 2116 1953 2055 1987 1988 1954 2008 1999 1983 2049 1985 1958 2001 2046 1999 2047 1979 2069 2076 2025 2045 2047 1948 2026 2020 1979 2062 2027 2050 1959 2096 2018 2053 2053 2116 2053 2015 1976 2056 2014 1997 2103 2079 1950 2009 2049 1997 1873 2033 1971 2031 2038 2024 2143 1988 2087 2075 2001 2024 2003 2075 2040 2089 1990 2017 1986 1998 2041 2070 2023 2035 1901 2064 2013 2024 1995 2066 2039 2019 2041 2025 2007 2032 2013 2042</counts>
			</dataPoints>
		</scan>
	</xrdMeasurement>
</xrdMeasurements>
