<?xml version="1.0"?>
<xrdMeasurements xmlns="http://www.xrdml.com/XRDMeasurement/2.3" xmlns:xsi="http://www.w3.org/2001/XMLSchema-instance" xsi:schemaLocation="http://www.xrdml.com/XRDMeasurement/2.3 http://www.xrdml.com/XRDMeasurement/2.3/XRDMeasurement.xsd" status="Completed" recordIdentifier="{F2E82773-E178-4A91-A9D3-2C548155DDB9}">
	<comment>
		<entry/>
	</comment>
	<sample type="To be analyzed">
		<id>GPSS_Li1p4Mg0p8Ta0p17Sc0p05Cl4_121225_693c5ab8f4d05ae3d6974f24</id>
		<name></name>
		<preparedBy></preparedBy>
	</sample>
	<xrdMeasurement measurementType="Scan" status="Completed" sampleMode="Reflection">
		<usedWavelength intended="K-Alpha 1">
			<kAlpha1 unit="Angstrom">1.5405980</kAlpha1>
			<kAlpha2 unit="Angstrom">1.5444260</kAlpha2>
			<kBeta unit="Angstrom">1.3922500</kBeta>
			<ratioKAlpha2KAlpha1>0.5000</ratioKAlpha2KAlpha1>
		</usedWavelength>
		<incidentBeamPath>
			<radius unit="mm">145.00</radius>
			<xRayTube id="1010048" name="Empyrean Cu LFF HR (9430 033 7310x)">
				<tension unit="kV">40.0</tension>
				<current unit="mA">15.0</current>
				<anodeMaterial>Cu</anodeMaterial>
				<focus type="Line">
					<length unit="mm">12.0</length>
					<width unit="mm">0.4</width>
					<takeOffAngle unit="deg">6.0</takeOffAngle>
				</focus>
			</xRayTube>
			<sollerSlit id="21010002" name="Soller slits 0.04 rad.">
				<opening unit="rad">0.0400</opening>
			</sollerSlit>
			<mask id="22031000" name="Fixed mask 13 mm">
				<width unit="mm">9.00</width>
			</mask>
			<divergenceSlit id="22120001" name="Divergence slit 1°" xsi:type="fixedDivergenceSlitType">
				<distanceToSample unit="mm">50.00</distanceToSample>
				<height unit="mm">1.52</height>
			</divergenceSlit>
		</incidentBeamPath>
		<sampleMovement xsi:type="spinningSampleMovementType">
			<spinnerRevolutionTime unit="seconds">1.0</spinnerRevolutionTime>
		</sampleMovement>
		<diffractedBeamPath>
			<radius unit="mm">145.00</radius>
			<antiScatterSlit id="22090040" name="AS slit 9 mm (PIXcel)" xsi:type="fixedAntiScatterSlitType">
				<height unit="mm">9.00</height>
			</antiScatterSlit>
			<sollerSlit id="21020003" name="Large Soller slits 0.04 rad.">
				<opening unit="rad">0.0400</opening>
			</sollerSlit>
			<filter id="20030001" name="Large beta-filter Nickel">
				<material>Ni</material>
				<thickness unit="mm">0.020</thickness>
			</filter>
			<detector id="7010019" name="PIXcel1D-Medipix3 detector" xsi:type="rtmsDetectorType">
				<phd unit="keV">
					<lowerLevel>4.02</lowerLevel>
					<upperLevel>11.27</upperLevel>
				</phd>
				<mode>Scanning</mode>
				<activeLength unit="deg">5.542</activeLength>
			</detector>
		</diffractedBeamPath>
		<scan appendNumber="0" mode="Continuous" scanAxis="Gonio" status="Completed">
			<header>
				<startTimeStamp>2025-12-16T11:43:15-08:00</startTimeStamp>
				<endTimeStamp>2025-12-16T11:51:23-08:00</endTimeStamp>
				<author>
					<name>AutomatedUser</name>
				</author>
				<source>
					<applicationSoftware version="1.7b (136)">PANalytical Aeris Instrument Suite</applicationSoftware>
					<instrumentControlSoftware version="3.2.00000000 20240306">AERIS</instrumentControlSoftware>
					<instrumentID>950485</instrumentID>
				</source>
			</header>
			<dataPoints>
				<positions axis="2Theta" unit="deg">
					<startPosition>10.00943322</startPosition>
					<endPosition>99.99442286</endPosition>
				</positions>
				<positions axis="Omega" unit="deg">
					<startPosition>5.00471661</startPosition>
					<endPosition>49.99721143</endPosition>
				</positions>
				<commonCountingTime unit="seconds">12.495</commonCountingTime>
				<counts unit="counts">2922 2906 3026 2875 2967 2883 2997 2922 3049 2831 3030 2956 2937 2883 2904 3008 2945 2946 2842 2913 2914 2903 2904 2908 2969 3091 2919 2900 2965 2869 2839 3005 3072 2922 2900 2910 2944 2902 3036 3105 3028 2940 2897 3045 2998 2919 2930 2966 2894 3006 3008 3160 2985 2957 3040 3065 2959 2969 3027 2891 3037 2923 3021 3024 3069 2994 3107 2987 3048 2966 3004 2998 3075 2981 2983 3069 2920 3052 2933 3027 2928 2987 3064 3060 3079 2946 3049 2995 3025 3018 3028 2921 3029 2968 2979 3021 3030 2925 2974 3005 2984 3050 2871 3072 3047 3047 3017 2920 2956 2996 3086 3063 3079 3005 3115 2990 3017 2992 3032 2957 2984 3036 3041 2995 3032 3067 3124 2899 3065 2973 3026 3061 3062 3015 2987 3097 3089 3042 3019 3044 3141 3106 3083 3029 3043 3072 2999 3095 3010 3044 3075 3086 3054 3009 3065 2967 3030 2978 3104 3033 2948 2966 3041 2996 3048 2924 2986 3029 3044 3145 3158 3000 2922 2965 3058 2973 3106 3039 3042 2983 2890 3011 3017 2996 3031 2925 3089 3000 3012 2870 2991 3069 2922 2894 2937 3037 3058 2881 2969 2907 3022 2935 3031 2997 2961 2917 2956 2910 3020 2834 2893 2802 2910 2960 2877 2981 2852 2843 2911 2940 3012 2975 2951 2796 2942 2934 3001 3046 2952 2888 2938 2915 2946 2950 2951 3007 2948 2901 2976 2861 2907 2846 2900 2902 2899 2921 2937 2890 2923 2805 2836 2726 2833 2860 2804 2749 2904 2898 2892 2847 2885 2767 2872 2930 2793 2845 2888 2850 2906 2892 2829 2832 2810 2863 2823 2826 2914 2723 2928 2990 2878 2846 2831 2776 3043 2889 2732 2836 2848 2863 2752 2829 2842 2834 2896 2758 2896 2827 2862 2864 2847 2872 2910 2829 2863 2805 2932 2810 2798 2878 2819 2836 2857 2896 2909 2904 2840 2815 2861 2883 2914 2838 2941 2963 2954 2903 2835 2824 2917 2911 2977 2864 2959 2888 2822 2869 2904 2958 2940 3002 3013 2951 2905 2949 2979 2947 3031 2946 2967 3013 2997 2937 3009 3023 2944 2869 3069 3023 3021 3019 2973 2919 3050 3114 3078 3059 2920 3064 3038 3042 3054 3030 3062 3146 3116 3125 3020 3062 3099 3094 3001 3148 3059 3195 3022 3069 3143 3059 3141 3121 3083 3123 3180 3199 3266 3282 3127 3119 3143 3169 3164 3240 3258 3382 3286 3255 3218 3274 3257 3309 3372 3264 3272 3298 3356 3360 3292 3490 3407 3450 3555 3509 3548 3539 3557 3603 3627 3701 3715 3805 3912 3931 3814 4107 3849 3944 3962 3921 4157 4251 4159 4242 4372 4299 4342 4329 4407 4656 4851 4770 4860 4908 5040 5011 5150 5111 5228 5438 5505 5423 5581 5482 5411 5583 5640 5559 5731 5714 5727 5660 5521 5741 5825 5613 5678 5751 5709 5738 5758 5592 5658 5612 5456 5525 5337 5369 5376 5466 5379 5351 5182 5190 5260 5105 5014 4983 4921 4870 4742 4523 4501 4360 4303 4204 4152 3968 3927 3616 3674 3691 3664 3502 3373 3494 3378 3207 3234 3117 3211 3075 3130 3144 3111 3057 3016 3032 3006 3042 3018 2987 3034 2975 2870 3013 2982 2829 2982 2844 2929 3009 2989 2967 2982 2953 2942 2890 2887 2880 2833 2823 2887 2878 2930 2760 2804 2916 2837 2920 2821 2869 2873 2839 2808 2908 2792 2886 2891 2800 2835 2813 2758 2773 2753 2731 2742 2782 2749 2840 2793 2849 2720 2872 2751 2793 2695 2756 2755 2720 2684 2711 2740 2730 2709 2692 2706 2668 2749 2745 2759 2685 2805 2750 2725 2708 2614 2704 2718 2660 2688 2590 2697 2647 2609 2590 2646 2673 2659 2644 2625 2692 2670 2685 2798 2700 2576 2572 2610 2626 2650 2747 2548 2708 2609 2599 2688 2646 2597 2706 2684 2544 2632 2624 2669 2689 2607 2587 2670 2596 2610 2637 2649 2605 2493 2574 2532 2631 2596 2572 2532 2553 2555 2605 2545 2646 2568 2553 2597 2567 2545 2585 2580 2533 2624 2555 2562 2597 2515 2628 2694 2608 2541 2655 2592 2567 2539 2579 2627 2544 2595 2582 2599 2517 2595 2565 2535 2513 2476 2565 2586 2515 2472 2473 2504 2495 2455 2536 2526 2615 2488 2563 2616 2468 2507 2456 2574 2560 2390 2501 2409 2520 2542 2428 2462 2453 2499 2475 2568 2472 2520 2530 2456 2469 2432 2565 2601 2478 2434 2440 2545 2462 2500 2560 2487 2495 2450 2489 2406 2465 2530 2504 2573 2406 2423 2516 2490 2446 2404 2471 2478 2460 2372 2485 2405 2478 2461 2487 2441 2437 2404 2461 2535 2510 2367 2499 2354 2448 2454 2431 2351 2474 2422 2482 2416 2412 2395 2492 2448 2459 2437 2416 2367 2502 2412 2410 2313 2479 2344 2341 2416 2312 2418 2425 2364 2305 2405 2386 2384 2448 2408 2402 2376 2406 2411 2511 2345 2380 2397 2362 2400 2405 2361 2381 2431 2393 2288 2410 2349 2370 2309 2435 2326 2299 2305 2359 2302 2374 2327 2347 2425 2310 2337 2379 2332 2322 2378 2355 2300 2338 2292 2280 2306 2306 2296 2310 2440 2324 2346 2333 2235 2341 2304 2295 2316 2331 2348 2264 2327 2346 2324 2298 2306 2209 2335 2376 2251 2349 2294 2215 2271 2302 2243 2392 2278 2376 2215 2354 2271 2238 2304 2246 2281 2319 2292 2277 2336 2310 2260 2278 2252 2193 2259 2215 2306 2256 2261 2262 2270 2270 2368 2275 2276 2270 2229 2275 2346 2291 2257 2189 2213 2133 2250 2304 2273 2227 2195 2261 2239 2214 2209 2287 2158 2299 2282 2246 2315 2238 2265 2185 2241 2225 2157 2205 2292 2166 2186 2245 2160 2140 2141 2245 2211 2165 2195 2168 2203 2155 2215 2226 2245 2196 2312 2190 2235 2205 2300 2141 2187 2185 2154 2242 2225 2115 2194 2215 2134 2201 2230 2218 2325 2170 2233 2191 2186 2179 2170 2196 2188 2200 2208 2172 2179 2125 2217 2242 2182 2118 2186 2226 2195 2144 2128 2193 2170 2118 2158 2238 2214 2160 2126 2213 2152 2204 2206 2157 2111 2204 2259 2143 2273 2199 2151 2212 2279 2167 2170 2244 2264 2229 2285 2167 2179 2239 2202 2201 2342 2155 2209 2274 2190 2251 2136 2176 2232 2234 2153 2197 2148 2167 2223 2152 2215 2129 2224 2137 2261 2255 2269 2064 2221 2263 2227 2316 2177 2259 2134 2209 2116 2208 2181 2208 2181 2241 2199 2271 2195 2178 2217 2201 2163 2259 2209 2247 2261 2205 2247 2118 2133 2147 2229 2167 2230 2232 2157 2226 2162 2166 2225 2220 2223 2209 2180 2267 2257 2171 2192 2162 2280 2150 2121 2261 2235 2157 2170 2109 2184 2224 2089 2215 2203 2124 2178 2190 2203 2185 2104 2170 2157 2207 2150 2135 2122 2167 2129 2228 2127 2172 2201 2120 2219 2148 2165 2144 2104 2145 2114 2135 2076 2136 2119 2059 2110 2146 2088 2080 2156 2067 2069 2187 2147 2003 2140 2103 2016 2106 2030 2124 2130 2019 2091 2042 2096 2035 2088 2004 2104 2145 2090 2073 1968 1976 1972 2013 2021 2005 1973 1999 2035 1999 1930 1947 1971 2038 1952 2063 1884 2070 1980 1942 1984 2001 1923 1922 2015 1999 1911 1913 2025 1985 1991 1907 1932 1983 1906 1942 1937 1938 1840 1902 1896 1888 1875 1954 1909 1876 1924 1926 1929 1896 1800 1838 1876 1868 1816 1870 1857 1814 1840 1888 1810 1859 1828 1806 1812 1728 1724 1855 1917 1870 1850 1851 1764 1863 1832 1809 1798 1718 1712 1791 1810 1703 1756 1697 1796 1728 1758 1757 1732 1729 1841 1734 1812 1755 1847 1694 1719 1710 1657 1693 1754 1687 1725 1716 1738 1701 1692 1688 1743 1755 1722 1763 1759 1757 1664 1753 1705 1742 1714 1711 1587 1640 1658 1704 1731 1663 1699 1676 1663 1683 1738 1672 1615 1659 1675 1754 1668 1677 1555 1657 1710 1726 1686 1705 1673 1680 1767 1703 1703 1663 1551 1621 1595 1581 1579 1598 1584 1621 1606 1685 1647 1584 1581 1573 1627 1614 1656 1632 1634 1606 1681 1613 1640 1654 1659 1553 1572 1560 1632 1570 1659 1628 1690 1637 1528 1579 1685 1675 1658 1648 1649 1571 1568 1533 1636 1624 1507 1545 1513 1681 1605 1581 1606 1629 1645 1650 1614 1655 1609 1523 1592 1601 1613 1594 1640 1620 1692 1564 1582 1602 1586 1561 1586 1589 1621 1577 1593 1506 1567 1562 1647 1593 1615 1572 1567 1582 1607 1563 1574 1604 1541 1545 1548 1624 1508 1594 1573 1549 1600 1587 1576 1605 1535 1616 1600 1610 1637 1650 1628 1573 1611 1574 1608 1605 1651 1591 1560 1604 1605 1572 1595 1555 1630 1536 1613 1610 1707 1693 1627 1578 1642 1593 1557 1591 1538 1668 1509 1650 1645 1575 1637 1655 1679 1652 1611 1636 1558 1619 1634 1564 1580 1576 1533 1545 1596 1697 1568 1537 1541 1587 1603 1629 1742 1643 1616 1651 1562 1624 1553 1573 1640 1613 1616 1612 1555 1557 1609 1621 1605 1561 1606 1621 1609 1531 1649 1515 1576 1503 1581 1563 1563 1562 1613 1509 1556 1603 1558 1608 1500 1520 1505 1590 1597 1666 1508 1532 1590 1536 1603 1589 1546 1529 1551 1575 1498 1570 1467 1567 1580 1514 1523 1542 1492 1509 1518 1545 1490 1579 1488 1511 1516 1501 1563 1478 1515 1488 1529 1445 1432 1479 1431 1453 1560 1472 1431 1481 1504 1457 1411 1466 1492 1416 1514 1487 1530 1521 1429 1425 1440 1463 1377 1351 1420 1449 1426 1444 1423 1380 1434 1413 1431 1451 1410 1431 1413 1422 1415 1368 1425 1358 1407 1387 1410 1344 1359 1444 1333 1337 1425 1395 1346 1364 1384 1392 1418 1344 1368 1313 1392 1366 1329 1324 1309 1381 1352 1369 1312 1315 1280 1303 1319 1317 1254 1301 1331 1317 1312 1235 1310 1296 1301 1273 1289 1288 1309 1334 1313 1240 1263 1295 1213 1307 1272 1245 1322 1243 1296 1217 1313 1250 1259 1199 1279 1267 1231 1305 1322 1282 1322 1298 1250 1285 1321 1280 1359 1321 1307 1403 1335 1440 1393 1428 1369 1472 1420 1450 1465 1541 1418 1457 1433 1513 1450 1450 1392 1467 1359 1431 1479 1514 1406 1472 1451 1475 1444 1518 1432 1544 1441 1483 1460 1478 1483 1521 1518 1483 1471 1423 1472 1486 1460 1432 1446 1441 1486 1442 1437 1348 1422 1337 1404 1407 1325 1327 1308 1356 1371 1293 1308 1275 1288 1278 1251 1257 1327 1332 1326 1321 1268 1325 1304 1288 1288 1240 1200 1247 1344 1231 1259 1258 1317 1209 1255 1204 1303 1244 1313 1250 1255 1317 1283 1270 1247 1314 1328 1341 1371 1378 1414 1499 1430 1562 1628 1625 1673 1694 1881 1975 2096 2203 2382 2541 2722 2854 3123 3475 3515 3785 3963 4205 4284 4516 4537 4651 4715 4803 4712 4794 4758 4577 4499 4536 4596 4544 4406 4501 4614 4492 4650 4680 4852 5066 4981 5216 5378 5401 5583 5725 5855 5908 6238 6239 6293 6343 6417 6268 6333 6199 6077 5779 5792 5424 5342 5175 4876 4924 4491 4262 4091 4094 3919 3747 3662 3570 3414 3392 3117 3320 3203 3057 3088 2959 2984 2944 2821 2873 2843 2687 2660 2733 2618 2545 2547 2540 2480 2553 2424 2348 2354 2359 2283 2247 2275 2197 2062 2048 2037 1974 1959 1881 1963 1875 1769 1811 1793 1771 1695 1664 1619 1607 1574 1508 1423 1322 1436 1330 1366 1285 1245 1142 1249 1152 1124 1148 1084 1142 1053 1106 1090 1022 1030 1045 1110 1066 1042 1090 999 1022 1068 1024 997 971 1087 1028 982 1053 986 1007 1000 1063 1029 1015 1005 937 1018 990 1025 996 927 997 1009 954 916 984 948 933 974 981 971 907 993 984 952 994 974 993 942 1006 984 928 943 941 964 992 984 1016 893 1019 960 898 1035 942 937 945 914 1023 962 950 957 958 956 957 921 1013 1057 1033 993 1067 1089 1044 1074 1012 1062 1031 1051 1004 1008 1002 1015 1002 1006 1030 965 994 978 916 999 971 959 952 940 975 955 964 962 905 910 879 982 934 1023 939 948 909 953 919 898 929 914 962 870 918 916 892 901 909 910 955 893 896 856 888 883 919 835 911 889 911 904 863 860 862 899 854 839 855 849 888 848 808 848 902 874 871 913 853 869 856 851 828 868 866 852 859 830 827 831 853 834 871 828 872 866 854 808 849 819 900 881 817 894 851 827 833 849 836 847 893 813 902 833 784 867 893 870 849 896 832 890 813 862 746 811 786 812 843 807 838 853 795 833 823 864 863 832 830 867 805 882 772 843 911 833 872 810 860 878 778 848 877 818 840 870 839 821 867 901 836 848 825 847 891 910 899 884 829 854 848 940 894 904 847 891 842 899 826 904 866 879 918 858 860 927 931 904 873 926 928 899 898 976 904 939 960 960 947 983 988 895 951 997 951 987 989 998 1003 1060 1079 1059 1096 1096 1116 1145 1180 1256 1196 1346 1388 1480 1465 1583 1701 1763 1814 1920 2063 2269 2430 2624 2724 2950 3089 3272 3598 3729 3792 3887 4056 4167 4196 4203 4213 4173 4180 4113 4090 3994 3883 3811 3902 3936 3852 3763 3846 3801 3788 3872 3890 3933 4007 3955 4062 4052 4280 4441 4486 4644 4709 4742 4892 4833 5053 4966 4959 5167 5209 5197 5131 5058 4941 4783 4974 4867 4585 4389 4423 4176 3978 3863 3720 3441 3439 3328 3178 3081 2977 2854 2848 2677 2685 2623 2646 2629 2613 2420 2649 2408 2377 2426 2391 2332 2370 2305 2328 2338 2122 2091 2027 2006 1998 1850 1785 1861 1761 1730 1625 1519 1393 1409 1385 1361 1300 1175 1180 1097 1075 1061 1049 1013 962 904 867 942 931 910 892 846 870 864 814 896 871 818 772 797 806 822 857 832 821 805 776 826 826 786 790 793 764 811 819 775 820 793 815 815 754 816 825 755 830 809 730 770 800 776 765 772 746 760 741 776 798 746 769 739 712 760 760 764 733 774 767 761 758 787 728 716 769 749 747 695 747 787 755 702 786 760 735 734 768 717 678 743 736 716 760 686 691 663 728 736 748 737 758 714 718 777 706 755 744 688 735 704 747 716 787 712 727 701 728 702 711 727 715 717 726 699 687 703 744 683 737 686 695 728 705 710 679 701 729 740 679 711 708 720 685 703 725 705 696 680 713 715 724 678 747 693 685 708 661 671 708 669 672 720 674 695 661 708 707 670 694 667 680 702 692 723 708 714 726 716 696 665 673 682 707 666 720 681 686 650 644 664 672 704 640 701 658 699 652 668 678 670 664 699 695 693 665 604 716 659 686 683 706 688 643 661 632 670 667 664 636 644 690 649 677 651 655 618 700 669 671 688 694 598 725 641 656 615 668 660 671 654 652 641 711 647 644 671 665 645 658 670 668 644 655 676 663 679 656 661 671 624 604 676 656 641 685 627 688 650 636 620 630 639 654 667 612 642 628 610 644 624 585 630 598 632 641 574 627 660 630 610 646 652 615 626 629 596 619 601 636 595 671 610 645 632 620 610 617 610 611 639 590 650 576 621 566 658 536 615 621 658 610 605 624 607 593 615 604 615 613 627 597 555 561 582 569 641 547 639 597 594 573 604 593 630 571 600 585 575 600 617 607 642 654 569 596 638 635 574 613 606 583 563 624 541 563 593 588 627 562 587 599 602 557 612 597 632 563 563 567 587 557 591 579 571 568 610 551 517 585 582 575 601 584 566 590 570 542 589 562 547 620 551 598 530 582 615 561 563 554 569 560 544 558 583 575 552 551 530 572 554 545 576 556 577 580 593 566 539 550 557 543 588 564 564 550 524 530 565 545 561 615 570 513 568 616 540 595 613 561 529 568 569 606 552 592 548 557 519 581 577 545 568 544 524 568 540 574 547 548 540 592 581 528 564 559 487 522 525 560 571 596 549 555 604 542 586 603 574 530 569 580 544 568 554 557 530 558 516 513 529 559 519 547 513 553 571 559 561 561 559 588 585 557 551 537 576 560 537 582 535 599 522 521 556 512 582 529 570 529 566 551 573 549 587 557 564 543 556 513 556 520 536 584 544 553 550 589 544 548 582 581 566 620 623 577 610 594 659 601 650 615 665 654 626 662 602 670 617 610 648 617 596 622 593 635 612 613 618 588 554 605 580 609 586 586 604 515 569 590 601 585 568 561 548 583 557 573 559 552 539 530 573 514 522 589 547 570 551 538 553 524 545 511 522 550 534 547 537 506 577 507 551 522 504 521 508 542 517 582 571 499 509 531 501 495 519 529 549 531 552 504 549 503 476 483 540 553 485 563 481 581 473 571 472 511 498 494 512 522 534 515 459 526 495 504 535 531 486 561 520 554 529 510 512 542 534 515 504 525 480 554 544 530 515 542 535 522 533 530 496 501 536 492 497 508 548 530 537 495 547 538 559 507 527 513 513 502 520 508 529 481 551 474 520 560 502 497 506 524 548 531 506 528 521 511 535 582 488 489 495 523 516 533 504 547 494 506 517 491 497 502 524 494 490 483 512 509 512 509 534 509 483 502 485 494 539 514 545 481 535 547 472 546 495 483 495 504 529 488 498 490 444 492 467 501 520 505 529 516 500 530 491 522 505 490 472 520 476 487 531 458 455 476 517 483 529 512 479 488 501 431 495 565 475 486 559 550 479 488 482 545 485 506 492 525 500 517 485 474 536 488 479 483 461 511 476 481 540 521 491 525 479 528 504 493 534 489 488 471 507 465 460 490 521 535 553 500 517 494 510 501 576 530 462 529 509 509 561 539 547 500 528 521 486 504 528 506 498 525 526 524 517 543 537 535 541 560 575 555 536 598 583 647 560 598 598 620 680 652 670 689 689 748 739 792 796 781 858 828 792 795 862 867 840 818 861 852 819 783 797 787 828 785 836 779 766 748 765 740 747 774 749 758 729 783 717 742 758 710 703 717 690 714 697 713 694 708 685 652 661 600 615 683 649 617 658 597 632 588 607 613 567 625 601 589 654 662 642 656 647 703 679 684 726 681 722 659 735 696 772 760 711 719 687 689 718 732 703 659 656 651 653 671 650 617 653 594 613 613 639 608 586 615 600 554 599 595 547 579 552 572 552 530 579 543 583 466 528 517 536 535 539 532 549 532 551 520 566 507 509 491 471 510 511 462 452 537 500 497 515 518 495 520 495 512 498 497 474 507 505 498 449 504 498 483 524 465 545 518 512 500 466 481 497 441 475 475 427 445 470 440 534 467 474 501 464 470 455 497 492 486 485 490 456 470 461 511 467 456 472 446 469 506 518 484 464 458 479 417 445 487 464 518 461 436 452 425 497 458 505 480 426 467 497 524 478 458 476 495 468 493 497 482 485 495 489 487 495 445 530 495 483 502 464 508 460 461 487 513 495 485 492 501 524 454 499 513 526 488 517 498 464 456 493 510 508 454 504 474 486 493 514 489 483 529 473 477 461 500 547 518 487 515 519 481 511 502 491 473 479 482 494 520 545 466 525 528 489 479 500 507 491 491 501 519 485 514 525 459 534 503 490 548 477 538 490 533 481 523 506 526 476 509 529 469 514 516 483 502 501 505 530 533 527 522 496 537 518 524 482 538 510 490 520 480 554 502 484 479 517 533 470 509 533 506 503 534 504 524 568 535 497 563 523 527 569 565 563 544 539 550 575 567 633 585 595 589 605 616 655 649 639 666 701 661 725 770 691 770 808 882 898 922 1030 1036 1151 1214 1354 1373 1568 1611 1747 1952 1986 2143 2293 2461 2495 2594 2666 2622 2706 2832 2764 2695 2833 2750 2760 2650 2669 2738 2708 2644 2591 2598 2487 2471 2435 2399 2435 2370 2432 2313 2391 2361 2463 2328 2264 2264 2294 2181 2154 2107 2078 2125 2057 2013 1934 1900 1896 1879 1842 1791 1913 1753 1820 1863 1818 1832 1862 1933 1826 1944 1843 1914 1953 1962 1871 1875 1799 1867 1858 1776 1802 1792 1816 1733 1826 1723 1729 1758 1725 1765 1672 1725 1604 1722 1686 1795 1692 1680 1696 1602 1578 1583 1580 1492 1446 1447 1433 1366 1382 1405 1329 1322 1210 1308 1238 1264 1195 1191 1177 1090 1151 1056 1062 987 1044 1013 972 992 957 892 875 862 905 817 810 798 748 768 747 738 730 672 683 754 637 629 569 613 646 563 572 573 530 558 576 522 568 527 551 518 564 527 512 553 527 544 539 505 534 488 518 534 515 509 548 478 493 472 522 484 506 455 486 527 541 485 533 479 447 489 454 485 491 455 476 494 505 461 481 469 460 496 512 511 528 463 475 470 497 456 485 473 447 487 463 481 489 473 505 479 485 507 543 504 488 515 545 509 531 518 579 563 604 548 579 573 555 609 598 630 658 622 592 605 601 623 598 612 567 582 614 580 613 634 594 619 587 604 597 630 577 579 589 558 590 573 581 549 556 574 560 549 542 531 516 524 571 523 485 565 541 549 550 535 549 529 504 519 515 527 569 552 565 578 557 565 549 581 614 565 542 539 549 587 517 608 559 522 536 593 557 535 538 547 581 531 537 497 529 529 555 522 513 503 525 502 514 517 497 490 488 486 514 515 463 528 467 490 492 447 469 466 449 502 440 471 440 443 446 453 467 499 444 441 428 478 404 450 466 464 526 435 449 488 450 472 455 475 455 453 424 441 437 435 467 389 440 445 441 414 473 435 481 424 439 420 435 485 443 445 430 447 431 461 437 453 456 450 424 436 433 462 451 441 463 456 447 424 468 428 399 461 441 433 473 450 472 423 444 435 451 461 444 441 449 465 469 437 428 421 434 418 458 444 434 430 435 447 454 467 419 456 417 438 434 415 449 451 423 441 420 450 473 473 451 434 421 423 452 454 466 447 434 409 416 444 441 457 460 414 465 481 412 468 433 439 470 464 457 444 482 497 483 436 536 483 489 511 491 504 511 486 460 484 489 463 528 499 448 462 453 477 473 500 506 466 480 443 438 441 470 434 480 445 453 449 448 456 407 406 440 424 433 425 443 426 430 409 442 449 457 466 433 434 474 409 412 444 426 432 412 426 401 418 433 395 418 403 400 411 453 412 418 411 433 443 435 434 432 424 426 436 442 438 403 414 438 427 423 403 446 442 422 398 420 413 364 426 426 445 405 428 426 444 436 418 435 440 418 424 407 413 435 376 431 398 401 410 421 447 430 404 384 422 386 453 409 439 395 399 401 432 444 431 414 402 444 402 402 408 405 410 395 419 408 478 384 447 387 405 445 419 415 479 413 427 413 412 407 419 428 420 415 420 431 415 405 391 413 414 421 431 440 417 402 429 424 395 418 430 440 442 408 409 413 433 427 387 458 439 453 416 406 418 415 401 391 392 423 389 434 408 428 407 419 403 413 426 408 401 393 386 422 452 406 451 415 426 405 375 442 399 396 390 401 423 396 405 429 439 431 426 450 415 408 437 433 407 429 372 403 360 380 371 401 429 391 427 397 446 405 422 400 395 385 418 383 414 410 404 397 394 406 356 416 386 430 400 371 371 380 423 394 386 392 359 410 398 415 409 349 397 379 412 419 444 383 429 402 416 376 396 372 419 412 389 403 419 403 391 419 405 415 420 420 415 422 427 416 384 406 416 410 420 409 434 406 442 383 419 437 426 428 426 429 400 387 417 439 421 445 427 471 417 435 432 400 435 457 457 441 441 441 446 435 472 440 422 437 471 449 457 450 470 457 513 435 445 438 465 482 452 496 473 477 494 470 496 489 522 507 494 549 556 631 598 569 643 609 729 705 746 756 811 855 908 888 969 987 999 1078 1080 1123 1065 1163 1131 1109 1106 1188 1142 1117 1207 1127 1089 1168 1114 1094 1182 1108 1079 1098 1112 1094 1117 1057 1014 1049 1004 1077 993 932 980 967 856 877 860 872 827 844 804 741 725 734 712 726 717 691 695 710 660 697 660 643 701 656 687 659 651 658 669 676 668 723 756 781 825 800 761 759 839 793 826 788 787 832 899 811 869 841 897 810 850 831 848 843 829 766 806 787 787 763 760 810 765 725 704 737 703 741 737 723 643 650 684 716 624 642 649 625 628 629 596 602 541 613 557 549 514 502 520 515 571 442 533 501 477 474 487 444 538 456 497 438 481 447 440 434 481 429 413 412 462 424 406 416 375 414 412 434 428 419 445 426 405 371 433 396 384 417 379 413 395 368 351 392 389 363 406 401 407 368 407 371 396 413 402 371 370 384 388 362 369 392 375 372 398 370 352 373 393 347 388 350 414 386 373 428 414 385 336 383 371 361 371 383 406 416 345 388 374 336 398 383 391 419 350 405 378 370 380 415 393 405 386 395 409 392 408 393 403 401 398 407 369 407 388 445 454 425 396 449 376 436 423 451 441 463 453 476 485 467 522 543 541 543 560 588 667 654 721 776 759 806 834 862 954 901 991 1018 1081 1024 1026 1049 1036 1036 1047 1030 948 962 965 1088 1011 1017 1093 1011 1049 1044 1008 980 1024 962 1030 938 956 923 960 934 876 859 841 790 811 794 778 756 739 698 630 689 677 670 650 595 606 632 591 594 612 597 584 577 581 585 571 561 526 600 531 583 533 594 559 636 613 592 652 646 664 719 693 691 712 696 720 709 746 686 682 717 708 765 718 718 805 753 687 726 757 686 671 710 712 669 652 643 653 592 628 645 604 613 612 605 603 594 609 583 578 611 578 615 586 585 616 639 652 629 615 624 656 673 636 692 564 656 672 651 605 594 601 573 639 558 590 592 549 585 592 634 626 573 588 572 555 543 504 526 518 540 470 516 466 475 454 475 457 457 501 484 455 429 411 405 424 467 393 434 398 399 399 385 398 406 420 411 381 428 398 420 406 394 376 410 413 455 391 456 414 405 443 462 438 437 498 482 463 419 470 463 426 465 458 469 469 496 455 443 449 465 438 432 457 448 453 459 475 441 430 450 428 380 458 370 436 411 428 412 406 395 412 391 424 406 389 373 376 408 334 382 412 388 383 381 386 371 340 406 347 345 360 340 357 407 364 360 385 319 326 359 353 390 348 344 346 369 362 377 357 315 332 353 364 328 345 336 338 383 370 330 364 353 368 326 377 345 373 337 369 356 356 350 348 381 402 355 362 379 378 373 378 380 386 423 421 406 428 406 443 418 420 436 402 407 413 427 420 401 412 427 395 391 422 466 451 421 399 428 405 403 431 439 407 425 398 403 378 378 365 390 329 374 363 374 356 359 393 378 379 385 365 370 357 369 368 350 380 347 373 361 335 333 318 331 344 338 319 338 324 339 340 348 331 362 332 330 330 314 297 321 335 342 317 376 306 320 344 333 296 340 299 311 290 311 324 333 318 326 345 325 313 327 316 335 289 314 295 306 310 339 297 310 275 303 320 328 331 309 285 295 357 307 316 317 323 311 316 299 296 319 286 286 292 313 314 327 304 284 306 318 300 327 309 326 344 329 334 302 302 313 293 318 322 319 326 298 296 329 342 330 316 322 306 319 299 330 311 309 288 320 283 307 321 276 327 338 330 317 340 302 273 317 306 289 321 306 292 291 337 321 355 300 347 328 313 336 303 291 292 287 323 299 300 309 348 309 312 266 343 311 302 306 275 301 301 314 296 320 322 300 299 303 287 284 326 312 301 322 316 305 284 297 330 312 297 328 306 299 307 292 317 310 349 317 292 304 285 274 311 303 308 290 301 275 292 286 292 273 277 309 295 316 301 334 288 281 291 287 326 326 285 291 306 266 297 292 240 300 310 299 289 260 296 308 310 310 321 293 286 302 284 289 271 325 303 316 316 308 288 309 314 267 270 276 303 275 325 276 273 304 277 270 306 322 283 268 302 312 300 293 279 322 277 294 289 305 306 243 311 282 284 311 282 301 281 270 306 315 295 275 290 269 280 305 293 287 269 314 275 280 284 288 289 313 296 296 323 296 294 270 320 291 293 303 276 310 298 284 275 277 308 286 307 315 318 276 298 309 302 305 320 306 310 294 328 322 319 334 305 323 345 396 310 355 366 338 372 343 369 325 331 338 347 374 376 381 349 386 357 361 373 391 392 347 390 378 399 350 395 358 352 390 344 330 350 361 365 364 329 333 331 314 303 346 341 284 337 332 335 311 299 311 319 297 278 295 325 339 330 290 318 320 293 303 287 304 319 311 307 273 312 319 304 321 297 299 309 299 291 323 276 266 315 296 280 262 287 285 271 297 271 338 285 290 320 337 270 323 321 289 287 307 318 295 329 304 332 302 301 310 312 300 314 274 313 300 305 278 291 320 290 302 311 302 283 301 294 301 257 303 294 288 307 289 299 260 272 287 280 290 286 303 277 284 298 289 302 299 259 296 304 297 309 311 278 293 261 267 280 285 269 283 277 232 247 287 297 259 305 266 268 311 297 290 282 261 294 281 265 281 300 272 272 248 305 293 308 316 280 269 317 287 263 303 274 270 243 277 262 270 260 287 301 270 267 269 281 302 262 270 283 308 271 278 263 277 307 290 277 274 247 266 237 323 276 303 280 275 241 267 309 289 288 290 266 340 248 288 276 257 289 280 281 297 281 298 277 277 263 247 279 282 285 307 273 286 285 296 315 321 267 309 279 308 271 289 270 297 289 286 249 295 286 300 285 296 311 290 313 303 288 282 290 297 295 295 316 324 332 335 314 315 349 339 348 345 339 339 315 375 372 392 382 381 380 383 420 432 434 393 458 434 434 485 462 496 434 462 450 463 485 420 477 483 469 471 437 476 445 439 433 486 468 441 501 456 445 453 442 451 406 410 430 466 448 403 433 438 360 418 397 419 367 405 366 359 390 336 358 340 361 366 370 348 372 306 335 299 334 318 347 315 327 333 328 317 351 301 324 321 303 339 329 319 334 319 333 325 334 360 354 329 345 361 366 320 389 357 378 345 328 349 329 396 375 359 365 361 381 369 431 395 465 420 440 394 452 390 401 424 428 421 409 464 438 403 422 370 389 407 433 384 357 377 377 396 374 398 344 391 386 388 375 343 346 362 380 336 337 340 355 338 319 326 319 318 287 350 344 293 353 314 339 306 338 308 307 298 299 317 272 320 307 282 302 297 296 323 312 310 300 277 273 290 331 287 291 278 328 321 331 296 307 247 285 294 284 327 305 321 280 312 303 302 301 290 284 292 320 280 296 306 284 307 318 286 287 315 261 276 264 291 271 265 277 287 292 318 271 275 267 303 262 306 248 283 282 251 280 270 283 329 280 275 233 293 269 263 265 272 277 267 271 268 290 283 232 278 281 248 276 270 260 288 279 290 276 259 280 271 262 269 259 232 282 264 258 270 280 288 283 271 297 300 260 238 268 282 283 241 290 258 276 269 265 224 276 239 281 267 269 288 284 228 275 273 259 280 258 293 273 250 263 258 250 295 278 269 283 251 297 276 295 284 264 300 231 261 258 271 263 260 267 285 250 292 260 241 278 271 278 288 282 290 237 281 291 281 282 287 279 287 283 269 290 264 287 288 242 263 284 269 277 282 288 259 280 243 264 243 295 283 293 272 276 241 292 258 272 285 264 264 275 239 289 244 283 272 281 247 249 240 277 263 301 292 244 271 306 238 318 281 294 283 280 286 308 248 267 277 299 245 283 289 287 268 306 300 271 247 245 287 282 295 272 292 277 265 256 268 256 261 247 241 251 264 261 267 280 257 279 278 249 267 265 250 272 269 244 250 278 261 287 268 262 248 247 274 268 263 218 290 264 250 276 267 301 288 283 294 289 249 228 274 284 256 234 269 286 269 266 260 282 231 282 259 266 283 278 282 256 279 279 285 265 296 264 267 306 290 243 273 258 282 262 260 273 296 270 271 275 275 297 258 292 269 300 280 273 284 295 277 301 256 290 264 275 284 302 286 267 269 264 281 265 273 275 266 297 278 276 264 266 276 249 245 257 299 258 278 244 283 270 290 257 263 285 264 259 295 247 271 269 285 270 232 275 281 275 273 281 250 280 262 283 264 265 279 291 276 290 284 268 266 292 278 289 317 277 265 276 268 282 292 265 284 267 277 293 284 258 284 305 323 303 245 278 262 279 273 298 287 286 303 285 265 299 240 289 287 269 272 241 284 269 286 236 283 267 277 263 313 293 269 280 283 289 243 274 264 324 315 277 315 299 290 280 306 298 275 282 290 282 287 302 332 278 272 313 317 288 319 293 330 355 351 301 341 304 333 354 354 337 320 337 344 320 364 318 321 321 332 335 352 364 386 323 338 325 343 320 350 342 319 345 368 365 340 325 340 336 355 338 320 321 338 360 341 348 355 400 366 364 428 405 417 391 406 437 405 479 446 486 450 449 444 509 478 526 483 489 512 513 491 483 509 519 494 454 472 514 466 462 480 438 478 509 527 482 524 448 460 460 461 469 474 455 446 465 430 469 422 390 363 381 406 376 386 411 425 384 382 424 343 378 341 369 349 365 381 345 333 343 399 366 348 326 328 366 317 338 338 338 373 331 324 311 326 324 343 315 353 387 349 385 378 313 366 334 339 361 372 365 382 406 379 396 401 399 376 423 398 398 443 394 458 481 405 427 450 444 431 415 456 470 468 441 451 483 488 492 449 482 458 457 450 456 459 420 434 416 457 472 457 451 481 459 428 475 443 413 451 402 415 390 435 427 412 396 405 404 397 366 371 353 359 393 382 368 396 357 362 374 355 331 367 317 344 349 380 350 330 323 367 335 335 365 349 365 311 322 326 316 362 346 334 353 320 338 321 331 364 326 340 322 389 352 383 369 371 336 344 333 384 353 370 385 358 392 364 388 381 425 413 423 403 379 390 432 437 447 472 445 509 515 505 552 494 600 576 604 585 606 676 685 658 699 704 717 747 712 726 777 793 765 739 738 777 753 773 703 764 752 756 665 726 672 743 690 714 702 684 671 699 735 707 674 686 680 664 633 652 647 569 563 616 582 569 552 556 518 527 532 490 501 462 497 448 474 450 517 444 430 406 435 448 421 429 411 374 407 403 384 411 404 404 410 405 404 414 345 399 414 394 402 441 430 399 394 403 476 418 428 454 414 389 468 448 430 472 430 403 426 447 507 477 487 487 482 502 513 544 561 536 552 521 539 549 568 576 594 580 545 572 611 592 559 579 579 566 567 529 559 570 558 572 556 559 581 557 581 592 577 544 554 557 558 596 542 565 573 534 515 557 530 535 491 541 512 530 495 468 499 476 494 490 505 475 482 474 484 458 476 476 470 420 477 481 468 459 436 410 476 429 446 419 429 458 433 428 405 405 397 419 431 408 429 386 373 384 398 398 383 375 360 348 353 364 343 351 347 367 371 345 337 312 315 368 355 350 327 355 342 328 310 360 329 321 329 322 293 300 311 326 290 318 303 270 266 306 284 322 289 298 286 280 293 315 318 307 268 293 294 244 298 285 278 318 283 249 292 265 247 318 282 273 279 296 277 280 282 278 279 270 288 250 269 305 304 308 319 298 288 257 280 263 270 292 295 308 264 249 274 284 268 260 293 260 269 282 284 303 289 264 285 279 269 262 292 259 278 334 316 291 319 287 283 275 274 323 278 270 309 294 304 279 289 283 290 281 313 274 305 299 298 309 245 296 265 307 292 295 292 306 306 293 284 293 282 297 274 273 311 308 289 248 307 289 307 260 296 292 261 323 264 285 291 276 269 261 269 270 272 264 295 263 236 249 297 298 291 256 274 261 264 284 242 265 248 276 272 266 291 264 294 274 272 256 250 280 291 263 259 259 286 279 280 293 290 298 242 257 264 278 249 285 297 265 291 281 291 231 275 316 292 275 237 258 293 265 293 264 275 281 263 278 257 275 262 269 263 286 283 277 274 279 235 271 294 294 273 250 313 279 305 295 293 287 249 277 282 269 242 280 246 283 273 285 278 266 300 288 271 280 260 271 269 279 268 258 268 263 248 239 306 250 329 247 265 247 275 270 273 218 285 227 262 267 267 304 282 264 277 274 273 246 282 276 232 250 249 250 248 275 272 239 247 251 238 240 249 233 287 266 270 308 275 243 242 265 245 281 284 218 273 249 256 247 274 265 244 239 289 248 276 277 281 234 267 241 273 275 262 246 235 247 285 264 280 274 270 238 271 250 244 277 287 287 232 246 265 250 282 291 279 268 297 257 272 287 230 266 278 275 241 277 286 259 269 271 289 277 257 285 263 294 294 263 274 291 250 258 236 244 260 261 287 277 245 289 266 272 270 277 262 299 285 240 279 283 285 290 267 244 287 264 289 283 295 256 287 290 296 302 280 300 257 275 276 277 281 290 283 299 301 292 286 280 294 268 283 311 292 313 317 294 294 297 306 309 305 297 303 290 305 308 274 333 307 298 267 298 287 285 325 262 299 311 283 283 292 300 302 293 276 277 270 262 305 270 314 300 271 243 240 290 301 305 285 287 272 238 306 285 261 279 258 266 276 291 261 278 259 241 266 266 280 283 269 244 264 245 277 274 277 285 266 270 235 261 251 242 271 277 244 265 260 263 270 268 284 256 270 266 242 308 266 275 273 276 300 269 260 262 284 272 315 283 297 283 320 258 260 279 271 257 281 251 274 273 262 279 301 313 281 277 263 287 284 286 274 290 282 268 282 289 263 269 294 296 280 275 297 293 286 276 264 251 268 276 290 278 259 264 273 271 257 274 283 300 281 272 294 278 278 275 276 289 242 290 244 262 292 291 289 261 287 272 292 270 282 286 277 287 267 229 271 277 264 274 241 286 276 264 281 275 247 263 262 247 283 270 296 299 295 249 284 276 280 310 262 284 292 262 275 284 260 265 269 281 263 258 262 269 269 305 287 291 310 305 311 285 312 295 288 302 298 265 294 313 280 306 301 328 291 290 308 365 302 323 290 304 325 328 326 346 332 326 345 368 325 380 372 345 378 397 365 410 406 429 425 408 409 434 482 465 461 447 531 508 546 565 558 571 575 557 633 654 608 603 641 623 570 631 643 586 624 599 619 649 573 567 575 559 560 565 572 590 590 572 547 590 565 548 514 546 500 518 545 483 525 487 498 481 476 491 471 443 499 423 434 431 415 401 355 442 397 423 398 395 381 356 378 343 362 356 384 338 380 350 320 332 363 315 324 316 315 304 290 339 333 316 328 326 323 306 329 316 307 324 328 303 329 367 319 283 305 353 311 320 335 323 347 315 334 353 334 343 325 377 306 370 339 376 344 357 397 368 362 385 341 394 375 409 360 405 388 402 396 477 372 435 427 433 431 456 439 432 458 437 446 451 466 424 462 428 446 461 461 453 472 474 423 483 437 445 445 461 439 432 425 441 452 438 435 414 445 425 437 382 423 431 430 405 397 389 400 360 364 407 369 389 405 380 372 377 363 352 355 355 321 384 321 338 354 396 366 357 389 383 374 382 323 386 365 355 339 393 346 372 356 354 378 372 314 330 362 307 365 321 338 345 359 322 341 322 348 369 369 309 355 368 340 334 332 329 313 301 366 316 316 313 338 294 332 280 311 312 322 287 327 344 305 304 283 308 287 316 302 307 282 310 308 298 274 304 289 286 237 297 276 275 289 299 283 290 298 234 313 275 269 290 257 284 281 256 338 256 272 297 282 278 272 246 264 279 270 233 302 263 281 258 245 277 271 270 304 260 298 262 249 288 275 278 284 281 274 244 272 283 288 281 260 278 281 258 280 290 257 271 286 278 270 256 271 287 249 282 259 248 292 245 283 271 267 269 272 246 305 236 257 250 273 268 237 268 231 259 256 277 273 234 269 273 251 301 267 230 280 273 247 280 264 269 281 237 263 272 236 239 263 279 305 243 270 260 273 279 248 241 297 305 272 259 258 208 261 234 269 265 276 273 274 271 272 276 281 291 262 246 215 239 235 216 250 263 246 263 246 256 262 258 230 235 239 278 284 238 246 237 246 262 288 263 246 249 258 263 263 236 224 270 299 256 263 223 283 257 258 247 270 258 256 250 264 247 236 270 282 249 232 249 270 239 210 284 245 239 265 266 261 258 237 241 290 238 274 243 256 258 246 289 267 299 269 228 259 259 228 230 260 266 246 277 257 239 245 256 270 264 239 262 256 260 261 269 240 229 260 262 257 275 282 291 281 215 261 266 266 272 244 266 275 222 245 247 213 246 276 236 261 241 261 246 268 249 277 220 271 244 275 240 276 276 273 218 262 273 290 265 246 248 246 275 256 256 280 229 279 221 240 277 227 269 258 275 281 274 262 237 241 242 269 278 283 272 261 235 228 281 291 267 228 289 271 277 294 276 262 290 266 256 245 259 292 268 258 281 249 290 267 281 240 257 242 285 289 273 260 233 295 232 276 280 313 331 284 265 294 279 283 299 262 290 302 329 309 337 271 342 327 335 322 321 333 343 345 314 315 307 364 355 369 362 348 355 387 338 344 348 338 360 397 353 367 350 346 347 332</counts>
			</dataPoints>
		</scan>
	</xrdMeasurement>
</xrdMeasurements>
