<?xml version="1.0"?>
<xrdMeasurements xmlns="http://www.xrdml.com/XRDMeasurement/2.3" xmlns:xsi="http://www.w3.org/2001/XMLSchema-instance" xsi:schemaLocation="http://www.xrdml.com/XRDMeasurement/2.3 http://www.xrdml.com/XRDMeasurement/2.3/XRDMeasurement.xsd" status="Completed" recordIdentifier="{9A0EAE49-C8B7-48E9-8582-83A8F745F11F}">
	<comment>
		<entry/>
	</comment>
	<sample type="To be analyzed">
		<id>GPSS_Li1p7Mg0p7Y0p3Cl4_111825_691cd5d8f3837ac4a0a99fdb</id>
		<name></name>
		<preparedBy></preparedBy>
	</sample>
	<xrdMeasurement measurementType="Scan" status="Completed" sampleMode="Reflection">
		<usedWavelength intended="K-Alpha 1">
			<kAlpha1 unit="Angstrom">1.5405980</kAlpha1>
			<kAlpha2 unit="Angstrom">1.5444260</kAlpha2>
			<kBeta unit="Angstrom">1.3922500</kBeta>
			<ratioKAlpha2KAlpha1>0.5000</ratioKAlpha2KAlpha1>
		</usedWavelength>
		<incidentBeamPath>
			<radius unit="mm">145.00</radius>
			<xRayTube id="1010048" name="Empyrean Cu LFF HR (9430 033 7310x)">
				<tension unit="kV">40.0</tension>
				<current unit="mA">15.0</current>
				<anodeMaterial>Cu</anodeMaterial>
				<focus type="Line">
					<length unit="mm">12.0</length>
					<width unit="mm">0.4</width>
					<takeOffAngle unit="deg">6.0</takeOffAngle>
				</focus>
			</xRayTube>
			<sollerSlit id="21010002" name="Soller slits 0.04 rad.">
				<opening unit="rad">0.0400</opening>
			</sollerSlit>
			<mask id="22031000" name="Fixed mask 13 mm">
				<width unit="mm">9.00</width>
			</mask>
			<divergenceSlit id="22120001" name="Divergence slit 1°" xsi:type="fixedDivergenceSlitType">
				<distanceToSample unit="mm">50.00</distanceToSample>
				<height unit="mm">1.52</height>
			</divergenceSlit>
		</incidentBeamPath>
		<sampleMovement xsi:type="spinningSampleMovementType">
			<spinnerRevolutionTime unit="seconds">1.0</spinnerRevolutionTime>
		</sampleMovement>
		<diffractedBeamPath>
			<radius unit="mm">145.00</radius>
			<antiScatterSlit id="22090040" name="AS slit 9 mm (PIXcel)" xsi:type="fixedAntiScatterSlitType">
				<height unit="mm">9.00</height>
			</antiScatterSlit>
			<sollerSlit id="21020003" name="Large Soller slits 0.04 rad.">
				<opening unit="rad">0.0400</opening>
			</sollerSlit>
			<filter id="20030001" name="Large beta-filter Nickel">
				<material>Ni</material>
				<thickness unit="mm">0.020</thickness>
			</filter>
			<detector id="7010019" name="PIXcel1D-Medipix3 detector" xsi:type="rtmsDetectorType">
				<phd unit="keV">
					<lowerLevel>4.02</lowerLevel>
					<upperLevel>11.27</upperLevel>
				</phd>
				<mode>Scanning</mode>
				<activeLength unit="deg">5.542</activeLength>
			</detector>
		</diffractedBeamPath>
		<scan appendNumber="0" mode="Continuous" scanAxis="Gonio" status="Completed">
			<header>
				<startTimeStamp>2025-11-23T16:50:28-08:00</startTimeStamp>
				<endTimeStamp>2025-11-23T16:58:35-08:00</endTimeStamp>
				<author>
					<name>AutomatedUser</name>
				</author>
				<source>
					<applicationSoftware version="1.7b (136)">PANalytical Aeris Instrument Suite</applicationSoftware>
					<instrumentControlSoftware version="3.2.00000000 20240306">AERIS</instrumentControlSoftware>
					<instrumentID>950485</instrumentID>
				</source>
			</header>
			<dataPoints>
				<positions axis="2Theta" unit="deg">
					<startPosition>10.00943322</startPosition>
					<endPosition>99.99442286</endPosition>
				</positions>
				<positions axis="Omega" unit="deg">
					<startPosition>5.00471661</startPosition>
					<endPosition>49.99721143</endPosition>
				</positions>
				<commonCountingTime unit="seconds">12.495</commonCountingTime>
				<counts unit="counts">2589 2652 2679 2681 2657 2663 2627 2633 2578 2645 2666 2614 2622 2532 2667 2636 2702 2660 2601 2704 2610 2692 2656 2700 2563 2730 2635 2641 2708 2620 2560 2633 2589 2642 2594 2513 2665 2656 2672 2700 2779 2678 2604 2658 2714 2664 2670 2656 2654 2697 2652 2640 2739 2589 2555 2651 2677 2743 2700 2707 2742 2670 2618 2673 2642 2744 2606 2687 2675 2694 2538 2680 2705 2715 2716 2514 2759 2648 2668 2799 2709 2843 2754 2669 2715 2757 2845 2790 2773 2721 2777 2797 2700 2816 2770 2661 2738 2672 2754 2827 2732 2853 2741 2667 2741 2684 2611 2823 2668 2754 2745 2761 2728 2792 2720 2749 2727 2737 2677 2655 2820 2706 2635 2687 2813 2656 2699 2800 2714 2722 2885 2799 2754 2816 2710 2748 2651 2774 2794 2756 2770 2737 2715 2829 2818 2746 2723 2779 2689 2800 2725 2729 2699 2741 2872 2805 2735 2857 2877 2785 2827 2819 2766 2726 2794 2846 2771 2717 2825 2770 2841 2795 2837 2762 2753 2763 2676 2814 2831 2718 2730 2792 2753 2738 2768 2720 2828 2696 2803 2857 2792 2774 2704 2784 2665 2797 2704 2842 2798 2847 2900 2811 2700 2685 2751 2810 2694 2785 2752 2643 2732 2736 2718 2745 2777 2854 2832 2880 2730 2710 2734 2738 2838 2665 2781 2678 2762 2752 2871 2740 2739 2793 2741 2669 2713 2741 2808 2708 2664 2731 2693 2680 2786 2724 2629 2729 2717 2747 2683 2753 2699 2639 2712 2713 2851 2675 2635 2634 2699 2702 2712 2770 2663 2798 2716 2711 2710 2768 2670 2783 2708 2702 2637 2741 2712 2803 2704 2590 2652 2646 2767 2661 2696 2786 2751 2639 2667 2673 2772 2728 2664 2761 2591 2728 2775 2656 2718 2762 2680 2715 2789 2890 2743 2708 2791 2769 2710 2791 2814 2703 2733 2759 2795 2773 2710 2850 2756 2824 2753 2805 2845 2817 2736 2887 2813 2764 2867 2815 2871 2907 2826 2874 2897 2839 2807 2825 2899 2873 2949 3004 2889 2866 2929 2931 3001 2872 2869 2839 2904 2984 2800 2969 2930 2837 2896 2884 3112 2860 2988 2930 2934 2861 2917 3009 2986 2874 3013 2988 3032 2998 3051 2981 2949 2985 2906 3020 2928 2988 3076 3031 2952 3081 2980 3136 3166 3031 2987 3074 3043 3090 3130 3109 3149 3010 3206 3102 3133 3113 3102 3087 3273 3023 3164 3239 3023 3214 3106 3157 3233 3222 3183 3133 3245 3171 3257 3178 3406 3338 3241 3236 3183 3371 3271 3323 3256 3461 3380 3420 3326 3465 3495 3308 3412 3526 3377 3376 3481 3438 3479 3590 3474 3562 3511 3603 3636 3750 3679 3774 3709 3744 3801 3763 3700 3668 3627 3649 3710 3873 3726 3747 3800 3705 3767 3817 3790 3862 3767 3814 3630 3686 3679 3750 3535 3664 3382 3379 3527 3339 3324 3257 3296 3282 3300 3195 3335 3180 3304 3213 3170 3262 3195 3114 3204 3139 3170 3145 3036 3202 3102 3108 3100 3042 3122 3072 3083 3088 3035 3152 3128 3199 3057 3153 3057 3202 3096 3127 3188 3211 3116 3071 3115 3116 3118 3213 3180 3213 3216 3192 3224 3210 3190 3160 3172 3172 3231 3165 3179 3275 3299 3217 3171 3261 3361 3254 3248 3371 3214 3385 3287 3280 3417 3265 3367 3272 3365 3425 3484 3434 3357 3453 3479 3397 3448 3308 3389 3297 3323 3333 3444 3333 3253 3383 3263 3152 3167 3253 3259 3125 3131 3021 2963 2981 2944 2975 2921 2952 2917 2915 2857 2733 2897 2789 2836 2900 2883 2863 2739 2824 2813 2812 2875 2755 2791 2749 2775 2812 2811 2861 2841 2728 2762 2730 2732 2838 2788 2733 2806 2753 2746 2778 2765 2823 2800 2640 2711 2695 2749 2766 2766 2610 2732 2712 2745 2695 2801 2714 2712 2739 2761 2733 2778 2653 2655 2766 2733 2814 2769 2723 2941 2782 2726 2803 2766 2811 2792 2889 2861 2930 2970 2905 2913 3065 2923 2962 2857 2938 2879 2951 2967 2805 2951 2992 3089 3033 2971 3004 2951 3043 3063 3056 2929 3144 3088 3068 3140 3092 3251 3217 3249 3187 3218 3261 3295 3299 3276 3359 3416 3328 3323 3384 3360 3327 3373 3439 3266 3450 3289 3352 3275 3225 3141 3172 3148 3076 2956 2994 2949 2915 2920 2691 2842 2723 2841 2747 2745 2697 2695 2641 2655 2736 2712 2691 2618 2610 2611 2633 2559 2593 2562 2562 2513 2597 2574 2641 2716 2568 2587 2586 2576 2530 2619 2691 2656 2670 2555 2559 2529 2605 2623 2680 2465 2582 2608 2508 2554 2616 2593 2580 2540 2570 2583 2641 2564 2596 2600 2577 2646 2598 2458 2657 2552 2571 2588 2559 2467 2479 2541 2485 2505 2598 2514 2483 2482 2458 2540 2584 2641 2642 2526 2535 2402 2542 2476 2588 2520 2517 2492 2518 2482 2464 2485 2565 2582 2499 2581 2511 2475 2397 2535 2548 2559 2504 2543 2422 2489 2478 2538 2549 2437 2471 2444 2419 2564 2542 2494 2379 2430 2443 2532 2548 2420 2501 2416 2468 2465 2434 2426 2454 2493 2545 2408 2461 2430 2495 2442 2435 2463 2432 2371 2505 2426 2346 2451 2498 2521 2328 2490 2480 2409 2454 2364 2489 2516 2440 2387 2367 2451 2441 2339 2333 2421 2445 2421 2400 2417 2434 2411 2320 2358 2411 2379 2397 2402 2397 2432 2298 2346 2364 2363 2397 2361 2434 2379 2434 2355 2374 2318 2354 2484 2452 2377 2324 2399 2351 2334 2368 2371 2441 2283 2411 2337 2339 2323 2377 2365 2331 2417 2322 2327 2351 2297 2387 2287 2424 2345 2426 2361 2387 2303 2381 2367 2310 2316 2349 2415 2337 2367 2290 2255 2401 2325 2344 2311 2298 2269 2312 2344 2362 2337 2384 2360 2321 2300 2366 2233 2342 2271 2283 2279 2303 2240 2445 2334 2310 2279 2319 2337 2386 2341 2286 2284 2253 2323 2358 2321 2345 2293 2280 2277 2304 2303 2348 2321 2278 2255 2250 2270 2258 2314 2269 2302 2261 2341 2319 2289 2316 2346 2291 2310 2265 2349 2277 2266 2383 2308 2346 2334 2308 2315 2306 2302 2284 2297 2329 2359 2256 2293 2289 2361 2302 2311 2295 2275 2251 2249 2353 2276 2289 2144 2208 2282 2339 2339 2399 2194 2279 2317 2293 2302 2343 2361 2298 2292 2388 2302 2358 2287 2289 2393 2328 2363 2287 2263 2341 2261 2273 2369 2310 2318 2346 2329 2296 2335 2284 2365 2317 2306 2342 2375 2322 2401 2312 2413 2395 2374 2488 2396 2373 2308 2456 2441 2372 2411 2374 2315 2428 2308 2402 2276 2332 2360 2335 2397 2348 2389 2374 2436 2435 2318 2356 2297 2300 2398 2328 2312 2327 2377 2308 2295 2400 2443 2287 2331 2189 2289 2351 2256 2273 2270 2222 2299 2231 2238 2311 2223 2228 2148 2170 2127 2338 2311 2217 2183 2315 2148 2229 2175 2283 2200 2265 2228 2117 2208 2274 2173 2194 2230 2046 2222 2247 2150 2184 2173 2181 2229 2257 2192 2248 2177 2176 2174 2094 2111 2159 2154 2111 2156 2131 2053 2143 2106 2122 2163 2161 2091 2102 2095 2054 2100 2226 2089 2047 2127 2111 2056 2056 2046 2103 1952 2065 2005 2010 2077 2075 2057 2046 2051 2063 2053 2002 2034 2018 1980 2041 2069 2068 2027 2067 2073 1992 1974 2034 1961 2044 2029 2017 2080 1966 2030 2138 2017 2105 2174 2104 2105 2081 2073 2087 2040 2156 2084 2059 2055 2164 2130 2096 2149 2017 2069 2058 2123 2094 2101 2089 2031 2149 2043 2104 2107 2149 2080 2110 2155 2141 2197 2055 2158 2161 2121 2220 2240 2215 2148 2253 2106 2144 2204 2167 2095 2059 2117 2086 1985 2106 2061 1978 1928 2040 1932 2004 1940 1916 1883 1857 1861 1798 1796 1805 1914 1777 1716 1699 1790 1815 1734 1666 1750 1774 1712 1785 1784 1819 1711 1788 1767 1725 1710 1753 1670 1743 1761 1759 1717 1690 1705 1715 1748 1724 1718 1801 1634 1708 1703 1693 1648 1761 1670 1720 1604 1675 1777 1678 1671 1684 1654 1729 1746 1518 1649 1662 1601 1626 1693 1647 1653 1727 1610 1640 1660 1648 1633 1703 1680 1643 1643 1675 1589 1672 1612 1713 1718 1565 1669 1701 1641 1655 1662 1641 1685 1684 1627 1643 1663 1584 1615 1588 1618 1651 1693 1660 1610 1673 1699 1611 1657 1640 1618 1698 1580 1727 1652 1646 1593 1646 1675 1598 1693 1663 1634 1617 1666 1660 1607 1675 1641 1638 1608 1678 1593 1612 1645 1677 1595 1617 1599 1707 1564 1673 1692 1659 1629 1599 1716 1673 1610 1679 1601 1562 1725 1598 1672 1644 1722 1708 1691 1603 1646 1666 1698 1677 1689 1681 1610 1691 1664 1655 1657 1620 1707 1666 1654 1640 1552 1635 1721 1747 1690 1661 1656 1653 1641 1659 1676 1725 1686 1632 1618 1662 1646 1715 1633 1657 1648 1699 1666 1715 1639 1637 1748 1615 1588 1691 1727 1696 1646 1754 1688 1653 1674 1655 1592 1660 1636 1652 1605 1676 1694 1667 1728 1622 1606 1637 1561 1688 1645 1700 1633 1605 1626 1694 1692 1712 1657 1729 1653 1665 1658 1728 1589 1659 1676 1659 1577 1603 1671 1685 1645 1660 1738 1620 1705 1586 1645 1665 1636 1677 1677 1584 1702 1642 1632 1698 1659 1586 1664 1649 1629 1685 1656 1675 1599 1587 1602 1632 1630 1577 1610 1642 1604 1600 1591 1545 1607 1515 1517 1616 1582 1604 1591 1558 1530 1565 1503 1469 1546 1492 1424 1468 1455 1499 1500 1610 1483 1507 1474 1551 1454 1484 1488 1489 1447 1466 1541 1517 1419 1467 1466 1476 1422 1464 1455 1456 1439 1530 1462 1473 1446 1497 1426 1487 1415 1426 1357 1388 1482 1372 1396 1389 1427 1405 1433 1453 1354 1386 1474 1449 1377 1416 1389 1307 1480 1359 1406 1346 1416 1445 1371 1385 1363 1449 1440 1375 1381 1414 1400 1390 1495 1397 1384 1382 1443 1402 1426 1392 1390 1389 1332 1378 1341 1432 1432 1426 1430 1390 1430 1420 1478 1382 1395 1489 1436 1405 1501 1510 1502 1491 1558 1511 1542 1556 1512 1538 1613 1572 1484 1546 1567 1591 1617 1601 1637 1592 1537 1569 1545 1636 1649 1600 1659 1703 1664 1668 1637 1733 1773 1873 1823 1792 1787 1838 1813 1801 1819 1757 1797 1782 1854 1818 1777 1700 1741 1767 1747 1672 1620 1664 1605 1652 1606 1661 1578 1537 1544 1489 1491 1506 1398 1356 1378 1382 1361 1303 1314 1291 1352 1283 1263 1274 1242 1270 1291 1325 1242 1258 1289 1187 1295 1281 1251 1310 1273 1311 1262 1280 1295 1333 1296 1364 1301 1299 1396 1416 1467 1446 1484 1482 1509 1590 1569 1645 1803 1892 1969 2042 2042 2056 2306 2317 2350 2417 2493 2492 2453 2556 2509 2627 2791 2724 2961 2822 2895 2785 2707 2817 2939 2995 3066 3086 3290 3244 3317 3504 3525 3760 3675 3827 3959 4071 4028 4117 4286 4389 4255 4430 4508 4570 4456 4458 4484 4436 4496 4381 4352 4205 4053 4009 3804 3625 3359 3356 3108 2860 2809 2521 2334 2171 2140 1936 1876 1739 1533 1663 1613 1482 1493 1533 1433 1478 1352 1342 1372 1341 1315 1357 1329 1267 1181 1237 1306 1168 1221 1134 1146 1174 1136 1155 1223 1215 1118 1169 1156 1144 1158 1090 1115 1129 1072 1119 1114 1102 1114 1122 1099 1110 1144 1080 1101 1147 1128 1103 1059 1138 1079 1110 1129 1068 1179 1186 1072 1146 1113 1195 1104 1123 1118 1148 1095 1100 1105 1137 1116 1113 1091 1071 1151 1154 1127 1121 1173 1177 1247 1167 1255 1268 1280 1284 1256 1387 1448 1470 1547 1503 1559 1642 1629 1705 1723 1805 1859 1880 1840 1886 1984 1979 2041 2020 1998 2019 2084 2154 2048 2189 2122 2178 2244 2345 2397 2421 2475 2432 2525 2676 2737 2706 2827 2893 2974 2970 3196 3058 3133 3173 3160 3217 3310 3220 3156 3155 3229 3088 3100 2907 2994 2951 2830 2729 2577 2531 2314 2267 2170 2071 2011 1812 1867 1779 1735 1602 1497 1485 1400 1488 1473 1349 1317 1305 1326 1311 1291 1266 1221 1264 1266 1269 1256 1270 1297 1195 1201 1262 1259 1231 1232 1169 1248 1268 1225 1253 1291 1243 1164 1240 1227 1184 1199 1235 1120 1207 1167 1146 1201 1167 1119 1115 1067 1131 1093 1094 1047 1040 1057 992 989 1045 1068 1047 1080 1093 1106 1051 1004 1091 988 1069 1013 1096 1020 1041 1033 1076 1092 1066 1073 1009 1116 1048 1073 1023 1038 1083 952 1066 1053 1032 1038 1078 1040 1002 1001 990 1000 1048 1011 1063 1042 1076 981 1016 986 948 962 993 1015 968 991 959 983 967 970 999 936 993 934 973 974 1018 966 1001 964 969 935 923 972 921 956 908 969 949 976 953 1047 944 1006 944 934 949 939 960 1009 994 938 1025 1056 1030 1039 1068 1061 1018 1059 1092 1083 1025 1089 1136 1137 1127 1114 1133 1178 1109 1145 1095 1128 1156 1076 1183 1164 1224 1123 1179 1154 1151 1182 1191 1232 1193 1265 1247 1314 1352 1372 1345 1292 1363 1284 1359 1395 1372 1429 1418 1337 1301 1362 1393 1458 1439 1553 1421 1472 1599 1581 1567 1624 1640 1746 1779 1867 1846 1972 1935 2075 2038 2116 2120 2208 2207 2364 2314 2445 2427 2647 2597 2749 2840 2922 2853 3075 3010 3027 3099 3259 3483 3665 3904 4468 4978 5265 5449 5256 4817 4756 4767 4800 5138 5196 5205 5117 4890 4765 4777 4615 4581 4322 4535 4397 4415 4274 4120 4020 3858 3704 3515 3267 3113 3008 2828 2658 2461 2327 2147 2047 1841 1768 1599 1559 1538 1475 1306 1360 1212 1232 1160 1218 1210 1161 1145 1116 1078 1055 1123 1027 1068 971 1018 947 1032 1036 1062 959 977 941 1023 968 971 951 972 985 988 982 959 924 956 976 1043 1051 973 976 955 998 1035 1007 1002 967 979 1036 992 1021 993 1035 1044 1066 1043 1044 1008 1005 1033 1046 1078 1012 1019 1062 987 1101 1106 1009 979 1004 1055 970 1084 1004 1031 991 1037 1074 1054 1069 1008 1061 1047 1005 1077 1000 1130 1080 1060 1024 1043 1048 1051 1043 944 983 947 983 990 976 943 889 941 940 939 922 931 912 869 935 909 933 867 908 871 955 882 923 935 906 914 871 883 852 935 885 919 926 900 962 890 978 946 985 1037 937 968 1009 1026 931 1010 951 942 973 995 1003 1056 981 988 966 1069 1008 1066 1033 1019 994 1051 1014 1087 1080 1068 1057 1130 1053 1084 1110 1105 1102 1124 1160 1089 1177 1062 1094 1082 1076 1076 1206 1120 1111 1066 1115 1067 1127 1048 1050 1014 985 994 1009 905 921 878 931 944 914 904 887 900 822 838 883 891 838 867 775 912 776 928 841 810 824 834 859 852 863 841 861 816 806 867 787 888 848 844 814 835 839 791 828 794 812 814 843 833 788 760 740 768 793 860 824 839 834 856 836 817 824 795 841 783 849 764 811 812 806 825 793 763 779 786 813 776 804 758 759 807 804 822 839 787 797 816 801 764 774 809 783 766 799 804 755 807 802 817 787 815 734 830 821 768 834 800 827 835 715 688 811 782 788 802 742 813 776 821 755 739 809 772 788 775 804 732 761 763 695 762 728 770 782 814 784 803 793 817 788 784 819 826 808 743 785 770 772 753 727 821 770 702 774 793 741 795 776 748 800 797 822 794 798 752 857 807 803 829 810 818 759 778 797 725 834 759 767 812 738 791 770 778 779 729 815 760 743 751 795 785 792 735 780 783 765 752 762 801 812 802 723 795 762 781 751 760 736 748 756 715 767 788 786 815 760 751 786 765 813 785 799 769 757 716 766 736 755 707 760 767 731 741 792 735 790 757 801 703 750 747 730 747 761 782 730 753 743 770 762 778 792 746 713 773 687 708 718 705 749 746 721 743 763 680 771 758 788 754 800 788 796 772 772 825 785 734 800 828 796 771 794 734 740 788 811 823 804 849 794 785 756 769 779 820 758 810 789 840 839 827 817 801 782 850 746 786 830 814 804 798 844 807 812 842 824 786 771 769 806 821 836 862 804 748 889 809 828 798 862 869 825 799 867 851 857 913 923 926 883 894 989 934 949 991 1065 1083 1129 1126 1157 1141 1194 1286 1293 1322 1269 1368 1340 1316 1316 1426 1442 1388 1438 1486 1480 1498 1551 1532 1550 1592 1582 1647 1661 1662 1713 1715 1755 1816 1845 1797 1874 1830 1818 1778 1917 1831 1872 1829 1822 1812 1688 1710 1672 1673 1668 1659 1511 1571 1498 1506 1470 1362 1264 1292 1279 1226 1178 1106 1058 1056 1073 987 1014 990 1005 926 886 831 824 844 858 891 801 829 779 726 797 720 890 688 812 806 763 764 731 783 768 720 799 751 739 722 713 716 750 745 753 724 738 749 725 746 758 787 726 696 707 696 758 735 785 693 719 751 751 724 746 706 725 748 703 744 690 749 711 679 695 706 758 744 752 742 706 731 775 674 764 699 712 699 759 692 746 710 759 710 726 707 722 719 746 767 726 757 721 721 711 712 777 771 726 794 814 783 826 761 819 753 803 868 836 916 816 804 827 797 839 790 832 863 891 818 897 921 849 914 897 967 850 837 878 885 928 921 915 887 888 900 920 890 925 855 916 892 839 910 926 935 926 811 909 889 935 909 882 885 857 857 887 855 833 850 912 842 908 840 911 826 881 815 828 841 875 853 918 887 849 882 860 837 869 926 919 876 819 894 882 904 900 923 873 888 901 864 916 882 890 882 897 865 883 849 826 861 891 836 859 884 831 802 830 835 806 832 802 811 803 788 832 726 792 781 789 829 794 768 790 784 809 761 780 770 760 750 772 769 726 730 713 796 786 814 763 759 756 818 786 775 858 852 779 777 783 844 798 811 774 848 763 749 763 804 817 838 847 850 841 885 825 821 815 704 777 790 824 755 832 791 813 782 774 751 780 737 764 735 773 751 789 775 750 728 713 749 733 680 719 699 756 685 749 727 723 735 707 762 725 645 730 717 725 746 718 702 687 727 758 748 746 719 749 740 777 767 799 741 772 802 810 813 804 853 823 871 833 847 867 839 892 856 913 902 861 951 845 895 922 911 927 908 965 972 932 997 968 976 1022 987 1015 935 1048 1023 1083 997 994 1107 999 1038 1006 996 1006 952 1033 970 1011 1070 954 905 954 935 967 929 955 900 868 857 871 840 853 797 840 845 773 811 813 747 746 750 700 746 744 739 762 728 703 745 707 722 772 716 750 707 652 699 710 739 715 703 734 648 705 700 735 767 706 719 680 737 673 722 711 715 713 710 700 744 727 719 712 639 743 762 728 690 723 733 722 707 748 744 741 763 719 710 708 739 732 750 684 736 731 716 664 721 735 723 742 720 738 758 749 697 728 733 718 691 686 738 746 742 715 676 722 672 696 742 702 707 650 734 717 703 743 660 738 718 643 731 672 677 679 747 701 742 714 687 752 682 673 750 680 714 683 710 690 660 754 640 721 717 662 701 710 657 671 709 678 708 691 685 668 675 633 669 662 687 678 677 668 641 612 702 661 709 683 646 595 673 630 647 692 677 659 671 676 633 685 716 657 703 667 643 686 685 628 660 651 686 719 660 684 641 712 638 700 699 649 680 622 705 677 712 682 696 727 704 699 673 699 669 686 712 721 646 708 667 691 668 696 670 706 722 725 648 789 713 721 767 667 727 755 724 743 749 734 723 733 738 754 754 760 735 706 711 772 716 739 716 718 705 762 760 768 756 754 797 810 732 784 800 706 738 718 760 834 758 771 794 844 782 825 833 803 811 841 835 876 873 867 881 900 866 951 1009 929 1013 1003 1020 1074 1047 1104 1106 1106 1102 1127 1234 1187 1304 1259 1292 1263 1284 1392 1402 1379 1438 1385 1356 1410 1481 1421 1459 1592 1450 1448 1452 1425 1501 1465 1451 1425 1386 1403 1422 1416 1458 1439 1386 1385 1432 1513 1494 1521 1490 1545 1541 1594 1570 1596 1705 1671 1693 1697 1729 1813 1776 1873 1798 1906 1897 1972 2099 2116 2140 2159 2232 2332 2420 2659 2548 2630 2805 2776 2757 2674 2725 2827 2865 2810 2857 2931 2791 2841 2866 2793 2712 2777 2685 2666 2569 2634 2547 2459 2447 2344 2264 2236 2099 2083 1994 1992 1919 1793 1854 1731 1725 1620 1576 1581 1540 1465 1364 1316 1213 1253 1239 1095 1122 1091 1015 999 997 966 898 884 835 855 784 798 834 796 830 778 749 745 682 743 730 692 693 672 746 662 726 684 663 665 676 658 672 668 651 716 709 627 723 667 690 722 697 728 666 699 683 666 641 680 672 652 681 674 654 707 662 700 648 689 663 671 718 650 666 677 687 670 688 689 629 671 672 644 675 594 647 669 645 673 626 647 671 671 672 647 662 669 685 701 603 624 607 632 646 615 706 649 638 654 597 642 684 656 723 662 652 624 667 664 692 670 607 643 673 707 644 663 634 692 648 728 628 732 638 666 633 648 663 638 641 641 667 652 658 677 666 697 619 711 644 680 735 704 663 698 659 701 684 670 641 709 768 672 710 731 751 759 749 790 733 766 831 783 803 800 805 778 819 779 833 827 820 832 860 842 821 904 866 868 882 947 858 858 903 896 973 972 934 921 908 894 991 846 879 941 925 899 976 878 911 889 903 881 907 868 915 825 879 841 846 809 813 823 815 843 793 789 778 871 748 807 790 760 752 798 748 688 747 721 754 786 695 697 711 693 691 761 706 739 688 745 676 688 729 713 685 701 683 702 676 729 743 702 717 666 723 694 690 732 742 705 770 718 767 734 783 745 798 742 740 795 779 767 802 738 777 798 767 795 797 767 843 753 777 743 755 742 759 765 713 749 740 728 740 772 747 719 703 719 707 717 752 668 734 695 746 682 711 717 710 732 737 726 716 770 690 743 696 734 775 766 745 732 784 752 755 827 788 784 776 784 819 843 834 824 880 903 866 902 870 837 899 881 897 932 907 924 930 996 912 903 996 890 987 974 954 1031 981 1000 933 912 907 920 926 916 951 855 851 889 864 844 865 848 838 775 817 778 749 785 782 756 724 747 713 678 721 710 710 705 667 692 665 663 678 668 627 694 655 643 653 621 623 622 650 594 651 663 615 653 681 618 633 616 644 581 609 617 595 640 622 670 596 640 654 632 608 569 621 559 584 633 634 657 607 640 632 620 611 637 611 631 581 672 637 695 652 715 642 663 674 670 614 658 654 638 618 635 679 698 674 654 650 665 648 641 670 665 698 655 609 644 649 637 649 639 630 653 617 609 638 709 599 638 588 610 627 625 630 655 569 609 656 597 597 579 592 594 547 588 589 548 593 545 611 526 580 631 534 584 582 550 590 552 583 525 564 583 601 588 597 590 581 587 547 592 592 635 584 570 484 525 606 605 618 525 599 598 606 527 565 546 570 569 612 573 584 570 587 565 586 578 564 586 541 555 547 548 561 586 586 579 580 562 580 575 580 551 569 590 568 601 603 600 571 555 631 558 543 522 573 576 540 511 565 598 537 584 577 567 597 569 567 548 566 609 598 530 567 566 560 577 618 597 556 550 595 541 595 545 567 574 556 578 587 548 613 616 659 584 578 570 575 579 604 627 555 562 573 591 569 592 581 600 538 627 598 631 651 577 573 579 590 564 577 598 592 630 603 607 584 601 553 578 533 621 638 641 597 622 578 537 609 556 588 599 594 579 674 597 618 631 572 627 662 557 659 598 612 640 620 604 624 578 614 577 613 563 580 570 607 582 592 613 608 617 637 618 609 609 598 600 570 584 592 544 591 582 586 632 566 519 585 632 586 652 618 595 588 598 616 575 599 572 631 643 601 617 632 574 656 636 625 651 611 610 576 619 650 595 590 653 606 664 612 656 636 669 642 644 632 653 647 662 658 650 669 670 610 665 685 647 652 672 653 644 662 680 655 634 722 653 676 647 684 685 728 649 789 698 720 737 755 688 784 797 805 854 876 872 866 943 996 946 1012 1018 1012 1017 1047 1047 1072 1183 1078 1193 1222 1265 1201 1185 1234 1258 1305 1261 1248 1268 1289 1210 1305 1348 1285 1350 1284 1374 1251 1294 1245 1207 1244 1210 1160 1150 1174 1233 1157 1161 1102 1138 1141 1143 1112 1091 1085 1074 1097 1088 1036 1015 1017 1055 1003 982 909 1034 957 998 982 932 904 947 927 966 916 914 917 957 889 935 855 848 891 850 887 869 856 826 914 801 845 781 749 791 821 799 760 714 778 789 772 770 787 710 774 692 724 683 717 695 718 762 741 720 697 715 732 760 720 768 752 679 665 697 710 707 669 697 701 653 688 674 720 732 711 673 732 713 717 669 721 681 724 683 734 690 681 688 730 658 720 681 677 713 715 676 723 661 723 687 674 645 686 615 622 651 609 647 642 681 655 628 595 651 530 647 592 654 608 615 617 593 636 597 637 597 570 570 593 648 584 571 574 599 554 597 621 601 592 571 604 570 574 562 624 545 570 562 566 560 553 554 613 569 575 576 595 542 610 561 576 632 543 563 554 583 536 543 608 591 593 555 627 535 569 560 567 583 582 567 611 568 584 600 589 589 616 623 569 604 602 598 642 623 626 637 670 712 686 703 736 733 710 752 781 733 785 801 857 892 920 933 959 1009 977 976 983 965 963 927 969 995 944 1016 1128 1094 1097 1125 1132 1157 1203 1151 1130 1190 1171 1177 1149 1108 1160 1095 1114 1126 1088 1058 1045 1025 994 1004 1034 979 978 1047 966 950 918 923 961 943 923 834 850 885 881 821 835 889 792 822 846 762 861 750 741 743 719 730 706 698 698 597 682 670 687 646 632 643 635 648 633 682 654 598 649 607 583 633 554 575 595 559 561 588 596 576 592 535 555 524 593 555 576 556 609 524 565 539 560 563 574 545 555 520 520 564 513 555 605 583 590 575 556 511 565 518 484 566 534 522 561 613 524 527 533 520 548 540 598 513 557 527 517 534 515 560 543 579 559 600 508 469 536 576 551 631 511 553 524 545 558 568 545 508 550 531 564 567 540 561 591 571 551 542 553 517 518 532 525 575 529 521 553 613 498 558 530 577 574 562 599 569 611 573 572 592 638 578 653 549 581 593 612 594 635 634 645 617 631 637 646 671 654 652 663 676 653 644 601 662 668 656 630 669 677 635 647 631 687 681 639 652 717 666 654 597 674 665 653 654 611 622 648 657 617 657 623 715 635 612 623 576 588 586 600 633 590 595 557 583 566 607 556 559 569 558 507 571 586 508 601 566 541 540 532 552 545 557 499 568 566 533 522 519 537 521 534 559 546 470 535 502 509 515 526 498 547 556 564 543 557 481 510 565 533 568 546 571 579 516 505 546 523 523 610 515 563 552 582 562 519 525 524 530 572 579 518 542 555 564 557 540 554 570 575 578 564 543 565 554 556 519 558 561 595 518 591 585 575 575 564 565 537 558 586 535 585 612 631 651 598 604 598 627 639 669 554 619 642 700 664 660 670 648 686 645 659 690 701 657 709 638 724 685 687 676 701 714 689 778 689 726 724 695 735 689 718 705 675 694 677 691 725 653 670 691 645 650 708 644 652 642 607 639 683 625 669 625 598 617 607 607 625 598 573 556 551 615 554 504 519 554 567 544 582 533 624 546 532 547 516 531 523 484 500 529 532 536 460 491 511 511 545 547 546 517 511 492 507 507 510 478 525 490 521 524 591 541 544 480 537 497 498 503 490 498 531 445 512 489 500 486 492 490 534 541 501 502 518 483 473 534 543 525 552 525 473 544 528 511 567 527 494 539 507 538 552 517 545 495 539 511 513 557 532 568 565 561 536 504 474 543 540 562 547 518 535 517 577 547 541 470 552 489 546 512 548 479 552 510 516 536 589 534 515 485 513 495 500 485 522 519 550 522 515 518 537 485 518 486 502 467 508 531 550 521 503 529 542 506 546 537 574 512 553 525 538 563 523 531 544 534 566 568 539 531 545 588 546 572 534 543 502 576 598 628 591 540 620 602 658 591 589 620 602 583 560 579 595 584 617 584 549 590 560 576 578 543 563 541 571 587 563 605 557 585 596 579 565 549 545 564 542 570 544 524 531 565 532 536 544 537 495 488 594 523 541 489 484 520 547 544 501 502 497 485 518 507 528 501 576 551 558 486 492 471 495 556 477 451 445 478 535 560 497 526 502 457 518 510 506 495 531 513 519 499 493 486 504 511 485 516 551 513 514 549 528 492 513 520 562 564 537 529 505 548 547 581 527 557 559 523 570 544 545 560 555 529 567 567 566 556 563 586 557 525 568 629 553 621 600 597 573 614 550 633 573 624 619 597 607 579 575 600 580 600 549 616 582 549 611 557 603 527 564 585 554 565 592 517 519 544 574 546 567 556 534 518 572 579 565 587 546 580 552 545 554 541 505 533 584 512 499 439 537 480 538 516 497 505 488 544 537 491 528 525 508 537 469 478 484 506 536 491 547 540 514 543 484 550 540 505 530 530 483 536 535 536 525 500 512 514 459 486 484 490 482 491 491 512 496 494 487 493 471 473 487 477 490 471 497 498 510 495 530 526 492 472 445 531 499 466 473 502 523 465 458 508 510 516 514 474 513 525 483 502 518 559 517 460 479 508 482 511 487 519 494 549 538 566 511 490 512 519 545 484 513 514 538 514 562 547 558 511 534 536 545 506 550 536 511 499 492 526 486 468 484 523 535 529 497 490 468 549 485 494 490 480 464 496 504 489 549 494 550 509 469 489 502 488 475 493 537 505 498 476 525 512 534 490 468 517 484 522 518 498 496 513 496 522 504 505 520 527 525 517 545 522 549 566 538 568 496 566 547 545 528 561 541 580 511 538 554 546 539 532 546 537 538 565 522 519 493 537 527 600 583 505 521 501 548 556 532 588 582 574 623 568 583 626 617 635 700 711 772 792 873 929 955 973 976 897 889 863 865 834 797 799 841 800 798 771 746 793 805 835 821 922 906 892 843 833 806 825 766 736 727 772 779 676 699 740 734 684 654 655 643 671 713 675 653 609 645 610 620 618 598 587 597 600 614 584 595 566 554 588 551 561 565 579 562 535 566 487 571 532 526 561 561 524 573 484 543 498 497 527 464 511 481 460 530 501 540 437 526 463 521 482 507 532 501 511 498 451 506 484 523 528 529 495 496 525 555 480 497 473 505 470 478 466 472 520 474 514 534 520 499 463 487 499 479 477 483 480 451 476 466 488 487 468 521 511 545 502 532 512 494 512 484 540 487 540 529 480 527 494 528 494 482 495 494 485 508 507 497 540 455 515 518 501 516 467 490 508 482 508 520 508 501 468 485 486 537 484 489 459 480 487 503 500 487 496 576 505 476 514 487 509 501 494 514 495 503 501 453 507 482 492 494 530 504 486 527 491 519 523 488 525 597 538 559 553 542 512 558 527 559 535 528 534 545 525 547 546 568 595 521 523 587 489 552 520 506 542 469 479 495 507 498 513 511 537 520 565 530 540 526 565 534 537 538 540 496 522 558 505 541 490 471 510 526 541 575 543 472 505 513 572 513 502 503 517 581 533 559 576 526 612 570 558 579 578 547 561 525 590 555 564 572 613 531 567 560 552 551 565 604 559 525 564 522 523 582 525 592 538 550 536 541 506 525 498 567 551 543 609 512 557 543 515 563 536 558 494 520 449 510 498 520 517 520 504 520 531 534 548 516 501 501 482 491 500 496 520 537 467 501 534 453 478 493 511 507 509 523 517 495 529 506 535 505 560 538 550 529 522 528 467 523 502 483 497 491 433 519 438 438 517 510 485 488 501 467 473 469 514 495 509 529 483 471 481 518 473 486 460 489 492 469 508 495 490 464 469 471 455 470 477 471 499 515 462 503 488 482 485 510 505 518 452 482 496 465 478 441 497 475 490 478 494 459 497 481 499 451 482 459 511 477 485 497 487 490 473 498 499 482 502 507 454 495 516 518 472 504 515 488 485 515 516 489 509 513 505 484 518 539 536 544 468 498 507 485 517 525 550 515 532 548 556 531 506 516 544 543 531 518 530 529 523 489 546 512 558 563 547 524 528 511 535 518 539 552 536 549 520 529 560 525 584 569 559 561 479 504 519 514 538 525 486 494 531 502 532 530 539 484 539 489 475 497 534 506 561 528 507 485 508 535 540 495 551 496 490 530 500 479 522 498 500 468 478 499 504 466 535 543 487 497 546 477 502 505 542 503 490 466 502 466 485 482 526 520 492 454 477 486 494 555 490 515 534 459 480 471 531 471 484 527 473 472 471 552 542 460 527 514 466 529 467 507 455 540 448 510 523 527 528 516 469 528 485 507 499 505 542 536 502 491 516 504 498 511 541 467 559 500 524 514 496 511 561 529 544 561 545 491 514 520 510 511 533 486 590 538 513 499 548 536 514 520 544 545 568 545 524 555 547 533 553 551 526 541 573 533 553 585 526 522 549 582 615 556 614 594 608 580 550 590 546 596 564 604 578 565 615 573 594 619 591 653 621 641 600 636 606 709 646 724 697 687 676 672 646 722 704 744 686 749 738 780 760 760 819 764 844 783 867 850 890 841 796 821 893 833 871 837 836 816 783 757 738 880 763 834 866 797 794 788 802 773 734 769 727 775 788 812 729 751 763 728 716 717 724 717 736 695 730 695 633 677 680 625 689 695 688 649 633 623 649 596 612 629 633 573 605 582 568 553 587 585 536 562 581 601 535 608 590 563 533 530 610 544 581 519 570 532 545 566 492 529 547 530 507 524 510 596 517 567 497 528 464 559 511 551 542 585 500 574 504 520 523 569 526 565 567 545 540 570 573 552 551 553 557 489 515 559 551 507 577 541 535 567 575 559 582 565 537 516 528 487 562 544 562 576 556 565 561 531 507 551 539 540 535 549 507 582 598 560 563 560 553 570 533 594 591 641 557 593 516 607 591 587 611 589 668 609 601 622 646 611 669 633 645 646 640 716 620 685 654 612 616 655 605 682 672 631 668 674 737 645 631 563 709 687 712 662 714 701 689 694 685 682 715 674 677 699 711 684 711 719 730 745 724 777 767 769 798 744 865 830 853 819 860 831 902 811 911 910 875 924 962 922 977 904 972 943 966 973 952 997 892 891 1008 976 964 984 894 969 961 955 962 913 887 867 941 876 823 869 875 798 906 836 826 801 818 790 827 832 735 785 770 713 765 744 683 638 728 728 653 633 706 668 615 605 685 654 575 634 621 547 561 640 622 601 553 576 616 575 587 510 537 558 572 487 550 560 535 528 557 522 539 575 522 483 488 497 529 485 523 500 516 525 517 565 500 530 540 521 517 479 478 454 481 527 501 502 539 462 493 481 480 520 541 494 516 462 519 473 467 475 553 520 523 515 530 533 526 529 474 475 503 535 490 523 476 544 503 497 540 505 569 490 538 500 496 510 492 523 519 545 517 519 505 483 510 483 529 532 513 512 504 524 487 476 531 448 503 509 565 452 496 545 565 486 498 536 466 575 494 544 542 508 497 488 539 567 512 571 524 509 536 551 558 565 550 535 539 492 566 480 563 483 531 547 573 536 558 541 562 497 513 527 522 529 522 466 536 563 526 492 503 517 527 542 506 510 570 540 502 533 560 522 542 527 512 504 521 532 525 545 534 552 534 515 488 577 512 543 516 579 589 534 547 497 554 541 523 506 525 549 565 566 557 548 536 609 535 524 549 546 589 592 573 595 575 589 606 629 607 659 664 675 651 666 631 672 655 664 705 616 644 572 628 664 622 661 628 638 595 658 658 665 616 684 631 622 608 621 627 588 611 633 629 624 662 600 574 617 549 611 603 554 604 568 600 543 586 570 582 533 552 536 511 511 525 524 551 490 509 548 573 510 533 529 513 512 545 553 521 540 523 539 558 532 511 498 513 496 554 507 514 486 531 478 491 493 505 457 535 519 491 502 495 514 490 480 485 463 513 519 491 501 525 521 535 495 457 542 470 480 507 505 498 432 516 552 531 511 549 506 500 486 520 490 517 480 526 490 508 531 532 523 527 500 543 519 516 575 518 485 510 542 538 536 551 518 501 538 519 516 519 550 503 531 535 536 542 535 482 516 477 489 559 453 516 482 509 511 481 529 500 539 530 485 515 459 545 472 474 473 477 460 531 537 494 492 552 438 490 474 492 487 504 480 475 496 504 482 485 478 480 487 477 454 484 483 487 497 489 461 504 487 496 525 454 460 480 487 437 471 461 441 469 462 496 511 475 478 452 464 493 454 463 459 487 447 456 493 492 493 453 406 454 483 479 467 489 457 472 459 516 508 464 493 451 484 490 460 459 496 504 473 470 469 452 500 447 506 452 411 468 478 461 399 492 473 485 532 479 505 504 502 472 491 484 492 491 494 477 525 514 488 434 473 475 490 495 474 457 501 534 476 528 520 504 494 496 512 504 520 465 504 476 471 504 464 498 477 468 499 513 504 439 496 506 471 519 504 462 516 493 516 486 484 476 491 496 456 507 461 456 548 526 546 520 469 471 540 519 542 490 526 529 493 521 508 513 512 553 563 578 527 561 555 578 524 564 555 554 550 543 593 541 535 546 564 548 541 542 513 471 451 539 523 553 527 557 539 519 544 505 508 459 469 485 504 508 530 516 536 506 481 497 485 470 502 510 515 519 520 472 503 490 488 508 506 490 471 500 470 451 461 452 456 474 463 495 458 475 460 462 477 488 468 482 498 499 505 490 461 507 541 501 501 460 446 482 453 476 463 482 490 502 509 464 477 511 510 482 507 420 500 472 513 490 519 525 543 486 485 443 484 520 509 513 485 472 505 478 456 485 496 474 495 499 530 461 520 493 523 556 543 506 517 530 546 572 489 535 528 545 511 492 502 529 554 501 510 546 482 527 548 501 495 510 517 511 526 520 588 527 564 560 545 541 512 521 486 565 556 573 542 576 541 539 518 534 543 532 535 549 535 574 504 536 519 530 538 486 522 490 531 501 502 538 570 464 507 482 528 486 514 543 514 516 459 463 509 501 523 501 524 473 518 483 493 521 479 514 438 468 447 489 489 512 510 485 521 526 513 495 476 443 454 494 489 456 469 490 491 532 498 493 507 476 519 511 522 566 524 498 512 520 533 497 505 544 520 543 580 552 516 601 532 621 595 609 659 669 638 649 645 675 683 654 620 740 721 686 750 768 758 758 773 772 771 810 745 773 775 822 790 801 760 824 763 810 750 812 799 762 777 812 745 728 781 765 745 777 807 752 753 735 742 722 700 772 705 691 671 654 724 640 695 686 687 701 728 611 667 657 624 639 628 622 568 600 589 646 566 586 629 527 598 546 538 589 525 587 562 544 572 549 498 550 567 539 521 553 493 509 468 544 515 526 499 516 520 507 513 529 461 493 528 495 483 519 536 496 505 522 488 511 493 472 490 509 512 464 479 505 451 489 453 443 463 465 462 488 494 471 477 515 496 486 478 471 489 496 506 473 493 486 467 505 493 496 527 519 482 497 478 450 501 503 489 515 505 464 514 540 452 494 462 508 479 561 481 537 448 497 444 433 467 495 487 551 521 489 439 494 480 496 463 516 524 507 523 492 468 506 500 494 525 503 485 531 502 492 530 509 505 553 526 519 506 514 546 508 528 521 519 526 512 495 489 504 533 524 490 512 512 539 472 518 530 521 519 531 582 522 529 506 508 550 516 525 528 501 518 563 540 499 537 557 500 548 530 539 471 506 468 454 567 513 534 507 576 505 585 575 535 485 537 492 516 534 496 510 474 514 479 512 530 513 483 471 473 506 520 452 475 484 507 480 448 469 450 516 487 504 491 469 471 460 494 452 497 441 473 453 482 448 486 455 494 483 468 475 477 467 430 444 457 482 463 434 458 438 468 447 471 470 496 403 469 442 453 453 458 499 471 460 450 477 445 445 466 472 441 457 412 459 440 489 466 440 429 445 470 452 455 448 419 452 487 480 483 463 472 474 464 445 431 451 403 415 430 473 458 463 450 470 455 462 476 426 484 474 452 453 467 455 468 441 473 467 493 445 450 425 453 441 442 431 420 453 454 503 475 479 485 471 428 478 451 462 457 436 463 472 449 427 462 431 448 508 413 474 447 486 468 492 487 458 461 490 474 524 484 456 466 480 444 508 457 488 476 472 505 483 498 443 443 494 450 445 470 461 490 491 450 477 453 469 501 497 485 458 435 442 454 501 524 451 476 468 481 467 468 472 503 516 465 498 474 488 435 478 425 491 457 466 482 462 451 466 458 489 460 472 457 453 473 474 420 432 459 432 434 448 480 493 427 475 493 530 474 448 446 506 444 479 455 476 472 479 500 450 448 479 500 490 441 500 494 451 492 483 479 477 460 475 466 469 455 483 470 479 463 465 501 436 466 436 529 474 477 464 481 488 422 503 456 447 426 468 488 510 457 447 498 447 449 464 435 478 439 473 464 465 486 473 450 495 428 463 465 465 458 465 471 478 437 416 456 423 488 486 461 473 465 440 461 489 465 488 427 471 435 462 475 462 519 445 502 486 513 467 457 473 443 479 449 501 489 444 470 460 506 474 476 474 510 471 509 500 580 465 492 452 548 493 535 493 534 503 512 553 488 524 534 529 523 528 540 559 578 554 565 569 546 564 542 542 565 540 584 563 561 590 560 563 558 617 616 564 550 604 535 545 540 523 550 548 566</counts>
			</dataPoints>
		</scan>
	</xrdMeasurement>
</xrdMeasurements>
