<?xml version="1.0"?>
<xrdMeasurements xmlns="http://www.xrdml.com/XRDMeasurement/2.3" xmlns:xsi="http://www.w3.org/2001/XMLSchema-instance" xsi:schemaLocation="http://www.xrdml.com/XRDMeasurement/2.3 http://www.xrdml.com/XRDMeasurement/2.3/XRDMeasurement.xsd" status="Completed" recordIdentifier="{86C02326-E308-40DB-84F5-4C0EDDAA9D33}">
	<comment>
		<entry/>
	</comment>
	<sample type="To be analyzed">
		<id>GPSS_Li2Fe0p7Mn0p1Ni0p2Cl4_110625_690d9f07f040177efa2b78e9</id>
		<name></name>
		<preparedBy></preparedBy>
	</sample>
	<xrdMeasurement measurementType="Scan" status="Completed" sampleMode="Reflection">
		<usedWavelength intended="K-Alpha 1">
			<kAlpha1 unit="Angstrom">1.5405980</kAlpha1>
			<kAlpha2 unit="Angstrom">1.5444260</kAlpha2>
			<kBeta unit="Angstrom">1.3922500</kBeta>
			<ratioKAlpha2KAlpha1>0.5000</ratioKAlpha2KAlpha1>
		</usedWavelength>
		<incidentBeamPath>
			<radius unit="mm">145.00</radius>
			<xRayTube id="1010048" name="Empyrean Cu LFF HR (9430 033 7310x)">
				<tension unit="kV">40.0</tension>
				<current unit="mA">15.0</current>
				<anodeMaterial>Cu</anodeMaterial>
				<focus type="Line">
					<length unit="mm">12.0</length>
					<width unit="mm">0.4</width>
					<takeOffAngle unit="deg">6.0</takeOffAngle>
				</focus>
			</xRayTube>
			<sollerSlit id="21010002" name="Soller slits 0.04 rad.">
				<opening unit="rad">0.0400</opening>
			</sollerSlit>
			<mask id="22031000" name="Fixed mask 13 mm">
				<width unit="mm">9.00</width>
			</mask>
			<divergenceSlit id="22120001" name="Divergence slit 1°" xsi:type="fixedDivergenceSlitType">
				<distanceToSample unit="mm">50.00</distanceToSample>
				<height unit="mm">1.52</height>
			</divergenceSlit>
		</incidentBeamPath>
		<sampleMovement xsi:type="spinningSampleMovementType">
			<spinnerRevolutionTime unit="seconds">1.0</spinnerRevolutionTime>
		</sampleMovement>
		<diffractedBeamPath>
			<radius unit="mm">145.00</radius>
			<antiScatterSlit id="22090040" name="AS slit 9 mm (PIXcel)" xsi:type="fixedAntiScatterSlitType">
				<height unit="mm">9.00</height>
			</antiScatterSlit>
			<sollerSlit id="21020003" name="Large Soller slits 0.04 rad.">
				<opening unit="rad">0.0400</opening>
			</sollerSlit>
			<filter id="20030001" name="Large beta-filter Nickel">
				<material>Ni</material>
				<thickness unit="mm">0.020</thickness>
			</filter>
			<detector id="7010019" name="PIXcel1D-Medipix3 detector" xsi:type="rtmsDetectorType">
				<phd unit="keV">
					<lowerLevel>4.02</lowerLevel>
					<upperLevel>11.27</upperLevel>
				</phd>
				<mode>Scanning</mode>
				<activeLength unit="deg">5.542</activeLength>
			</detector>
		</diffractedBeamPath>
		<scan appendNumber="0" mode="Continuous" scanAxis="Gonio" status="Completed">
			<header>
				<startTimeStamp>2025-11-08T15:36:24-08:00</startTimeStamp>
				<endTimeStamp>2025-11-08T15:44:32-08:00</endTimeStamp>
				<author>
					<name>AutomatedUser</name>
				</author>
				<source>
					<applicationSoftware version="1.7b (136)">PANalytical Aeris Instrument Suite</applicationSoftware>
					<instrumentControlSoftware version="3.2.00000000 20240306">AERIS</instrumentControlSoftware>
					<instrumentID>950485</instrumentID>
				</source>
			</header>
			<dataPoints>
				<positions axis="2Theta" unit="deg">
					<startPosition>10.00943322</startPosition>
					<endPosition>99.99442286</endPosition>
				</positions>
				<positions axis="Omega" unit="deg">
					<startPosition>5.00471661</startPosition>
					<endPosition>49.99721143</endPosition>
				</positions>
				<commonCountingTime unit="seconds">12.495</commonCountingTime>
				<counts unit="counts">3120 3147 3045 3211 3227 3197 3241 3162 3181 3226 3159 3094 3228 3102 3177 3075 3200 3194 3260 3206 3163 3229 3255 3271 3136 3109 3212 3253 3151 3162 3230 3162 3178 3130 3208 3248 3276 3240 3248 3153 3201 3266 3119 3194 3288 3259 3137 3190 3303 3289 3318 3388 3200 3266 3292 3295 3276 3345 3335 3380 3443 3367 3377 3453 3392 3374 3392 3428 3488 3424 3509 3513 3472 3461 3539 3485 3476 3410 3532 3384 3372 3336 3350 3480 3478 3380 3407 3323 3309 3377 3287 3247 3313 3348 3283 3410 3456 3318 3242 3343 3323 3307 3333 3309 3415 3240 3387 3281 3316 3292 3247 3185 3292 3225 3319 3247 3263 3233 3292 3285 3277 3162 3269 3300 3296 3448 3255 3227 3341 3232 3256 3280 3226 3225 3247 3194 3338 3185 3287 3257 3271 3293 3239 3292 3168 3198 3176 3216 3218 3369 3166 3342 3265 3303 3320 3248 3282 3225 3258 3262 3273 3208 3327 3280 3204 3186 3153 3273 3278 3178 3283 3327 3190 3203 3289 3327 3221 3183 3276 3299 3233 3250 3265 3148 3219 3166 3088 3234 3273 3276 3269 3263 3200 3249 3234 3181 3228 3238 3185 3189 3215 3248 3200 3195 3250 3249 3262 3359 3106 3108 3185 3098 3172 3210 3255 3208 3225 3134 3183 3206 3176 3190 3164 3218 3109 3116 3344 3191 3166 3167 3128 3188 3101 3211 3114 3211 3155 3169 3196 3228 3187 3232 3217 3123 3153 3186 3108 3253 3215 3177 3272 3149 3263 3200 3263 3174 3162 3213 3170 3271 3130 3205 3221 3058 3219 3170 3242 3105 3180 3093 3124 3272 3166 3282 3148 3224 3151 3157 3185 3144 3248 3347 3152 3192 3167 3247 3209 3230 3211 3196 3162 3284 3360 3235 3294 3122 3218 3209 3161 3105 3291 3395 3193 3291 3360 3225 3221 3137 3173 3261 3276 3388 3238 3287 3254 3194 3225 3358 3313 3341 3244 3271 3351 3320 3354 3355 3264 3272 3298 3298 3447 3274 3390 3305 3423 3327 3462 3442 3443 3361 3360 3348 3376 3385 3402 3448 3393 3405 3443 3432 3400 3330 3452 3569 3557 3413 3531 3427 3483 3510 3493 3529 3486 3312 3375 3578 3582 3573 3440 3619 3533 3699 3657 3619 3523 3479 3605 3661 3683 3621 3522 3482 3697 3662 3644 3616 3652 3596 3716 3578 3770 3791 3769 3648 3815 3640 3627 3690 3682 3732 3561 3768 3782 3800 3741 3730 3811 3881 3830 3844 3851 3883 3886 3903 3925 3858 4014 3988 4074 4044 4159 4214 4158 4329 4285 4304 4376 4560 4535 4608 4617 4639 4616 4693 4725 4785 4734 4844 4784 4862 4814 4946 4909 5080 4962 5113 4983 5154 5092 5168 5182 5037 5038 5090 5034 4983 4904 4826 4759 4829 4638 4626 4534 4500 4376 4363 4416 4296 4244 4188 4270 4371 4146 4220 4190 4245 4092 4123 4289 4225 4218 4200 4127 4002 4075 4047 3969 3915 3926 3832 3887 3912 3807 3707 3829 3704 3697 3686 3809 3675 3598 3581 3592 3684 3548 3630 3545 3442 3466 3687 3489 3454 3555 3501 3623 3470 3507 3563 3533 3489 3554 3492 3535 3486 3523 3500 3526 3496 3508 3520 3398 3375 3445 3576 3484 3421 3581 3540 3385 3419 3439 3478 3511 3452 3527 3398 3391 3436 3378 3434 3392 3380 3427 3413 3466 3367 3354 3414 3418 3320 3328 3373 3345 3401 3357 3209 3308 3302 3432 3311 3322 3278 3297 3272 3277 3428 3289 3202 3277 3251 3312 3295 3346 3246 3313 3181 3288 3237 3224 3243 3241 3228 3229 3340 3407 3224 3230 3186 3281 3279 3243 3195 3206 3205 3212 3282 3251 3231 3126 3134 3259 3294 3260 3140 3275 3337 3240 3126 3112 3282 3198 3291 3246 3129 3171 3118 3227 3140 3246 3278 3267 3202 3103 3201 3149 3118 3142 3209 3245 3210 3227 3342 3190 3210 3220 3240 3330 3216 3182 3174 3232 3230 3307 3210 3307 3282 3307 3164 3243 3232 3265 3331 3347 3260 3297 3289 3190 3222 3142 3338 3247 3164 3291 3276 3197 3191 3137 3196 3273 3203 3213 3208 3180 3193 3130 3233 3151 3148 3259 3260 3053 3169 3108 3076 3150 3208 3092 3102 3115 3158 3076 3002 3094 3157 3036 3182 3193 3126 3132 3061 3086 3069 3104 3156 3028 3131 3047 3121 3159 3178 3079 3156 3029 3113 3159 3263 3102 3150 3111 3105 3034 3153 3148 3090 3123 3090 3141 3083 3225 3037 3080 3071 3066 3044 3051 3085 3025 2977 3089 3024 3156 3054 3091 3091 3031 3095 3072 3045 2953 3071 3094 3101 2973 3103 3028 2993 3028 3011 3156 3050 3141 3046 3074 3035 3136 3023 3133 2949 3099 3066 3001 2986 3053 3028 3006 3083 2969 3182 3051 3015 3181 3068 3168 3089 3010 3091 3109 3188 3036 3054 3022 3069 3115 3049 3016 3031 3074 3079 3015 3031 3071 3036 3052 2976 3030 3053 2984 2962 3076 2997 3138 3027 3089 3072 2921 2995 3009 3008 3000 3076 2958 2984 2997 3056 2977 2960 2911 3073 2931 3004 3029 3019 3033 3055 2973 2981 2872 2973 3014 2995 2875 2904 2953 2917 3020 2964 2965 2980 3004 2988 3015 3021 2870 2945 2954 3024 3005 2933 2997 2942 2965 2988 2990 2903 2915 2988 2970 2873 2971 2958 2890 2919 2954 2956 2997 2964 3030 2892 2919 2804 3000 2937 2884 2955 2959 2932 2868 3002 2975 2970 3002 2777 2852 2949 2952 2919 2796 2871 2815 3002 2925 2980 2944 2851 2924 2884 2795 2954 2904 2915 2805 2952 2931 3002 2889 2906 2886 2881 2924 2910 2925 2790 2998 2955 2920 2942 2779 2881 2933 2902 2845 2812 2786 2882 2795 2998 2844 2898 2884 2921 2918 2820 2816 2953 2954 2824 2822 2853 2857 2922 2871 2890 2863 2848 2844 2810 2913 2916 2869 3018 3025 2961 2889 2816 2948 2852 2963 2842 2884 2982 2940 2901 2866 2968 2860 2779 2919 2911 2863 2897 2828 2888 2876 2894 2893 2927 2861 2986 2877 2862 2910 2846 2948 3014 2866 2944 2922 2922 2915 2843 2865 2910 2886 2818 2900 2862 2978 2867 2857 2904 2916 2893 2890 2864 2799 2877 2944 2783 2800 2882 2915 2834 2862 2878 2825 2816 2819 2938 2852 2809 2852 2901 2932 2964 2924 2891 2955 2869 3020 2882 2918 2818 2824 2923 2929 2869 2902 2867 2838 2764 3003 2828 2890 2759 2910 2929 2812 2902 2862 2844 2915 2898 2913 2832 2858 2931 2916 2861 2826 2881 2825 2805 2850 2905 2859 2924 2858 2934 2948 2945 2980 2851 2844 2897 2899 2806 2784 2907 2907 2852 2906 2857 2851 2761 2826 2862 2896 2918 2849 2840 2769 2818 2893 2797 2733 2952 2836 2829 2761 2837 2671 2917 2770 2737 2824 2728 2869 2829 2807 2898 2784 2780 2737 2803 2854 2762 2878 2787 2843 2652 2825 2663 2738 2751 2835 2716 2787 2808 2724 2718 2732 2800 2758 2768 2660 2711 2732 2672 2678 2660 2673 2717 2733 2768 2713 2700 2748 2719 2714 2760 2724 2700 2668 2582 2728 2587 2711 2628 2633 2562 2621 2621 2631 2667 2584 2591 2570 2713 2554 2692 2516 2569 2609 2581 2618 2502 2551 2541 2609 2526 2501 2484 2599 2520 2561 2520 2463 2470 2400 2605 2529 2544 2583 2531 2446 2439 2557 2497 2479 2533 2446 2465 2447 2456 2514 2515 2430 2526 2505 2413 2442 2380 2471 2502 2357 2385 2456 2383 2488 2405 2442 2519 2421 2419 2433 2447 2403 2413 2462 2312 2426 2318 2422 2477 2411 2439 2548 2414 2403 2350 2347 2404 2321 2422 2309 2247 2361 2359 2338 2363 2331 2327 2241 2379 2347 2438 2353 2267 2349 2356 2343 2283 2265 2373 2284 2283 2334 2349 2250 2359 2251 2239 2276 2304 2345 2358 2315 2289 2329 2303 2186 2225 2384 2381 2297 2202 2301 2353 2297 2252 2331 2393 2311 2326 2268 2312 2284 2357 2348 2250 2395 2281 2313 2361 2286 2267 2277 2343 2308 2275 2289 2235 2303 2442 2359 2323 2348 2313 2370 2347 2247 2226 2259 2349 2262 2276 2252 2270 2303 2227 2166 2367 2212 2217 2155 2179 2267 2259 2163 2276 2207 2154 2224 2345 2275 2328 2232 2185 2249 2206 2180 2214 2240 2212 2225 2180 2213 2185 2238 2266 2215 2139 2319 2238 2187 2124 2148 2301 2163 2197 2298 2135 2192 2138 2157 2226 2232 2194 2259 2250 2167 2203 2171 2140 2170 2190 2174 2175 2171 2249 2236 2210 2327 2171 2183 2254 2178 2244 2196 2183 2112 2200 2235 2224 2270 2161 2300 2257 2132 2174 2189 2265 2263 2186 2240 2192 2258 2240 2150 2127 2250 2171 2198 2219 2278 2153 2177 2244 2213 2273 2291 2156 2235 2168 2215 2097 2149 2245 2162 2197 2304 2154 2310 2213 2291 2175 2197 2216 2190 2277 2229 2221 2141 2184 2141 2155 2149 2196 2220 2124 2254 2174 2204 2121 2251 2147 2238 2193 2167 2215 2107 2166 2197 2237 2222 2276 2186 2245 2156 2182 2151 2233 2180 2173 2207 2177 2130 2138 2169 2141 2106 2154 2121 2197 2200 2205 2166 2141 2126 2112 2146 2182 2182 2166 2162 2185 2093 2095 2138 2117 2134 2174 2153 2118 2012 2122 2074 2110 2102 2011 2119 2103 2106 2054 2157 2128 2110 2104 2120 2104 2057 2075 2077 2044 2052 2024 2169 2006 2153 2071 2048 2024 2115 1998 2035 1979 2036 1997 1963 1986 2023 2089 1938 2022 2055 1970 1994 1985 1992 1906 2027 2028 2004 1968 1866 2031 2013 1936 1902 1982 2077 1963 1892 1893 1973 1960 1970 1932 1951 1969 1922 1937 1979 1938 1961 1939 1936 1926 1839 1921 1944 1888 1906 1913 1907 1936 1822 2004 1958 1958 1936 1874 1926 1911 1914 1849 1895 1837 1867 1833 1873 1840 1890 1927 1906 1955 1880 1919 1882 1832 1860 1793 1855 1883 1835 1918 1826 1793 1855 1873 1862 1835 1858 1882 1768 1882 1870 1842 1886 1849 1839 1869 1798 1849 1830 1902 1879 1836 1790 1931 1851 1843 1836 1829 1773 1858 1920 1874 1893 1839 1901 1845 1884 1837 1862 1823 1910 1866 1886 1963 1963 1930 2074 1895 1977 2019 2041 2006 2066 2091 2131 2135 2146 2066 2187 2160 2098 2181 2166 2195 2076 2132 2243 2180 2222 2220 2239 2214 2149 2124 2165 2120 2117 2142 2130 2058 2102 2033 2042 2053 2004 2012 1999 1957 1951 1898 1968 1986 1891 1940 1950 1881 1936 1894 1903 1907 1883 1916 1897 1875 1908 1839 1888 1805 1793 1784 1790 1828 1829 1800 1728 1795 1766 1727 1739 1717 1774 1714 1679 1696 1752 1756 1765 1783 1674 1654 1757 1723 1738 1705 1719 1648 1605 1710 1677 1702 1612 1667 1676 1759 1639 1671 1718 1620 1714 1669 1774 1721 1709 1715 1726 1765 1725 1714 1769 1761 1876 1859 1907 1880 1874 1965 1922 2166 2085 2061 2087 2098 2147 2133 2215 2194 2150 2230 2192 2181 2247 2141 2294 2335 2318 2386 2351 2366 2371 2357 2341 2260 2388 2222 2306 2247 2283 2197 2209 2112 2165 2029 1989 2006 2097 1922 2055 1990 1895 1892 1974 1948 1826 1883 1826 1785 1763 1792 1761 1739 1716 1624 1707 1690 1636 1608 1635 1576 1604 1663 1593 1600 1582 1626 1614 1596 1552 1589 1534 1636 1557 1562 1611 1521 1509 1601 1462 1570 1481 1557 1548 1559 1565 1552 1537 1503 1565 1540 1629 1511 1482 1513 1564 1558 1620 1515 1525 1532 1545 1605 1521 1589 1489 1473 1499 1459 1473 1474 1386 1548 1507 1561 1518 1532 1496 1555 1539 1487 1498 1539 1443 1464 1505 1493 1495 1563 1457 1485 1480 1414 1483 1498 1512 1518 1431 1533 1478 1504 1456 1535 1444 1436 1456 1450 1485 1468 1417 1434 1384 1498 1381 1423 1450 1420 1435 1482 1469 1387 1464 1418 1444 1389 1449 1457 1427 1432 1454 1456 1461 1486 1428 1505 1426 1467 1400 1477 1414 1452 1370 1481 1440 1437 1472 1390 1474 1401 1417 1524 1417 1437 1462 1463 1472 1456 1490 1436 1404 1414 1457 1398 1351 1432 1497 1304 1393 1434 1437 1487 1395 1390 1422 1462 1439 1476 1422 1470 1496 1383 1480 1432 1420 1404 1501 1417 1418 1411 1425 1384 1337 1368 1388 1426 1424 1448 1378 1373 1486 1430 1482 1500 1495 1468 1435 1431 1457 1472 1406 1431 1444 1489 1564 1497 1536 1470 1498 1471 1489 1518 1483 1579 1502 1562 1551 1574 1535 1544 1517 1599 1619 1608 1579 1593 1619 1616 1567 1587 1591 1651 1608 1597 1581 1568 1616 1565 1563 1682 1593 1542 1557 1534 1518 1573 1479 1540 1526 1560 1518 1485 1512 1432 1545 1566 1537 1535 1452 1482 1520 1435 1427 1452 1513 1347 1435 1434 1533 1420 1430 1432 1387 1453 1431 1378 1429 1429 1423 1441 1433 1388 1360 1474 1470 1387 1424 1431 1383 1437 1432 1400 1397 1445 1377 1429 1452 1393 1406 1431 1460 1406 1436 1395 1417 1458 1396 1354 1376 1433 1438 1514 1448 1401 1409 1395 1420 1369 1455 1406 1435 1435 1414 1483 1430 1473 1437 1370 1406 1427 1437 1330 1405 1395 1363 1389 1403 1404 1374 1394 1438 1437 1426 1397 1378 1447 1441 1410 1423 1377 1365 1437 1461 1391 1477 1364 1484 1402 1414 1442 1461 1449 1484 1412 1446 1479 1500 1585 1565 1585 1668 1654 1629 1653 1726 1753 1804 1792 1902 1845 2009 2101 2167 2176 2370 2296 2413 2494 2498 2647 2693 2777 2796 2899 2976 3082 3131 3136 3143 3295 3240 3235 3428 3449 3414 3397 3346 3493 3482 3476 3342 3405 3383 3287 3388 3399 3165 3186 3133 2972 2896 2922 2817 2840 2726 2683 2724 2674 2443 2514 2450 2426 2387 2269 2368 2236 2211 2304 2177 2044 2060 2009 1973 2001 1835 1750 1810 1896 1806 1782 1682 1711 1618 1642 1602 1616 1563 1531 1623 1583 1570 1535 1558 1562 1520 1478 1499 1509 1519 1491 1524 1525 1420 1479 1427 1387 1475 1444 1455 1409 1470 1437 1408 1486 1358 1447 1436 1357 1457 1353 1373 1378 1349 1437 1412 1347 1309 1357 1343 1365 1274 1359 1379 1295 1344 1360 1254 1270 1386 1400 1351 1332 1318 1326 1302 1301 1358 1303 1383 1266 1314 1258 1355 1324 1389 1259 1342 1325 1263 1305 1330 1338 1276 1248 1337 1348 1331 1274 1249 1305 1310 1271 1277 1302 1354 1311 1248 1305 1291 1297 1320 1234 1296 1284 1282 1315 1309 1287 1295 1314 1326 1272 1312 1213 1223 1284 1256 1256 1323 1247 1253 1312 1215 1303 1237 1245 1209 1231 1274 1207 1355 1242 1234 1323 1242 1254 1268 1233 1284 1264 1256 1290 1215 1245 1198 1144 1236 1190 1149 1184 1209 1270 1229 1242 1152 1198 1221 1209 1195 1214 1256 1188 1303 1199 1155 1230 1199 1190 1226 1228 1206 1271 1186 1249 1202 1172 1236 1178 1244 1199 1244 1210 1245 1185 1209 1218 1243 1185 1282 1230 1205 1203 1212 1165 1248 1213 1248 1189 1203 1234 1220 1170 1234 1196 1192 1205 1124 1176 1208 1222 1186 1232 1234 1144 1193 1187 1186 1173 1227 1167 1166 1238 1219 1210 1162 1198 1226 1148 1161 1251 1211 1196 1193 1236 1209 1207 1248 1243 1214 1121 1153 1143 1214 1262 1200 1223 1201 1203 1224 1190 1263 1193 1232 1281 1227 1270 1216 1259 1291 1290 1181 1249 1264 1185 1218 1233 1244 1229 1212 1202 1240 1220 1177 1201 1199 1195 1169 1178 1221 1163 1249 1237 1193 1299 1205 1228 1193 1243 1212 1210 1238 1210 1214 1189 1168 1182 1238 1166 1190 1183 1159 1114 1171 1158 1187 1192 1156 1138 1238 1176 1129 1195 1212 1116 1259 1096 1245 1114 1159 1181 1151 1194 1160 1096 1204 1150 1176 1112 1160 1199 1110 1218 1139 1156 1171 1144 1129 1144 1145 1186 1118 1198 1172 1175 1143 1111 1132 1211 1158 1121 1181 1153 1175 1050 1141 1195 1152 1154 1154 1197 1145 1123 1158 1175 1196 1211 1138 1122 1194 1236 1212 1192 1169 1166 1180 1167 1137 1108 1122 1163 1142 1133 1152 1095 1141 1124 1075 1189 1149 1190 1103 1148 1159 1175 1078 1135 1120 1138 1160 1177 1097 1165 1160 1149 1079 1122 1152 1125 1157 1120 1085 1109 1235 1097 1187 1141 1082 1114 1167 1109 1165 1176 1073 1106 1074 1106 1131 1087 1169 1053 1125 1108 1071 1110 1138 1116 1194 1107 1099 1084 1140 1141 1122 1094 1080 1124 1122 1127 1098 1089 1100 1125 1088 1140 1140 1068 1144 1103 1094 1182 1034 1120 1126 1140 1047 1132 1105 1108 1075 1123 1169 1110 1123 1142 1143 1097 1133 1110 1121 1103 1157 1124 1075 1076 1051 1085 1110 1118 1093 1066 1110 1103 1068 1069 1107 1097 1141 1111 1110 1092 1068 1087 1165 1096 1016 1094 1112 1135 1082 1091 1112 1065 1089 1127 1099 1046 1081 1093 1068 1066 1102 1065 1114 1065 1083 1073 1164 1007 1030 1012 1075 1057 1113 1061 1140 1098 1073 1100 1103 1076 1054 1089 1046 1143 1135 1129 1079 1100 1082 1069 1148 1086 1067 1068 1105 1106 1085 1022 1095 1094 1012 1075 1153 1088 1076 1085 1083 1099 1142 1065 1070 1082 1061 1045 1061 1045 1086 1129 1088 1098 1017 1056 1033 1024 1030 1132 1082 1044 1106 1041 1061 1043 1071 1101 1016 1034 1068 1033 1066 1018 1098 1084 1063 1007 1102 1148 1040 1058 1066 1089 1069 1088 1051 1040 1026 1131 1090 1044 1109 1037 1062 1086 1022 1118 1055 1097 1102 1045 1082 1105 1161 1033 1104 1045 1097 1098 1044 1072 1077 1018 1083 1033 1060 1098 1071 1082 1113 1098 1060 1079 1055 1099 1035 1088 1046 1062 1050 1126 1018 1042 1134 1103 1074 1026 1086 1140 1031 1072 1022 1049 1084 1076 1071 1089 1043 985 1010 1056 996 1070 1022 1058 1066 1064 1067 1066 1067 1037 1124 1099 1060 1013 1043 1065 1093 1035 1048 1023 1061 1091 1036 1049 1081 1053 1087 1062 1133 1050 1133 1022 1072 1099 1054 1092 1056 1064 1024 1045 1091 1110 1088 1089 1019 1061 1120 1009 1074 1085 1072 1055 1063 1083 1089 1068 1028 1080 1075 1070 1024 1112 1032 1058 1078 1138 1060 1052 1005 1047 1057 1057 1092 1100 1065 987 1031 1072 1035 1038 1047 1044 1058 1042 1077 1089 1096 1060 1092 1068 992 1012 1052 1093 1027 1059 1030 1057 1038 1020 1049 1061 1020 1022 1059 1042 1060 1038 962 1005 1065 1067 1020 1048 1020 1065 1044 1044 1039 1037 1049 1045 1072 1018 1073 1002 1052 1021 1043 1016 1073 1049 1011 1099 1127 1070 1074 1061 1036 1086 1088 1076 1024 1057 1069 1039 1007 1103 1020 1030 1063 1025 1100 1044 1033 1020 991 1062 1058 1022 1026 1032 1044 1025 1018 1060 1019 1096 1026 1073 1080 1107 1068 1023 1054 1127 986 1054 1017 1078 1016 1081 1056 1030 1042 1000 1136 1050 1075 1048 1053 1044 1045 1065 1033 1114 992 1026 1067 989 1011 987 1011 1017 1068 1038 988 1030 1019 1041 1004 936 1054 1016 1004 972 1028 1063 1009 996 1010 1080 1043 1072 998 1059 1020 1022 1040 1046 1024 990 1008 1057 1009 1111 997 1039 1081 988 1017 1045 1054 1025 1032 1027 923 1048 1075 1073 1052 1089 1029 1054 1088 1068 1041 1058 1098 1118 1150 1175 1102 1202 1143 1119 1130 1138 1158 1169 1171 1197 1186 1171 1195 1211 1103 1151 1121 1194 1215 1110 1046 1204 1164 1199 1094 1183 1082 1127 1163 1147 1148 1100 1173 1106 1155 1129 1119 1066 1037 1038 1142 1040 1120 1092 1106 1040 1050 1097 1076 1046 1087 1058 1041 1057 1040 1045 1019 1034 1013 1072 1054 1048 1039 1091 1006 1041 1056 1002 1015 1026 997 1060 1044 1059 1011 987 1025 971 979 929 960 962 999 987 986 987 991 976 969 981 1006 1029 995 961 999 966 964 979 1009 940 1066 964 997 1021 1008 1003 1017 989 967 957 1015 994 1031 1006 1003 931 1035 908 901 1008 1003 1006 995 1015 956 1035 956 1010 993 997 973 961 1016 969 998 953 951 969 987 992 929 985 1018 1029 932 975 948 997 916 986 967 1000 988 996 965 1029 948 1045 1002 940 980 976 955 980 974 1028 978 967 939 876 981 1017 952 962 975 979 953 965 945 970 1015 943 967 953 1017 951 922 979 974 980 967 967 913 908 899 935 948 955 913 979 951 967 966 1030 931 959 893 984 1008 993 1013 978 961 1002 1038 1019 1009 986 957 931 1037 956 967 978 931 994 978 920 937 974 963 957 1004 982 985 993 962 986 1003 979 936 1007 952 997 954 968 943 902 982 929 967 939 907 991 954 955 921 1003 975 975 972 988 962 972 972 1013 892 979 928 925 994 984 1011 1024 1012 982 904 994 948 1031 973 978 944 902 896 1027 966 980 964 936 997 928 964 1002 965 1009 976 966 921 979 942 954 960 943 991 969 972 934 948 940 975 943 1037 978 929 958 915 949 983 930 959 930 985 932 964 972 949 945 969 975 962 958 920 960 1008 934 1008 950 935 1005 1011 914 916 951 924 934 979 967 1004 960 1001 956 914 994 1030 997 957 1039 1115 1018 993 1026 993 1032 987 992 1012 1047 1035 1049 1039 1027 1055 1037 1053 1062 1087 1083 1154 1147 1140 1119 1241 1184 1214 1223 1327 1347 1343 1354 1330 1432 1400 1473 1465 1420 1550 1571 1566 1635 1643 1561 1662 1662 1665 1650 1612 1668 1770 1712 1690 1703 1668 1742 1651 1656 1608 1636 1662 1641 1616 1584 1549 1529 1519 1548 1582 1558 1473 1495 1511 1535 1457 1462 1450 1443 1371 1396 1383 1348 1365 1386 1329 1360 1281 1300 1278 1273 1268 1293 1260 1352 1182 1151 1197 1227 1212 1268 1181 1155 1150 1144 1096 1115 1100 1087 1058 1139 1092 1080 1065 1107 1097 1057 1062 1052 1041 969 1044 1035 1090 1066 1062 1047 983 1048 1022 1045 1006 1039 999 1020 1000 1004 1033 1023 985 994 972 979 963 987 973 1004 945 984 1053 969 1040 979 996 961 998 993 1017 1013 958 926 982 973 945 1012 944 1031 950 984 1001 973 970 932 939 959 1014 1008 974 935 998 936 914 928 883 989 962 972 900 937 959 948 935 958 919 965 991 949 925 911 957 938 961 956 905 998 942 901 978 896 957 916 947 888 912 900 886 933 909 945 878 930 921 909 929 902 910 918 918 931 965 943 910 933 859 903 914 944 951 993 929 972 888 950 923 913 919 918 945 887 935 886 921 920 930 973 976 925 916 939 975 949 992 992 950 1009 991 1004 933 948 967 928 967 1011 1051 1035 1029 1011 1021 942 1000 1008 986 977 1030 1007 985 946 976 944 1052 987 986 1046 1009 964 948 991 939 981 900 944 953 932 927 956 963 943 931 890 905 991 978 910 983 952 953 969 911 945 938 950 980 942 975 898 959 907 925 954 885 905 928 874 892 879 967 886 901 874 845 929 921 946 915 919 952 916 892 887 975 866 901 905 915 882 912 965 956 865 898 892 901 945 861 940 946 944 967 971 903 950 922 913 914 898 864 869 923 901 930 857 916 910 886 902 863 893 870 829 839 862 897 854 879 812 885 935 854 898 878 854 875 869 925 904 913 867 883 854 855 875 854 861 928 897 941 825 889 897 852 908 871 928 875 874 900 905 867 898 858 861 838 871 883 877 855 863 831 860 793 835 833 803 822 862 826 856 840 829 867 908 882 872 848 852 862 814 824 879 909 861 869 849 803 852 867 895 865 841 855 878 887 926 833 835 903 831 919 856 795 880 828 816 879 837 846 863 871 851 812 809 871 876 857 880 828 848 835 880 837 868 867 892 862 846 864 802 875 904 874 850 868 847 845 851 838 874 874 817 860 911 849 832 849 911 872 871 767 867 880 880 811 816 827 860 901 863 876 858 877 873 782 867 859 832 859 844 824 918 837 827 773 893 847 836 850 829 854 806 866 848 802 839 858 799 842 864 866 840 775 784 861 838 827 851 814 825 822 877 859 861 862 833 817 820 839 861 826 815 855 856 839 856 813 797 885 808 891 802 794 887 855 843 895 822 879 868 776 849 798 855 823 796 778 845 787 845 821 850 823 860 885 793 816 836 830 811 763 826 859 815 849 844 878 797 833 827 841 869 802 838 795 799 791 864 799 782 840 835 855 846 792 833 808 854 849 839 869 811 828 873 859 835 805 853 826 821 813 827 812 861 867 791 797 872 824 821 824 818 812 864 848 821 809 798 834 822 795 849 875 895 863 818 866 799 832 841 837 761 810 853 803 850 840 859 807 858 809 805 857 789 865 827 816 841 812 792 840 867 821 859 828 824 848 850 801 779 790 832 842 822 851 852 754 889 837 787 781 880 811 823 792 870 760 805 803 844 813 846 821 812 851 810 828 822 804 832 811 822 765 797 787 833 797 868 852 823 771 840 816 830 726 827 836 824 838 803 800 807 822 737 819 774 784 829 791 819 856 838 824 808 834 821 805 800 829 790 820 767 842 798 809 858 833 813 772 830 790 801 821 866 788 808 804 797 814 820 810 839 800 839 863 830 758 801 792 855 868 836 813 841 823 759 775 795 847 868 801 812 844 834 764 898 823 852 843 850 836 847 855 808 781 843 827 860 837 860 850 823 832 799 841 808 827 817 834 870 862 844 842 842 826 853 864 846 820 850 841 889 853 787 784 818 852 819 879 826 826 852 841 867 818 831 834 862 834 805 851 818 895 829 880 869 877 913 856 881 899 853 866 903 861 892 883 887 854 894 884 825 852 901 845 880 862 869 849 834 823 897 813 910 851 863 893 869 888 839 878 795 822 839 905 852 872 865 815 865 851 854 856 941 888 905 791 870 829 864 861 815 851 865 888 787 833 815 838 801 848 795 830 833 816 820 829 804 803 904 819 833 874 865 826 835 846 811 804 843 774 776 797 823 787 774 778 847 825 802 795 777 823 840 768 803 715 793 803 777 800 823 804 755 821 779 790 812 796 744 746 798 862 727 785 792 813 794 775 817 837 754 795 786 780 854 770 875 819 798 822 754 750 743 791 758 769 807 757 828 796 750 796 799 851 803 771 829 792 765 737 760 766 787 823 726 766 749 827 774 813 777 852 802 775 747 788 790 797 788 859 858 752 766 778 853 742 771 781 859 795 818 824 814 827 815 781 777 794 809 828 790 794 792 817 789 805 794 764 805 819 752 779 789 792 796 822 823 795 785 771 818 832 776 825 804 812 788 799 840 835 781 776 821 756 812 743 793 755 769 767 755 774 758 821 789 825 779 802 824 830 795 841 808 895 842 793 874 793 881 852 851 836 855 855 930 885 891 915 901 838 957 878 901 946 883 963 963 912 956 920 913 921 953 915 992 934 898 899 963 937 917 923 877 968 920 880 889 911 866 893 924 859 911 891 842 904 884 904 907 877 808 877 924 885 822 854 845 886 832 811 825 836 836 862 858 932 872 899 880 838 858 888 859 830 764 864 828 790 817 837 806 831 856 802 826 821 811 818 778 759 806 812 788 793 819 833 790 782 782 816 765 765 756 758 799 781 812 790 822 778 805 802 817 732 780 776 788 775 774 790 789 800 797 766 768 777 865 788 803 773 758 818 818 784 802 752 787 770 761 748 786 818 790 820 833 804 778 798 717 814 794 766 854 793 782 838 813 782 784 715 740 781 720 771 804 817 757 719 838 778 796 831 726 835 747 740 783 772 776 787 768 834 782 754 760 775 777 743 814 806 769 785 787 807 773 764 772 778 794 800 781 769 829 800 818 844 803 765 784 794 776 801 794 777 821 785 825 820 776 798 800 809 793 797 794 831 809 811 834 806 796 763 792 716 773 828 803 793 789 782 759 740 792 774 769 814 842 796 766 736 858 758 776 774 790 783 738 749 758 715 747 783 758 717 764 772 788 791 781 792 757 747 750 719 760 731 752 722 778 803 774 755 725 763 757 745 814 805 756 784 806 809 748 793 770 811 752 754 699 773 749 738 727 709 687 765 766 745 735 768 775 759 761 773 737 754 729 746 733 751 707 771 704 776 737 738 737 771 701 803 706 736 790 742 739 771 750 749 732 706 746 719 750 728 763 723 756 752 775 732 738 796 714 720 738 793 715 743 728 737 755 750 715 756 762 739 772 774 750 742 762 762 705 705 773 719 772 740 780 707 742 714 748 750 762 749 708 703 725 744 734 729 718 731 756 725 737 770 734 740 792 713 797 708 729 751 728 729 707 701 789 768 762 721 738 718 709 731 732 726 780 778 774 733 697 733 686 725 714 737 762 772 701 782 744 737 692 750 685 768 715 719 730 708 716 700 714 737 711 727 694 730 748 677 731 784 736 710 725 760 697 716 762 743 706 720 738 766 699 689 742 670 718 784 773 786 762 741 731 708 725 704 733 731 691 750 744 685 759 722 697 718 762 716 690 697 763 694 722 715 739 705 699 740 713 754 742 734 712 743 730 748 765 743 720 717 762 732 708 726 720 757 750 750 753 734 703 782 680 727 731 729 720 707 731 743 743 719 710 718 741 702 785 734 732 681 746 712 718 739 714 750 713 746 769 690 743 737 736 713 753 752 725 687 713 741 697 755 781 703 746 763 695 766 724 688 744 735 741 675 732 683 666 733 779 698 771 744 720 746 714 710 713 749 678 773 715 737 706 739 676 760 661 729 707 716 738 749 749 744 663 682 708 773 744 734 721 732 691 718 752 691 675 752 740 749 733 744 716 714 731 684 742 730 762 730 711 716 673 744 723 727 699 761 706 733 741 761 747 721 681 695 722 701 699 716 723 718 710 700 758 722 713 750 755 702 752 739 752 663 708 689 684 725 716 764 726 724 766 754 740 704 725 712 726 690 723 697 702 713 746 722 745 703 706 756 712 715 743 753 729 747 737 746 671 774 717 715 721 740 691 759 760 754 687 734 761 695 792 732 754 732 724 760 782 700 758 777 725 724 734 738 737 713 760 720 732 779 753 709 736 750 725 728 719 746 731 739 723 726 709 703 689 729 706 755 795 736 742 749 729 727 753 758 773 722 739 786 725 685 775 751 707 728 733 742 770 750 677 731 727 707 694 724 696 758 728 693 742 730 724 754 744 716 675 703 763 704 734 762 744 746 724 739 712 694 690 734 712 744 700 733 743 685 675 724 686 766 667 688 681 676 648 722 740 715 690 750 765 762 737 680 668 718 719 706 739 757 706 724 690 705 741 716 740 718 722 720 771 660 702 726 702 707 668 695 702 773 731 726 723 740 713 699 687 730 729 718 677 685 732 704 720 698 727 696 704 693 674 678 689 724 741 683 713 707 724 695 711 725 728 701 707 753 690 700 705 728 677 706 742 714 715 698 748 678 701 693 747 622 675 688 707 736 735 688 702 700 734 694 709 707 713 763 714 697 672 708 608 700 703 721 679 713 710 719 702 714 758 721 713 688 744 663 770 741 670 711 703 737 731 678 753 732 691 680 721 741 667 698 716 708 693 717 699 708 715 696 677 697 666 748 728 702 758 697 722 733 702 694 696 693 714 661 697 726 711 663 702 695 695 698 745 722 749 717 727 700 785 692 772 738 783 707 713 764 702 708 674 733 744 728 741 776 743 723 733 720 771 762 750 693 746 717 749 709 818 726 774 773 767 814 732 775 759 771 766 758 756 829 686 759 735 746 720 785 720 683 763 731 708 748 731 725 765 733 760 715 719 737 758 720 763 799 793 715 736 720 755 717 718 792 733 759 746 737 760 743 736 738 716 781 704 759 729 714 729 712 740 750 710 749 710 694 751 708 670 739 690 690 711 732 728 719 742 733 728 759 723 741 748 681 720 722 710 747 759 742 728 682 760 705 701 735 770 706 726 710 707 668 702 699 712 725 790 731 739 728 713 726 760 716 726 753 721 777 643 709 692 752 722 729 704 677 702 731 723 708 676 704 692 670 678 701 769 721 695 700 679 702 738 695 729 693 692 705 711 693 699 736 704 689 668 691 677 774 675 707 728 723 726 735 726 661 700 689 683 681 711 708 739 655 736 675 740 713 749 682 655 705 716 648 700 728 700 699 711 691 664 722 688 705 706 683 712 708 667 683 659 679 719 686 732 671 707 670 681 723 669 649 700 694 653 696 691 744 720 753 732 713 695 699 717 694 676 752 733 732 693 661 612 703 711 660 690 709 672 683 683 685 697 715 715 730 715 674 671 666 682 690 762 715 742 708 657 723 654 682 670 668 678 740 686 702 718 676 674 731 685 708 697 757 738 684 706 720 735 664 673 734 698 724 741 674 703 698 670 657 677 723 693 695 687 705 720 731 713 709 674 719 655 715 727 696 724 687 745 691 706 713 669 708 755 669 692 726 737 779 700 712 717 690 719 745 687 634 719 715 732 690 666 676 685 705 712 738 705 665 697 673 684 736 699 682 668 695 686 683 694 738 721 685 662 732 710 678 688 694 696 715 696 672 713 678 698 625 673 709 719 741 712 693 675 708 734 688 674 723 698 692 678 707 701 700 665 673 724 627 703 717 733 656 687 726 721 696 710 656 693 698 715 729 718 691 663 735 699 740 695 705 697 734 677 666 714 684 680 662 651 703 678 798 686 675 682 694 734 710 752 728 664 691 707 739 675 686 695 715 669 703 687 676 688 696 684 688 668 750 678 718 706 732 666 711 697 721 744 724 639 724 662 697 715 646 747 723 645 637 679 672 742 744 699 722 679 724 664 714 727 728 672 709 659 664 690 737 696 735 745 712 671 695 698 738 749 703 706 742 710 703 717 678 700 742 631 712 702 694 698 696 680 726 719 693 673 738 692 756 735 745 688 703 689 633 671 708 678 677 724 685 727 737 745 696 662 713 709 724 727 687 689 705 679 709 657 743 696 681 704 716 747 670 730 718 690 693 722 738 726 687 700 698 776 672 664 710 701 698 717 714 705 668 725 703 744 736 741 708 711 630 741 676 718 734 703 742 685 697 703 694 692 644 715 740 730 665 738 699 732 693 723 677 694 746 749 738 677 706 712 716 660 677 736 761 713 709 706 719 670 700 691 718 717 678 721 735 733 679 726 704 700 697 743 705 708 674 664 704 718 759 739 708 696 707 734 711 673 702 677 690 715 678 714 748 721 736 744 722 704 763 734 733 721 709 694 703 758 721 732 714 717 685 715 723 709 752 716 722 717 690 746 657 726 704 747 716 696 722 713 744 677 702 677 744 707 755 701 689 698 723 678 739 745 725 704 748 749 653 750 707 724 755 749 783 726 757 724 760 702 741 751 707 743 742 693 731 721 695 705 726 746 733 708 712 746 769 745 716 755 742 717 744 674 739 708 734 728 717 679 748 753 754 743 725 687 736 722 722 728 701 712 712 738 724 724 718 733 759 747 652 731 736 683 701 732 695 748 735 702 711 737 743 692 721 721 741 703 714 727 701 705 681 703 694 711 759 745 694 730 753 699 699 710 708 733 665 665 712 694 715 711 703 725 695 739 742 707 715 708 695 693 660 703 681 694 672 728 697 760 713 723 671 698 746 680 705 679 704 739 697 717 704 716 688 687 719 729 703 702 673 674 710 727 727 728 732 758 691 721 724 697 738 741 687 723 682 729 757 746 716 695 715 687 651 708 766 701 675 727 699 739 722 709 717 723 734 685 667 690 688 706 722 690 710 685 713 669 760 662 756 705 706 716 692 742 693 705 716 710 695 721 725 730 692 674 738 753 778 632 740 765 775 697 808 700 794 752 750 781 761 787 760 726 773 723 751 736 700 737 759 773 796 783 789 822 754 811 784 767 708 792 771 792 779 795 797 770 849 856 809 807 711 769 765 775 841 771 791 794 779 761 785 763 771 745 781 762 804 761 784 769 815 796 803 775 761 767 769 763 767 772 752 695 775 792 766 761 701 787 741 721 723 751 758 712 739 760 741 735 740 739 718 785 738 722 707 725 749 770 777 755 763 731 750 748 757 768 666 762 727 713 734 732 756 705 705 715 727 769 713 745 744 749 716 737 771 747 750 706 756 685 680 721 720 699 691 687 727 696 731 705 692 706 710 694 710 684 713 706 677 702 706 711 698 695 678 688 699 683 680 692 710 676 692 726 711 723 673 710 693 692 727 714 674 706 702 689 705 695 731 766 725 650 735 696 725 722 688 682 657 712 678 698 728 692 683 672 679 711 673 674 701 677 678 707 681 711 692 734 673 684 746 697 672 717 740 720 665 691 656 677 676 699 693 691 686 723 687 712 702 686 716 724 696 683 665 689 644 707 691 720 650 671 695 670 720 697 693 689 694 657 665 693 674 684 674 686 690 685 727 712 689 700 660 713 642 746 701 664 712 691 703 685 685 647 686 700 684 675 718 675 700 699 660 684 719 689 715 709 704 682 674 662 687 666 677 711 655 637 668 673 653 717 694 699 688 712 667 699 687 698 705 666 668 686 671 673 642 739 646 666 639 664 704 642 682 670 700 685 654 666 689 705 656 647 714 702 694 660 657 690 715 661 666 663 707 623 665 689 690 646 686 683 651 676 649 703 684 701 671 716 617 666 670 690 649 629 611 707 700 673 712 684 718 648 677 679 672 716 670 641 670 678 680 722 734 664 675 696 645 676 682 686 665 659 693 685 704 703 683 718 663 670 651 693 696 670 652 697 667 698 635 622 651 644 712 679 671 683 710 693 677 688 693 685 691 684 661 697 681 663 641 666 720 658 654 672 658 699 732 706 722 694 707 663 684 685 631 684 689 673 653 649 657 645 648 635 679 642 649 632 636 671 682 674 620 735 680 639 611 677 640 662 645 666 644 637 650 652 693 657 672 647 672 625 657 649 670 586 702 626 682 655 675 664 679 685 654 657 658 683 631 645 645 648 644 683 630 659 713 651 622 657 650 727 717 648 662 663 657 671 682 662 727 705 689 624 626 667 670 690 633 652 620 714 693 704 654 638 600 674 686 677 694 699 685 662 656 673 617 652 661 657 654 660 672 656 697 668 634 656 658 660 677 695 661 692 671 651 653 644 636 679 679 666 640 667 660 690 614 658 630 667 636 634 643 704 717 646 657 650 659 629 591 663 690 608 667 657 663 667 662 642 666 655 654 649 667 664 658 704 639 704 616 682 653 694 717 653 725 696 664 662 630 593 656 643 633 670 643 663 683 652 682 711 718 640 673 633 670 757 660 660 709 696 657 677 657 664 698 681 690 661 645 670 644 697 662 699 659 632 641 684 651 622 667 653 645 701 695 715 678 660 663 665 673 654 630 643 671 631 679 612 697 684 641 681 624 667 658 702 706 662 646 721 655 676 650 664 678 687 622 657 709 638 694 633 631 662 619 716 632 687 694 627 642 620 671 657 622 646 658 676 672 679 679 685 669 608 683 683 642 716 649 696 699 652 668 666 681 707 643 605 671 707 678 660 656 618 646 659 676 656 641 716 682 687 669 635 689 669 721 670 667 632 650 651 642 634 674 648 663 614 676 683 667 640 698 656 695 634 644 677 626 625 717 692 714 663 727 602 646 647 631 699 673 641 667 719 654 641 704 644 691 664 634 684 681 692 622 703 644 634 663 667 663 671 659 641 661 667 681 666 668 663 643 649 623 687 678 660 686 700 650 631 619 647 605 660 689 680 679 642 639 660 660 679 674 671 642 633 610 704 662 664 693 650 712 654 677 665 665 621 652 664 647 638 624 651 600 600 669 673 617 648 638 658 609 649 660 669 644 679 612 649 659 602 720 680 636 664 634 648 641 678 663 673 651 667 671 650 682 678 657 665 653 657 650 664 643 659 616 666 631 656 675 648 663 674 681 690 709 687 656 629 644 658 629 650 709 662 663 643 651 644 668 660 642 680 702 734 689 659 706 713 687 742 730 644 648 707 687 701 697 711 674 709 696 692 676 681 671 722 718 708 724 680 717 730 686 686 704 741 670 672 755 736 731 717 687 665 744 653 692 706 682 673 674 691 684 736 767 706 714 715 726 661 647 704 732 665 687 638 679 680 671 696 713 705 685 693 693 676 694 696 714 693 679 695 713 669 690 697 675 693 618 705 684 689 704 668 696 653 712 704 659 682 690 665 709 662 680 681 720 708 651 708 683 740 676 652 674 672 688 715 676 707 726 713 704 686 665 720 661 678 672 724 669 689 657 651 645 660 641 702 715 634 689 699 668 677 651 672 615 664 691 645 688 643 662 689 657 647 686 641 650 663 678 674 703 683 665 659 643 689 678 645 657 610 649 658 633 662 692 606 689 682 697 655 669 647 655 604 693 613 628 703 653 709 686 681 629 662 696 699 683 647 675 618 668 666 625 632 689 666 630 646 662 652 605 663 604 685 693 625 674 611 644 691 655 702 655 672 661 657 667 698 710 644 690 665 681 661 639 639 628 649 700 637 667 666 689 681 622 658 622 675 634 645 637 701 652 652 655 647 680 653 640 671 661 637 650 695 624 700 641 633 619 645 662 647 643 663 673 622 686 641 659 637 667 640 649 611 655 600 616 644 653 633 625 662 682 685 664 688 648 668 628 615 664 649 603 638 666 647 616 664 629 619 635 660 652 646 642 624 681 683 612 641 636 640 615 657 661 655 647 657 638 674 657 647 653 669 607 673 634 646 639 604 656 656 666 630 662 671 634 615 634 638 662 590 660 685 650 683 635 624 600 631 617 626 672 644 641 651 668 665 637 678 659 705 685 635 666 598 620 649 624 622 629 610 664 645 659 627 616 673 609 626 624 701 630 653 659 660 653 632 652 610 564 649 648 639 607 660 665 646 633 589 620 622 655 652 591 613 674 631 618 633 670 639 664 674 640 657 639 611 637 659 661 598 649 662 620 669 633 625 670 604 643 619 574 665 614 642 616 631 619 656 617 619 626 682 623 666 597 672 596 629 614 600 599 643 635 590 673 656 616 626 657 634 618 632 642 607 620 636 629 604 661 634 646 635 610 637 587 605 610 617 673 603 640 620 602 665 661 652 619 681 648 652 649 619 607 599 646 676 677 649 645 650 615 645 625 624 635 678 654 614 628 660 613 608 629 588 663 680 621 632 634 605 629 628 630 677 661 619 633 601 622 684 667 672 672 615 631 649 584 643 582 655 632 675 622 609 618 634 629 619 610 676 617 608 614 722 673 601 672 607 656 619 627 589 662 669 672 651 647 674 624 600 644 617 638 629 593 657 634 580 640 657 622 618 623 633 646 642 660 595 608 662 635 669 619 635 616 642 636 642 657 674 617 614 621 689 665 616 660 618 608 652 603 639 643 655</counts>
			</dataPoints>
		</scan>
	</xrdMeasurement>
</xrdMeasurements>
