<?xml version="1.0"?>
<xrdMeasurements xmlns="http://www.xrdml.com/XRDMeasurement/2.3" xmlns:xsi="http://www.w3.org/2001/XMLSchema-instance" xsi:schemaLocation="http://www.xrdml.com/XRDMeasurement/2.3 http://www.xrdml.com/XRDMeasurement/2.3/XRDMeasurement.xsd" status="Completed" recordIdentifier="{C0F79D58-7A08-4336-94FF-7AB31F7F8BF2}">
	<comment>
		<entry/>
	</comment>
	<sample type="To be analyzed">
		<id>GPSS_Li1p6Ni0p4V0p4Zn0p2Cl4_122325_694ae824ae15af25ac372773</id>
		<name></name>
		<preparedBy></preparedBy>
	</sample>
	<xrdMeasurement measurementType="Scan" status="Completed" sampleMode="Reflection">
		<usedWavelength intended="K-Alpha 1">
			<kAlpha1 unit="Angstrom">1.5405980</kAlpha1>
			<kAlpha2 unit="Angstrom">1.5444260</kAlpha2>
			<kBeta unit="Angstrom">1.3922500</kBeta>
			<ratioKAlpha2KAlpha1>0.5000</ratioKAlpha2KAlpha1>
		</usedWavelength>
		<incidentBeamPath>
			<radius unit="mm">145.00</radius>
			<xRayTube id="1010048" name="Empyrean Cu LFF HR (9430 033 7310x)">
				<tension unit="kV">40.0</tension>
				<current unit="mA">15.0</current>
				<anodeMaterial>Cu</anodeMaterial>
				<focus type="Line">
					<length unit="mm">12.0</length>
					<width unit="mm">0.4</width>
					<takeOffAngle unit="deg">6.0</takeOffAngle>
				</focus>
			</xRayTube>
			<sollerSlit id="21010002" name="Soller slits 0.04 rad.">
				<opening unit="rad">0.0400</opening>
			</sollerSlit>
			<mask id="22031000" name="Fixed mask 13 mm">
				<width unit="mm">9.00</width>
			</mask>
			<divergenceSlit id="22120001" name="Divergence slit 1°" xsi:type="fixedDivergenceSlitType">
				<distanceToSample unit="mm">50.00</distanceToSample>
				<height unit="mm">1.52</height>
			</divergenceSlit>
		</incidentBeamPath>
		<sampleMovement xsi:type="spinningSampleMovementType">
			<spinnerRevolutionTime unit="seconds">1.0</spinnerRevolutionTime>
		</sampleMovement>
		<diffractedBeamPath>
			<radius unit="mm">145.00</radius>
			<antiScatterSlit id="22090040" name="AS slit 9 mm (PIXcel)" xsi:type="fixedAntiScatterSlitType">
				<height unit="mm">9.00</height>
			</antiScatterSlit>
			<sollerSlit id="21020003" name="Large Soller slits 0.04 rad.">
				<opening unit="rad">0.0400</opening>
			</sollerSlit>
			<filter id="20030001" name="Large beta-filter Nickel">
				<material>Ni</material>
				<thickness unit="mm">0.020</thickness>
			</filter>
			<detector id="7010019" name="PIXcel1D-Medipix3 detector" xsi:type="rtmsDetectorType">
				<phd unit="keV">
					<lowerLevel>4.02</lowerLevel>
					<upperLevel>11.27</upperLevel>
				</phd>
				<mode>Scanning</mode>
				<activeLength unit="deg">5.542</activeLength>
			</detector>
		</diffractedBeamPath>
		<scan appendNumber="0" mode="Continuous" scanAxis="Gonio" status="Completed">
			<header>
				<startTimeStamp>2025-12-25T19:06:57-08:00</startTimeStamp>
				<endTimeStamp>2025-12-25T19:15:04-08:00</endTimeStamp>
				<author>
					<name>AutomatedUser</name>
				</author>
				<source>
					<applicationSoftware version="1.7b (136)">PANalytical Aeris Instrument Suite</applicationSoftware>
					<instrumentControlSoftware version="3.2.00000000 20240306">AERIS</instrumentControlSoftware>
					<instrumentID>950485</instrumentID>
				</source>
			</header>
			<dataPoints>
				<positions axis="2Theta" unit="deg">
					<startPosition>10.00943322</startPosition>
					<endPosition>99.99442286</endPosition>
				</positions>
				<positions axis="Omega" unit="deg">
					<startPosition>5.00471661</startPosition>
					<endPosition>49.99721143</endPosition>
				</positions>
				<commonCountingTime unit="seconds">12.495</commonCountingTime>
				<counts unit="counts">3056 3134 3040 3142 3135 3121 3094 3138 3152 3084 3077 3142 3135 3091 3032 3133 3084 3115 3208 3077 3095 3083 3112 3093 3069 3171 3204 3080 3095 3135 3115 3100 3097 3083 3201 3084 3061 3130 3029 3192 3148 3125 3097 3104 3128 3028 3170 3164 3022 3115 3077 3181 3188 3062 3196 3153 3056 3193 3116 3230 3154 3130 3092 3120 3128 3156 3231 3312 3209 3220 3229 3180 3238 3143 3216 3141 3244 3181 3187 3297 3188 3194 3205 3157 3227 3197 3221 3208 3247 3225 3215 3144 3139 3199 3299 3196 3248 3297 3380 3283 3195 3294 3347 3329 3412 3301 3243 3411 3444 3519 3372 3324 3394 3385 3418 3363 3398 3438 3446 3428 3607 3522 3634 3540 3617 3639 3515 3530 3559 3568 3685 3617 3652 3594 3640 3567 3599 3569 3514 3636 3542 3491 3393 3523 3610 3436 3313 3502 3432 3376 3423 3333 3305 3335 3373 3439 3318 3428 3327 3378 3357 3363 3442 3376 3402 3440 3290 3265 3362 3185 3352 3324 3344 3298 3431 3283 3326 3342 3294 3306 3223 3307 3347 3316 3360 3250 3276 3283 3314 3331 3275 3179 3234 3274 3322 3258 3318 3242 3277 3337 3199 3330 3347 3296 3297 3289 3199 3321 3222 3305 3188 3321 3175 3301 3138 3324 3268 3216 3364 3225 3295 3323 3268 3218 3370 3195 3099 3266 3269 3360 3257 3107 3189 3205 3201 3132 3223 3217 3183 3109 3278 3140 3158 3263 3155 3239 3150 3232 3219 3189 3198 3237 3105 3114 3176 3146 3147 3138 3235 3207 3101 3111 3204 3131 3145 3084 3043 3163 3204 3144 3150 3271 3156 3154 3199 3100 3260 3160 3163 3106 3129 3120 3205 3294 3259 3184 3099 3136 3167 3199 3311 3147 3173 3166 3149 3216 3168 3170 3194 3218 3127 3121 3130 3206 3276 3190 3175 3200 3218 3198 3197 3240 3146 3186 3220 3267 3167 3177 3245 3212 3089 3210 3284 3251 3245 3126 3202 3202 3238 3240 3196 3183 3198 3281 3192 3221 3253 3214 3196 3165 3306 3308 3210 3232 3247 3263 3237 3279 3253 3247 3313 3312 3304 3339 3241 3323 3405 3406 3331 3307 3246 3424 3366 3322 3447 3304 3360 3396 3333 3382 3378 3446 3321 3396 3502 3448 3451 3430 3472 3427 3407 3528 3353 3377 3429 3477 3505 3496 3560 3478 3504 3427 3383 3517 3502 3478 3407 3554 3441 3562 3474 3468 3554 3541 3550 3524 3563 3589 3508 3473 3581 3508 3555 3585 3558 3644 3632 3637 3670 3551 3670 3640 3678 3488 3740 3709 3779 3692 3645 3785 3829 3829 3784 3808 3722 3913 3813 3843 3722 4006 3894 3924 3957 3857 4002 4030 4106 4177 4021 4103 4221 4229 4317 4266 4351 4232 4415 4317 4421 4405 4527 4442 4704 4655 4882 4864 4893 5068 5062 5083 5267 5569 5564 5757 5741 5879 6119 6306 6244 6480 6386 6419 6373 6364 6334 6187 6193 6267 6111 6031 5844 5936 5651 5556 5674 5575 5395 5316 5221 4854 4743 4674 4513 4429 4388 4301 4255 4132 4016 4138 4004 3909 4038 3840 4024 3982 4022 3969 4019 3901 3981 3829 3846 3848 3632 3600 3612 3599 3573 3466 3463 3467 3426 3426 3351 3499 3451 3376 3278 3374 3229 3330 3297 3311 3327 3233 3151 3210 3150 3406 3221 3247 3163 3293 3238 3254 3230 3305 3212 3152 3103 3133 3175 3181 3200 3206 3235 3169 3193 3217 3156 3160 3202 3159 3220 3145 3178 3137 3079 3148 3116 3127 3182 3109 3085 3102 3051 3193 3116 3089 3021 3023 3142 3175 3141 2998 3042 3036 3041 3074 3065 3086 3085 3035 3052 3085 3128 3028 3051 3023 2962 3080 3109 2920 3181 2943 3090 2937 2966 2947 3001 2962 3054 3080 2982 3017 2940 2986 3006 2954 2953 3034 2897 3054 3024 2975 3009 2997 2922 2938 3003 2921 2913 3058 2902 3036 2942 3002 2992 2945 3036 3093 3052 3068 2984 2920 2996 2987 3050 3079 3011 3143 3070 3010 3111 3010 3030 3045 3073 3120 3088 2984 3035 3083 3159 3041 3166 3189 3128 3076 3144 3081 3196 3128 3203 3237 3257 3268 3301 3419 3351 3275 3425 3393 3357 3352 3305 3304 3300 3357 3310 3381 3221 3235 3218 3186 3167 3211 3130 3066 3003 3067 2997 3051 2893 3002 2954 2997 2942 2923 2925 2897 2908 2996 2916 2880 2972 2834 2826 2778 2935 2784 2852 2812 2966 2855 2880 2796 2807 2770 2895 2864 2881 2808 2940 2829 2770 2814 2855 2719 2822 2867 2721 2863 2764 2909 2848 2809 2845 2816 2777 2872 2790 2836 2815 2798 2802 2819 2866 2789 2835 2722 2836 2771 2882 2824 2811 2719 2852 2784 2815 2810 2744 2758 2778 2815 2743 2805 2842 2787 2807 2787 2914 2863 2744 2756 2768 2757 2744 2736 2699 2699 2813 2841 2737 2714 2796 2741 2793 2741 2726 2814 2773 2788 2728 2755 2713 2739 2670 2736 2755 2802 2786 2778 2777 2674 2707 2707 2709 2766 2650 2617 2769 2762 2774 2721 2723 2778 2658 2697 2688 2721 2743 2767 2755 2702 2627 2664 2791 2714 2732 2756 2723 2742 2720 2695 2740 2671 2719 2717 2751 2684 2707 2711 2637 2641 2611 2710 2685 2571 2719 2641 2714 2711 2772 2636 2656 2673 2662 2648 2711 2684 2659 2589 2650 2782 2593 2710 2742 2643 2663 2683 2676 2733 2634 2682 2709 2697 2634 2628 2673 2626 2665 2653 2598 2708 2701 2608 2617 2606 2582 2614 2614 2699 2657 2541 2564 2671 2642 2639 2469 2751 2651 2519 2615 2619 2619 2568 2626 2484 2615 2608 2594 2575 2491 2603 2653 2562 2452 2595 2593 2635 2608 2602 2655 2584 2597 2596 2614 2561 2609 2613 2555 2533 2551 2635 2618 2554 2646 2601 2559 2574 2609 2618 2574 2520 2570 2458 2545 2575 2641 2435 2587 2545 2502 2538 2584 2554 2520 2599 2543 2431 2592 2575 2504 2528 2543 2501 2538 2440 2560 2582 2514 2520 2478 2520 2520 2626 2489 2531 2551 2563 2409 2423 2558 2589 2537 2533 2502 2591 2537 2577 2511 2580 2414 2537 2557 2439 2481 2440 2475 2617 2463 2548 2571 2634 2567 2498 2524 2538 2500 2517 2543 2608 2502 2470 2410 2547 2418 2609 2474 2515 2509 2461 2495 2600 2530 2527 2553 2449 2478 2595 2477 2616 2565 2582 2611 2432 2504 2503 2538 2570 2568 2555 2533 2498 2514 2487 2539 2472 2607 2570 2586 2551 2473 2512 2527 2586 2578 2484 2581 2544 2568 2371 2525 2546 2546 2583 2518 2618 2628 2663 2602 2582 2604 2541 2560 2643 2516 2531 2466 2449 2562 2504 2538 2483 2483 2495 2561 2588 2484 2570 2583 2560 2651 2604 2567 2566 2543 2579 2480 2523 2563 2516 2613 2489 2479 2645 2566 2611 2493 2419 2526 2508 2512 2430 2478 2443 2501 2505 2491 2432 2483 2476 2391 2408 2408 2415 2519 2558 2445 2436 2494 2413 2468 2423 2397 2456 2478 2432 2373 2436 2384 2474 2349 2415 2393 2435 2370 2340 2460 2426 2337 2424 2515 2354 2392 2450 2345 2318 2463 2374 2425 2350 2381 2363 2291 2440 2291 2393 2240 2347 2348 2322 2276 2270 2316 2310 2281 2228 2326 2220 2261 2226 2331 2298 2277 2228 2273 2274 2288 2226 2220 2188 2266 2267 2214 2205 2343 2251 2209 2232 2251 2118 2155 2285 2202 2184 2169 2163 2125 2092 2173 2212 2157 2243 2206 2218 2174 2080 2146 2072 2133 2098 2053 2251 2159 2190 2187 2161 2099 2084 2067 2104 2148 2099 2076 1974 2066 2107 2106 2024 2041 2071 2011 2085 2097 2126 2106 2179 2136 2039 2089 2139 2056 2051 2076 2032 2047 1971 2003 2049 1978 1988 1983 2013 2071 2014 1984 1981 2059 1967 2009 1956 1971 1953 1960 2056 2015 1971 1959 2031 1921 1851 1991 1953 1983 1958 1933 2027 1950 1967 2005 1967 1967 2034 1873 2070 1984 1938 1963 2009 1987 1985 2044 1963 1938 1948 1955 2027 1928 2062 1990 2022 1987 1954 2078 1976 1959 2027 1951 2000 1984 2047 2070 1971 2062 2109 2109 2048 2084 2151 2051 2146 2085 2078 2105 2160 2187 2159 2226 2028 2164 2219 2203 2137 2123 2152 2143 2273 2208 2157 2120 2291 2217 2201 2214 2254 2196 2186 2112 2101 2172 2032 2154 2081 2118 2087 2087 2069 2037 2034 2178 2151 2101 2145 2162 2194 2112 2137 2005 2157 2117 2127 2218 2098 2131 1975 2032 2022 2015 2021 2011 2035 2043 2001 1906 1908 1967 1899 1880 1947 1994 1883 1941 1977 1833 1939 1946 1862 1887 1901 1971 1861 1929 1921 1967 1888 1957 1873 1909 1872 1904 1881 1933 1854 1898 1985 1889 1966 1906 2027 1844 1909 1923 1832 2035 1941 1882 1989 1935 1823 1918 1958 1953 1818 1921 1965 1953 1966 2000 1971 1985 1926 1960 2029 2001 1901 2057 1938 1954 2053 2005 2018 2027 1961 1941 2003 1939 2066 1974 1984 2012 1939 2105 2084 2016 2011 2044 1991 2177 2096 2080 2120 2178 2164 2200 2168 2229 2234 2260 2225 2095 2187 2175 2120 2257 2225 2163 2172 2099 2154 2111 2137 2069 2076 1934 2088 2017 2014 1981 1972 1977 2025 1985 1943 1978 1965 1893 1995 1888 1813 1895 1864 1962 1874 1921 1881 1793 1775 1901 1798 1836 1808 1735 1816 1909 1889 1785 1905 1801 1814 1862 1857 1854 1846 1864 1878 1803 1766 1763 1804 1734 1826 1724 1796 1819 1784 1855 1810 1785 1726 1834 1800 1804 1804 1752 1712 1738 1784 1703 1716 1704 1672 1708 1718 1786 1777 1769 1755 1737 1764 1763 1647 1754 1765 1614 1663 1616 1667 1686 1827 1680 1717 1632 1713 1701 1693 1719 1722 1664 1701 1639 1724 1689 1627 1687 1668 1643 1718 1680 1732 1620 1664 1628 1625 1713 1685 1620 1599 1571 1615 1653 1604 1621 1580 1564 1675 1585 1687 1590 1587 1594 1615 1633 1515 1568 1607 1522 1550 1552 1538 1597 1665 1578 1579 1571 1598 1561 1639 1592 1621 1554 1650 1569 1577 1607 1554 1574 1588 1597 1569 1550 1649 1582 1593 1538 1586 1542 1579 1561 1512 1544 1511 1585 1544 1544 1540 1572 1558 1535 1494 1389 1551 1531 1503 1538 1484 1560 1592 1543 1601 1524 1556 1469 1549 1566 1657 1577 1504 1543 1583 1574 1572 1551 1650 1633 1608 1671 1692 1620 1610 1641 1669 1664 1653 1632 1699 1740 1642 1754 1626 1721 1774 1827 1787 1867 1873 1810 1919 1879 2016 1973 1997 2041 2125 2039 2109 2040 2068 2071 2144 2047 2157 2117 2126 2176 2108 2026 2082 2116 2068 2085 2068 2102 2104 2038 2026 2069 2116 2059 2149 2180 2236 2189 2213 2244 2329 2292 2299 2311 2328 2246 2256 2302 2192 2234 2106 2185 2213 2125 2097 2091 2056 1919 1906 1831 1789 1710 1729 1631 1652 1549 1624 1576 1528 1491 1459 1553 1535 1511 1528 1418 1472 1492 1490 1484 1508 1543 1569 1554 1506 1480 1540 1546 1470 1511 1503 1649 1616 1654 1652 1671 1688 1689 1776 1821 1850 1920 1771 1827 1905 1911 2012 1980 1997 2018 2053 1970 2126 1992 2173 2138 2178 2183 2288 2266 2378 2343 2512 2459 2509 2562 2586 2633 2757 2847 2937 2991 3091 3059 3090 3121 3142 3164 3253 3165 3166 3182 3064 3080 2934 2969 2974 2928 2796 2741 2733 2762 2702 2708 2643 2564 2628 2608 2633 2565 2541 2458 2443 2355 2327 2342 2386 2337 2234 2183 2128 2190 2095 1988 1915 1846 1815 1790 1773 1737 1620 1608 1603 1504 1507 1460 1511 1495 1419 1412 1382 1391 1430 1332 1327 1340 1264 1389 1353 1336 1285 1313 1341 1329 1374 1369 1314 1333 1266 1304 1355 1347 1259 1314 1360 1255 1242 1289 1238 1317 1253 1349 1222 1286 1231 1302 1239 1341 1307 1292 1295 1220 1305 1229 1286 1248 1328 1294 1310 1283 1327 1261 1294 1226 1381 1259 1338 1382 1319 1258 1260 1315 1304 1249 1282 1218 1237 1270 1247 1307 1232 1344 1278 1223 1270 1293 1243 1177 1263 1291 1286 1200 1203 1276 1196 1156 1217 1264 1211 1351 1288 1233 1310 1256 1178 1213 1266 1241 1218 1263 1243 1238 1273 1215 1222 1281 1309 1183 1261 1254 1247 1195 1227 1196 1238 1221 1224 1258 1269 1214 1228 1285 1264 1197 1218 1192 1190 1171 1190 1178 1302 1181 1227 1180 1160 1211 1253 1181 1225 1184 1184 1243 1169 1243 1168 1192 1251 1271 1196 1166 1200 1200 1213 1255 1186 1200 1222 1225 1157 1170 1260 1142 1188 1145 1253 1217 1238 1198 1202 1224 1156 1216 1238 1234 1249 1262 1260 1236 1297 1215 1214 1277 1189 1203 1203 1159 1196 1251 1183 1217 1233 1182 1179 1159 1192 1201 1211 1201 1161 1208 1218 1218 1239 1163 1206 1188 1196 1193 1177 1245 1220 1218 1185 1185 1187 1156 1183 1181 1209 1189 1170 1183 1223 1189 1190 1152 1174 1220 1210 1171 1188 1201 1206 1133 1224 1185 1195 1111 1254 1179 1213 1176 1197 1195 1203 1160 1145 1135 1184 1168 1141 1170 1214 1158 1123 1178 1203 1143 1201 1154 1198 1186 1170 1216 1163 1204 1204 1184 1191 1177 1168 1223 1178 1164 1183 1159 1194 1165 1215 1168 1165 1211 1212 1160 1210 1175 1179 1244 1255 1212 1188 1262 1212 1223 1227 1160 1283 1208 1247 1223 1253 1214 1217 1211 1257 1225 1241 1212 1269 1225 1254 1284 1221 1220 1303 1282 1172 1279 1314 1299 1266 1346 1277 1300 1266 1272 1366 1324 1344 1271 1339 1299 1356 1375 1351 1499 1436 1473 1479 1541 1672 1593 1689 1730 1759 1911 1934 2000 2035 2139 2217 2389 2208 2249 2303 2278 2343 2504 2506 2510 2541 2689 2614 2673 2734 2908 2991 3040 3085 3154 3388 3502 3540 3869 3866 3942 4116 4481 4607 4803 4901 5129 5129 5361 5341 5632 5456 5565 5506 5596 5219 5564 5207 5357 5157 5279 4952 5094 4920 4777 4725 4855 4741 4735 4702 4715 4718 4805 4931 4925 5028 5130 5232 5305 5244 5356 5320 5376 5243 5176 5159 4977 4945 4804 4601 4305 4280 3934 3765 3334 3276 2987 2827 2673 2448 2301 2139 2046 1955 1823 1769 1741 1619 1606 1517 1501 1488 1461 1447 1407 1318 1332 1327 1350 1354 1319 1393 1395 1286 1324 1295 1374 1362 1405 1359 1345 1416 1434 1361 1387 1378 1308 1351 1363 1402 1379 1392 1367 1370 1356 1464 1322 1374 1425 1402 1416 1427 1485 1433 1392 1410 1454 1453 1387 1440 1406 1411 1497 1357 1503 1475 1415 1354 1471 1378 1402 1400 1313 1309 1356 1256 1270 1284 1248 1211 1217 1154 1195 1239 1239 1235 1232 1149 1129 1140 1195 1090 1105 1165 1133 1149 1163 1155 1115 1147 1161 1138 1110 1116 1180 1106 1167 1202 1131 1133 1171 1103 1075 1197 1121 1116 1118 1090 1151 1109 1092 1145 1062 1101 1132 1144 1087 1057 1097 1142 1114 1117 1092 1128 1099 1134 1067 1120 1119 1070 1106 1138 1101 1104 1161 1086 1145 1136 1027 1095 1138 1084 1062 1116 1115 1175 1084 1132 1074 1085 1131 1089 1090 1078 1077 1106 1142 1058 1082 1096 1161 1122 1092 1150 1072 1107 1076 1128 1075 1111 1090 1131 1125 1117 1133 1081 1125 1140 1152 1042 1182 1089 1135 1097 1105 1127 1153 1166 1129 1139 1123 1152 1169 1141 1179 1167 1167 1118 1142 1132 1148 1154 1145 1147 1137 1176 1198 1179 1162 1220 1091 1183 1202 1211 1284 1178 1244 1210 1172 1235 1178 1211 1233 1211 1257 1243 1193 1298 1198 1223 1214 1196 1284 1211 1213 1192 1216 1277 1224 1212 1260 1243 1238 1236 1260 1295 1246 1189 1229 1263 1263 1277 1241 1283 1235 1232 1291 1269 1203 1256 1256 1274 1261 1208 1280 1253 1194 1242 1297 1231 1235 1210 1160 1257 1174 1167 1117 1119 1151 1161 1135 1083 1067 1049 1090 1035 1117 1122 1035 1082 1073 1082 1104 1063 1066 1034 1052 1079 1038 1106 1078 1145 1093 1175 1135 1035 1082 1107 1062 1148 1129 1103 1118 1098 1125 1105 1105 1005 1154 1133 1201 1040 1224 1115 1157 1180 1120 1183 1163 1206 1216 1222 1210 1254 1168 1152 1139 1192 1245 1211 1205 1165 1227 1177 1170 1194 1243 1227 1221 1263 1244 1249 1261 1216 1207 1243 1258 1283 1338 1268 1292 1276 1273 1190 1268 1282 1308 1273 1325 1274 1168 1236 1240 1238 1243 1196 1183 1220 1146 1108 1150 1101 1059 1132 1074 1115 1074 1033 1038 1025 1047 1040 1066 1090 1012 1061 1055 1024 1080 1060 1075 1023 1053 1012 1118 1058 1042 1013 1087 1029 1014 1105 1049 1026 1032 1076 1009 1040 997 1009 995 1068 1006 1016 1111 1065 1047 1105 1040 1049 965 959 986 1041 1076 1007 1037 1060 1061 1053 1039 1035 1074 1067 1009 1051 1058 1053 1021 1021 1047 1033 989 977 1044 1014 1068 1040 1029 1029 1026 990 1017 1006 1021 966 1064 1007 1071 1021 1098 1025 1018 1007 1010 1073 960 996 1025 1041 1049 992 1037 969 1014 954 1048 1038 967 1050 1022 1053 1015 1029 942 969 986 1023 1054 1072 961 992 1036 1024 1053 1098 1057 1077 1015 1045 1007 987 964 1000 1023 998 1075 1071 1023 993 1060 974 1035 1098 1003 1019 1048 1015 1010 1051 1032 1045 1000 1025 977 1065 980 968 1037 1001 1013 1016 1020 1041 1022 1084 988 998 1046 1049 1005 1027 1004 1010 1064 1040 1028 1037 1001 1076 1050 1010 974 1018 1043 1041 1038 958 991 1036 1026 1084 1028 1035 976 1002 1020 999 982 1005 1043 1028 997 1042 1015 1037 982 1011 1037 1027 986 1026 1047 1020 1024 1030 1006 1056 922 990 1015 994 1031 971 1026 992 969 947 1021 1030 1075 1023 1002 998 975 946 1017 974 1011 1037 995 988 1031 1026 983 945 1001 969 990 1021 1105 1024 1020 992 1008 1036 1020 1015 1001 993 986 959 993 966 990 1021 996 982 986 981 997 1001 999 1000 932 1047 1048 1036 1027 1056 1041 1014 1038 1052 1044 1027 1064 1080 1092 1096 1038 1019 988 1064 1058 1041 1066 1063 1134 1071 1126 1112 1077 1050 1070 1148 1162 1128 1122 1133 1097 1163 1063 1135 1093 1181 1141 1177 1180 1150 1123 1183 1174 1202 1146 1121 1140 1074 1133 1110 1198 1084 1134 1175 1155 1094 1077 1154 1077 1096 1138 1075 1037 1043 1136 1082 1068 1109 1094 1095 1150 1057 1044 1036 1120 1063 1074 1039 1022 1007 995 1026 1011 997 1049 1038 1055 1001 1062 990 1020 1068 1077 1054 972 1031 1034 1048 1028 995 1001 980 1074 1069 1034 1064 1051 992 1011 1015 1046 1083 1016 982 1030 1042 1001 1041 952 966 1002 1032 984 1008 1042 993 997 991 1003 1016 987 1004 1030 994 978 959 953 1002 969 982 966 1007 1009 936 989 1034 984 998 974 1037 983 1026 969 1016 994 1071 975 995 1017 1025 1000 981 961 994 987 919 963 1006 971 963 1017 1005 979 1004 1003 1017 926 1017 931 990 963 1028 996 985 998 1052 1014 1016 975 969 961 1012 962 1001 979 1007 1043 999 1048 1003 1024 974 1029 989 1007 969 985 1024 952 998 957 1007 925 1018 959 1001 1006 982 991 977 927 958 979 1037 1038 1023 998 1011 972 991 1004 1052 1068 947 1064 970 972 1052 978 1025 1110 988 1025 1032 1082 1111 1065 1031 1045 1114 1158 1152 1123 1147 1158 1126 1172 1163 1130 1132 1187 1175 1191 1208 1242 1298 1267 1279 1269 1330 1255 1257 1264 1330 1341 1361 1357 1353 1400 1340 1472 1426 1449 1473 1499 1534 1515 1591 1604 1560 1553 1684 1613 1601 1651 1664 1670 1705 1634 1647 1656 1733 1618 1623 1499 1508 1530 1484 1511 1533 1448 1483 1453 1418 1431 1520 1402 1447 1477 1389 1420 1390 1402 1388 1398 1493 1427 1346 1419 1301 1334 1259 1226 1227 1205 1184 1161 1206 1096 1143 1102 1187 1062 1131 1029 1087 981 1059 997 1012 993 1012 984 985 957 1004 974 970 927 987 1033 998 984 984 922 946 964 1024 986 994 1042 991 1055 964 967 996 996 1046 994 965 959 993 954 918 1034 944 966 987 976 997 950 1038 970 1084 952 992 1006 995 950 943 1037 1052 959 912 1004 1016 992 1023 953 1003 1014 992 974 1020 959 1079 1019 1015 938 984 1039 995 1039 1061 1072 1024 1015 984 1031 1053 1013 947 983 1007 1043 994 1000 999 958 947 1016 931 971 1025 996 938 1009 1000 1007 1019 957 933 983 979 975 999 950 981 1054 1010 958 1044 988 971 1065 1037 1004 965 1039 970 1025 1062 1007 1017 1042 1019 977 989 985 1027 990 1089 1039 949 933 961 1029 1051 991 988 1043 1015 1003 978 975 1037 1039 1026 1022 992 989 966 1016 1060 1089 1022 1017 1063 1018 1052 1035 1000 1005 1015 1017 1048 1048 1038 1024 1008 968 1016 930 1062 954 1024 962 961 1000 1013 990 994 1031 1020 987 900 973 928 1008 935 1002 959 997 1005 984 989 992 1046 990 1000 967 962 1005 1004 973 1031 951 999 979 959 1052 997 998 1056 961 1030 961 1001 1048 1051 960 941 986 993 992 988 974 1046 992 1030 1005 1042 987 969 1016 997 904 985 1000 1007 1032 1048 999 1019 1002 998 967 1019 1055 989 1062 985 983 1026 1019 1034 980 988 972 999 1014 983 1076 991 974 994 967 1004 1082 1033 1046 951 988 1022 977 969 1124 983 1122 1031 1020 1061 1011 1036 1050 1038 1043 1040 1040 1080 1033 1023 1038 1069 1120 1145 1163 1166 1189 1175 1183 1191 1221 1223 1211 1269 1376 1322 1399 1376 1483 1460 1492 1535 1637 1605 1699 1680 1837 1894 1989 2058 2222 2237 2282 2399 2394 2532 2659 2705 2892 2809 2999 3089 3073 3180 3204 3249 3369 3415 3475 3394 3449 3363 3286 3397 3372 3369 3362 3359 3480 3370 3428 3435 3472 3546 3434 3596 3625 3512 3520 3522 3423 3457 3402 3328 3248 3110 3019 3009 2890 2795 2699 2669 2521 2427 2319 2233 2051 2016 1940 1853 1939 1879 1786 1730 1602 1683 1595 1651 1585 1555 1548 1535 1597 1558 1559 1541 1434 1500 1565 1453 1450 1510 1448 1469 1468 1497 1401 1518 1506 1590 1469 1454 1520 1475 1558 1497 1575 1610 1426 1441 1479 1361 1400 1373 1445 1357 1367 1345 1296 1311 1250 1168 1207 1180 1193 1168 1167 1151 1124 1131 1078 1046 1089 1067 1037 1075 1054 1087 1073 1051 1061 1039 1032 1070 1086 1016 1033 1104 1109 1134 1107 1063 1070 984 1055 1053 1036 1001 1104 1077 1057 1045 1047 1080 1051 1044 1028 1037 980 1067 1067 1025 1061 1046 1105 1065 1079 1077 1115 1015 1043 1020 1032 1035 999 996 1089 1083 1081 1141 1007 1000 1025 1104 1068 1022 1064 1006 1012 1079 1081 1055 1063 1104 1089 1132 1051 1057 1111 1029 1094 1067 1081 1084 1097 1103 1065 1099 1071 1079 1057 1070 1065 1048 1013 1113 1079 1096 1027 1063 1109 1085 1127 1040 1137 1087 1112 1172 1149 1200 1103 1134 1173 1179 1202 1182 1271 1232 1271 1301 1260 1268 1276 1234 1302 1344 1355 1261 1281 1282 1291 1281 1276 1323 1267 1318 1306 1348 1349 1380 1355 1297 1268 1347 1318 1408 1263 1335 1317 1348 1259 1299 1258 1228 1236 1283 1286 1192 1245 1274 1208 1238 1233 1214 1173 1147 1179 1211 1178 1089 1196 1141 1134 1186 1174 1145 1163 1136 1109 1193 1124 1166 1125 1156 1199 1204 1157 1147 1185 1146 1157 1186 1171 1246 1131 1192 1239 1172 1234 1184 1099 1193 1168 1193 1193 1228 1242 1127 1088 1124 1109 1135 1126 1097 1181 1113 1017 1077 1044 1045 1057 1044 1052 998 1025 1058 1039 988 1039 975 1008 916 989 961 988 961 1008 971 986 993 935 965 994 1015 1027 983 998 1005 962 968 1024 967 1043 1008 985 970 945 926 961 996 936 928 999 966 953 1003 980 996 1009 936 996 990 991 926 1048 1005 944 1017 907 958 1027 1008 1008 960 949 994 952 985 997 945 987 992 970 985 952 920 973 978 975 966 1006 979 1046 998 1001 1021 925 1000 1020 949 1029 975 1004 920 1024 959 959 1045 1043 989 937 969 1000 929 957 965 986 956 971 947 944 951 969 945 973 887 981 1009 989 910 949 937 958 958 930 926 915 909 930 962 965 940 905 933 977 928 925 933 971 880 956 993 925 899 953 937 941 922 935 924 964 889 937 968 938 977 931 936 907 920 995 899 928 968 901 983 970 971 930 1003 927 866 891 994 889 943 919 939 970 1018 951 974 900 996 974 939 976 953 975 931 868 953 955 937 912 872 906 964 922 990 987 924 903 979 894 963 887 884 863 913 909 878 892 915 890 946 950 943 930 949 920 969 943 1006 895 902 893 933 907 957 941 978 946 904 976 916 865 918 913 941 951 921 900 908 932 959 932 919 946 924 921 900 895 909 903 975 880 885 928 896 908 919 929 903 949 922 952 885 954 979 918 907 911 981 975 944 953 935 964 936 937 952 947 944 958 945 984 927 953 1018 1006 968 948 938 899 1004 932 929 928 940 970 913 967 921 983 956 941 912 964 960 968 1029 1001 930 939 972 998 909 949 956 1016 985 1006 947 956 938 940 938 937 960 988 983 957 894 884 918 873 896 915 924 922 927 886 960 962 900 942 913 903 909 899 946 936 957 917 990 886 935 890 886 857 947 857 971 891 909 906 922 936 925 941 837 956 887 958 929 903 964 883 909 878 871 897 845 909 979 908 995 923 912 974 881 924 949 959 944 888 983 893 924 944 967 909 892 960 908 890 881 893 924 917 895 959 835 886 905 921 903 962 884 975 929 954 908 913 897 924 958 891 891 923 890 980 940 876 875 893 860 906 903 944 892 953 927 905 925 916 890 923 923 910 952 950 910 984 945 899 977 931 1021 945 1035 927 973 931 932 955 993 942 969 937 935 936 916 898 908 947 954 977 1007 964 943 977 1011 949 971 947 930 987 954 991 1013 989 960 913 971 926 958 961 978 997 960 966 1015 1000 957 969 987 950 1057 983 1028 1006 1025 1041 1060 1048 1067 1042 1016 1077 1035 1073 1118 1119 1154 1077 1132 1178 1122 1225 1133 1207 1145 1119 1169 1111 1197 1236 1200 1177 1196 1230 1240 1234 1282 1158 1268 1255 1219 1302 1228 1207 1245 1183 1190 1190 1202 1245 1152 1229 1153 1184 1181 1186 1141 1160 1198 1223 1117 1134 1182 1146 1106 1037 1124 1100 1119 1113 1118 1075 1134 1133 1133 1060 1062 1068 1070 1087 1002 1099 1025 1099 1054 1131 1063 1076 1055 1066 1071 1072 1024 1037 1056 1025 1011 1031 1059 1121 1007 1019 989 1080 1024 1094 1102 1100 1045 1051 1035 1042 1024 1036 1003 1019 1003 1025 1047 1071 1025 1012 958 998 963 1005 915 964 960 989 949 909 976 948 981 975 961 948 948 991 945 975 983 877 942 990 953 977 889 935 983 928 976 942 937 973 965 940 913 942 943 978 919 933 910 987 934 920 1002 917 936 962 1002 988 902 969 977 997 990 961 976 994 990 992 939 990 919 999 938 874 959 930 937 942 971 947 922 910 900 882 981 868 924 893 940 908 884 882 895 912 951 979 922 940 906 933 927 876 907 941 918 935 896 941 959 879 869 876 922 910 960 926 904 929 982 910 896 918 962 956 903 909 858 957 930 931 917 934 921 905 894 920 954 892 950 931 946 923 984 929 893 948 935 942 952 985 937 1001 923 987 1034 1047 1052 952 969 999 1048 1070 1100 1038 1103 1151 1167 1131 1182 1242 1224 1200 1288 1266 1328 1374 1368 1307 1469 1373 1394 1435 1384 1465 1465 1507 1481 1530 1453 1483 1549 1399 1486 1498 1537 1495 1480 1445 1498 1474 1488 1437 1510 1522 1441 1427 1412 1380 1370 1360 1295 1341 1364 1308 1277 1236 1264 1254 1194 1293 1225 1251 1218 1248 1291 1212 1300 1228 1279 1277 1275 1272 1340 1335 1353 1266 1308 1372 1391 1286 1389 1425 1367 1365 1332 1496 1462 1449 1383 1396 1334 1353 1414 1388 1422 1400 1402 1471 1359 1382 1380 1320 1361 1319 1213 1228 1271 1275 1168 1182 1202 1157 1142 1054 1108 1066 1102 1041 1105 1056 1043 1052 990 974 989 953 1024 975 950 1022 938 962 921 947 927 949 928 924 922 976 928 922 903 927 923 882 941 867 966 915 900 910 907 939 919 838 842 949 921 869 915 962 905 860 973 894 897 915 937 892 888 913 906 955 900 909 950 907 906 938 895 902 911 948 983 905 964 948 963 993 953 916 898 975 935 931 965 957 936 907 899 952 995 936 967 965 1002 944 964 981 971 1026 998 1008 972 967 1111 1015 1008 1065 1043 1066 1066 1128 1128 1159 1162 1143 1137 1090 1241 1162 1218 1235 1279 1230 1287 1215 1257 1164 1250 1265 1171 1226 1259 1210 1229 1254 1275 1301 1258 1212 1155 1233 1235 1211 1247 1164 1211 1209 1165 1178 1139 1131 1077 1084 1125 1116 1131 1058 1056 1046 1086 1057 1069 1058 1014 954 979 1020 1038 943 958 1007 943 1036 1017 965 985 973 1004 993 1017 956 936 1017 932 911 1011 952 948 982 966 1006 928 982 1016 937 988 952 978 932 976 916 1017 980 920 963 952 892 949 924 929 952 890 915 899 904 908 936 889 915 910 889 971 911 896 897 874 865 898 920 873 898 895 851 946 862 891 911 880 869 875 896 912 847 882 860 871 894 887 865 860 885 871 926 891 821 903 936 885 878 892 852 899 896 910 836 910 891 881 920 880 869 908 923 862 894 912 913 823 856 912 863 939 866 848 914 938 870 907 894 872 932 888 936 894 890 871 913 925 873 892 909 924 892 869 869 873 913 896 925 869 907 888 913 862 892 853 911 924 875 855 880 914 851 877 936 904 918 880 902 867 893 887 901 940 902 906 903 896 824 902 828 916 927 874 899 857 921 916 915 883 912 881 888 888 788 853 807 877 880 875 868 880 843 896 857 896 805 862 893 826 858 883 904 881 902 884 925 844 875 920 864 829 863 872 836 836 923 910 908 889 925 858 865 895 892 885 936 873 883 855 834 908 878 859 867 909 897 887 860 879 915 809 828 837 901 894 917 882 899 889 901 842 891 917 870 939 918 963 865 884 928 923 915 918 868 888 888 922 902 936 895 908 907 946 939 922 968 875 977 907 890 898 897 950 966 931 992 912 959 920 948 877 923 912 839 876 941 912 940 906 889 978 876 977 1001 989 916 869 943 872 927 898 947 958 903 861 894 897 938 900 874 946 868 885 943 930 872 927 863 889 872 885 897 881 959 917 940 872 926 874 913 891 903 916 888 930 880 902 941 903 906 886 867 903 851 878 935 863 856 887 903 897 945 939 892 851 886 855 847 887 867 840 845 859 884 876 799 822 867 867 911 871 829 841 826 933 877 879 854 879 879 853 864 862 915 879 906 891 828 866 848 868 874 909 833 870 854 857 874 863 893 868 895 891 864 830 848 862 861 912 847 836 843 885 846 872 822 957 820 864 932 851 913 846 863 875 855 862 868 910 904 919 912 856 942 859 915 896 975 888 985 958 945 900 965 949 960 991 891 911 893 925 983 934 910 923 905 934 947 952 933 918 918 887 969 919 985 951 960 940 943 943 939 964 930 947 950 967 933 971 912 921 925 963 980 1009 988 954 1027 960 935 952 965 963 990 1001 949 1003 997 939 971 988 977 991 968 972 1021 933 971 991 972 1001 1034 1020 895 1044 976 943 990 979 940 957 933 949 905 857 927 937 936 951 927 914 935 881 900 885 913 922 876 891 905 886 878 871 901 866 868 855 857 850 831 865 852 837 897 811 943 888 849 823 861 855 861 915 919 869 871 873 855 879 856 850 869 859 834 821 894 916 859 828 854 910 909 813 881 850 856 887 893 866 844 841 906 851 845 854 858 841 832 817 920 887 863 871 898 856 880 890 822 870 879 888 913 898 865 915 896 845 906 818 881 903 915 904 820 833 882 872 868 857 852 815 904 885 899 919 902 868 926 831 834 910 881 862 911 867 920 885 902 834 825 884 846 880 868 867 853 861 883 865 881 889 869 880 830 913 892 825 886 954 876 928 918 859 864 888 873 885 908 892 868 901 845 830 898 873 932 873 882 846 853 864 837 898 898 923 895 896 895 923 871 916 894 881 873 839 925 851 925 898 912 839 890 896 901 883 909 925 907 935 903 905 980 970 878 938 884 885 975 966 930 1010 941 940 964 983 1005 991 1007 1007 997 1074 1010 1008 998 1006 1050 946 975 937 1016 1048 1023 1041 996 977 1004 995 1030 986 983 985 968 1011 975 1012 989 984 989 990 957 944 904 1004 876 979 944 944 943 957 959 951 920 1006 1004 946 939 904 934 927 935 917 926 946 975 921 905 998 998 977 985 970 976 968 1007 1037 991 1019 1124 1089 1021 992 1074 1081 1097 1063 1051 1065 1080 1053 1114 1120 1082 1112 1081 1117 1068 1061 1001 1162 1103 1015 1080 1083 1119 1099 1118 1029 1032 1077 1110 1041 1029 1034 1033 1037 973 1028 955 1016 905 951 969 1004 912 895 934 933 897 993 940 869 955 933 883 911 904 915 901 921 945 882 944 938 934 908 873 895 907 841 891 886 851 846 849 853 863 892 894 885 900 919 876 883 842 872 875 913 855 860 837 851 876 900 854 877 840 866 874 850 874 840 947 820 857 860 874 861 900 863 872 927 811 905 900 855 842 873 884 896 947 837 893 889 868 851 857 862 839 896 859 871 867 884 832 867 844 894 867 867 864 878 875 866 828 806 855 936 886 882 860 894 881 891 879 872 880 859 840 857 910 850 839 863 849 859 901 908 941 880 911 926 872 824 887 882 914 960 901 899 879 894 873 827 885 851 933 872 901 923 912 873 933 872 861 903 860 877 924 948 919 889 957 905 970 918 964 958 964 938 940 927 887 895 885 931 963 935 951 932 915 933 967 929 872 878 986 889 940 853 995 922 849 916 915 924 881 911 882 917 914 922 935 907 997 882 930 861 895 944 887 879 938 903 934 906 878 829 908 885 830 892 920 865 862 876 931 890 891 891 855 923 863 881 915 871 861 849 902 965 915 871 906 895 892 877 874 899 930 858 786 855 872 914 864 862 878 876 871 848 899 831 892 863 833 902 864 905 853 860 878 856 900 841 879 874 913 888 907 913 871 833 846 880 874 836 837 901 890 850 925 830 845 875 843 894 906 878 822 931 891 936 856 922 844 907 932 853 884 850 918 879 888 859 903 903 848 914 874 864 864 831 911 913 830 898 879 916 790 865 881 885 812 850 865 902 855 805 886 918 831 862 897 894 878 899 898 839 895 869 885 875 870 889 862 840 853 888 936 859 894 839 892 847 894 861 906 854 871 880 894 893 898 848 863 899 894 880 929 918 894 866 873 832 910 882 926 837 942 891 888 934 880 887 917 902 877 889 944 876 937 873 900 841 913 903 945 874 906 939 851 881 846 840 924 842 909 935 861 889 877 906 896 883 886 870 870 844 904 920 852 878 884 939 934 931 932 911 875 887 876 894 864 920 890 888 923 931 848 871 855 880 919 861 857 812 884 913 886 901 871 862 867 867 836 864 894 857 874 839 860 860 829 866 906 855 818 868 873 884 938 862 861 953 913 887 904 872 899 847 911 876 883 927 843 934 905 898 880 917 922 823 855 870 927 874 863 857 875 946 871 850 892 875 904 848 864 863 906 942 840 908 846 940 888 874 867 889 901 841 910 866 887 889 830 877 891 843 843 874 990 866 946 859 830 894 889 866 882 855 933 919 850 922 875 865 877 869 950 945 942 916 888 894 978 978 922 915 953 936 943 913 921 929 1022 941 957 970 1015 948 937 1039 945 891 1002 984 970 1038 943 988 897 956 968 968 971 989 941 923 958 933 961 907 902 947 951 982 950 888 966 976 949 986 1001 1015 974 931 982 943 1027 936 973 979 955 995 980 1014 978 954 942 951 976 915 907 1027 1024 950 974 991 990 988 996 1001 929 1074 1022 1025 973 1002 996 1008 978 991 972 915 1001 956 1010 993 999 969 1010 1014 1083 944 975 960 993 1053 974 978 993 1078 1033 966 1009 957 940 1014 909 960 931 1017 986 980 1016 977 927 967 935 952 963 974 919 945 953 927 930 975 944 919 1009 959 903 978 976 964 963 918 994 989 964 935 950 926 932 944 954 901 964 955 944 901 971 937 913 886 885 919 900 875 932 862 942 920 934 913 905 918 921 942 960 977 861 950 908 924 922 945 909 957 907 915 943 915 944 973 992 873 959 831 973 918 934 882 906 881 920 911 927 901 927 922 951 942 903 964 955 918 935 908 925 894 878 906 935 901 908 874 882 908 932 902 928 893 892 872 915 894 894 922 863 933 931 892 890 909 906 893 983 918 877 913 912 909 842 892 905 883 910 867 904 889 917 925 913 923 927 863 885 899 938 943 873 898 880 884 977 932 923 896 929 925 935 934 963 978 975 970 1027 993 1025 991 1024 998 1058 1153 1038 1088 1068 1122 1092 1146 1133 1120 1075 1117 1148 1170 1140 1183 1245 1267 1188 1205 1236 1279 1231 1282 1306 1267 1290 1319 1297 1241 1260 1308 1251 1270 1335 1262 1339 1394 1330 1315 1318 1309 1329 1342 1286 1243 1312 1268 1323 1301 1207 1316 1287 1309 1253 1300 1232 1233 1198 1252 1270 1217 1267 1228 1309 1276 1311 1198 1282 1273 1284 1254 1291 1309 1363 1201 1355 1228 1254 1245 1263 1262 1278 1244 1197 1231 1173 1257 1155 1206 1202 1231 1181 1194 1181 1298 1273 1106 1221 1199 1134 1157 1213 1188 1167 1136 1061 1139 1071 1116 1026 1100 998 1092 1080 1074 1020 1078 996 1080 1048 1034 1041 1026 1068 1047 1069 1021 1003 988 1027 972 1004 1040 1022 1049 1070 1087 1053 1076 1048 1064 1037 1029 1095 991 1035 1038 1047 1044 1107 1036 1097 1046 1020 1070 1115 984 1050 998 1093 1068 1017 1007 1033 1039 1058 1047 1002 1072 1039 1049 931 1040 1034 947 1021 1028 1025 1053 1026 978 985 991 938 966 942 1048 941 978 947 1001 983 991 967 925 946 951 933 973 912 958 953 975 958 949 911 994 901 1000 945 1036 961 943 922 987 910 900 921 899 927 933 897 938 929 961 939 871 934 929 914 906 939 990 916 978 917 897 926 929 907 942 862 855 925 983 959 928 891 900 921 1024 974 951 995 904 1012 966 926 983 937 928 935 989 1001 972 999 920 962 995 950 986 944 947 973 972 877 991 898 978 928 941 968 917 956 981 933 1013 1012 949 970 965 948 878 973 970 940 934 1006 943 993 933 955 961 969 931 900 967 961 972 973 1005 938 877 904 896 951 933 973 892 923 891 886 921 918 943 961 909 928 921 856 934 922 924 911 931 922 922 967 965 926 908 939 964 858 908 906 850 843 936 900 912 879 942 903 896 912 851 906 935 874 896 896 898 935 922 944 916 923 888 930 920 986 899 869 923 941 898 873 886 843 894 880 914 897 937 908 982 905 924 933 944 961 970 869 915 885 910 934 952 914 956 941 884 862 847 965 908 962 902 968 860 877 915 939 955 935 906 895 869 882 900 867 896 916 899 924 892 945 937 851 919 886 837 901 865 907 911 860 899 886 828 873 883 882 867 868 907 895 916 928 888 879 869 859 852 874 850 883 871 891 865 863 897 929 871 881 920 961 879 866 893 867 894 907 865 897 896 930 867 896 944 957 881 873 885 895 886 873 907 847 847 911 881 882 872 937 864 915 963 894 914 869 880 874 913 920 865 892 843 959 936 906 882 930 939 902 929 895 906 937 893 877 853 947 885 917 878 900 886 881 879 877 906 829 893 937 896 899 926 919 895 883 940 874 895 844 876 879 907 898 875 854 936 923 856 894 870 841 904 932 914 926 894 894 897 898 868 900 913 867 856 842 925 907 886 904 913 934 908 860 866 914 857 905 876 960 896 933 890 883 915 909 919 894 954 888 894 883 878 888 833 929 863 890 884 906 865 837 896 880 943 938 877 886 934 890 881 915 856 911 905 904 905 877 910 884 881 891 843 864 909 890 902 882 850 886 936 916 894 876 867 947 900 954 944 914 853 894 818 916 901 926 914 909 941 926 927 894 999 906 927 914 876 901 852 971 1033 987 896 950 919 896 980 950 972 969 956 904 942 936 972 984 979 921 998 941 948 908 939 970 936 935 954 863 966 922 904 905 976 930 954 974 868 936 956 1004 958 1004 925 938 940 890 861 889 924 967 928 951 935 932 950 892 870 926 888 906 936 909 935 929 968 913 899 941 960 921 911 895 941 937 883 979 948 1004 905 913 953 918 935 912 898 984 882 947 894 888 923 922 895 891 910 867 953 885 925 900 935 869 974 885 944 917 901 855 901 879 852 942 934 931 873 928 850 888 905 913 927 892 902 927 888 975 931 943 984 946 945 966 894 907 948 912 878 855 918 929 955 941 963 958 967 938 878 971 932 938 877 896 946 905 905 894 942 963 934 954 942 858 915 932 917 909 919 939 925 875 920 958 919 923 861 915 928 910 897 848 883 969 870 886 880 922 925 874 908 920 966 917 915 867 894 874 944 886 909 915 911 892 954 884 922 968 901 922 916 869 902 962 877 878 874 870 936 916 876 872 896 839 876 906 852 891 872 836 888 923 918 882 893 913 968 891 926 832 930 887 893 915 878 937 883 976 944 939 907 926 919 879 936 966 887 942 910 904 928 981 892 929 931 983 929 934 966 921 980 924 954 934 950 913 966 982 948 1003 968 991 1029 1007 1008 999 948 994 1073 1039 1039 1046 1028 1062 1018 1090 1062 1078 1054 1028 1053 1070 1043 1038 1061 1113 1091 1036 1160 1082 1078 1096 1074 1167 1114 1099 1174 1166 1118 1142 1148 1196 1143 1161 1105 1107 1178 1199 1187 1139 1180 1157 1252 1149 1195 1220 1227 1204 1250 1241 1176 1201 1249 1152 1122 1140 1175 1288 1160 1196 1151 1124 1156 1136 1169 1186 1152 1137 1109 1120 1154 1105 1088 1117 1158 1129 1049 1109 1141 1026 1049 1064 1071 1080 1088 1029 1034 995 1029 1014 998 1042 977 1024 968 1022 1014 1015 1027 989 959 1031 981 1023 1018 964 967 1008 940 939 973 1048 991 1041 1015 965 1033 964 997 969 1003 1012 989 1000 1003 1023 1075 1042 1071 1014 1098 1093 1094 1122 1108 1089 1097 1053 1100 1085 1104 1057 1125 1118 1068 1089 1125 1114 1073 1109 1121 1062 1110 1110 1092 1056 1131 1062 1118 1039 1012 1065 1114 1048 1118 999 1055 1117 1071 1019 1020 1016 1069 1028 1058 1103 1051 1020 983 1041 1050 962 997 1002 960 931 1004 934 974 1061 1007 988 967 922 938 942 923 943 956 944 1002 905 991 913 973 912 928 886 933 939 940 889 980 941 953 914 912 923 876 922 880 911 921 931 950 935 896 933 896 890 902 928 904 931 917 954 939 923 889 928 878 897 978 887 887 919 884 933 907 917 937 966 894 928 957 881 926 948 845 894 871 879 869 929 855 838 914 873 859 906 946 973 885 893 892 888 872 905 938 889 888 904 892 896 897 917 853 926 845 917 861 924 909 876 904 873 901 899 950 951 836 935 979 933 947 938 925 933 991 941 939 965 954 920 909 892 936 948 991 943 923 950 923 962 940 916 917 923 897 897 923 946 942 986 926 934 1003 987 944 974 942 965 945 954 949 921 925 904 932 876 944 964 931 929 891 881 909 934 902 890 952 917 924 915 887 860 929 910 932 917 921 908 938 928 868 894 952 936 877 911 908 897 898 891 869 911 916 866 943 856 895 940 882 916 905 920 892 925 901 854 909 857 928 905 888 926 930 949 888 858 919 891 904 941 872 906 923 930 917 918 870 900 865 926 911 944 922 960 926 899 881 928 879 872 932 965 901 862 934 958 878 932 941 954 906 942 901 940 976 876 903 917 887 987 931 910 982 925 875 905 942 922 948 952 894 872 882 901 929 963 926 908 860 845 878 881 957 874 874 926 912 907 901 885 883 849 928 893 813 889 898</counts>
			</dataPoints>
		</scan>
	</xrdMeasurement>
</xrdMeasurements>
