<?xml version="1.0"?>
<xrdMeasurements xmlns="http://www.xrdml.com/XRDMeasurement/2.3" xmlns:xsi="http://www.w3.org/2001/XMLSchema-instance" xsi:schemaLocation="http://www.xrdml.com/XRDMeasurement/2.3 http://www.xrdml.com/XRDMeasurement/2.3/XRDMeasurement.xsd" status="Completed" recordIdentifier="{E6296BD8-F0D2-4DC2-9112-DCCE8E3447F1}">
	<comment>
		<entry/>
	</comment>
	<sample type="To be analyzed">
		<id>GPSS_Li1p35Mg0p7Mn0p3Zr0p1Nb0p05Cl4_112425_69248ac4f4e53d1f723993d6</id>
		<name></name>
		<preparedBy></preparedBy>
	</sample>
	<xrdMeasurement measurementType="Scan" status="Completed" sampleMode="Reflection">
		<usedWavelength intended="K-Alpha 1">
			<kAlpha1 unit="Angstrom">1.5405980</kAlpha1>
			<kAlpha2 unit="Angstrom">1.5444260</kAlpha2>
			<kBeta unit="Angstrom">1.3922500</kBeta>
			<ratioKAlpha2KAlpha1>0.5000</ratioKAlpha2KAlpha1>
		</usedWavelength>
		<incidentBeamPath>
			<radius unit="mm">145.00</radius>
			<xRayTube id="1010048" name="Empyrean Cu LFF HR (9430 033 7310x)">
				<tension unit="kV">40.0</tension>
				<current unit="mA">15.0</current>
				<anodeMaterial>Cu</anodeMaterial>
				<focus type="Line">
					<length unit="mm">12.0</length>
					<width unit="mm">0.4</width>
					<takeOffAngle unit="deg">6.0</takeOffAngle>
				</focus>
			</xRayTube>
			<sollerSlit id="21010002" name="Soller slits 0.04 rad.">
				<opening unit="rad">0.0400</opening>
			</sollerSlit>
			<mask id="22031000" name="Fixed mask 13 mm">
				<width unit="mm">9.00</width>
			</mask>
			<divergenceSlit id="22120001" name="Divergence slit 1°" xsi:type="fixedDivergenceSlitType">
				<distanceToSample unit="mm">50.00</distanceToSample>
				<height unit="mm">1.52</height>
			</divergenceSlit>
		</incidentBeamPath>
		<sampleMovement xsi:type="spinningSampleMovementType">
			<spinnerRevolutionTime unit="seconds">1.0</spinnerRevolutionTime>
		</sampleMovement>
		<diffractedBeamPath>
			<radius unit="mm">145.00</radius>
			<antiScatterSlit id="22090040" name="AS slit 9 mm (PIXcel)" xsi:type="fixedAntiScatterSlitType">
				<height unit="mm">9.00</height>
			</antiScatterSlit>
			<sollerSlit id="21020003" name="Large Soller slits 0.04 rad.">
				<opening unit="rad">0.0400</opening>
			</sollerSlit>
			<filter id="20030001" name="Large beta-filter Nickel">
				<material>Ni</material>
				<thickness unit="mm">0.020</thickness>
			</filter>
			<detector id="7010019" name="PIXcel1D-Medipix3 detector" xsi:type="rtmsDetectorType">
				<phd unit="keV">
					<lowerLevel>4.02</lowerLevel>
					<upperLevel>11.27</upperLevel>
				</phd>
				<mode>Scanning</mode>
				<activeLength unit="deg">5.542</activeLength>
			</detector>
		</diffractedBeamPath>
		<scan appendNumber="0" mode="Continuous" scanAxis="Gonio" status="Completed">
			<header>
				<startTimeStamp>2025-11-27T10:55:00-08:00</startTimeStamp>
				<endTimeStamp>2025-11-27T11:03:07-08:00</endTimeStamp>
				<author>
					<name>AutomatedUser</name>
				</author>
				<source>
					<applicationSoftware version="1.7b (136)">PANalytical Aeris Instrument Suite</applicationSoftware>
					<instrumentControlSoftware version="3.2.00000000 20240306">AERIS</instrumentControlSoftware>
					<instrumentID>950485</instrumentID>
				</source>
			</header>
			<dataPoints>
				<positions axis="2Theta" unit="deg">
					<startPosition>10.00943322</startPosition>
					<endPosition>99.99442286</endPosition>
				</positions>
				<positions axis="Omega" unit="deg">
					<startPosition>5.00471661</startPosition>
					<endPosition>49.99721143</endPosition>
				</positions>
				<commonCountingTime unit="seconds">12.495</commonCountingTime>
				<counts unit="counts">2548 2557 2560 2529 2595 2567 2550 2547 2521 2628 2574 2565 2487 2525 2642 2522 2607 2471 2633 2519 2602 2508 2461 2534 2570 2525 2578 2605 2529 2590 2470 2514 2540 2561 2522 2576 2521 2556 2520 2610 2572 2534 2456 2619 2531 2536 2622 2532 2663 2514 2583 2427 2529 2622 2492 2553 2494 2597 2531 2584 2498 2488 2463 2558 2561 2504 2561 2455 2502 2513 2501 2522 2397 2468 2541 2406 2477 2508 2395 2552 2405 2500 2436 2584 2468 2536 2547 2491 2550 2503 2569 2544 2454 2478 2566 2600 2480 2495 2575 2478 2527 2544 2615 2512 2457 2533 2491 2529 2420 2439 2578 2492 2452 2459 2487 2571 2457 2450 2447 2418 2535 2516 2426 2522 2508 2460 2520 2562 2463 2438 2489 2372 2486 2604 2563 2510 2516 2444 2575 2426 2423 2519 2481 2514 2450 2518 2535 2448 2588 2448 2595 2401 2416 2427 2419 2484 2476 2511 2456 2469 2473 2412 2329 2374 2458 2403 2531 2381 2448 2447 2538 2382 2406 2400 2430 2423 2479 2385 2382 2382 2558 2417 2307 2422 2374 2429 2390 2436 2358 2414 2397 2391 2486 2369 2375 2413 2416 2424 2351 2417 2428 2412 2470 2440 2373 2401 2329 2345 2477 2364 2389 2382 2418 2412 2373 2448 2466 2388 2372 2417 2394 2306 2375 2358 2426 2391 2390 2441 2388 2381 2452 2316 2444 2313 2329 2329 2278 2456 2336 2344 2289 2311 2417 2400 2402 2302 2350 2345 2374 2281 2288 2198 2358 2430 2360 2271 2292 2315 2299 2357 2258 2309 2268 2327 2239 2177 2355 2244 2269 2290 2295 2293 2275 2234 2331 2335 2289 2320 2356 2307 2295 2239 2337 2291 2351 2298 2302 2285 2239 2219 2318 2357 2237 2367 2263 2293 2247 2325 2374 2192 2242 2274 2356 2232 2302 2309 2210 2317 2221 2308 2220 2346 2308 2295 2235 2302 2285 2227 2328 2283 2189 2302 2180 2221 2254 2345 2348 2276 2159 2358 2255 2297 2354 2292 2261 2277 2318 2292 2246 2242 2282 2280 2256 2265 2279 2328 2235 2224 2301 2279 2259 2268 2329 2243 2263 2229 2327 2223 2243 2331 2277 2286 2341 2322 2356 2327 2324 2278 2320 2300 2244 2274 2374 2278 2284 2346 2301 2336 2268 2247 2230 2400 2318 2322 2282 2308 2391 2237 2327 2300 2377 2346 2315 2270 2353 2372 2375 2355 2365 2368 2336 2367 2406 2436 2377 2444 2357 2454 2499 2386 2464 2457 2508 2560 2473 2602 2619 2696 2692 2680 2680 2760 2814 2817 2885 2947 2808 3074 3102 3033 2961 3025 3071 3207 3229 3132 3301 3239 3289 3428 3406 3351 3583 3551 3567 3635 3695 3875 3833 3872 4003 4125 4084 4355 4203 4359 4322 4219 4331 4187 4157 4060 3913 3737 3755 3786 3634 3637 3450 3625 3797 3736 3818 3881 3867 3850 3984 3883 4076 3932 4106 4031 4115 4197 4323 4264 4254 4185 4274 4225 4074 4155 3965 3967 3703 3618 3443 3405 3235 3215 3159 2975 2870 2842 2701 2680 2675 2656 2632 2533 2553 2558 2635 2517 2500 2550 2521 2577 2607 2397 2513 2544 2508 2346 2537 2494 2485 2436 2535 2508 2541 2434 2475 2358 2334 2466 2350 2310 2399 2330 2370 2350 2493 2366 2382 2358 2361 2280 2317 2318 2272 2384 2359 2309 2272 2351 2273 2327 2285 2302 2302 2254 2382 2324 2332 2213 2244 2313 2162 2290 2266 2300 2227 2319 2260 2323 2339 2133 2335 2252 2331 2268 2310 2246 2209 2252 2206 2187 2222 2176 2189 2193 2213 2221 2225 2188 2180 2212 2113 2218 2118 2159 2151 2218 2204 2178 2165 2122 2175 2098 2228 2192 2070 2219 2223 2241 2136 2069 2204 2112 2205 2119 2153 2103 2072 2182 2190 2109 2095 2122 2090 2156 2085 2154 2205 2096 2114 2105 2103 2064 2180 2166 2121 2110 1978 2090 2124 2047 2108 2101 2108 2112 2052 2035 2054 2106 2069 2136 2132 1993 2036 2075 2037 2077 2064 1965 2088 2058 2023 2014 2041 2036 2049 2042 2068 2001 2097 2095 2107 1985 2006 2007 2016 2060 1978 2058 2099 2013 2025 2024 1936 1999 1965 2036 1955 2036 1976 2081 1941 2028 1980 2015 1938 2011 1986 1963 1990 2003 1957 2007 1950 2028 1993 1932 1929 2056 1961 2015 2006 1939 1933 1924 1990 1965 1970 1925 2003 1882 1901 1947 1989 1960 1897 1908 1974 1886 2043 1833 1928 1886 1967 1947 2003 1996 1992 1845 1919 1826 1862 2019 1876 1884 1885 1971 2010 1909 1864 1914 1906 1831 1911 1976 1922 1939 1846 1884 1939 1896 1997 1984 1994 1958 1891 1863 1874 1812 1882 1838 1912 1921 1850 1867 1913 1809 1801 1834 1806 1814 1838 1856 1843 1784 1813 1759 1855 1941 1852 1904 1904 1858 1885 1826 1838 1841 1811 1863 1863 1860 1774 1838 1792 1829 1817 1829 1892 1803 1889 1894 1850 1799 1871 1828 1816 1814 1882 1840 1863 1859 1787 1824 1803 1846 1772 1852 1746 1808 1825 1847 1831 1824 1766 1842 1756 1809 1830 1739 1775 1752 1763 1747 1806 1749 1768 1815 1734 1740 1778 1759 1836 1779 1801 1795 1814 1712 1805 1774 1821 1774 1867 1751 1749 1733 1688 1786 1742 1703 1778 1722 1760 1688 1738 1781 1741 1775 1783 1788 1772 1651 1764 1720 1665 1732 1694 1738 1835 1755 1695 1734 1725 1753 1771 1710 1633 1675 1765 1796 1729 1724 1685 1812 1658 1787 1772 1769 1723 1706 1716 1664 1755 1710 1663 1697 1731 1682 1744 1696 1795 1762 1643 1742 1735 1742 1710 1682 1718 1763 1618 1710 1629 1606 1646 1702 1615 1768 1726 1670 1756 1680 1666 1708 1699 1741 1713 1614 1638 1722 1649 1728 1651 1713 1717 1680 1646 1674 1584 1707 1674 1710 1674 1724 1696 1626 1692 1711 1665 1623 1795 1717 1681 1692 1674 1605 1655 1743 1651 1642 1618 1651 1683 1649 1592 1582 1616 1607 1623 1623 1647 1623 1635 1622 1624 1608 1603 1592 1568 1622 1702 1591 1619 1595 1587 1581 1707 1581 1710 1612 1592 1655 1597 1639 1612 1612 1650 1579 1649 1588 1603 1681 1586 1610 1550 1601 1585 1644 1662 1602 1676 1550 1574 1659 1578 1553 1712 1623 1599 1552 1557 1552 1636 1638 1630 1573 1597 1591 1623 1472 1622 1604 1631 1587 1547 1580 1622 1602 1564 1583 1675 1679 1610 1673 1606 1571 1574 1586 1563 1619 1597 1562 1572 1551 1539 1559 1529 1571 1562 1540 1608 1577 1591 1579 1620 1585 1554 1566 1567 1501 1570 1525 1510 1580 1625 1567 1579 1558 1561 1599 1508 1544 1584 1619 1633 1535 1591 1657 1621 1566 1560 1527 1573 1559 1680 1619 1565 1529 1610 1499 1578 1562 1568 1531 1591 1567 1559 1557 1494 1556 1538 1519 1581 1543 1583 1547 1585 1488 1573 1579 1556 1527 1554 1454 1511 1530 1525 1556 1464 1520 1540 1542 1465 1497 1522 1562 1484 1607 1467 1521 1584 1580 1531 1519 1552 1451 1605 1516 1494 1515 1506 1471 1481 1469 1424 1529 1546 1487 1528 1545 1457 1539 1540 1563 1425 1470 1444 1487 1570 1509 1474 1486 1569 1537 1476 1557 1499 1547 1547 1514 1429 1548 1497 1534 1438 1497 1504 1511 1556 1499 1538 1475 1434 1527 1528 1493 1433 1491 1468 1545 1525 1461 1517 1452 1438 1416 1515 1509 1592 1488 1437 1486 1491 1507 1555 1508 1405 1422 1499 1516 1418 1520 1523 1477 1472 1447 1469 1386 1450 1507 1465 1549 1446 1429 1466 1423 1407 1431 1453 1428 1430 1399 1410 1421 1430 1452 1381 1448 1391 1417 1401 1450 1461 1464 1457 1520 1446 1407 1455 1422 1488 1420 1394 1447 1367 1428 1401 1452 1438 1506 1409 1409 1435 1399 1441 1435 1397 1473 1365 1445 1436 1445 1356 1467 1328 1420 1419 1439 1420 1430 1458 1405 1388 1369 1455 1425 1391 1419 1438 1510 1406 1452 1380 1446 1469 1403 1373 1366 1439 1403 1509 1406 1467 1342 1405 1350 1371 1369 1406 1384 1383 1379 1421 1385 1415 1386 1338 1420 1476 1401 1351 1415 1438 1394 1352 1354 1384 1344 1381 1358 1334 1381 1383 1290 1383 1434 1352 1290 1400 1314 1353 1352 1351 1381 1290 1338 1454 1341 1324 1381 1352 1433 1291 1263 1321 1352 1350 1397 1351 1311 1314 1358 1414 1269 1357 1338 1379 1334 1309 1348 1351 1267 1297 1260 1338 1346 1270 1394 1326 1387 1403 1374 1351 1376 1338 1336 1362 1351 1335 1296 1331 1314 1362 1321 1330 1296 1314 1354 1333 1405 1388 1328 1399 1359 1356 1326 1419 1365 1268 1311 1298 1343 1371 1387 1325 1328 1316 1352 1351 1368 1351 1246 1285 1296 1377 1251 1268 1258 1363 1302 1377 1270 1330 1336 1378 1330 1294 1354 1351 1361 1337 1351 1319 1318 1286 1334 1337 1324 1350 1348 1319 1245 1339 1407 1296 1285 1332 1322 1291 1279 1284 1298 1323 1291 1343 1301 1218 1328 1238 1361 1319 1353 1287 1342 1363 1350 1288 1319 1282 1307 1301 1291 1342 1317 1402 1290 1303 1312 1304 1246 1299 1343 1363 1303 1361 1257 1304 1298 1273 1324 1269 1308 1354 1298 1342 1326 1331 1291 1294 1304 1307 1317 1332 1310 1319 1325 1250 1341 1313 1329 1300 1309 1276 1290 1297 1385 1328 1338 1354 1311 1295 1286 1296 1357 1339 1285 1313 1282 1291 1356 1277 1303 1269 1254 1335 1203 1265 1279 1254 1323 1309 1237 1317 1240 1280 1275 1325 1271 1229 1251 1370 1294 1279 1258 1258 1249 1288 1286 1266 1323 1319 1281 1354 1243 1325 1292 1295 1334 1321 1316 1252 1273 1288 1252 1190 1257 1325 1313 1264 1319 1369 1258 1255 1274 1315 1246 1283 1291 1310 1221 1274 1272 1281 1308 1278 1238 1199 1199 1267 1240 1279 1240 1221 1267 1254 1315 1343 1284 1325 1335 1259 1301 1289 1302 1271 1279 1352 1323 1290 1282 1286 1357 1347 1378 1353 1384 1401 1369 1385 1508 1453 1487 1411 1450 1509 1496 1589 1608 1676 1586 1630 1724 1751 1779 1862 1854 2019 1979 1983 2095 2048 2197 2154 2251 2275 2324 2309 2334 2384 2319 2206 2279 2262 2303 2224 2201 2144 2033 2095 1958 1954 1871 1831 1875 1745 1700 1644 1608 1625 1661 1570 1516 1550 1520 1564 1512 1516 1473 1505 1461 1444 1474 1436 1467 1399 1401 1353 1302 1348 1390 1337 1316 1297 1289 1332 1247 1296 1275 1316 1288 1244 1336 1302 1193 1292 1308 1319 1330 1284 1275 1348 1252 1250 1215 1274 1344 1371 1296 1282 1331 1307 1394 1246 1358 1325 1409 1321 1444 1406 1423 1412 1425 1416 1517 1501 1524 1594 1627 1636 1696 1744 1818 1831 1972 2044 2031 2138 2260 2398 2561 2697 2751 2886 2966 3097 3422 3580 3629 3960 4185 4386 4638 4840 5110 5400 5628 5965 6253 6409 6572 6653 6966 6849 6952 6874 6557 6376 6047 5697 5173 4835 4342 3875 3565 3262 3044 2688 2484 2282 2181 2081 2003 1903 1870 1909 1965 1917 1874 1893 1861 1816 1903 1858 1803 1877 1838 1796 1858 1861 1868 1859 1874 1926 1851 1851 1877 1947 1906 1834 1768 1788 1733 1709 1735 1696 1784 1634 1704 1674 1715 1742 1668 1733 1632 1682 1807 1644 1650 1714 1711 1616 1641 1523 1546 1482 1477 1428 1462 1393 1321 1364 1337 1282 1318 1276 1228 1239 1294 1275 1281 1245 1239 1194 1244 1218 1297 1228 1251 1121 1202 1188 1170 1181 1163 1220 1174 1167 1229 1173 1268 1198 1193 1203 1166 1192 1136 1185 1139 1201 1260 1174 1237 1220 1159 1119 1160 1161 1148 1181 1167 1140 1139 1220 1149 1209 1089 1198 1150 1078 1086 1099 1173 1140 1105 1129 1140 1071 1185 1120 1126 1138 1085 1138 1147 1110 1095 1101 1098 1206 1138 1099 1084 1158 1084 1168 1103 1136 1076 1115 1162 1109 1080 1053 1129 1079 1098 1080 1080 1112 1104 1057 1126 1041 1131 1098 1102 1111 1026 1040 1055 1040 1070 1083 1084 1073 1087 1062 1132 1026 1041 1023 1058 1060 1129 1097 1091 1105 1137 1103 1097 1076 1108 1097 1052 1092 1063 1119 1063 996 1059 1090 1047 1112 1045 1084 1088 1151 1046 1044 1080 1031 1063 1119 1033 1045 1113 1046 1066 1060 1051 1085 1027 1037 1109 1062 989 1047 1037 1020 1103 1090 1092 1014 1090 1010 1103 1064 1056 1066 1025 1109 1083 1108 1005 1060 1057 1127 1102 1088 1066 1074 1020 1040 1062 1028 1092 1147 1083 1076 1061 1072 958 1074 1076 1054 1032 1015 1076 1118 1011 1065 1053 1061 1027 1057 1083 1056 1061 1006 1065 1057 1060 1114 1022 1061 1028 1067 1049 1011 1011 1049 1089 1066 1049 1088 1104 1011 1080 1087 1075 1127 1093 1083 1141 1040 1107 1140 1047 1068 1067 1168 1148 1082 1044 1159 1127 1133 1043 1139 1161 1149 1057 1048 1099 1158 1058 1126 1118 1106 1126 1100 1137 1177 1055 1168 1167 1111 1122 1031 1091 1127 1079 1190 1100 1121 1122 1253 1150 1176 1149 1151 1196 1209 1193 1172 1206 1236 1259 1259 1255 1189 1200 1250 1210 1234 1258 1252 1266 1278 1355 1321 1417 1297 1404 1422 1443 1480 1561 1620 1619 1634 1627 1751 1812 1918 2018 2077 2236 2306 2394 2516 2726 2861 2993 3218 3470 3721 3876 4078 4547 4661 5161 5436 5782 6048 6428 6982 7275 7628 8032 8400 8709 8829 9203 9366 9494 9664 9441 9083 8880 8491 8068 7596 7341 6859 6386 6202 5652 5345 5103 4832 4434 4373 4263 4174 4049 3961 3828 3829 3669 3562 3418 3454 3372 3308 3277 3357 3219 3204 3085 3035 3067 3110 3166 3141 2933 3014 2980 2871 2884 2784 2748 2734 2697 2651 2647 2629 2421 2419 2379 2233 2073 1987 2064 1908 1848 1786 1734 1662 1605 1627 1515 1499 1414 1417 1318 1347 1306 1359 1340 1280 1263 1236 1293 1236 1241 1257 1190 1179 1250 1298 1256 1207 1193 1187 1174 1139 1176 1138 1154 1143 1218 1120 1127 1162 1155 1099 1129 1119 1105 1093 1139 1146 1104 1124 1103 1133 1147 1098 1062 1087 1133 1072 1054 1052 1132 1066 1116 1101 1045 1018 1124 1072 1040 1118 1065 1126 1087 1069 1075 1063 1112 1053 1049 1050 1019 1103 1047 1029 1091 1070 1060 1038 1060 1058 1035 1017 996 1038 1056 1042 1093 1087 1011 1115 1059 1054 1023 1009 1063 959 1064 1047 984 1003 1013 1029 965 1026 1010 1028 1043 1012 1027 1014 976 1021 1030 989 1000 1008 1015 994 991 969 1009 994 995 996 1035 981 937 936 1075 940 975 1001 1014 1027 983 1030 943 981 1028 982 977 999 973 955 1001 958 959 959 985 948 950 1015 1033 981 972 970 954 1021 925 1002 971 999 959 1022 940 975 981 963 990 1006 961 1006 998 905 972 977 916 1016 921 1043 948 947 935 963 967 1010 905 946 962 893 1000 981 847 960 931 936 1012 946 882 945 944 978 945 969 940 915 946 948 901 965 1022 970 985 953 929 942 922 965 1027 930 948 971 906 914 953 930 985 955 985 1015 981 987 940 990 970 1005 968 943 963 979 988 969 957 937 1027 944 974 994 981 1012 966 1010 1018 1010 1058 1005 1030 1035 1013 1046 1063 1012 1032 1046 1028 1021 1028 1013 983 978 1024 1028 1031 1034 936 944 984 1013 940 972 999 955 909 982 931 967 968 966 989 1007 890 959 927 907 970 895 960 954 926 930 912 892 924 912 898 912 937 953 931 953 911 913 843 908 939 961 895 941 876 904 907 974 903 904 919 904 865 879 942 958 880 922 933 908 893 890 902 899 904 908 905 869 857 913 889 878 898 907 892 889 858 911 911 968 858 865 864 900 861 952 923 873 894 898 890 870 913 884 921 840 869 844 893 895 860 888 893 928 882 942 915 915 850 866 862 830 881 876 872 879 892 845 872 835 912 844 863 903 904 845 866 869 948 857 869 851 879 859 891 900 852 904 829 885 885 897 901 939 844 840 883 889 928 860 827 837 816 834 884 902 904 892 887 851 913 876 878 851 866 886 845 900 911 844 843 876 870 916 860 875 861 862 850 857 853 850 839 850 834 821 892 853 877 957 836 906 852 859 887 913 869 776 834 816 887 862 855 875 840 865 850 882 844 856 889 860 884 810 860 852 899 836 854 906 878 870 903 854 822 858 888 860 852 789 884 837 835 823 860 846 873 881 809 819 858 828 901 893 848 847 858 850 872 849 854 797 897 836 832 844 850 837 939 860 876 878 886 851 837 854 880 925 838 840 820 860 820 816 851 839 856 808 894 835 878 888 780 854 832 862 854 919 836 834 811 891 840 824 887 912 873 806 874 832 855 885 868 866 907 821 870 859 875 880 842 832 827 830 827 830 844 815 777 884 842 823 793 841 849 806 825 828 855 849 907 906 882 810 851 842 856 825 892 861 834 869 809 819 852 829 862 850 847 811 866 866 805 889 801 809 826 880 823 859 793 850 839 860 806 855 817 834 845 839 828 869 864 861 845 851 803 849 843 837 857 866 850 781 808 837 809 817 845 789 848 834 854 848 868 845 846 816 801 802 826 816 855 817 835 825 845 844 888 830 840 894 845 830 861 826 780 846 861 840 856 841 821 801 870 853 840 843 829 785 861 878 816 851 825 790 813 847 878 789 832 829 825 808 851 855 794 874 791 847 826 838 849 839 830 861 804 885 818 828 843 792 876 866 820 828 844 851 762 855 831 863 849 832 815 880 859 792 842 821 838 888 829 808 754 861 841 853 890 796 865 807 820 789 810 823 826 843 841 763 861 809 835 830 861 884 865 849 836 861 865 815 855 861 830 829 800 835 854 892 797 843 822 841 816 827 848 817 884 847 839 832 834 845 824 835 828 850 788 837 858 817 807 820 837 881 816 818 785 842 775 808 846 893 849 858 878 826 766 829 830 808 819 844 826 832 800 883 864 826 856 882 843 810 863 830 874 860 889 822 828 898 839 810 863 819 845 847 845 908 928 835 804 831 844 812 882 890 863 843 815 811 884 852 885 871 783 835 899 881 915 866 867 849 949 825 941 930 997 948 950 938 949 987 975 1042 1097 1061 1172 1121 1106 1208 1178 1259 1232 1283 1270 1349 1372 1381 1372 1445 1520 1490 1444 1532 1503 1509 1430 1500 1427 1440 1481 1336 1287 1370 1189 1191 1247 1046 1185 1099 1065 1023 1059 964 973 970 956 886 1014 964 948 850 887 939 912 878 909 912 931 892 921 858 848 903 915 886 855 946 929 965 997 900 926 905 926 964 919 953 975 988 954 977 998 1026 1047 1004 1055 1022 1073 1076 1037 1057 1058 1122 1125 1103 1151 1101 1052 1050 1019 1066 1065 1028 1000 1079 1055 1032 966 995 926 952 977 920 953 917 829 941 903 892 920 941 865 894 862 839 871 841 913 873 879 885 830 869 906 798 831 880 839 857 869 811 819 875 839 846 891 847 866 819 871 822 806 801 835 846 803 861 815 810 817 813 794 865 806 782 793 874 837 811 861 850 838 836 799 801 831 856 867 834 836 856 897 835 788 862 825 823 813 849 829 836 782 855 840 850 823 802 803 872 782 846 822 812 778 804 817 775 793 812 789 802 795 801 814 849 806 828 895 850 819 796 817 825 867 817 819 780 785 856 827 789 862 816 767 842 802 817 820 896 829 836 795 846 849 873 878 841 839 821 814 851 814 838 858 828 850 835 873 811 863 837 847 817 853 861 814 877 867 836 838 820 899 819 830 872 866 849 858 794 836 812 850 802 853 808 823 853 828 852 827 834 887 833 857 796 850 820 822 813 812 908 810 832 870 873 841 828 845 837 837 796 794 830 846 788 829 828 909 872 891 847 819 855 789 867 810 845 847 867 807 879 891 824 895 909 846 890 899 852 868 906 893 882 866 882 824 827 876 846 857 861 845 929 895 892 923 913 969 870 932 944 970 932 974 1026 981 1003 1091 1101 1034 1088 1101 1136 1214 1213 1219 1314 1331 1346 1461 1477 1611 1670 1655 1739 1876 1951 2056 2033 2139 2365 2358 2260 2382 2535 2732 2736 2795 3020 3078 3341 3439 3598 3808 3913 4150 4256 4461 4566 4737 4819 5057 5071 5199 5301 5234 5116 5067 4748 4479 4369 4225 3945 3750 3739 3428 3431 3171 3012 2824 2735 2437 2362 2251 2101 1900 1874 1852 1732 1607 1661 1571 1532 1474 1493 1489 1502 1443 1403 1436 1333 1387 1353 1288 1382 1321 1355 1329 1316 1266 1232 1276 1292 1253 1285 1250 1233 1258 1231 1294 1245 1265 1299 1226 1319 1336 1301 1354 1337 1436 1354 1341 1431 1409 1401 1457 1467 1488 1465 1437 1418 1486 1538 1522 1588 1643 1641 1652 1714 1756 1706 1688 1599 1608 1583 1583 1634 1546 1525 1549 1428 1420 1385 1336 1368 1390 1293 1228 1261 1264 1187 1222 1139 1134 1102 1143 1022 1087 1045 1044 1103 1047 985 1007 1046 1044 961 987 943 890 989 906 946 939 900 959 940 874 871 860 924 871 899 894 902 947 893 908 839 956 879 867 892 860 890 903 916 877 833 881 882 910 840 895 910 834 845 848 865 858 863 884 912 891 868 862 886 850 848 893 863 879 898 829 860 914 867 888 913 885 804 848 877 922 905 886 899 906 917 924 932 910 1038 1013 974 1033 1129 1108 1086 1164 1106 1192 1176 1192 1248 1221 1232 1189 1239 1272 1228 1225 1279 1219 1270 1315 1363 1263 1292 1211 1221 1156 1219 1129 1087 1148 1079 1059 1025 1089 989 945 1014 959 948 1014 955 921 931 860 951 925 928 895 895 868 903 875 935 904 911 910 869 887 924 900 870 911 873 912 814 920 813 867 849 931 821 890 904 872 883 843 817 820 854 803 812 824 838 801 812 803 858 828 796 817 755 815 834 816 794 839 722 812 798 779 747 757 813 787 827 812 765 819 774 772 758 774 783 731 743 803 759 778 795 855 752 759 829 796 747 792 753 766 774 787 786 764 748 748 713 743 790 776 790 769 773 744 744 760 762 723 746 764 732 749 779 758 771 725 765 736 801 800 763 828 765 796 767 803 798 763 804 757 717 785 750 731 824 757 809 803 821 790 783 745 755 724 748 765 782 774 780 743 747 740 746 767 763 764 747 765 767 799 782 740 747 759 785 750 717 779 762 760 726 791 727 734 733 781 671 756 757 750 708 800 786 756 790 757 727 723 748 713 787 746 695 681 746 759 743 794 773 768 751 759 717 744 711 747 750 768 761 778 753 752 745 727 767 756 781 773 722 753 769 730 789 713 693 681 771 753 774 732 723 753 773 730 763 699 762 740 760 762 746 712 748 755 714 761 739 788 726 741 748 746 728 732 770 777 797 710 746 807 762 729 771 737 707 690 714 735 787 745 733 755 691 774 720 760 730 745 717 714 724 774 751 775 776 776 730 745 704 793 758 739 707 733 765 757 707 731 744 722 714 746 718 743 736 745 717 761 702 786 715 746 743 791 759 755 729 670 736 703 765 721 715 746 695 756 735 726 674 743 759 703 729 800 758 760 771 713 706 742 780 722 662 766 773 726 730 727 726 734 730 729 801 744 701 689 752 730 753 730 750 754 711 781 749 702 704 760 723 723 685 721 778 763 739 762 704 705 716 736 725 731 756 750 712 756 766 713 714 780 753 715 768 820 748 687 706 754 739 761 732 744 748 745 750 729 794 740 766 724 683 744 746 701 723 759 758 736 751 714 738 756 727 683 701 728 714 717 709 760 707 711 742 730 711 745 702 757 724 740 784 741 737 718 733 740 728 736 763 740 714 718 748 721 711 697 738 716 766 702 712 739 761 739 699 696 726 697 732 792 747 753 753 745 780 754 746 764 687 717 722 680 738 738 746 693 694 691 710 770 739 746 747 712 707 761 754 715 722 767 750 733 764 777 782 754 714 771 749 827 821 762 777 740 809 813 803 735 757 815 742 753 808 773 787 822 799 775 835 831 774 766 806 788 800 792 798 817 819 846 806 831 786 785 846 809 881 802 829 800 820 807 808 840 837 834 803 840 844 793 792 836 822 808 799 745 809 797 782 839 814 820 811 769 825 810 854 794 830 876 920 833 896 843 874 928 920 937 887 988 978 1025 1083 1178 1172 1166 1221 1190 1204 1293 1308 1383 1332 1437 1446 1583 1603 1619 1787 1711 1628 1640 1751 1713 1715 1596 1710 1533 1610 1490 1411 1433 1428 1341 1358 1338 1358 1328 1195 1204 1216 1154 1151 1113 1074 958 1017 928 919 975 960 836 924 851 884 828 859 853 787 833 886 833 773 810 787 776 840 800 796 842 797 837 836 832 802 815 747 836 787 767 825 761 824 770 796 805 823 813 810 785 777 800 801 835 833 852 814 805 826 923 809 896 855 839 869 925 876 874 875 872 849 926 887 873 892 869 896 871 859 837 883 847 853 843 834 818 802 824 767 827 853 788 855 795 872 757 778 794 827 806 762 804 801 818 815 772 761 794 821 848 799 808 801 760 747 804 779 765 782 730 786 771 746 805 802 774 775 792 781 820 727 726 745 717 799 778 777 822 779 810 821 752 714 760 790 765 791 736 779 739 716 752 787 743 789 756 773 764 771 762 739 722 715 773 743 762 756 759 773 756 723 774 707 694 786 726 780 753 771 718 747 750 797 751 765 752 778 730 788 727 748 699 777 778 784 748 809 790 785 811 782 797 788 762 783 783 826 797 772 878 812 840 819 864 868 881 901 910 871 956 928 958 1018 1069 1043 1083 1120 1155 1163 1218 1276 1289 1385 1312 1476 1446 1559 1549 1696 1700 1801 1676 1790 1799 1854 1893 1894 1876 1841 1897 1789 1800 1802 1675 1734 1621 1613 1560 1432 1507 1447 1450 1374 1333 1271 1245 1224 1245 1124 1128 1113 1058 1024 1047 984 1012 936 911 935 894 910 870 874 869 900 927 822 897 823 878 886 884 812 881 818 897 886 859 838 852 845 791 852 857 852 894 884 839 886 897 842 862 812 833 813 820 854 850 846 817 820 879 852 805 810 803 792 756 784 855 846 834 808 821 845 820 816 857 852 810 814 812 819 808 801 820 815 872 794 804 748 806 720 784 712 825 815 751 766 868 782 810 760 735 787 807 727 742 740 790 766 824 702 814 788 739 774 779 769 807 792 810 790 821 829 771 791 811 862 826 853 839 835 812 811 863 804 804 848 858 848 835 807 827 807 830 846 794 791 778 803 855 805 890 854 830 819 871 908 830 881 911 886 828 882 928 895 965 911 954 960 881 934 940 1005 973 948 1032 958 923 971 997 949 967 928 949 867 964 954 943 929 940 855 935 858 862 826 830 840 879 794 763 812 769 818 736 799 788 785 792 784 756 752 791 779 756 750 683 746 708 758 687 738 710 723 720 723 695 705 750 688 730 688 698 682 739 761 724 721 715 731 700 723 719 745 721 710 714 760 699 710 733 734 683 749 682 666 755 731 705 732 761 733 730 681 693 710 702 694 757 750 712 694 696 690 711 701 694 713 738 697 703 694 702 727 718 712 750 712 760 678 753 695 731 709 731 708 738 734 756 754 752 780 739 722 721 761 781 797 773 802 790 789 731 741 743 771 802 710 765 783 737 795 765 763 742 722 798 794 762 815 798 802 769 757 766 694 755 743 709 720 732 733 698 720 771 642 705 677 723 727 740 702 729 713 734 704 670 716 652 722 750 689 703 772 709 728 691 730 698 723 725 680 717 662 676 667 692 717 724 696 707 684 684 690 693 639 692 695 782 684 723 672 720 705 721 666 705 670 679 660 670 671 701 703 698 682 689 667 667 710 661 681 664 680 694 684 701 731 648 710 733 707 692 689 730 718 647 693 678 697 729 643 695 623 738 686 695 703 711 706 674 691 691 692 690 701 691 663 725 654 672 674 722 674 708 687 692 671 695 712 669 711 691 678 735 688 726 631 694 741 676 724 717 662 675 668 714 701 697 665 704 699 700 708 710 697 713 656 704 714 681 700 654 676 689 694 667 712 705 658 666 689 685 708 678 733 672 718 697 699 670 698 679 676 669 656 676 657 654 668 669 661 646 678 702 661 708 676 725 647 655 701 689 682 671 687 673 627 682 689 706 702 695 716 696 682 697 707 615 697 659 662 698 648 677 684 649 673 679 660 753 645 658 676 718 697 706 666 657 671 644 718 716 714 654 658 650 681 698 676 717 692 615 677 688 634 619 679 678 663 675 696 674 663 719 730 668 680 701 629 634 656 708 697 688 639 635 660 671 705 650 702 667 658 642 657 651 674 660 651 691 688 646 670 659 672 695 655 693 640 732 693 708 701 743 667 666 685 713 670 680 685 663 691 660 677 702 683 660 662 738 675 710 770 747 733 696 724 668 700 715 705 773 700 769 771 713 778 718 768 776 799 752 836 778 767 791 761 771 782 818 797 795 798 836 835 758 785 816 779 749 735 783 799 812 755 756 757 763 795 747 749 716 745 756 756 776 780 749 758 720 742 719 725 710 714 708 721 709 679 715 668 719 693 704 727 698 689 694 702 653 727 753 722 683 708 679 696 689 668 695 718 739 728 724 737 684 716 681 672 697 698 708 710 738 721 726 676 701 714 657 710 670 744 725 724 676 657 750 732 683 709 697 676 705 729 694 693 704 669 734 663 733 686 683 649 718 697 689 704 722 709 700 662 742 665 635 719 668 693 677 647 678 643 670 722 694 679 644 671 679 663 730 676 692 665 684 654 679 655 667 655 661 659 668 656 689 700 673 710 641 632 671 688 673 644 652 667 678 688 635 673 683 676 670 686 676 706 663 680 677 657 652 679 675 738 689 639 724 699 655 658 661 677 701 637 651 627 717 680 640 720 735 651 668 705 677 682 658 659 685 702 674 611 663 624 696 627 663 632 699 665 696 695 687 648 643 686 650 702 689 703 696 682 712 623 623 668 711 700 664 745 684 708 758 708 720 706 691 707 702 668 705 678 682 694 723 661 702 653 670 701 685 696 731 721 692 647 703 708 727 711 728 690 674 735 716 704 741 706 694 745 745 743 784 736 735 753 746 756 770 749 761 788 868 843 801 901 880 846 893 893 915 957 1001 922 945 1020 941 989 1045 1022 985 1014 1026 1057 1037 1000 999 945 948 949 952 963 986 901 955 845 939 947 966 847 878 867 898 848 827 875 850 805 810 785 840 775 779 803 783 821 788 803 764 760 800 764 778 747 748 783 752 790 758 774 749 750 796 734 764 777 782 722 767 741 732 772 791 773 762 710 716 744 757 765 747 701 736 726 719 756 730 720 734 687 705 693 753 724 801 777 707 691 770 707 712 715 734 737 772 743 743 692 721 741 759 709 772 688 699 745 676 712 751 775 796 787 718 736 738 773 689 739 764 706 745 754 716 725 759 685 725 694 685 755 689 707 752 683 683 690 724 706 672 730 724 682 653 680 735 712 683 719 625 689 740 685 701 642 661 719 647 675 662 721 662 638 706 631 666 652 659 651 681 657 681 678 665 694 686 655 674 689 642 682 700 671 660 636 702 680 737 633 668 691 715 723 694 674 687 685 684 646 660 658 700 654 707 683 661 697 683 705 650 656 672 713 677 667 673 644 665 693 702 669 670 668 686 651 658 683 691 699 695 671 714 666 678 683 654 590 695 641 676 658 672 640 642 668 646 738 667 610 723 643 651 646 678 704 668 691 678 679 638 675 636 680 693 697 631 644 628 669 657 637 640 653 648 633 697 656 638 669 646 668 657 685 636 653 695 633 618 628 610 648 691 710 673 686 670 683 672 672 685 649 606 654 713 634 707 643 621 666 672 656 641 695 652 645 643 657 672 652 661 638 660 631 665 655 684 655 652 623 659 693 696 673 674 677 699 647 700 653 701 668 699 655 705 674 655 652 622 657 626 672 653 655 651 638 708 668 737 653 665 680 641 674 675 650 673 663 681 657 691 691 692 691 663 669 643 648 670 696 696 624 699 721 631 675 684 621 640 637 724 665 684 656 613 626 611 642 684 679 657 628 625 660 653 663 646 691 598 683 647 612 693 663 699 667 662 670 698 592 653 628 672 650 710 658 630 685 607 697 605 673 662 646 656 701 655 659 675 629 661 633 671 699 624 628 666 678 649 715 677 715 707 645 714 644 713 639 657 642 694 661 595 661 669 688 614 677 678 676 689 682 627 698 705 650 639 665 677 672 635 681 670 696 665 653 666 660 739 714 678 622 607 655 683 699 663 605 667 711 671 634 647 641 677 653 675 684 620 670 686 657 649 718 630 673 680 673 665 636 639 632 632 669 666 672 650 708 664 637 691 672 650 706 664 662 655 635 676 591 636 694 687 699 703 668 647 669 682 736 700 663 710 645 718 662 649 651 674 643 673 694 668 646 715 731 648 628 659 650 632 695 658 638 707 637 683 644 643 632 680 608 672 669 659 673 699 645 704 679 700 649 672 662 675 664 668 675 673 725 674 664 671 690 670 680 683 670 671 714 714 706 740 703 685 665 708 710 686 675 698 708 681 686 734 744 718 737 708 685 701 680 721 733 715 717 740 727 679 682 706 741 696 692 675 763 708 776 771 713 797 705 799 792 772 740 763 740 767 787 720 726 748 734 733 718 747 753 712 749 768 800 721 747 765 702 773 710 747 753 786 728 747 712 733 743 729 767 794 811 813 717 793 694 800 798 828 822 810 849 825 843 836 855 858 873 868 857 887 927 878 929 895 989 885 900 865 949 908 853 885 863 901 827 815 793 859 811 856 836 812 842 898 806 773 851 772 830 826 773 822 792 768 770 705 753 790 766 767 767 718 725 712 772 721 754 733 699 669 689 720 683 667 719 632 706 718 691 669 633 715 719 697 661 694 720 725 703 649 713 685 732 678 697 671 715 754 762 713 699 709 703 710 713 683 717 685 671 760 704 697 713 727 670 710 715 715 711 744 703 718 731 717 666 704 731 703 701 689 711 714 709 719 755 702 683 668 721 721 683 723 737 715 718 727 743 753 680 754 765 787 743 705 723 703 717 722 753 819 724 716 728 768 756 741 720 771 765 767 728 713 780 777 724 755 764 778 757 715 748 706 737 735 796 749 763 789 726 722 720 751 736 754 700 765 742 776 677 725 700 816 712 783 778 723 763 791 806 851 828 809 833 857 852 891 783 840 852 904 859 875 927 916 945 968 1023 955 1032 1134 1035 1074 1074 1102 1034 1107 1042 1120 1136 1146 1206 1256 1201 1262 1281 1299 1339 1348 1375 1447 1392 1418 1429 1469 1449 1469 1397 1450 1443 1330 1399 1385 1410 1316 1313 1233 1306 1252 1304 1251 1235 1208 1159 1202 1109 1190 1106 1165 1157 1077 1137 1075 1109 1065 1080 1044 973 963 961 969 922 993 889 891 877 823 839 822 868 805 866 901 812 798 818 763 833 834 796 802 792 790 799 808 767 784 805 803 767 836 730 812 767 746 758 800 791 799 756 757 765 770 826 764 806 830 769 766 787 739 780 716 756 801 743 735 825 740 758 786 761 749 791 730 762 793 760 781 761 761 717 744 751 775 799 747 782 743 791 742 742 779 733 793 781 767 774 809 784 776 722 753 804 841 770 784 813 810 787 794 861 800 856 810 819 856 906 898 842 837 847 922 838 883 873 881 866 915 884 858 883 865 901 922 854 848 868 856 883 882 922 934 864 893 907 883 850 828 818 822 879 803 824 796 804 810 889 830 781 777 779 788 845 813 757 779 812 795 776 775 775 753 755 694 741 747 713 789 740 736 758 777 771 732 747 703 726 687 690 672 725 699 710 681 714 671 728 699 665 745 708 693 695 677 734 760 689 702 660 697 723 704 679 687 680 681 738 738 663 716 686 699 726 654 717 695 667 695 671 710 698 664 736 683 679 672 727 667 700 716 690 687 720 704 668 688 738 691 676 648 696 723 659 656 728 706 680 653 713 727 715 711 678 703 740 695 697 713 748 731 741 639 713 660 712 714 685 667 677 731 688 690 690 761 672 728 705 738 726 694 723 736 694 710 664 699 679 673 703 727 713 697 660 673 719 715 712 676 752 700 710 680 740 749 708 720 709 674 720 716 694 687 770 661 701 652 640 708 703 702 654 661 679 652 667 692 669 656 720 672 682 647 704 703 666 632 651 740 668 605 649 635 686 635 654 643 675 730 683 687 647 694 683 676 697 657 693 687 693 699 661 667 679 716 740 627 659 665 639 670 716 652 688 634 662 735 627 716 716 665 711 680 618 690 666 686 675 652 618 684 663 629 691 689 694 680 642 672 645 672 688 641 694 654 709 704 643 683 688 703 665 682 696 621 638 678 655 624 701 700 638 641 679 706 701 693 691 671 644 663 612 717 636 671 696 675 708 671 617 687 641 688 679 683 668 685 646 667 654 707 661 651 634 674 671 685 648 654 681 664 679 667 643 644 646 658 654 713 668 662 651 720 671 698 665 697 674 631 666 666 701 646 655 610 701 687 656 695 662 671 653 686 666 680 663 683 664 662 672 704 684 639 693 654 657 641 641 697 684 627 734 648 663 705 707 655 665 646 657 664 702 644 693 677 726 662 649 656 661 639 645 627 657 643 687 665 722 698 690 686 720 674 673 699 631 662 654 699 649 664 667 623 669 691 713 649 670 652 686 711 730 722 689 659 704 674 696 684 665 701 686 742 680 674 731 675 695 705 699 776 734 727 724 697 706 757 744 730 712 698 750 785 737 743 670 750 761 761 740 715 764 782 773 795 745 765 757 775 793 756 721 723 700 763 702 754 712 682 672 761 722 715 717 708 684 711 711 710 722 735 754 736 744 720 688 729 734 657 739 694 671 698 674 680 749 705 691 711 638 727 709 654 752 685 743 699 672 666 646 695 633 692 720 716 659 692 693 677 663 688 685 702 700 723 691 676 715 704 689 742 669 726 706 711 720 646 664 683 706 681 654 686 687 744 740 671 668 665 672 643 692 633 674 642 702 706 719 646 694 710 682 686 663 675 684 650 665 683 666 666 638 676 725 732 709 716 760 688 728 715 657 647 675 701 686 660 642 682 653 659 695 681 664 681 691 686 675 690 727 715 636 668 674 689 652 684 690 653 691 653 641 652 709 630 709 728 677 694 660 644 665 731 711 680 691 751 688 701 680 662 687 686 692 706 631 729 715 669 667 718 691 697 717 707 684 712 674 669 700 637 721 684 709 735 733 739 706 720 694 695 681 683 655 752 738 717 739 709 754 745 773 728 734 798 725 771 789 765 738 741 779 696 855 761 759 710 810 764 772 717 758 811 789 698 753 768 769 816 797 836 812 864 882 810 814 902 870 884 879 929 892 874 919 965 836 984 968 993 991 1051 1029 1022 1021 1016 1132 1150 1116 1084 1146 1144 1180 1184 1145 1147 1138 1188 1137 1207 1169 1216 1108 1112 1108 1132 1096 1077 1051 1023 1098 1066 1046 1035 1146 1047 1047 1047 1085 1042 1075 1030 1028 994 1031 982 990 960 947 1004 957 929 922 885 847 895 868 872 854 774 834 836 856 858 849 810 777 791 835 756 839 737 836 760 820 796 761 798 729 796 739 776 772 787 752 753 720 706 743 722 779 737 762 790 723 737 700 758 717 788 749 702 734 718 717 740 766 727 782 729 722 774 716 735 747 709 733 725 702 702 757 762 719 752 733 756 694 746 688 704 711 771 757 707 748 758 763 746 771 760 741 726 755 733 743 755 742 805 721 751 728 759 747 711 694 753 734 730 755 760 702 766 798 770 763 712 666 772 752 723 774 790 757 729 777 737 713 732 758 813 801 738 733 722 755 720 754 745 730 722 754 793 725 786 750 754 727 735 729 753 742 716 732 696 736 719 714 735 713 737 729 725 724 709 704 707 683 766 708 673 712 734 654 699 695 737 734 728 710 719 660 749 701 723 739 707 727 770 702 702 724 696 731 757 730 716 690 718 740 757 696 744 696 708 718 700 721 746 705 726 742 723 715 660 724 740 772 677 728 699 697 704 738 677 765 705 733 695 719 676 725 722 737 668 733 722 715 740 696 697 745 699 681 715 696 744 690 647 741 718 721 709 655 666 688 733 672 715 650 665 695 731 710 713 679 706 673 705 690 663 700 721 722 673 737 713 720 666 712 675 713 694 679 737 702 713 677 676 696 643 666 692 635 733 629 653 674 695 723 680 674 640 668 665 656 608 680 620 688 680 679 669 649 650 688 687 691 662 639 658 666 719 680 689 697 640 693 685 701 642 652 700 684 712 674 725 671 653 652 627 671 677 676 634 627 615 699 661 644 689 674 698 717 656 638 637 652 702 670 621 689 681 690 650 657 665 637 670 632 642 707 668 686 697 655 689 640 666 649 685 670 680 667 628 673 700 627 637 656 688 714 689 686 645 662 671 690 636 640 646 642 681 660 692 689 643 629 724 646 715 692 713 704 668 669 669 624 625 645 696 676 698 655 648 652 650 659 668 665 653 664 638 617 637 677 644 702 678 678 676 707 643 684 671 636 650 679 688 654 638 694 657 649 653 691 694 663 611 645 729 667 647 652 702 682 652 650 661 664 656 680 638 650 682 646 677 670 685 655 638 696 747 684 650 680 692 696 633 684 673 672 695 649 635 645 671 670 654 673 671 680 659 658 694 638 734 687 706 713 682 661 675 666 708 692 625 673 687 637 713 702 721 690 675 680 656 626 665 645 639 667 674 654 714 665 655 666 661 622 713 661 645 636 665 646 719 646 657 668 649 672 673 674 739 676 683 702 708 688 721 703 737 694 717 703 680 685 666 739 711 756 735 737 724 706 703 738 722 740 708 771 696 727 731 745 718 767 807 736 762 811 748 752 773 777 763 768 769 798 807 735 810 784 805 802 793 792 749 787 750 791 796 730 771 725 777 741 788 722 725 740 748 781 769 783 807 779 782 775 793 822 806</counts>
			</dataPoints>
		</scan>
	</xrdMeasurement>
</xrdMeasurements>
