<?xml version="1.0"?>
<xrdMeasurements xmlns="http://www.xrdml.com/XRDMeasurement/2.3" xmlns:xsi="http://www.w3.org/2001/XMLSchema-instance" xsi:schemaLocation="http://www.xrdml.com/XRDMeasurement/2.3 http://www.xrdml.com/XRDMeasurement/2.3/XRDMeasurement.xsd" status="Completed" recordIdentifier="{A04AA15C-7893-4C31-B1D6-F56113DD62E9}">
	<comment>
		<entry/>
	</comment>
	<sample type="To be analyzed">
		<id>GPSS_Li1p2Mn0p1V0p1Mg0p3Fe0p1In0p5Cl4_122625_694e531dae15af25ac374618</id>
		<name></name>
		<preparedBy></preparedBy>
	</sample>
	<xrdMeasurement measurementType="Scan" status="Completed" sampleMode="Reflection">
		<usedWavelength intended="K-Alpha 1">
			<kAlpha1 unit="Angstrom">1.5405980</kAlpha1>
			<kAlpha2 unit="Angstrom">1.5444260</kAlpha2>
			<kBeta unit="Angstrom">1.3922500</kBeta>
			<ratioKAlpha2KAlpha1>0.5000</ratioKAlpha2KAlpha1>
		</usedWavelength>
		<incidentBeamPath>
			<radius unit="mm">145.00</radius>
			<xRayTube id="1010048" name="Empyrean Cu LFF HR (9430 033 7310x)">
				<tension unit="kV">40.0</tension>
				<current unit="mA">15.0</current>
				<anodeMaterial>Cu</anodeMaterial>
				<focus type="Line">
					<length unit="mm">12.0</length>
					<width unit="mm">0.4</width>
					<takeOffAngle unit="deg">6.0</takeOffAngle>
				</focus>
			</xRayTube>
			<sollerSlit id="21010002" name="Soller slits 0.04 rad.">
				<opening unit="rad">0.0400</opening>
			</sollerSlit>
			<mask id="22031000" name="Fixed mask 13 mm">
				<width unit="mm">9.00</width>
			</mask>
			<divergenceSlit id="22120001" name="Divergence slit 1°" xsi:type="fixedDivergenceSlitType">
				<distanceToSample unit="mm">50.00</distanceToSample>
				<height unit="mm">1.52</height>
			</divergenceSlit>
		</incidentBeamPath>
		<sampleMovement xsi:type="spinningSampleMovementType">
			<spinnerRevolutionTime unit="seconds">1.0</spinnerRevolutionTime>
		</sampleMovement>
		<diffractedBeamPath>
			<radius unit="mm">145.00</radius>
			<antiScatterSlit id="22090040" name="AS slit 9 mm (PIXcel)" xsi:type="fixedAntiScatterSlitType">
				<height unit="mm">9.00</height>
			</antiScatterSlit>
			<sollerSlit id="21020003" name="Large Soller slits 0.04 rad.">
				<opening unit="rad">0.0400</opening>
			</sollerSlit>
			<filter id="20030001" name="Large beta-filter Nickel">
				<material>Ni</material>
				<thickness unit="mm">0.020</thickness>
			</filter>
			<detector id="7010019" name="PIXcel1D-Medipix3 detector" xsi:type="rtmsDetectorType">
				<phd unit="keV">
					<lowerLevel>4.02</lowerLevel>
					<upperLevel>11.27</upperLevel>
				</phd>
				<mode>Scanning</mode>
				<activeLength unit="deg">5.542</activeLength>
			</detector>
		</diffractedBeamPath>
		<scan appendNumber="0" mode="Continuous" scanAxis="Gonio" status="Completed">
			<header>
				<startTimeStamp>2025-12-27T13:21:46-08:00</startTimeStamp>
				<endTimeStamp>2025-12-27T13:29:53-08:00</endTimeStamp>
				<author>
					<name>AutomatedUser</name>
				</author>
				<source>
					<applicationSoftware version="1.7b (136)">PANalytical Aeris Instrument Suite</applicationSoftware>
					<instrumentControlSoftware version="3.2.00000000 20240306">AERIS</instrumentControlSoftware>
					<instrumentID>950485</instrumentID>
				</source>
			</header>
			<dataPoints>
				<positions axis="2Theta" unit="deg">
					<startPosition>10.00943322</startPosition>
					<endPosition>99.99442286</endPosition>
				</positions>
				<positions axis="Omega" unit="deg">
					<startPosition>5.00471661</startPosition>
					<endPosition>49.99721143</endPosition>
				</positions>
				<commonCountingTime unit="seconds">12.495</commonCountingTime>
				<counts unit="counts">3241 3280 3262 3326 3356 3234 3285 3307 3276 3326 3282 3313 3328 3333 3369 3284 3309 3299 3265 3396 3330 3289 3289 3264 3269 3370 3266 3340 3369 3470 3406 3422 3335 3346 3447 3381 3406 3438 3359 3448 3393 3464 3348 3429 3338 3397 3409 3476 3401 3266 3429 3492 3458 3431 3525 3460 3498 3437 3409 3529 3409 3454 3378 3392 3408 3554 3656 3448 3524 3453 3499 3501 3433 3606 3540 3518 3616 3533 3501 3644 3529 3485 3598 3657 3572 3657 3649 3687 3586 3734 3543 3594 3505 3583 3710 3639 3675 3673 3677 3732 3793 3687 3730 3595 3698 3791 3766 3721 3611 3724 3836 3733 3864 3673 3674 3772 3851 3785 3668 3802 3849 3767 3875 3788 3954 3791 3830 3744 3786 3698 3897 3872 3854 3878 3825 3785 3909 3722 3848 3840 3919 3771 3753 3826 3798 3873 3836 3733 3897 3715 3801 3744 3883 3973 3935 3881 3871 3847 3842 3850 3837 3864 3825 3993 3929 3834 3680 3912 3898 3903 3801 3839 3713 3806 3874 3812 3770 3862 3791 3799 3871 3915 3841 3790 3833 3845 3868 3790 3900 3827 3821 3834 3772 3845 3769 3813 3868 3754 3733 3844 3699 3896 3773 3746 3862 3813 3719 3805 3698 3760 3760 3755 3683 3870 3732 3696 3738 3744 3685 3723 3746 3776 3712 3802 3693 3642 3698 3756 3710 3775 3691 3565 3630 3634 3725 3670 3814 3636 3634 3688 3657 3635 3703 3646 3648 3683 3650 3644 3746 3637 3620 3606 3633 3703 3539 3628 3637 3640 3667 3627 3568 3590 3680 3615 3611 3701 3605 3644 3453 3530 3601 3713 3618 3617 3578 3544 3474 3587 3501 3617 3499 3570 3608 3471 3565 3572 3509 3596 3596 3656 3595 3440 3458 3552 3580 3554 3570 3525 3603 3569 3720 3529 3551 3520 3595 3554 3706 3596 3595 3591 3539 3694 3470 3576 3524 3626 3519 3604 3564 3603 3696 3648 3687 3638 3611 3575 3659 3651 3672 3682 3464 3777 3622 3624 3641 3717 3611 3608 3554 3640 3704 3646 3686 3837 3569 3621 3611 3648 3631 3728 3715 3750 3743 3769 3613 3649 3808 3863 3744 3735 3668 3730 3700 3716 3630 3686 3822 3668 3870 3715 3740 3781 3770 3757 3707 3799 3867 3735 3886 3691 3805 3749 3748 3706 3832 3836 3786 3959 3808 3769 3832 3832 3817 3839 3839 3825 3778 3836 3738 3928 3747 3835 3808 3766 3851 3959 3840 3832 3936 3923 3899 3909 3933 3950 3886 3919 3941 3937 3848 3911 4070 3958 4117 4047 4142 4072 4079 4060 4071 4143 4100 4186 4216 4151 4123 4351 4244 4355 4284 4328 4249 4366 4413 4294 4351 4429 4502 4452 4588 4552 4538 4598 4836 4690 4677 4721 4659 4608 4728 4678 4808 4566 4595 4485 4434 4216 4196 4157 4176 4066 4097 4048 3933 3887 3917 3938 3828 3751 3890 3924 3908 3975 3835 3959 3800 3789 3946 3831 3863 3823 3981 3853 4043 3925 4032 3902 4024 3919 4035 4172 4203 4147 4234 4190 4293 4255 4340 4203 4302 4329 4367 4265 4055 4030 3985 3925 3785 3777 3717 3610 3681 3532 3551 3508 3475 3436 3381 3464 3492 3421 3409 3366 3446 3476 3366 3375 3266 3418 3441 3351 3372 3318 3372 3295 3386 3352 3267 3212 3235 3263 3295 3375 3354 3280 3339 3323 3198 3297 3378 3226 3300 3276 3299 3310 3177 3248 3192 3263 3132 3161 3169 3278 3214 3167 3203 3223 3192 3090 3174 3291 3025 3178 3105 3268 3160 3172 3194 3217 3255 3111 3100 3059 3170 3342 3183 3189 3098 3124 3085 3091 3048 3096 3158 3010 3060 3164 3033 3168 3065 3163 3121 3017 3082 3074 3057 3015 3142 3040 3100 3051 3187 3070 3140 2997 3044 3077 3005 2988 3024 3002 2998 3048 2950 2951 2919 2973 3125 2974 3073 3024 2966 2955 2955 3038 2938 3008 3134 3128 2986 3026 3032 2915 3043 2973 3047 2980 2854 2969 2971 2974 2934 2959 2952 2939 2962 3009 2886 2918 2956 3042 2892 2988 2831 2976 3022 2980 2933 2883 2937 2928 2920 2943 2911 2941 2914 2936 2971 2919 2875 2974 2899 2858 3024 2934 2901 2847 2912 2961 3014 2916 2995 2873 2943 2795 2896 2972 2875 3003 2879 2885 2929 2909 2914 2910 2987 2837 2893 2959 2902 2970 2841 2854 2905 2951 2877 2909 2844 2908 2902 2754 2855 2815 2899 2865 2860 2830 2852 2935 2908 2768 2765 2836 2871 2799 2762 2821 2870 2817 2779 2748 2820 2929 2810 2955 2705 2813 2788 2844 2786 2766 2811 2812 2751 2845 2833 2819 2865 2874 2864 2686 2850 2786 2726 2826 2841 2811 2759 2884 2786 2809 2822 2762 2828 2849 2773 2768 2857 2762 2771 2754 2910 2823 2778 2666 2790 2789 2782 2790 2810 2658 2783 2714 2774 2765 2783 2675 2737 2789 2721 2837 2684 2749 2811 2760 2716 2742 2659 2671 2753 2720 2715 2662 2679 2723 2745 2608 2706 2687 2623 2684 2779 2696 2689 2737 2736 2735 2709 2696 2661 2592 2666 2699 2696 2593 2735 2701 2675 2655 2670 2697 2629 2642 2634 2600 2635 2648 2692 2650 2638 2641 2622 2605 2699 2651 2616 2603 2553 2707 2607 2685 2715 2809 2590 2659 2628 2569 2636 2649 2679 2616 2555 2685 2630 2601 2648 2622 2597 2597 2608 2682 2536 2631 2482 2538 2587 2592 2606 2564 2485 2599 2504 2484 2526 2570 2640 2738 2533 2538 2561 2568 2521 2558 2510 2514 2511 2567 2516 2437 2542 2580 2518 2501 2430 2579 2522 2593 2520 2508 2610 2486 2527 2542 2427 2549 2597 2564 2532 2498 2522 2535 2631 2499 2517 2530 2474 2497 2555 2440 2340 2496 2438 2490 2424 2473 2561 2542 2471 2504 2464 2470 2450 2475 2500 2408 2471 2447 2425 2430 2517 2350 2454 2452 2517 2345 2461 2476 2470 2390 2400 2455 2474 2439 2575 2483 2433 2441 2498 2521 2436 2414 2432 2415 2514 2337 2406 2393 2496 2474 2482 2448 2449 2463 2451 2396 2434 2410 2545 2454 2402 2448 2446 2502 2389 2323 2386 2471 2484 2509 2503 2431 2456 2398 2428 2467 2422 2485 2406 2456 2401 2484 2493 2397 2519 2463 2473 2436 2561 2496 2508 2413 2411 2499 2424 2392 2412 2444 2434 2485 2410 2477 2437 2375 2452 2503 2429 2479 2451 2483 2367 2299 2432 2415 2478 2443 2473 2370 2462 2423 2408 2446 2465 2424 2461 2395 2378 2530 2319 2468 2413 2338 2502 2515 2411 2345 2406 2479 2354 2450 2359 2426 2353 2365 2390 2391 2491 2419 2498 2364 2441 2388 2400 2451 2346 2409 2461 2321 2430 2385 2381 2483 2444 2319 2389 2403 2344 2320 2351 2379 2350 2274 2323 2367 2373 2278 2355 2292 2357 2309 2337 2303 2392 2366 2334 2398 2265 2193 2291 2322 2350 2295 2282 2293 2270 2271 2251 2236 2208 2320 2315 2225 2270 2285 2267 2279 2295 2248 2240 2205 2293 2219 2154 2229 2147 2310 2301 2230 2202 2183 2234 2199 2161 2164 2085 2244 2253 2196 2237 2133 2134 2123 2107 2134 2146 2098 2163 2258 2168 2257 2227 2161 2161 2047 2126 2169 2083 2140 2049 2180 2091 2037 2129 2069 2040 2089 2029 2091 2073 2097 2081 2106 2027 2114 2082 2068 2016 1979 2031 2044 2146 2052 2014 1971 2079 2105 1979 2055 1991 2056 1917 1920 1947 2016 1963 2025 1921 1991 1900 1914 1955 1930 1917 1879 1849 1974 1990 1960 1855 1937 1839 1817 1900 1898 1931 1916 1826 1981 1850 1825 1903 1860 1894 1942 1912 1900 1892 1824 1823 1845 1924 1899 1879 1868 1868 1873 1817 1906 1819 1855 1821 1836 1836 1901 1800 1896 1829 1769 1849 1856 1836 1878 1843 1782 1857 1840 1778 1725 1767 1815 1738 1840 1767 1886 1747 1741 1771 1757 1792 1806 1823 1688 1825 1763 1832 1755 1781 1778 1701 1751 1783 1853 1767 1824 1764 1797 1751 1813 1784 1725 1759 1778 1742 1680 1737 1759 1704 1717 1663 1823 1716 1702 1713 1703 1743 1841 1764 1742 1686 1677 1771 1756 1697 1690 1771 1684 1759 1714 1737 1719 1752 1667 1661 1722 1707 1694 1741 1676 1716 1799 1725 1741 1752 1678 1688 1687 1811 1754 1617 1721 1814 1682 1727 1713 1617 1743 1704 1692 1728 1724 1712 1623 1754 1708 1759 1681 1622 1767 1678 1682 1667 1728 1799 1717 1729 1705 1720 1781 1695 1633 1774 1676 1662 1740 1615 1759 1725 1679 1694 1781 1707 1654 1698 1765 1694 1698 1692 1630 1744 1632 1783 1716 1664 1771 1683 1754 1656 1632 1674 1709 1739 1734 1716 1786 1774 1716 1730 1715 1745 1769 1709 1673 1749 1659 1698 1717 1779 1768 1759 1675 1730 1747 1747 1744 1717 1739 1687 1725 1754 1715 1722 1757 1790 1793 1691 1745 1723 1736 1712 1676 1741 1795 1743 1701 1675 1704 1787 1715 1728 1695 1710 1699 1721 1656 1655 1770 1663 1769 1670 1758 1795 1746 1718 1727 1751 1681 1698 1687 1718 1756 1708 1652 1706 1693 1679 1701 1722 1712 1620 1677 1677 1665 1670 1670 1647 1630 1647 1674 1691 1618 1698 1643 1587 1661 1532 1618 1679 1709 1656 1542 1640 1538 1590 1687 1577 1632 1616 1603 1629 1520 1634 1622 1594 1539 1579 1520 1575 1549 1601 1619 1632 1531 1567 1591 1569 1669 1524 1562 1521 1613 1472 1594 1581 1597 1566 1513 1502 1530 1535 1602 1525 1524 1541 1493 1540 1553 1488 1487 1511 1520 1508 1527 1438 1578 1469 1491 1399 1518 1500 1488 1463 1441 1503 1493 1506 1529 1421 1419 1387 1452 1488 1503 1476 1419 1484 1399 1474 1426 1401 1378 1537 1395 1462 1409 1430 1470 1425 1465 1410 1442 1423 1459 1420 1411 1468 1428 1316 1304 1424 1358 1440 1356 1398 1471 1327 1357 1407 1364 1447 1333 1392 1369 1354 1410 1381 1337 1408 1339 1367 1335 1397 1343 1369 1351 1331 1322 1342 1375 1368 1351 1303 1352 1422 1379 1357 1379 1362 1406 1420 1404 1474 1415 1401 1471 1440 1433 1482 1419 1594 1470 1516 1541 1493 1496 1475 1546 1515 1502 1473 1493 1511 1545 1582 1653 1575 1662 1598 1596 1590 1601 1581 1625 1577 1695 1688 1594 1702 1587 1589 1625 1559 1524 1476 1512 1454 1446 1469 1475 1465 1418 1314 1341 1309 1340 1398 1319 1268 1328 1339 1324 1297 1235 1301 1288 1262 1330 1297 1215 1296 1240 1306 1314 1316 1242 1266 1284 1240 1266 1241 1277 1171 1242 1211 1258 1265 1236 1224 1209 1266 1222 1238 1247 1277 1150 1152 1218 1241 1269 1214 1296 1283 1183 1231 1231 1296 1281 1336 1353 1370 1315 1326 1349 1373 1439 1441 1509 1532 1585 1662 1642 1728 1798 1834 1814 1936 1929 1957 1988 1936 2036 2050 1979 2051 2135 2144 2081 2111 2190 2202 2220 2256 2506 2416 2527 2643 2707 2781 2812 2974 3002 3105 3215 3215 3249 3178 3172 3091 3155 3179 3156 2955 2963 2630 2550 2538 2338 2165 2153 2153 1995 1968 1775 1824 1842 1702 1657 1648 1685 1631 1627 1506 1519 1492 1410 1412 1380 1435 1353 1308 1253 1257 1214 1200 1190 1116 1226 1201 1253 1192 1194 1177 1190 1198 1150 1187 1112 1132 1115 1159 1161 1125 1136 1105 1138 1114 1115 1136 1083 1055 1123 1097 1107 1116 1082 1087 1098 1104 1063 1100 1107 1076 1151 1164 1064 1095 1058 1097 1091 1155 1113 1141 1055 1102 1099 1139 1132 1109 1158 1070 1060 1040 1090 1085 1046 1006 1075 1120 1094 1112 1096 1041 1095 1150 1130 1127 1099 1110 1084 1108 1133 1054 1041 1034 1043 1108 1083 1032 1023 1105 1049 1085 1088 1056 1051 973 1088 1063 1056 1061 1047 1083 1024 998 1050 1013 1048 1016 1089 1068 1060 1008 1052 1070 1044 1002 1043 1045 1049 1040 1103 988 1076 1032 1007 1055 1011 1046 1071 986 1062 1010 998 1002 970 1031 1003 1016 989 945 1005 987 1021 1039 998 999 1058 1035 1013 992 982 976 1022 1034 972 1041 996 993 1030 967 989 1005 1018 1009 1016 1011 980 1009 1025 962 1043 1059 1020 1037 1023 948 1011 1008 1044 992 1016 1028 981 1015 1063 1015 975 980 994 988 1025 1014 999 1046 986 1033 1041 965 999 1055 1017 980 1012 1027 1025 993 983 990 1043 951 1028 1030 1001 965 1018 1042 1049 1067 1033 1036 984 1112 1052 1036 1002 1060 1031 1017 1070 1008 1018 1056 1024 1047 1027 1055 1069 1046 1030 1085 1062 1033 1050 1083 1034 1068 1009 1141 1027 1030 1050 981 980 1038 1034 1017 1017 995 982 988 1026 944 1006 1025 994 1013 1043 1077 1069 980 1013 1000 1008 957 991 1002 1010 951 954 941 976 1026 944 963 981 1006 967 1003 956 1002 958 997 957 1048 975 999 959 1037 997 933 963 931 991 977 997 974 932 1005 962 995 968 924 969 1037 1032 1056 1010 946 978 945 918 954 999 982 1002 1003 988 936 915 991 997 1004 961 1006 1010 988 968 1013 1000 983 1032 1023 929 1065 1069 1012 1023 1038 983 1020 1056 1093 1040 1093 1124 1165 1180 1230 1245 1442 1352 1474 1502 1667 1704 1834 1918 1953 2058 2026 2138 2080 2251 2368 2439 2363 2469 2533 2591 2650 2677 2786 2909 2976 3196 3134 3355 3259 3572 3580 3630 3722 3844 3820 3935 3881 4096 3936 4088 3942 3799 3711 3427 3338 3032 2910 2887 2695 2557 2476 2263 2165 1917 1842 1719 1617 1612 1615 1468 1517 1342 1405 1341 1270 1259 1276 1157 1192 1152 1184 1211 1125 1118 1109 1032 1060 1046 978 1068 1021 1062 1050 1009 1041 1040 972 983 1047 1024 968 963 1040 974 1012 955 1038 986 977 1014 985 982 989 956 996 977 969 901 957 1010 949 908 970 984 944 982 969 945 1005 958 983 983 978 918 959 896 963 981 917 1030 1004 1038 1049 992 952 973 988 1007 928 949 963 920 938 909 954 924 931 875 983 906 976 930 952 983 968 1027 983 941 989 993 1001 1047 1057 1085 1066 1087 1128 1079 1160 1132 1135 1144 1180 1126 1191 1169 1199 1212 1199 1175 1225 1270 1230 1262 1243 1231 1300 1271 1225 1348 1304 1341 1410 1285 1381 1373 1323 1312 1401 1388 1327 1265 1300 1333 1249 1217 1176 1116 1177 1163 1064 1137 1050 1063 1089 984 972 1002 955 920 933 1009 932 964 924 936 893 878 893 895 858 925 934 938 889 954 945 937 939 902 919 923 904 904 885 877 872 882 873 852 907 894 866 857 879 882 881 900 879 842 937 881 816 858 886 919 882 840 873 816 945 867 861 885 845 888 848 882 889 896 843 903 927 895 899 895 847 863 906 858 892 842 863 858 895 885 918 889 830 873 838 834 926 838 837 856 859 839 888 905 864 853 847 829 922 888 899 873 847 862 847 876 815 838 835 902 849 870 913 909 919 921 888 903 884 892 882 859 856 863 864 878 826 852 895 861 875 925 862 918 885 951 889 936 791 860 860 875 852 840 879 807 894 891 871 856 898 800 901 810 806 902 810 845 848 875 812 791 868 843 840 853 871 810 893 874 838 857 903 861 830 826 753 837 774 819 835 846 798 844 844 801 821 802 830 776 856 833 855 816 805 794 817 807 798 835 810 811 841 842 868 797 869 803 782 825 801 828 844 823 821 793 864 823 812 837 830 799 804 840 788 802 861 820 880 873 833 829 795 799 858 804 835 862 851 825 897 829 822 777 844 809 820 803 812 797 829 761 847 836 836 844 836 819 835 829 794 773 776 859 823 842 799 817 890 923 784 834 811 828 830 812 812 878 802 889 828 840 824 849 856 846 837 801 787 889 796 842 799 850 887 862 862 784 842 789 780 830 857 767 755 812 841 767 818 848 782 801 784 821 804 783 802 829 797 772 839 800 743 817 811 790 834 809 791 808 809 785 772 852 802 839 793 842 773 810 768 729 819 792 785 807 780 774 800 809 801 839 831 795 759 795 753 798 757 780 788 760 800 818 760 818 771 796 811 769 860 815 771 787 821 781 801 831 804 812 777 805 766 818 815 817 793 826 712 810 815 790 764 836 837 843 815 793 807 806 762 784 762 815 776 789 803 739 770 825 772 766 765 803 806 830 818 756 809 845 743 805 800 769 862 770 836 801 796 817 732 796 839 756 790 796 780 765 801 818 747 829 795 751 818 758 819 831 809 744 819 779 773 782 709 826 728 791 793 798 832 748 794 796 821 787 785 790 805 778 735 766 804 847 804 739 812 785 745 753 758 792 714 772 752 771 828 802 819 785 817 759 754 735 767 794 818 789 849 776 793 832 836 808 843 762 771 720 782 862 779 764 752 771 833 776 798 813 793 782 800 782 799 732 767 791 751 758 785 813 786 816 828 812 802 798 797 791 816 818 802 766 814 778 755 763 809 832 832 794 814 769 820 711 809 769 785 796 759 760 740 779 786 774 791 774 828 763 769 792 789 751 749 826 820 853 779 774 767 835 814 795 799 765 809 802 787 760 776 777 782 781 786 785 749 763 769 759 820 767 774 733 781 816 834 773 757 733 758 824 808 815 783 805 776 823 816 764 719 773 843 771 785 759 812 777 782 776 783 737 756 772 708 775 714 771 774 777 748 779 785 808 779 750 767 843 778 784 780 790 788 804 814 768 750 781 792 782 799 743 831 766 787 771 759 788 781 767 817 832 824 778 788 791 775 777 739 814 773 825 732 780 736 773 771 792 790 837 752 761 754 788 776 810 764 799 812 807 840 731 778 764 788 813 771 827 794 777 788 850 760 748 758 806 812 801 753 770 752 818 833 848 841 830 809 804 851 806 832 849 822 846 828 862 821 761 762 827 858 802 838 799 834 819 886 851 789 801 838 875 815 828 799 812 901 833 855 777 843 827 810 787 841 800 816 819 820 824 828 824 815 836 781 866 779 834 839 823 812 866 789 885 901 891 882 909 911 962 935 965 935 919 962 933 970 1016 997 1043 1021 1028 1022 998 1107 1074 1082 1099 1063 1110 1126 1139 1086 1094 1116 1142 1092 1063 1056 1090 1087 1082 1037 1031 1080 985 1023 1007 1013 961 916 883 915 926 912 847 850 830 877 870 891 844 848 826 832 864 861 782 824 842 779 848 826 813 815 824 776 833 799 757 807 806 819 824 793 747 798 758 753 830 844 745 751 767 749 726 784 779 752 810 752 764 744 790 733 834 805 785 813 698 775 769 793 777 737 744 737 782 763 748 744 725 763 744 802 757 739 758 776 741 740 771 821 782 770 776 754 748 790 747 814 742 714 744 747 726 740 782 741 733 719 767 711 703 772 757 748 757 747 716 761 765 755 766 772 765 744 750 767 800 747 715 795 779 740 770 784 794 721 785 729 775 728 745 772 734 812 742 835 764 758 803 766 805 766 814 781 861 783 735 760 787 803 770 795 837 739 744 764 845 850 785 769 784 824 789 822 785 847 839 784 801 854 794 866 756 833 768 823 792 797 842 828 809 823 823 854 792 844 810 813 793 800 781 768 812 804 794 776 760 779 768 768 788 725 812 783 752 760 795 773 758 796 759 737 774 806 789 762 768 733 785 729 740 754 797 825 748 753 745 755 773 757 731 761 779 696 728 769 790 813 745 722 742 773 743 736 810 745 738 762 731 747 774 755 767 782 768 754 779 752 762 848 766 792 750 760 785 801 778 776 756 667 722 695 745 789 715 741 731 798 792 779 765 757 790 776 768 807 727 797 766 805 738 766 741 761 764 821 756 764 771 809 814 804 743 791 774 742 815 784 795 738 786 741 796 762 765 823 781 773 800 810 752 773 757 823 793 829 812 833 800 832 850 865 903 872 892 947 995 988 1111 1167 1186 1259 1231 1343 1402 1528 1472 1539 1599 1613 1663 1626 1803 1730 1872 1882 1937 2120 2178 2158 2248 2272 2364 2373 2458 2478 2583 2624 2830 2752 2899 2871 2870 2945 2770 2630 2634 2622 2554 2499 2413 2342 2270 2176 2094 2172 2071 2042 1889 1848 1692 1678 1593 1510 1410 1399 1387 1278 1248 1358 1288 1288 1217 1167 1213 1173 1122 1073 1066 1045 1044 1063 1032 944 877 986 905 940 889 918 898 897 906 863 854 798 833 907 876 876 849 840 807 866 867 834 788 782 777 770 829 783 828 787 798 779 806 843 760 758 794 793 839 846 805 794 823 773 743 786 740 845 748 761 768 776 805 765 820 743 766 702 803 811 797 767 769 831 728 784 762 743 774 773 776 766 766 704 705 776 746 774 736 745 734 731 753 739 737 725 731 728 734 725 727 755 753 700 756 734 701 725 703 779 713 751 729 778 716 758 741 836 765 710 726 787 763 768 704 780 726 735 752 781 770 735 747 768 749 753 720 744 737 762 729 746 777 732 787 776 802 760 708 788 778 826 827 795 827 817 822 829 877 883 883 852 839 911 909 1010 920 1020 944 954 970 923 974 1003 1051 989 1071 1009 1011 1077 999 1037 1006 1019 1074 1067 1076 1055 1055 1006 1017 1061 1058 1061 1051 1049 1024 1063 1026 1018 1015 998 994 988 1028 1008 1021 1021 1066 1010 996 1000 986 1076 984 1068 1084 1058 1117 1080 1114 1061 1092 1103 1053 1070 1133 1044 1067 1020 1027 1030 907 1020 990 967 972 1008 1019 983 924 898 909 923 916 923 869 861 846 840 861 811 769 846 781 822 778 730 786 761 714 716 769 813 767 741 732 707 729 705 721 735 719 712 766 721 725 714 709 764 712 746 744 732 725 727 747 728 634 744 687 712 733 734 695 713 711 711 766 680 734 716 703 690 735 738 742 677 725 708 718 666 722 735 673 664 678 654 749 737 741 664 709 692 726 718 752 728 676 726 691 732 717 714 746 685 685 729 711 713 730 756 683 678 709 732 734 692 733 732 703 726 695 704 714 684 727 728 667 683 678 709 733 662 745 725 697 685 742 675 692 728 723 670 691 668 739 750 708 667 711 700 720 704 684 704 693 741 716 726 713 704 721 701 674 692 700 753 689 704 675 754 709 740 678 674 706 757 682 745 725 705 698 761 736 715 672 673 700 705 730 689 719 657 681 722 686 702 734 709 686 693 689 752 769 716 777 697 728 747 755 823 730 777 741 742 827 787 799 801 779 784 838 849 849 796 791 795 825 774 780 747 783 833 795 823 821 791 754 802 789 768 756 767 718 788 743 752 739 746 752 712 724 698 725 710 731 736 654 722 744 726 657 728 700 659 735 674 696 674 671 709 687 672 700 673 673 660 678 678 698 685 684 713 644 617 686 697 635 676 715 685 702 649 706 692 636 712 724 728 637 665 685 652 691 681 661 687 732 724 680 713 719 685 731 692 689 677 709 664 664 708 690 642 715 691 671 739 677 687 645 717 640 692 700 691 727 705 671 739 700 708 673 713 631 702 654 694 709 698 686 689 678 698 697 672 662 706 684 679 749 733 722 650 719 670 675 695 693 685 678 654 645 730 750 729 696 680 657 756 671 637 677 659 653 761 655 680 689 680 668 657 676 685 668 721 671 657 664 639 691 678 635 652 657 728 712 716 672 653 687 685 691 696 683 671 652 696 647 659 703 709 689 714 715 729 676 682 679 679 673 665 675 682 689 698 696 668 658 691 684 651 704 699 660 710 683 679 652 648 654 724 690 679 712 633 719 692 699 665 686 686 676 699 645 658 719 664 630 647 664 712 677 645 686 735 672 685 697 715 639 640 675 682 642 697 640 687 671 684 711 725 702 671 673 722 694 683 667 683 651 683 705 694 704 639 704 675 689 675 685 701 749 678 741 685 724 762 701 711 780 758 743 714 676 726 706 679 652 713 705 665 703 719 769 726 710 688 650 679 720 697 679 671 690 680 696 686 762 706 662 719 689 670 734 767 737 711 825 799 729 770 846 851 844 842 855 857 877 889 847 908 872 907 880 908 964 919 997 953 988 938 946 958 1088 962 1042 1023 1059 1050 1061 1025 991 992 1015 996 938 950 927 945 969 874 936 908 882 883 904 836 825 890 904 758 792 806 801 772 817 742 757 770 755 811 770 757 729 724 719 727 758 733 785 726 729 699 709 693 686 694 710 663 714 753 673 751 786 734 706 701 720 717 707 722 728 766 719 693 741 706 656 762 705 690 730 698 694 720 704 673 707 719 675 666 676 735 696 671 723 647 660 685 670 695 677 719 678 696 707 702 772 687 677 661 677 684 720 690 662 674 690 625 677 682 705 659 694 678 651 631 681 687 681 677 678 705 673 651 673 668 689 693 735 697 636 646 686 688 683 684 710 696 703 648 713 614 659 715 662 676 644 661 663 692 662 589 680 673 693 652 625 698 652 678 687 678 671 626 637 643 667 670 667 663 688 706 669 682 674 681 692 644 641 672 687 645 696 707 673 692 624 677 641 608 657 671 684 645 669 689 678 672 694 681 650 645 669 712 686 713 690 703 689 663 694 696 688 706 685 728 715 676 688 643 737 661 673 725 724 751 737 752 748 779 738 769 871 867 798 844 881 901 884 911 902 986 939 925 973 956 972 989 1096 1028 1093 1048 1111 1122 1163 1113 1158 1158 1196 1237 1203 1282 1259 1221 1260 1275 1233 1213 1223 1183 1160 1146 1139 1153 1159 1117 1171 1094 1074 1123 1094 1092 1069 1024 1050 993 963 913 871 873 903 838 875 896 898 868 874 815 857 811 826 845 806 819 777 799 752 782 751 791 773 792 799 799 755 763 774 768 751 772 693 699 728 747 753 695 721 738 736 685 756 729 666 688 690 703 667 715 681 764 683 776 706 757 683 696 658 702 694 688 667 652 679 709 687 663 661 704 677 652 657 654 664 714 662 698 718 633 739 655 675 700 682 669 651 668 719 634 673 652 668 681 711 656 683 700 682 681 689 651 671 687 688 646 636 687 635 651 666 654 672 680 714 650 680 653 620 654 719 620 656 663 683 666 617 690 682 620 695 631 718 667 681 626 662 678 667 649 696 744 733 693 693 693 712 700 731 703 681 722 706 772 742 737 742 767 781 765 769 787 739 768 766 756 758 769 787 777 787 807 711 820 799 736 700 763 758 763 750 768 722 738 735 705 720 720 749 736 715 756 728 757 767 693 714 701 716 683 668 699 665 688 705 744 704 655 723 666 650 674 695 709 658 672 677 676 704 700 739 694 741 711 686 696 693 657 670 720 707 644 669 661 654 672 684 666 665 677 677 683 658 643 669 593 652 644 630 647 662 707 617 677 622 641 628 627 667 699 626 650 607 611 620 668 664 700 674 658 626 687 622 654 696 685 667 731 650 695 649 743 678 701 683 709 705 698 715 679 683 714 727 722 749 754 764 765 756 745 694 766 706 700 709 736 744 693 755 657 739 763 725 719 729 769 716 726 707 762 648 703 709 698 723 738 686 660 693 673 644 694 650 677 705 612 615 638 682 689 651 641 619 700 637 639 638 688 658 668 617 628 634 635 707 629 647 654 637 650 628 633 660 637 614 684 641 636 607 664 667 637 600 650 631 630 673 662 663 662 670 661 632 671 645 624 670 620 621 608 673 651 630 641 622 618 620 674 604 642 636 614 648 604 644 648 639 665 635 643 627 639 619 624 630 672 652 677 670 642 689 669 667 702 652 630 649 634 646 617 692 647 632 686 690 701 675 646 665 649 676 622 664 653 654 658 668 669 661 731 698 711 707 670 674 642 678 662 680 666 688 669 614 617 667 721 671 637 709 689 662 674 686 704 657 644 678 729 673 678 681 656 648 707 643 662 630 672 684 704 635 615 620 638 636 625 663 664 646 666 658 625 634 606 649 693 646 649 620 616 650 624 658 635 632 604 651 637 653 644 656 638 650 629 643 636 653 638 688 625 608 627 666 647 675 664 680 653 606 672 649 681 641 661 616 655 606 592 631 639 635 639 642 594 615 619 662 621 659 669 598 626 628 632 635 629 616 617 681 642 636 628 650 595 617 611 623 698 620 621 642 631 628 672 643 611 626 641 651 664 651 659 623 611 668 627 683 662 628 673 654 643 648 620 644 692 656 646 642 695 660 664 601 631 599 673 679 604 661 648 633 652 629 672 641 641 684 610 677 659 647 646 575 637 617 679 659 605 580 677 619 643 628 682 688 720 671 627 690 620 699 706 715 687 678 641 713 663 703 640 682 660 713 680 632 684 711 712 677 774 698 685 717 709 700 727 708 724 674 683 679 698 669 695 684 645 657 693 683 703 665 719 676 681 680 641 676 702 620 668 661 612 668 677 597 616 637 725 654 645 639 642 663 651 681 641 689 628 683 612 631 628 672 663 684 635 622 658 582 660 637 672 668 652 632 644 681 685 659 645 608 685 647 643 664 647 617 665 609 674 642 608 618 640 623 648 569 614 616 653 614 670 636 673 652 624 637 621 601 607 622 677 667 607 631 685 629 656 655 606 656 635 657 612 699 663 591 605 636 587 646 629 663 638 627 630 671 663 637 672 650 672 608 625 629 634 659 646 604 628 657 613 629 656 603 610 670 630 634 657 713 621 686 638 658 649 639 624 670 603 633 654 622 664 589 639 609 633 615 629 640 616 635 630 657 655 657 639 629 646 622 637 660 639 667 617 610 625 599 629 661 640 622 662 588 639 651 644 628 642 634 621 612 633 629 623 642 677 633 638 666 658 613 629 642 635 634 655 631 632 650 643 619 641 615 613 589 660 629 627 623 625 637 630 666 624 637 598 674 616 661 645 640 657 634 645 649 632 618 663 621 678 655 670 677 692 630 630 645 662 677 614 667 632 678 662 669 706 622 665 672 640 664 663 710 670 661 699 707 710 727 744 715 713 748 693 737 771 684 762 784 744 784 856 753 760 801 809 806 795 833 835 845 834 820 789 798 851 843 763 806 847 793 803 788 767 800 742 806 766 790 741 744 778 702 804 754 815 771 780 753 786 710 685 726 712 717 685 723 678 699 715 730 680 712 713 704 691 666 691 709 675 680 675 686 696 694 665 667 670 665 696 718 693 644 698 651 626 706 664 657 684 673 648 626 689 645 659 638 651 661 602 658 688 662 639 629 670 703 672 661 638 648 668 675 669 662 664 661 621 660 630 600 630 685 656 681 641 656 611 628 656 647 648 651 666 657 627 609 650 650 634 630 684 653 623 652 650 605 644 671 662 654 639 677 648 657 621 624 682 622 644 644 650 633 638 610 671 590 648 682 642 644 610 684 643 649 659 639 669 573 594 632 634 640 663 656 655 628 677 656 668 644 634 590 606 651 680 623 621 668 584 657 605 659 637 609 604 648 651 626 657 662 647 671 619 667 650 666 596 616 608 626 626 612 676 586 621 646 625 646 624 628 619 624 640 628 657 640 596 616 668 638 627 625 644 635 663 617 636 634 662 666 590 640 692 588 625 589 636 633 625 634 626 650 677 638 648 666 614 574 624 660 611 651 620 609 635 632 652 659 632 626 640 638 592 658 692 662 652 622 642 613 620 666 622 667 609 646 604 623 675 637 696 656 657 620 657 654 655 647 584 658 615 655 664 653 636 625 697 585 632 624 610 633 630 597 650 615 651 659 643 626 603 614 630 666 610 619 665 658 635 648 616 627 634 649 643 624 687 692 652 601 688 597 618 628 596 660 659 629 677 592 623 640 636 665 631 627 665 624 690 666 617 668 670 675 646 677 686 626 666 635 643 618 656 679 694 674 671 731 650 657 685 689 659 678 648 695 673 658 675 649 704 715 672 699 662 721 708 675 703 680 723 641 687 706 619 683 671 654 653 711 700 641 666 688 629 634 659 685 638 664 670 596 643 643 676 666 628 644 643 598 678 616 620 628 606 630 657 670 624 639 658 687 615 620 629 668 604 653 622 663 590 651 684 611 616 617 597 628 659 593 610 633 597 641 655 632 620 605 639 592 610 668 604 656 618 617 595 663 624 602 629 590 666 647 644 654 594 618 633 635 637 658 652 665 653 681 642 662 636 644 663 655 617 639 661 634 633 653 690 633 659 634 657 640 637 667 630 599 657 658 692 630 625 637 639 627 656 598 640 625 615 634 628 669 596 630 626 609 675 630 598 610 665 619 635 651 610 617 629 665 664 590 608 596 654 627 666 641 620 653 643 619 667 681 628 631 631 570 619 603 620 686 651 618 649 650 668 644 688 664 649 665 695 652 661 600 584 680 632 646 650 618 614 600 637 616 642 676 651 598 681 592 615 657 682 680 667 695 649 659 631 678 637 659 621 609 591 611 644 640 656 619 676 604 606 615 661 620 599 600 647 599 606 648 699 704 647 698 685 679 677 650 700 682 667 697 681 681 630 677 670 692 654 734 665 655 659 674 653 656 673 664 660 747 653 698 699 719 694 751 659 650 717 703 690 721 710 645 675 630 672 683 696 682 690 699 670 704 689 701 654 735 687 695 728 720 716 680 699 701 662 731 665 774 740 753 770 751 734 713 751 747 775 722 765 713 763 764 767 789 775 827 763 742 780 779 757 748 727 782 772 761 706 747 739 757 707 778 745 657 738 679 708 705 720 766 677 680 745 704 698 717 727 729 708 685 679 677 676 703 670 726 675 689 663 643 672 655 665 678 633 635 666 662 727 676 699 675 615 653 657 661 711 661 641 610 647 694 694 615 681 639 696 665 634 618 640 678 627 618 706 664 620 641 641 631 641 635 693 659 650 644 611 683 700 688 660 691 667 643 673 641 636 648 625 697 674 618 639 623 675 674 666 689 675 668 700 678 634 675 646 671 693 670 653 647 681 618 684 667 682 656 665 657 632 631 671 665 653 625 648 656 648 649 681 693 680 666 669 642 697 655 596 667 656 695 652 638 644 632 653 634 687 654 678 637 634 651 686 659 665 671 680 695 687 657 648 660 683 675 685 722 665 646 677 662 685 679 666 686 669 658 714 660 695 665 632 704 697 722 678 728 735 708 765 693 726 756 807 778 796 855 774 826 785 873 901 952 893 940 909 998 938 959 989 1000 1025 1030 1036 1083 1068 1119 1122 1133 1126 1083 1084 1079 1039 1042 1036 998 1062 956 1058 916 909 977 950 926 922 937 932 923 950 1009 917 881 941 958 986 823 914 897 904 894 847 873 831 846 805 786 852 805 813 790 828 752 789 867 831 782 706 785 774 729 746 724 786 789 748 769 748 783 789 775 739 776 674 708 722 673 704 721 737 746 684 728 657 682 685 682 705 662 711 687 685 684 705 760 676 697 656 671 688 625 677 643 667 672 657 668 683 717 675 694 716 688 644 664 674 655 677 692 677 614 652 667 680 644 640 676 637 637 667 713 701 634 693 667 670 666 640 628 677 660 654 648 693 627 661 659 671 635 666 676 647 645 684 630 707 699 635 688 671 683 665 697 699 707 670 702 700 701 685 628 686 653 704 725 666 695 714 673 702 725 673 685 742 673 688 694 684 717 699 707 686 678 681 714 669 708 660 704 707 732 669 699 645 725 621 699 688 693 706 648 712 697 697 695 726 630 714 669 649 667 673 655 628 666 686 676 639 611 664 668 677 700 645 712 620 607 676 694 722 667 654 653 655 633 677 665 607 658 688 676 627 678 648 683 628 652 638 630 718 694 675 686 604 667 602 605 692 652 634 655 651 686 660 666 608 674 717 639 683 634 666 653 685 629 643 626 681 647 653 657 624 639 589 630 675 622 657 632 684 651 629 672 609 623 646 619 629 657 653 663 644 653 636 645 655 650 693 635 658 634 632 629 688 651 657 643 606 661 600 664 654 662 644 635 636 636 657 666 667 686 671 675 627 671 643 652 626 666 647 652 656 600 617 650 644 666 658 640 626 636 615 638 628 630 661 608 639 633 627 669 636 598 638 660 667 641 677 661 673 624 657 635 656 672 668 633 657 639 638 604 662 631 616 600 610 655 649 686 689 711 702 650 632 643 713 670 653 647 654 694 644 723 672 694 675 695 660 700 665 713 664 662 668 686 628 664 679 629 719 702 717 723 702 685 628 644 680 670 659 731 661 694 672 705 667 669 629 662 620 720 672 695 635 677 641 655 595 650 670 624 665 640 664 662 634 650 665 727 633 649 677 624 674 651 658 628 725 678 645 683 672 654 701 683 705 641 680 673 704 697 691 671 673 658 734 709 706 681 752 691 700 717 682 718 728 705 699 689 680 718 711 661 739 709 761 715 672 724 695 696 682 718 714 674 715 723 677 688 708 684 657 705 669 674 657 721 706 685 649 648 663 648 660 664 680 696 683 723 688 670 688 699 655 659 701 630 709 695 595 666 652 688 694 663 617 663 618 716 673 641 628 625 639 659 683 723 622 632 692 622 656 638 621 676 658 660 632 633 659 672 657 623 665 619 627 651 622 597 652 679 648 644 677 644 589 660 626 641 631 681 676 643 654 674 635 620 638 693 610 654 668 662 667 647 664 668 700 726 723 692 642 681 692 680 691 695 732 708 730 684 684 704 679 739 701 730 680 668 714 670 695 694 693 638 688 735 706 681 676 759 702 673 669 695 748 693 694 706 684 683 687 692 638 704 674 693 684 625 680 665 679 684 659 681 673 645 641 707 662 648 640 670 662 636 682 661 663 679 682 641 637 632 649 665 664 679 652 620 677 661 608 663 683 676 637 618 668 644 660 684 701 658 679 626 658 667 670 711 644 670 650 651 627 660 633 625 662 683 615 653 626 640 646 596 640 703 670 637 646 667 644 622 686 701 624 646 650 628 652 666 638 642 615 607 708 637 659 701 644 660 669 627 639 634 660 625 631 719 689 620 637 639 685 613 718 715 711 663 657 676 623 666 634 664 662 639 653 680 648 662 649 615 631 686 667 625 681 641 687 654 634 669 638 644 654 612 710 634 636 694 626 677 652 639 621 646 657 668 644 615 642 644 652 703 653 673 670 594 635 635 671 710 641 622 632 665 658 667 622 639 636 645 632 586 672 661 649 636 644 688 736 677 608 640 637 676 671 633 651 643 635 629 645 655 655 662 658 686 672 667 684 650 650 696 650 682 667 666 632 682 627 613 678 652 617 647 745 686 654 734 666 709 714 730 692 739 756 818 818 798 814 794 858 818 837 799 859 888 880 877 864 901 969 1037 952 926 978 1000 975 1002 973 995 935 970 972 941 1011 957 953 920 887 875 929 874 873 837 899 822 949 942 936 906 848 873 874 843 851 883 919 856 798 877 793 809 815 838 836 754 790 784 777 841 790 782 753 764 687 738 790 728 770 801 756 743 737 735 739 718 737 698 766 726 716 800 772 692 694 705 722 703 706 663 720 693 700 695 730 733 651 686 723 680 678 677 658 709 695 681 694 635 695 687 683 672 634 669 702 657 697 668 664 689 636 665 650 619 611 633 674 669 639 675 624 623 654 624 654 650 650 673 660 676 675 642 634 624 623 670 659 671 681 699 653 731 685 683 691 655 611 662 689 693 605 694 676 655 663 669 658 671 639 678 622 696 629 679 703 668 663 664 650 662 743 718 682 657 671 653 743 736 674 666 684 663 661 675 669 698 675 688 672 647 673 627 643 655 660 706 647 714 635 716 672 705 647 650 620 662 651 630 672 694 695 677 598 662 665 681 620 655 666 616 678 621 650 665 696 637 635 617 637 656 669 666 646 639 697 706 683 677 661 682 659 619 689 721 676 694 689 663 649 675 655 664 671 690 640 631 621 658 701 662 702 677 686 630 655 644 645 655 652 616 656 628 638 659 695 714 635 668 665 662 651 645 657 699 695 630 668 636 652 628 641 653 652 646 646 659 672 685 616 651 638 707 642 628 673 691 641 618 663 646 648 643 673 655 616 702 661 623 655 644 671 653 644 689 664 634 618 631 670 667 641 678 632 675 613 628 657 632 613 624 620 637 669 638 614 680 657 695 673 653 641 666 658 661 691 640 713 708 660 667 632 653 660 650 673 667 646 638 670 631 627 648 652 649 665 594 641 643 646 624 623 642 655 641 687 638 681 594 618 672 692 639 639 655 631 661 654 652 635 641 646 673 616 659 658 627 662 646 637 649 647 665 615 648 658 660 633 637 598 661 674 653 630 686 647 713 643 632 630 596 623 629 672 662 614 610 650 646 655 646 666 625 613 699 657 677 696 663 677 630 634 660 631 663 668 617 658 684 655 681 613 670 656 641 633 639 627 729 643 664 662 647 610 600 640 668 624 694 623 683 664 696 641 698 637 673 680 651 650 676 659 653 665 697 650 642 682 584 661 651 674 679 684 649 640 635 622 602 615 649 624 629 676 663 616 653 661 598 683 681 693 642 675 630 681 616 654 636 613 591 659 706 665 693 651 645 652 663 703 618 661 631 651 642 675 649 656 669 630 649 670 687 658 681 658 650 637 656 636 652 626 727 682 648 681 639 661 626 688 658 662 670 691 657 656 694 664 680 686 682 632 648 658 763 692 680 675 656 666 622 711 747 683 701 686 700 668 662 679 706 719 696 716 709 705 691 710 678 705 715 690 752 685 644 717 683 715 694 701 732 697 717 688 686 757 716 711 765 719 737 744 756 766 764 787 743 809 808 731 768 761 762 773 714 731 744 815 738 760 732 709 713 722 695 751 787 769 767 706 745 720 686 723 706</counts>
			</dataPoints>
		</scan>
	</xrdMeasurement>
</xrdMeasurements>
