<?xml version="1.0"?>
<xrdMeasurements xmlns="http://www.xrdml.com/XRDMeasurement/2.3" xmlns:xsi="http://www.w3.org/2001/XMLSchema-instance" xsi:schemaLocation="http://www.xrdml.com/XRDMeasurement/2.3 http://www.xrdml.com/XRDMeasurement/2.3/XRDMeasurement.xsd" status="Completed" recordIdentifier="{614B9511-DDAC-46EE-8560-202BAEA41004}">
	<comment>
		<entry/>
	</comment>
	<sample type="To be analyzed">
		<id>GPSS_Li1p3Zr0p2V0p5Fe0p1Mn0p1Cl4_122125_69474145f4d05ae3d697aef2</id>
		<name></name>
		<preparedBy></preparedBy>
	</sample>
	<xrdMeasurement measurementType="Scan" status="Completed" sampleMode="Reflection">
		<usedWavelength intended="K-Alpha 1">
			<kAlpha1 unit="Angstrom">1.5405980</kAlpha1>
			<kAlpha2 unit="Angstrom">1.5444260</kAlpha2>
			<kBeta unit="Angstrom">1.3922500</kBeta>
			<ratioKAlpha2KAlpha1>0.5000</ratioKAlpha2KAlpha1>
		</usedWavelength>
		<incidentBeamPath>
			<radius unit="mm">145.00</radius>
			<xRayTube id="1010048" name="Empyrean Cu LFF HR (9430 033 7310x)">
				<tension unit="kV">40.0</tension>
				<current unit="mA">15.0</current>
				<anodeMaterial>Cu</anodeMaterial>
				<focus type="Line">
					<length unit="mm">12.0</length>
					<width unit="mm">0.4</width>
					<takeOffAngle unit="deg">6.0</takeOffAngle>
				</focus>
			</xRayTube>
			<sollerSlit id="21010002" name="Soller slits 0.04 rad.">
				<opening unit="rad">0.0400</opening>
			</sollerSlit>
			<mask id="22031000" name="Fixed mask 13 mm">
				<width unit="mm">9.00</width>
			</mask>
			<divergenceSlit id="22120001" name="Divergence slit 1°" xsi:type="fixedDivergenceSlitType">
				<distanceToSample unit="mm">50.00</distanceToSample>
				<height unit="mm">1.52</height>
			</divergenceSlit>
		</incidentBeamPath>
		<sampleMovement xsi:type="spinningSampleMovementType">
			<spinnerRevolutionTime unit="seconds">1.0</spinnerRevolutionTime>
		</sampleMovement>
		<diffractedBeamPath>
			<radius unit="mm">145.00</radius>
			<antiScatterSlit id="22090040" name="AS slit 9 mm (PIXcel)" xsi:type="fixedAntiScatterSlitType">
				<height unit="mm">9.00</height>
			</antiScatterSlit>
			<sollerSlit id="21020003" name="Large Soller slits 0.04 rad.">
				<opening unit="rad">0.0400</opening>
			</sollerSlit>
			<filter id="20030001" name="Large beta-filter Nickel">
				<material>Ni</material>
				<thickness unit="mm">0.020</thickness>
			</filter>
			<detector id="7010019" name="PIXcel1D-Medipix3 detector" xsi:type="rtmsDetectorType">
				<phd unit="keV">
					<lowerLevel>4.02</lowerLevel>
					<upperLevel>11.27</upperLevel>
				</phd>
				<mode>Scanning</mode>
				<activeLength unit="deg">5.542</activeLength>
			</detector>
		</diffractedBeamPath>
		<scan appendNumber="0" mode="Continuous" scanAxis="Gonio" status="Completed">
			<header>
				<startTimeStamp>2025-12-23T11:38:41-08:00</startTimeStamp>
				<endTimeStamp>2025-12-23T11:46:48-08:00</endTimeStamp>
				<author>
					<name>AutomatedUser</name>
				</author>
				<source>
					<applicationSoftware version="1.7b (136)">PANalytical Aeris Instrument Suite</applicationSoftware>
					<instrumentControlSoftware version="3.2.00000000 20240306">AERIS</instrumentControlSoftware>
					<instrumentID>950485</instrumentID>
				</source>
			</header>
			<dataPoints>
				<positions axis="2Theta" unit="deg">
					<startPosition>10.00943322</startPosition>
					<endPosition>99.99442286</endPosition>
				</positions>
				<positions axis="Omega" unit="deg">
					<startPosition>5.00471661</startPosition>
					<endPosition>49.99721143</endPosition>
				</positions>
				<commonCountingTime unit="seconds">12.495</commonCountingTime>
				<counts unit="counts">2880 2945 3002 3024 2927 2897 2898 2888 2947 2886 2983 2956 3029 2993 2889 3062 2951 2926 2964 2959 2910 3019 2901 3042 3029 3026 3052 3016 2962 2914 2881 2970 2922 2962 2984 2980 2965 2942 2947 2918 2911 3006 2960 2950 3028 2879 2965 3029 2921 3012 2969 3014 3015 2976 3034 3011 2942 3011 2993 3041 2982 3015 3091 3018 3057 3017 2985 3019 2990 3099 3131 3033 3077 2996 3059 3121 2979 2981 3026 3227 3149 3067 3008 3085 3031 3115 3045 3019 3109 3109 3137 3080 3036 3139 3140 3105 3155 3097 3133 3080 3126 3067 3085 3159 3095 3072 3262 3066 3183 3174 3187 3090 3142 3149 3161 3150 3030 3127 3147 3124 3116 3133 3180 3113 3246 3213 3262 3103 3209 3100 3173 3196 3163 3230 3160 3158 3170 3093 3124 3078 3246 3202 3126 3156 3103 3200 3045 3193 3184 3156 3236 3236 3228 3208 3151 3158 3172 3185 3149 3143 3198 3156 3229 3213 3204 3138 3182 3157 3133 3199 3213 3242 3096 3246 3057 3194 3095 3112 3044 3184 3037 3159 3145 3054 3152 3215 3145 3147 3127 3137 3181 3246 3088 3175 3135 3146 3189 3145 3226 3147 3170 3113 3054 3038 3094 3035 3224 3143 3142 3180 3202 3253 3160 3242 3182 3051 3245 3200 3284 3147 3201 3207 3215 3279 3097 3146 3189 3317 3192 3144 3100 3144 3208 3091 3108 3258 3137 3087 3100 3086 3088 3079 3089 3080 3032 3074 3087 3117 2976 3115 3028 3086 3074 3088 3007 3142 3004 3121 3121 3068 3129 3089 2957 3090 3167 2999 3057 2942 2993 2991 2975 3066 3098 3143 3116 3077 3053 3080 3098 3003 3168 3038 3079 3131 3006 3068 3049 3038 3021 3028 3029 3069 2849 2914 3009 2878 2971 2884 2984 2994 2906 2786 2881 2898 2917 2977 2794 2841 2953 2834 2919 2835 2919 2883 2878 2919 2785 2911 2915 2991 2873 3015 2875 2808 2791 2917 2887 2848 2851 2879 2903 2855 2827 2899 2872 2922 2982 2893 2989 2832 2968 2865 2923 2922 2874 2842 2950 2954 2888 2840 2794 2750 2750 2991 2857 2805 2855 2894 2902 2861 2909 2906 2862 2901 2887 2930 2944 2866 2904 2981 2967 2865 2902 2967 3054 2911 2927 2976 3009 2944 2972 2979 2964 2941 2943 2907 3023 2950 3010 3024 3053 2952 3008 2995 3069 3015 3025 3036 2940 3071 3049 3175 2991 2944 2978 3058 3057 3036 3064 2951 3107 3054 2940 3075 3002 3123 3088 2984 3140 3054 3121 3080 3105 3123 3120 3137 3077 3033 3020 3135 3084 3178 3124 3113 3120 3042 3092 3008 3141 3121 3205 3112 3174 3066 3070 3181 3117 3211 3163 3180 3165 3084 3204 3175 3196 3248 3269 3310 3250 3290 3272 3136 3192 3352 3379 3312 3349 3262 3418 3450 3386 3345 3352 3349 3358 3311 3330 3351 3417 3376 3423 3404 3514 3486 3495 3454 3458 3625 3611 3599 3717 3720 3678 3618 3740 3725 3668 3745 3701 3752 3801 3719 3742 3653 3822 3783 3813 3853 3769 3829 3785 3757 3663 3743 3610 3673 3546 3606 3573 3567 3482 3383 3463 3355 3295 3199 3259 3187 3223 3124 3113 3147 3115 3111 3085 3054 3056 3076 3042 3026 2953 3066 2937 2790 3021 2869 2975 2864 2890 2937 2912 2910 2882 2864 2876 2876 2862 2819 2882 2764 2785 2870 2871 2809 2796 2794 2729 2835 2744 2861 2807 2740 2755 2828 2833 2744 2698 2818 2834 2788 2795 2729 2703 2672 2830 2742 2656 2738 2727 2714 2800 2765 2669 2703 2735 2705 2773 2659 2757 2733 2672 2671 2646 2768 2656 2682 2724 2784 2735 2729 2539 2670 2716 2647 2686 2776 2672 2787 2667 2652 2680 2656 2605 2664 2554 2682 2526 2705 2671 2722 2627 2737 2706 2644 2661 2694 2561 2606 2680 2561 2631 2642 2585 2625 2615 2636 2600 2618 2638 2695 2672 2656 2621 2623 2696 2587 2720 2669 2628 2621 2641 2689 2642 2678 2796 2599 2744 2687 2671 2664 2684 2819 2628 2724 2723 2661 2646 2701 2711 2605 2712 2684 2580 2667 2758 2687 2689 2600 2560 2596 2638 2614 2594 2596 2663 2647 2590 2630 2678 2610 2601 2589 2579 2587 2579 2592 2589 2639 2506 2496 2597 2580 2604 2550 2568 2585 2543 2589 2596 2490 2622 2537 2591 2625 2553 2616 2564 2602 2569 2607 2669 2617 2548 2515 2592 2590 2529 2502 2567 2540 2611 2495 2524 2587 2506 2636 2556 2493 2620 2501 2527 2608 2609 2633 2456 2539 2520 2624 2532 2558 2429 2565 2497 2598 2601 2528 2587 2501 2503 2617 2531 2450 2489 2587 2477 2557 2511 2510 2437 2573 2536 2534 2582 2558 2552 2522 2628 2607 2586 2431 2461 2572 2474 2469 2436 2526 2557 2524 2493 2460 2434 2530 2509 2513 2532 2558 2530 2463 2464 2500 2550 2558 2572 2601 2505 2536 2455 2459 2515 2519 2403 2550 2540 2485 2438 2499 2592 2588 2504 2451 2477 2523 2504 2537 2457 2492 2444 2439 2477 2478 2531 2427 2628 2574 2559 2398 2516 2527 2465 2548 2529 2365 2469 2458 2512 2435 2460 2469 2419 2350 2457 2494 2431 2457 2500 2426 2480 2487 2419 2478 2363 2403 2484 2375 2373 2465 2323 2434 2444 2292 2450 2409 2449 2376 2285 2414 2321 2388 2304 2403 2393 2412 2377 2306 2392 2413 2445 2360 2473 2402 2434 2486 2393 2407 2297 2374 2384 2302 2402 2350 2368 2343 2386 2267 2416 2300 2452 2386 2370 2328 2313 2303 2361 2216 2289 2328 2336 2302 2370 2281 2355 2241 2264 2330 2321 2359 2347 2237 2255 2265 2309 2345 2311 2348 2276 2293 2276 2261 2308 2209 2281 2299 2301 2409 2347 2284 2260 2277 2336 2339 2265 2248 2241 2356 2338 2218 2247 2326 2251 2248 2303 2323 2278 2243 2216 2240 2303 2226 2207 2198 2169 2263 2281 2312 2197 2267 2265 2225 2246 2241 2232 2218 2192 2327 2284 2202 2227 2196 2247 2227 2261 2176 2306 2260 2298 2290 2351 2289 2298 2257 2234 2193 2275 2067 2140 2171 2219 2109 2245 2254 2203 2234 2259 2222 2180 2195 2208 2253 2199 2225 2300 2170 2218 2210 2262 2259 2273 2247 2284 2256 2318 2205 2188 2209 2224 2288 2182 2203 2204 2273 2251 2221 2204 2199 2224 2268 2311 2287 2264 2270 2250 2285 2154 2261 2188 2137 2262 2219 2233 2207 2315 2182 2248 2232 2257 2213 2167 2194 2245 2265 2284 2187 2248 2220 2300 2263 2198 2178 2267 2245 2196 2245 2177 2391 2128 2248 2179 2164 2166 2219 2161 2193 2167 2169 2234 2206 2191 2214 2240 2251 2243 2192 2158 2198 2239 2218 2249 2286 2175 2305 2323 2212 2211 2213 2163 2279 2276 2318 2219 2184 2340 2133 2280 2231 2229 2276 2294 2285 2315 2274 2335 2309 2277 2278 2218 2289 2266 2211 2251 2228 2275 2191 2120 2298 2190 2278 2213 2234 2280 2237 2228 2165 2271 2244 2158 2236 2109 2151 2239 2184 2199 2249 2229 2146 2143 2204 2160 2118 2138 2115 2115 2063 2100 2190 2127 2057 2132 2006 2037 2107 2064 2023 2004 2115 1992 2110 2106 1996 1974 2065 2085 2111 2031 1993 2001 1984 2035 2001 1999 1952 1977 2002 2023 1995 1998 2021 1943 2034 1938 1925 1924 1889 1970 1924 1953 2002 1982 2013 1977 1929 2010 1934 1921 1885 1931 1944 1907 1902 1936 1895 1910 1936 1971 1938 1855 1827 1921 1840 1885 1795 1814 1756 1916 1903 1845 1802 1896 1879 1870 1908 1752 1862 1811 1809 1852 1817 1825 1770 1822 1775 1820 1862 1779 1846 1835 1780 1741 1729 1721 1789 1799 1798 1690 1808 1773 1740 1719 1759 1752 1744 1722 1728 1690 1771 1716 1823 1695 1686 1703 1778 1705 1746 1746 1752 1744 1732 1650 1714 1657 1763 1648 1697 1667 1661 1711 1707 1638 1693 1639 1680 1680 1644 1731 1724 1726 1639 1596 1559 1696 1665 1752 1629 1741 1659 1695 1681 1665 1693 1642 1695 1703 1632 1697 1690 1645 1631 1656 1600 1652 1659 1592 1691 1651 1664 1599 1749 1648 1687 1659 1667 1594 1652 1631 1668 1664 1592 1649 1691 1634 1662 1675 1676 1643 1592 1588 1563 1681 1575 1622 1611 1664 1645 1697 1596 1562 1530 1665 1647 1599 1634 1618 1636 1624 1598 1604 1550 1633 1577 1706 1652 1616 1607 1609 1592 1619 1630 1614 1560 1620 1596 1632 1616 1675 1597 1650 1566 1710 1574 1591 1561 1663 1569 1594 1599 1568 1671 1697 1628 1570 1642 1595 1589 1652 1613 1725 1624 1558 1622 1614 1640 1699 1564 1681 1671 1647 1591 1624 1644 1639 1711 1585 1679 1650 1678 1593 1614 1642 1672 1627 1633 1773 1674 1628 1694 1645 1738 1708 1679 1648 1798 1680 1726 1688 1703 1593 1730 1691 1774 1702 1699 1680 1738 1766 1720 1727 1687 1671 1681 1744 1684 1707 1755 1745 1740 1744 1800 1723 1696 1678 1680 1809 1678 1725 1738 1723 1709 1672 1665 1674 1625 1656 1626 1609 1691 1617 1665 1676 1580 1635 1603 1677 1686 1643 1629 1614 1546 1547 1560 1605 1593 1598 1566 1552 1611 1573 1660 1523 1543 1619 1632 1585 1619 1570 1582 1627 1610 1609 1491 1579 1595 1689 1573 1602 1588 1615 1510 1601 1592 1580 1582 1515 1529 1607 1604 1490 1484 1496 1622 1445 1547 1544 1586 1495 1512 1521 1600 1535 1549 1503 1524 1496 1549 1518 1545 1439 1504 1531 1500 1470 1517 1487 1492 1464 1535 1553 1462 1436 1453 1515 1474 1415 1420 1414 1445 1384 1488 1509 1511 1461 1425 1419 1405 1430 1483 1396 1415 1333 1329 1453 1422 1444 1408 1334 1443 1399 1385 1422 1434 1388 1341 1397 1429 1407 1416 1427 1319 1396 1457 1348 1418 1373 1393 1353 1388 1440 1377 1454 1285 1351 1371 1372 1364 1309 1395 1353 1346 1370 1332 1370 1384 1324 1367 1356 1376 1347 1321 1396 1395 1383 1422 1308 1366 1429 1372 1381 1343 1303 1271 1311 1341 1283 1387 1342 1335 1325 1367 1406 1381 1385 1356 1379 1303 1420 1344 1293 1380 1314 1416 1375 1327 1422 1400 1407 1414 1400 1483 1328 1379 1430 1481 1470 1482 1457 1475 1497 1493 1528 1502 1497 1472 1517 1448 1481 1462 1476 1505 1420 1501 1526 1419 1437 1509 1481 1440 1395 1439 1416 1341 1464 1362 1408 1374 1403 1425 1360 1312 1427 1341 1385 1299 1340 1302 1342 1335 1334 1261 1271 1342 1241 1362 1249 1268 1228 1297 1315 1254 1278 1258 1320 1304 1203 1280 1306 1267 1214 1240 1231 1248 1301 1190 1275 1219 1267 1237 1249 1193 1246 1254 1209 1262 1296 1258 1281 1235 1288 1258 1300 1169 1254 1263 1273 1361 1314 1234 1279 1207 1289 1235 1290 1243 1254 1285 1271 1279 1324 1297 1311 1352 1312 1329 1334 1357 1382 1355 1360 1334 1370 1385 1491 1408 1536 1485 1502 1497 1587 1592 1603 1605 1634 1571 1611 1616 1633 1689 1678 1550 1640 1596 1663 1620 1589 1585 1563 1598 1526 1602 1660 1683 1695 1743 1789 1772 1915 1825 1942 1917 1942 2041 1869 2038 1922 1988 1910 1945 2063 1984 1994 1987 1885 1928 1920 1835 1785 1694 1763 1681 1512 1546 1529 1456 1454 1417 1399 1370 1358 1297 1260 1305 1213 1245 1213 1276 1242 1280 1191 1272 1247 1206 1330 1223 1285 1218 1369 1336 1279 1289 1285 1352 1314 1279 1273 1283 1295 1335 1276 1335 1333 1310 1327 1325 1241 1282 1257 1195 1240 1243 1251 1238 1185 1243 1263 1229 1236 1245 1189 1235 1253 1219 1202 1244 1260 1149 1238 1195 1194 1223 1230 1220 1214 1257 1273 1240 1281 1233 1245 1324 1214 1273 1303 1282 1277 1303 1349 1298 1267 1302 1331 1259 1293 1322 1331 1324 1287 1361 1251 1267 1301 1261 1324 1198 1283 1287 1200 1259 1185 1196 1216 1192 1129 1210 1136 1128 1164 1201 1162 1194 1148 1132 1189 1089 1119 1072 1133 1119 1118 1069 1088 1065 1078 1095 1105 1095 1068 1075 1086 1091 1131 1079 1032 1100 1078 1055 1082 1052 1126 1101 1028 1018 1078 1050 1101 1053 1073 1079 1057 1023 1057 1061 1093 1096 1037 1079 1046 1060 1082 1056 1101 1106 1043 1069 1055 1122 1103 1038 1024 1105 1123 1063 1072 1081 1089 1124 1089 1093 1057 1097 1100 1103 1070 1044 1054 1077 1105 1009 1154 1033 1075 1082 1061 1095 1066 1059 1110 1082 1174 1090 1079 1068 1129 1100 1109 1099 1119 1128 1091 1165 1034 1147 1153 1175 1108 1114 1117 1180 1160 1150 1133 1144 1189 1160 1176 1162 1205 1185 1213 1144 1253 1232 1195 1234 1242 1291 1152 1279 1258 1270 1297 1273 1305 1381 1316 1326 1405 1324 1324 1324 1383 1408 1396 1455 1426 1446 1470 1414 1506 1542 1504 1489 1539 1574 1585 1606 1533 1603 1578 1554 1678 1642 1712 1569 1646 1727 1654 1623 1643 1682 1664 1662 1706 1651 1636 1663 1633 1690 1624 1678 1567 1617 1545 1624 1560 1533 1555 1569 1576 1556 1556 1477 1482 1534 1527 1418 1540 1494 1391 1442 1435 1426 1431 1411 1343 1499 1405 1432 1421 1382 1377 1466 1322 1364 1372 1377 1343 1339 1352 1366 1346 1357 1422 1343 1344 1314 1377 1334 1358 1336 1326 1410 1370 1366 1439 1429 1467 1417 1371 1396 1438 1406 1438 1501 1446 1578 1455 1590 1596 1554 1648 1628 1614 1657 1618 1670 1755 1710 1818 1780 1843 1823 1806 1914 1881 1962 1912 2056 1959 1954 2019 2123 2108 2101 2168 2130 2240 2149 2198 2170 2199 2246 2233 2210 2281 2230 2208 2228 2258 2198 2289 2321 2298 2335 2424 2441 2610 2516 2532 2578 2613 2578 2563 2596 2627 2569 2654 2641 2576 2460 2590 2498 2385 2404 2281 2320 2189 2150 2173 1938 1832 1797 1759 1693 1675 1623 1556 1556 1473 1412 1357 1346 1303 1319 1292 1240 1292 1244 1232 1254 1162 1152 1205 1217 1209 1126 1088 1177 1127 1137 1142 1106 1100 1124 1121 1207 1095 1081 1037 1166 1097 1097 1119 1123 1033 1084 1072 1043 1100 1127 1089 1081 1101 1101 1029 1096 1071 1100 1084 1053 1059 1035 1072 1007 1093 978 1039 1063 1040 1033 1005 1038 1001 1082 992 1030 964 1046 986 981 971 1044 1024 1034 1052 962 948 1004 981 994 981 972 968 1038 972 933 968 930 951 993 927 977 960 997 988 940 963 948 949 937 1017 948 952 933 1005 971 1023 986 966 946 965 926 948 947 969 970 951 947 900 931 966 932 947 979 914 927 955 929 884 992 965 928 977 892 909 906 977 897 885 950 918 935 903 960 910 949 905 923 866 924 889 922 893 915 817 942 877 1009 853 925 918 949 881 999 886 885 918 921 879 885 878 941 893 923 848 890 846 919 896 912 931 945 890 878 898 922 880 929 868 951 845 920 849 854 914 903 887 877 870 939 891 912 913 926 902 858 883 911 877 892 874 920 883 905 873 928 930 959 887 933 869 926 935 842 890 858 846 930 882 887 906 855 881 914 892 854 935 870 922 811 894 896 859 810 842 869 898 899 884 874 923 904 869 856 878 896 887 814 829 876 891 928 910 780 858 841 845 858 863 870 873 837 881 924 909 882 918 944 910 859 842 846 909 886 819 827 841 888 853 821 841 834 904 884 844 793 853 872 876 818 842 859 869 809 866 868 842 829 843 790 821 890 789 830 796 855 844 814 853 849 861 824 857 897 842 894 863 885 840 830 829 867 869 827 839 793 860 880 830 840 873 830 819 836 858 844 806 915 785 901 821 901 852 829 847 844 879 852 866 864 882 920 865 875 860 891 833 980 898 939 851 818 885 874 902 873 843 864 928 904 911 846 834 841 878 782 919 897 879 923 883 857 870 859 834 903 859 878 824 846 925 827 847 844 787 918 842 853 837 775 884 798 799 891 803 879 849 826 839 846 804 814 774 803 852 876 870 846 872 828 844 802 802 767 836 831 783 804 872 863 842 833 841 857 811 822 827 802 895 823 815 806 801 838 814 837 848 824 820 833 849 790 892 820 858 861 820 813 795 868 811 830 841 822 872 887 819 808 820 848 825 800 886 852 842 838 865 815 857 866 888 819 864 827 821 850 847 799 814 882 852 776 822 839 764 835 790 873 848 794 869 794 771 822 789 841 850 847 822 863 789 784 767 794 828 792 821 816 854 835 832 829 824 839 851 828 832 797 820 801 805 878 819 796 833 814 832 779 793 795 785 829 836 866 821 825 801 842 782 805 822 854 863 884 847 861 862 846 858 818 842 859 845 855 871 914 824 823 867 885 860 844 843 860 853 863 865 850 871 846 865 881 859 855 853 894 850 780 862 834 781 901 806 785 807 880 889 860 867 883 817 784 933 869 849 810 848 781 826 797 843 875 834 873 824 781 822 841 780 763 842 781 841 874 793 893 819 838 773 818 797 828 832 832 857 816 828 820 816 784 822 825 839 855 817 850 777 847 822 900 789 807 809 884 902 843 837 827 845 858 850 857 859 849 870 891 875 811 849 894 854 864 861 849 916 860 863 942 862 855 929 888 855 881 927 864 909 907 905 969 953 923 930 896 953 913 905 900 955 907 897 933 948 896 908 980 940 980 1006 984 878 984 911 990 979 969 1030 995 1045 1031 971 965 1023 963 1007 943 1024 984 1046 944 915 993 920 995 1012 927 999 978 989 931 927 980 991 918 926 880 952 915 932 905 967 884 911 886 925 862 907 855 919 933 900 915 869 872 879 908 837 860 880 906 867 877 801 824 902 844 876 835 852 861 883 853 859 911 870 813 835 839 777 863 830 785 832 821 861 827 862 809 800 838 778 824 798 875 800 793 761 840 809 831 774 823 829 771 863 844 795 778 841 855 781 789 803 792 800 813 778 789 773 844 799 823 809 781 822 759 793 827 773 765 822 779 771 791 726 731 815 783 787 694 774 743 833 823 786 764 782 744 776 847 797 786 819 745 775 736 807 781 761 765 798 805 833 792 842 820 731 784 814 833 786 841 837 788 831 791 776 779 799 783 819 746 758 792 825 799 830 800 795 773 799 849 815 805 777 821 763 820 796 817 834 786 817 793 763 862 820 840 795 819 823 787 789 825 834 872 818 807 821 835 812 826 829 875 838 815 832 829 789 803 798 761 807 822 818 826 797 782 804 858 840 790 839 828 800 792 864 845 831 757 847 811 866 949 858 870 882 800 877 872 879 839 869 884 881 808 881 906 902 880 896 816 865 886 889 856 851 829 913 942 866 900 889 870 869 865 843 896 924 881 940 912 859 928 846 879 930 894 918 898 924 924 927 925 927 953 931 948 936 916 961 929 946 950 930 880 970 913 853 878 883 904 846 957 889 921 887 875 835 874 893 824 840 835 883 835 892 860 900 872 904 824 817 827 822 854 886 815 856 821 825 880 830 785 854 802 788 831 797 751 769 801 850 778 798 755 774 772 762 754 763 770 759 762 791 801 766 723 769 775 741 783 755 805 717 750 760 705 776 794 775 764 758 793 770 798 689 731 743 705 736 749 748 744 756 775 732 722 741 739 719 731 761 745 739 775 775 684 731 737 687 761 736 746 718 740 725 737 724 760 739 782 824 720 779 724 796 761 774 773 759 840 701 759 730 741 738 727 750 769 730 790 729 791 768 778 722 717 750 747 737 732 765 703 805 768 699 852 749 757 805 807 799 752 750 829 789 851 754 787 792 787 781 791 803 794 823 807 824 819 829 790 760 848 804 810 814 802 787 797 821 780 804 753 805 806 766 733 837 832 788 791 812 818 802 786 828 788 822 828 777 769 770 763 792 753 767 831 770 812 802 846 837 810 804 825 836 779 809 864 789 869 865 845 852 907 836 857 910 936 919 897 980 920 945 959 922 954 998 962 994 874 971 944 1043 969 1006 988 1030 1002 1051 1008 937 1034 1057 1054 1100 985 1095 1104 1036 1034 1048 1083 1097 1007 1091 1118 1131 1139 1117 1164 1124 1141 1171 1115 1154 1081 1149 1157 1126 1153 1204 1130 1160 1131 1133 1132 1104 1130 1140 1125 1071 1079 1157 1100 1078 1042 1045 1108 1100 1026 1036 1076 1105 1065 1086 1046 1094 1069 991 1064 1092 1017 1058 1049 1059 1098 1060 1115 1104 1067 1151 1163 1164 1146 1196 1109 1308 1213 1250 1282 1328 1376 1445 1388 1498 1448 1541 1573 1654 1606 1773 1676 1728 1705 1664 1525 1504 1498 1454 1399 1468 1362 1414 1342 1300 1341 1302 1186 1153 1174 1089 1119 1074 944 1030 985 963 922 960 979 926 931 927 914 850 942 859 901 887 855 914 925 901 851 874 891 847 828 887 900 857 910 941 910 904 903 856 827 850 915 855 836 841 866 930 873 842 822 847 847 816 802 811 784 830 838 791 798 793 793 759 819 805 779 795 794 843 780 729 770 718 753 765 763 744 754 768 699 756 764 734 830 753 738 802 722 776 759 791 747 774 762 772 817 754 752 835 793 761 742 772 768 764 786 792 864 824 814 804 844 818 847 822 832 777 809 793 831 829 836 792 824 852 788 846 807 890 919 853 908 856 888 909 921 915 909 928 880 939 915 957 925 946 948 953 985 986 1024 1048 1030 1032 993 1059 1034 1114 1070 1125 1157 1137 1219 1237 1298 1320 1256 1284 1298 1355 1404 1383 1325 1353 1471 1466 1507 1451 1502 1482 1443 1397 1478 1440 1350 1393 1366 1374 1326 1289 1252 1192 1234 1134 1131 1152 1099 1037 1032 1052 1012 1008 937 944 968 933 889 950 943 891 864 821 852 846 856 818 799 828 836 819 798 802 774 779 783 847 777 784 782 662 819 727 743 756 757 766 736 738 740 692 772 735 751 758 753 730 729 748 724 756 702 719 775 745 778 775 772 748 738 713 757 788 782 699 762 703 758 809 726 753 775 729 716 741 691 715 715 716 709 733 692 712 749 770 723 753 734 783 704 652 741 759 725 729 705 751 686 701 706 642 754 693 688 705 669 744 674 697 671 684 714 729 682 690 702 658 690 708 715 700 687 632 715 727 755 718 695 709 728 684 671 708 725 762 634 683 648 746 706 699 703 682 728 735 734 741 692 802 726 640 708 686 638 750 739 767 790 813 780 762 732 792 728 747 700 743 736 770 787 794 819 789 773 797 764 808 738 777 808 803 804 771 742 744 767 810 757 816 850 761 776 843 867 850 857 854 829 816 833 877 850 918 910 904 878 861 859 858 888 905 876 834 889 871 886 848 853 847 834 834 837 831 811 796 812 718 840 786 747 757 745 764 763 795 745 784 753 747 774 721 734 741 741 719 733 714 725 705 703 675 719 699 701 731 665 638 678 693 719 693 754 687 708 694 679 701 719 675 685 715 699 752 723 704 724 710 715 688 732 750 678 718 705 688 709 719 759 722 720 743 631 712 682 692 738 700 786 718 737 722 716 710 693 734 711 717 697 695 730 757 736 755 747 743 744 730 799 764 761 714 788 784 749 750 718 761 784 751 743 767 749 760 738 764 773 783 735 730 754 724 754 754 764 704 778 758 779 786 736 791 688 771 735 764 756 728 729 769 758 721 724 741 725 727 722 671 737 730 707 733 769 732 721 698 700 701 683 702 702 723 722 640 699 708 691 700 702 684 626 680 636 669 668 662 616 662 633 676 640 626 616 723 643 685 662 641 730 694 696 668 646 643 630 653 693 660 640 612 662 624 685 682 604 653 667 675 646 646 664 648 668 668 649 654 698 630 620 664 609 698 648 654 666 662 660 673 655 668 657 667 669 658 678 651 653 641 709 655 674 655 685 648 640 646 612 661 656 717 691 671 673 602 644 637 684 637 618 667 638 694 687 684 675 684 717 758 691 599 655 649 669 704 675 716 632 697 623 686 711 693 644 669 689 711 626 688 662 665 661 653 634 651 652 703 651 673 656 677 675 648 656 666 663 678 631 694 667 672 642 701 720 630 640 704 678 659 675 688 636 677 636 650 661 703 700 646 663 674 708 696 695 644 673 682 662 699 696 718 748 677 714 685 672 699 669 629 678 682 725 692 709 720 663 697 689 692 698 719 731 713 705 696 711 686 663 672 744 792 672 691 741 741 707 714 649 689 707 681 719 721 703 696 693 683 721 714 710 683 667 663 717 705 756 703 699 692 691 691 761 719 720 742 759 718 800 747 759 866 732 762 762 794 852 833 825 864 843 886 925 919 976 977 1015 1059 1043 1162 1149 1166 1136 1079 1088 1065 1030 1071 1019 1140 1048 1070 1151 1081 1036 1032 987 1034 910 887 881 890 848 783 831 849 803 773 743 783 817 717 751 729 696 716 703 654 718 686 680 695 653 660 662 725 685 679 615 668 677 661 648 611 658 626 623 645 625 663 661 682 601 677 670 669 657 682 650 673 632 695 628 653 673 605 709 705 677 636 669 629 598 677 639 676 666 665 672 640 657 655 656 640 614 638 647 631 683 673 656 692 651 641 634 653 703 635 704 672 692 653 626 654 626 660 656 638 675 680 637 662 596 684 692 708 665 694 665 653 657 721 662 654 669 678 631 609 669 620 626 692 654 715 693 690 725 733 675 707 644 712 662 684 666 724 760 671 755 695 733 730 721 759 715 711 721 697 764 758 742 754 780 736 744 754 817 752 830 726 764 744 795 776 771 733 754 799 798 811 752 828 760 780 758 781 777 775 820 807 792 791 772 763 812 817 806 734 763 793 744 772 734 752 768 822 802 785 750 806 752 757 731 759 696 741 713 725 719 775 732 720 724 692 729 675 720 725 717 699 715 706 690 717 667 756 741 732 726 725 737 729 733 720 750 775 743 742 726 746 755 744 722 749 746 772 799 742 776 784 789 827 820 799 871 804 836 822 800 836 802 856 821 795 770 801 703 769 821 733 735 780 751 761 764 755 709 711 726 748 685 716 718 742 701 690 650 722 699 672 690 703 738 750 717 769 685 736 664 695 694 751 721 658 713 692 701 642 713 698 731 750 678 715 736 716 683 673 688 756 731 745 719 736 748 795 749 780 736 757 768 821 756 793 773 805 806 797 854 810 810 807 817 853 832 815 890 803 860 891 821 899 826 827 871 829 853 765 884 882 816 886 882 828 917 840 854 824 768 868 806 869 843 856 823 844 881 832 853 817 804 869 786 808 813 826 859 753 809 724 773 766 766 790 775 742 784 703 755 695 764 756 774 782 766 728 716 738 740 757 729 752 711 771 719 761 724 683 742 709 767 759 678 754 716 672 713 657 684 693 682 717 686 686 716 744 694 668 712 718 739 691 728 697 708 686 679 684 700 704 745 637 628 671 673 683 705 723 669 728 707 718 711 686 724 700 676 680 702 717 685 700 728 689 708 671 680 699 687 683 659 716 717 643 662 666 649 675 690 645 640 667 689 662 694 661 634 661 645 700 619 659 642 640 602 658 671 658 638 654 611 649 643 616 661 632 657 634 629 661 640 687 696 596 619 625 658 649 688 598 679 634 610 640 626 630 637 630 610 595 613 580 628 606 659 644 672 639 594 638 663 582 590 591 651 662 629 668 578 618 614 644 623 635 665 671 651 641 626 578 610 638 656 643 640 606 594 609 662 626 623 599 598 627 651 635 632 626 668 619 613 617 621 648 617 635 634 614 590 642 619 623 631 629 630 615 636 603 600 622 624 582 618 618 693 622 599 642 626 609 633 601 649 603 636 627 609 568 601 687 617 621 617 616 575 565 581 579 642 614 649 622 623 614 617 638 609 622 614 592 617 604 617 605 629 614 612 612 597 616 588 609 658 583 592 604 583 607 598 631 532 585 602 614 582 563 637 575 593 611 647 612 603 543 610 602 589 621 590 591 563 546 590 561 612 589 604 637 593 632 578 582 668 554 611 595 579 594 534 552 617 610 579 566 588 605 590 615 606 550 624 591 573 566 587 593 582 558 602 616 624 608 553 580 591 610 629 590 623 579 580 615 618 572 635 609 621 594 571 623 572 621 566 569 653 629 594 600 645 593 592 660 538 616 604 587 595 555 591 600 574 567 668 580 599 622 551 626 593 607 617 628 563 621 632 618 555 582 561 613 589 595 568 632 608 599 615 662 603 594 590 597 600 580 615 608 582 626 581 609 564 590 604 596 576 576 621 598 580 564 625 579 599 621 603 588 579 612 599 585 614 619 534 551 603 610 592 630 622 601 680 619 566 605 605 621 622 610 610 618 616 620 617 613 621 540 636 600 591 594 571 625 604 612 567 648 618 576 611 585 663 543 580 594 605 620 609 588 584 592 628 609 628 557 581 629 598 612 589 600 629 603 607 644 655 652 613 632 651 632 642 654 668 635 596 662 650 593 602 648 630 617 611 597 634 599 609 632 654 616 621 670 674 674 652 676 617 580 628 599 646 616 605 599 653 659 632 668 630 640 612 620 617 597 625 626 571 615 587 648 623 624 627 611 629 635 650 628 621 592 637 572 581 625 559 588 609 564 620 586 587 619 569 619 602 613 628 599 573 584 608 621 586 546 603 634 603 617 569 617 549 626 593 585 598 657 613 608 597 546 589 623 630 597 639 603 620 637 623 592 626 623 587 626 600 537 607 585 596 545 572 583 569 590 621 610 604 590 637 588 600 653 588 671 595 593 588 604 641 570 575 564 635 608 613 531 599 586 582 663 620 619 535 579 587 573 604 583 584 575 587 595 591 618 609 585 611 599 601 565 584 579 557 554 607 604 597 555 599 556 609 544 602 573 572 589 578 600 613 568 615 574 611 562 585 601 624 599 572 610 549 575 598 615 542 580 587 574 555 565 568 588 567 640 578 574 559 618 602 591 586 637 611 598 576 574 594 637 585 620 634 639 638 609 628 664 642 625 589 590 621 648 601 587 632 585 650 621 587 595 620 650 670 621 592 571 633 648 621 621 597 607 631 603 637 613 577 615 644 614 643 622 591 591 683 616 610 606 587 649 618 631 584 663 627 666 581 616 633 640 631 653 634 612 677 595 605 612 641 642 633 590 619 616 612 613 643 662 618 654 614 614 607 634 596 571 641 618 579 628 657 600 578 656 650 640 612 596 599 590 672 621 621 624 629 617 607 643 614 593 592 666 587 613 632 582 625 604 624 609 658 622 632 629 581 642 654 644 641 594 596 607 652 673 650 637 622 659 603 673 661 687 672 674 657 642 644 675 672 658 657 703 669 623 637 663 675 612 643 704 632 640 633 627 710 594 625 649 631 625 624 621 630 595 637 604 565 582 586 626 596 594 593 595 548 548 604 565 625 600 601 570 607 539 605 620 587 616 601 596 580 576 593 568 584 582 562 544 584 591 568 610 582 616 603 648 624 561 603 596 583 602 552 590 564 541 542 583 573 594 579 575 594 602 577 569 600 570 558 556 563 546 566 541 583 576 572 579 569 600 584 581 528 558 566 573 550 598 565 552 572 579 558 595 556 558 619 600 581 565 550 545 537 568 610 605 591 597 605 539 579 620 574 564 573 587 573 563 585 569 575 564 552 569 577 576 558 559 537 570 624 571 583 553 565 562 613 551 604 551 568 576 585 503 545 554 551 565 544 521 545 554 548 621 658 553 557 581 600 578 552 590 559 562 594 570 572 571 537 605 528 602 514 573 592 570 560 578 574 602 527 595 586 603 538 587 561 568 553 567 554 545 577 557 553 595 571 610 539 549 621 558 594 589 585 566 580 562 621 629 590 546 592 597 590 584 573 561 579 546 580 595 563 564 576 531 587 604 568 566 572 576 593 574 547 593 526 586 574 584 544 579 568 571 549 597 507 596 569 573 552 588 583 585 562 569 565 569 533 527 626 545 582 547 568 600 534 571 554 611 564 569 591 607 577 566 537 587 565 549 589 590 567 586 557 596 565 585 572 577 559 555 539 574 599 519 537 601 526 592 609 569 585 520 580 530 573 549 581 582 619 557 552 594 585 552 540 565 591 533 620 589 539 573 514 591 549 580 548 575 591 563 588 517 564 576 588 579 557 592 575 558 566 578 548 548 533 540 566 527 600 537 576 547 557 550 551 570 610 605 600 594 557 547 591 584 594 601 588 578 570 550 530 574 561 545 574 560 569 571 537 573 564 547 590 591 524 556 533 558 515 535 574 515 582 592 610 586 548 534 513 539 589 558 572 570 558 575 560 625 588 538 546 607 576 544 596 601 537 543 574 608 574 570 605 568 578 559 550 544 564 572 589 561 576 636 528 591 569 613 543 584 534 569 578 596 581 579 584 533 589 595 581 578 580 570 563 593 567 568 607 585 596 595 540 562 598 587 546 568 648 569 551 631 537 574 561 570 618 606 616 570 653 599 602 558 627 668 595 569 607 596 585 594 584 552 581 583 570 579 556 563 655 583 555 590 541 650 592 605 550 568 597 601 607 622 638 606 581 615 604 601 588 570 586 573 571 627 595 588 597 634 604 601 569 651 605 600 588 586 615 606 594 563 610 644 628 620 614 593 602 636 633 573 612 632 631 615 597 654 623 632 638 583 672 609 636 601 648 610 620 674 638 648 642 600 663 617 600 607 634 660 600 604 617 566 609 594 613 623 617 588 646 613 636 643 660 628 638 602 649 571 596 612 568 601 615 589 584 607 567 593 603 655 600 565 595 626 611 616 592 606 611 581 622 579 618 575 591 627 608 653 586 600 601 600 597 614 569 611 558 590 566 639 624 595 597 589 606 588 590 547 589 640 546 668 571 574 573 582 573 566 553 581 627 604 604 632 628 634 587 629 621 581 611 604 604 603 637 598 618 671 639 665 608 639 610 603 673 650 637 713 689 659 748 674 675 720 714 769 747 758 791 829 743 741 795 795 733 730 681 697 716 706 685 671 686 676 667 637 696 672 652 658 685 644 680 650 697 674 653 675 661 625 655 633 598 627 673 656 597 612 621 604 619 579 586 591 611 641 584 599 598 577 606 643 553 597 581 582 609 566 657 622 573 644 617 603 567 583 579 603 605 629 586 647 653 644 652 639 604 616 615 648 683 619 647 621 643 588 633 596 628 611 642 643 690 624 620 647 623 646 623 623 648 665 682 678 663 637 687 671 660 642 626 662 677 643 631 672 703 656 637 702 653 670 662 661 618 654 592 700 664 642 684 674 696 692 667 619 672 667 618 635 625 595 573 586 652 676 637 645 653 627 586 644 649 650 681 686 635 632 621 647 578 664 639 617 630 657 647 613 656 656 666 653 661 668 661 636 640 635 608 628 609 641 603 630 605 717 654 612 587 649 637 647 642 646 648 681 609 694 646 688 621 644 666 622 686 655 699 672 707 678 720 709 704 726 722 698 696 710 720 751 763 726 780 727 778 837 754 815 788 781 768 805 787 852 850 841 851 877 898 846 905 892 850 878 833 809 769 792 763 774 771 767 750 785 778 699 779 763 767 715 787 724 720 694 734 735 718 673 661 717 739 686 666 662 666 666 652 642 604 655 643 657 605 622 623 632 605 597 669 649 598 649 608 625 621 649 597 654 606 681 635 633 615 605 632 620 639 658 601 621 620 625 617 596 651 660 603 656 627 610 575 595 647 631 585 576 591 587 592 594 608 640 616 636 575 622 629 631 628 593 577 651 607 632 617 590 631 613 623 666 587 591 592 610 585 630 574 594 595 607 573 570 643 645 611 612 630 637 603 629 617 623 663 631 634 601 634 649 618 640 639 634 607 629 609 623 598 600 616 643 635 629 625 590 629 599 617 609 596 608 600 599 594 630 595 600 643 649 619 596 623 614 621 652 637 642 584 628 651 617 675 638 637 622 594 658 630 666 662 671 587 653 622 686 635 647 655 667 646 625 624 621 679 659 662 739 634 718 691 650 699 668 710 713 656 717 644 642 688 679 681 740 682 767 767 687 713 693 689 699 781 720 606 743 767 683 729 782 734 741 782 775 715 731 705 715 712 680 734 734 708 746 721 737 714 661 677 735 724 760 701 739 748 753 688 678 721 737 719 731 706 720 675 742 704 700 734 694 704 649 733 615 671 656 716 608 696 682 677 671 670 689 678 629 652 658 644 610 618 588 605 651 633 642 614 620 642 657 614 645 607 604 624 582 622 606 611 594 621 637 590 615 632 623 654 575 624 597 620 622 551 562 599 584 611 592 579 551 625 592 624 630 612 619 565 605 588 592 641 641 590 588 591 595 592 615 610 614 639 612 570 555 598 562 600 588 593 610 628 598 631 601 556 621 580 578 620 610 610 597 585 562 560 590 588 616 560 583 571 631 551 633 647 629 595 563 639 602 635 586 597 589 636 633 579 570 618 623 643 603 568 614 594 607 567 579 591 644 560 634 621 596 594 623 547 581 590 644 607 588 541 583 600 627 618 626 561 589 577 632 639 565 598 593 602 580 659 580 622 615 611 597 577 605 591 597 617 627 611 533 635 575 592 581 588 596 596 619 563 610 620 610 642 567 624 591 597 644 592 655 616 571 638 628 563 644 603 612 583 603 611 612 622 611 574 611 619 566 554 623 555 655 620 587 606 614 616 628 585 610 617 555 618 602 614 579 614 637 623 649 603 660 621 649 635 590 575 599 600 592 585 595 608 652 651 613 603 583 577 627 636 609 674 630 621 554 599 644 566 663 582 591 642 610 622 665 595 644 600 636 638 564 634 542 624 654 549 595 629 580 640 637 637 652 660 618 650 598 645 586 637 666 613 605 604 631 619 596 638 577 555 614 583 667 569 572 607 611 638 550 625 585 625 569 596 594 600 617 624 667 606 608 666 638 631 589 645 567 575 621 576 594 596 607 575 560 586 593 636 594 596 604 610 589 566 617 618 640 615 598 634 589 603 597 627 622 614 633 585 660 581 652 637 619 596 589 625 564 593 581 588 644 620 604 613 592 572 544 578 634 592 599 604 610 596 570 600 595 596 597 620 573 636 612 601 617 674 632 612 630 548 607 627 607 590 602 596 583 604 601 570 611 623 602 638 626 639 615 604 593 585 656 658 609 602 628 638 586 612 591 643 598 640 629 607 634 597 600 603 626 606 621 629 639 623 618 624 630 586 614 610 639 599 617 616 603 605 631 603 610 641 626 610 627 626 636 643 658 667 691 631 690 712 671 612 630 656 690 616 643 655 675 682 722 654 675 653 594 657 659 628 643 662 641 665 703 599 679 631 682 651 651 685 670 661 637 619 676 695 627 649 677 636 678 614 701 624 692 648 665 675 645 658 649 621 673 652 647 685 620 704 646 658 629 663 606 677 620 664 665 654 647 639 608 617 641 560 617 658 635 649 641 585 646 615 654 600 662 598 660 648 668 582 638 613 646 626 683 612 631 595 657 650 618 581 610 621 591 624 603 694 602 636 626 607 649 606 630 645 638 601 592 663 596 645 606 654 636 670 629 568 618 601 595 582 624 605 667 580 636 594 635 679 633 633 618 632 611 572 640 604 637 615 639 626 677 679 657 701 680 685 695 716 672 725 726 713 744 721 763 747 759 764 753 771 782 799 774 829 884 851 872 822 865 798 781 792 760 788 699 742 679 739 740 703 686 694 735 714 688 726 717 722 753 731 734 748 750 728 759 733 708 688 721 665 687 711 667 673 631 652 655 659 625 638 589 606 590 617 605 597 656 633 640 599 625 600 610 639 594 561 579 610 586 608 626 599 589 577 551 635 588 580 576 611 620 586 594 600 613 640 573 586 577 617 601 574 579 642 573 541 636 585 583 619 584 556 595 576 580 612 571 617 593 559 560 609 601 606 576 573 586 624 576 551 602 578 571 553 591 631 590 597 551 600 620 578 646 574 556 577 569 591 601 581 577 614 583 574 601 565 588 608 628 647 607 566 575 584 575 546 609 592 573 572 554 617 559 566 574 569 562 588 582 552 578 560 529 582 571 557 539 606 547 570 577 618 592 550 596 554 613 554 606 592 593 601 604 568 613 567 555 581 601 544 551 553 603 647 620 584 597 625 625 574 584 601 627 596 577 558 592 559 523 556 570 588 596 564 633 610 617 588 620 550 599 607 564 554 548 608 576 594 571 624 593 554 593 579 585 546 570 573 609 610 547 589 593 581 588 585 593 608 618 613 587 535 556 555 563 623 585 567 619 557 557 614 547 611 591 563 549 585 570 591 547 555 548 614 619 612 570 556 572 629 547 579 588 616 587 610 551 596 571 595 533 623 597 585 585 614 570 595 591 569 580 569 591 534 572 586 546 555 582 554 566 528 594 567 638 520 598 606 574 558 584 562 572 594 603 566 565 579 547 574 580 582 574 617 535 582 599 522 592 554 589 551 605 571 593 562 585 584 581 556 582 609 580 580 563 619 624 595 576 601 577 606 589 563 609 565 615 613 564 583 560 621 561 624 565 563 612 593 568 577 553 585 603 589 582 589 597 612 531 653 605 565 614 621 640 596 661 597 561 581 587 657 565 584 630 586 568 573 607 588 597 599 537 627 597 634 613 578 613 575 587 584 555 568 630 632 581 656 614 586 635 665 588 624 569 618 603 603 573 623 624 592 687 562 635 677 599 682 586 646 661 632 618 638 634 622 620 593 644 650 598 663 644 634 560 614 628 605 629 681 615 677 647 623 652 665 630 620 625 588 650 623 634 606 689 587 649 575 620 648 628 619</counts>
			</dataPoints>
		</scan>
	</xrdMeasurement>
</xrdMeasurements>
