<?xml version="1.0"?>
<xrdMeasurements xmlns="http://www.xrdml.com/XRDMeasurement/2.3" xmlns:xsi="http://www.w3.org/2001/XMLSchema-instance" xsi:schemaLocation="http://www.xrdml.com/XRDMeasurement/2.3 http://www.xrdml.com/XRDMeasurement/2.3/XRDMeasurement.xsd" status="Completed" recordIdentifier="{0B9E8159-3331-4464-9999-73E11925AACB}">
	<comment>
		<entry/>
	</comment>
	<sample type="To be analyzed">
		<id>GPSS_Li1p6Fe0p9V0p2Cl4_121225_693c5ab8f4d05ae3d6974f1c</id>
		<name></name>
		<preparedBy></preparedBy>
	</sample>
	<xrdMeasurement measurementType="Scan" status="Completed" sampleMode="Reflection">
		<usedWavelength intended="K-Alpha 1">
			<kAlpha1 unit="Angstrom">1.5405980</kAlpha1>
			<kAlpha2 unit="Angstrom">1.5444260</kAlpha2>
			<kBeta unit="Angstrom">1.3922500</kBeta>
			<ratioKAlpha2KAlpha1>0.5000</ratioKAlpha2KAlpha1>
		</usedWavelength>
		<incidentBeamPath>
			<radius unit="mm">145.00</radius>
			<xRayTube id="1010048" name="Empyrean Cu LFF HR (9430 033 7310x)">
				<tension unit="kV">40.0</tension>
				<current unit="mA">15.0</current>
				<anodeMaterial>Cu</anodeMaterial>
				<focus type="Line">
					<length unit="mm">12.0</length>
					<width unit="mm">0.4</width>
					<takeOffAngle unit="deg">6.0</takeOffAngle>
				</focus>
			</xRayTube>
			<sollerSlit id="21010002" name="Soller slits 0.04 rad.">
				<opening unit="rad">0.0400</opening>
			</sollerSlit>
			<mask id="22031000" name="Fixed mask 13 mm">
				<width unit="mm">9.00</width>
			</mask>
			<divergenceSlit id="22120001" name="Divergence slit 1°" xsi:type="fixedDivergenceSlitType">
				<distanceToSample unit="mm">50.00</distanceToSample>
				<height unit="mm">1.52</height>
			</divergenceSlit>
		</incidentBeamPath>
		<sampleMovement xsi:type="spinningSampleMovementType">
			<spinnerRevolutionTime unit="seconds">1.0</spinnerRevolutionTime>
		</sampleMovement>
		<diffractedBeamPath>
			<radius unit="mm">145.00</radius>
			<antiScatterSlit id="22090040" name="AS slit 9 mm (PIXcel)" xsi:type="fixedAntiScatterSlitType">
				<height unit="mm">9.00</height>
			</antiScatterSlit>
			<sollerSlit id="21020003" name="Large Soller slits 0.04 rad.">
				<opening unit="rad">0.0400</opening>
			</sollerSlit>
			<filter id="20030001" name="Large beta-filter Nickel">
				<material>Ni</material>
				<thickness unit="mm">0.020</thickness>
			</filter>
			<detector id="7010019" name="PIXcel1D-Medipix3 detector" xsi:type="rtmsDetectorType">
				<phd unit="keV">
					<lowerLevel>4.02</lowerLevel>
					<upperLevel>11.27</upperLevel>
				</phd>
				<mode>Scanning</mode>
				<activeLength unit="deg">5.542</activeLength>
			</detector>
		</diffractedBeamPath>
		<scan appendNumber="0" mode="Continuous" scanAxis="Gonio" status="Completed">
			<header>
				<startTimeStamp>2025-12-16T12:37:03-08:00</startTimeStamp>
				<endTimeStamp>2025-12-16T12:45:11-08:00</endTimeStamp>
				<author>
					<name>AutomatedUser</name>
				</author>
				<source>
					<applicationSoftware version="1.7b (136)">PANalytical Aeris Instrument Suite</applicationSoftware>
					<instrumentControlSoftware version="3.2.00000000 20240306">AERIS</instrumentControlSoftware>
					<instrumentID>950485</instrumentID>
				</source>
			</header>
			<dataPoints>
				<positions axis="2Theta" unit="deg">
					<startPosition>10.00943322</startPosition>
					<endPosition>99.99442286</endPosition>
				</positions>
				<positions axis="Omega" unit="deg">
					<startPosition>5.00471661</startPosition>
					<endPosition>49.99721143</endPosition>
				</positions>
				<commonCountingTime unit="seconds">12.495</commonCountingTime>
				<counts unit="counts">3191 3227 3087 3237 3200 3186 3242 3153 3234 3141 3225 3217 3230 3262 3155 3220 3114 3153 3165 3132 3180 3211 3156 3279 3230 3188 3166 3099 3226 3221 3221 3110 3211 3243 3310 3287 3223 3207 3229 3175 3210 3191 3054 3196 3304 3069 3252 3259 3296 3203 3182 3184 3160 3223 3228 3269 3195 3209 3197 3188 3272 3240 3190 3291 3291 3261 3365 3274 3234 3319 3360 3341 3310 3375 3255 3389 3272 3518 3241 3387 3361 3310 3321 3394 3352 3366 3410 3336 3385 3463 3379 3401 3390 3385 3546 3399 3415 3359 3396 3486 3365 3358 3456 3374 3507 3485 3430 3439 3403 3408 3307 3428 3434 3418 3389 3491 3307 3368 3368 3444 3436 3412 3378 3461 3429 3271 3434 3432 3397 3413 3226 3367 3306 3281 3366 3359 3402 3406 3347 3329 3232 3332 3271 3341 3345 3333 3350 3223 3324 3343 3419 3303 3350 3412 3358 3322 3284 3262 3232 3199 3313 3305 3308 3304 3289 3313 3261 3325 3310 3268 3342 3256 3271 3283 3320 3402 3313 3163 3423 3222 3325 3388 3298 3317 3286 3311 3238 3327 3305 3295 3412 3270 3308 3297 3245 3304 3152 3346 3331 3350 3419 3356 3481 3299 3379 3262 3314 3242 3359 3181 3488 3311 3325 3421 3297 3329 3209 3277 3372 3360 3260 3306 3457 3262 3378 3242 3355 3470 3413 3272 3376 3263 3347 3279 3309 3153 3413 3318 3256 3356 3393 3192 3293 3426 3390 3355 3385 3413 3311 3302 3264 3384 3227 3282 3287 3442 3228 3364 3369 3357 3322 3367 3411 3342 3295 3381 3314 3407 3398 3323 3315 3320 3367 3191 3385 3380 3483 3401 3406 3494 3463 3284 3361 3471 3418 3470 3541 3511 3607 3507 3399 3416 3382 3438 3488 3470 3445 3457 3428 3434 3476 3392 3484 3424 3463 3359 3434 3491 3480 3497 3519 3553 3466 3439 3575 3546 3565 3480 3566 3526 3475 3569 3538 3541 3505 3493 3487 3583 3631 3534 3593 3579 3595 3590 3571 3609 3598 3606 3629 3724 3578 3680 3660 3567 3738 3616 3621 3681 3698 3584 3653 3742 3854 3774 3662 3688 3779 3768 3737 3847 3767 3708 3764 3725 3780 3798 3794 3842 3712 3929 3820 3755 3788 3866 3840 3909 3895 3804 3884 3905 3904 3873 3929 3948 3936 3765 3906 3908 4015 4042 3981 4015 3996 4065 4018 3945 4052 3937 4024 4008 4046 4037 3998 4103 4113 4202 4190 4251 4206 4106 4096 4223 4204 4221 4440 4385 4195 4309 4283 4486 4601 4505 4416 4596 4603 4728 4733 4809 4900 5021 5105 5277 5494 5529 5689 5645 5859 5961 5918 6031 5978 6052 6069 6074 6086 6149 5952 6144 6094 6107 6062 6067 6059 6292 6148 6343 6141 6047 6078 6173 6074 6189 5896 5734 5755 5673 5524 5473 5367 5249 5044 4982 4924 5024 4805 4794 4691 4677 4583 4671 4599 4578 4603 4639 4585 4621 4455 4594 4502 4494 4418 4456 4438 4475 4315 4346 4393 4359 4324 4162 4326 4269 4271 4244 4167 4244 4272 4130 4183 4070 4154 4094 4031 4045 4035 4077 4008 4074 4074 4036 4109 4089 4084 4127 4061 3987 3985 3988 3874 4099 4047 3921 4050 3957 3976 3988 4038 3928 3956 3969 4013 3976 3936 4089 4040 3933 3928 3971 3925 3963 3876 3937 3915 3986 3888 3939 3983 3839 3880 4046 3907 4046 3941 3962 3906 3871 3963 3995 3858 3915 3946 3794 3951 3872 3804 3869 3882 3922 3949 3845 3842 3915 3825 3956 3789 3807 3794 3968 3841 3873 3847 3754 3961 3819 3767 3830 3783 3665 3827 3703 3824 3736 3729 3828 3755 3781 3669 3768 3720 3700 3858 3697 3749 3734 3756 3635 3652 3753 3796 3700 3806 3727 3730 3736 3721 3669 3811 3731 3685 3771 3676 3708 3670 3773 3711 3624 3768 3708 3732 3716 3790 3641 3718 3629 3722 3600 3584 3727 3699 3699 3748 3665 3640 3692 3676 3669 3705 3836 3689 3636 3531 3771 3703 3631 3689 3565 3691 3665 3676 3704 3732 3760 3572 3671 3795 3739 3704 3754 3678 3683 3696 3654 3654 3587 3700 3544 3496 3567 3708 3751 3705 3722 3680 3609 3623 3586 3566 3648 3584 3701 3636 3703 3516 3689 3527 3647 3673 3629 3610 3645 3626 3671 3563 3605 3606 3534 3627 3601 3623 3661 3612 3600 3760 3538 3603 3693 3549 3629 3487 3608 3549 3573 3595 3608 3522 3596 3634 3630 3590 3592 3567 3476 3580 3612 3493 3604 3582 3534 3545 3568 3638 3655 3541 3673 3627 3551 3634 3519 3600 3636 3423 3518 3614 3531 3445 3558 3573 3493 3522 3496 3672 3589 3567 3588 3552 3530 3514 3611 3475 3559 3485 3473 3501 3579 3614 3539 3582 3528 3602 3539 3623 3527 3545 3543 3562 3500 3548 3503 3440 3591 3554 3468 3603 3391 3455 3564 3483 3498 3557 3607 3566 3547 3529 3573 3567 3613 3616 3562 3540 3546 3444 3633 3437 3463 3517 3553 3516 3487 3415 3544 3414 3500 3540 3312 3449 3683 3485 3315 3504 3525 3413 3503 3504 3473 3417 3366 3478 3397 3392 3500 3536 3420 3395 3440 3493 3445 3551 3513 3405 3439 3397 3500 3442 3347 3540 3516 3535 3342 3511 3314 3350 3451 3555 3449 3448 3444 3473 3481 3461 3368 3400 3417 3497 3488 3386 3363 3393 3399 3524 3361 3402 3398 3390 3441 3402 3427 3465 3368 3478 3318 3445 3475 3394 3482 3361 3444 3309 3376 3359 3352 3372 3419 3499 3458 3463 3393 3446 3334 3370 3371 3303 3418 3357 3308 3369 3375 3401 3391 3307 3327 3289 3284 3326 3257 3297 3427 3399 3359 3390 3273 3374 3237 3317 3357 3320 3394 3404 3397 3334 3321 3290 3409 3364 3336 3290 3385 3309 3389 3370 3326 3305 3403 3211 3224 3398 3283 3344 3302 3298 3240 3326 3300 3242 3327 3331 3378 3397 3382 3285 3399 3303 3265 3273 3406 3369 3270 3289 3322 3401 3264 3416 3292 3352 3192 3377 3383 3337 3310 3280 3371 3381 3349 3236 3335 3230 3370 3293 3394 3308 3397 3300 3208 3321 3479 3321 3242 3339 3307 3303 3271 3315 3309 3239 3277 3174 3288 3197 3226 3278 3324 3318 3363 3240 3292 3392 3377 3284 3342 3306 3271 3171 3242 3258 3228 3178 3278 3199 3259 3189 3244 3273 3306 3373 3237 3349 3344 3287 3329 3322 3289 3253 3202 3244 3269 3286 3356 3184 3239 3349 3254 3185 3356 3296 3260 3252 3211 3369 3350 3342 3233 3287 3146 3206 3242 3359 3396 3264 3339 3298 3302 3383 3316 3296 3364 3342 3334 3329 3306 3461 3285 3217 3302 3309 3386 3260 3297 3289 3247 3382 3243 3308 3354 3340 3182 3333 3251 3276 3256 3334 3251 3277 3383 3290 3205 3187 3273 3235 3291 3280 3268 3277 3289 3167 3198 3194 3325 3273 3260 3201 3313 3207 3291 3191 3186 3327 3157 3173 3179 3282 3189 3189 3219 3168 3284 3152 3326 3231 3122 3209 3230 3203 3086 3165 3179 3156 3116 3187 3147 3216 3147 3165 3192 3185 3216 3135 3125 3237 3292 3088 3165 3163 3185 3152 3199 3140 3136 3089 3223 3160 3077 3121 3158 3142 3174 3047 3090 3131 3004 3113 3156 3197 3031 3141 3246 3027 3161 3090 3141 2988 3097 3129 3138 3085 3099 3055 3021 3045 3142 3001 3121 3036 3020 3061 3074 2974 3144 3023 3070 2988 3040 3055 2943 3079 3036 3050 3018 3040 3054 2990 2953 2974 3026 2964 2946 2975 2933 3022 2995 2944 3067 3015 2927 2933 3027 2851 3033 2971 2985 2881 3006 2995 2977 2976 2968 2952 2944 2988 2914 2934 2976 2886 2974 2839 2931 2868 2848 2929 2925 2850 2885 2928 2843 2865 3017 2964 2935 2904 2915 2934 2869 2906 2933 2885 2922 2904 2919 2820 2823 2842 2865 2809 2872 2860 2881 2947 2785 2828 2915 2779 2862 2805 2903 2858 2857 2857 2801 2898 2807 2818 2842 2837 2762 2881 2898 2926 2916 2959 2854 2803 2867 2832 2839 2862 2810 2852 2867 2868 2961 2918 2769 2842 2865 2768 2842 2760 2774 2730 2806 2802 2913 2831 2847 2772 2801 2787 2832 2929 2872 2818 2849 2770 2796 2778 2758 2899 2827 2778 2775 2720 2790 2809 2817 2753 2844 2805 2828 2758 2912 2637 2780 2739 2868 2827 2770 2773 2776 2788 2744 2794 2749 2800 2753 2770 2821 2690 2864 2809 2760 2750 2711 2810 2856 2766 2825 2735 2705 2839 2788 2794 2785 2786 2762 2793 2812 2655 2740 2750 2813 2755 2788 2707 2730 2820 2849 2754 2800 2713 2828 2815 2873 2717 2735 2795 2794 2712 2879 2775 2709 2808 2745 2763 2706 2839 2744 2681 2812 2788 2815 2821 2794 2774 2812 2744 2720 2815 2796 2793 2832 2867 2753 2807 2828 2789 2886 2693 2887 2798 2714 2827 2821 2790 2790 2886 2840 2784 2785 2828 2848 2840 2774 2722 2787 2818 2760 2713 2771 2800 2808 2738 2838 2795 2817 2754 2838 2671 2800 2756 2874 2828 2922 2850 2804 2836 2819 2783 2708 2862 2748 2813 2929 2732 2885 2797 2770 2797 2835 2932 2893 2776 2862 2761 2861 2808 2873 2768 2773 2787 2629 2814 2783 2783 2713 2819 2755 2740 2741 2823 2836 2741 2769 2829 2677 2755 2701 2914 2691 2813 2738 2812 2772 2774 2792 2754 2731 2698 2803 2720 2743 2707 2740 2700 2772 2675 2763 2741 2675 2682 2633 2757 2800 2749 2698 2705 2708 2774 2772 2732 2689 2619 2740 2735 2753 2627 2681 2677 2689 2644 2568 2636 2669 2693 2721 2651 2620 2656 2780 2614 2536 2710 2772 2639 2559 2605 2744 2697 2609 2663 2692 2686 2708 2654 2654 2561 2615 2593 2654 2713 2658 2619 2596 2579 2522 2598 2595 2657 2584 2528 2579 2619 2585 2573 2592 2678 2558 2675 2642 2687 2633 2620 2561 2486 2529 2632 2551 2640 2568 2626 2586 2500 2600 2648 2631 2652 2541 2499 2535 2590 2553 2520 2519 2586 2600 2511 2610 2623 2691 2502 2508 2633 2573 2619 2575 2542 2542 2550 2570 2514 2673 2650 2575 2632 2557 2641 2554 2602 2648 2601 2611 2619 2629 2774 2844 2806 2986 2870 2967 2952 3053 3045 3228 3218 3344 3367 3368 3423 3456 3399 3432 3577 3413 3517 3593 3610 3420 3580 3619 3500 3604 3600 3606 3638 3553 3617 3579 3608 3473 3448 3498 3445 3445 3215 3251 3256 3128 2982 2954 3000 2857 2801 2765 2723 2852 2625 2738 2726 2657 2643 2573 2534 2551 2571 2655 2579 2610 2578 2552 2549 2570 2682 2570 2672 2628 2584 2560 2458 2597 2598 2510 2580 2481 2546 2443 2575 2547 2521 2544 2559 2516 2561 2569 2459 2562 2432 2492 2510 2400 2605 2488 2542 2488 2496 2509 2445 2484 2470 2411 2494 2489 2483 2494 2487 2541 2619 2583 2608 2532 2609 2622 2733 2730 2787 2792 2828 3049 3086 3262 3318 3386 3508 3576 3673 3782 3835 3714 3950 3963 3973 3952 3997 3927 4009 4100 3936 4080 4068 4019 4114 4265 4221 4339 4397 4284 4154 4283 4218 4085 3990 4024 3775 3728 3674 3510 3488 3331 3191 3172 3110 2942 2866 2914 2903 2821 2714 2677 2653 2512 2629 2522 2573 2567 2474 2514 2513 2494 2516 2550 2506 2451 2473 2530 2525 2481 2527 2569 2466 2459 2387 2484 2460 2444 2467 2485 2439 2503 2420 2442 2457 2458 2416 2389 2428 2440 2306 2315 2332 2401 2317 2373 2347 2423 2296 2337 2317 2311 2234 2339 2363 2250 2178 2232 2297 2372 2375 2387 2280 2210 2167 2309 2340 2274 2321 2277 2306 2195 2280 2267 2213 2305 2329 2250 2246 2322 2273 2197 2302 2304 2330 2243 2297 2238 2286 2268 2313 2210 2301 2190 2342 2312 2277 2288 2260 2185 2218 2245 2291 2192 2307 2212 2212 2304 2298 2259 2158 2264 2245 2278 2277 2263 2209 2273 2223 2242 2345 2196 2111 2326 2172 2235 2318 2189 2287 2221 2288 2235 2190 2267 2191 2158 2269 2160 2273 2186 2166 2229 2260 2280 2303 2194 2226 2256 2205 2129 2194 2184 2223 2271 2293 2147 2291 2180 2224 2308 2281 2298 2192 2208 2247 2256 2270 2199 2194 2175 2241 2268 2202 2196 2214 2229 2223 2121 2216 2294 2170 2154 2230 2124 2209 2232 2192 2258 2220 2256 2222 2211 2131 2198 2169 2214 2206 2239 2181 2260 2227 2196 2204 2186 2228 2218 2200 2265 2200 2120 2213 2192 2235 2218 2260 2203 2297 2152 2220 2196 2169 2267 2152 2267 2292 2356 2193 2267 2171 2229 2142 2272 2229 2201 2288 2256 2227 2209 2332 2199 2252 2204 2274 2254 2275 2251 2215 2242 2250 2243 2207 2205 2160 2295 2184 2163 2285 2158 2114 2186 2169 2145 2159 2202 2188 2175 2251 2199 2176 2178 2202 2264 2218 2263 2240 2273 2196 2257 2268 2261 2254 2144 2214 2204 2177 2223 2237 2280 2243 2273 2250 2202 2194 2211 2212 2227 2135 2203 2211 2196 2210 2206 2232 2238 2228 2181 2195 2193 2252 2298 2256 2248 2139 2221 2275 2254 2219 2252 2196 2244 2287 2233 2213 2186 2193 2318 2259 2240 2203 2290 2215 2253 2236 2156 2274 2169 2258 2204 2270 2215 2162 2340 2341 2296 2345 2232 2342 2229 2321 2187 2272 2385 2203 2323 2317 2322 2338 2367 2375 2396 2337 2409 2402 2392 2369 2411 2414 2487 2369 2486 2482 2471 2502 2550 2567 2581 2585 2645 2771 2713 2949 2890 3178 3264 3536 3622 4005 4227 4683 4998 5616 5977 6349 6901 7192 7475 8138 8562 8783 9060 8862 9013 8931 9024 9187 9410 9062 9599 9275 9210 9309 9112 9259 9268 9403 9410 9448 9315 9187 8900 8582 8347 8121 7813 7530 7219 7016 6583 6136 5936 5514 5077 4905 4638 4312 4191 3813 3709 3623 3447 3364 3226 3169 3095 3064 3037 2948 2889 2839 2817 2870 2796 2809 2830 2882 2775 2761 2812 2753 2839 2774 2769 2721 2809 2768 2616 2716 2680 2812 2684 2763 2627 2701 2682 2629 2638 2553 2722 2613 2531 2547 2453 2537 2465 2546 2442 2500 2507 2501 2501 2316 2349 2458 2335 2345 2276 2283 2308 2358 2373 2250 2391 2242 2328 2322 2336 2179 2258 2308 2233 2248 2242 2297 2150 2276 2203 2279 2190 2294 2275 2131 2269 2291 2228 2210 2261 2217 2170 2230 2194 2212 2206 2217 2165 2190 2189 2187 2149 2298 2183 2222 2081 2187 2191 2168 2202 2218 2260 2086 2185 2150 2179 2148 2158 2112 2136 2303 2123 2139 2225 2235 2106 2193 2143 2174 2121 2180 2210 2145 2164 2138 2198 2149 2123 2059 2091 2199 2163 2108 2178 2151 2173 2120 2164 2091 2103 2133 2187 2125 2154 2168 2115 2140 2055 2260 2182 2052 2104 2130 2162 2067 2196 2150 2227 2135 2142 2080 2209 2148 2091 2203 2212 2111 2160 2233 2040 2056 2213 2105 2112 2076 2165 2088 2098 2044 2131 2185 2033 2048 2202 2160 2112 2107 2068 2175 2175 2101 2117 2167 2086 2118 2131 2210 2107 2193 2163 2155 2108 2168 2119 2111 2182 2105 2089 2121 2074 2121 2213 2131 2123 2218 2129 2025 2099 2113 2085 2099 2171 2191 2114 2255 2171 2148 2155 2113 2169 2098 2086 2076 2036 2034 2134 2055 2104 2072 2080 2098 2124 2108 2166 2149 2149 2224 2198 2242 2180 2274 2221 2295 2147 2191 2188 2166 2304 2168 2229 2224 2210 2124 2267 2190 2255 2272 2260 2221 2248 2166 2181 2211 2217 2240 2243 2218 2262 2178 2211 2174 2168 2263 2107 2132 2164 2169 2198 2160 2140 2097 2107 2182 2095 2139 2108 2144 1988 2112 2115 2091 2081 2135 2131 2161 2164 2103 2081 2105 2058 2182 2017 2067 2062 2070 2082 2102 2096 2209 2107 2108 2130 2070 2181 2023 2086 2156 2059 2133 2139 2059 2074 2122 2129 2152 2066 2050 2044 2063 2049 2109 2099 2114 2070 2046 2126 2090 2084 2070 1999 2106 1996 2071 2048 2038 2047 2037 2031 2137 2102 2035 2075 2103 2173 2132 2023 2076 2044 2120 2144 2111 2071 1978 2060 2092 2086 2047 2086 2080 2186 2061 2088 2150 2107 2028 2023 2098 2054 2076 2081 2097 2067 2107 2144 2139 2055 2029 2147 2031 2072 2056 2056 2082 2017 2054 2016 2117 2098 1994 2023 2027 2077 2072 2030 2016 2006 2020 2141 2023 2000 2080 2139 2034 2121 2063 2175 2068 2025 2107 2043 2045 1995 2115 2082 2053 2066 2107 2075 1911 2094 2009 2059 2145 2025 2013 2012 2050 2049 2029 2091 2033 2027 2087 1995 2084 2068 2060 2059 2056 2016 2088 2025 2071 2002 2067 2027 2107 2025 2154 2070 2167 2074 2026 2072 2002 2050 2076 2018 2039 2094 1982 2093 2048 1998 2067 2043 1985 2016 2049 2002 2101 2011 2043 1961 2064 2106 1992 2007 2074 2093 2037 2047 2131 2047 2071 2122 2009 2093 1996 2015 2064 1997 2044 2086 2043 2007 1987 2029 1989 2069 2118 2088 1954 1980 2046 2081 2040 2007 2025 2021 2030 2017 2046 2016 2028 2092 1997 2047 1967 2093 2007 1936 2017 1985 2065 2029 2055 2074 2099 2121 2118 2047 2062 2018 2001 2068 2041 2035 2162 2070 2066 2051 2006 2036 2095 2062 1972 1965 2060 2033 2055 2038 2040 2054 2000 1978 2050 2076 2055 2052 2013 2048 2091 2008 2075 2095 2060 2036 2076 2039 2018 2098 2012 2047 2046 2014 1951 2008 2098 2051 2099 1935 2058 2053 1936 2142 1988 2007 2017 2114 2035 2028 1964 2107 2044 2048 1987 2035 2073 2040 2036 2055 2004 2015 2021 2100 2042 2039 2099 1994 2032 1974 1976 2001 1988 2067 1974 2024 2047 2088 2096 1987 2045 2044 2053 2033 2013 2001 1950 1957 2049 2030 2158 2026 2025 2098 2035 2156 2058 2092 1976 1971 2083 2075 2096 2105 2032 1973 1982 1991 1988 2035 2025 2078 2071 2065 2095 2037 2059 1959 1990 2049 2017 2098 2032 2050 2000 2006 2012 1978 2099 2048 2057 2030 2024 1939 2118 2046 1988 1980 2084 2081 2006 1984 2009 1940 2069 2008 2042 2077 1937 1987 2025 2103 2032 2072 1999 2029 1997 2079 2035 1999 2009 1949 2096 1966 2024 2090 2022 2061 2022 2101 2061 2033 2043 2033 1999 1942 1990 2078 2074 2012 2068 1995 2037 2105 2064 2087 2092 2037 1952 1971 2084 2025 2020 2094 2041 2073 2006 2030 2034 1957 2035 2020 2033 1972 1990 1990 2048 2015 2012 2029 2039 1989 1924 2024 2004 2046 2050 2012 2037 2006 2086 2022 1944 1975 1951 2015 1961 2030 1979 1974 1974 1987 1999 2079 1940 2095 2009 2054 2038 2113 2001 2039 1943 2078 2010 2059 1931 2026 1985 1999 2025 2077 2139 2123 2081 2069 2086 2026 1966 2087 2033 2082 2074 2041 2108 2065 2050 2093 2019 1986 1991 1974 1993 2062 2039 2008 2060 2041 1984 2081 1988 2036 2015 2076 2012 1948 2066 1989 2049 2043 2066 2003 2065 2047 2140 1985 2034 1938 2023 2083 2033 1997 2014 2042 2064 2054 2088 1963 2064 1895 2018 2020 2004 1999 2038 1970 2022 2065 1956 1980 2038 2059 2091 2034 2054 2061 2086 2052 2005 2067 2060 2021 2067 2046 2017 2008 1989 2068 2154 1975 2053 2105 2124 2021 2129 1972 2092 2107 2050 1976 2058 2052 2116 1975 2100 2045 2053 2060 2117 2068 2111 2093 2033 2082 2104 2041 2047 2134 2112 2104 2076 2045 2069 2176 2180 2194 2232 2299 2279 2306 2360 2404 2521 2419 2524 2519 2491 2597 2605 2606 2709 2753 2692 2785 2739 2842 2747 2922 2771 2843 2915 2838 2929 2835 2781 2869 2947 2886 2816 2859 2787 2738 2724 2715 2584 2671 2609 2504 2483 2509 2559 2459 2371 2397 2371 2289 2263 2213 2253 2275 2238 2237 2146 2079 2202 2114 2148 2102 2206 2081 2083 2113 2046 2160 2032 2050 2071 2120 2149 2148 1996 2057 2116 2000 2090 2043 2073 1992 2108 2068 2068 2000 1991 2074 2154 2060 2053 2116 2092 2026 1990 2009 2083 2047 2101 1936 2082 2064 1910 2138 1985 1974 1966 2056 2043 2076 2060 1990 1990 2008 2092 1938 2094 2001 1998 1953 2101 2040 2030 2035 1963 2030 2034 2083 1986 1991 2022 2030 2059 2007 1975 1929 2002 1943 1913 1991 1952 1937 2114 1959 1960 2012 2055 2062 2000 1990 1964 2037 2006 1940 2008 1930 2012 1920 2057 1967 2031 2001 2011 2009 2041 2070 1931 2028 1977 1903 2023 1978 1978 1982 2013 2020 1921 2074 2037 2094 1889 2031 2058 2040 2015 1987 1974 1989 1998 1960 1939 1946 2063 1995 1987 1974 1988 2051 2025 2010 1949 1958 2033 2079 2005 2003 2045 2003 1973 1964 1961 2058 2031 1972 1958 2010 2056 1946 1952 2058 1998 1978 1951 2044 1971 2027 2025 2082 1994 2057 1973 2035 2005 1936 2027 2003 1965 2070 2099 2088 1999 2006 2072 2016 1951 1981 2020 2047 2017 1982 2081 2012 2047 2012 1961 2024 2047 2141 1968 2018 2064 2006 2002 1995 2034 1997 2068 1939 2078 2068 2185 2085 2002 2048 1998 1962 2078 2060 2114 1972 2081 2036 2034 2046 1984 2026 2060 1991 2102 2051 2059 2047 2063 2016 2058 2061 2009 1948 1958 1996 1992 2023 1978 2083 2060 2085 1990 2077 2051 2012 2038 2028 2014 2095 2046 1901 2083 2064 1986 1923 2033 2056 2039 2059 2098 2022 2002 2052 2046 1983 1999 2007 2009 2018 1978 2023 2069 1934 2093 2020 2085 2014 2060 2098 1971 2029 2114 2014 2040 1981 1974 1967 2057 1955 2055 2098 2037 2075 1973 2115 2035 2166 2122 2092 2089 2096 2097 2055 2126 2078 2069 2024 2142 2121 2115 2118 2193 2216 2078 2107 2221 2160 2215 2259 2198 2174 2303 2294 2275 2401 2421 2519 2579 2628 2863 2956 3153 3198 3335 3426 3509 3698 3889 4005 4232 4252 4408 4587 4916 4755 5019 4934 5133 5281 5335 5505 5644 5500 5683 5739 5865 5836 5940 5997 5986 5998 5798 5703 5462 5347 5210 5133 5120 5023 5030 4770 4649 4380 4099 4029 3893 3738 3574 3444 3475 3365 3299 3136 2950 3010 2929 2850 2683 2617 2646 2617 2565 2530 2409 2437 2374 2361 2368 2492 2365 2324 2261 2336 2292 2324 2389 2277 2268 2422 2261 2245 2304 2265 2260 2261 2276 2154 2260 2319 2232 2304 2253 2209 2292 2227 2176 2188 2230 2171 2205 2153 2213 2167 2243 2167 2127 2124 2191 2143 2163 2179 2164 2187 2089 2165 2062 2069 2076 2171 2194 2076 2187 2099 2061 2083 2101 2079 2140 2072 2024 2140 2108 1986 2071 2081 2051 2163 2071 2051 2050 2044 1981 2066 2077 1991 2144 1991 2083 2077 2021 1998 2032 2069 2018 2028 2078 2033 2023 2012 2050 2021 1935 1980 1981 2025 2037 2013 2041 1997 2088 2101 2008 2011 1961 1975 2098 2045 2105 1911 2032 2057 2050 2000 2027 2066 2034 2013 1997 2038 1924 1974 2044 2076 2052 1995 2110 2042 1953 2080 1913 2095 2051 1999 1991 2063 1933 2013 1971 1974 2040 1966 2026 2035 1940 1944 2029 1918 2084 1972 2077 2146 2090 2032 2077 2136 2068 2090 2062 2192 2175 2202 2241 2203 2161 2257 2233 2219 2375 2400 2331 2420 2301 2339 2323 2395 2435 2392 2442 2396 2355 2446 2445 2428 2470 2490 2437 2477 2373 2464 2360 2324 2375 2350 2294 2288 2216 2306 2347 2278 2282 2195 2255 2153 2202 2240 2195 2049 2150 2147 2104 2018 2094 2035 2094 2081 2097 2092 2144 2091 2033 1991 2017 2016 2042 2042 2028 2045 2058 2024 1990 1974 1976 2085 1985 1959 1954 1988 2006 1985 2056 2004 1946 1958 1950 2001 2020 2052 1868 2027 1978 1966 1956 1989 2023 1925 1961 1893 2035 1984 1968 1969 1987 1901 2016 1995 1996 1974 1994 2004 1994 1965 1953 1892 2022 1971 1963 2009 2070 2007 1945 2029 2006 1996 1867 1989 1999 2010 1961 1982 1982 1977 1933 1956 2009 1952 1924 1960 1894 1977 1972 2010 2046 1880 1967 1912 2014 1969 1945 2060 1955 1939 1973 1947 1997 1970 1985 1966 1942 1993 1962 1995 2018 1975 1954 1941 1943 1916 1852 1933 1893 1927 2021 1933 2039 1975 1896 1921 1997 1961 1970 1898 1928 1945 1975 2055 1978 1917 1983 1901 2013 1969 1995 1966 1945 1948 2003 1938 1978 1968 1955 1917 2047 1991 1897 1930 1900 2015 1923 1884 1923 1964 1938 1974 1908 1925 1931 1857 1955 1944 1977 1956 1965 1950 1977 1992 1948 1979 2013 1997 1931 1967 1985 1993 1931 2023 1984 1940 1915 1985 1981 2030 1943 2020 1979 1984 1945 1977 1875 1980 1976 1908 2003 1969 1972 1948 1947 1986 1916 1970 1977 1999 1922 1926 1907 1969 1976 2019 1964 1975 1917 1900 1921 1901 1893 1998 1951 1887 1954 1945 1986 1912 1941 1938 1947 1995 1856 1869 1896 1970 1929 1895 1993 1852 2011 1977 1907 1977 1939 1978 2027 1948 1908 1914 1979 1935 1979 1949 1871 1946 1928 1923 1845 2025 1949 1986 1969 1893 1893 1958 1915 1893 1940 1933 1950 1998 1966 1941 1931 1877 1906 1933 1962 1924 1946 1914 1860 1985 1935 1973 1939 2034 1887 2086 1949 1880 1961 1899 1909 1858 1910 1974 2003 1901 1913 1865 1971 1933 2026 1939 1900 1922 1932 1925 1991 1969 1970 1873 1920 1927 1890 1896 1922 1869 2057 1958 1997 1939 2015 1911 1896 1912 1907 1969 1966 1961 1910 1990 1912 1899 2023 1898 1933 1978 1899 1872 1965 1891 1959 1977 1948 1926 1946 2020 1987 1937 1870 1905 1824 1886 1963 1978 1856 1947 1881 1940 1888 1909 1916 2030 2003 1953 1988 1910 2014 1982 1930 1958 1961 1912 1912 1936 1976 1883 1969 1925 1856 1879 2016 1925 1918 1970 1951 1832 1927 1953 1980 1966 2058 1930 1969 1946 1906 1871 1972 1974 1912 1882 1886 1956 1956 1910 1923 1938 1925 1858 1993 1891 1861 1952 2053 1999 2007 1974 1943 1898 1915 1954 1897 1967 1927 1908 1910 1850 2014 1935 1935 1928 1884 1911 1929 1925 1936 1925 1952 1990 1959 1824 1890 1960 1874 1884 1971 1977 1915 1935 1957 1960 1889 1958 1918 1903 1887 1960 1983 1904 1957 1857 1983 1944 1969 1916 1964 1896 1978 1910 1907 1912 1871 1946 1917 1978 1881 1940 1934 1967 1957 1896 1954 1938 1938 1907 2034 1917 1940 1939 1948 1906 1921 1966 1809 1884 1929 1956 1877 1962 1962 2034 1911 1999 2077 1968 1983 1935 1959 1953 1965 1961 1932 2041 1987 1953 1967 2007 2019 2020 1989 2020 1974 2014 1985 2029 1968 1976 2108 2066 2019 2049 2029 2020 1992 2058 2026 1976 2022 2078 2032 1997 1973 2061 2067 1973 2018 1971 1990 2009 2042 1930 2046 2124 1996 1987 2053 2017 1891 2010 2053 1997 2051 1955 2002 2090 2033 1984 1938 1949 2035 2023 1958 2003 2029 2070 2083 2051 2178 2134 2119 2086 2165 2077 2180 2215 2178 2239 2305 2281 2228 2280 2261 2277 2282 2378 2291 2374 2400 2374 2295 2339 2275 2368 2247 2292 2237 2290 2256 2191 2276 2164 2202 2265 2247 2243 2167 2158 2177 2203 2126 2216 2158 2130 2126 2037 2093 2049 2021 2049 1998 1970 2054 1940 1968 1995 2057 2045 2009 2009 2022 1947 1963 1998 1911 2047 1965 2025 2050 1919 2044 2023 1941 1927 1898 2021 1986 1913 1971 2037 1957 1899 1931 1919 1928 1920 1866 2032 2014 1984 1897 1948 1877 1931 1952 1945 1993 2013 1952 1886 1946 1936 2016 1870 2011 1932 1965 1931 1959 1917 1890 1941 1971 1913 1974 1940 1901 1994 1996 1910 1893 1937 1950 1973 1840 1944 1865 1873 1896 1923 1913 1938 1910 1982 1959 1918 1844 1953 1922 1911 1936 1961 1900 1954 1946 1924 1923 1984 1903 1933 1987 1934 1940 1973 2036 1921 1895 1956 1915 1912 1883 1931 1907 1903 1898 1928 1902 1924 1913 1957 1914 1901 1900 1809 1967 1909 1946 1879 1976 1909 1943 1899 1875 1926 1996 1960 1965 1988 1917 1964 1979 1886 1925 1916 1964 1896 1925 1923 1925 2004 1951 1903 1932 1907 2046 1976 2012 2074 1963 1926 1916 1935 1903 1966 1917 1979 1881 1952 1982 1939 1951 2046 2024 2003 1967 1953 2015 1960 1926 1988 1943 2000 1876 1933 1937 1991 1960 1911 1931 1893 1985 1949 1917 1980 1972 1966 1951 1933 1929 2028 1959 1972 1911 1970 1973 1962 2075 2116 2173 2022 2037 2104 2129 2111 2186 2213 2318 2327 2293 2360 2401 2269 2387 2510 2539 2425 2609 2664 2687 2614 2822 2659 2872 2764 2773 2832 2824 2935 2868 2854 2825 2908 2950 2732 2827 2850 2773 2854 2705 2714 2650 2710 2673 2667 2578 2539 2442 2355 2490 2373 2485 2361 2323 2317 2232 2335 2280 2154 2277 2151 2208 2135 2065 2121 2128 2060 2130 2044 2147 2057 1990 2063 2100 2070 2038 2013 2037 2000 2034 2016 1992 1990 1882 2039 1965 1899 2031 2067 1939 1972 1894 1975 1988 2021 1999 2022 2055 2039 1933 2001 2034 1956 2061 1918 1915 2008 1988 1965 2000 1988 1915 1948 2034 1922 2040 1907 1914 1897 1998 1950 1908 1984 2010 1935 1963 1878 1935 1881 1927 2003 1866 1937 1903 2029 1910 1933 1928 1936 1902 1977 1964 1910 1895 1832 1886 1910 1959 1851 1977 1882 1887 1936 1957 1939 1918 1951 1987 1894 1893 1987 1954 1990 1968 1925 1922 1890 1939 2027 1959 1973 1932 1824 1886 1845 1929 1888 1995 1991 1909 1995 1921 1907 1931 1870 1899 1926 1893 1923 1883 2019 1945 1953 1931 1864 2010 1971 1993 2062 1947 2030 2032 1978 2082 1985 2045 2047 2084 2137 2126 2156 2136 1984 2092 2175 2122 2148 2233 2198 2130 2204 2114 2193 2071 2183 2151 2189 2227 2179 2163 2104 2151 2219 2163 2252 2091 2136 2131 2097 2074 2116 2144 2001 2075 2072 2011 2054 2071 2044 2063 2091 2040 2008 1963 2037 2047 1969 2002 2006 2012 2003 2012 1978 2000 1957 1918 1874 1873 1986 1949 1957 1988 1974 1919 1908 1907 1927 1960 1917 1933 1961 1927 1900 1915 1921 1904 2019 1977 1864 1846 2003 1986 2043 1956 1953 1970 1949 1926 1859 1921 1885 1921 1890 1933 1891 2017 1942 1892 1899 1918 1953 1956 1971 1882 1925 1872 1932 1759 1910 1863 1901 1819 1905 1922 1924 1920 1885 1876 1969 1950 1902 1933 1867 1905 1935 1855 1923 1899 1920 1883 1898 1877 2049 1931 1874 1914 1848 1913 1892 1922 1872 1878 1915 1909 1894 1961 1939 1830 1942 1857 1968 1857 1904 1861 1932 1924 1988 1876 1958 1844 1960 1921 1912 1935 1919 1973 1847 1781 1896 1896 1840 1907 1831 1809 1909 1849 1866 1908 1959 1965 1878 1966 1855 1935 1813 1888 1915 1923 1958 1988 1953 1933 2001 1869 1913 1952 1900 1823 1938 1859 1873 1934 1878 1892 1923 1853 1908 1829 1937 1845 1870 1928 1892 1918 1880 1878 1919 1876 1966 1878 1948 1914 1929 1890 1873 1938 1913 1893 1859 1940 1812 1977 1816 1952 1912 1823 1895 1879 1925 1871 1833 1849 1895 1900 1961 1990 1881 1914 1850 1914 1876 1780 1903 1917 1870 1945 1919 1907 1867 1980 1859 1905 1857 1968 1880 1936 1859 1909 1978 1935 1926 1927 1852 1876 1955 1920 1893 1859 1946 1861 1896 1901 1950 1962 1863 1944 1911 1938 1914 1871 1883 1822 1819 1942 1995 1845 1955 1849 1907 1984 1865 1831 1885 1979 2023 1922 1876 1933 1852 1875 1831 1925 1893 1988 1817 1963 1818 1877 1954 1929 1974 1981 1838 1976 1946 1952 1925 1910 1908 1926 1996 1944 1902 1872 1930 1967 1897 1935 1868 1910 1889 1790 2009 1907 1938 1845 1959 1874 1828 1908 1934 1906 1903 1905 1884 1900 1848 1901 1862 1915 1974 1944 1815 1915 1899 1927 1820 1911 1929 1899 1916 1874 1941 1914 1832 1832 1868 1847 1878 1897 1945 1966 1848 1865 1828 1921 1933 1942 1975 1818 1847 1950 1848 1808 2004 1896 1839 1944 1864 1854 1921 1928 1941 1974 1931 1859 1963 1883 1840 1971 1852 1914 1840 1856 1840 1910 1812 1858 1932 1925 1847 1903 1927 1892 1915 1885 1924 1860 1904 1890 1872 1966 1900 1869 2003 1910 1888 1874 1861 1883 1964 1835 1898 1894 1886 1907 1875 1884 1957 1917 1957 1849 1894 1912 1874 1881 1888 1860 1832 1900 1853 1915 1886 1961 1919 1935 1943 1914 1887 1919 1924 1873 1910 1910 1868 1901 1909 1910 1870 1877 1918 1905 1928 1891 1906 1911 1910 1879 1925 1885 1909 1913 1936 1878 1906 1938 1995 1907 1888 1981 1989 1931 2005 2033 1971 1902 2003 2040 2028 2021 2012 1996 2117 2012 2093 2053 2081 2042 2024 1942 2043 2008 1985 2062 1979 2112 2119 2053 2060 2014 2033 2028 2070 1976 2057 1969 2001 2058 2006 2019 1962 1955 2026 2041 2036 1974 1921 1941 1972 2049 1965 1940 1947 1984 1887 1949 1949 1954 1974 1945 1928 1969 1881 1898 1963 1847 1897 1928 1933 1873 1900 1967 1911 1944 1861 1870 1872 1864 1973 1942 1914 1934 1865 1931 1853 1953 1926 1880 1940 1934 1923 1916 1897 1941 1839 1844 1823 1820 1855 1888 1914 1969 1898 1809 1886 1899 1877 1934 1867 1982 1909 1912 1959 1889 1900 1891 1900 1884 1929 1899 1867 1850 1909 1972 1894 1892 1888 1928 1952 1936 1865 1906 1875 1912 1916 1882 1856 1834 1907 1910 1903 1855 1905 1896 1890 1867 1906 1866 1874 1961 1964 1921 1821 1945 1905 1875 1818 1937 1901 1880 1812 1972 1924 1868 1890 1892 1873 1924 1898 1962 1953 1800 1906 1862 1856 1906 1910 1868 1860 1958 1906 1945 1918 1877 1890 1895 1814 1877 1945 1910 1887 1932 1888 1804 1917 1899 1848 1972 1901 1884 1885 1888 1933 1890 1861 1841 1891 1890 1897 1799 1847 1956 1806 1932 1828 1905 1892 1810 1880 1842 1924 1868 1888 1865 1976 1861 1966 1866 1903 1884 1850 1890 1878 1874 1848 1937 1901 1933 1838 1936 1880 1921 1922 1883 1883 1938 1854 1913 1899 1841 1846 1832 1897 1912 1929 1839 1872 1946 1944 1827 1934 1929 1920 1841 1878 1879 1862 1978 1856 1996 1866 1849 1879 1894 1909 1866 1807 1859 1860 1888 1990 1887 1832 1825 1843 1855 1971 1921 1964 1914 1953 1884 1961 1890 1959 1975 1928 1955 1921 2046 2001 2082 2023 2132 2183 2169 2247 2348 2342 2239 2281 2264 2164 2266 2168 2250 2177 2259 2177 2243 2214 2222 2263 2327 2227 2395 2405 2339 2449 2379 2348 2317 2187 2342 2299 2275 2289 2216 2204 2275 2237 2174 2174 2200 2173 2172 2090 2194 2159 2165 2135 2153 2093 2121 2168 2154 2043 2048 2079 2025 2044 2087 2006 2048 1999 1993 1898 2011 1925 1949 2018 1971 2000 1942 1903 1951 1915 1976 1994 1973 1918 1870 1947 1972 1997 1938 1971 1869 1926 1953 1923 1906 1940 1891 1887 1956 1933 1922 1888 1934 1873 1981 1917 1950 1880 1982 1956 1933 1942 1881 1940 1846 1990 1906 1942 1929 1926 1862 1909 1936 1975 1945 1882 1944 1884 1903 1990 1942 1857 1826 1930 1915 1971 1951 1917 1847 1917 1866 1795 1917 1858 1900 1885 1875 1896 1912 1924 1874 1924 1944 1886 1916 1913 1854 1858 1907 1857 1882 1906 1955 1887 1835 1948 1803 1915 1806 1890 1965 1953 1902 1830 1866 1863 1899 1868 1907 1963 1929 1934 1840 1922 1865 1930 1917 1862 1905 1946 1884 1944 1897 1936 1955 1892 1913 1973 1870 1883 1875 1918 2004 1825 1866 1834 1855 1853 1924 1883 1954 1944 1938 1910 1867 1948 1870 1809 1855 1928 1874 1906 1898 1860 1883 1916 1842 1905 1917 1924 1951 1957 1853 1838 1831 1916 1902 1939 1853 1875 1898 1929 1901 1916 1796 1894 1955 1898 1912 1894 1879 1832 1950 1877 1927 1932 1906 1884 1914 1855 1878 1847 1877 1813 1808 1948 1796 1920 1834 1864 1867 1884 1882 1990 1896 1873 1879 1816 1821 1952 1897 1885 1942 1827 1811 1929 1857 1921 1889 1959 1857 1874 1929 1887 1877 1873 1756 1781 1801 1952 1940 1929 1918 1916 1921 1967 1879 1887 1874 1855 1871 1909 1887 1820 1826 1918 1814 1896 2031 1863 1949 1806 1901 1928 1888 1981 1846 1910 1898 1945 1970 1880 1868 1902 1835 1774 1857 1900 1920 1814 1987 1851 1985 1884 1971 1877 1884 1893 1914 1802 1920 1881 1928 1866 1978 1906 1900 1908 1791 1985 1925 1855 1889 1932 1771 1902 1932 1865 1918 1854 1881 1908 1923 1872 1903 1904 1923 1895 1827 1858 1860 1834 1863 1852 1875 1942 1919 1965 1900 1908 1898 1848 1873 1908 1954 1827 1974 1771 1859 1798 1848 1818 1884 1888 1937 1884 1892 1910 1895 1822 1880 1875 1897 1884 1891 1931 1930 1834 1888 1910 1897 1871 1901 1968 1856 1916 1963 1970 1865 1825 1913 1949 1952 1824 1868 1900 1845 1876 1878 1850 1933 1900 1915 1882 1884 1889 1930 1856 1869 1912 1952 1879 1936 1892 1877 1906 1951 1945 1908 1839 1887 1910 1913 1938 1884 1910 1862 1834 1935 1816 1961 1954 1945 1938 1922 1847 1932 1867 1874 1879 1874 1897 1882 1868 1863 1836 1886 1962 1874 1914 1869 1906 1881 1873 1899 1955 1928 1917 1881 1880 1959 1903 1869 1911 1909 1940 1887 1884 1924 1877 1924 1955 1901 1843 1948 1951 1897 1867 1859 1942 1899 1968 1866 1866 1857 1907 1943 1856 1908 1905 1902 1939 1920 1906 1894 1837 1838 1822 1980 1893 1959 1962 1853 1844 1966 1963 1883 1912 1883 1857 1895 1874 1825 1937 1873 1913 1887 1942 1969 1817 1952 1865 1883 1832 1838 1879 1864 1946 1911 1862 1949 1860 1977 1825 1826 1856 1783 1949 1846 1910 1963 1895 1861 1874 1859 1876 1912 1924 1863 1938 1914 1922 2002 1913 1860 1838 1935 1877 1802 1843 1843 1885 1906 1941 1887 1882 1869 1946 1880 1847 1895 1872 1850 1818 1902 1837 1887 1869 1918 1856 1903 1948 1870 1971 1940 1861 1875 1949 1893 1828 1911 1884 1869 1897 1931 1904 1942 1859 1945 1851 1864 1849 1931 1948 1925 1865 1883 1884 1923 1857 1904 1894 2021 1870 1885 1925 2008 1907 1903 1995 1931 1935 1869 1925 1912 1916 1942 1944 1963 1912 1998 1933 1936 1967 1996 1954 1910 1894 1980 1902 1942 1980 1995 1979 2050 2051 1991 2051 1944 2057 1995 2045 2079 2050 1929 1952 1954 1906 1939 1942 2050 1925 1945 1908 1984 1992 2030 2047 1950 1964 2021 1986 1942 1974 1927 2003 2026 1979 1959 1892 1988 1908 2038 1982 1917 1974 1927 2110 1953 1988 1864 2015 1978 2002 2053 2053 2064 2142 2042 1967 1951 1956 1989 1900 1996 2002 2002 2023 2005 2059 1975 1985 1998 2079 1974 1953 1987 2059 2047 1974 1981 1954 2014 1957 2003 2020 1889 1932 2052 2010 1986 2035 1982 2006 1984 1934 1978 1896 1967 1962 1943 1984 1897 1850 1914 1942 1945 1972 1945 1914 1963 1941 1843 1863 1901 1872 1943 1843 1848 1941 1916 1945 1946 1947 1979 1826 1977 1947 1938 1910 1894 1937 1912 1909 1890 1883 1869 1906 1906 1818 1866 1859 1933 1918 1976 1910 1914 1957 1855 1926 1918 1896 1882 1863 1961 1940 1896 1821 1941 1989 1907 1885 1857 1957 1971 1888 1872 1876 1937 2002 1928 1863 1928 1906 1862 1974 1864 1970 1854 1924 1880 1979 1953 1945 1954 1871 1924 1925 1891 1932 1940 1931 1969 1967 1890 1891 1945 1945 1928 1940 1856 1864 1956 1975 1930 1906 1940 1887 1855 2028 1960 1941 1960 1924 1943 1934 1854 1965 1913 1959 1949 1945 1916 1881 1840 1943 1895 1920 2025 1943 1976 1867 2001 1945 1914 1965 1898 1988 1947 1968 1917 1938 2008 1958 1835 2012 1929 1921 2015 1892 2015 1909 1999 2025 1972 1933 1983 1966 1964 1960 1916 2007 1933 1988 1952 1923 1935 2050 2021 2020 2025 2022 2015 2069 2106 2070 2214 2257 2158 2250 2243 2347 2313 2262 2250 2351 2297 2349 2324 2448 2455 2539 2441 2536 2599 2590 2640 2598 2657 2752 2680 2588 2686 2763 2571 2716 2604 2624 2677 2572 2783 2583 2709 2474 2588 2483 2541 2514 2581 2574 2494 2514 2426 2435 2407 2397 2456 2401 2546 2441 2321 2336 2251 2353 2335 2251 2287 2234 2223 2194 2199 2152 2173 2189 2193 2144 2197 2075 2173 2055 2137 2085 2142 2088 1930 2076 2007 2044 2103 2053 2043 1984 2058 2055 1996 1966 1979 1978 2058 1925 2041 1977 1893 2023 1872 2030 1938 1964 1997 1927 1903 1874 1991 1949 2079 2001 1909 1942 2065 1906 2035 1921 2029 1841 1936 1880 1909 1994 1928 1929 2032 1880 1999 1964 1879 1985 1914 2004 1919 1942 1914 1913 1997 1958 1880 1997 1944 1993 1987 1938 1951 2015 1916 1958 1971 1993 1908 1857 1920 1878 1982 1997 1917 2036 1861 1872 1976 1909 1866 1936 1887 1879 1892 1934 1906 1868 1884 1983 1911 1980 1977 1955 1937 1921 1949 1998 2003 2006 1945 1959 1936 1939 1977 2017 2047 1938 1961 1976 1960 1958 2004 2004 1979 1937 2033 1936 1975 2037 1922 2040 2008 2005 1996 1988 2125 1986 1982 1988 2081 2006 1939 1957 2006 2014 2032 1969 1965 1964 1989 1932 1983 1936 2033 1944 1942 2053 1980 1950 1991 1970 1990 1957 2010 1980 1965 1950 1992 1930 2008 1939 2020 1994 1940 1956 1912 1905 2023 1924 2008 1920 1985 1870 1966 1937 1979 1867 1938 1973 1948 1907 2005 1945 1971 1930 1954 1952 1946 1904 1950 1933 1869 1859 1969 1966 1977 1838 1956 1897 1928 1929 1843 1956 1845 1908 1858 1953 1939 1930 1871 1892 1899 1943 1828 1924 1873 1900 1917 1923 1933 1903 1895 1960 1827 1954 1882 1882 1884 1930 1888 1870 1906 1876 1857 1925 1894 1891 1953 1936 1885 1886 1987 1849 1946 1882 1843 1916 1862 1965 1961 1882 1901 1942 1997 1898 1911 1993 1909 1902 1930 1912 2019 1947 1900 1980 1942 1871 1928 1851 1843 1853 1884 1884 1934 1959 1951 1840 1862 1892 1979 1949 1893 1801 1865 1930 1853 1936 1964 1911 1984 1911 1884 1973 1883 1871 1884 1891 1890 1929 1903 1972 1885 1944 1884 1876 1841 1928 1857 1952 1961 1931 1891 1914 1895 1938 1842 1835 1888 1966 1878 1979 1895 1937 1916 1899 1940 1879 1862 1860 1831 1917 1937 1909 1890 1919 1935 1904 1873 1953 1927 1942 1861 1894 1894 1899 1935 1872 1953 1923 1849 1933 1895 1837 1869 1861 1973 1902 1962 1952 1921 1956 1940 1900 1868 1837 1872 1886 1886 1880 1934 2019 1925 1957 1853 1890 1863 1875 1928 1882 1966 1924 1796 1895 1875 1856 1851 1922 1891 1914 1883 1921 1855 1932 1927 1902 1946 1861 1879 1893 1946 1839 1898 1927 1896 1898 1860 1876 1956 1899 1947 1872 1931 1992 1886 1976 1894 1964 1878 1946 1882 1860 1969 1966 1921 1862 1902 1916 1906 1870 1882 1854 1930 1872 1962 1942 1907 1847 1939 1863 2002 1952 1917 1958 1957 1939 1984 1899 1911 1877 1977 1909 1914 1913 1868 1883 1875 1981 1958 1973 1913 1899 1970 1943 1896 1905 1926 1803 1904 1927 1968 1898 1967 1892 1875 1979 1875 1900 1912 1929 1905 1966 1910 1843 1935 1851 1914 1863 1889 1844 1838 1911 1897 1915 1910 1954 1932 1891 1901 1962 1856 1933 1884 1838 1957 1978 2025 1879 1906 1883 1983 1972 1951 1897 1922 1915 1906 1895 1921 1935 1941 2057 1920 1893 1850 1883 1851 1873 1916 1967 1848 1870 1956 1929 1892 1918 1910 1893 1900 1916 1912 1974 1955 2052 1919 1957 1854 1916 1944 1917 1973 1889 1986 2027 1890 1940 1906 1971 1962 2020 1888 1877 2010 1900 1939 1911 1974 1980 2018 1964 1989 1969 2009 2002 1935 2020 1920 1969 2010 1961 2015 1920 1854 2018 1912 2027 2001 2054 1926 1963 1978 2023 2030 1923 1998 1964 2024 1980 2004 2076 1956 1942 1916 1942 1974 1925 1953 2066 1940 1977 1933 2010 1923 2006 2021 1926 2017 1877 1924 1966 2031 1876 1904 1869 1979 1964 1973 1960 1916 1922 1838 1940 1956 1958 1894 1934 1957 1964 1890 1846 1925 1967 1984 1866 1950 1943 1965 1935 1939 2019 1931 1919 1876 1906 1896 1917 1899 1985 1985 1865 1928 1824 1999 1890 2009 1903 1988 1907 1908 1908 1902 1945 1974 2032 1949 1922 1935 1931 1913 1925 1970 1902 1922 1871 1986 1944 1933 1900 1901 1926 1889 1947 1900 1916 1898 1948 1921 1877 1948 2047 1955 1907 1847 1894 1936 1914 1873 1881 1875 1965 1944 1966 1947 1894 1852 1977 1921 1948 1943 1885 1925 1948 1925 1903 1918 1897 1908 1937 1940 1971 1920 1844 1893 1895 1919 1973 1960 1962 1891 1896 1876 1878 1949 1918 1929 1926 1870 1986 1861 1939 1892 1815 1903 1887 1955 1938 1936 1965 1917 1955 1893 1934 1814 1923 1854 1914 1917 1866 1941 1960 1950 1875 1964 1945 1866 2022 1918 1951 1931 1888 1949 1900 1955 1932 2026 1931 1915 1871 1984 1871 2000 1970 1839 1891 1843 1901 1927 1973 1945 1896 1898 1894 1976 1983 1893 1922 1959 1931 1925 1936 1906 1894 2060 1906 1924 1959 1898 1949 1964 2009 1958 1905 1919 1873 2008 1941 1928 1958 1880 1950 1939 1990 1977 1919 1959 1988 1899 1871 1986 1910 2020 1995 1949 2056 2029 1994 2031 2073 2146 2140 2080 2086 2132 2144 2164 2177 2190 2148 2225 2185 2295 2316 2268 2214 2193 2243 2289 2353 2344 2222 2311 2352 2338 2367 2301 2385 2331 2265 2438 2324 2379 2417 2411 2383 2330 2412 2372 2359 2400 2432 2374 2346 2367 2366 2286 2265 2351 2375 2328 2295 2200 2190 2317 2253 2202 2202 2194 2198 2225 2210 2248 2180 2248 2153 2166 2197 2185 2162 2193 2068 2075 2191 2032 2127 1980 2097 1987 2102 2044 2077 2047 2063 2082 2096 2059 2045 2045 1993 2019 2015 1993 1957 2052 1953 1977 1951 1989 2030 2024 1948 1955 1943 1962 1982 2006 1937 1930 2022 2060 1991 1899 1958 2005 1879 1944 1973 1997 1977 1973 1987 1895 1954 1927 1889 1932 1935 1957 2010 1964 1964 1896 1946 1917 1996 1877 1936 1995 2007 1965 1978 1955 1987 1919 1918 1947 1950 1951 1958 1912 1990 1832 1980 2018 1936 2033 1966 1872 1945 1922 1979 1945 1875 1924 1874 1984 1893 1975 1940 1950 1963 1950 1872 1905 1942 1925 1990 1950 1973 1880 1980 1922 1960 1949 1902 1983 1946 1938 2001 1915 2009 1930 2003 1973 1920 1915 1974 1967 1945 1987 1976 1991 2031 1868 1928 2000 1890 1970 2015 2001 1912 1928 2037 1948 2000 1836 1921 1869 2040 1865 2027 1863 1952 1970 1998 1930 1978 1904 1999 1985 1959 1949 1906 1864 1865 1961 1888 1951 1899 2026 1908 1925 1973 1906 1972 1873 1970 1915 1905 1979 1891 1894 1942 1927 1966 1935 2023 1925 1948 1942 1888 1895 1960 1967 1942 1988 1904 1916 1985 1913 1939 1964 1944 1945 1940 1884 1884 1996 1886 1994 1965 1942 1900 1876 1906 1859 1885 1923 1946 1793 1887 1929 1984 1941 1957 1864 1935 1891 1911 1852 1917 1908 1878 1996 1923 1924 1877 1942 1902 1974 1937 1920 2004 1884 1851 1929 1942 1887 1834 1923 1993 1887 1934 1857 1908 1854 1826 1841 1899 1881 1887 1882 1858 1940 1903 1917 1906 1921 1887 1932 1879 1914 1973 1942 1964 1876 1932 1925 1840 1864 1896 1905 1926 1892 1907 1957 1948 1902 1941 1842 1919 1904 1889 1905 1923 1842 1868 1848 1905 1932 1871 1877 1926 1795 1954 1994 1906 1973 1905 1924 1925 1878 1889 1948 1992 2010 1929 1937 1907 1937 1925 1906 1953 1869 1936 1855 1868 1899 1920 1953 1932 1961 1948 1904 1845 1936 1933 1948 1949 1933 1900 2021 1968 1935 1933 1882 1904 1852 1946 1932 1865 1961 1887 1794 1930 1895 1914 1913 1879 1997 1869 1913 1881 1928 1804 1917 1985 1864 1890 1916 1915 1931 1811 1862 1885 1937 1960 1917 1965 1926 1928 1908 1923 1895 1886 1999 1949 1935 1891 1936 1944 1882 1940 1911 1975 1835 1859 1945 1911 1915 1919 1957 1966 1964 1897 1930 1883 1917 1863 1918 1952 1936 1907 1843 1898 1960 1960 1946 1920 1910 1786 1920 1871 1890 1883 1918 1917 1817 1952 1889 1906 1931 1826 2014 1897 1934 1921 1888 1910 1878 1921 1941 1949 1898 1880 1908 1956 1951 1870 1901 1893 1945 1914 1939 1887 1904 1983 1865 1962 1835 1855 1961 1923 1880 1899 1834 1946 1943 1915 1905 1879 1856 1959 1937 1877 1910 1958 1906 1952 1867 1906 1957 1888 1835 1908 1867 1940 1878 1930 1951 1885 1922 1916 1923 1961 1949 1979 1951 1895 1906 1911 1975 1944 1943 1963 1899 1906 1944 1941 1807 1934 1992 1864 1870 1922 1944 1956 1870 1899 1949 1861 1915 1887 1942 1891 1933 1830 1965 1913 1998 1893 1918 1945 1943 2014 1930 1869 1936 2034 1945 1959 1865 1898 1871 1965 1943 1927 1917 1938 1991 1913 1913 1944</counts>
			</dataPoints>
		</scan>
	</xrdMeasurement>
</xrdMeasurements>
