<?xml version="1.0"?>
<xrdMeasurements xmlns="http://www.xrdml.com/XRDMeasurement/2.3" xmlns:xsi="http://www.w3.org/2001/XMLSchema-instance" xsi:schemaLocation="http://www.xrdml.com/XRDMeasurement/2.3 http://www.xrdml.com/XRDMeasurement/2.3/XRDMeasurement.xsd" status="Completed" recordIdentifier="{56E2FF3A-300E-4AEE-A896-4AE45410582E}">
	<comment>
		<entry/>
	</comment>
	<sample type="To be analyzed">
		<id>GPSS_Li1p65Mn0p95V0p15Cl4_110425_690ab64ff040177efa2b5fec</id>
		<name></name>
		<preparedBy></preparedBy>
	</sample>
	<xrdMeasurement measurementType="Scan" status="Completed" sampleMode="Reflection">
		<usedWavelength intended="K-Alpha 1">
			<kAlpha1 unit="Angstrom">1.5405980</kAlpha1>
			<kAlpha2 unit="Angstrom">1.5444260</kAlpha2>
			<kBeta unit="Angstrom">1.3922500</kBeta>
			<ratioKAlpha2KAlpha1>0.5000</ratioKAlpha2KAlpha1>
		</usedWavelength>
		<incidentBeamPath>
			<radius unit="mm">145.00</radius>
			<xRayTube id="1010048" name="Empyrean Cu LFF HR (9430 033 7310x)">
				<tension unit="kV">40.0</tension>
				<current unit="mA">15.0</current>
				<anodeMaterial>Cu</anodeMaterial>
				<focus type="Line">
					<length unit="mm">12.0</length>
					<width unit="mm">0.4</width>
					<takeOffAngle unit="deg">6.0</takeOffAngle>
				</focus>
			</xRayTube>
			<sollerSlit id="21010002" name="Soller slits 0.04 rad.">
				<opening unit="rad">0.0400</opening>
			</sollerSlit>
			<mask id="22031000" name="Fixed mask 13 mm">
				<width unit="mm">9.00</width>
			</mask>
			<divergenceSlit id="22120001" name="Divergence slit 1°" xsi:type="fixedDivergenceSlitType">
				<distanceToSample unit="mm">50.00</distanceToSample>
				<height unit="mm">1.52</height>
			</divergenceSlit>
		</incidentBeamPath>
		<sampleMovement xsi:type="spinningSampleMovementType">
			<spinnerRevolutionTime unit="seconds">1.0</spinnerRevolutionTime>
		</sampleMovement>
		<diffractedBeamPath>
			<radius unit="mm">145.00</radius>
			<antiScatterSlit id="22090040" name="AS slit 9 mm (PIXcel)" xsi:type="fixedAntiScatterSlitType">
				<height unit="mm">9.00</height>
			</antiScatterSlit>
			<sollerSlit id="21020003" name="Large Soller slits 0.04 rad.">
				<opening unit="rad">0.0400</opening>
			</sollerSlit>
			<filter id="20030001" name="Large beta-filter Nickel">
				<material>Ni</material>
				<thickness unit="mm">0.020</thickness>
			</filter>
			<detector id="7010019" name="PIXcel1D-Medipix3 detector" xsi:type="rtmsDetectorType">
				<phd unit="keV">
					<lowerLevel>4.02</lowerLevel>
					<upperLevel>11.27</upperLevel>
				</phd>
				<mode>Scanning</mode>
				<activeLength unit="deg">5.542</activeLength>
			</detector>
		</diffractedBeamPath>
		<scan appendNumber="0" mode="Continuous" scanAxis="Gonio" status="Completed">
			<header>
				<startTimeStamp>2025-11-07T10:42:09-08:00</startTimeStamp>
				<endTimeStamp>2025-11-07T10:50:16-08:00</endTimeStamp>
				<author>
					<name>AutomatedUser</name>
				</author>
				<source>
					<applicationSoftware version="1.7b (136)">PANalytical Aeris Instrument Suite</applicationSoftware>
					<instrumentControlSoftware version="3.2.00000000 20240306">AERIS</instrumentControlSoftware>
					<instrumentID>950485</instrumentID>
				</source>
			</header>
			<dataPoints>
				<positions axis="2Theta" unit="deg">
					<startPosition>10.00943322</startPosition>
					<endPosition>99.99442286</endPosition>
				</positions>
				<positions axis="Omega" unit="deg">
					<startPosition>5.00471661</startPosition>
					<endPosition>49.99721143</endPosition>
				</positions>
				<commonCountingTime unit="seconds">12.495</commonCountingTime>
				<counts unit="counts">2917 2971 2969 2890 2871 2982 2916 2915 2961 2954 2904 2888 2860 3036 2995 2890 2811 2918 2917 2901 2925 3013 2842 2989 2903 2951 2991 2981 2894 2888 2939 3033 2994 2942 2870 2936 2973 2920 2970 2935 2885 2937 3067 3075 3025 2931 2979 3003 2958 2962 2964 3002 2998 2985 2934 2991 2922 2972 2997 3047 2982 2990 3166 3077 2979 3026 3182 3207 3060 3072 3051 3050 3087 3148 3183 3210 3131 3180 3127 3054 3153 3196 3078 3225 3175 3157 3134 3037 3028 3072 3075 3039 3085 2972 3057 3026 3007 3051 2964 3012 3005 2971 3100 3091 3000 3084 2927 2982 2943 2937 2949 2946 2914 3015 3008 3072 2938 2931 2871 3117 2893 2897 2993 2942 2985 3018 3007 2957 2920 3037 2945 2947 3005 2958 2877 2930 3037 2982 2821 2948 2960 2929 2868 3034 2940 3009 2876 3048 2897 2923 2881 2921 2985 2958 2926 2940 2913 2963 2925 2910 2928 2979 2949 2962 2806 2909 2933 2926 2909 2945 2885 2899 2884 2891 2939 2918 2929 2934 2997 2965 2838 2833 2930 2947 2883 2947 2860 2960 3003 2940 2928 2974 2926 2909 2775 2817 2877 2827 2921 2901 2991 2943 2799 2991 2857 2960 2888 2780 2917 2989 2857 2892 2856 2964 2917 2924 2825 2919 2721 2859 2810 2975 2885 2843 2892 2855 2804 2840 2981 2743 2869 2806 2822 2861 2880 2783 2820 2982 2827 2715 2876 2834 2909 2898 2838 2911 2821 2831 2845 2873 2832 2972 2779 2816 2839 2733 2821 2858 2892 2780 2848 2850 2787 2794 2858 2815 2958 2861 2751 2750 2823 2705 2902 2779 2879 2902 2965 2877 2831 2864 2767 2861 2894 2897 2859 2961 2841 2917 2895 2905 2889 2998 2918 2842 2901 2781 2911 2929 2840 2902 2939 2837 2891 2921 2888 2998 2907 2952 3008 2891 2889 2988 2974 2990 2907 2961 2947 2988 2954 2931 2941 2994 2979 3002 3070 2941 2990 3121 3064 3019 3090 3184 3064 3109 2989 3035 3048 2998 3007 3045 2967 3055 3173 3103 3048 3152 3096 3190 3183 3223 3127 3099 3136 3202 3217 3180 3152 3141 3203 3209 3225 3255 3118 3281 3239 3203 3277 3253 3323 3228 3341 3234 3231 3241 3372 3356 3414 3253 3302 3442 3352 3345 3391 3432 3414 3393 3495 3491 3477 3425 3498 3574 3371 3426 3555 3547 3498 3605 3788 3597 3760 3699 3820 3823 3984 3872 4133 4167 4268 4301 4419 4529 4707 4621 4703 4622 4712 4695 4689 4536 4567 4385 4329 4226 4332 4153 4094 4219 4136 4119 4145 4017 4081 3948 3922 3993 3997 3959 3840 3865 4022 3701 3835 3668 3764 3610 3705 3664 3791 3785 3646 3604 3612 3627 3667 3590 3633 3479 3576 3484 3639 3492 3590 3712 3661 3658 3636 3660 3594 3531 3591 3537 3544 3504 3602 3533 3492 3519 3536 3558 3601 3554 3416 3580 3519 3477 3363 3566 3401 3580 3417 3567 3514 3380 3422 3477 3425 3334 3371 3354 3286 3299 3288 3341 3166 3243 3142 3229 3272 3220 3199 3200 3206 3217 3140 3192 3149 3174 3119 3118 2993 3141 3155 3120 3091 3160 3081 3087 2990 3073 3136 3194 3092 3147 3008 3126 3048 3122 3055 3082 3074 3181 3140 3045 3121 3052 3086 3011 3009 3174 2979 3061 2976 3016 3065 2978 3032 2935 2944 3196 3057 2978 3095 3011 2922 2954 3040 2958 2968 2976 2917 2939 3020 3019 3043 2987 2993 2963 2933 2963 2898 2897 2978 2876 2849 2936 2965 3006 2916 2956 2918 2934 2842 2956 2814 2899 2963 2990 2916 2879 2876 2892 2915 2966 2921 2984 2841 2824 2823 2968 2937 2819 2923 2868 2803 2878 2886 2888 2949 2898 2875 2832 2887 2875 2887 2795 2961 2846 2832 2794 2807 2867 2760 2721 2903 2766 2783 2907 2863 2951 2889 2890 2889 2904 2886 2802 2860 2957 2711 2783 2753 2888 2864 2864 2884 2881 2794 2838 2777 2736 2834 2720 2783 2754 2778 2846 2780 2768 2792 2784 2779 2880 2774 2758 2799 2777 2787 2811 2781 2768 2742 2733 2819 2850 2895 2818 2808 2729 2773 2808 2764 2808 2684 2770 2728 2784 2757 2829 2863 2848 2759 2756 2860 2794 2744 2737 2826 2695 2756 2860 2724 2808 2711 2750 2870 2781 2761 2815 2733 2801 2762 2793 2855 2777 2793 2758 2752 2815 2771 2659 2798 2656 2674 2779 2747 2767 2717 2769 2712 2692 2785 2800 2813 2810 2758 2736 2761 2758 2736 2771 2709 2658 2726 2620 2853 2775 2727 2737 2773 2734 2668 2677 2736 2724 2690 2767 2642 2690 2743 2686 2673 2804 2802 2678 2653 2698 2758 2755 2685 2750 2726 2673 2650 2776 2704 2653 2590 2758 2619 2611 2587 2647 2679 2741 2664 2627 2718 2698 2752 2559 2746 2676 2757 2677 2635 2712 2555 2583 2718 2638 2689 2629 2610 2638 2706 2621 2676 2619 2632 2573 2716 2588 2705 2658 2673 2684 2532 2625 2684 2584 2647 2629 2656 2769 2587 2644 2654 2612 2672 2653 2570 2606 2558 2623 2601 2584 2607 2561 2548 2580 2658 2597 2503 2582 2621 2633 2637 2549 2610 2637 2591 2642 2547 2671 2542 2729 2572 2590 2601 2579 2648 2608 2607 2524 2507 2536 2536 2607 2565 2579 2648 2642 2627 2573 2543 2481 2543 2623 2524 2493 2564 2511 2549 2630 2613 2689 2612 2510 2515 2447 2509 2526 2625 2524 2589 2496 2580 2500 2569 2551 2500 2571 2490 2522 2554 2575 2580 2553 2566 2598 2544 2511 2530 2557 2502 2516 2541 2515 2443 2532 2468 2506 2552 2459 2561 2537 2497 2403 2535 2470 2433 2555 2577 2566 2505 2488 2423 2534 2471 2521 2501 2448 2483 2437 2463 2397 2428 2485 2479 2478 2378 2397 2390 2429 2437 2524 2431 2434 2509 2513 2437 2490 2505 2527 2401 2464 2372 2479 2574 2430 2474 2451 2516 2466 2480 2430 2479 2465 2513 2411 2399 2523 2494 2506 2474 2473 2428 2545 2417 2396 2432 2313 2457 2506 2471 2443 2389 2394 2468 2484 2447 2411 2502 2399 2472 2449 2414 2567 2355 2444 2547 2467 2551 2500 2478 2437 2419 2607 2426 2534 2542 2584 2445 2419 2488 2459 2441 2500 2554 2529 2454 2341 2403 2443 2469 2533 2482 2428 2510 2502 2434 2509 2518 2540 2432 2515 2506 2513 2451 2530 2468 2513 2511 2392 2484 2470 2514 2459 2500 2475 2384 2492 2407 2431 2462 2556 2470 2518 2447 2372 2555 2415 2542 2446 2510 2434 2446 2344 2486 2444 2458 2521 2511 2372 2506 2408 2424 2482 2575 2351 2467 2408 2429 2417 2350 2458 2394 2484 2434 2367 2431 2417 2320 2437 2432 2395 2416 2450 2433 2407 2476 2458 2327 2360 2394 2377 2351 2436 2390 2396 2431 2400 2417 2467 2366 2357 2460 2320 2345 2393 2326 2303 2336 2310 2371 2296 2331 2348 2355 2335 2313 2393 2278 2327 2385 2320 2214 2370 2350 2304 2204 2332 2302 2269 2198 2326 2229 2287 2299 2253 2260 2248 2249 2290 2314 2205 2242 2170 2303 2207 2248 2144 2178 2276 2180 2298 2150 2152 2164 2112 2206 2120 2210 2108 2169 2225 2127 2088 2165 2217 2176 2092 2119 2135 2191 2048 2137 2061 2099 2073 2043 2039 2102 2028 2043 2114 2059 2065 2054 2046 2074 2050 1960 2111 1970 2036 2076 2091 2007 1965 1989 1947 2090 1985 2036 1946 1971 2036 2032 1953 2019 1944 2094 2013 2005 2063 1982 2015 1983 1975 2009 1965 1935 1890 1947 1961 2001 1951 1932 1946 2009 1975 2008 1948 1867 1976 1866 1982 1927 1997 1890 1923 1880 1889 2006 1856 1868 1859 1823 1926 1859 1876 1951 1857 1868 1852 1847 1798 1823 1814 1814 1768 1904 1877 1777 1851 1835 1907 1854 1891 1800 1806 1858 1833 1824 1798 1893 1808 1892 1847 1809 1820 1830 1778 1833 1755 1837 1796 1864 1762 1775 1823 1745 1853 1777 1789 1920 1724 1739 1785 1712 1827 1805 1882 1770 1845 1708 1818 1828 1801 1806 1752 1729 1756 1783 1887 1769 1841 1806 1785 1835 1795 1807 1739 1764 1757 1721 1782 1887 1787 1774 1752 1806 1834 1797 1797 1762 1745 1760 1800 1805 1735 1791 1768 1777 1710 1780 1752 1774 1754 1801 1853 1740 1784 1776 1808 1742 1784 1765 1721 1778 1791 1759 1757 1833 1825 1879 1752 1861 1774 1735 1839 1821 1873 1727 1804 1741 1846 1860 1819 1763 1766 1787 1787 1783 1843 1766 1854 1697 1733 1729 1827 1846 1724 1803 1836 1798 1813 1851 1807 1826 1803 1779 1810 1775 1858 1896 1799 1808 1798 1815 1798 1764 1807 1752 1856 1831 1775 1788 1859 1800 1832 1807 1835 1739 1776 1771 1813 1745 1822 1805 1829 1733 1763 1847 1837 1901 1833 1839 1756 1748 1747 1789 1830 1782 1822 1713 1830 1828 1786 1859 1795 1823 1746 1748 1806 1837 1799 1796 1813 1826 1785 1806 1884 1730 1830 1776 1717 1776 1771 1753 1741 1801 1760 1800 1777 1827 1812 1689 1765 1719 1769 1659 1743 1737 1793 1748 1681 1797 1807 1752 1761 1707 1751 1633 1702 1723 1707 1724 1664 1713 1706 1757 1663 1717 1745 1632 1652 1674 1711 1717 1679 1601 1672 1742 1732 1730 1684 1625 1720 1624 1652 1608 1688 1695 1632 1655 1657 1677 1604 1643 1664 1669 1634 1607 1616 1625 1602 1671 1605 1619 1604 1639 1654 1644 1571 1625 1578 1606 1605 1557 1482 1540 1525 1588 1606 1528 1560 1546 1525 1562 1545 1605 1625 1596 1526 1565 1550 1605 1592 1564 1618 1617 1515 1552 1464 1533 1490 1532 1484 1605 1442 1564 1576 1467 1531 1480 1564 1559 1552 1539 1499 1548 1494 1486 1520 1573 1428 1511 1446 1501 1540 1497 1589 1531 1547 1429 1482 1454 1466 1506 1548 1511 1499 1556 1589 1612 1582 1557 1590 1574 1676 1631 1622 1677 1773 1865 1838 1951 1999 2184 2240 2243 2377 2429 2371 2506 2487 2426 2472 2409 2369 2183 2202 2187 2109 2095 2051 1983 1973 1914 1882 1758 1848 1742 1739 1689 1725 1726 1645 1645 1588 1537 1477 1582 1513 1473 1516 1400 1427 1474 1481 1489 1420 1417 1435 1464 1386 1441 1419 1327 1362 1342 1394 1418 1425 1300 1400 1365 1371 1435 1275 1339 1365 1292 1356 1344 1419 1287 1300 1329 1323 1377 1347 1370 1314 1369 1325 1348 1287 1329 1410 1323 1391 1323 1339 1281 1342 1355 1248 1248 1345 1296 1375 1371 1296 1343 1371 1377 1352 1355 1382 1374 1395 1372 1457 1514 1498 1484 1507 1622 1677 1660 1826 1891 1981 2199 2285 2489 2622 2641 2836 2840 2806 2991 2906 2919 2830 2784 2850 2665 2639 2487 2499 2430 2228 2148 2124 2042 2045 1952 1893 1889 1812 1744 1707 1676 1702 1665 1587 1523 1554 1523 1422 1450 1479 1460 1396 1376 1312 1362 1342 1299 1399 1354 1353 1342 1375 1383 1450 1357 1422 1349 1365 1431 1396 1418 1330 1408 1313 1326 1355 1317 1332 1313 1236 1288 1251 1265 1225 1201 1219 1176 1213 1265 1178 1250 1234 1243 1181 1200 1227 1192 1195 1235 1167 1209 1218 1180 1236 1116 1192 1183 1267 1233 1177 1145 1193 1155 1193 1137 1199 1194 1194 1165 1152 1182 1141 1098 1202 1153 1190 1112 1131 1125 1180 1190 1165 1152 1171 1139 1113 1148 1147 1170 1132 1157 1160 1143 1164 1164 1100 1184 1139 1115 1114 1105 1151 1095 1124 1181 1131 1097 1140 1126 1079 1140 1037 1033 1083 1097 1138 1123 1116 1113 1153 1084 1103 1075 1110 1127 1125 1105 1103 1091 1154 1086 1118 1067 1084 1068 1061 1047 1056 1091 1123 1169 1121 1049 1130 1031 1051 1116 1093 1060 1049 1072 1048 1050 1117 1097 991 1063 1022 1060 1066 1092 1086 1072 1105 1091 1080 1041 1096 1078 1104 1065 1046 1028 1049 1031 1049 1014 1009 1101 1063 1000 1029 1091 1061 1109 1108 1017 1060 1055 1077 1063 1074 1025 1051 1071 1040 1050 1038 1014 1068 1059 1040 1044 1051 1075 1059 1119 1084 1101 1093 1085 1097 1114 1093 1141 1060 1103 1128 1087 1105 1176 1064 1090 1089 1175 1135 1146 1129 1144 1170 1132 1171 1161 1139 1179 1227 1169 1153 1213 1207 1169 1201 1210 1203 1246 1288 1333 1278 1269 1269 1185 1216 1142 1200 1176 1196 1157 1222 1113 1140 1121 1151 1088 1131 1138 1077 1156 1044 1119 1101 1103 1172 1002 1060 1059 996 1044 1037 1094 1035 1035 1062 1033 1040 1061 1097 1057 1012 1044 1048 1151 1041 1030 1089 1040 1091 1017 1080 1072 1054 1078 1087 1074 1110 1023 1056 1044 1038 1132 1064 1106 1061 1090 1084 1052 1053 1078 1063 1117 1061 1143 966 1050 1048 1028 1027 1068 1058 1045 1015 1046 1060 1112 1045 1064 1060 1013 1054 1082 1046 1033 1108 1049 1029 1048 1040 1058 1114 1034 1070 1062 1084 1134 1159 1046 1171 1099 1091 1113 1140 1114 1172 1125 1098 1161 1176 1124 1170 1145 1210 1232 1164 1216 1253 1279 1322 1298 1314 1394 1381 1447 1575 1668 1783 1862 1998 2258 2408 2557 2861 3185 3655 4124 4625 5028 5654 5983 6223 6302 6466 6415 6348 6474 6404 6220 5991 5976 5715 5462 5139 5256 5051 4744 4808 4306 4152 3849 3649 3515 3298 3282 3111 2843 2775 2559 2497 2342 2105 2139 1974 1902 1903 1731 1724 1673 1645 1528 1625 1506 1512 1489 1365 1471 1409 1335 1326 1381 1307 1365 1330 1326 1263 1298 1236 1274 1263 1220 1319 1194 1187 1244 1183 1193 1223 1231 1171 1121 1118 1164 1133 1086 1044 1043 1059 1052 1097 1046 1086 985 1023 1023 1045 1049 1005 980 1030 1033 1051 1016 1014 979 1047 1007 1033 1021 1008 995 987 991 974 977 1045 990 923 1021 1028 1014 982 991 971 991 1001 986 1054 1021 1012 1018 980 1023 947 937 975 989 954 1003 1056 984 962 958 1005 966 1014 926 1011 952 966 1000 970 970 1009 954 961 977 1002 1009 1008 1005 922 914 956 999 971 971 906 901 962 1000 1001 969 954 917 972 957 924 934 944 937 967 956 940 1001 943 937 960 918 924 927 927 951 957 938 922 958 953 905 928 947 913 933 931 926 914 985 926 927 889 866 886 916 905 906 925 878 918 920 924 976 917 893 911 941 949 916 922 938 942 894 910 877 914 944 924 937 949 912 911 936 884 929 878 972 926 946 916 915 829 945 948 928 912 897 914 904 881 867 930 946 894 898 965 861 880 919 886 952 892 919 881 931 875 879 953 935 899 906 913 890 864 882 891 879 824 890 923 910 873 887 862 901 893 947 938 941 940 880 914 918 936 961 941 930 865 955 879 986 968 942 916 936 927 958 942 909 979 966 938 846 908 923 934 942 898 930 892 910 890 912 878 830 905 889 899 814 902 869 844 886 851 816 884 913 866 905 899 858 878 884 925 884 879 827 905 876 920 825 819 888 875 885 880 872 905 889 854 852 894 914 885 860 836 849 909 852 863 817 887 851 892 843 847 868 859 836 889 806 867 813 821 861 851 833 836 861 778 789 816 836 866 849 848 836 839 813 814 786 818 827 834 862 868 823 822 879 848 869 836 830 821 811 846 840 739 840 843 881 847 821 815 832 850 829 800 787 816 801 815 837 833 841 894 837 780 825 826 819 829 804 826 826 829 782 878 790 850 823 758 851 844 839 864 845 824 823 828 830 773 851 802 795 774 880 837 825 840 834 842 847 858 855 816 801 891 844 847 855 846 837 831 786 850 807 840 866 813 776 760 804 789 821 831 850 765 773 784 831 768 862 825 836 839 796 838 813 780 831 844 853 790 802 780 768 791 802 790 811 771 785 799 827 884 808 816 770 829 829 791 825 818 820 790 800 797 812 823 768 798 809 787 797 824 802 814 764 861 756 777 809 759 759 794 780 824 806 782 757 777 773 805 773 821 751 785 763 778 809 803 801 783 777 764 846 834 800 781 809 796 778 795 768 784 804 800 797 749 823 772 821 802 784 775 724 739 782 843 768 821 796 791 752 807 798 801 795 763 760 776 828 770 746 811 804 818 829 819 791 777 783 796 781 797 756 796 776 765 825 802 798 818 751 742 777 826 782 768 779 772 746 818 811 806 808 797 827 782 795 831 787 796 813 782 824 803 725 773 751 780 741 777 793 715 814 817 753 753 795 808 783 795 796 794 774 796 740 735 771 763 784 780 775 792 825 764 790 772 769 804 792 783 825 746 767 748 784 740 805 757 726 735 772 725 791 791 785 731 809 769 804 752 753 776 765 746 796 754 766 741 768 789 743 736 799 772 728 775 810 749 764 748 734 785 791 758 792 753 793 788 746 741 767 759 710 752 732 768 802 795 767 769 766 735 807 763 755 798 757 771 786 833 775 805 787 763 793 794 739 801 758 780 779 787 790 752 783 814 784 747 756 746 756 758 756 742 741 800 781 827 769 770 804 798 760 732 793 785 784 787 730 762 805 783 789 728 750 775 767 755 720 751 718 712 797 747 745 735 741 769 785 732 745 780 759 781 715 763 772 718 685 730 797 739 721 808 728 806 726 749 764 748 824 744 760 732 769 727 730 730 773 789 770 790 723 751 744 742 777 740 780 736 768 739 735 736 784 765 762 739 806 719 736 735 745 735 769 764 734 743 733 826 766 744 769 784 778 792 752 772 771 795 751 780 767 716 835 741 770 763 771 760 799 739 782 719 799 770 774 811 757 824 780 739 782 768 756 749 777 804 755 778 758 776 803 779 776 789 737 764 774 781 802 778 806 780 751 769 803 717 801 752 741 736 754 788 747 773 803 725 749 731 751 758 762 765 759 837 768 810 788 761 742 761 814 795 756 760 774 755 796 794 758 817 855 838 904 872 865 935 970 1027 1049 1051 1094 1136 1254 1238 1172 1259 1186 1214 1271 1276 1164 1194 1248 1228 1166 1168 1064 1138 1074 1134 1059 1052 997 928 998 953 930 904 911 947 849 852 869 824 849 838 829 826 815 787 783 775 829 772 773 819 758 753 716 766 749 739 683 764 737 790 726 748 705 709 741 693 762 723 775 737 737 697 764 748 700 711 726 702 727 727 692 757 743 732 732 730 764 700 715 714 716 780 737 734 753 699 739 770 747 735 757 760 734 686 771 741 791 729 717 715 704 776 695 759 755 760 700 752 770 742 723 745 754 704 778 688 697 663 723 672 698 691 680 714 723 762 717 718 758 741 750 738 736 738 681 703 725 721 732 724 743 706 740 696 737 716 810 673 739 702 713 714 765 692 690 729 727 735 681 722 677 707 741 709 759 687 723 720 701 767 731 749 743 713 680 788 686 701 708 726 699 757 722 737 699 758 710 690 688 729 722 717 714 712 736 711 755 717 711 728 741 749 753 709 712 693 725 721 726 727 726 714 769 704 740 727 744 771 678 690 717 705 737 702 723 713 670 728 739 715 785 686 750 722 782 729 757 704 710 777 706 773 734 772 700 712 741 715 731 770 734 762 692 724 736 724 741 771 709 715 712 754 712 763 668 745 707 714 733 752 687 748 761 692 755 746 702 693 708 730 731 716 693 677 692 768 734 705 698 718 726 668 723 692 755 718 678 723 686 764 649 728 727 744 670 756 742 698 738 680 712 739 753 740 739 769 735 702 665 734 717 754 755 724 746 719 707 705 694 737 699 732 770 810 791 699 735 751 715 820 767 761 801 733 793 774 845 772 775 763 829 747 750 759 849 820 782 818 840 851 880 873 851 884 826 936 878 919 969 941 964 995 1108 1165 1267 1333 1423 1535 1728 1842 1978 2172 2450 2721 2906 3172 3141 3321 3307 3305 3394 3281 3390 3342 3211 3137 3154 3148 3096 2958 2952 2732 2718 2470 2435 2326 2086 2052 1867 1781 1631 1631 1499 1446 1368 1264 1271 1130 1150 1096 1036 1020 1016 960 932 932 893 916 879 858 843 851 835 851 773 844 828 799 770 791 812 797 714 738 785 738 748 754 769 723 711 736 728 835 736 669 772 738 759 722 801 704 734 775 726 766 727 756 775 764 733 774 777 786 714 738 814 786 782 780 743 785 819 814 790 795 765 780 771 850 819 836 809 810 811 749 788 783 775 791 790 810 797 744 727 751 776 783 707 704 750 752 798 780 788 777 742 757 711 735 744 662 747 795 758 792 699 718 717 718 678 696 747 689 727 679 668 669 696 700 695 721 720 709 680 699 702 704 678 717 691 717 683 667 679 709 686 719 722 722 655 669 679 647 686 687 677 656 639 754 705 704 675 638 703 679 700 701 678 676 680 689 721 684 678 699 715 719 734 677 688 688 620 677 713 699 742 708 722 748 775 753 801 811 818 886 834 871 889 1014 909 960 919 974 917 940 922 930 978 955 936 947 916 925 891 899 899 904 843 857 847 820 777 769 779 809 737 745 779 736 701 720 722 702 714 692 699 683 687 738 691 687 635 665 692 676 649 664 693 635 679 662 696 675 620 664 657 672 652 650 714 656 684 678 604 625 647 656 646 675 657 718 620 673 669 663 670 642 654 665 594 640 625 643 654 642 619 666 657 632 665 605 624 673 672 646 610 648 630 651 576 630 645 650 656 657 637 633 652 611 641 623 631 632 651 642 689 631 632 672 643 633 621 662 614 657 668 643 718 692 679 629 614 632 634 654 580 650 676 631 625 624 680 610 663 623 606 677 662 670 675 645 705 649 626 642 621 694 646 617 631 612 676 646 623 641 674 630 687 627 627 580 637 612 644 685 611 652 649 618 627 610 686 639 660 661 643 643 625 632 620 642 631 600 673 651 627 663 680 627 635 665 636 606 607 637 661 636 641 565 658 639 644 613 660 647 645 659 585 662 702 636 634 632 622 648 677 672 660 634 659 623 656 614 676 583 607 638 617 638 603 657 606 619 621 615 601 641 612 622 570 612 611 567 651 625 663 617 586 613 584 616 682 665 664 603 636 606 643 646 615 644 661 639 574 591 626 612 586 583 628 624 590 618 666 605 634 611 613 621 660 654 625 621 625 623 598 580 623 643 595 633 604 609 659 629 619 608 640 636 600 611 591 664 611 602 610 637 598 618 609 627 592 599 608 575 621 638 606 634 585 631 622 637 590 585 641 617 634 663 609 653 598 608 629 659 614 642 609 581 613 617 590 569 634 685 607 620 617 625 621 615 634 606 594 590 594 627 629 632 596 633 625 636 633 584 631 619 594 584 614 611 604 601 622 595 629 595 623 664 631 620 631 567 623 617 603 632 596 642 649 640 598 598 601 606 621 620 579 658 604 650 628 633 598 637 620 608 591 632 591 629 607 585 635 574 646 587 591 665 592 576 622 594 630 649 614 612 604 589 622 643 580 607 593 587 619 590 615 635 650 581 597 612 632 554 585 607 599 599 630 599 582 620 580 580 606 568 618 594 544 621 627 598 563 591 574 585 611 589 638 653 616 612 573 578 600 601 617 620 541 630 620 578 621 617 611 610 605 593 583 532 630 571 585 624 607 597 599 557 561 584 556 614 594 580 606 573 596 632 576 628 651 607 657 618 597 602 576 579 560 611 621 631 584 584 572 627 641 606 603 676 630 598 645 597 615 603 614 642 619 655 624 665 689 649 684 681 652 689 701 677 696 674 659 678 638 703 705 695 680 635 635 654 653 640 645 617 632 670 609 667 610 648 600 664 582 614 606 569 652 635 677 595 610 571 624 602 620 633 665 649 616 651 631 598 649 609 662 629 615 698 629 612 618 700 719 741 762 746 839 808 788 830 837 851 911 880 871 882 884 864 883 838 884 917 861 876 823 873 815 795 764 774 747 706 761 789 706 704 728 671 652 722 630 679 695 641 675 663 649 673 607 632 605 572 598 642 621 599 582 612 623 594 584 610 597 608 593 630 628 567 602 585 602 627 629 636 545 591 601 579 588 613 593 574 597 591 589 611 587 580 634 604 592 578 574 614 580 625 546 603 569 563 639 598 662 569 633 597 587 625 644 632 569 576 596 574 590 565 604 596 634 611 620 602 644 606 574 645 614 603 663 641 656 590 589 611 621 672 668 571 618 598 618 649 623 595 590 648 574 623 641 614 546 567 602 601 588 585 550 602 591 519 579 603 557 607 598 589 587 615 594 603 589 660 589 618 602 539 622 584 629 596 607 588 571 571 609 608 584 574 599 612 534 606 546 602 594 589 607 590 603 611 609 561 590 588 603 563 571 605 601 616 600 585 641 557 578 569 623 588 576 601 596 610 590 569 601 517 564 617 566 619 572 598 609 574 589 599 613 509 571 604 588 571 600 587 605 597 621 601 635 592 600 673 628 668 615 628 600 661 635 605 687 654 682 663 731 732 712 773 835 821 857 887 949 1030 1024 1025 1059 1121 1078 1108 1044 1083 1044 1055 961 1057 1008 1022 973 1043 955 1011 982 931 954 935 972 900 880 889 811 750 805 754 755 740 752 729 704 647 713 658 658 666 652 633 649 645 624 652 578 627 592 666 654 591 611 626 621 576 617 550 619 608 610 560 620 544 586 539 600 620 586 602 573 533 582 519 595 602 590 565 600 600 534 570 606 567 545 589 568 568 605 581 568 561 556 528 562 550 566 550 578 591 548 518 546 588 534 563 525 601 575 617 554 601 575 595 571 581 591 609 596 580 581 575 591 641 531 601 568 577 558 587 589 536 534 529 576 633 582 618 575 569 602 586 512 519 592 555 558 617 571 600 585 536 607 577 565 601 639 571 556 552 620 546 546 553 578 533 605 572 618 615 585 597 550 577 553 599 582 556 594 606 580 579 572 562 591 612 592 690 645 637 629 683 652 660 673 692 681 695 766 747 697 681 712 686 679 718 669 638 687 631 646 665 663 660 667 619 636 629 621 629 621 604 597 633 580 602 598 584 608 570 611 565 626 610 539 553 565 595 598 616 578 554 583 580 576 567 541 552 561 554 503 554 572 566 565 554 568 529 550 567 550 521 563 560 549 579 574 590 515 543 543 550 579 553 519 559 515 537 490 509 553 583 597 590 583 562 554 520 526 525 572 544 564 568 547 533 501 545 518 567 526 523 590 569 504 580 576 538 538 541 580 554 523 497 496 509 560 495 552 531 531 573 545 540 560 547 551 560 594 509 550 582 641 565 559 535 549 597 519 532 572 508 542 596 603 535 581 593 573 557 517 516 543 609 574 534 536 561 575 547 570 515 539 545 567 537 586 608 541 568 569 571 541 539 563 554 513 564 559 547 518 517 528 553 521 556 511 525 562 579 564 534 556 537 542 571 535 540 554 543 534 527 535 560 554 534 519 512 547 545 531 526 530 518 569 528 501 563 500 511 583 600 570 566 551 544 540 563 508 529 522 544 528 519 552 565 534 507 523 570 534 548 575 507 562 505 543 528 531 532 502 576 512 573 548 493 517 559 514 526 544 577 563 542 555 522 574 578 540 504 544 551 543 548 575 541 567 524 522 549 523 517 538 524 561 545 521 521 525 542 516 528 556 538 534 516 525 562 545 561 558 547 500 585 564 524 566 558 539 531 572 488 534 534 544 524 566 557 522 558 552 531 504 556 538 547 553 532 539 522 529 533 567 558 537 509 527 557 528 543 530 564 586 537 505 556 560 526 550 508 511 544 522 536 508 555 548 494 522 552 541 527 541 495 537 509 570 552 554 528 531 533 526 488 575 547 509 567 556 549 496 572 540 525 517 487 518 514 556 540 536 555 537 509 559 578 545 534 544 545 493 491 533 559 553 558 543 509 594 573 548 562 545 558 522 531 511 524 544 504 544 570 549 564 561 524 574 529 506 513 560 529 564 527 493 527 512 531 511 553 560 536 551 541 541 526 520 565 549 518 547 544 545 521 511 563 562 528 541 511 551 545 524 550 537 514 564 559 545 536 564 500 534 518 513 543 581 534 520 569 545 604 513 559 575 567 565 570 620 626 607 604 585 587 621 550 618 589 652 593 672 580 615 609 608 615 597 562 596 603 561 572 582 566 608 536 539 584 562 571 565 558 598 557 570 564 528 526 532 542 514 562 569 557 558 495 529 528 544 502 541 510 518 504 524 566 521 528 535 535 543 539 537 559 539 517 524 530 509 543 572 508 512 541 550 583 582 512 522 519 531 489 519 578 520 558 522 519 535 533 528 538 456 519 506 531 571 538 521 531 508 512 544 530 520 550 513 531 548 552 530 519 517 524 502 518 547 569 540 556 546 521 541 554 471 490 563 549 500 533 564 524 506 511 494 522 507 513 486 518 513 532 499 505 500 539 542 552 495 527 525 513 572 519 484 570 503 542 517 515 517 488 527 542 545 515 499 515 513 473 525 506 527 553 534 565 570 508 535 492 551 501 567 546 515 535 531 527 539 513 550 547 553 529 530 545 524 539 505 509 561 546 528 524 498 530 540 533 539 546 510 500 507 532 491 469 532 531 558 523 544 508 520 459 547 563 504 517 515 523 505 539 536 548 535 520 506 555 489 557 524 507 526 528 538 525 546 509 578 521 565 487 503 562 495 528 536 548 503 532 502 511 509 541 553 494 537 549 579 544 523 544 547 515 556 586 536 529 520 554 501 589 567 548 583 552 579 503 536 546 562 562 548 561 566 635 631 621 672 708 689 723 770 721 742 735 755 737 802 772 746 742 797 762 804 770 768 746 757 727 744 760 667 706 677 677 643 692 644 678 669 666 656 645 658 628 627 573 560 605 622 574 584 513 588 584 593 591 554 526 578 538 519 571 573 554 547 497 507 532 517 511 558 512 530 543 527 563 522 533 535 553 529 561 544 562 524 504 498 560 544 535 537 496 545 557 565 534 522 523 510 515 523 557 523 551 546 524 552 541 504 554 508 567 518 516 548 541 508 499 509 511 532 540 523 521 521 504 531 534 528 514 542 519 560 507 523 511 539 507 553 526 541 498 518 497 502 534 512 499 482 497 533 523 546 539 524 522 485 518 564 514 550 557 540 478 490 537 561 537 510 541 519 503 563 576 496 513 512 519 529 543 524 503 561 552 538 525 524 517 569 562 524 514 554 526 563 535 505 530 501 549 477 507 496 524 578 509 518 493 476 556 527 501 538 545 488 534 503 523 512 526 491 484 528 493 520 532 537 538 485 514 491 513 530 509 524 483 510 549 515 528 522 541 505 536 500 495 530 512 515 517 537 502 551 520 571 512 522 527 506 512 549 520 542 530 521 512 492 538 497 515 524 501 535 544 545 546 504 544 480 518 484 542 464 536 508 531 509 543 566 516 511 506 542 536 456 486 504 511 505 569 504 533 519 499 489 515 470 501 517 549 487 512 517 531 503 477 548 516 522 480 519 509 491 508 486 506 504 498 528 522 501 572 508 559 490 536 498 523 520 534 493 482 520 554 550 565 518 524 521 465 500 480 524 549 546 510 526 519 520 524 498 500 496 515 536 523 487 501 536 530 550 501 526 545 500 559 509 473 541 502 528 542 571 518 529 491 527 519 517 540 512 516 548 533 512 530 515 508 489 577 510 501 549 509 508 474 547 551 541 509 473 557 490 499 550 522 521 473 528 518 474 555 468 496 561 514 555 521 532 533 505 522 499 518 483 471 481 518 545 496 508 534 541 542 512 539 515 491 513 513 523 523 537 461 532 486 514 498 495 518 538 463 485 489 533 499 513 518 526 520 533 486 506 488 482 531 475 549 497 521 512 530 541 514 516 496 530 499 535 541 495 511 510 513 480 535 518 513 508 539 484 487 529 527 503 525 518 524 505 495 552 515 505 556 538 530 485 535 475 558 458 547 497 531 481 502 528 510 528 550 532 514 499 570 496 509 540 510 500 534 515 489 513 513 505 501 496 500 505 510 521 546 490 485 499 492 526 496 493 505 492 572 499 529 498 520 495 509 531 505 531 490 523 556 508 500 510 491 527 518 540 508 530 496 493 501 542 493 496 537 533 537 495 496 531 507 528 550 539 549 508 527 538 536 564 521 564 501 472 538 534 496 487 515 538 532 575 548 533 514 503 536 542 544 544 559 489 520 512 501 495 515 543 514 538 524 558 520 557 577 545 530 525 512 520 538 576 565 543 519 502 591 553 576 581 552 526 542 564 527 579 624 555 580 574 598 516 591 561 573 575 547 582 585 545 577 539 560 550 598 556 612 606 508 603 559 591 606 605 584 563 550 557 568 558 529 533 492 551 575 481 551 565 568 510 561 523 651 596 550 551 577 554 615 584 610 616 594 620 596 606 593 593 587 549 564 625 634 558 600 568 568 613 554 567 594 578 587 583 585 573 592 567 557 570 565 589 540 562 543 604 552 538 556 529 561 595 541 510 530 538 568 511 581 507 539 536 502 522 559 553 538 553 552 523 494 500 534 485 515 537 517 533 531 534 508 534 569 517 508 555 538 538 534 558 536 522 488 513 537 525 496 544 532 521 532 584 542 546 538 511 532 566 546 531 484 521 539 575 562 525 546 515 519 547 517 498 547 510 531 506 528 537 550 574 519 503 532 540 508 542 531 515 523 527 542 527 510 559 547 532 526 551 491 560 538 588 510 535 524 553 521 599 508 554 602 553 553 557 538 484 514 534 555 535 510 545 550 532 541 511 559 579 529 529 527 535 564 571 552 575 534 592 539 542 570 581 540 580 514 568 569 533 529 550 549 569 541 551 569 559 549 576 560 594 564 562 563 626 584 571 597 549 573 586 552 608 601 585 608 569 628 604 581 649 618 662 701 667 675 645 713 743 721 776 794 824 825 845 862 846 862 883 926 892 951 960 913 827 909 917 860 858 826 817 843 760 848 795 812 781 812 814 786 842 845 769 849 759 771 803 743 753 694 756 682 728 705 695 673 660 639 651 651 645 601 618 570 563 588 549 574 562 563 564 601 581 544 539 522 592 538 541 546 593 507 515 527 537 558 541 545 538 554 518 507 546 580 575 536 549 538 554 556 571 560 510 545 501 511 543 524 550 520 559 558 553 573 547 524 562 494 505 549 539 547 526 540 533 548 532 537 519 525 554 555 549 555 532 501 525 503 525 532 533 548 454 505 525 506 528 511 539 526 540 511 549 552 531 532 489 541 551 534 509 530 553 551 550 547 550 506 539 503 517 519 529 563 555 549 571 496 581 517 506 611 550 584 573 565 584 554 555 573 564 539 615 564 592 561 534 574 547 580 538 595 528 551 594 570 543 631 566 566 600 526 614 595 543 571 536 567 545 565 544 564 520 594 517 583 540 560 539 504 579 540 506 537 525 498 520 497 546 537 563 535 568 521 502 533 549 516 513 553 525 522 489 520 508 493 514 517 521 510 495 542 510 535 535 532 509 507 535 497 496 480 518 530 501 513 503 516 518 513 537 475 542 572 517 531 544 529 527 540 563 496 501 509 503 516 527 537 541 497 517 496 480 519 490 503 508 552 491 519 530 527 554 514 509 539 519 477 526 463 500 492 524 524 513 501 499 486 486 521 544 528 513 505 499 496 515 520 509 535 514 507 502 557 527 485 526 537 522 464 521 554 517 539 523 507 486 486 522 485 508 527 520 507 488 524 527 491 491 493 473 540 508 461 476 536 479 471 541 509 514 482 504 545 500 543 507 544 555 528 495 464 497 538 526 477 513 481 589 493 489 527 522 483 517 502 514 513 478 480 474 512 495 501 491 538 497 488 556 488 528 508 484 514 516 475 561 506 523 485 505 510 560 482 525 496 533 487 482 489 515 501 478 469 498 519 482 508 528 493 514 493 520 452 477 487 524 493 488 525 518 514 506 487 493 523 471 499 509 512 487 491 494 498 487 469 521 500 509 537 525 495 518 530 526 480 493 533 495 516 539 507 518 528 530 482 524 531 534 519 513 526 511 531 503 493 514 498 457 516 531 506 492 505 513 467 507 521 523 520 511 494 522 544 511 486 527 489 506 534 504 516 520 494 531 550 492 530 549 466 485 493 484 526 489 520 518 514 452 474 482 523 514 504 508 478 486 506 478 489 490 511 513 501 500 468 487 500 517 529 472 515 557 535 527 503 509 516 501 497 544 522 483 515 497 489 479 489 509 529 488 494 529 515 526 537 488 503 539 494 492 519 521 520 503 527 513 500 508 524 536 512 500 543 518 480 519 474 478 507 452 492 509 516 551 498 555 505 558 479 533 560 527 500 489 536 533 508 536 511 542 512 564 514 522 551 553 533 540 543 552 529 533 570 575 535 546 533 554 548 563 545 546 524 524 564 525 516 575 534 528 544 546 509 511 501 556 527 542 543 485 496 520 512 516 483 534 538 504 489 499 486 503 533 525 503 529 506 520 537 487 476 510 463 516 483 483 518 518 501 500 479 500 467 477 519 498 508 523 524 479 470 546 479 507 485 527 529 474 507 524 510 502 491 489 511 528 514 506 480 526 508 533 547 528 517 537 480 508 455 526 501 527 477 526 487 509 501 535 474 495 510 529 499 470 489 484 476 493 477 516 490 501 507 514 515 523 512 497 537 547 489 503 504 514 475 544 490 504 488 486 517 514 512 509 474 540 490 494 484 539 472 538 479 487 526 490 482 519 490 523 466 471 495 517 540 535 513 502 518 481 463 477 525 518 499 453 497 479 488 531 525 486 492 508 513 494 491 528 519 495 536 471 517 495 511 516 461 501 516 494 534 472 473 542 517 476 450 506 463 441 501 476 468 502 553 517 484 485 515 500 507 466 494 435 552 469 531 481 547 453 528 511 534 494 529 528 496 514 485 482 520 514 506 530 545 541 543 539 500 523 524 525 469 508 472 503 544 540 537 530 508 543 589 582 603 586 589 574 662 682 652 692 644 675 713 671 697 676 727 759 713 838 752 742 777 769 831 745 786 735 761 698 701 682 709 695 679 654 671 619 660 655 673 684 657 603 650 682 709 667 708 673 657 658 645 677 609 636 642 558 566 562 608 552 568 550 510 554 540 478 538 515 581 540 502 501 536 491 518 500 520 524 557 508 526 478 493 510 487 467 550 459 509 497 509 518 505 508 540 501 522 531 521 524 533 519 515 525 462 547 503 518 510 488 498 527 533 530 479 545 495 496 481 500 520 522 534 469 507 536 511 492 512 510 460 494 539 487 518 501 472 522 523 491 482 467 435 501 534 499 531 462 514 520 516 500 507 499 488 490 451 489 493 519 532 534 507 495 522 467 515 505 489 475 491 492 500 471 520 484 504 515 519 512 491 506 522 475 483 535 555 545 487 471 513 508 541 565 488 504 502 533 536 524 478 513 504 546 492 522 477 514 531 499 500 478 499 545 473 479 484 505 472 527 494 507 528 489 522 533 530 518 536 535 543 494 537 547 480 491 517 466 524 477 485 484 534 467 471 476 497 517 545 545 524 509 492 488 501 535 473 524 468 531 475 513 485 495 484 548 507 490 491 507 507 470 491 492 502 523 513 504 462 502 524 507 490 470 521 495 481 511 481 490 534 485 539 461 489 472 458 523 536 502 492 443 499 481 497 505 513 531 469 514 505 524 471 486 498 479 499 524 463 500 513 498 505 465 464 514 489 485 510 484 536 468 495 513 467 501 482 468 488 496 496 508 455 467 515 453 493 463 504 510 504 536 555 467 494 486 458 470 475 468 486 508 479 486 479 495 540 463 480 508 474 461 505 418 480 491 521 496 529 498 503 463 483 465 501 470 465 476 501 490 446 504 504 506 501 509 467 460 448 461 453 515 475 473 465 496 471 494 502 508 495 529 468 465 514 507 528 483 496 505 535 486 512 480 509 484 480 479 494 486 491 521 528 497 508 495 478 502 463 460 515 474 438 531 488 466 482 460 509 535 504 504 496 491 463 478 481 465 474 469 459 429 517 481 520 534 515 533 531 478 461 483 505 524 490 482 450 501 469 452 487 476 477 498 472 500 449 463 508 502 507 487 495 489 477 495 464 484 477 524 490 482 498 501 506 491 473 505 467 520 481 504 511 478 501 480 494 463 492 493 495 451 476 497 505 473 510 554 473 497 468 491 501 469 502 490 432 461 502 487 483 449 519 484 448 514 505 502 465 516 487 468 530 444 514 510 461 459 517 482 500 507 501 502 499 498 458 464 526 487 485 491 461 482 458 578 476 500 486 449 464 463 431 487 489 479 514 498 487 465 499 438 463 515 503 448 513 493 518 485 531 472 506 495 479 531 504 472 490 500 503 518 483 513 477 477 499 511 505 541 484 520 522 498 467 529 492 500 510 528 518 530 511 502 474 516 505 479 566 551 536 531 548 519 544 563 550 549 511 578 510 516 556 520 514 614 539 545 579 546 535 551 527 577 497 547 493 515 544 555 542 516 525 538 488 536 560 552 482 534 503 516 542 505 490 526 548 524 527 539 522 495 539 513 541 513 517 509 535 500 531 496 524 509 503 464 492 545 500 497 442 510 549 526 536 492 502 530 492 478 557 521 499 509 492 502 514 514 497 484 506 479 515 533 511 533 532 547 527 493 522 502 527 511 545 529 507 548 547 511 503</counts>
			</dataPoints>
		</scan>
	</xrdMeasurement>
</xrdMeasurements>
