<?xml version="1.0"?>
<xrdMeasurements xmlns="http://www.xrdml.com/XRDMeasurement/2.3" xmlns:xsi="http://www.w3.org/2001/XMLSchema-instance" xsi:schemaLocation="http://www.xrdml.com/XRDMeasurement/2.3 http://www.xrdml.com/XRDMeasurement/2.3/XRDMeasurement.xsd" status="Completed" recordIdentifier="{1848C6D3-DCCC-4F2A-A887-C11ABF70DD63}">
	<comment>
		<entry/>
	</comment>
	<sample type="To be analyzed">
		<id>GPSS_Li1p6Mg0p8Zr0p2Cl4_110125_690658b7e3432ed06b655f36</id>
		<name></name>
		<preparedBy></preparedBy>
	</sample>
	<xrdMeasurement measurementType="Scan" status="Completed" sampleMode="Reflection">
		<usedWavelength intended="K-Alpha 1">
			<kAlpha1 unit="Angstrom">1.5405980</kAlpha1>
			<kAlpha2 unit="Angstrom">1.5444260</kAlpha2>
			<kBeta unit="Angstrom">1.3922500</kBeta>
			<ratioKAlpha2KAlpha1>0.5000</ratioKAlpha2KAlpha1>
		</usedWavelength>
		<incidentBeamPath>
			<radius unit="mm">145.00</radius>
			<xRayTube id="1010048" name="Empyrean Cu LFF HR (9430 033 7310x)">
				<tension unit="kV">40.0</tension>
				<current unit="mA">15.0</current>
				<anodeMaterial>Cu</anodeMaterial>
				<focus type="Line">
					<length unit="mm">12.0</length>
					<width unit="mm">0.4</width>
					<takeOffAngle unit="deg">6.0</takeOffAngle>
				</focus>
			</xRayTube>
			<sollerSlit id="21010002" name="Soller slits 0.04 rad.">
				<opening unit="rad">0.0400</opening>
			</sollerSlit>
			<mask id="22031000" name="Fixed mask 13 mm">
				<width unit="mm">9.00</width>
			</mask>
			<divergenceSlit id="22120001" name="Divergence slit 1°" xsi:type="fixedDivergenceSlitType">
				<distanceToSample unit="mm">50.00</distanceToSample>
				<height unit="mm">1.52</height>
			</divergenceSlit>
		</incidentBeamPath>
		<sampleMovement xsi:type="spinningSampleMovementType">
			<spinnerRevolutionTime unit="seconds">1.0</spinnerRevolutionTime>
		</sampleMovement>
		<diffractedBeamPath>
			<radius unit="mm">145.00</radius>
			<antiScatterSlit id="22090040" name="AS slit 9 mm (PIXcel)" xsi:type="fixedAntiScatterSlitType">
				<height unit="mm">9.00</height>
			</antiScatterSlit>
			<sollerSlit id="21020003" name="Large Soller slits 0.04 rad.">
				<opening unit="rad">0.0400</opening>
			</sollerSlit>
			<filter id="20030001" name="Large beta-filter Nickel">
				<material>Ni</material>
				<thickness unit="mm">0.020</thickness>
			</filter>
			<detector id="7010019" name="PIXcel1D-Medipix3 detector" xsi:type="rtmsDetectorType">
				<phd unit="keV">
					<lowerLevel>4.02</lowerLevel>
					<upperLevel>11.27</upperLevel>
				</phd>
				<mode>Scanning</mode>
				<activeLength unit="deg">5.542</activeLength>
			</detector>
		</diffractedBeamPath>
		<scan appendNumber="0" mode="Continuous" scanAxis="Gonio" status="Completed">
			<header>
				<startTimeStamp>2025-11-03T14:00:26-08:00</startTimeStamp>
				<endTimeStamp>2025-11-03T14:08:34-08:00</endTimeStamp>
				<author>
					<name>AutomatedUser</name>
				</author>
				<source>
					<applicationSoftware version="1.7b (136)">PANalytical Aeris Instrument Suite</applicationSoftware>
					<instrumentControlSoftware version="3.2.00000000 20240306">AERIS</instrumentControlSoftware>
					<instrumentID>950485</instrumentID>
				</source>
			</header>
			<dataPoints>
				<positions axis="2Theta" unit="deg">
					<startPosition>10.00943322</startPosition>
					<endPosition>99.99442286</endPosition>
				</positions>
				<positions axis="Omega" unit="deg">
					<startPosition>5.00471661</startPosition>
					<endPosition>49.99721143</endPosition>
				</positions>
				<commonCountingTime unit="seconds">12.495</commonCountingTime>
				<counts unit="counts">2653 2672 2539 2533 2552 2580 2585 2581 2729 2570 2559 2507 2672 2555 2675 2598 2488 2585 2635 2568 2579 2573 2536 2573 2599 2618 2619 2656 2651 2628 2610 2627 2554 2755 2657 2631 2604 2628 2613 2620 2671 2682 2667 2564 2538 2753 2653 2673 2597 2618 2639 2665 2644 2592 2621 2617 2544 2750 2702 2560 2593 2596 2732 2665 2638 2653 2690 2715 2686 2633 2616 2625 2734 2626 2692 2690 2665 2682 2690 2637 2648 2684 2745 2556 2714 2685 2687 2639 2681 2653 2693 2740 2573 2651 2621 2668 2747 2705 2697 2735 2708 2735 2605 2628 2744 2571 2704 2681 2761 2752 2701 2619 2759 2832 2809 2710 2703 2706 2824 2692 2689 2691 2732 2787 2697 2687 2735 2769 2741 2802 2749 2675 2816 2774 2753 2750 2765 2793 2757 2813 2675 2711 2678 2811 2667 2758 2755 2737 2778 2770 2683 2711 2798 2790 2703 2703 2738 2717 2746 2738 2719 2742 2808 2705 2808 2709 2798 2773 2737 2752 2814 2708 2769 2828 2784 2746 2821 2695 2786 2742 2671 2848 2686 2667 2772 2741 2728 2679 2734 2735 2609 2748 2712 2697 2716 2655 2718 2677 2689 2735 2675 2694 2722 2804 2740 2685 2769 2743 2672 2759 2659 2672 2744 2704 2687 2771 2863 2729 2700 2720 2630 2708 2620 2608 2652 2672 2685 2682 2732 2665 2752 2799 2762 2709 2645 2681 2754 2704 2687 2697 2608 2588 2701 2723 2707 2695 2641 2637 2674 2687 2654 2623 2766 2620 2575 2640 2726 2614 2748 2613 2731 2636 2675 2640 2672 2669 2614 2577 2721 2616 2640 2635 2606 2536 2542 2530 2598 2615 2617 2658 2696 2662 2683 2670 2677 2574 2603 2664 2652 2656 2630 2640 2627 2662 2647 2650 2790 2635 2688 2666 2770 2722 2664 2682 2830 2674 2662 2587 2847 2734 2695 2722 2719 2763 2677 2692 2690 2761 2716 2693 2705 2790 2639 2740 2823 2688 2821 2739 2731 2727 2686 2777 2781 2765 2792 2801 2723 2806 2819 2823 2850 2814 3015 2934 2805 2960 2891 2818 2869 2796 2904 2831 2808 2868 2890 2888 2995 2724 2893 2925 2968 2930 2951 2871 2909 2853 2799 2879 3077 3042 3011 2950 3052 3022 2959 2917 3035 3001 2901 2938 2923 2997 2921 2961 3012 2998 3125 3020 2981 3016 3025 3057 3004 3042 2978 3021 3008 3052 3051 3131 3056 3084 3003 3096 3120 3058 3052 3024 3111 3089 3105 3193 3162 3096 3215 3237 3292 3188 3206 3270 3244 3280 3250 3337 3315 3324 3312 3288 3208 3225 3214 3321 3282 3391 3297 3341 3338 3361 3429 3361 3401 3435 3389 3446 3459 3494 3534 3548 3576 3666 3586 3658 3829 3742 3724 3745 3809 3949 3893 3856 3999 3940 3927 3980 3987 4011 3860 3919 3849 3778 3901 3813 3723 3811 3740 3787 3685 3682 3653 3825 3792 3924 3901 4005 3823 4079 4012 4167 4027 4084 4224 4165 3891 3992 4005 3828 3715 3622 3521 3376 3313 3275 3246 3134 3120 3085 3110 3059 2918 2927 2970 3021 2995 2840 3008 2760 2873 2782 2781 2894 2950 2816 3007 2876 2873 2913 2808 2767 2832 2784 2868 2712 2885 2775 2698 2820 2842 2788 2900 2856 2758 2797 2819 2809 2739 2611 2761 2746 2696 2658 2710 2773 2680 2739 2737 2776 2849 2762 2661 2647 2652 2812 2706 2770 2726 2704 2730 2670 2614 2638 2730 2589 2632 2590 2763 2644 2711 2664 2684 2678 2714 2685 2616 2652 2564 2698 2594 2709 2623 2505 2567 2603 2521 2612 2601 2712 2562 2595 2553 2613 2539 2649 2567 2574 2563 2674 2599 2636 2495 2557 2507 2529 2514 2596 2461 2536 2554 2549 2505 2546 2569 2451 2537 2569 2477 2539 2530 2574 2544 2520 2561 2601 2402 2500 2531 2580 2489 2630 2469 2482 2557 2477 2466 2428 2491 2510 2479 2546 2479 2425 2463 2436 2442 2465 2502 2433 2519 2449 2532 2454 2391 2397 2445 2506 2559 2479 2558 2498 2477 2426 2513 2366 2339 2396 2428 2449 2422 2456 2375 2436 2366 2509 2476 2376 2446 2413 2391 2460 2392 2405 2465 2420 2493 2446 2445 2435 2548 2372 2491 2454 2367 2466 2364 2441 2378 2456 2405 2358 2409 2451 2337 2484 2498 2371 2397 2298 2313 2398 2385 2445 2356 2400 2395 2392 2379 2376 2331 2400 2344 2391 2407 2309 2432 2475 2396 2367 2334 2497 2368 2397 2472 2340 2331 2414 2411 2419 2340 2243 2395 2297 2377 2331 2386 2335 2294 2339 2289 2375 2304 2367 2389 2303 2448 2293 2318 2370 2494 2329 2352 2358 2380 2435 2404 2368 2306 2317 2332 2312 2365 2358 2351 2388 2412 2318 2326 2345 2348 2375 2489 2377 2317 2225 2433 2447 2306 2350 2383 2226 2293 2360 2296 2318 2263 2346 2336 2326 2367 2224 2280 2242 2360 2250 2362 2247 2257 2296 2281 2186 2285 2291 2314 2323 2223 2221 2371 2345 2237 2300 2360 2264 2365 2283 2307 2195 2283 2267 2254 2292 2235 2216 2214 2330 2308 2225 2213 2268 2173 2186 2212 2251 2269 2291 2168 2255 2257 2273 2267 2206 2290 2135 2172 2161 2278 2209 2160 2145 2198 2210 2161 2242 2178 2187 2158 2223 2189 2188 2218 2298 2188 2171 2247 2236 2188 2208 2217 2250 2093 2220 2170 2206 2163 2168 2180 2180 2162 2196 2100 2142 2207 2264 2159 2171 2073 2238 2239 2189 2205 2174 2171 2138 2119 2136 2187 2099 2116 2245 2093 2141 2040 2161 2138 2172 2097 2106 2089 2081 2117 2100 2154 2147 2099 2089 2183 2132 2106 2123 2188 1949 2165 2139 2134 2084 2098 2085 2122 2119 2160 2062 2103 2108 2140 2082 2089 2173 2076 2113 2094 2099 2000 2034 2085 2058 2167 2084 2070 2074 2119 2143 2155 2157 2141 2139 2090 2073 2095 2032 2134 2122 2128 2048 2093 2038 2126 2072 2084 2179 2100 1981 1969 2137 2065 1996 2036 2122 2010 1992 2151 2019 2129 2089 2058 2057 2041 2002 2133 2009 2169 1956 2154 2031 2078 2066 2074 2122 2058 2086 2186 2047 2049 2066 2091 2036 2054 2151 2062 2016 2030 2009 2005 2085 2042 2050 2101 2129 2099 2090 2096 2050 2047 2088 2048 2134 2084 2168 1989 2143 2093 2062 2067 2137 1993 2109 2095 1971 2056 2069 2055 2078 2017 2158 2049 2045 2111 1992 2054 2075 2100 2032 2074 2106 2122 2085 2130 2065 2076 2017 2047 2083 2022 2060 2160 1969 2114 2054 2090 2107 2184 2137 1982 2040 2147 2128 2046 2017 2088 2066 2064 2134 2029 2092 2013 2113 2045 2023 2140 2031 2023 2091 2152 2025 2123 2054 2032 2018 1978 2028 2083 2032 2096 2076 2042 2167 2044 2124 2023 2059 1995 1977 2009 2001 2025 2026 1970 2088 1966 2015 2042 2054 1961 1989 1925 2052 1991 2023 1983 1972 1961 1943 2042 1922 1880 1909 2008 1970 1993 1903 2015 1886 1974 1862 1934 1957 1918 1924 1945 1964 1960 1980 1906 1890 1909 1952 1858 1849 1834 1871 1865 1802 1897 1873 1827 1883 1837 1906 1802 1813 1848 1930 1869 1927 1859 1888 1828 1892 1826 1806 1846 1762 1811 1820 1797 1855 1762 1841 1713 1764 1776 1704 1806 1692 1748 1779 1738 1705 1789 1759 1751 1747 1708 1805 1757 1759 1762 1777 1757 1714 1711 1658 1714 1700 1694 1672 1664 1727 1680 1689 1664 1691 1700 1697 1641 1612 1642 1619 1594 1671 1592 1655 1629 1767 1628 1585 1582 1612 1639 1543 1600 1592 1605 1636 1618 1573 1636 1566 1563 1547 1622 1611 1565 1510 1577 1507 1588 1639 1533 1548 1598 1487 1542 1566 1521 1567 1577 1556 1501 1472 1479 1585 1491 1567 1519 1528 1516 1461 1551 1458 1478 1547 1509 1495 1469 1562 1519 1488 1536 1595 1454 1520 1544 1493 1464 1476 1510 1555 1491 1486 1503 1492 1449 1499 1530 1467 1517 1485 1445 1441 1471 1471 1449 1495 1465 1415 1496 1455 1529 1454 1448 1516 1413 1400 1454 1445 1423 1476 1433 1430 1296 1448 1467 1411 1499 1385 1422 1474 1473 1422 1425 1383 1474 1409 1376 1393 1449 1404 1446 1376 1373 1469 1411 1458 1380 1461 1514 1428 1461 1501 1438 1419 1398 1421 1439 1393 1397 1459 1391 1444 1407 1410 1422 1472 1435 1423 1396 1487 1491 1459 1415 1357 1348 1321 1455 1397 1423 1421 1479 1320 1433 1390 1410 1369 1449 1408 1423 1454 1413 1366 1391 1387 1343 1426 1395 1486 1470 1460 1448 1445 1407 1505 1475 1494 1351 1475 1445 1502 1439 1358 1440 1492 1433 1473 1449 1495 1448 1439 1456 1423 1450 1396 1522 1429 1455 1328 1453 1345 1466 1442 1473 1409 1402 1549 1426 1408 1484 1445 1401 1436 1458 1402 1462 1457 1422 1501 1481 1484 1470 1436 1401 1478 1433 1366 1480 1426 1398 1522 1465 1399 1427 1485 1458 1406 1343 1416 1441 1525 1500 1449 1516 1469 1413 1421 1404 1456 1489 1424 1409 1420 1359 1402 1420 1398 1385 1390 1461 1427 1380 1525 1433 1424 1436 1411 1389 1410 1384 1390 1417 1380 1402 1349 1376 1374 1318 1384 1455 1404 1364 1375 1373 1387 1423 1343 1333 1375 1294 1389 1371 1373 1325 1354 1382 1409 1369 1403 1358 1356 1314 1368 1347 1323 1299 1413 1291 1337 1356 1294 1359 1358 1321 1276 1331 1236 1343 1300 1236 1308 1271 1332 1235 1253 1232 1273 1255 1251 1295 1265 1268 1216 1237 1250 1262 1135 1286 1290 1332 1180 1228 1239 1136 1212 1264 1184 1237 1234 1263 1260 1205 1244 1203 1194 1209 1159 1203 1217 1178 1231 1182 1196 1160 1254 1118 1185 1161 1205 1122 1125 1247 1136 1181 1162 1191 1163 1181 1156 1160 1159 1124 1135 1157 1122 1084 1141 1162 1163 1093 1154 1197 1155 1103 1132 1087 1169 1117 1162 1142 1143 1189 1134 1085 1136 1151 1094 1046 1100 1112 1059 1143 1075 1154 1084 1122 1109 1113 1125 1085 1134 1140 1136 1121 1143 1119 1129 1124 1103 1116 1146 1064 1182 1078 1154 1090 1140 1099 1118 1064 1084 1059 1102 1062 1122 1126 1134 1098 1155 1114 1133 1117 1121 1155 1164 1220 1118 1156 1205 1245 1243 1185 1281 1241 1287 1327 1271 1289 1340 1243 1287 1291 1232 1244 1194 1183 1187 1116 1183 1197 1176 1099 1115 1086 1125 1142 1147 1088 1169 1201 1121 1092 1106 1118 1152 1130 1081 1118 1078 1047 1125 1057 1091 1065 1114 1040 1174 1051 1049 1084 1094 1063 1046 1042 1025 1072 1068 1055 1038 1097 1026 1054 1145 1043 1039 1094 1062 1004 1055 1100 1141 1125 1107 1099 1227 1166 1285 1359 1375 1444 1484 1560 1638 1716 1749 1958 1893 1970 1847 1924 1847 1944 1855 1844 1758 1727 1666 1632 1614 1598 1663 1685 1634 1616 1849 1854 1864 2017 2139 2286 2465 2605 2866 3069 3324 3574 3866 4299 4388 4931 5202 5565 5595 5894 5775 5902 5932 5798 5717 5559 5229 4902 4658 4110 4005 3684 3347 3181 2911 2726 2618 2496 2249 2304 2313 2296 2345 2364 2382 2423 2551 2579 2616 2665 2739 2848 2978 3020 3168 3206 3080 3019 2934 2977 2830 2763 2686 2569 2536 2409 2272 2198 2146 2016 1950 1912 1855 1958 1811 1799 1766 1696 1648 1675 1601 1583 1576 1531 1427 1435 1327 1392 1313 1159 1218 1143 1126 1067 1074 990 990 1042 980 998 948 944 975 961 959 920 948 921 939 895 893 950 899 910 889 879 894 929 851 891 826 875 893 902 880 860 889 842 833 817 866 848 901 828 897 805 811 813 763 816 777 843 879 850 833 863 782 856 818 834 856 860 827 817 804 784 794 838 781 773 775 760 805 748 816 822 853 761 820 811 798 794 751 770 788 873 807 772 783 739 700 756 755 813 814 800 776 758 746 743 716 773 794 757 746 771 743 745 731 785 809 765 769 768 703 718 692 775 761 738 729 704 785 719 750 739 781 728 682 744 755 711 770 720 724 707 736 749 796 765 775 725 768 730 765 727 732 742 702 674 737 733 717 732 734 731 707 750 711 709 799 715 725 707 679 693 729 741 735 737 731 693 733 692 786 655 757 732 682 774 717 683 730 750 681 681 713 732 691 745 729 728 719 714 687 693 698 678 726 697 714 723 699 743 691 660 710 687 660 731 683 681 653 716 722 711 695 667 716 708 688 714 666 696 698 673 712 701 680 661 692 658 708 693 702 698 662 696 686 762 756 678 671 732 668 665 679 670 695 684 721 730 736 701 702 696 736 716 670 678 710 709 708 707 725 686 726 719 668 701 670 658 655 677 685 673 732 702 731 706 670 745 703 698 647 739 705 688 715 719 722 754 717 747 756 720 731 741 731 761 751 773 816 796 729 745 824 833 798 867 860 856 859 985 972 1013 984 1080 1035 1233 1190 1324 1332 1341 1322 1449 1506 1478 1488 1537 1562 1536 1659 1486 1584 1564 1572 1557 1586 1539 1569 1540 1602 1596 1587 1744 1849 1929 2037 2173 2359 2489 2595 2833 3017 3192 3687 3915 4245 4477 4742 5149 5304 5516 5617 5648 5535 5763 5507 5516 5363 5100 4837 4578 4263 3962 3765 3499 3267 3091 2812 2679 2489 2416 2250 2163 2129 2095 1975 1981 1951 2078 2096 2186 2308 2442 2473 2563 2815 2884 3034 3181 3240 3348 3439 3421 3610 3513 3504 3511 3482 3408 3390 3198 3133 2932 2791 2630 2423 2375 2093 1983 1835 1659 1536 1523 1450 1292 1303 1167 1118 1042 1010 962 910 910 840 903 916 843 821 827 815 740 805 763 744 775 789 775 747 759 778 733 723 691 689 676 723 690 717 747 662 705 693 643 703 682 658 671 708 647 650 669 638 644 650 668 676 660 650 667 589 660 650 633 631 703 650 679 653 671 635 690 637 646 637 627 628 641 625 617 567 706 663 649 670 597 597 671 633 588 689 567 607 634 626 623 641 640 657 613 611 613 598 600 587 607 570 605 607 613 633 596 622 609 615 593 640 610 580 632 580 595 570 550 620 633 595 633 552 601 581 593 615 607 580 575 576 587 602 597 624 589 640 606 592 594 563 594 609 561 607 578 609 566 587 571 576 640 592 639 573 622 592 577 579 594 611 577 544 565 574 608 579 565 604 566 586 527 557 573 561 597 574 545 585 554 639 512 602 545 545 542 551 568 609 567 613 556 573 556 548 526 568 557 577 557 576 585 580 535 560 572 557 549 535 584 532 542 589 552 564 517 551 555 538 555 537 522 542 563 552 534 564 543 567 541 544 562 542 518 570 527 561 526 530 511 611 579 496 534 538 565 556 574 542 502 535 543 470 477 554 495 539 539 572 532 524 576 531 518 507 507 605 540 556 519 521 534 526 546 530 517 519 562 553 532 540 502 552 584 562 597 543 550 517 492 579 484 544 525 512 552 536 537 526 495 508 508 539 504 495 525 506 488 499 516 526 533 513 488 508 529 501 526 469 514 500 484 484 468 496 494 501 470 494 517 492 485 505 517 495 534 467 492 495 467 507 495 507 464 506 489 508 484 522 475 449 486 505 512 530 514 493 485 450 480 463 498 500 487 515 488 517 457 487 521 463 498 467 479 506 430 496 476 486 486 483 456 478 480 508 484 459 492 492 441 468 428 436 505 460 531 464 469 507 454 463 528 510 486 502 476 459 488 496 459 485 484 457 517 494 500 496 487 463 468 441 451 494 450 475 512 456 490 492 449 505 500 479 485 461 477 500 509 478 458 481 448 478 464 479 469 483 473 480 453 440 458 474 489 501 475 504 472 487 458 475 475 482 477 497 505 471 479 457 459 490 447 474 446 455 429 479 510 498 461 481 486 493 514 464 465 477 461 409 453 426 500 475 489 472 475 432 487 495 496 469 507 492 486 453 496 461 444 488 453 443 463 458 488 486 461 473 417 430 434 456 451 463 461 490 445 497 461 480 479 431 464 439 430 473 433 453 465 424 469 442 518 489 463 442 475 447 444 449 452 478 455 432 465 456 454 479 438 447 403 441 449 507 456 450 452 463 428 479 445 447 442 497 386 430 467 478 437 405 451 426 420 490 449 490 444 486 445 454 450 472 453 443 452 445 409 435 512 466 460 441 448 449 439 434 440 458 459 488 421 493 459 430 436 489 439 462 472 479 440 430 442 446 486 501 453 469 418 451 457 432 478 451 470 449 454 505 418 444 427 428 471 438 431 447 468 448 472 441 437 455 450 443 466 488 471 420 481 461 488 466 452 485 444 442 428 439 431 430 432 460 488 473 432 433 447 450 421 403 418 446 430 458 513 483 434 421 426 461 428 444 393 453 453 432 457 428 453 457 414 471 435 454 451 422 438 383 400 432 425 411 458 444 429 405 433 442 426 416 475 476 429 444 490 444 417 424 434 434 452 448 414 424 449 473 463 461 443 408 416 422 433 432 411 452 414 460 442 403 411 385 398 387 454 405 407 429 397 451 401 407 397 436 404 457 420 459 431 443 404 431 411 432 433 415 406 438 423 444 404 398 410 426 437 438 427 396 403 404 428 414 416 439 411 417 412 393 425 406 440 376 407 431 390 382 405 397 425 377 398 416 425 382 424 368 370 435 421 429 416 425 438 453 422 388 425 461 396 434 442 428 414 439 411 443 380 402 428 378 436 447 413 444 439 406 424 465 405 429 407 421 406 451 415 430 427 410 401 442 430 431 436 409 416 440 441 432 432 423 420 441 400 372 440 418 439 414 448 412 466 416 424 455 454 440 467 452 441 479 526 456 519 462 494 465 438 486 490 521 482 520 518 493 523 508 515 491 532 537 494 491 511 513 544 615 626 574 600 616 662 708 610 619 743 716 687 712 738 768 736 710 738 729 698 715 678 605 636 585 639 582 529 537 516 567 544 519 530 491 464 458 475 461 497 494 438 489 457 435 433 490 474 506 423 484 476 396 435 429 466 413 413 472 387 486 431 506 455 442 499 461 437 501 470 521 491 467 482 505 523 481 472 496 492 459 523 476 465 504 490 526 502 523 468 506 472 483 499 434 457 449 425 420 474 486 451 442 431 441 420 430 421 419 413 421 408 423 377 404 411 382 399 414 427 407 399 370 399 439 402 406 425 361 387 405 411 395 396 384 375 434 401 392 410 383 370 389 422 360 395 393 416 384 393 401 366 370 372 387 427 359 414 387 417 418 415 385 386 444 359 388 380 386 377 386 408 385 412 392 348 353 398 399 371 386 377 394 358 353 411 396 376 378 434 402 386 408 377 378 393 373 357 416 359 391 401 380 419 379 358 364 379 386 423 395 373 375 406 392 382 405 417 380 453 377 415 379 384 399 396 380 373 355 355 445 421 370 422 386 407 389 394 437 375 431 391 415 371 352 385 394 425 408 382 468 394 420 399 416 406 389 408 403 402 404 411 382 414 395 376 401 400 426 404 372 370 374 394 415 398 397 392 392 418 393 404 413 455 396 409 386 389 357 429 403 420 379 403 400 417 396 466 383 409 416 377 387 418 387 405 476 434 394 413 364 428 412 428 409 404 416 427 402 411 403 414 425 425 426 404 396 402 448 401 425 403 435 432 447 428 420 405 415 433 408 444 449 465 449 442 462 445 449 426 485 466 500 462 516 477 497 515 523 569 569 599 696 725 796 837 857 1002 1012 1046 1004 977 972 911 957 963 957 1022 990 1028 1005 1084 1039 1117 1014 1052 1094 1116 1046 1204 1299 1326 1306 1482 1513 1625 1768 1924 1940 2029 2181 2209 2351 2349 2538 2547 2610 2412 2510 2495 2435 2358 2259 2206 2038 1994 2004 1998 1756 1698 1671 1475 1450 1400 1292 1235 1204 1194 1109 1063 1044 974 963 945 885 932 889 944 905 931 897 922 952 931 923 918 968 1071 982 999 1059 1103 1139 1178 1183 1261 1182 1285 1232 1375 1391 1379 1348 1419 1417 1444 1341 1384 1368 1429 1361 1372 1312 1321 1261 1259 1244 1269 1171 1179 1152 1182 1171 1160 1075 1023 1024 1037 994 938 934 918 872 894 873 790 836 843 835 795 790 820 732 710 749 700 696 623 661 599 654 595 578 583 583 524 556 527 533 514 504 518 516 453 468 504 488 468 462 481 423 484 471 479 484 459 429 460 448 446 399 441 398 426 418 400 405 401 420 396 420 435 394 403 439 409 363 377 381 435 416 391 393 410 350 403 430 415 391 402 366 365 345 380 375 374 429 335 407 409 398 392 386 381 367 425 407 417 403 428 388 392 400 396 398 403 449 396 417 441 416 404 397 373 411 401 395 423 400 394 381 408 409 365 388 431 399 432 419 455 427 447 412 442 484 462 498 472 438 460 478 480 454 461 416 470 467 432 432 436 448 416 464 432 453 398 391 383 381 405 423 418 401 416 405 405 378 405 384 362 369 405 389 374 354 358 379 402 346 412 388 392 349 381 378 363 388 391 433 382 422 382 392 417 418 399 394 404 409 419 409 403 430 422 388 410 396 377 402 384 390 410 370 383 372 348 373 346 366 362 346 307 390 336 352 351 328 341 341 360 331 333 357 311 334 357 339 330 333 368 341 340 332 383 362 369 322 368 312 356 345 371 345 357 324 378 339 331 319 346 351 321 387 333 354 348 340 362 328 342 322 359 317 337 358 353 324 335 351 338 298 324 327 331 299 311 312 304 327 329 317 322 350 336 334 336 305 320 334 300 347 372 336 313 358 337 302 332 319 346 333 312 355 358 377 350 339 347 329 316 331 311 314 279 335 316 281 325 325 310 337 342 362 328 349 314 333 307 341 331 338 314 315 357 296 344 312 374 305 286 316 333 300 344 340 321 354 332 291 322 345 305 324 322 298 299 338 334 301 301 287 338 309 284 322 335 304 329 335 328 326 341 310 333 308 332 347 333 304 316 326 283 299 310 310 295 317 284 310 315 312 296 324 337 301 299 284 316 310 299 335 309 322 320 306 314 303 311 338 311 328 309 316 338 321 301 332 306 322 303 316 302 297 298 323 311 317 314 320 319 316 299 308 326 335 325 307 332 336 339 283 353 307 334 325 293 322 302 301 332 319 331 328 310 335 325 331 321 290 294 269 333 296 324 292 298 295 312 274 304 309 297 324 314 318 309 326 304 298 340 341 276 282 300 326 285 355 308 313 314 282 283 294 300 293 284 300 309 300 315 328 315 303 342 309 281 283 336 291 317 278 336 315 343 300 316 307 344 311 316 289 299 318 262 312 257 292 326 301 293 304 290 330 314 329 305 277 298 322 330 317 298 322 312 318 320 300 300 288 311 245 329 287 265 315 266 282 295 286 308 276 332 306 328 257 306 280 295 301 287 292 288 344 290 318 319 279 316 303 318 300 305 276 278 284 289 290 285 281 309 309 292 301 289 289 286 327 283 300 272 301 297 314 322 310 296 278 297 327 295 312 317 303 315 304 293 267 310 287 300 285 258 260 293 283 276 311 285 316 307 292 299 299 328 277 283 288 334 288 295 298 330 266 317 279 327 301 320 308 291 328 313 319 342 318 275 312 324 304 294 287 275 294 290 314 304 287 294 287 310 295 272 317 295 328 330 313 325 289 340 300 325 317 292 317 329 286 317 304 341 313 343 343 373 328 332 339 327 317 390 352 340 326 349 377 308 312 360 324 348 367 321 377 357 392 340 375 409 375 388 400 415 415 443 482 519 430 479 507 513 488 528 483 531 536 514 488 527 531 554 570 578 568 589 588 627 665 626 716 795 787 838 808 822 856 890 888 852 967 920 981 882 981 913 928 915 904 821 813 793 797 743 791 716 703 649 637 586 622 582 590 611 588 534 515 503 474 534 458 443 492 479 464 535 479 437 474 466 484 458 473 471 466 454 482 443 513 464 503 525 466 512 477 504 520 565 569 558 529 560 603 608 601 579 636 597 615 660 663 658 694 666 711 715 705 743 708 767 687 673 688 688 688 682 651 645 677 582 604 592 627 579 555 527 541 509 507 508 504 500 513 461 446 469 463 517 439 434 441 481 444 419 425 430 423 404 372 387 414 380 444 405 399 342 404 410 387 368 428 385 398 376 387 384 352 353 360 372 345 352 359 328 381 335 328 337 365 334 376 334 353 332 352 355 310 367 328 331 308 320 323 339 312 319 304 341 284 319 319 325 289 301 338 311 310 300 343 296 319 308 326 334 351 306 324 308 301 298 296 278 306 294 305 277 280 311 291 274 309 314 326 312 317 275 305 283 295 341 269 307 335 301 334 299 329 297 327 334 306 321 321 344 323 354 340 349 357 357 353 357 398 413 396 383 391 386 397 409 434 438 419 434 427 504 435 467 477 476 495 537 524 515 569 652 637 643 694 695 694 777 777 761 794 807 791 786 797 824 789 769 811 748 756 711 707 673 670 630 603 570 624 589 533 555 560 547 527 501 516 421 498 451 425 403 385 377 358 383 371 379 397 355 359 384 382 358 378 435 405 402 369 405 410 447 407 415 419 412 401 416 411 431 435 436 457 446 498 438 492 509 495 480 549 516 505 507 561 546 534 533 557 572 546 563 547 566 530 523 511 527 562 504 512 499 488 475 493 499 491 466 497 440 439 439 427 377 414 408 385 393 457 380 371 396 359 366 380 367 326 378 338 366 362 352 342 385 342 338 372 414 369 359 390 369 386 365 376 320 361 341 348 354 307 331 324 339 358 344 349 349 337 319 329 307 315 321 309 307 273 307 286 303 286 272 306 309 281 316 313 342 326 301 294 323 325 322 333 325 335 322 289 348 332 345 307 334 308 299 324 364 352 339 334 370 364 385 346 345 391 345 363 377 353 343 361 384 339 359 351 330 324 322 310 311 301 309 339 341 320 304 293 312 257 295 296 317 279 296 274 311 264 288 327 301 244 234 271 272 282 280 293 266 315 267 285 230 256 246 292 261 261 290 268 260 285 264 274 273 244 271 236 271 272 278 256 278 257 265 244 275 239 259 277 284 241 236 275 246 268 279 250 228 275 275 290 281 281 266 244 280 246 276 268 283 286 286 289 298 279 292 282 302 264 302 300 300 290 276 291 304 291 290 323 302 309 297 285 264 313 281 312 301 263 294 275 266 267 282 302 247 278 280 256 290 265 291 293 233 285 272 300 267 303 272 308 285 278 247 288 257 225 245 213 246 235 245 263 271 286 257 242 249 261 265 242 282 257 256 257 229 230 239 266 239 242 227 242 236 261 239 234 229 246 239 258 274 238 224 238 260 220 218 227 272 239 245 248 233 247 283 236 232 248 241 273 223 249 216 239 244 237 242 261 228 265 210 220 242 223 271 230 231 235 237 232 232 267 215 223 261 220 243 237 243 227 232 262 214 239 249 231 232 259 256 250 256 221 242 220 222 212 206 218 229 245 230 309 264 231 227 210 214 228 265 231 226 242 238 212 212 216 242 259 237 238 242 216 236 247 240 283 225 240 241 239 230 239 215 228 246 227 274 238 209 211 257 270 239 245 198 235 231 226 249 258 199 236 241 233 223 240 204 223 274 222 207 234 225 234 246 234 234 241 231 280 231 238 247 208 237 230 227 222 258 246 240 228 217 231 242 227 239 218 226 209 239 213 245 216 239 210 261 229 227 247 231 250 244 195 218 234 229 224 216 213 228 239 228 238 224 227 219 236 228 241 231 224 262 262 247 238 284 227 207 225 230 270 259 236 223 224 201 218 204 213 219 214 245 265 214 206 228 209 212 232 225 225 224 216 259 227 208 258 259 243 237 234 215 245 220 224 240 225 193 213 209 213 199 231 222 228 263 231 242 234 233 243 213 238 209 240 220 234 219 234 205 263 223 231 220 217 239 221 205 219 232 235 209 237 244 223 248 256 235 259 238 244 263 278 248 264 233 258 249 216 228 244 262 238 213 290 243 256 264 245 268 279 302 269 299 274 272 267 288 278 301 294 315 284 295 247 305 283 235 265 279 288 285 227 284 319 256 296 259 277 237 246 244 248 245 265 279 259 245 262 242 226 221 237 259 270 236 237 232 223 271 229 241 244 235 206 224 213 232 248 242 244 206 237 223 249 216 247 218 215 239 223 237 241 249 224 249 284 230 242 237 242 231 212 222 220 236 247 214 222 274 212 229 244 222 210 250 279 230 223 256 218 213 242 227 226 243 212 243 241 248 279 262 226 246 242 234 250 220 261 263 244 237 238 232 231 239 231 219 237 215 248 212 261 242 246 273 246 258 201 265 216 244 228 227 233 250 237 185 245 228 264 227 206 233 195 246 212 214 215 208 250 217 211 226 228 218 170 222 209 229 213 215 241 233 194 206 222 226 217 220 225 208 233 198 236 225 226 216 239 209 209 209 262 194 238 228 218 202 222 225 183 244 213 206 236 215 209 215 228 212 214 241 229 231 230 211 215 210 219 225 196 232 248 219 231 232 223 219 201 216 225 243 235 205 225 226 216 220 220 208 202 192 207 246 228 217 233 221 262 221 228 250 201 215 220 234 256 227 241 236 226 222 231 214 222 194 222 238 263 204 259 239 244 277 234 218 274 265 227 290 276 244 236 265 261 266 285 282 304 325 278 285 294 305 299 315 308 324 286 331 357 357 328 336 356 358 306 364 421 386 376 391 362 438 415 428 441 462 467 465 436 434 446 434 411 440 450 424 422 385 407 379 441 395 357 365 412 374 370 391 380 341 345 348 333 306 375 313 322 312 323 298 298 274 270 248 285 278 295 273 272 275 240 257 278 236 259 265 281 268 281 262 258 286 270 260 283 262 247 278 266 258 263 268 247 277 284 266 292 312 263 285 272 292 267 270 317 283 312 293 308 328 305 321 323 315 312 313 314 328 312 358 350 346 355 376 316 344 319 352 329 331 355 340 355 348 346 396 353 338 310 329 310 331 313 299 313 345 319 309 301 281 322 293 298 271 303 312 326 307 279 257 290 246 248 284 275 269 286 241 275 245 242 305 246 230 239 287 268 262 246 265 256 281 258 240 263 262 242 228 219 244 234 269 271 223 248 250 248 270 243 244 229 221 245 269 219 263 264 267 247 260 234 257 249 271 258 248 249 233 235 229 269 236 260 222 240 240 202 235 223 224 224 209 228 192 221 266 240 241 223 238 221 239 222 239 212 244 230 232 234 237 226 236 231 272 206 227 221 238 220 235 240 234 222 218 238 208 205 249 225 209 216 194 226 223 219 194 226 227 228 205 208 222 212 215 232 195 237 225 192 220 212 219 232 235 237 200 220 227 232 210 225 210 193 234 220 216 192 229 231 209 214 214 248 235 217 224 211 216 200 200 233 209 227 213 242 226 219 227 212 220 227 204 232 194 206 223 234 224 224 197 216 222 259 215 226 204 198 228 225 214 205 230 238 214 204 207 209 224 217 206 207 214 212 237 208 244 223 191 242 226 195 227 209 224 224 220 223 228 235 225 215 219 215 192 219 206 224 224 232 195 215 229 215 213 229 217 217 215 204 228 224 221 219 217 229 230 202 263 207 228 201 234 211 216 200 216 233 206 260 240 199 224 219 243 216 250 219 232 249 224 222 264 209 229 216 243 195 195 197 230 230 233 221 201 192 209 211 212 200 229 208 221 188 233 245 178 198 233 206 227 199 212 241 227 224 224 188 226 243 208 221 200 212 228 223 227 235 225 219 199 234 224 244 225 229 230 204 207 237 197 215 208 233 205 258 229 231 240 212 204 221 214 223 191 203 186 237 250 241 241 230 216 237 232 237 206 218 234 225 210 234 232 228 221 236 208 191 223 251 211 199 213 202 221 216 242 229 230 240 209 230 228 199 212 256 212 271 225 224 214 234 231 222 234 234 209 203 231 223 218 225 214 240 215 215 232 209 258 238 204 222 229 259 197 210 229 249 270 261 203 226 236 218 250 216 256 228 216 205 209 225 235 243 238 222 232 220 227 227 224 232 220 226 235 174 272 211 222 248 210 230 230 212 235 219 234 212 233 227 242 220 231 277 247 246 232 220 213 249 250 263 222 230 218 219 213 231 211 247 231 241 214 221 267 250 261 199 228 215 202 260 234 242 270 240 234 196 257 262 257 277 263 248 256 258 260 266 276 265 243 275 259 284 271 280 301 284 262 245 284 285 249 285 293 264 259 275 291 285 265 289 306 301 287 272 246 272 261 262 272 309 276 298 276 282 290 285 300 313 322 292 321 296 327 303 300 320 327 336 322 308 333 328 335 365 344 345 325 405 402 374 346 404 443 428 400 422 460 407 424 395 434 421 406 395 389 377 363 376 403 358 365 388 340 370 310 336 340 358 351 321 350 325 323 328 347 304 303 315 287 293 282 292 310 291 288 278 307 261 280 264 259 293 308 266 284 265 262 281 261 270 256 280 235 261 249 306 279 268 244 260 314 284 286 275 292 267 296 274 278 276 232 306 274 288 303 294 291 290 296 303 280 309 344 303 334 315 325 319 351 330 343 331 305 330 380 347 355 366 347 340 339 333 366 389 389 368 364 392 360 395 389 388 342 376 361 363 364 357 398 344 358 331 403 355 379 368 357 324 318 329 330 345 327 307 353 326 302 305 246 331 330 321 331 306 297 271 291 278 277 309 347 303 300 294 277 304 290 307 310 288 314 261 267 306 314 272 285 300 291 303 308 329 283 282 270 332 299 308 285 309 280 297 282 328 281 338 308 321 274 298 301 351 339 375 333 318 329 387 354 360 351 381 361 398 378 381 381 386 428 413 449 449 431 430 432 471 420 420 477 480 534 537 516 558 561 522 536 592 582 588 587 573 584 589 579 557 589 571 519 562 545 511 526 533 541 491 496 517 455 474 453 466 475 443 456 466 422 404 428 384 409 434 405 387 360 366 385 350 326 351 297 343 304 290 293 339 301 300 319 295 315 296 346 316 306 307 326 317 287 333 311 298 298 245 308 317 285 313 282 315 302 327 286 309 311 305 287 313 292 300 297 302 330 348 316 307 349 347 355 394 384 337 378 354 416 372 340 419 382 426 413 390 439 400 423 431 433 416 416 413 454 434 465 406 452 467 433 432 444 436 435 420 408 437 402 448 412 413 394 397 432 434 415 441 415 393 383 386 363 393 388 377 372 405 376 385 382 365 406 380 388 375 400 398 368 393 346 360 343 342 314 350 308 326 302 343 356 277 335 346 326 316 322 288 271 293 300 334 311 304 319 313 327 338 299 326 294 327 307 280 274 282 294 300 282 295 285 281 223 291 271 284 263 271 295 274 234 238 267 259 277 267 264 260 228 282 245 284 244 251 241 236 258 233 243 224 236 259 225 217 222 241 233 248 267 222 283 248 234 262 247 240 218 264 204 244 221 227 232 207 243 226 259 269 263 232 259 227 215 246 222 224 215 248 208 222 249 205 224 227 216 233 256 222 227 231 215 204 197 195 225 232 242 237 224 199 227 249 245 259 239 245 217 211 210 231 237 206 246 230 228 247 223 245 205 224 216 228 219 230 210 215 233 235 230 248 230 257 201 278 239 244 225 238 193 265 227 222 223 224 230 225 260 221 210 242 226 213 227 224 232 229 195 259 243 216 233 212 207 215 207 202 268 213 223 217 219 242 211 215 219 192 225 224 232 205 208 187 205 222 220 221 199 228 201 210 217 219 215 214 198 220 221 234 238 219 198 212 241 218 238 207 219 203 218 203 208 214 207 205 200 215 239 229 218 216 205 220 228 219 241 214 232 233 245 215 213 224 219 231 204 225 202 201 214 232 227 244 207 219 222 210 222 228 218 226 217 214 197 203 202 215 190 217 213 215 238 199 218 203 199 195 184 218 197 208 214 228 195 257 232 233 195 239 222 206 224 212 172 230 219 242 224 214 188 223 222 228 261 243 213 231 217 209 227 238 201 198 212 223 226 209 197 218 218 200 235 200 227 216 194 234 220 228 201 234 232 212 233 210 203 229 227 205 201 211 232 202 206 218 211 215 217 225 231 230 199 213 219 193 204 179 202 221 228 214 234 206 220 200 263 235 250 215 204 200 197 239 209 212 235 219 226 218 230 206 211 234 206 198 188 203 224 243 205 226 226 196 211 196 210 213 201 211 221 225 197 214 230 208 206 224 221 240 233 206 199 211 235 204 199 197 230 207 213 221 258 238 242 246 213 206 234 241 203 236 220 243 221 217 221 239 221 228 213 263 228 266 240 205 245 227 266 235 260 233 248 194 258 232 222 260 269 247 229 301 230 215 234 218 230 251 256 244 230 218 271 195 237 234 226 226 238 239 249 231 230 226 228 207 217 217 210 216 213 229 221 235 217 240 249 216 233 204 220 240 232 208 204 205 226 230 234 235 244 249 218 225 221 233 210 205 222 229 213 233 193 193 213 195 223 204 203 201 212 207 195 215 227 235 196 220 205 229 206 189 227 217 213 232 200 214 205 186 207 232 191 222 230 212 193 226 214 202 193 205 209 206 219 206 210 203 228 194 191 188 229 217 224 230 226 230 207 207 236 244 214 219 224 219 191 236 210 207 232 232 216 233 216 223 218 208 227 220 213 212 226 220 221 259 198 242 208 206 214 238 219 205 199 230 207 224 208 195 217 223 235 191 245 206 235 233 246 198 213 205 218 230 218 206 223 181 214 232 207 216 205 240 209 235 216 200 232 175 223 225 232 226 196 209 215 203 217 222 246 232 211 186 211 213 247 202 200 204 232 231 218 202 242 227 206 218 240 225 224 210 237 221 231 206 207 195 235 214 226 208 229 243 242 240 232 245 280 228 231 258 243 266 278 230 238 239 257 288 278 242 290 260 302 319 291 311 304 295 294 307 316 309 296 354 353 376 356 349 316 359 379 391 369 381 364 428 421 447 451 457 463 463 415 477 495 521 474 499 462 510 485 466 510 473 450 434 470 454 442 404 449 451 456 449 424 429 416 376 398 393 417 343 401 359 365 343 317 401 314 355 367 311 333 342 263 330 317 298 291 286 294 274 315 256 261 247 244 290 271 248 223 241 263 234 231 242 211 268 268 262 272 245 246 265 247 261 233 257 231 240 249 261 222 231 273 243 242 250 269 235 261 232 227 239 269 270 262 258 256 263 259 273 243 256 270 239 273 271 264 274 283 298 318 296 280 297 319 305 288 358 345 324 304 304 355 365 347 351 355 324 355 330 354 349 355 351 331 373 391 361 373 385 416 390 439 391 393 399 376 353 413 408 407 384 400 393 367 386 376 371 397 350 371 331 329 351 348 392 356 326 348 329 350 346 339 326 332 308 333 341 334 296 342 290 278 326 319 272 301 263 309 278 346 270 312 282 300 291 306 267 306 274 294 292 266 267 300 241 276 272 309 268 272 261 276 285 271 310 249 280 269 279 294 280 237 263 260 268 281 232 264 242 257 250 220 263 246 282 265 232 259 237 241 241 270 261 272 282 257 243 244 221 249 265 234 264 227 271 230 271 258 244 220 249 224 239 214 241 240 214 250 193 196 203 212 232 212 223 225 263 225 234 221 178 227 224 248 208 234 221 201 219 197 232 242 228 240 220 225 211 224 217 224 232 202 199 217 211 214 231 209 241 216 267 225 220 211 204 222 216 229 226 203 197 212 207 215 212 216 228 235 211 212 220 199 218 200 223 222 208 193 211 232 201 211 207 224 203 203 230 225 230 210 201 181 239 208 227 220 215 201 216 218 227 216 206 227 211 240 198 229 199 209 207 203 195 203 207 196 213 187 196 200 193 164 224 213 198 199 202 231 216 211 220 236 219 199 214 192 219 197 216 212 203 208 231 230 207 211 223 180 214 216 222 217 209 200 211 206 170 209 207 202 222 234 230 205 198 184 194 240 208 216 196 215 198 223 188 210 225 201 197 213 210 196 202 215 246 194 213 205 196 217 222 205 224 181 201 194 204 174 218 193 212 205 213 219 207 225 204 188 204 219 194 221 218 250 207 213 212 243 193 188 222 203 219 208 241 180 208 184 224 199 222 216 227 182 186 217 192 199 198 188 188 181 209 203 218 213 201 187 214 201 202 205 209 187 193 199 194 221 199 202 186 211 187 215 203 208 192 249 199 234 209 202 203 196 239 224 216 202 223 204 265 223 218 236 191 200 179 208 216 190 198 185 211 202 208 239 178 217 233 195 214 205 181 169 212 219 210 210 216 202 228 223 184 213 199 197 213 213 218 197 222 213 213 199 205 189 200 240 232 244 214 233 229 225 237 206 211 228 233 217 211 223 231 242 249 239 231 220 233 210 245 224 215 246 243 233 241 226 241 243 242 283 229 296 232 281 261 266 290 278 266 271 272 246 264 302 270 265 232 290 268 273 316 293 300</counts>
			</dataPoints>
		</scan>
	</xrdMeasurement>
</xrdMeasurements>
