<?xml version="1.0"?>
<xrdMeasurements xmlns="http://www.xrdml.com/XRDMeasurement/2.3" xmlns:xsi="http://www.w3.org/2001/XMLSchema-instance" xsi:schemaLocation="http://www.xrdml.com/XRDMeasurement/2.3 http://www.xrdml.com/XRDMeasurement/2.3/XRDMeasurement.xsd" status="Completed" recordIdentifier="{F229D1E6-678B-4F1D-9F51-278861A4DADD}">
	<comment>
		<entry/>
	</comment>
	<sample type="To be analyzed">
		<id>GPSS_Li1p6Mn0p8Hf0p2Cl4_121825_6943d914f4d05ae3d69790b7</id>
		<name></name>
		<preparedBy></preparedBy>
	</sample>
	<xrdMeasurement measurementType="Scan" status="Completed" sampleMode="Reflection">
		<usedWavelength intended="K-Alpha 1">
			<kAlpha1 unit="Angstrom">1.5405980</kAlpha1>
			<kAlpha2 unit="Angstrom">1.5444260</kAlpha2>
			<kBeta unit="Angstrom">1.3922500</kBeta>
			<ratioKAlpha2KAlpha1>0.5000</ratioKAlpha2KAlpha1>
		</usedWavelength>
		<incidentBeamPath>
			<radius unit="mm">145.00</radius>
			<xRayTube id="1010048" name="Empyrean Cu LFF HR (9430 033 7310x)">
				<tension unit="kV">40.0</tension>
				<current unit="mA">15.0</current>
				<anodeMaterial>Cu</anodeMaterial>
				<focus type="Line">
					<length unit="mm">12.0</length>
					<width unit="mm">0.4</width>
					<takeOffAngle unit="deg">6.0</takeOffAngle>
				</focus>
			</xRayTube>
			<sollerSlit id="21010002" name="Soller slits 0.04 rad.">
				<opening unit="rad">0.0400</opening>
			</sollerSlit>
			<mask id="22031000" name="Fixed mask 13 mm">
				<width unit="mm">9.00</width>
			</mask>
			<divergenceSlit id="22120001" name="Divergence slit 1°" xsi:type="fixedDivergenceSlitType">
				<distanceToSample unit="mm">50.00</distanceToSample>
				<height unit="mm">1.52</height>
			</divergenceSlit>
		</incidentBeamPath>
		<sampleMovement xsi:type="spinningSampleMovementType">
			<spinnerRevolutionTime unit="seconds">1.0</spinnerRevolutionTime>
		</sampleMovement>
		<diffractedBeamPath>
			<radius unit="mm">145.00</radius>
			<antiScatterSlit id="22090040" name="AS slit 9 mm (PIXcel)" xsi:type="fixedAntiScatterSlitType">
				<height unit="mm">9.00</height>
			</antiScatterSlit>
			<sollerSlit id="21020003" name="Large Soller slits 0.04 rad.">
				<opening unit="rad">0.0400</opening>
			</sollerSlit>
			<filter id="20030001" name="Large beta-filter Nickel">
				<material>Ni</material>
				<thickness unit="mm">0.020</thickness>
			</filter>
			<detector id="7010019" name="PIXcel1D-Medipix3 detector" xsi:type="rtmsDetectorType">
				<phd unit="keV">
					<lowerLevel>4.02</lowerLevel>
					<upperLevel>11.27</upperLevel>
				</phd>
				<mode>Scanning</mode>
				<activeLength unit="deg">5.542</activeLength>
			</detector>
		</diffractedBeamPath>
		<scan appendNumber="0" mode="Continuous" scanAxis="Gonio" status="Completed">
			<header>
				<startTimeStamp>2025-12-21T14:04:25-08:00</startTimeStamp>
				<endTimeStamp>2025-12-21T14:12:32-08:00</endTimeStamp>
				<author>
					<name>AutomatedUser</name>
				</author>
				<source>
					<applicationSoftware version="1.7b (136)">PANalytical Aeris Instrument Suite</applicationSoftware>
					<instrumentControlSoftware version="3.2.00000000 20240306">AERIS</instrumentControlSoftware>
					<instrumentID>950485</instrumentID>
				</source>
			</header>
			<dataPoints>
				<positions axis="2Theta" unit="deg">
					<startPosition>10.00943322</startPosition>
					<endPosition>99.99442286</endPosition>
				</positions>
				<positions axis="Omega" unit="deg">
					<startPosition>5.00471661</startPosition>
					<endPosition>49.99721143</endPosition>
				</positions>
				<commonCountingTime unit="seconds">12.495</commonCountingTime>
				<counts unit="counts">3082 2998 3017 3069 3077 3128 2964 3026 2968 2934 3013 2916 2988 3071 2989 3037 3041 3091 3101 3129 3137 3129 3041 3069 2974 3059 3090 2995 3077 3042 3079 3021 3127 3024 3041 3006 3089 2985 3025 3001 3071 3016 3055 3096 3147 3057 3131 3066 3152 3019 3105 3071 3141 3015 3118 3089 3092 3092 3069 3121 3123 3087 3057 3098 3189 3117 3120 3156 3153 3098 3110 3233 3050 3100 3165 3132 3090 3155 3182 3151 3267 3124 3197 3173 3146 3205 3169 3086 3255 3120 3201 3132 3224 3225 3187 3188 3057 3182 3146 3110 3213 3367 3096 3139 3109 3251 3206 3106 3194 3193 3195 3176 3215 3220 3097 3239 3086 3161 3185 3148 3219 3221 3189 3277 3167 3242 3348 3108 3299 3228 3268 3155 3189 3243 3281 3255 3261 3191 3165 3216 3260 3256 3285 3252 3246 3227 3215 3187 3270 3237 3280 3129 3310 3220 3221 3349 3252 3212 3251 3413 3167 3341 3337 3264 3171 3353 3202 3286 3258 3223 3280 3263 3202 3235 3260 3314 3354 3267 3362 3197 3272 3200 3251 3260 3290 3141 3138 3188 3204 3295 3348 3276 3143 3287 3297 3154 3163 3254 3135 3207 3295 3203 3233 3252 3134 3150 3191 3172 3209 3236 3069 3139 3099 3095 3264 3075 3089 3134 3111 3197 3175 3133 3161 3187 3218 3202 3215 3208 3193 3185 3155 3178 3143 3220 3166 3223 3203 3151 3143 3160 3125 3180 3122 3111 3176 3127 3091 3137 3106 3112 3132 3201 3000 2948 3126 3058 3068 3221 3027 3149 3177 3234 3094 3117 3159 3139 3111 3189 3198 3091 3091 3105 3117 3068 2962 3237 3184 3118 3150 3140 3105 3159 3128 3120 3210 3155 3162 3207 3296 3210 3149 3104 3176 3300 3280 3245 3153 3239 3242 3142 3185 3247 3184 3168 3063 3211 3215 3176 3146 3181 3148 3205 3250 3198 3189 3139 3098 3158 3245 3229 3252 3229 3270 3229 3202 3361 3203 3214 3222 3257 3248 3309 3265 3258 3217 3288 3282 3324 3337 3422 3351 3206 3349 3317 3328 3302 3380 3398 3439 3324 3336 3366 3330 3435 3257 3334 3399 3423 3238 3374 3459 3338 3424 3376 3463 3517 3372 3407 3446 3496 3507 3340 3449 3438 3476 3405 3522 3502 3597 3487 3454 3462 3386 3489 3564 3643 3610 3523 3598 3592 3608 3591 3767 3718 3704 3838 3775 3775 3873 3945 4035 4120 4139 4152 4177 4218 4351 4296 4542 4657 4805 4858 4837 5024 5057 5243 5178 5152 5114 5067 4971 4889 4829 4646 4615 4646 4412 4320 4194 4124 4099 4066 3998 3846 3845 3823 3752 3766 3666 3754 3635 3613 3688 3661 3659 3601 3615 3578 3593 3525 3557 3488 3443 3540 3486 3470 3613 3480 3506 3508 3464 3571 3554 3537 3546 3424 3415 3428 3477 3421 3432 3353 3446 3476 3335 3398 3391 3335 3340 3368 3424 3282 3380 3355 3365 3271 3330 3319 3218 3255 3335 3219 3293 3136 3293 3363 3341 3254 3308 3317 3362 3295 3248 3132 3243 3289 3274 3303 3134 3297 3210 3176 3140 3232 3174 3305 3242 3239 3184 3295 3175 3301 3245 3149 3224 3209 3112 3137 3118 3133 3076 3103 3140 3199 3055 3048 3175 3065 3164 3075 3082 3130 3096 3129 3105 3027 3161 3086 3175 3074 3097 3156 3053 3036 3033 2923 3095 2942 3006 3075 3078 2978 3057 2954 3017 2971 3066 2932 3090 3154 2973 3071 3024 3029 3034 2958 2965 3064 3017 2947 2928 2974 2975 3036 3021 2954 3028 2923 2990 2881 2872 2901 2870 2850 3059 2968 2943 2977 2990 3034 2933 2943 2989 2889 2986 2947 2986 2900 3036 2972 2940 3045 2888 2910 2954 3003 2896 2892 2899 2872 2950 3009 2863 3006 2931 2906 2839 2910 2948 2878 2907 2899 2930 2881 2777 2939 2852 2854 3006 2883 2897 2866 2866 2840 2889 2892 2868 2874 2862 2861 2817 2930 2926 2946 2836 2811 2863 2871 2809 2940 2842 2908 2911 2939 2835 2836 2846 2878 2854 2871 2908 2853 2934 2933 2788 2821 2872 2952 2946 2887 2937 2784 2821 2941 2862 2887 2849 2865 2822 2885 2809 2944 2767 2843 2844 2749 2862 2918 2830 2830 2797 2916 2850 2847 2804 2853 2775 2864 2783 2836 2731 2829 2806 2961 2878 2840 2711 2753 2925 2903 2809 2857 2750 2772 2831 2821 2815 2815 2853 2831 2759 2865 2838 2832 2795 2768 2776 2925 2841 2727 2892 2757 2833 2842 2805 2834 2817 2818 2815 2787 2859 2839 2840 2777 2802 2787 2814 2863 2788 2762 2737 2624 2812 2713 2693 2840 2713 2676 2807 2874 2834 2857 2810 2769 2692 2875 2740 2771 2722 2856 2761 2858 2696 2730 2673 2815 2723 2791 2771 2669 2706 2678 2667 2691 2799 2708 2732 2744 2766 2803 2734 2742 2783 2798 2757 2704 2796 2852 2693 2799 2800 2753 2772 2783 2692 2747 2781 2721 2749 2684 2640 2707 2680 2688 2757 2751 2746 2762 2662 2787 2605 2685 2782 2689 2853 2611 2750 2699 2621 2633 2760 2754 2733 2833 2710 2691 2692 2661 2725 2724 2706 2680 2665 2674 2627 2737 2746 2571 2629 2684 2599 2616 2686 2644 2736 2627 2637 2655 2719 2624 2636 2655 2712 2669 2653 2677 2682 2639 2714 2650 2609 2665 2655 2757 2570 2732 2709 2723 2697 2619 2578 2644 2677 2649 2646 2730 2728 2620 2679 2574 2644 2634 2651 2585 2611 2653 2576 2650 2721 2542 2734 2624 2563 2591 2675 2512 2607 2623 2603 2666 2725 2701 2610 2586 2578 2567 2608 2673 2581 2691 2559 2556 2679 2609 2603 2592 2557 2631 2629 2555 2583 2647 2508 2529 2552 2512 2600 2633 2613 2591 2563 2523 2609 2645 2595 2585 2508 2635 2568 2513 2593 2661 2517 2538 2513 2527 2626 2633 2617 2650 2538 2548 2534 2504 2618 2551 2501 2570 2547 2598 2604 2602 2539 2545 2556 2556 2535 2665 2641 2645 2549 2722 2583 2673 2582 2543 2539 2537 2518 2576 2521 2599 2554 2609 2647 2539 2586 2557 2608 2530 2595 2523 2580 2644 2580 2569 2607 2572 2590 2607 2497 2683 2598 2581 2563 2657 2525 2597 2614 2639 2644 2642 2546 2596 2605 2616 2634 2607 2589 2547 2599 2634 2585 2592 2620 2640 2654 2606 2643 2580 2653 2545 2636 2463 2616 2482 2577 2647 2584 2646 2661 2575 2671 2639 2580 2605 2593 2529 2571 2528 2626 2498 2592 2595 2601 2550 2686 2659 2756 2543 2550 2513 2531 2573 2681 2479 2523 2652 2534 2556 2565 2637 2615 2628 2655 2490 2495 2581 2577 2644 2496 2549 2559 2502 2615 2547 2538 2514 2514 2553 2523 2539 2507 2441 2543 2603 2550 2596 2495 2458 2558 2414 2567 2444 2508 2571 2520 2516 2597 2485 2496 2427 2524 2515 2456 2570 2421 2458 2466 2520 2429 2400 2466 2477 2519 2417 2525 2412 2487 2408 2507 2483 2458 2393 2440 2390 2420 2388 2391 2428 2471 2422 2454 2378 2387 2370 2416 2353 2317 2347 2364 2330 2362 2381 2331 2288 2430 2274 2322 2349 2367 2330 2405 2377 2341 2292 2383 2235 2389 2263 2377 2249 2261 2257 2288 2310 2306 2292 2294 2308 2312 2291 2281 2185 2234 2286 2282 2247 2224 2211 2276 2212 2213 2214 2166 2216 2139 2259 2188 2209 2212 2209 2163 2096 2199 2221 2141 2137 2126 2152 2104 2116 2103 2334 2153 2138 2077 2245 2160 2118 2099 2192 2095 2182 2170 2139 2153 2072 2154 2176 2140 2106 2032 2082 2169 2073 2178 2134 2112 2126 2113 2155 2153 2095 2135 2131 2048 2082 2033 2018 2110 2081 2070 2132 2139 2069 2100 2115 2076 2043 2148 2034 2056 2053 2119 2073 2098 2067 2033 2095 2047 2045 1992 2073 2159 1969 2156 2042 2128 2043 2077 2068 2097 2122 2043 1984 2045 2055 2058 2064 2059 2026 1988 2014 2030 2015 2033 2107 1977 2102 2096 1996 1979 1977 1958 2008 1970 2017 1923 2051 1960 1993 1991 1964 2000 2004 2017 1979 2024 2108 2027 2119 2023 2051 2039 1958 1958 1947 2077 2020 2007 2020 1985 1921 1954 2086 2025 1913 1980 1986 2036 1901 1968 1905 1971 1894 2025 2051 1993 1979 1952 1950 2009 2082 2047 1879 1987 2009 1990 1926 1883 1928 1963 2014 1954 1981 1950 1931 1926 1904 1987 1972 1976 1952 1973 1889 1863 2014 1982 1937 1980 1982 1914 1900 2005 1939 2030 1962 1930 1832 2000 1964 1987 2005 1950 1982 1954 2025 1946 2035 1955 2033 1909 1912 1952 1922 1970 1893 2029 2028 1956 2066 1872 1931 1917 1923 1958 2013 1927 2068 1990 2040 1934 2047 1919 1909 1867 2005 1903 1962 1937 1993 1952 1887 2011 1999 1949 1903 1993 1948 1905 1894 2039 1993 1923 1970 1942 1951 1999 1970 1954 2028 1982 1901 1966 1950 1942 1894 1847 1910 1912 1926 1849 2019 1896 1865 1912 1958 1958 1958 1924 1914 1867 1938 1943 1890 1985 1931 1949 1947 1880 1939 1974 1962 1871 1974 2020 1886 1923 1954 1888 1933 1936 1887 1918 1931 1977 1906 1881 1840 1869 1906 1870 1936 1858 1846 1903 1904 1805 1868 1843 1879 1906 1881 1865 1900 1913 1883 1861 1873 1815 1896 1843 1885 1886 1823 1810 1882 1784 1906 1899 1844 1824 1806 1833 1850 1857 1837 1864 1822 1801 1757 1791 1800 1855 1813 1833 1757 1819 1835 1812 1762 1797 1735 1789 1795 1683 1794 1790 1771 1750 1792 1739 1740 1768 1746 1816 1726 1759 1738 1756 1719 1700 1672 1734 1735 1805 1724 1762 1874 1732 1674 1750 1672 1754 1705 1712 1662 1668 1730 1679 1772 1686 1790 1702 1815 1803 1666 1745 1699 1794 1761 1660 1668 1692 1736 1852 1729 1699 1745 1760 1713 1724 1849 1684 1797 1746 1722 1837 1735 1769 1777 1758 1841 1867 1773 1886 1861 1814 1957 1991 1969 2062 2084 2232 2268 2327 2397 2399 2604 2725 2684 2860 2745 2963 2909 2887 2866 2838 2750 2671 2660 2481 2524 2319 2258 2227 2142 2144 2028 1988 1890 1914 1847 1818 1825 1807 1833 1793 1764 1793 1712 1703 1797 1673 1689 1631 1693 1678 1695 1749 1719 1650 1691 1604 1656 1685 1612 1603 1611 1578 1632 1551 1614 1651 1547 1632 1516 1558 1535 1622 1603 1618 1564 1596 1622 1488 1638 1536 1525 1509 1528 1609 1492 1532 1495 1517 1601 1516 1554 1538 1533 1558 1667 1533 1578 1520 1587 1509 1548 1555 1504 1546 1576 1580 1511 1513 1590 1532 1632 1600 1637 1692 1697 1771 1731 1815 1791 1976 2089 2167 2259 2401 2556 2681 3012 3206 3603 3557 3813 3970 3992 4260 4203 4195 4035 4010 3796 3608 3300 3208 3072 2769 2582 2462 2321 2214 2147 1984 1887 1825 1741 1699 1643 1595 1686 1584 1600 1465 1495 1471 1515 1540 1422 1499 1457 1447 1440 1509 1377 1441 1461 1436 1521 1425 1414 1450 1478 1499 1556 1567 1572 1504 1535 1599 1572 1606 1638 1654 1662 1593 1638 1596 1669 1642 1575 1593 1550 1498 1457 1486 1499 1465 1539 1469 1409 1430 1398 1301 1360 1376 1425 1414 1420 1437 1321 1342 1294 1426 1354 1419 1384 1297 1398 1414 1362 1378 1353 1327 1321 1359 1364 1305 1336 1286 1404 1361 1325 1292 1336 1335 1371 1295 1302 1374 1372 1372 1318 1335 1363 1316 1263 1331 1304 1389 1346 1374 1316 1312 1368 1322 1357 1310 1219 1335 1230 1320 1331 1285 1349 1269 1270 1281 1325 1304 1231 1289 1334 1346 1250 1386 1343 1256 1297 1272 1300 1284 1308 1318 1336 1353 1275 1338 1344 1399 1255 1327 1311 1321 1325 1330 1292 1312 1389 1335 1339 1383 1383 1345 1365 1425 1339 1324 1358 1406 1304 1351 1361 1364 1342 1432 1341 1355 1376 1368 1378 1377 1290 1351 1343 1351 1375 1364 1335 1365 1331 1360 1373 1306 1288 1317 1362 1276 1328 1311 1239 1277 1342 1258 1263 1210 1283 1252 1283 1282 1275 1259 1291 1270 1287 1338 1234 1196 1215 1247 1240 1249 1261 1187 1298 1252 1261 1283 1231 1269 1249 1208 1190 1253 1276 1247 1181 1174 1228 1185 1180 1265 1148 1186 1198 1218 1221 1205 1200 1168 1223 1200 1240 1208 1195 1205 1271 1197 1218 1203 1175 1204 1202 1240 1200 1239 1201 1157 1218 1227 1122 1238 1228 1282 1213 1210 1183 1130 1183 1204 1205 1151 1187 1148 1197 1192 1170 1202 1154 1183 1166 1120 1201 1246 1164 1186 1144 1201 1187 1097 1164 1139 1221 1148 1101 1174 1121 1224 1220 1162 1168 1172 1174 1145 1165 1169 1161 1174 1165 1229 1172 1133 1166 1235 1162 1141 1180 1208 1182 1133 1191 1193 1199 1143 1204 1131 1163 1172 1192 1157 1178 1105 1107 1126 1138 1182 1171 1162 1175 1163 1194 1169 1210 1117 1242 1159 1203 1206 1134 1182 1196 1193 1228 1185 1279 1170 1202 1280 1285 1199 1260 1215 1261 1272 1224 1255 1260 1271 1248 1227 1327 1322 1322 1325 1329 1309 1290 1343 1415 1373 1331 1400 1360 1454 1518 1503 1612 1531 1657 1818 1924 1933 2153 2301 2565 2803 3084 3312 3790 4372 4857 5597 6193 6844 7354 7833 8018 8434 8483 8541 8363 8291 8024 7937 7388 6821 6381 5818 5358 4949 4491 3958 3546 3383 3060 2716 2559 2381 2184 2097 1914 1867 1811 1710 1719 1590 1625 1523 1539 1520 1552 1461 1479 1455 1361 1374 1342 1364 1365 1373 1334 1322 1270 1346 1320 1215 1280 1237 1282 1198 1310 1306 1283 1227 1307 1199 1348 1231 1325 1289 1334 1322 1296 1389 1342 1364 1384 1344 1371 1347 1374 1373 1307 1314 1311 1284 1276 1242 1266 1250 1256 1246 1224 1160 1198 1201 1220 1132 1193 1131 1166 1223 1188 1068 1094 1196 1171 1208 1107 1143 1125 1115 1137 1200 1102 1146 1147 1166 1116 1083 1098 1063 1125 1183 1102 1098 1200 1090 1180 1152 1094 1106 1133 1143 1108 1174 1145 1106 1081 1109 1089 1087 1142 1080 1116 1122 1098 1131 1114 1131 1076 1083 1065 1105 1106 1144 1057 1113 1123 1118 1068 1105 1028 1043 1148 1022 1120 1071 1118 1061 1044 1122 1101 1106 1022 1044 1010 982 1062 1039 1037 1060 1105 1056 1064 1036 1094 1036 1070 1051 997 1074 1052 1030 1026 1081 1039 1095 1120 1063 1033 1081 1041 1097 1048 1036 1062 1083 1032 1034 1093 1033 998 1004 1048 969 1032 999 1005 1068 1036 1014 1038 1070 1057 1025 999 1066 1039 1018 997 994 1011 1017 1031 1059 1049 1023 1039 1016 1025 1027 1031 1098 1017 1059 988 998 999 1040 1003 1000 1086 942 982 1048 1052 976 1068 993 1071 975 1014 1007 1051 1025 1044 1003 1004 1004 997 995 1011 939 1034 987 970 1030 1010 981 994 1049 967 1095 944 1002 1041 971 954 1013 962 1018 999 1073 1031 1028 1105 1027 1053 1062 970 1095 1101 1046 1113 1052 1060 1069 1031 999 998 1042 1033 1051 1038 998 987 1007 996 960 998 966 919 985 950 1006 1016 990 966 951 998 968 958 937 918 988 1000 1011 1012 975 989 939 958 939 980 984 1002 974 1038 923 959 1042 963 978 951 964 928 936 962 1003 924 944 948 988 987 1000 920 983 963 943 860 891 970 898 913 915 929 925 971 908 917 906 1004 956 1005 948 960 1007 996 943 965 953 967 918 913 969 870 939 991 941 938 965 970 1001 971 946 976 928 946 961 937 924 948 916 898 949 976 983 970 905 886 943 931 886 900 902 966 942 975 943 918 954 969 909 997 899 939 905 936 935 939 980 965 936 972 929 896 923 921 900 875 940 914 938 886 902 967 936 931 941 890 928 884 997 954 992 934 886 900 962 889 944 934 978 958 841 883 926 902 872 942 903 951 943 916 914 914 942 877 934 956 956 932 929 902 915 854 912 879 917 871 977 859 866 909 909 919 895 902 925 855 875 914 961 929 870 888 938 894 932 899 895 932 907 901 889 936 886 955 883 900 872 884 904 945 883 905 859 953 906 939 961 924 928 920 936 914 896 877 920 877 876 910 886 846 896 923 905 869 950 909 891 945 912 902 942 913 943 973 930 886 906 915 906 886 886 921 908 969 863 872 872 941 876 913 967 892 899 845 869 887 888 906 890 890 872 813 859 895 910 877 844 913 935 943 894 909 968 878 858 915 891 905 895 926 870 943 940 884 883 887 845 869 858 908 929 920 867 952 878 964 884 895 892 916 864 948 894 953 853 937 888 859 887 919 858 845 827 887 872 856 864 878 890 935 906 887 880 951 887 852 919 862 892 940 895 910 894 860 868 869 878 858 924 898 925 876 940 898 909 848 861 882 889 901 850 881 873 891 890 870 882 820 859 931 932 855 883 877 902 889 868 871 886 885 939 862 893 868 818 903 923 870 905 865 834 917 811 921 872 823 895 909 885 923 872 815 868 917 848 848 912 838 877 873 887 863 828 823 817 926 852 851 846 846 838 805 793 904 906 840 849 889 886 868 869 824 912 855 861 860 922 896 845 900 844 893 851 831 864 822 881 890 921 894 868 898 824 843 881 833 838 826 853 891 865 943 854 905 850 857 827 878 842 891 897 851 812 850 857 863 857 851 860 810 860 865 901 859 864 826 833 828 822 855 890 909 778 869 875 821 863 835 811 832 811 808 859 873 846 861 886 829 825 809 858 818 883 883 786 839 819 842 823 844 830 845 848 891 837 889 848 880 829 862 850 847 804 847 825 784 803 814 821 869 853 826 803 823 871 831 819 827 833 828 867 883 807 816 859 890 816 868 811 845 841 880 777 819 837 852 799 782 783 861 828 862 815 868 793 771 849 827 799 840 794 845 841 785 796 805 839 824 870 826 895 844 868 889 834 808 851 843 794 881 918 825 846 855 828 841 850 880 817 825 821 881 830 884 807 856 821 823 868 868 827 837 854 853 887 783 842 814 832 873 817 820 840 885 816 821 856 836 855 817 839 861 844 846 822 839 890 825 831 898 856 911 913 959 941 966 1043 1086 1115 1148 1244 1353 1371 1400 1540 1541 1553 1590 1577 1561 1549 1444 1461 1434 1409 1302 1358 1316 1254 1207 1196 1133 1142 1091 1042 1031 1053 986 945 892 898 910 885 900 857 875 858 813 875 861 840 879 873 829 852 807 837 910 793 868 875 824 881 836 837 785 860 889 791 819 794 796 800 817 833 877 853 824 826 814 828 850 825 838 802 759 844 798 777 879 797 785 855 839 778 795 755 810 861 805 798 822 846 822 810 816 833 842 862 826 830 779 843 860 815 781 816 786 782 785 774 794 819 828 828 806 779 798 828 797 788 844 812 795 762 805 746 838 790 757 838 777 803 818 803 777 861 812 773 805 794 793 804 803 844 783 788 794 770 793 801 778 791 761 806 758 763 779 732 776 804 753 784 763 796 794 793 803 816 804 809 766 830 763 807 821 821 789 787 757 763 786 764 772 777 777 797 829 776 760 744 746 776 760 781 768 836 775 776 803 816 813 761 776 776 757 767 756 794 782 787 754 727 811 692 809 787 776 824 809 760 799 851 764 848 814 757 821 785 796 789 837 851 805 859 796 808 846 791 821 817 820 767 802 772 815 773 798 808 754 770 789 789 817 765 772 798 735 727 815 742 788 788 799 834 729 855 807 698 726 789 796 814 819 775 788 817 809 767 798 793 808 790 829 798 854 773 796 781 798 780 792 801 817 831 812 825 819 822 825 786 804 801 850 758 823 805 790 806 772 761 777 816 760 816 807 834 755 798 751 786 736 799 788 792 785 838 758 834 852 777 788 773 786 763 789 821 800 795 788 803 827 818 814 817 817 887 879 825 877 870 857 845 841 864 863 866 915 883 825 913 912 901 937 929 905 935 925 893 940 895 964 917 932 919 982 1003 1034 1070 1105 1140 1271 1307 1466 1530 1741 1892 2129 2403 2812 3188 3510 3734 3991 4227 4251 4213 4123 4069 3951 3828 3569 3422 3356 3124 3062 3019 3047 2837 2676 2441 2342 2178 1990 1806 1649 1529 1409 1300 1286 1151 1152 1019 1033 1060 1008 1009 947 979 1010 948 976 949 919 905 870 857 888 888 880 836 876 920 815 888 880 810 849 856 832 896 815 853 835 851 835 811 794 824 844 863 818 787 822 854 834 854 816 851 796 850 808 858 788 827 812 846 756 862 817 817 864 839 811 865 809 886 845 931 856 949 841 891 873 834 910 902 844 899 875 900 890 924 922 860 860 895 876 810 844 844 879 856 839 852 836 872 851 853 844 841 822 789 795 833 808 842 858 847 804 855 843 851 781 876 894 799 810 753 823 788 813 890 801 861 818 816 888 750 798 749 761 772 752 804 746 829 804 820 781 720 766 794 772 806 737 794 776 804 824 789 765 773 781 778 793 814 847 739 857 778 753 827 768 822 760 768 716 785 768 747 791 754 753 757 758 731 778 762 773 766 787 816 812 801 832 809 825 852 889 974 966 1031 1027 1070 1123 1139 1066 1142 1115 1070 1056 1056 1036 972 982 989 1010 940 933 961 954 971 900 886 854 813 833 808 831 809 802 777 788 764 704 772 809 750 741 764 787 773 749 736 724 774 732 709 786 753 711 793 730 762 697 725 714 719 703 797 742 714 708 737 744 687 749 737 731 744 722 745 737 688 698 779 724 738 718 760 727 744 698 765 685 724 715 780 684 678 684 736 670 747 687 731 763 775 723 709 722 723 718 715 693 685 714 702 727 689 697 756 702 777 674 704 706 709 682 791 679 746 706 754 685 685 705 726 713 713 705 725 703 731 710 739 720 689 724 749 712 688 713 676 726 703 712 780 675 672 673 691 720 685 678 758 714 688 671 709 727 739 700 697 691 717 733 696 695 707 717 756 631 685 687 740 718 714 727 719 705 681 694 710 719 717 683 708 740 740 692 683 745 689 725 696 709 671 720 680 755 676 731 737 727 663 728 670 746 656 698 733 763 687 696 692 723 735 723 693 746 658 698 686 731 758 720 699 679 749 624 751 681 733 736 686 702 713 723 703 734 706 675 747 692 742 720 754 756 728 733 699 692 780 692 724 713 674 711 678 688 701 713 676 716 737 738 731 725 714 704 715 709 691 702 694 699 693 711 708 687 707 693 730 699 672 698 676 713 678 724 689 703 675 708 710 690 700 670 661 699 686 697 756 723 654 698 700 642 703 676 674 812 662 730 732 698 738 729 692 658 688 646 686 671 690 697 724 673 687 697 680 673 698 671 722 691 643 678 680 682 733 691 664 732 717 703 714 677 653 749 690 664 736 710 745 669 675 646 664 700 739 706 690 675 746 735 679 672 736 746 698 738 732 693 701 698 711 695 716 678 743 670 744 659 763 729 719 675 702 731 716 742 677 699 696 692 701 681 681 668 730 696 660 658 688 725 676 699 724 673 701 740 677 677 676 691 707 711 686 681 735 632 705 680 688 719 697 749 723 702 681 685 713 674 668 753 672 708 682 718 658 669 654 661 717 666 708 638 688 688 685 695 675 709 718 714 726 738 646 683 645 639 639 689 700 683 649 710 683 679 697 675 703 655 721 713 657 653 644 661 644 702 702 666 642 626 673 647 639 688 690 651 679 681 684 702 643 667 719 688 686 672 690 646 686 598 691 693 676 640 666 661 664 659 700 677 670 674 680 732 691 687 683 715 682 682 667 663 677 651 671 625 676 695 623 713 660 623 646 659 668 719 683 662 687 663 657 686 635 656 705 637 689 676 652 729 715 699 691 774 703 833 731 771 779 751 724 716 743 699 702 723 679 655 666 727 731 706 725 701 725 734 705 675 657 725 658 685 666 703 679 653 666 663 677 660 671 649 677 649 680 655 694 691 645 662 667 669 669 686 687 696 680 719 666 719 728 798 739 800 745 776 833 891 912 932 982 1064 1098 1078 1114 1108 1075 1081 1082 1013 985 936 938 896 881 938 957 935 924 933 903 858 950 821 827 832 794 731 713 765 725 708 730 675 632 676 686 660 649 693 717 698 678 661 696 716 681 713 671 670 679 638 668 651 647 676 652 670 627 629 674 658 599 628 616 695 625 635 658 669 674 695 667 635 619 645 625 616 661 668 659 688 677 626 655 659 654 614 678 708 655 692 644 649 683 664 633 673 663 638 697 629 628 647 674 654 637 608 699 670 650 637 704 692 670 644 679 653 685 653 691 690 688 722 684 723 674 683 677 687 720 720 723 666 698 700 691 701 681 682 676 639 710 683 728 661 641 642 655 654 691 692 667 651 645 660 662 673 666 628 661 644 643 659 670 648 678 674 610 652 650 685 648 654 680 682 602 662 644 677 697 678 649 692 723 642 680 667 701 655 676 639 692 641 677 646 663 646 638 682 682 632 687 634 688 646 686 651 646 631 684 699 645 610 627 621 630 654 673 675 666 673 683 682 637 637 692 720 719 690 671 655 640 691 723 666 707 656 676 728 602 662 655 695 684 722 701 687 723 683 713 675 737 724 720 793 799 810 845 893 957 1070 1076 1223 1330 1414 1513 1351 1426 1299 1457 1274 1264 1214 1098 1084 1051 1046 1041 1110 1117 1093 1104 1108 1074 1063 1069 989 987 944 860 816 805 832 729 711 732 655 739 691 713 674 657 611 678 697 656 686 694 615 685 639 670 679 685 696 633 647 674 668 632 648 705 633 641 649 586 618 635 661 599 598 657 642 644 635 660 678 631 658 661 678 624 616 647 590 642 622 638 682 607 660 644 614 618 641 635 655 638 634 623 607 614 679 687 615 634 634 640 647 661 653 657 632 600 634 676 627 626 638 631 588 604 658 621 610 697 634 647 635 674 603 634 597 657 632 672 613 627 649 650 643 591 647 653 614 695 620 672 665 670 637 623 617 627 633 649 655 691 662 646 692 625 619 648 590 626 638 633 636 640 640 675 630 674 626 615 649 645 606 643 633 617 603 648 640 642 670 679 691 631 645 719 689 727 711 727 796 813 829 827 837 821 790 783 699 725 700 710 695 742 734 698 731 727 747 709 722 740 765 687 657 704 652 666 641 668 663 631 637 607 642 634 613 604 626 599 667 648 581 618 634 596 662 599 608 635 575 613 603 611 593 629 567 598 571 669 628 605 627 585 610 618 636 639 619 593 599 579 608 589 608 594 618 637 622 601 601 612 637 625 574 676 632 569 616 610 576 594 539 615 606 615 613 615 582 578 601 617 574 581 587 600 589 616 601 620 684 590 605 615 609 611 621 615 619 579 600 597 606 616 576 629 572 583 641 558 547 588 627 611 598 618 565 586 627 571 592 624 584 610 592 616 624 610 633 612 606 598 597 567 575 646 619 578 550 623 630 591 617 591 561 602 632 612 598 593 579 620 588 595 644 587 588 576 564 565 586 591 628 605 610 581 588 593 614 621 604 575 582 575 596 609 632 563 586 556 587 611 633 596 576 608 595 614 594 595 585 588 617 587 604 572 611 615 561 624 593 606 604 610 567 622 605 610 571 575 585 577 616 611 581 611 582 608 550 598 593 601 566 624 604 602 568 576 595 583 599 610 618 591 612 603 598 616 576 603 566 591 621 543 627 570 606 588 585 596 612 621 609 578 578 568 619 628 605 598 610 578 624 595 625 593 608 602 594 620 598 565 594 597 633 619 577 570 575 599 564 600 581 610 617 564 594 586 620 587 585 600 641 608 599 584 596 615 614 592 590 603 608 640 602 555 604 599 628 569 570 634 575 605 566 545 557 589 596 600 538 598 587 594 565 606 569 579 624 581 601 624 615 519 638 583 582 574 610 593 571 636 635 555 567 566 595 586 585 559 540 542 572 571 571 581 588 587 580 560 598 587 550 570 565 616 580 597 530 587 583 541 581 609 561 522 555 572 562 575 570 611 594 588 588 532 585 587 540 559 580 566 587 550 598 597 560 563 531 523 552 608 572 530 529 579 544 593 553 545 563 613 605 579 592 597 642 561 572 600 590 559 583 590 574 587 580 548 567 566 618 564 533 610 593 562 559 559 516 582 584 584 602 590 620 538 623 572 565 571 600 598 615 569 590 560 543 566 587 575 561 579 568 552 570 613 561 616 616 570 605 628 672 595 595 631 626 690 665 717 663 678 730 720 664 655 650 634 617 577 624 594 569 614 596 610 599 619 598 669 623 668 631 582 615 647 631 581 582 600 573 618 563 579 584 588 630 582 601 560 583 567 557 562 576 640 570 590 572 552 573 607 564 560 601 548 614 572 580 574 553 599 578 616 568 607 624 548 586 548 548 555 601 571 536 545 593 572 574 591 588 519 599 610 572 624 573 561 588 533 593 569 584 549 562 566 603 545 567 580 595 588 573 599 557 568 579 579 597 563 604 533 563 569 571 570 535 561 579 553 587 516 564 576 576 560 582 592 578 581 545 590 550 547 530 589 517 554 534 560 541 568 517 561 551 596 560 560 555 606 560 578 528 546 567 551 558 556 590 562 600 585 561 546 544 572 567 607 563 559 579 512 588 540 564 541 541 555 538 562 555 546 542 549 566 576 524 567 560 551 508 609 616 559 592 564 536 610 536 581 558 574 573 587 515 574 556 562 530 548 566 566 552 526 574 594 541 558 570 554 616 585 564 567 571 564 587 540 553 557 607 556 558 566 557 538 597 568 555 555 563 531 551 569 575 578 582 544 590 605 559 564 589 575 543 531 557 578 551 598 582 634 603 589 570 582 548 562 596 581 522 564 583 576 576 581 594 601 578 604 577 569 528 558 603 583 579 556 631 625 630 660 660 674 689 744 702 755 734 779 894 872 922 824 885 816 830 796 768 761 740 785 720 738 668 713 693 721 710 766 757 750 750 776 737 720 704 681 691 658 688 627 579 673 609 612 597 585 618 602 597 562 579 553 595 568 609 623 570 575 560 551 580 536 555 586 555 573 542 550 547 604 582 553 508 561 550 529 550 583 576 608 557 614 561 619 551 593 558 567 566 520 568 536 552 551 639 517 565 542 552 593 584 580 612 581 569 553 556 568 541 582 603 578 567 600 537 589 542 585 567 557 582 552 556 570 546 555 534 533 554 576 553 565 547 585 540 550 562 569 552 573 572 537 565 532 533 548 578 528 519 546 541 568 588 557 581 547 561 543 596 527 559 554 552 556 563 565 533 561 566 564 542 585 543 569 591 609 503 594 548 557 602 556 576 558 543 600 587 544 561 559 537 604 569 540 603 583 561 554 579 554 599 593 550 571 548 512 560 519 559 511 572 551 576 534 604 539 568 562 590 547 545 546 576 585 576 538 559 583 554 580 562 528 560 536 517 572 572 542 535 528 592 602 540 567 522 547 567 560 553 567 538 556 534 501 538 561 573 566 601 563 541 574 533 599 555 499 493 555 539 543 522 478 528 580 608 540 550 565 546 521 588 538 594 530 532 543 532 589 524 545 555 508 595 553 553 574 519 581 541 556 520 555 571 532 509 513 547 518 570 561 574 546 545 543 570 597 577 552 560 563 526 582 564 526 562 561 545 510 567 557 556 521 592 537 580 568 588 531 546 529 566 551 506 519 570 568 562 593 524 537 592 537 621 538 572 600 526 517 560 547 571 551 554 567 543 543 516 582 564 527 520 541 564 555 538 523 532 529 537 538 563 580 501 556 528 561 545 561 583 539 521 540 522 589 595 566 537 567 544 553 543 558 584 556 515 552 558 533 561 552 528 539 566 555 532 518 538 520 580 534 577 545 508 558 571 538 584 563 586 554 541 528 571 509 553 539 535 557 530 588 540 574 533 545 556 560 562 514 585 526 532 526 543 541 507 536 533 551 547 541 605 507 582 515 578 542 547 530 560 539 559 573 543 583 536 576 537 565 543 558 581 539 569 579 551 593 586 533 543 553 522 509 531 571 541 568 533 523 583 525 584 564 564 533 590 541 538 535 542 537 560 564 565 527 514 553 552 578 551 574 497 587 599 576 564 583 561 556 564 592 560 581 545 554 551 550 561 538 539 550 529 535 556 538 561 549 487 510 572 555 525 507 527 504 557 564 546 554 555 525 574 525 505 581 578 534 517 547 536 566 545 573 530 565 585 565 555 507 585 526 558 539 556 578 502 532 539 514 498 566 530 552 550 560 548 523 535 558 571 582 541 567 571 540 532 547 597 520 534 573 587 593 566 552 545 561 599 518 534 576 570 554 571 547 525 501 556 572 578 520 521 599 576 576 579 546 510 521 586 587 581 592 564 593 550 529 594 607 591 574 629 554 646 592 641 647 576 634 663 667 643 631 632 625 574 541 567 547 574 586 591 572 554 568 600 609 586 609 626 599 579 595 618 597 586 534 549 589 606 567 537 591 553 518 560 601 587 556 546 569 569 638 593 573 596 610 618 591 583 607 565 648 612 643 671 643 690 736 698 683 645 612 659 577 549 582 607 567 586 622 616 610 566 627 640 615 650 603 594 620 622 626 600 579 590 595 582 542 613 549 565 555 582 547 565 572 530 585 549 553 557 542 522 529 527 576 580 589 507 564 583 540 526 554 556 527 513 584 547 537 549 573 541 509 541 534 526 561 578 561 517 542 571 534 545 586 524 573 581 532 533 526 574 565 559 527 547 538 512 545 526 534 522 594 555 515 549 544 576 497 590 548 588 539 534 504 572 560 544 527 521 548 568 579 554 548 515 557 544 589 573 599 596 560 557 568 531 560 528 564 558 552 553 537 517 489 594 533 591 557 553 543 538 567 541 552 557 507 555 538 560 560 557 570 557 553 626 550 584 585 591 528 578 562 551 560 588 532 562 598 516 581 563 579 584 550 596 576 588 593 534 565 578 567 570 583 588 581 597 542 592 579 571 596 576 622 542 602 608 602 598 612 548 649 607 589 595 646 650 591 652 696 637 682 685 736 799 769 879 908 952 991 1106 1185 1245 1172 1206 1135 1129 1036 1068 968 862 847 832 772 760 779 751 746 799 754 819 838 812 874 912 888 887 929 943 865 843 818 758 723 731 689 628 648 644 574 596 639 588 623 621 555 557 592 578 555 562 560 551 532 588 582 518 578 573 543 606 539 546 550 545 574 589 576 584 552 585 585 589 552 567 588 569 535 550 508 568 592 567 578 564 567 522 538 538 525 619 516 576 563 537 605 553 527 461 543 550 555 544 557 543 528 564 574 563 600 529 550 579 526 516 555 570 577 502 583 555 578 540 510 562 574 552 541 570 548 571 511 543 568 507 557 567 524 544 557 572 556 535 543 540 575 532 569 551 521 555 552 517 543 588 589 574 595 566 530 597 564 557 520 524 601 582 584 588 559 571 601 617 589 619 559 554 615 579 611 575 583 585 531 613 601 563 590 547 607 585 589 587 570 606 546 627 595 600 600 587 617 612 575 601 582 558 572 582 613 561 596 573 487 592 528 569 558 527 591 547 541 567 543 551 548 564 572 552 535 573 574 531 535 526 528 531 501 526 550 462 516 532 528 529 502 541 546 556 548 496 505 552 513 522 512 600 588 529 571 565 538 576 526 498 509 537 595 496 565 570 506 528 560 508 522 550 520 528 568 567 527 560 542 501 574 527 564 499 487 537 505 569 576 478 521 523 507 530 541 497 540 524 525 568 538 526 537 559 536 559 528 529 533 521 511 575 548 521 537 536 506 576 537 506 560 547 531 508 581 530 521 527 547 528 529 524 559 490 539 525 511 516 560 528 538 539 490 542 515 561 528 513 557 531 499 560 549 555 515 558 508 525 533 530 522 589 537 527 539 517 494 484 526 538 580 507 546 562 521 544 443 525 524 473 552 527 515 514 511 503 478 532 493 473 496 512 516 504 524 508 533 519 508 511 506 535 493 536 498 531 550 562 541 531 533 534 482 529 522 510 512 480 503 537 508 546 483 522 522 549 546 510 556 528 490 523 494 580 552 471 488 477 519 566 542 548 503 551 529 533 480 537 496 498 519 542 573 541 491 506 525 528 512 516 472 541 549 507 533 505 519 527 486 495 505 540 549 549 538 541 536 540 516 498 518 492 577 540 519 533 507 472 520 541 524 490 511 516 502 532 537 526 510 503 545 514 514 498 485 511 511 512 508 514 506 523 507 471 525 560 521 535 533 505 510 529 509 494 508 536 514 517 562 525 507 511 531 516 498 553 525 504 520 544 552 527 514 495 518 501 558 481 498 591 548 505 534 500 517 518 539 540 502 564 497 485 502 519 525 506 524 554 476 547 551 515 498 557 538 498 530 520 475 520 491 509 520 506 500 524 514 522 490 532 493 547 500 538 554 534 505 551 499 480 520 541 524 517 486 487 548 509 537 578 541 555 563 537 531 539 537 549 548 553 621 533 576 582 560 618 603 586 563 598 600 577 555 543 483 576 550 501 564 557 550 536 495 541 516 553 544 522 595 543 608 554 518 512 549 561 530 552 531 546 561 527 504 540 527 508 468 486 540 502 481 484 506 521 496 523 479 539 536 516 531 514 530 520 492 482 514 534 466 506 518 558 542 448 534 539 544 474 517 510 493 536 499 516 537 533 496 502 521 495 558 503 508 511 538 481 526 522 541 530 501 481 529 527 517 502 504 506 494 476 540 519 510 489 498 512 540 509 502 561 551 529 499 533 491 481 528 525 476 512 507 488 527 468 524 476 509 529 521 502 500 515 490 556 546 483 541 497 494 511 514 550 511 496 522 504 516 507 555 556 537 454 504 514 486 477 518 530 521 531 503 515 511 513 534 512 535 536 505 496 530 499 554 508 470 551 519 503 529 511 543 527 509 509 541 527 531 488 484 485 503 490 490 530 530 512 551 528 467 509 503 504 518 493 531 524 493 532 508 543 500 568 543 488 493 500 491 498 499 557 499 509 509 523 519 499 532 521 495 501 545 493 520 552 537 521 489 510 527 472 498 513 483 532 546 528 511 499 519 550 553 547 550 543 548 520 543 527 604 525 529 551 579 581 565 601 537 617 594 645 659 714 709 751 778 750 885 915 986 957 938 930 901 890 800 778 801 754 751 676 681 604 633 624 676 636 602 640 647 623 650 626 680 725 691 757 694 713 751 688 699 681 666 668 586 646 567 601 550 564 570 547 521 582 492 533 549 515 542 549 537 527 547 576 511 514 518 547 509 547 525 508 525 547 537 528 498 517 551 519 521 475 498 469 524 490 569 515 559 527 529 517 488 507 484 547 516 529 491 511 525 500 549 487 482 526 496 529 526 518 475 510 535 453 502 529 493 498 473 558 541 463 518 462 489 510 502 508 460 491 508 456 493 536 487 525 491 512 484 509 494 529 489 496 522 508 498 538 518 537 549 500 522 489 526 525 547 511 469 499 511 507 501 515 495 477 515 505 490 503 526 535 537 505 532 521 515 510 519 523 538 489 488 512 488 479 552 490 490 513 539 473 510 525 478 518 524 540 498 469 568 513 527 487 482 499 532 506 491 504 510 534 521 494 486 513 531 502 494 489 506 516 487 512 557 505 501 559 503 511 504 510 497 473 545 471 497 469 535 468 556 504 528 497 504 544 492 517 497 538 472 514 510 485 476 484 489 497 500 552 468 521 487 514 498 502 523 499 517 528 503 489 502 500 459 512 501 450 464 517 492 515 492 515 480 486 492 538 549 513 490 502 480 514 494 528 512 494 518 476 504 520 492 527 483 513 477 527 470 499 443 498 505 491 512 455 500 499 482 472 504 517 527 514 525 492 501 479 489 514 517 489 475 515 486 498 504 515 483 471 515 517 508 510 471 514 498 501 503 504 492 543 507 492 521 476 480 504 481 492 527 512 499 504 505 520 472 519 508 450 463 482 520 527 495 516 493 521 467 497 494 499 423 514 497 483 492 474 489 520 493 501 519 522 509 528 499 509 475 551 493 538 488 517 477 519 496 539 489 526 491 481 512 504 516 500 522 508 514 545 517 515 455 557 485 520 487 487 518 466 518 514 470 485 554 437 492 499 498 514 524 498 501 506 483 480 475 497 494 506 453 504 503 476 502 511 487 489 494 501 467 478 500 477 489 516 506 531 416 505 476 509 485 491 491 520 496 502 460 502 501 487 518 483 512 496 522 532 477 520 522 517 492 533 481 519 489 514 557 518 514 511 539 524 445 545 486 526 514 492 523 498 511 484 475 493 493 521 502 532 528 528 506 529 489 483 491 489 471 525 500 495 533 515 460 470 495 477 536 488 536 493 449 530 485 489 491 486 448 464 468 470 515 497 540 529 468 459 497 499 512 533 484 568 516 468 536 520 482 493 490 496 517 472 469 503 491 496 479 503 503 506 523 450 461 489 532 484 493 504 500 511 516 505 489 515 493 516 473 527 499 475 520 461 529 552 514 470 465 491 499 497 506 483 509 508 498 468 515 504 495 527 480 513 492 501 517 478 522 504 573 565 573 526 580 583 568 581 563 592 570 543 556 545 617 543 534 600 542 526 534 548 505 498 521 544 493 532 491 558 551 549 554 551 568 518 563 545 542 591 517 532 546 558 515 535 522 524 534 498 552 500 518 527 499 528 550 539 511 551 555 564 537 548 577 598 600 548 571 563 558 582 523 536 538 497 523 539 543 545 500 487 514 508 515 537 476 576 513 536 522 522 537 495 514 506 530 525 537 514 523 488 539 546 502 548 505 491 509 499 503 460 501 493 494 553 524 516 484 514 479 514 474 497 532 489 468 494</counts>
			</dataPoints>
		</scan>
	</xrdMeasurement>
</xrdMeasurements>
