<?xml version="1.0"?>
<xrdMeasurements xmlns="http://www.xrdml.com/XRDMeasurement/2.3" xmlns:xsi="http://www.w3.org/2001/XMLSchema-instance" xsi:schemaLocation="http://www.xrdml.com/XRDMeasurement/2.3 http://www.xrdml.com/XRDMeasurement/2.3/XRDMeasurement.xsd" status="Completed" recordIdentifier="{2B64E840-E8DE-443A-9F84-2F37F21F77E7}">
	<comment>
		<entry/>
	</comment>
	<sample type="To be analyzed">
		<id>GPSS_Li1p95Fe0p95Bi0p05Cl4_112225_6921f967f4e53d1f72397d39</id>
		<name></name>
		<preparedBy></preparedBy>
	</sample>
	<xrdMeasurement measurementType="Scan" status="Completed" sampleMode="Reflection">
		<usedWavelength intended="K-Alpha 1">
			<kAlpha1 unit="Angstrom">1.5405980</kAlpha1>
			<kAlpha2 unit="Angstrom">1.5444260</kAlpha2>
			<kBeta unit="Angstrom">1.3922500</kBeta>
			<ratioKAlpha2KAlpha1>0.5000</ratioKAlpha2KAlpha1>
		</usedWavelength>
		<incidentBeamPath>
			<radius unit="mm">145.00</radius>
			<xRayTube id="1010048" name="Empyrean Cu LFF HR (9430 033 7310x)">
				<tension unit="kV">40.0</tension>
				<current unit="mA">15.0</current>
				<anodeMaterial>Cu</anodeMaterial>
				<focus type="Line">
					<length unit="mm">12.0</length>
					<width unit="mm">0.4</width>
					<takeOffAngle unit="deg">6.0</takeOffAngle>
				</focus>
			</xRayTube>
			<sollerSlit id="21010002" name="Soller slits 0.04 rad.">
				<opening unit="rad">0.0400</opening>
			</sollerSlit>
			<mask id="22031000" name="Fixed mask 13 mm">
				<width unit="mm">9.00</width>
			</mask>
			<divergenceSlit id="22120001" name="Divergence slit 1°" xsi:type="fixedDivergenceSlitType">
				<distanceToSample unit="mm">50.00</distanceToSample>
				<height unit="mm">1.52</height>
			</divergenceSlit>
		</incidentBeamPath>
		<sampleMovement xsi:type="spinningSampleMovementType">
			<spinnerRevolutionTime unit="seconds">1.0</spinnerRevolutionTime>
		</sampleMovement>
		<diffractedBeamPath>
			<radius unit="mm">145.00</radius>
			<antiScatterSlit id="22090040" name="AS slit 9 mm (PIXcel)" xsi:type="fixedAntiScatterSlitType">
				<height unit="mm">9.00</height>
			</antiScatterSlit>
			<sollerSlit id="21020003" name="Large Soller slits 0.04 rad.">
				<opening unit="rad">0.0400</opening>
			</sollerSlit>
			<filter id="20030001" name="Large beta-filter Nickel">
				<material>Ni</material>
				<thickness unit="mm">0.020</thickness>
			</filter>
			<detector id="7010019" name="PIXcel1D-Medipix3 detector" xsi:type="rtmsDetectorType">
				<phd unit="keV">
					<lowerLevel>4.02</lowerLevel>
					<upperLevel>11.27</upperLevel>
				</phd>
				<mode>Scanning</mode>
				<activeLength unit="deg">5.542</activeLength>
			</detector>
		</diffractedBeamPath>
		<scan appendNumber="0" mode="Continuous" scanAxis="Gonio" status="Completed">
			<header>
				<startTimeStamp>2025-11-24T13:00:39-08:00</startTimeStamp>
				<endTimeStamp>2025-11-24T13:08:46-08:00</endTimeStamp>
				<author>
					<name>AutomatedUser</name>
				</author>
				<source>
					<applicationSoftware version="1.7b (136)">PANalytical Aeris Instrument Suite</applicationSoftware>
					<instrumentControlSoftware version="3.2.00000000 20240306">AERIS</instrumentControlSoftware>
					<instrumentID>950485</instrumentID>
				</source>
			</header>
			<dataPoints>
				<positions axis="2Theta" unit="deg">
					<startPosition>10.00943322</startPosition>
					<endPosition>99.99442286</endPosition>
				</positions>
				<positions axis="Omega" unit="deg">
					<startPosition>5.00471661</startPosition>
					<endPosition>49.99721143</endPosition>
				</positions>
				<commonCountingTime unit="seconds">12.495</commonCountingTime>
				<counts unit="counts">3159 3157 3218 3187 3394 3166 3306 3223 3286 3219 3192 3178 3234 3190 3295 3322 3141 3246 3378 3223 3122 3286 3145 3271 3183 3251 3278 3315 3198 3155 3164 3188 3201 3208 3244 3243 3172 3256 3191 3295 3258 3368 3223 3248 3277 3169 3279 3186 3200 3174 3232 3290 3192 3251 3328 3260 3273 3286 3252 3304 3401 3308 3317 3240 3324 3246 3227 3361 3336 3341 3313 3421 3348 3377 3423 3290 3491 3339 3478 3429 3353 3377 3302 3301 3324 3446 3345 3465 3388 3363 3498 3395 3368 3333 3277 3458 3374 3345 3287 3252 3419 3360 3315 3166 3382 3333 3400 3248 3287 3299 3243 3232 3261 3196 3425 3314 3237 3402 3277 3391 3263 3316 3304 3286 3259 3315 3274 3296 3237 3290 3270 3169 3376 3304 3263 3271 3274 3440 3244 3283 3217 3301 3307 3275 3428 3328 3323 3298 3287 3242 3363 3216 3344 3313 3260 3413 3302 3264 3304 3299 3382 3317 3347 3305 3261 3242 3222 3280 3402 3354 3351 3268 3342 3228 3340 3302 3247 3383 3186 3392 3367 3348 3237 3264 3204 3271 3357 3251 3303 3381 3341 3193 3273 3201 3270 3255 3211 3208 3355 3229 3346 3184 3292 3288 3146 3348 3306 3347 3269 3335 3299 3289 3202 3268 3331 3252 3290 3267 3214 3342 3227 3311 3285 3368 3154 3284 3194 3231 3288 3223 3286 3315 3244 3278 3362 3292 3352 3293 3197 3167 3245 3240 3249 3374 3292 3272 3353 3305 3228 3404 3252 3141 3321 3265 3223 3291 3241 3284 3218 3178 3295 3302 3323 3371 3220 3263 3253 3201 3270 3319 3202 3254 3277 3347 3261 3263 3373 3309 3361 3234 3430 3278 3347 3329 3276 3400 3387 3340 3359 3288 3360 3395 3371 3365 3402 3425 3429 3347 3484 3428 3423 3386 3507 3478 3414 3413 3302 3422 3476 3403 3377 3460 3459 3443 3576 3512 3505 3470 3462 3369 3445 3516 3518 3405 3648 3530 3612 3551 3605 3556 3549 3582 3600 3540 3600 3501 3601 3565 3595 3625 3535 3551 3579 3625 3724 3617 3545 3633 3663 3533 3664 3773 3629 3625 3726 3630 3681 3613 3683 3681 3610 3837 3687 3777 3731 3717 3724 3730 3755 3779 3884 3599 3815 3724 3790 3756 3938 3832 3816 3872 3770 3823 3872 3852 3830 3846 3762 3814 3819 3926 3805 3953 3951 3800 3830 3883 3905 3774 3903 3918 3962 3824 3971 3753 3887 3858 3969 4103 4039 3955 4040 3962 3976 4113 4049 4064 4099 4065 4172 4165 4164 4229 4237 4323 4302 4444 4263 4343 4523 4609 4640 4798 4709 4745 4857 5045 5122 5076 5272 5355 5299 5379 5444 5520 5446 5461 5408 5409 5341 5105 5005 4923 4863 4724 4866 4561 4628 4524 4481 4575 4496 4305 4252 4330 4382 4307 4363 4373 4478 4317 4298 4371 4468 4489 4566 4475 4410 4520 4366 4337 4376 4205 4246 4213 4055 3990 4112 4060 4057 3930 3863 3782 3902 3833 3840 3739 3679 3652 3787 3722 3768 3616 3686 3732 3690 3712 3603 3767 3615 3527 3650 3634 3669 3641 3564 3452 3519 3632 3574 3550 3551 3733 3516 3617 3680 3573 3615 3549 3630 3638 3502 3652 3566 3556 3527 3569 3558 3527 3595 3512 3480 3512 3407 3534 3491 3474 3506 3441 3512 3499 3563 3531 3504 3507 3601 3452 3542 3545 3523 3442 3474 3477 3333 3363 3481 3404 3394 3434 3445 3486 3378 3492 3446 3415 3442 3412 3349 3386 3268 3343 3396 3328 3384 3424 3454 3369 3389 3401 3337 3322 3287 3416 3405 3345 3269 3369 3434 3265 3390 3427 3264 3504 3393 3268 3434 3360 3271 3309 3338 3264 3295 3269 3302 3215 3352 3333 3354 3328 3239 3236 3204 3289 3314 3355 3380 3309 3404 3210 3362 3338 3329 3243 3348 3250 3289 3331 3377 3305 3329 3382 3294 3385 3309 3353 3286 3375 3358 3313 3394 3376 3282 3345 3345 3349 3438 3466 3442 3404 3572 3414 3562 3452 3635 3308 3555 3422 3367 3408 3347 3360 3393 3400 3331 3290 3207 3369 3363 3332 3234 3196 3242 3291 3209 3298 3199 3285 3230 3193 3253 3280 3152 3226 3271 3200 3249 3301 3272 3219 3348 3230 3135 3191 3267 3199 3193 3255 3188 3161 3155 3169 3386 3127 3231 3271 3281 3150 3131 3114 3261 3149 3220 3263 3191 3164 3284 3169 3153 3299 3187 3148 3268 3214 3159 3187 3184 3186 3158 3116 3240 3144 3249 3107 3217 3204 3154 3219 3186 3177 3176 3278 3193 3296 3241 3233 3261 3131 3161 3211 3210 3108 3275 3060 3195 3133 3134 3121 3226 3181 3221 3142 3165 3137 3124 3100 3188 3196 3103 3228 3091 3151 3211 3133 3138 3167 3222 3087 3132 3133 3132 3164 3196 3158 3232 3071 3180 3126 3204 3037 3221 3090 3117 3100 3064 3138 3261 3112 2994 3160 3125 3065 3079 3123 3090 3218 3113 3088 3111 3205 3077 3179 3191 3143 3145 3085 3104 3167 3144 2991 3157 3015 2984 3042 3065 3154 3118 3047 3064 3074 3189 3094 3012 3032 3122 3087 2998 3036 3212 3018 3104 3125 2985 3140 3059 3159 3150 2975 3070 3078 3124 3070 3119 3180 3062 3032 2984 3091 2976 2921 3075 3065 2974 2972 2871 2956 3054 3003 3114 3026 3116 2957 3088 2940 2998 2969 3094 3014 2972 3114 3062 2995 3036 2915 2982 2956 3146 2953 2877 2970 2932 3034 2895 3129 3119 3011 3003 2977 2964 3001 3041 3009 2974 3076 2993 3025 3017 3016 2984 2967 3003 3015 2974 2984 3024 2939 2942 2957 2994 2953 3046 2910 2983 3035 2916 2912 2971 3021 2924 2863 2969 3016 2954 3010 2968 2995 2970 2947 3050 2942 2927 2964 3036 2905 2974 3050 2968 2994 2929 2982 2985 2932 2961 3020 2941 3068 2970 2919 2953 2976 2878 2969 3008 3002 2916 2871 2949 3157 3010 2931 2988 2845 2890 2896 2975 3076 3088 2966 2940 3028 2971 3063 2948 3025 2874 2918 2942 2974 2917 3008 2910 2900 2980 2975 2922 2990 2902 2957 2984 2896 3077 2874 2934 2905 2862 2914 2870 2890 2933 2996 2896 2957 3039 3016 2922 2883 2945 2954 2940 2898 2889 2980 3054 2920 3001 2918 2991 2996 2926 3061 2978 2910 2953 2992 2967 3026 2953 2850 2825 2931 3012 2966 2948 3037 2980 2916 2925 2939 2925 2989 3012 2932 2933 3007 2930 2936 2890 3070 2898 2960 2865 2942 3051 2970 2972 2888 3042 2911 2971 2975 2873 2921 2949 2981 2994 2891 2983 2896 2943 2891 3047 2978 2968 2913 2855 2933 2989 2845 2954 2968 2951 2891 2928 2962 2890 2939 2987 2755 2848 2955 2916 2897 2868 2889 2923 2927 2923 2823 2855 2846 2920 2846 2920 2762 2918 2886 2809 2888 2893 2754 2836 2988 2835 2801 2785 2995 3011 2848 2833 2872 2880 2803 2845 2806 2904 2918 2823 2893 2588 2849 2760 2821 2800 2757 2745 2828 2811 2805 2822 2681 2716 2749 2682 2744 2748 2659 2696 2792 2710 2718 2759 2697 2735 2600 2734 2705 2716 2699 2646 2757 2705 2733 2710 2574 2635 2665 2660 2554 2591 2664 2615 2594 2618 2757 2635 2664 2622 2654 2681 2577 2591 2679 2618 2609 2709 2494 2619 2535 2577 2545 2503 2533 2574 2573 2586 2562 2494 2597 2515 2579 2507 2581 2563 2523 2534 2444 2614 2549 2481 2442 2392 2506 2465 2437 2494 2432 2510 2532 2400 2369 2521 2474 2474 2372 2434 2399 2428 2407 2424 2377 2374 2433 2409 2407 2405 2404 2517 2492 2428 2403 2385 2417 2361 2389 2333 2374 2440 2381 2371 2405 2375 2421 2321 2412 2415 2472 2339 2348 2290 2389 2397 2302 2346 2374 2313 2438 2361 2379 2445 2313 2400 2342 2395 2396 2419 2247 2450 2333 2381 2322 2329 2292 2295 2289 2364 2307 2387 2277 2320 2309 2372 2412 2300 2312 2355 2341 2440 2400 2371 2409 2391 2373 2403 2454 2392 2423 2371 2368 2314 2409 2434 2337 2440 2398 2304 2372 2308 2341 2328 2359 2294 2335 2288 2265 2237 2300 2242 2368 2226 2277 2258 2383 2231 2310 2330 2292 2297 2285 2277 2283 2217 2258 2231 2249 2306 2297 2225 2241 2247 2222 2234 2238 2220 2246 2271 2200 2403 2238 2255 2211 2295 2218 2274 2244 2296 2207 2284 2204 2220 2182 2245 2273 2188 2176 2276 2278 2327 2191 2296 2267 2215 2270 2295 2253 2255 2318 2275 2243 2347 2305 2322 2268 2208 2224 2283 2269 2330 2294 2272 2226 2235 2275 2198 2252 2329 2285 2305 2319 2370 2260 2293 2283 2223 2303 2301 2301 2251 2282 2339 2248 2287 2324 2262 2228 2248 2276 2306 2209 2162 2259 2277 2297 2225 2360 2244 2276 2301 2168 2298 2213 2308 2288 2303 2355 2301 2305 2299 2390 2276 2192 2309 2310 2295 2340 2143 2309 2318 2360 2215 2249 2255 2352 2217 2238 2208 2159 2246 2259 2219 2318 2113 2219 2221 2203 2280 2252 2299 2181 2251 2221 2213 2280 2246 2319 2208 2282 2143 2261 2173 2288 2285 2174 2160 2137 2194 2177 2139 2222 2182 2174 2200 2245 2192 2171 2193 2160 2136 2202 2173 2244 2287 2143 2261 2150 2213 2163 2135 2112 2208 2116 2291 2116 2068 2136 2068 2092 2157 2185 2141 2137 2229 2063 2049 2081 2082 2122 2070 2046 2106 2163 2088 2045 2076 2103 2068 2092 2068 2161 2086 2027 2175 2073 2104 2175 1997 2137 2080 2076 2094 2154 2078 2177 2086 2129 2049 2109 2086 2117 2053 2009 2040 2040 2090 1987 1988 2010 1937 2124 2001 1950 1975 2031 1966 1978 2013 1995 2021 2053 1910 1990 1970 2001 2000 1978 1972 2022 1944 1941 1930 1912 1936 1929 1927 2019 1942 1999 1963 1917 1981 1941 1891 1985 2029 1909 2045 1957 1997 1972 1919 1864 1856 1941 1915 1860 1902 1979 1925 1878 1830 1895 1814 1932 1891 1840 1876 1896 1886 1870 1852 1826 1857 1892 1831 1918 1908 1976 1828 1919 1813 1859 1917 1921 1871 1818 1910 1954 1797 1869 1864 1931 1886 1878 1952 1874 1885 1967 1948 1922 1864 1917 1980 2040 1989 1979 2003 2046 2096 2106 2136 2176 2153 2169 2228 2287 2326 2438 2317 2385 2366 2336 2408 2373 2325 2384 2327 2265 2254 2272 2199 2189 2204 2202 2152 2208 2008 2168 1991 2013 2031 2012 2004 2020 1981 1886 1911 1949 1847 1887 1907 1835 1877 1874 1889 1902 1849 1808 1854 1868 1876 1924 1923 1783 1924 1903 1881 1865 1816 1826 1876 1889 1899 1796 1868 1820 1752 1829 1782 1901 1845 1764 1775 1790 1839 1826 1712 1729 1796 1894 1782 1770 1728 1736 1804 1732 1787 1880 1803 1845 1692 1807 1801 1729 1780 1793 1746 1778 1804 1748 1816 1833 1809 1721 1853 1782 1786 1891 1853 1944 1974 2053 2015 2082 2132 2066 2151 2200 2338 2312 2445 2404 2435 2487 2535 2651 2701 2705 2801 2849 2874 2849 2907 3019 2972 3003 3030 3206 3196 3276 3265 3289 3323 3397 3308 3173 3205 3141 2984 2926 2884 2693 2741 2596 2461 2458 2274 2209 2040 2142 1960 1952 1910 1834 1819 1835 1802 1796 1763 1693 1715 1697 1789 1717 1700 1711 1624 1702 1701 1641 1644 1634 1702 1721 1744 1637 1722 1628 1607 1603 1637 1602 1698 1571 1505 1596 1637 1666 1590 1606 1612 1579 1655 1626 1623 1633 1550 1566 1613 1611 1594 1659 1570 1650 1577 1610 1636 1519 1600 1578 1658 1610 1593 1594 1579 1621 1519 1569 1584 1602 1587 1529 1561 1611 1555 1620 1498 1597 1519 1618 1462 1610 1547 1613 1572 1609 1513 1524 1513 1604 1596 1592 1516 1600 1532 1565 1558 1572 1555 1548 1546 1623 1609 1543 1480 1597 1542 1643 1582 1534 1522 1577 1595 1557 1549 1605 1560 1613 1564 1516 1586 1560 1550 1558 1549 1501 1547 1534 1531 1518 1466 1549 1531 1523 1517 1550 1565 1567 1490 1608 1546 1610 1522 1551 1535 1527 1441 1465 1562 1559 1558 1577 1507 1570 1488 1471 1489 1475 1577 1593 1520 1507 1527 1530 1538 1521 1605 1469 1567 1448 1554 1404 1514 1549 1466 1496 1549 1469 1514 1465 1479 1510 1503 1471 1527 1489 1570 1542 1474 1513 1598 1504 1516 1475 1569 1417 1545 1440 1584 1500 1467 1552 1540 1509 1593 1453 1468 1569 1449 1554 1493 1616 1500 1551 1528 1466 1570 1530 1549 1640 1524 1623 1592 1603 1577 1627 1567 1518 1636 1532 1643 1562 1623 1639 1574 1624 1651 1586 1623 1677 1640 1628 1615 1591 1603 1580 1565 1611 1600 1618 1548 1600 1661 1503 1589 1584 1585 1548 1578 1574 1547 1590 1573 1534 1568 1579 1564 1571 1581 1631 1579 1519 1512 1560 1591 1516 1544 1510 1550 1564 1468 1505 1586 1568 1508 1581 1571 1503 1466 1496 1571 1460 1563 1527 1514 1516 1485 1478 1536 1493 1507 1453 1470 1474 1469 1530 1475 1493 1602 1544 1553 1555 1527 1556 1536 1458 1488 1458 1499 1504 1460 1449 1547 1505 1532 1472 1449 1531 1561 1526 1529 1479 1527 1466 1452 1479 1481 1492 1507 1454 1444 1461 1507 1495 1502 1569 1512 1483 1540 1526 1496 1508 1517 1499 1532 1505 1471 1445 1535 1513 1579 1530 1583 1553 1563 1488 1564 1554 1538 1605 1519 1601 1550 1599 1699 1655 1645 1749 1718 1655 1842 1849 1932 1952 1986 2135 2173 2315 2454 2622 2644 2887 2922 2981 3229 3383 3550 3708 3832 3869 4061 4232 4363 4499 4652 4766 4719 4666 4795 4700 4671 4625 4685 4573 4652 4663 4636 4573 4799 4623 4722 4642 4792 4874 4823 4714 4601 4457 4459 4350 4092 4005 3922 3782 3585 3429 3207 3078 2831 2634 2522 2415 2416 2159 2165 2079 1935 1891 1921 1873 1848 1761 1726 1698 1673 1688 1607 1684 1600 1598 1586 1624 1689 1631 1615 1670 1567 1606 1597 1645 1603 1642 1537 1606 1569 1605 1577 1614 1617 1571 1497 1630 1508 1498 1587 1579 1512 1468 1514 1450 1506 1533 1503 1466 1533 1485 1471 1440 1491 1468 1462 1472 1458 1521 1451 1463 1504 1484 1505 1450 1427 1454 1402 1426 1429 1472 1518 1474 1383 1477 1421 1498 1432 1443 1397 1405 1386 1464 1399 1347 1415 1445 1475 1444 1423 1440 1414 1427 1334 1416 1373 1457 1399 1428 1430 1440 1397 1492 1407 1440 1380 1409 1451 1419 1391 1423 1428 1421 1396 1410 1325 1348 1437 1421 1379 1360 1404 1349 1438 1434 1422 1337 1388 1432 1323 1370 1316 1358 1385 1355 1367 1388 1416 1406 1375 1413 1353 1383 1365 1408 1421 1273 1306 1342 1459 1411 1300 1380 1367 1390 1398 1326 1311 1277 1332 1389 1301 1327 1351 1338 1350 1311 1398 1382 1332 1321 1312 1370 1337 1316 1388 1267 1328 1340 1354 1298 1377 1301 1415 1317 1282 1374 1400 1348 1355 1299 1380 1343 1368 1324 1325 1311 1354 1312 1321 1292 1407 1334 1324 1326 1381 1337 1358 1321 1310 1354 1324 1372 1329 1312 1316 1361 1373 1324 1406 1328 1386 1328 1339 1345 1333 1412 1333 1332 1346 1339 1326 1340 1314 1292 1352 1349 1311 1356 1347 1336 1370 1442 1285 1319 1328 1316 1310 1331 1360 1361 1331 1348 1301 1386 1319 1373 1335 1400 1258 1316 1350 1389 1325 1327 1401 1342 1341 1355 1359 1356 1398 1324 1389 1384 1367 1378 1376 1338 1331 1317 1354 1330 1370 1354 1385 1377 1335 1343 1312 1293 1288 1331 1371 1346 1291 1338 1297 1318 1301 1319 1252 1268 1304 1369 1282 1235 1275 1359 1279 1208 1273 1298 1248 1332 1314 1318 1253 1354 1302 1309 1239 1283 1307 1299 1280 1337 1277 1311 1292 1223 1222 1246 1352 1272 1274 1280 1344 1283 1290 1280 1301 1295 1320 1249 1291 1289 1285 1335 1266 1318 1265 1325 1251 1221 1232 1289 1278 1306 1289 1222 1324 1295 1334 1290 1299 1309 1372 1321 1399 1290 1314 1269 1253 1315 1381 1290 1377 1240 1278 1349 1329 1283 1316 1302 1283 1272 1271 1267 1264 1245 1262 1242 1223 1268 1283 1237 1282 1222 1279 1298 1191 1293 1214 1237 1254 1254 1275 1184 1184 1222 1235 1277 1286 1194 1250 1259 1276 1252 1276 1255 1214 1295 1238 1287 1204 1255 1275 1213 1289 1239 1256 1284 1262 1255 1269 1273 1230 1271 1239 1270 1236 1216 1236 1167 1168 1227 1247 1235 1229 1265 1204 1287 1184 1278 1228 1288 1207 1223 1196 1197 1220 1276 1214 1246 1219 1282 1193 1193 1218 1212 1217 1139 1315 1199 1224 1249 1232 1218 1208 1204 1271 1216 1207 1195 1208 1292 1163 1182 1196 1187 1196 1266 1221 1277 1190 1189 1233 1234 1206 1263 1234 1246 1152 1240 1202 1254 1182 1239 1199 1209 1184 1237 1247 1238 1181 1214 1220 1240 1212 1233 1212 1244 1257 1212 1173 1215 1188 1249 1211 1179 1223 1210 1227 1238 1168 1186 1208 1209 1205 1209 1170 1223 1207 1190 1146 1174 1211 1270 1237 1258 1182 1250 1243 1177 1222 1287 1202 1227 1234 1198 1167 1141 1178 1190 1202 1146 1226 1191 1217 1180 1162 1241 1177 1212 1231 1148 1304 1236 1189 1220 1241 1111 1176 1239 1198 1196 1233 1213 1208 1162 1164 1195 1164 1214 1158 1166 1124 1233 1198 1143 1262 1159 1198 1150 1190 1159 1213 1221 1169 1214 1156 1145 1138 1174 1204 1134 1204 1212 1196 1229 1166 1233 1229 1202 1183 1199 1180 1232 1161 1142 1167 1191 1241 1197 1156 1209 1208 1209 1166 1210 1238 1219 1178 1174 1186 1230 1168 1226 1223 1239 1199 1258 1200 1120 1183 1088 1264 1195 1213 1183 1185 1134 1157 1098 1181 1173 1177 1155 1157 1143 1119 1150 1181 1226 1203 1168 1148 1157 1199 1146 1234 1210 1196 1118 1207 1147 1171 1162 1102 1135 1162 1148 1190 1243 1155 1195 1176 1161 1157 1188 1202 1233 1178 1183 1192 1154 1170 1174 1203 1197 1189 1181 1127 1228 1212 1187 1191 1183 1216 1172 1263 1213 1136 1215 1155 1234 1233 1271 1257 1206 1229 1249 1278 1183 1182 1247 1192 1200 1170 1192 1186 1221 1232 1205 1158 1192 1189 1123 1208 1187 1204 1184 1205 1173 1111 1214 1169 1140 1206 1125 1180 1194 1146 1107 1178 1207 1197 1196 1152 1167 1208 1167 1160 1212 1225 1178 1181 1162 1198 1179 1200 1146 1113 1132 1212 1155 1117 1147 1257 1204 1156 1180 1242 1173 1194 1114 1138 1181 1083 1171 1218 1191 1198 1164 1168 1115 1192 1211 1199 1229 1202 1158 1155 1164 1105 1127 1236 1135 1144 1124 1183 1134 1160 1110 1186 1143 1173 1178 1227 1158 1198 1196 1169 1131 1211 1129 1203 1134 1225 1117 1189 1166 1156 1183 1180 1231 1252 1177 1138 1200 1170 1155 1228 1198 1236 1225 1226 1219 1135 1152 1157 1195 1196 1181 1165 1145 1146 1175 1130 1170 1172 1163 1149 1178 1152 1106 1150 1141 1241 1112 1183 1152 1188 1147 1178 1112 1212 1106 1145 1182 1189 1142 1117 1129 1133 1136 1194 1157 1098 1099 1135 1162 1138 1190 1140 1167 1168 1158 1188 1140 1158 1131 1126 1092 1093 1125 1201 1116 1149 1101 1156 1145 1194 1165 1101 1160 1149 1186 1166 1203 1209 1184 1131 1232 1188 1195 1179 1186 1195 1166 1284 1210 1297 1340 1248 1341 1399 1316 1341 1353 1313 1353 1392 1456 1420 1433 1449 1346 1471 1504 1417 1361 1355 1314 1362 1324 1416 1301 1313 1319 1287 1272 1339 1321 1324 1306 1245 1267 1275 1242 1249 1276 1260 1273 1191 1285 1296 1279 1226 1254 1273 1267 1170 1190 1165 1212 1205 1126 1189 1200 1184 1134 1155 1148 1176 1180 1180 1170 1131 1130 1064 1141 1109 1087 1172 1171 1126 1142 1125 1131 1150 1068 1101 1167 1124 1188 1141 1102 1068 1134 1134 1135 1114 1122 1076 1097 1140 1151 1088 1166 1114 1097 1148 1080 1157 1134 1112 1127 1148 1154 1163 1159 1113 1161 1105 1051 1116 1076 1170 1096 1151 1079 1195 1128 1175 1083 1111 1204 1088 1128 1140 1157 1147 1110 1070 1085 1159 1121 1112 1085 1162 1081 1123 1128 1100 1142 1148 1157 1095 1157 1095 1050 1050 1084 1123 1112 1086 1023 1159 1158 1146 1132 1074 1070 1071 1089 1081 1069 1129 1065 1146 1112 1017 1148 1129 1175 1157 1142 1135 1110 1075 1120 1075 1119 1078 1065 1118 1133 1123 1084 1076 1092 1119 1054 1052 1066 1102 1085 1039 1095 1131 1097 1082 1090 1072 1111 1142 1044 1116 1089 1097 1135 1110 1033 1119 1111 1054 1100 1119 1102 1112 1162 1088 1118 1110 1072 1044 1119 1135 1109 1121 1082 1103 1176 1109 1110 1121 1163 1051 1066 1123 1019 1072 1096 1087 1148 1063 1131 1104 1102 1116 1079 1083 1072 1085 1143 1220 1117 1050 1079 1083 1059 1072 1103 1081 1066 1078 1175 1051 1110 1149 1108 1090 1095 1081 1092 1119 1121 1143 1113 1057 1101 1051 1080 1115 1124 1073 1068 1118 1091 1125 1103 1047 1096 1145 1127 1096 1072 1079 1071 1064 1084 1106 1082 1086 1144 1117 1124 1149 1092 1114 1084 1083 1043 1109 1113 1073 1101 1070 1081 1126 1091 1126 1053 1112 1088 1129 1093 1072 1150 1027 1124 1078 1097 1121 1083 1107 1112 1069 1111 1095 1103 1102 1099 1071 1119 1137 1146 1096 1082 1083 1090 1087 1063 1123 1082 1072 1088 1145 1138 1091 1087 1118 1184 1072 1118 1148 1121 1115 1161 1178 1076 1141 1143 1115 1183 1112 1147 1159 1167 1168 1243 1126 1160 1173 1329 1210 1242 1276 1357 1344 1382 1494 1509 1548 1622 1601 1696 1818 1780 1962 1889 1976 2106 2027 2045 2177 2170 2256 2228 2301 2214 2244 2185 2175 2227 2159 2062 2026 2034 2044 1929 1849 1913 1855 1824 1781 1860 1716 1810 1753 1864 1788 1893 1922 1977 2052 2067 2105 2198 2180 2259 2333 2326 2319 2207 2081 2091 2005 2063 1847 1975 1832 1879 1802 1758 1712 1622 1524 1519 1506 1415 1398 1352 1299 1296 1253 1237 1252 1222 1184 1241 1192 1182 1172 1200 1188 1171 1126 1207 1180 1143 1180 1164 1191 1190 1234 1257 1210 1232 1213 1256 1248 1284 1218 1261 1254 1257 1224 1238 1262 1294 1297 1216 1242 1234 1224 1127 1152 1191 1108 1125 1222 1149 1096 1128 1193 1209 1178 1097 1103 1046 1053 1182 1098 1086 1099 1049 1130 1113 1115 1160 1146 1086 1054 1063 1065 1101 1067 1039 1106 1062 1113 1079 1065 1059 1065 1036 1065 1087 1050 1073 1064 1043 1139 1075 1050 1130 1081 1073 1123 1091 1060 987 984 1017 1134 1065 1026 1104 1095 1093 1054 1030 1076 1055 1061 1072 1046 1036 1039 1045 1033 1070 1078 1119 1050 1022 1154 1025 1010 1083 1067 955 1072 1033 1102 1050 1084 1109 1088 1040 1058 1016 1055 1084 1100 1032 1043 1058 1061 1059 1055 1083 1112 1088 1121 1041 1083 1113 1098 1121 1077 1096 1145 1100 1083 1127 1147 1135 1194 1146 1162 1148 1188 1178 1177 1120 1152 1129 1231 1107 1170 1127 1088 1122 1167 1137 1066 1083 1172 1100 1164 1108 1098 1103 1169 1127 1168 1183 1084 1121 1128 1099 1086 1119 1139 1079 1129 1118 1121 1104 1113 1098 1133 1144 1105 1073 1150 1101 1138 1027 1087 1118 1051 1072 1000 1049 1095 1049 996 1077 1100 1036 1042 1005 1031 1020 1050 1116 1017 1051 1039 1071 1123 1032 1030 1043 1021 1067 1075 1021 1087 1012 1093 1078 1108 1102 1095 1075 1042 1090 1076 1127 1043 1084 1132 1172 1164 1113 1067 1076 1089 1000 1103 1108 1164 1125 1089 1030 1089 1103 1114 1116 1093 1057 1057 1059 1015 1023 1057 1078 1031 1041 1059 1032 1012 1048 1050 980 1001 1093 1025 1004 958 993 1022 995 1074 985 993 1005 1018 1016 1038 1028 955 1056 986 1018 973 1058 988 1039 1000 953 1014 1060 1016 1042 1029 1029 1000 1009 1011 972 1030 978 1004 1028 1028 983 1082 1050 1031 1014 1037 1064 1002 1069 1000 1016 1044 1006 969 1027 943 990 1022 1051 1061 952 1044 1031 1011 1007 963 1012 956 1036 1033 986 949 1040 976 995 997 1014 1014 971 1024 980 965 989 918 1011 1029 1008 958 938 1007 944 941 984 998 977 1009 949 988 1018 980 1004 1026 925 985 1056 956 978 998 957 989 1015 993 997 1017 970 933 994 934 997 956 956 1026 974 992 975 1037 998 1032 980 977 1003 977 971 1056 1013 920 962 986 971 1002 987 938 1024 1001 930 968 1003 993 932 966 951 932 945 1028 979 1031 1010 984 956 954 970 1013 1010 926 949 959 946 909 994 996 1029 981 947 999 983 956 973 996 1013 987 911 946 1026 960 995 940 1042 939 971 993 977 990 970 1043 1016 892 1019 962 961 965 980 980 967 985 991 968 1005 999 1031 919 976 963 981 1003 941 954 935 951 979 991 981 1040 1016 986 945 968 933 982 952 941 990 952 918 981 962 935 1009 1005 950 1018 1005 978 999 988 1007 1043 977 958 988 962 940 952 1048 962 931 998 984 971 1028 962 1002 1020 986 989 976 968 962 1030 950 993 971 968 984 977 944 993 972 983 1000 997 1010 978 1015 1004 1007 936 974 1014 984 1000 981 960 989 969 985 966 1038 948 960 939 1023 950 956 959 961 998 955 949 939 974 934 991 954 910 998 963 976 975 1027 922 921 1017 985 992 1007 963 984 952 981 926 948 952 989 945 965 981 987 981 952 1037 917 997 985 967 994 972 910 944 987 971 998 956 981 932 944 949 914 960 1000 958 953 942 938 935 933 988 1007 1054 955 957 963 967 1015 994 964 961 962 976 974 992 979 964 954 954 953 958 917 929 961 958 987 962 981 970 954 925 981 958 943 983 880 951 899 896 967 917 955 977 1013 990 923 952 955 960 959 988 953 928 916 1002 988 1006 944 1008 930 934 1024 1001 959 1001 903 951 940 990 908 955 969 952 930 1001 998 968 1037 900 949 934 984 970 918 971 1020 971 971 994 1002 935 960 945 904 1008 937 942 982 991 965 924 944 936 959 940 988 926 982 944 962 973 957 941 957 961 981 947 965 987 976 926 941 972 957 1005 964 1036 1009 970 1008 1054 1013 972 1078 1018 1045 957 1054 1046 1023 1032 995 967 1020 1080 1049 1076 1030 1063 1091 1062 1008 988 1017 1020 1076 1059 1019 1029 1034 1011 1045 963 1022 1040 994 1058 976 1050 1025 1012 1078 1080 1054 1068 1127 1016 1071 1069 1114 1137 1107 1095 1133 1203 1129 1101 1188 1116 1133 1098 1165 1090 1129 1140 1099 1120 1061 1014 1012 1019 1007 1088 1062 1000 1090 997 1005 952 993 1059 973 1026 1005 989 992 911 947 948 888 930 927 885 951 1003 948 922 951 975 898 933 959 918 961 921 961 947 877 930 850 967 892 903 927 921 895 914 966 928 984 935 949 942 968 928 944 952 914 968 976 913 928 949 906 893 914 895 880 946 867 931 943 963 967 922 934 917 941 915 879 968 967 962 898 978 899 901 910 936 967 950 947 908 970 956 923 951 958 934 938 940 906 914 1006 957 949 923 931 925 950 903 940 888 886 992 978 982 967 881 934 907 953 933 993 945 939 982 928 993 954 892 909 936 987 970 935 935 984 932 936 952 953 965 962 973 935 928 934 981 941 966 943 1021 936 904 980 922 1028 885 971 864 951 917 907 915 954 911 1023 949 961 891 920 937 942 925 949 901 1005 974 903 905 900 917 1003 994 923 982 949 1013 910 990 1008 1031 996 1092 1037 1125 1058 1053 1116 1086 1160 1110 1169 1108 1196 1153 1161 1223 1164 1204 1191 1203 1169 1199 1149 1130 1186 1121 1131 1208 1139 1135 1101 1132 1116 1161 1134 1066 1110 1102 1068 1063 1070 1084 1024 1086 1067 1113 1127 1138 1137 1110 1078 1153 1240 1220 1255 1331 1255 1397 1310 1341 1392 1359 1299 1358 1319 1262 1207 1200 1159 1236 1215 1232 1176 1140 1241 1118 1155 1184 1134 1116 1078 1175 1069 991 1019 987 979 991 992 1039 943 944 957 988 919 942 950 891 930 1003 925 914 988 927 932 914 974 916 923 841 860 894 917 861 912 920 881 943 910 962 935 923 931 963 934 880 943 959 937 957 931 935 904 892 969 938 970 930 953 911 899 899 882 889 939 906 979 893 947 916 904 896 974 967 917 898 957 898 921 897 942 940 963 953 909 922 882 923 915 918 940 941 946 904 877 906 916 887 930 971 934 980 964 910 933 895 921 913 910 913 900 916 937 942 962 960 929 954 933 976 918 949 923 964 963 996 986 947 948 998 947 988 946 1000 954 1011 987 1040 1035 960 914 982 969 970 914 941 938 968 923 940 967 962 1005 960 950 959 970 918 928 951 940 955 963 943 881 947 933 904 899 948 940 962 949 974 979 942 949 954 900 1012 925 913 949 943 961 906 950 933 912 923 887 898 891 941 945 907 914 958 860 963 912 961 941 892 885 885 891 896 873 939 925 841 888 835 920 913 914 904 893 887 895 970 913 922 890 882 889 876 958 834 964 894 906 888 873 850 884 877 903 957 892 921 904 938 904 879 852 912 917 990 905 907 892 887 881 902 944 843 947 848 991 878 869 952 924 922 899 926 907 912 919 872 910 903 862 871 930 894 915 881 903 942 894 893 883 918 853 924 882 914 904 926 893 951 872 872 870 840 892 892 866 898 854 857 926 871 907 841 934 878 888 863 847 863 870 892 891 873 883 899 906 870 827 843 894 923 886 918 847 918 938 882 861 811 835 910 936 934 830 865 897 873 813 844 878 856 889 847 881 876 906 838 903 846 947 903 891 842 846 847 855 879 830 884 933 894 913 900 882 910 895 853 912 900 894 955 898 856 882 820 922 957 857 893 858 849 893 889 833 872 810 847 851 863 880 871 888 902 938 894 844 833 863 900 854 898 871 864 910 831 902 893 870 850 891 876 890 894 874 820 863 915 843 854 926 906 895 883 804 895 906 905 891 856 886 822 884 857 868 857 900 857 849 864 849 834 921 837 884 873 831 834 853 878 877 912 904 840 875 855 850 882 871 939 898 855 854 886 859 917 870 906 931 856 878 880 905 886 861 893 860 834 873 849 876 869 902 827 903 809 895 879 834 864 880 941 956 928 932 843 883 902 843 868 822 831 908 874 858 874 870 869 896 929 897 888 912 893 872 829 869 899 860 860 918 901 920 886 807 811 892 851 920 851 901 861 838 848 915 946 877 940 868 817 857 886 869 835 878 836 876 889 868 814 870 863 915 878 841 928 836 834 812 872 854 932 921 859 806 890 814 851 884 904 887 841 849 824 866 878 847 856 865 864 863 858 897 812 837 844 919 924 927 891 888 883 800 864 857 908 859 903 872 821 863 920 896 846 867 868 903 899 912 880 890 845 875 888 896 922 891 864 863 881 928 937 940 898 932 909 866 890 924 864 900 927 893 926 862 874 874 922 876 933 879 913 916 886 913 894 909 898 864 894 892 879 847 850 898 883 915 865 883 858 841 860 808 927 851 848 821 885 872 873 890 843 876 893 941 882 835 814 945 874 918 900 875 889 886 929 860 922 937 913 852 885 863 847 861 882 904 912 895 861 849 844 826 844 864 893 874 887 841 822 823 860 857 874 885 872 855 897 860 827 816 860 798 846 888 831 901 819 881 879 854 893 878 866 837 855 850 887 808 891 863 826 900 788 854 847 897 825 877 862 847 861 852 880 880 897 873 879 807 818 826 899 832 887 858 827 856 858 859 843 876 830 850 885 862 833 838 839 827 835 863 836 820 882 887 869 864 877 889 882 893 821 799 821 850 843 864 791 849 853 853 855 807 832 828 865 794 909 866 851 815 803 872 879 871 864 850 851 852 820 853 888 878 810 809 876 842 930 901 886 853 848 866 810 893 854 826 824 870 833 845 872 822 831 806 942 828 894 839 891 902 860 849 837 841 888 858 831 880 905 802 856 891 841 875 863 834 781 844 849 817 831 824 827 862 891 860 877 865 839 850 874 819 900 830 809 881 883 877 894 875 841 834 881 876 896 863 856 816 833 860 883 857 853 831 906 868 873 797 885 894 841 848 895 806 853 842 868 902 878 896 841 856 873 893 911 856 850 885 891 867 900 923 879 935 898 928 936 959 948 937 953 931 940 950 932 937 916 951 966 953 920 894 903 907 894 935 933 872 873 888 848 906 907 876 895 900 914 890 907 949 909 914 894 854 880 867 840 880 941 913 907 930 934 993 960 942 936 964 948 875 1013 1006 1005 988 933 919 983 962 979 947 966 950 965 961 939 926 962 937 908 876 930 923 942 952 907 899 941 924 934 967 904 919 850 904 813 891 864 972 915 880 850 902 901 916 828 852 853 891 850 895 823 892 843 887 816 849 821 901 868 876 859 830 875 865 866 840 812 855 843 845 825 840 868 902 855 881 866 883 851 886 842 816 883 799 926 862 837 860 803 859 890 874 872 877 851 838 886 806 810 851 870 867 844 870 814 867 814 839 865 849 819 851 823 899 828 841 885 804 805 860 878 822 844 802 874 848 891 847 865 860 801 876 858 880 841 794 858 869 872 846 812 830 814 877 870 911 826 838 876 820 859 836 832 883 877 841 847 803 873 861 867 805 860 832 878 859 845 838 846 864 857 820 781 856 891 878 872 854 843 847 863 853 797 841 899 823 832 825 862 840 856 844 810 844 836 820 861 842 821 813 838 861 844 937 825 866 910 822 852 812 858 905 847 839 834 871 783 858 807 849 886 752 798 863 839 903 852 856 844 863 848 860 816 801 841 903 902 883 813 825 858 861 908 841 833 866 864 811 861 875 866 862 857 846 873 878 889 820 875 838 862 808 833 798 821 939 851 822 848 874 889 886 853 835 819 811 794 801 912 789 856 890 819 870 864 807 884 879 851 824 864 825 837 834 811 834 851 871 843 813 841 850 848 792 832 851 760 734 794 807 815 826 881 891 848 876 843 830 850 838 821 825 835 830 864 863 782 888 837 843 796 883 848 879 835 806 851 850 840 874 828 871 854 831 836 814 859 875 837 815 821 852 855 809 814 857 853 869 846 889 867 896 854 901 828 858 876 841 876 781 871 867 886 870 872 797 907 755 838 813 809 835 846 872 842 819 808 825 850 856 891 805 794 855 839 816 793 848 829 819 855 773 839 859 835 835 828 834 794 865 841 820 870 850 850 770 797 822 812 861 806 858 885 801 827 862 802 914 862 837 885 843 836 837 826 804 869 816 803 850 846 794 822 892 818 830 817 828 829 815 845 824 848 779 836 867 842 832 828 821 873 844 888 815 895 907 840 836 886 818 866 810 856 838 869 816 853 859 803 845 803 814 799 803 837 811 806 807 855 874 817 784 860 841 808 829 887 899 823 830 897 866 842 823 826 816 863 810 848 868 867 841 844 890 805 840 860 814 878 844 797 811 843 839 823 879 836 881 860 851 756 865 775 845 872 888 842 836 845 852 848 799 808 873 811 853 835 862 858 814 925 863 811 884 874 834 822 776 856 811 907 828 855 800 824 891 840 852 867 851 830 817 817 816 862 835 815 859 802 847 871 865 794 878 848 836 878 891 777 835 833 859 853 871 900 829 847 831 877 809 892 839 868 900 904 841 902 874 853 852 953 831 865 803 832 844 890 888 829 845 867 821 835 798 837 877 835 874 844 829 836 874 846 855 808 934 859 869 821 809 831 872 841 890 820 857 849 904 841 788 826 823 853 857 867 887 871 877 925 894 934 864 883 832 871 938 850 934 851 855 935 901 869 881 847 933 957 886 902 854 916 903 876 888 876 926 865 963 861 836 907 923 932 867 903 920 887 868 881 887 874 927 867 891 919 860 877 894 848 819 841 859 871 843 818 848 835 902 847 907 898 878 896 908 902 896 876 917 906 908 887 905 949 879 862 884 881 845 938 887 889 842 964 882 837 905 852 899 821 877 926 878 846 828 885 905 857 898 878 878 865 871 850 801 845 893 856 899 871 875 876 826 882 806 840 815 860 860 879 773 854 877 839 785 842 807 799 851 843 856 871 821 830 856 803 833 836 837 825 823 854 799 857 852 862 868 861 835 831 835 836 848 839 847 926 884 858 866 832 863 860 847 884 850 865 856 823 876 786 843 870 814 884 838 875 867 906 828 868 833 850 855 883 864 842 896 878 817 860 748 895 853 850 904 844 863 846 879 889 842 861 825 896 967 869 846 870 823 828 868 872 901 832 913 875 887 892 896 917 850 887 893 896 924 1009 951 935 1010 926 993 1009 922 925 974 958 950 981 941 1018 1026 961 984 1012 957 975 981 939 971 1044 980 1021 1006 1011 1036 957 960 1020 959 998 954 965 972 953 948 1027 902 978 906 908 963 1013 886 996 925 885 894 904 971 927 901 854 909 896 859 872 841 944 870 931 907 947 928 962 881 890 919 896 965 925 899 917 1000 932 954 957 1011 991 966 974 1008 1014 1005 927 1026 968 1011 985 1033 990 978 924 1005 979 950 984 956 947 998 972 918 934 935 923 989 986 948 957 887 940 897 935 940 884 834 922 908 887 870 876 892 856 826 902 903 789 887 824 890 886 807 857 855 865 861 817 850 843 805 841 830 875 796 840 848 835 849 807 863 884 845 808 825 841 855 865 791 848 852 846 807 839 896 786 853 828 891 840 851 878 876 848 861 848 867 817 796 791 833 854 861 866 840 882 862 805 933 913 887 829 839 849 857 820 839 834 908 851 839 889 840 847 857 849 871 870 848 934 845 909 866 821 860 855 871 832 855 909 903 848 839 815 885 866 865 858 833 857 843 911 842 855 823 812 882 831 858 880 861 837 920 868 815 859 841 916 866 824 821 854 847 870 816 899 888 858 815 801 825 855 869 849 797 819 850 856 878 822 794 778 862 837 809 802 788 802 836 856 816 810 813 808 842 871 893 809 848 821 805 839 792 796 869 827 842 859 855 870 902 842 812 837 828 843 883 779 759 850 836 819 869 826 830 832 823 821 854 833 835 844 799 842 826 850 782 784 801 837 800 867 823 787 825 779 832 826 768 849 812 777 796 836 838 812 827 780 797 784 866 815 808 804 832 825 857 834 823 815 829 808 841 854 830 818 819 778 842 823 843 807 837 750 837 780 830 831 806 811 785 833 790 839 796 799 780 815 779 759 800 825 770 817 809 819 775 790 795 857 788 830 768 818 830 856 847 842 786 805 830 832 803 762 842 835 795 763 796 828 831 796 818 792 808 787 801 840 748 766 868 817 815 800 854 768 780 751 816 875 750 841 887 810 757 821 819 805 865 806 876 820 788 815 791 876 834 786 805 871 806 872 759 836 829 785 828 804 809 860 843 768 814 780 815 818 814 769 813 770 805 793 784 819 830 777 834 838 769 821 821 789 749 785 821 817 820 780 840 858 801 828 757 787 836 821 776 818 812 796 854 817 816 766 794 807 823 840 812 852 804 779 789 829 882 778 800 832 788 755 724 835 806 785 778 778 801 813 816 792 804 816 762 845 805 844 772 843 813 811 758 810 830 789 816 809 792 865 779 846 794 845 794 841 761 862 825 813 784 783 829 783 845 838 846 841 776 879 806 810 858 872 799 772 829 815 805 796 838 776 792 791 828 797 811 840 800 844 815 797 827 790 808 808 762 810 812 806 807 814 814 774 756 811 831 806 813 810 814 773 833 834 749 783 806 832 829 774 840 810 820 775 841 785 803 782 771 817 799 854 740 783 857 840 826 809 809 834 793 849 832 808 812 821 870 808 851 782 818 828 837 826 829 805 766 787 809 827 804 846 867 880 852 842 817 877 833 791 828 847 789 807 844 804 827 742 828 796 811 773 873 803 776 843 779 779 789 778 823 832 857 777 826 836 834 819 820 785 801 735 801 802 812 808 820 778 762 813 849 774 803 818 793 783 862 833 847 821 794 745 833 836 852 842 828 836 819 842 887 793 821 819 842 830 810 859 820 808 817 837 805 820 795 848 845 799 822 825 843 807 815 781 807 815 808 777 783 819 814 782 788 796 834 822 821 827 817 783 847 823 785 796 790 793 784 769 773 755 812 837 779 771 870 740 813 767 784 848 817 858 780 815 852 802 808 812 777 787 873 770 797 812 799 864 795 811 781 827 791 817 814 817 774 839 806 790 756 839 824 809 773 814 806 846 748 822 833 802 791 801 812 780 770 775 766 798 831 828 857 821 816 739 853 771 782 812 837 788 869 791 824 846 770 781 831 852 819 762 820 817 754 781 764 858 835 787 819 806 791 795 788 788 782 808 886 770 773 763 763 810 828 824 839 835 803 817 807 776 804 803 837 822 805 801 781 828 779 841 819 860 876 834 815 811 782 805 833 821 837 818 797 824 817 830 851 840 809 805 831 825 853 825 863 848 851 836 907 909 909 852 868 884 895 904 925 914 913 861 867 900 864 843 866 872 869 882 863 904 876 849 878 898 896 905 858 865 846 858 931 880 838 858 881 828 867 871 866 849 880 863 855 878 853 781 840 822 891 872 884 854 886 857 826 802 865 875 854 850 860 836 830 831 781 829 838 855 810 766 866 856 815 840 864 819 884 904 866 883 870 860 876 893 869 824 811 887 899 874 880 911 894 891 905 928 872 892 875 856 955 875 853 869 905 831 782 883 875 830 840 864 879 786 871 828 840 911 862 848 898 804 826 920 845 797 861 853 893 837 856 851 823 830 860 798 803 790 813 815 807 786 815 818 806 856 785 773 790 812 836 799 846 732 777 820 805 758 801 840 770 780 833 801 815 765 830 750 812 789 793 803 802 791 833 790 785 794 762 802 770 806 804 771 816 803 814 781 764 829 849 789 801 791 818 760 839 837 785 799 810 803 814 785 751 772 823 811 814 799 844 831 789 882 827 822 816 830 791 787 828 804 807 829 821 843 776 775 771 806 812 792 818 811 769 781 765 813 774 777 793 811 781 798 829 844 759 833 738 812 806 784 831 786 785 768 795 830 810 831 835 863 809 824 779 815 764 829 818 842 818 765 761 756 793 761 822 830 789 808 779 779 772 841 815 789 809 721 819 817 799 791 753 809 843 756 774 772 816 855 843 847 804 791 739 798 765 811 801 850 791 808 772 845 787 806 748 810 805 776 802 772 855 788 782 760 754 773 773 798 749 768 847 829 803 845 780 784 820 804 805 768 779 796 802 850 772 797 798 845 804 824 772 733 803 819 785 826 763 766 769 801 758 784 812 806 813 816 759 785 809 774 789 792 827 788 799 810 755 787 787 766 805 772 753 759 798 775 818 805 834 785 784 826 776 791 727 794 726 835 793 800 788 804 783 791 767 821 770 844 756 746 736 768 758 833 749 750 775 824 823 807 815 750 727 770 775 775 783 758 791 812 757 788 775 803 806 824 803 769 777 790 745 766 789 810 784 772 742 823 795 855 815 828 777 747 777 803 811 807 844 770 768 810 810 755 834 754 796 824 763 828 774 753 812 788 752 811 798 774 784 840 806 817 782 779 810 797 777 771 806 782 795 782 810 785 851 776 829 821 794 824 759 731 758 785 770 754 753 782 763 804 792 798 788 789 806 751 827 850 792 768 732 817 760 737 841 801 745 758 752 811 790 803 761 822 809 731 802 798 773 814 733 817 803 797 794 791 801 785 768 782 775 773 770 782 742 742 785 819 755 746 779 798 821 777 714 794 782 792 795 749 771 778 817 797 764 779 814 780 743 793 789 749 820 771 758 813 749 764 814 766 807 778 801 801 786 792 799 774 790 750 834 770 801 790 779 800 790 800 803 807 797 779 816 770 846 738 793 775 746</counts>
			</dataPoints>
		</scan>
	</xrdMeasurement>
</xrdMeasurements>
