<?xml version="1.0"?>
<xrdMeasurements xmlns="http://www.xrdml.com/XRDMeasurement/2.3" xmlns:xsi="http://www.w3.org/2001/XMLSchema-instance" xsi:schemaLocation="http://www.xrdml.com/XRDMeasurement/2.3 http://www.xrdml.com/XRDMeasurement/2.3/XRDMeasurement.xsd" status="Completed" recordIdentifier="{8480A2FC-E995-46D1-AA35-709460522ACE}">
	<comment>
		<entry/>
	</comment>
	<sample type="To be analyzed">
		<id>GPSS_Li1p8Co0p4Fe0p4Sc0p2Cl4_121825_6943d914f4d05ae3d69790ac</id>
		<name></name>
		<preparedBy></preparedBy>
	</sample>
	<xrdMeasurement measurementType="Scan" status="Completed" sampleMode="Reflection">
		<usedWavelength intended="K-Alpha 1">
			<kAlpha1 unit="Angstrom">1.5405980</kAlpha1>
			<kAlpha2 unit="Angstrom">1.5444260</kAlpha2>
			<kBeta unit="Angstrom">1.3922500</kBeta>
			<ratioKAlpha2KAlpha1>0.5000</ratioKAlpha2KAlpha1>
		</usedWavelength>
		<incidentBeamPath>
			<radius unit="mm">145.00</radius>
			<xRayTube id="1010048" name="Empyrean Cu LFF HR (9430 033 7310x)">
				<tension unit="kV">40.0</tension>
				<current unit="mA">15.0</current>
				<anodeMaterial>Cu</anodeMaterial>
				<focus type="Line">
					<length unit="mm">12.0</length>
					<width unit="mm">0.4</width>
					<takeOffAngle unit="deg">6.0</takeOffAngle>
				</focus>
			</xRayTube>
			<sollerSlit id="21010002" name="Soller slits 0.04 rad.">
				<opening unit="rad">0.0400</opening>
			</sollerSlit>
			<mask id="22031000" name="Fixed mask 13 mm">
				<width unit="mm">9.00</width>
			</mask>
			<divergenceSlit id="22120001" name="Divergence slit 1°" xsi:type="fixedDivergenceSlitType">
				<distanceToSample unit="mm">50.00</distanceToSample>
				<height unit="mm">1.52</height>
			</divergenceSlit>
		</incidentBeamPath>
		<sampleMovement xsi:type="spinningSampleMovementType">
			<spinnerRevolutionTime unit="seconds">1.0</spinnerRevolutionTime>
		</sampleMovement>
		<diffractedBeamPath>
			<radius unit="mm">145.00</radius>
			<antiScatterSlit id="22090040" name="AS slit 9 mm (PIXcel)" xsi:type="fixedAntiScatterSlitType">
				<height unit="mm">9.00</height>
			</antiScatterSlit>
			<sollerSlit id="21020003" name="Large Soller slits 0.04 rad.">
				<opening unit="rad">0.0400</opening>
			</sollerSlit>
			<filter id="20030001" name="Large beta-filter Nickel">
				<material>Ni</material>
				<thickness unit="mm">0.020</thickness>
			</filter>
			<detector id="7010019" name="PIXcel1D-Medipix3 detector" xsi:type="rtmsDetectorType">
				<phd unit="keV">
					<lowerLevel>4.02</lowerLevel>
					<upperLevel>11.27</upperLevel>
				</phd>
				<mode>Scanning</mode>
				<activeLength unit="deg">5.542</activeLength>
			</detector>
		</diffractedBeamPath>
		<scan appendNumber="0" mode="Continuous" scanAxis="Gonio" status="Completed">
			<header>
				<startTimeStamp>2025-12-22T13:12:13-08:00</startTimeStamp>
				<endTimeStamp>2025-12-22T13:20:20-08:00</endTimeStamp>
				<author>
					<name>AutomatedUser</name>
				</author>
				<source>
					<applicationSoftware version="1.7b (136)">PANalytical Aeris Instrument Suite</applicationSoftware>
					<instrumentControlSoftware version="3.2.00000000 20240306">AERIS</instrumentControlSoftware>
					<instrumentID>950485</instrumentID>
				</source>
			</header>
			<dataPoints>
				<positions axis="2Theta" unit="deg">
					<startPosition>10.00943322</startPosition>
					<endPosition>99.99442286</endPosition>
				</positions>
				<positions axis="Omega" unit="deg">
					<startPosition>5.00471661</startPosition>
					<endPosition>49.99721143</endPosition>
				</positions>
				<commonCountingTime unit="seconds">12.495</commonCountingTime>
				<counts unit="counts">3552 3646 3623 3544 3497 3600 3499 3663 3581 3704 3586 3683 3578 3580 3636 3634 3559 3569 3600 3711 3698 3623 3656 3679 3640 3700 3713 3713 3745 3707 3684 3716 3732 3762 3629 3706 3692 3739 3693 3835 3793 3776 3778 3745 3996 3818 3942 3736 3704 3910 3872 3912 3885 3838 3873 3826 3852 3989 3936 3869 3914 3868 3953 3977 3887 3827 3913 3878 3981 4047 3979 4072 4027 4097 4029 4098 3996 4094 4161 4236 4061 4130 4070 4138 4171 4060 4151 4066 4111 3993 4096 4108 4149 4133 4147 4114 4075 3999 4096 4043 4013 4068 3962 3983 3900 4020 4044 3986 3886 4106 3877 3976 3901 3984 3964 4008 3979 3998 4006 3910 4107 3907 3887 4045 3864 3940 3943 3931 3845 3894 3934 3871 3930 3843 4032 3873 3932 3854 4025 4038 3933 3891 3899 3946 3900 3938 3930 3964 3871 4074 3938 3867 4055 3868 3902 3908 3987 4047 4023 3933 4092 3899 4007 3961 3894 3993 4038 3966 4028 3983 3937 3976 4056 3886 3909 3903 4008 3797 3996 3919 3907 3950 4003 3986 4020 3926 3852 4003 3990 3967 3906 3953 3896 3852 3927 4080 3912 4029 4090 4004 3918 3987 3912 3965 4014 3936 3889 3953 3932 3882 3976 3921 3875 3914 3918 3941 3963 3836 3925 3954 3991 3949 3931 3958 3960 3944 3903 4064 3919 3943 3843 3838 4005 3894 3940 3956 3971 3887 3965 3872 3953 3964 3963 3902 3921 3924 3883 4017 3979 3766 3970 3873 3875 3852 3892 3950 3960 3896 3872 3876 3852 3855 3785 3939 3853 4049 3867 3942 3900 3875 3910 3851 3909 3852 3928 3843 3805 3867 3955 3889 3940 3968 3847 3901 3977 3917 3996 4030 4003 3954 4091 3897 4009 3891 3998 4011 3961 3959 3929 3997 3908 3896 4044 3978 3930 4045 3955 4011 3955 4106 3874 3981 4097 3998 3932 3978 4018 3934 4067 3879 4079 4048 4028 4014 4161 4016 4211 4087 4009 3922 4078 3964 4248 3982 4074 4039 4187 4194 4099 4026 4211 4180 4137 4130 4083 4121 4112 4189 4210 4201 4212 4164 4288 4099 4220 4044 4229 4224 4172 4241 4263 4269 4235 4281 4218 4272 4263 4305 4146 4252 4376 4397 4266 4305 4180 4295 4189 4327 4328 4349 4445 4298 4515 4273 4446 4362 4436 4435 4412 4318 4427 4272 4393 4432 4391 4442 4461 4400 4378 4517 4472 4412 4584 4498 4607 4493 4483 4413 4445 4585 4602 4586 4616 4637 4655 4614 4692 4773 4729 4615 4829 4770 4807 4899 4828 4904 4883 4936 4902 4955 5081 5066 5105 5225 5280 5559 5386 5660 5689 5941 5840 6149 6202 6286 6522 6550 6629 6788 6811 6762 6829 6645 6792 6905 6695 6749 6855 6756 6809 6690 6571 6885 6767 6849 6832 6856 6930 6937 6945 7007 6794 6832 6923 6941 6567 6418 6321 6043 5802 5515 5300 5196 4989 4925 4714 4663 4682 4607 4487 4431 4505 4463 4428 4456 4375 4423 4400 4437 4418 4415 4323 4295 4466 4314 4489 4289 4322 4241 4324 4271 4315 4310 4237 4235 4314 4226 4303 4174 4363 4180 4163 4200 4239 4246 4187 4162 4128 4139 4175 4156 4158 4191 4270 4157 4174 4141 4170 4156 4231 4091 4086 4139 4086 4197 4130 4139 4088 3916 4053 4129 4312 4063 4101 4188 4124 4052 4113 3960 4136 4001 4025 4012 4039 3998 4091 4017 4018 4024 4131 4093 3972 4013 4137 4021 4038 4007 4097 3926 3947 3942 4060 4033 4021 3920 4087 4002 3979 3985 4107 4035 3877 4041 3974 3849 4100 4024 3997 3896 4054 3998 3968 3967 3829 3991 3923 3998 4008 3939 4045 3953 3988 3944 4020 3885 3961 3987 3957 3929 3986 3964 3956 3989 4022 4074 3933 4086 3915 3981 4018 3934 3979 4057 3958 4009 4035 4002 4032 4068 4146 4045 3931 4087 3976 4153 4102 4038 4238 4049 4319 4119 4327 4228 4214 4275 4290 4362 4346 4234 4326 4217 4361 4316 4238 4199 4234 4283 4215 4168 4021 4262 4096 4177 4266 4166 4200 4302 4285 4142 4117 4101 4094 4081 4022 4112 4117 3948 4116 4022 4015 3965 4032 3948 3881 3890 3935 3905 3814 3798 3910 3833 3939 3954 3903 3826 3891 3958 3886 3934 3840 3920 3879 3887 3978 3835 3917 3811 3855 3835 3821 3922 3840 3834 3912 3813 3805 3904 3961 3772 3924 3936 3897 3804 3916 3955 3925 3957 3853 3798 3789 3873 3821 3887 3830 3775 3767 3869 3933 3843 3818 3917 3754 3794 3893 3960 3896 3740 3892 3874 3941 3777 3760 3777 3871 3827 3805 3814 3878 3787 3828 3796 3856 3838 3844 3817 3684 3771 3800 3829 3825 3833 3735 3783 3808 3912 3882 3921 3718 3767 3868 3796 3819 3797 3794 3803 3754 3849 3849 3782 3895 3753 3746 3810 3755 3689 3780 3857 3720 3735 3804 3796 3768 3813 3696 3809 3724 3767 3744 3829 3798 3605 3748 3633 3903 3825 3838 3749 3716 3759 3794 3862 3815 3806 3866 3746 3714 3837 3776 3736 3743 3754 3864 3769 3826 3681 3770 3672 3767 3767 3745 3740 3769 3755 3750 3894 3761 3762 3778 3844 3671 3789 3829 3737 3607 3786 3651 3716 3835 3838 3779 3611 3689 3714 3660 3781 3712 3707 3678 3541 3641 3766 3665 3698 3680 3748 3670 3677 3741 3732 3725 3798 3609 3633 3719 3753 3682 3702 3662 3764 3728 3772 3816 3643 3708 3671 3788 3660 3692 3562 3868 3569 3759 3686 3600 3651 3717 3721 3623 3637 3662 3672 3604 3684 3534 3615 3612 3667 3511 3695 3592 3612 3607 3759 3679 3639 3576 3676 3667 3678 3689 3682 3582 3675 3688 3621 3750 3604 3617 3575 3671 3670 3698 3545 3796 3680 3670 3615 3552 3645 3631 3599 3690 3551 3672 3633 3615 3560 3543 3579 3621 3642 3519 3715 3625 3691 3655 3614 3662 3663 3615 3656 3579 3606 3745 3555 3721 3589 3659 3630 3586 3608 3640 3620 3522 3686 3672 3682 3691 3607 3612 3634 3641 3679 3612 3697 3606 3578 3599 3677 3735 3662 3622 3632 3575 3661 3554 3761 3575 3688 3592 3577 3630 3627 3591 3593 3716 3554 3704 3611 3577 3760 3560 3736 3543 3739 3574 3715 3594 3578 3650 3657 3625 3731 3651 3695 3606 3797 3706 3664 3711 3718 3666 3688 3729 3587 3598 3638 3758 3709 3674 3569 3694 3666 3624 3587 3623 3671 3617 3540 3731 3701 3587 3725 3726 3665 3649 3569 3595 3658 3686 3724 3663 3683 3595 3593 3687 3699 3728 3619 3595 3604 3683 3647 3628 3706 3693 3721 3686 3808 3692 3641 3550 3665 3677 3549 3622 3653 3604 3640 3622 3657 3658 3719 3671 3738 3726 3746 3586 3592 3607 3637 3643 3575 3662 3529 3583 3564 3677 3689 3737 3632 3703 3562 3627 3506 3667 3585 3649 3474 3711 3524 3660 3693 3532 3607 3611 3528 3710 3512 3625 3460 3517 3576 3541 3530 3590 3706 3586 3618 3595 3578 3489 3605 3538 3448 3456 3544 3646 3578 3590 3362 3533 3426 3465 3430 3514 3426 3556 3460 3565 3556 3529 3442 3390 3416 3440 3447 3421 3402 3355 3363 3488 3531 3397 3448 3423 3545 3473 3368 3261 3412 3422 3499 3394 3436 3400 3399 3218 3414 3424 3328 3341 3427 3294 3330 3420 3271 3322 3289 3377 3271 3345 3358 3378 3273 3406 3235 3243 3317 3335 3256 3378 3196 3288 3266 3282 3261 3264 3270 3261 3187 3326 3219 3247 3237 3344 3307 3264 3237 3252 3322 3197 3228 3182 3242 3220 3233 3256 3257 3265 3146 3248 3247 3158 3276 3215 3196 3135 3305 3249 3128 3145 3203 3118 3209 3106 3189 3142 3286 3365 3164 3213 3224 3230 3055 3247 3303 3274 3167 3123 3064 3071 3231 3092 3155 3127 3149 3132 3107 3048 3145 3154 3077 3238 3137 3029 3200 3215 3089 3194 3135 3119 3162 3248 3124 3318 3182 3177 3196 3205 3218 3291 3097 3256 3269 3367 3430 3297 3466 3387 3471 3487 3442 3517 3397 3541 3440 3451 3434 3452 3436 3439 3568 3478 3460 3503 3358 3350 3292 3309 3381 3326 3403 3332 3481 3370 3418 3271 3372 3386 3408 3428 3299 3214 3263 3186 3137 3169 3120 3208 3100 3188 3160 3142 3149 3124 3108 3144 3082 3183 3118 3108 3122 3162 3102 3068 3140 3099 3184 3148 3137 3179 3093 3125 3026 3055 3140 3114 3092 3175 3122 3180 3169 3095 3174 3151 2986 3025 3031 3160 3264 3053 3110 3038 3078 3139 3136 3097 3041 3011 3023 3082 3072 3002 3171 3038 3024 3062 3164 3177 3163 3157 3092 3136 3025 3076 3104 3185 3141 3082 3088 3126 3123 3037 2981 3104 3044 3078 3115 3122 3059 3078 3100 3223 3127 3133 3100 3148 2929 3010 2930 3065 3102 3023 3088 2940 3133 3119 3073 3179 3134 3058 3101 3074 3097 3107 3107 3122 3092 3171 3045 3054 3246 3090 3144 3042 3148 3062 3081 3037 3059 3156 3056 3140 3098 3150 3059 3106 3152 3018 3138 3016 3027 3156 3165 2994 3021 3057 3072 2994 3033 3085 3055 3119 3099 2972 3142 3041 3035 3103 3164 3089 2978 3021 3064 3004 3025 3157 2944 3022 3049 3030 3052 3045 3072 3034 3021 3092 3138 3175 2983 3051 3016 3058 3006 3006 2866 2999 2984 3040 3008 3067 3012 2955 3088 2902 3049 2990 3018 3064 3027 2992 2983 2895 3069 2962 2953 2897 2949 3004 2916 3008 2977 2888 3038 3037 2998 2944 2941 3034 2988 2859 2984 2922 3073 2979 2906 2882 2914 2849 2927 2867 2877 2772 2923 2862 2875 2920 2948 2866 2827 2900 2923 2879 2981 2934 2761 2780 2908 2868 2803 2836 2887 2860 2850 2840 2853 2908 2860 2846 2831 2824 2882 2839 2868 2730 2787 2913 2817 2844 2846 2822 2846 2823 2757 2766 2835 2763 2880 2855 2832 2870 2829 2771 2701 2708 2836 2827 2806 2773 2820 2743 2749 2762 2789 2801 2839 2732 2815 2770 2683 2729 2792 2762 2785 2759 2839 2670 2798 2800 2773 2842 2832 2754 2720 2769 2797 2701 2764 2787 2726 2747 2691 2793 2777 2746 2750 2791 2866 2720 2855 2721 2781 2741 2793 2814 2819 2807 2860 2925 2913 2924 3016 2901 2845 2980 2962 2979 2967 2976 3027 3126 3131 3105 3193 3167 3357 3223 3300 3258 3461 3376 3457 3525 3582 3550 3584 3634 3727 3656 3660 3764 3700 3778 3661 3674 3725 3556 3743 3543 3531 3525 3456 3406 3473 3407 3337 3321 3289 3213 3269 3151 3272 3198 3092 3100 3027 3027 3056 3043 3003 2918 2904 2959 2793 2983 2846 2875 2859 2749 2806 2707 2764 2714 2721 2752 2703 2680 2695 2714 2687 2687 2679 2653 2718 2759 2802 2726 2733 2690 2668 2600 2624 2669 2689 2664 2653 2691 2752 2643 2572 2729 2636 2658 2659 2648 2615 2669 2732 2691 2703 2713 2768 2771 2674 2748 2720 2697 2780 2832 2792 2965 2880 2877 3013 3129 3125 3107 3261 3376 3548 3550 3608 3782 3822 4005 4053 4244 4190 4407 4569 4727 4761 4746 4967 4935 4782 4918 4941 4905 4704 4815 4823 4762 4672 4558 4528 4432 4407 4386 4203 4312 4132 4073 4039 3935 3826 3814 3751 3530 3643 3539 3379 3344 3335 3188 3188 3037 3037 3018 2830 2908 2758 2805 2745 2770 2728 2633 2710 2588 2646 2658 2657 2561 2618 2584 2499 2636 2544 2537 2526 2553 2504 2656 2598 2543 2618 2646 2449 2622 2557 2480 2572 2542 2417 2493 2536 2575 2530 2512 2412 2581 2594 2521 2525 2555 2510 2497 2525 2617 2610 2460 2480 2525 2486 2511 2604 2424 2444 2534 2569 2491 2478 2490 2522 2499 2443 2547 2451 2530 2508 2467 2527 2564 2554 2580 2489 2525 2508 2531 2513 2408 2460 2552 2478 2580 2462 2516 2529 2488 2502 2472 2541 2574 2558 2549 2559 2548 2558 2435 2531 2507 2473 2499 2584 2527 2573 2609 2484 2463 2496 2520 2546 2473 2523 2497 2497 2539 2523 2553 2455 2601 2472 2454 2491 2549 2486 2542 2552 2617 2456 2461 2504 2455 2556 2484 2460 2405 2452 2518 2443 2529 2558 2513 2464 2493 2316 2453 2492 2515 2479 2513 2491 2445 2593 2488 2514 2557 2481 2503 2446 2417 2504 2503 2453 2523 2431 2500 2426 2442 2484 2556 2523 2468 2461 2382 2416 2485 2459 2463 2470 2459 2504 2463 2499 2463 2411 2419 2405 2461 2440 2493 2495 2389 2467 2429 2560 2342 2491 2363 2442 2466 2386 2415 2457 2436 2420 2408 2387 2422 2377 2365 2396 2404 2535 2469 2453 2519 2464 2353 2360 2456 2413 2394 2478 2416 2446 2498 2356 2465 2441 2469 2395 2444 2444 2420 2426 2462 2431 2369 2346 2381 2419 2349 2437 2333 2415 2379 2484 2451 2389 2381 2335 2428 2404 2480 2462 2417 2470 2400 2422 2452 2403 2518 2466 2473 2440 2399 2533 2440 2365 2425 2375 2276 2423 2386 2397 2429 2527 2459 2560 2478 2372 2462 2372 2494 2467 2508 2450 2369 2381 2447 2427 2386 2501 2409 2525 2390 2587 2426 2419 2436 2528 2460 2582 2494 2391 2422 2466 2524 2480 2542 2413 2482 2564 2471 2543 2554 2514 2487 2416 2542 2555 2581 2478 2577 2584 2522 2563 2613 2511 2516 2515 2540 2649 2543 2619 2566 2500 2620 2563 2507 2560 2581 2532 2515 2574 2588 2512 2602 2615 2676 2627 2655 2755 2768 2628 2759 2769 2650 2752 2786 2880 2829 2876 2922 2962 3081 3093 3129 3124 3304 3390 3448 3625 3753 3764 3901 3991 3931 4163 4332 4547 4547 4797 4627 4897 4854 4954 4916 5199 5042 5335 5341 5451 5444 5637 5581 5823 5774 5968 5959 6382 6329 6576 6689 6911 6945 7343 7182 7623 7387 7499 7725 7701 7436 7446 7395 7399 7274 7012 6993 6918 6682 6513 6277 6133 5955 5858 5629 5464 5328 5239 4891 4723 4735 4515 4408 4376 4204 4036 3909 3804 3650 3591 3571 3457 3340 3244 3163 3099 2966 2893 2818 2761 2794 2741 2670 2629 2599 2642 2653 2560 2521 2575 2481 2426 2539 2447 2347 2523 2402 2483 2419 2424 2472 2554 2412 2288 2464 2424 2442 2477 2441 2425 2407 2345 2353 2451 2492 2390 2472 2432 2436 2440 2401 2347 2330 2438 2375 2322 2336 2369 2428 2360 2451 2318 2389 2347 2364 2337 2332 2383 2314 2331 2397 2394 2386 2424 2346 2367 2323 2369 2369 2438 2420 2396 2392 2361 2346 2332 2389 2306 2430 2371 2374 2314 2355 2203 2329 2388 2449 2392 2346 2364 2334 2405 2436 2380 2434 2393 2415 2345 2344 2392 2299 2394 2368 2344 2311 2446 2376 2221 2357 2325 2337 2270 2265 2303 2356 2342 2301 2401 2420 2332 2338 2296 2355 2388 2359 2420 2381 2277 2355 2345 2284 2354 2335 2292 2367 2360 2350 2348 2377 2328 2274 2285 2380 2464 2375 2271 2306 2329 2360 2344 2331 2317 2267 2245 2312 2386 2308 2386 2284 2358 2305 2335 2183 2367 2269 2411 2377 2353 2308 2302 2307 2275 2362 2261 2279 2276 2279 2306 2375 2274 2320 2251 2300 2196 2233 2262 2304 2346 2280 2286 2338 2353 2348 2241 2345 2319 2337 2306 2309 2330 2266 2403 2371 2210 2327 2310 2302 2305 2288 2291 2270 2302 2322 2392 2277 2374 2335 2296 2294 2325 2379 2302 2334 2301 2300 2318 2270 2427 2296 2388 2299 2352 2368 2399 2337 2304 2402 2441 2387 2489 2427 2401 2498 2471 2485 2504 2518 2504 2631 2540 2567 2522 2529 2506 2410 2445 2424 2530 2537 2491 2470 2470 2510 2451 2485 2391 2532 2393 2437 2318 2429 2400 2383 2284 2397 2340 2387 2379 2304 2304 2359 2283 2336 2407 2334 2338 2373 2302 2330 2302 2237 2289 2261 2367 2327 2322 2277 2308 2269 2244 2304 2305 2300 2298 2249 2231 2229 2266 2314 2256 2212 2233 2199 2280 2310 2259 2231 2340 2295 2258 2255 2323 2289 2333 2251 2376 2305 2285 2298 2336 2271 2326 2233 2228 2354 2358 2345 2362 2416 2405 2473 2392 2365 2452 2483 2487 2477 2553 2496 2503 2506 2457 2476 2458 2551 2419 2465 2532 2427 2458 2430 2409 2394 2419 2531 2314 2391 2344 2389 2333 2396 2394 2352 2443 2318 2341 2304 2331 2296 2298 2379 2312 2322 2321 2252 2314 2325 2281 2180 2186 2236 2262 2227 2209 2257 2240 2282 2216 2277 2173 2268 2220 2388 2284 2254 2173 2198 2238 2293 2197 2279 2245 2225 2265 2301 2243 2322 2301 2299 2301 2313 2311 2266 2238 2135 2275 2260 2219 2286 2263 2342 2300 2253 2176 2219 2350 2186 2253 2302 2209 2207 2233 2200 2181 2280 2257 2156 2218 2152 2240 2211 2247 2281 2238 2268 2254 2229 2226 2191 2330 2217 2243 2293 2261 2231 2236 2255 2315 2282 2231 2274 2173 2268 2204 2261 2205 2192 2296 2257 2260 2267 2334 2187 2289 2290 2264 2285 2185 2170 2215 2219 2195 2244 2229 2209 2300 2212 2237 2244 2247 2213 2196 2304 2323 2312 2224 2200 2181 2252 2312 2275 2286 2300 2144 2218 2214 2305 2267 2291 2266 2213 2250 2361 2255 2237 2261 2205 2152 2220 2159 2200 2212 2275 2161 2213 2187 2332 2212 2216 2218 2124 2291 2199 2240 2281 2219 2332 2209 2208 2285 2205 2267 2131 2296 2184 2249 2256 2224 2266 2243 2215 2318 2181 2284 2242 2269 2344 2319 2188 2209 2281 2191 2243 2100 2219 2253 2185 2278 2202 2187 2234 2328 2268 2264 2276 2235 2196 2290 2162 2295 2243 2281 2198 2257 2203 2271 2176 2184 2239 2258 2205 2223 2209 2183 2147 2175 2266 2136 2219 2156 2357 2147 2168 2153 2167 2307 2167 2228 2248 2208 2205 2201 2199 2234 2142 2230 2166 2234 2174 2317 2229 2279 2297 2316 2233 2246 2258 2193 2251 2186 2265 2180 2210 2208 2180 2293 2272 2200 2184 2286 2270 2187 2159 2177 2204 2265 2227 2188 2201 2272 2232 2177 2236 2177 2232 2167 2208 2144 2236 2212 2240 2183 2244 2200 2290 2296 2185 2260 2353 2252 2306 2303 2289 2320 2430 2321 2283 2342 2312 2278 2300 2273 2388 2389 2362 2353 2377 2340 2313 2318 2295 2349 2347 2300 2283 2279 2299 2284 2234 2346 2217 2339 2213 2272 2278 2295 2275 2286 2360 2323 2173 2228 2228 2269 2165 2254 2252 2230 2220 2218 2263 2174 2264 2225 2231 2212 2271 2194 2140 2253 2206 2223 2185 2185 2169 2241 2199 2249 2254 2127 2186 2227 2185 2156 2202 2307 2184 2244 2198 2129 2178 2207 2118 2208 2186 2147 2254 2184 2189 2222 2218 2189 2181 2166 2254 2195 2081 2185 2185 2252 2147 2249 2087 2212 2231 2072 2199 2246 2155 2179 2198 2262 2268 2250 2219 2192 2230 2198 2197 2161 2217 2168 2249 2221 2098 2209 2138 2142 2195 2248 2194 2174 2155 2197 2158 2249 2300 2205 2190 2241 2146 2162 2078 2122 2177 2197 2203 2264 2195 2167 2204 2178 2149 2132 2278 2204 2209 2200 2149 2246 2240 2186 2251 2264 2144 2181 2192 2192 2211 2239 2154 2240 2217 2159 2241 2140 2177 2118 2238 2218 2213 2115 2169 2174 2169 2233 2249 2277 2152 2204 2192 2203 2168 2179 2192 2193 2224 2159 2155 2189 2177 2172 2169 2145 2157 2188 2176 2162 2150 2189 2207 2186 2217 2246 2249 2200 2237 2222 2186 2249 2266 2166 2178 2250 2146 2221 2196 2209 2219 2230 2213 2200 2284 2312 2238 2337 2318 2309 2325 2291 2296 2458 2279 2432 2433 2330 2334 2327 2366 2403 2416 2446 2465 2505 2503 2449 2451 2493 2536 2398 2456 2499 2445 2619 2452 2554 2550 2550 2566 2623 2476 2600 2545 2537 2526 2610 2573 2612 2777 2638 2695 2716 2686 2616 2781 2674 2804 2768 2764 2804 2654 2737 2777 2723 2754 2608 2668 2631 2662 2476 2494 2479 2430 2506 2537 2401 2356 2462 2432 2417 2473 2335 2280 2249 2346 2342 2335 2393 2293 2228 2253 2264 2231 2236 2302 2219 2216 2284 2185 2141 2169 2205 2181 2250 2251 2159 2234 2176 2197 2206 2280 2193 2120 2150 2115 2186 2121 2179 2143 2194 2180 2274 2122 2251 2187 2211 2159 2205 2231 2157 2201 2236 2151 2144 2191 2202 2179 2245 2147 2174 2199 2207 2174 2101 2173 2181 2211 2166 2146 2128 2146 2149 2202 2184 2117 2119 2175 2150 2224 2138 2219 2210 2237 2215 2179 2126 2171 2224 2123 2244 2219 2121 2203 2116 2111 2196 2180 2244 2141 2156 2174 2244 2095 2146 2118 2149 2151 2121 2074 2172 2175 2069 2090 2173 2134 2325 2157 2121 2192 2189 2192 2149 2244 2152 2062 2083 2141 2155 2147 2169 2141 2145 2177 2245 2146 2176 2149 2127 2239 2130 2260 2224 2175 2133 2193 2206 2091 2155 2129 2214 2215 2071 2128 2187 2172 2208 2187 2156 2136 2260 2111 2078 2154 2103 2122 2122 2170 2169 2095 2151 2152 2176 2210 2200 2100 2113 2276 2195 2167 2247 2214 2207 2200 2154 2139 2136 2160 2149 2198 2207 2162 2181 2233 2235 2212 2168 2182 2153 2176 2204 2232 2213 2172 2208 2193 2161 2208 2274 2276 2165 2130 2152 2267 2197 2208 2192 2154 2169 2072 2074 2149 2108 2131 2207 2162 2214 2237 2236 2126 2118 2139 2151 2270 2244 2245 2221 2192 2158 2261 2194 2230 2089 2167 2236 2174 2122 2212 2215 2164 2254 2269 2121 2227 2180 2266 2167 2144 2236 2221 2204 2248 2215 2162 2109 2163 2296 2154 2180 2155 2251 2208 2147 2090 2188 2172 2239 2069 2241 2168 2188 2195 2243 2171 2252 2199 2228 2274 2179 2217 2274 2175 2154 2131 2164 2174 2200 2187 2209 2168 2219 2118 2272 2186 2228 2253 2188 2266 2254 2270 2273 2334 2202 2227 2247 2318 2299 2180 2270 2232 2248 2273 2292 2367 2254 2378 2322 2447 2413 2419 2417 2448 2365 2506 2442 2561 2623 2679 2716 2700 2769 2839 2795 3068 3093 2984 3115 3366 3409 3539 3630 3818 3883 3860 3977 3959 4212 4278 4363 4407 4365 4505 4546 4579 4669 4589 4584 4676 4628 4667 4590 4703 4593 4438 4527 4434 4251 4458 4269 4192 4145 4176 4155 3998 3901 3933 3775 3688 3619 3591 3492 3505 3471 3290 3294 3246 3154 3190 3132 2999 2966 2883 2883 2806 2762 2789 2664 2716 2605 2623 2567 2545 2462 2530 2346 2383 2381 2480 2336 2447 2354 2341 2288 2297 2290 2321 2249 2204 2259 2252 2307 2134 2174 2183 2285 2146 2229 2151 2147 2217 2171 2284 2173 2225 2273 2264 2136 2227 2214 2141 2160 2191 2198 2147 2227 2134 2204 2164 2311 2153 2143 2145 2146 2166 2105 2191 2181 2161 2092 2132 2126 2168 2114 2139 2176 2120 2162 2155 2064 2199 2204 2164 2266 2148 2136 2086 2131 2136 2138 2129 2266 2165 2176 2238 2083 2116 2078 2185 2089 2126 2179 2046 2160 2066 2164 2126 2096 2042 2116 2162 2139 2133 2193 2136 2135 2168 2190 2176 2118 2237 2114 2080 2164 2155 2100 2233 2096 2174 2165 2180 2217 2171 2173 2043 2143 2155 2194 2053 2163 2284 2182 2143 2207 2152 2177 2192 2122 2168 2119 2161 2138 2237 2215 2223 2223 2208 2227 2205 2159 2306 2304 2177 2381 2200 2326 2299 2344 2255 2306 2340 2353 2306 2379 2273 2412 2399 2368 2364 2435 2372 2359 2519 2495 2390 2540 2467 2509 2479 2427 2475 2466 2567 2489 2380 2539 2418 2484 2441 2472 2443 2468 2483 2457 2496 2471 2469 2502 2504 2489 2525 2589 2476 2442 2401 2392 2349 2390 2388 2363 2338 2386 2350 2344 2364 2348 2387 2262 2284 2307 2332 2292 2240 2333 2248 2331 2253 2227 2233 2239 2246 2200 2196 2222 2293 2283 2187 2226 2251 2215 2169 2317 2223 2239 2207 2166 2131 2265 2090 2257 2208 2268 2227 2232 2207 2231 2172 2227 2167 2155 2169 2190 2231 2137 2158 2263 2269 2159 2253 2170 2187 2202 2213 2157 2226 2183 2227 2088 2185 2138 2175 2172 2113 2232 2156 2085 2253 2094 2156 2176 2089 2143 2163 2143 2134 2158 2129 2145 2135 2187 2063 2078 2164 2182 2118 2157 2132 2104 2069 2072 2092 2122 2124 2099 2161 2090 2131 2086 2186 2044 2116 2137 2095 2097 2226 2177 2088 2088 2229 2044 2029 2110 2060 2082 2085 2083 2108 2010 2070 2109 2098 2121 2136 2097 2024 2172 2100 2107 2103 2234 2108 2203 2168 2146 2147 2075 2126 2140 2120 2025 2153 2102 2099 2150 2106 2155 2114 2076 2053 2115 2174 2095 2128 2038 2160 2041 2136 2087 2129 2104 2108 2186 2094 2093 2075 2110 2174 2047 2085 2157 2141 2047 2134 2068 2077 2096 2196 2158 2085 2059 2137 2060 2036 2035 2091 2059 2086 2100 2143 2079 2164 2082 2126 2083 2084 2121 2044 2033 2161 2177 2069 2055 2056 2087 2138 2063 2187 2046 2093 2067 2089 2078 2063 2068 2040 2099 2103 2131 2022 2137 2132 2103 2068 2076 2180 2064 2091 2159 2073 2048 2051 2126 2012 2092 2084 2058 2021 2085 2118 2066 2120 2132 2110 2164 2156 2095 2044 2185 2044 2165 2170 2171 2062 2067 2024 2126 2024 2144 2190 2051 2080 2140 2045 2076 2090 2083 2049 2104 2129 2017 2128 2122 2123 2089 2073 2070 2167 2125 2113 2154 2074 2059 2126 2109 2103 2111 2103 2108 2104 2067 2104 2044 2062 2099 2073 2116 2030 2200 2089 2036 2157 2120 2033 2043 2053 2082 2077 2099 2083 2192 2108 2044 2100 2066 2116 2132 2134 2121 2187 2034 2092 2185 2107 2140 2152 2148 2139 2054 2087 2140 2174 2126 2122 2198 2116 2105 2129 2150 2149 2050 2200 2123 2172 2057 2150 2193 2189 2042 2029 2109 2217 2168 2140 2174 2049 2150 2173 2086 2179 2061 2064 2147 2142 2163 2140 2131 2113 2023 2085 1994 2084 2129 2162 2107 2111 2090 1989 2040 2034 2091 2099 2125 2047 2012 2015 2087 1983 2029 2067 2146 2081 2095 2150 2144 2149 2081 2125 2033 2162 2106 1999 2125 2082 2068 2126 2141 2118 2019 2090 2088 2091 2128 1984 2057 2039 2007 2066 2154 2063 2107 2095 2057 2082 2037 2080 2111 2116 2088 2086 2026 2097 2125 2167 2062 2070 2100 2007 2098 2075 2107 2107 2080 2137 2106 2002 2053 2066 2038 2069 2099 2032 2012 2062 2058 2119 2117 2054 2153 2167 2043 2031 2151 2100 2042 2097 2047 2115 2074 2106 2038 2141 2136 2020 2081 2114 2138 2083 2066 2075 2065 2128 2094 2113 2051 2128 2135 2136 2128 2106 2032 2066 2135 2188 2091 2031 2014 2040 2081 2150 2116 2059 2108 2124 2103 2066 2151 2042 2098 2125 2126 2122 2193 2188 2097 2079 2182 2162 2194 2158 2119 2140 2092 2160 2145 2134 2118 2090 2168 2162 2243 2133 2190 2146 2110 2209 2054 2127 2123 2148 2142 2164 2194 2169 2220 2140 2262 2096 2104 2112 2206 2198 2115 2182 2160 2207 2186 2238 2168 2164 2113 2109 2179 2150 2234 2105 2124 2195 2166 2177 2110 2185 2127 2259 2271 2236 2186 2216 2213 2285 2289 2257 2213 2285 2284 2215 2180 2255 2209 2288 2307 2239 2280 2203 2273 2227 2326 2229 2283 2257 2357 2294 2306 2363 2285 2323 2254 2263 2344 2395 2311 2334 2371 2239 2442 2318 2334 2366 2354 2288 2262 2335 2346 2358 2351 2294 2441 2242 2275 2219 2253 2351 2250 2300 2249 2343 2280 2194 2265 2300 2259 2215 2222 2188 2171 2153 2107 2163 2209 2095 2030 2126 2129 2146 2217 1998 2162 2021 2076 2101 2101 2110 2112 2096 2120 2095 2202 2083 2009 1977 2161 2075 2121 2135 2186 2096 2097 2117 2044 2119 2020 2105 2080 2104 2086 2080 2108 2092 2097 2129 2126 2014 2066 2074 2050 2040 2077 2070 2076 2054 2002 2071 2051 2086 2004 2084 2055 2052 2163 2041 1971 2140 2069 1992 2039 2084 2088 2087 2079 2121 2043 2109 2090 2089 2031 2095 1995 2024 2077 2066 2079 2114 2057 2085 2078 2063 2029 2045 2086 2125 2100 1992 2061 2157 2076 2101 2099 2009 2082 2102 2081 2104 2130 2112 2067 1991 2072 2060 2035 2069 2114 2188 2021 2029 2164 2062 2107 2134 2088 2003 2196 2077 1979 2121 2073 2041 2036 2168 2033 2012 2048 2096 2031 2079 2087 2121 2028 2056 2008 2129 2032 2055 2056 2111 2101 2080 2143 2045 2023 2082 2033 2058 2041 2131 2070 2053 2090 2093 2065 2126 2029 2028 2034 2027 2106 2101 2053 2077 2054 2170 2039 2101 2151 2052 2086 2119 2169 2132 2149 2121 2110 2077 2149 2135 2079 2200 2183 2157 2185 2195 2143 2225 2174 2068 2245 2186 2188 2136 2227 2259 2279 2289 2228 2344 2283 2273 2429 2456 2371 2379 2481 2461 2501 2490 2504 2511 2603 2723 2599 2683 2654 2739 2800 2792 2767 2810 2814 2862 2861 2861 2826 2761 2896 2823 2832 2762 2807 2804 2817 2694 2737 2757 2756 2706 2679 2628 2620 2524 2621 2521 2550 2561 2386 2550 2354 2412 2401 2470 2372 2370 2332 2370 2396 2388 2265 2247 2360 2270 2186 2242 2205 2160 2135 2182 2200 2224 2106 2173 2136 2084 2145 2072 2100 2082 2109 2134 2164 2082 2038 2073 2065 2087 2100 2111 1999 2191 2108 2172 2110 2129 2110 2069 1970 2076 2152 1954 2103 1988 2032 2131 2063 2037 2038 2061 2073 2109 2133 2095 2063 2078 2031 2092 2090 2053 2148 2022 2033 2154 2032 2063 2100 2111 2147 2040 1981 2038 2111 2020 2076 2105 2018 2047 2034 2124 2154 2026 2038 1981 2089 2039 2044 2108 2078 2037 2027 2054 2035 2130 2058 2068 2094 2112 1999 1972 2090 2049 1973 2066 2032 2068 2094 2052 2003 2066 2065 2077 2056 2091 2089 2099 2053 2170 2106 2051 2174 2042 2129 2089 2056 2040 2100 2065 2071 2062 2120 2188 2070 2227 2048 2147 2122 2131 2136 2107 2157 2165 2134 2128 2199 2208 2227 2200 2214 2232 2242 2211 2209 2232 2261 2243 2287 2242 2275 2239 2230 2267 2264 2321 2323 2303 2259 2251 2320 2207 2230 2281 2287 2275 2212 2247 2226 2181 2249 2145 2233 2219 2273 2257 2193 2197 2177 2138 2155 2156 2125 2205 2144 2128 2221 2153 2166 2073 2168 2199 2119 2129 2071 2135 2128 2171 2078 2161 2129 2156 2219 2158 2140 2139 2141 2169 2128 2102 2154 2140 2125 2116 2064 2061 2109 2152 2064 2081 2096 2095 2111 2005 2060 2117 2071 2144 2106 2131 2082 2012 2055 2046 2088 2055 2077 2087 2057 2060 2069 2126 2060 2027 2079 2092 2027 2147 2006 2006 2061 2037 2068 2137 2013 1996 2067 2075 2043 2024 2060 2100 2053 2019 2030 2153 2009 2103 2096 2052 2019 2077 2095 2083 1997 2030 2037 2079 1978 2071 2020 2083 2013 2067 2082 2031 2024 2017 1990 1968 1965 2011 1929 2091 1950 2038 2075 1987 2028 2023 2041 2036 1970 2057 2012 2036 2096 2093 2059 2094 2046 1997 2023 2039 1991 2098 2103 2106 2083 2069 2076 1988 1999 2046 1968 2046 2015 2048 2068 1997 2103 2008 1984 2082 2017 2041 2056 2023 2038 1971 2062 1989 2068 1992 2039 1921 2011 2136 1955 2066 2037 2008 2028 1970 2042 1975 1991 2052 1954 2095 2027 2008 2020 1961 2037 2049 2096 1994 2029 2050 1992 2121 2104 2074 2027 1988 2005 2091 1965 2041 1998 2029 2066 2024 2027 2058 1992 2063 2017 2040 2072 2098 1990 2042 2008 1952 2016 2028 2059 2020 2019 1911 1976 2057 2033 2084 2080 2044 2042 2035 2124 2029 2013 1999 1992 2073 2103 2121 2020 2016 2051 2071 2064 2072 2010 2067 2083 2059 2081 2014 2045 2046 2052 2075 2086 2105 2079 2043 2055 2042 2096 2104 2062 1976 1983 2036 1997 2041 2033 2079 1969 2059 2021 2028 2045 1987 1984 1982 2034 2051 2115 2017 2086 2077 2039 2096 2045 2035 2111 2118 2119 2034 2048 2067 2028 2109 2075 2063 2007 2118 2012 2127 2150 2012 2058 2095 2131 2084 2114 2003 2064 2054 2048 2082 2089 2013 2056 2039 2046 2088 2084 2025 2040 2052 2039 2054 2044 2039 2033 2029 2080 2054 1964 2102 2024 2059 2006 2098 2037 2040 2013 2059 1990 2029 2099 2034 2085 2048 2098 2036 2067 1952 2013 2109 1995 2014 2004 1987 2021 2030 2009 1999 2016 2006 2020 1989 2044 2066 2056 2076 2039 2018 2146 2016 1993 2054 2052 2029 2043 2066 2047 1996 1982 2034 2016 2047 2020 2028 2050 2045 1995 1947 2019 2010 2029 2007 1987 1998 1944 1985 2018 2047 2012 2007 2037 2022 1888 2008 1936 2013 2007 2009 2052 1969 2051 2028 1941 2094 1969 2103 1957 1986 2026 1988 1953 1943 2010 2000 2112 2046 2106 2033 1980 2049 1994 2134 2074 2026 2024 2025 1991 2016 2078 2049 1982 1974 2060 1983 2110 2062 2032 2015 2035 2053 2077 2125 2064 2066 2070 2128 2029 2180 2087 2118 2049 2025 2103 2074 2055 2122 2097 2123 2189 2086 2189 2153 2145 2041 2147 2116 2120 2095 2106 2101 2053 2181 2162 2109 2125 2238 2215 2151 2092 2139 2136 2175 2147 2172 2104 2118 2074 2079 2069 2109 2102 2142 2163 2022 2137 2041 2087 2072 2000 2120 2005 2095 1994 2042 2102 2139 2072 2079 2002 2033 2067 2027 2091 2103 2094 2043 2033 2080 2043 2036 2020 2023 2065 2038 2035 2038 2051 2033 2047 1965 2084 1966 2003 2029 2047 2024 2051 2052 2097 2093 2003 2001 1925 2030 1995 1964 2044 2068 2013 1977 2084 2086 1965 2144 2040 2060 2132 2014 2016 2103 2021 2048 1997 2032 1933 1987 2022 2037 2039 2001 2049 1912 1956 1967 2035 1967 1968 1963 1974 1961 2055 2053 2012 1977 2039 2035 2099 1991 2083 2038 2026 1965 2013 2002 1973 1978 2019 2092 2000 2072 2059 2064 2069 2069 2009 1978 2056 2018 2083 2049 2042 1918 2112 2015 2041 2074 2028 2073 2041 1963 2100 2011 2071 2044 1948 2048 1992 2001 2044 2075 2057 1873 2019 2012 2072 1958 1977 1920 2086 2064 2054 2023 1962 2038 2004 1928 2070 2031 2032 2088 2015 2002 1993 1959 2083 2077 1980 2046 2003 2097 1942 2011 2092 2046 1972 2024 2010 1996 1983 2017 2014 2054 1958 1946 1988 2018 2033 2014 2040 2100 2078 1970 1988 2050 1970 1925 2058 2082 2022 2114 1955 2039 2042 2128 2027 2004 2089 2109 1974 1999 1957 2051 2001 2095 2067 2074 2027 2003 2105 2065 1996 2100 2083 2003 2104 1978 1989 2047 2009 2061 2034 2039 2125 2117 2055 2059 2032 2163 2131 2108 2019 2068 2058 2019 2031 2142 2217 2021 2089 2083 2082 2066 2096 2210 2199 1998 2213 2133 2029 2151 2093 2205 2099 2184 2092 2110 2046 2081 1999 2085 2135 2044 2136 2078 2125 2078 2082 2036 2111 2010 2077 2128 2204 2092 2152 2043 2130 2151 2153 2148 2096 2120 2107 2114 2143 2113 2159 2138 2177 2149 2145 2158 2218 2145 2127 2247 2256 2221 2252 2269 2246 2138 2180 2204 2265 2230 2236 2253 2192 2245 2159 2260 2211 2135 2113 2134 2144 2167 2096 2164 2216 2203 2098 2241 2248 2204 2190 2084 2152 2170 2057 2123 2125 2161 2115 2095 2149 2106 2122 2024 2063 2044 2084 2168 2113 2106 2013 2101 2069 2129 2044 2002 1968 2069 2099 2028 2037 2026 1979 1970 2096 2078 2011 2048 2063 2055 2004 2042 2068 2002 1988 2025 2060 2029 1989 2061 2037 1985 1971 2059 2044 2011 2038 2004 2012 2111 2013 2032 1984 1993 2028 2082 1988 2066 2044 2016 2021 1963 1989 1962 2094 2099 1984 2074 2119 2011 2076 1938 2036 2042 2041 2041 2014 2031 1975 1959 2019 2053 2020 2028 2080 1966 2038 1996 2014 2057 1955 2028 2022 1960 2035 1999 2057 1978 2050 1999 2013 2011 2053 2029 2083 1932 1968 2036 1989 2041 1955 2006 2039 1967 2063 2006 1991 2067 2038 2042 1987 1995 2124 2082 1986 2010 1978 1987 2044 2029 2064 2042 1977 2029 2017 2014 2032 1990 2043 1984 2012 2025 2046 1953 2008 1986 2118 2000 2078 2089 1991 2012 2019 2022 2058 1992 2047 2039 1987 2059 1987 1972 1971 1993 2031 1974 2008 2020 2040 2037 2003 1990 2074 2031 2044 2030 1949 2044 2010 1996 1985 2080 2081 2045 2020 2102 2010 2094 2114 2005 2069 2084 2037 2107 2072 2063 2039 1962 2054 2042 2070 1991 1963 2131 2030 1996 2017 2013 1988 2122 2025 2005 2066 2027 1995 2085 1954 1967 2009 2087 2119 1986 1985 1986 2020 2037 2069 2061 2011 2000 1989 2021 2000 2139 1938 1964 2142 2031 2010 1968 1971 2044 2107 1958 2015 1961 1997 2042 2045 2084 2036 1936 2043 1959 1963 1941 1988 1996 2004 2021 1992 2018 2040 2016 2002 1941 1995 1994 1990 2020 2056 2037 1975 2035 1968 2091 1938 2010 2078 1967 1988 1942 2011 2069 1981 2027 1982 2016 2046 2042 2044 1925 1974 1956 2005 2064 1976 2051 2029 1965 2034 2024 1976 2046 2019 1985 2026 2011 2013 2057 1985 1930 2009 2043 1906 2079 2054 2000 1958 1931 1962 2006 1976 2037 2001 2076 1984 1938 2052 1997 1910 1974 1928 1965 1937 2053 2019 2087 1974 2000 2061 1963 2052 1989 1996 2072 1943 2092 2024 2038 1988 2092 2037 2000 2008 2004 1967 2023 2059 2013 2029 1984 2102 1997 2008 2012 2001 2058 2047 2060 2059 1983 2006 2034 1943 2043 1980 2019 1944 2123 2019 2101 1938 1953 2050 1957 2041 1943 2027 2062 1994 2048 1960 2017 1948 2102 2002 2045 2027 1982 2094 2035 1987 1974 1935 1945 1997 2117 1891 1993 2063 2008 2076 2076 1974 2011 2025 2011 2060 2012 2014 2015 2030 2070 2008 1991 2047 1986 1977 2065 2037 2046 2076 2007 2035 2004 1927 2036 2040 1990 2005 1994 2077 2102 2028 1975 1954 2041 2015 1959 2022 2096 2018 2069 2013 2077 2014 2077 2009 2019 2018 2091 1997 2018 2048 1931 2041 2041 1978 1995 2004 2028 1955 1977 2048 1914 1974 1988 2083 2006 2001 2011 1994 2046 2040 1995 1979 1998 2047 1922 2010 1971 1942 2085 2024 2062 1996 1980 2008 1978 2036 2022 2053 1892 1937 1986 1969 1991 2036 2094 2034 1973 1992 2018 2018 2046 1955 2046 2011 2040 2080 1983 2027 2017 2033 2053 2007 1923 2005 1944 1981 2009 2054 2046 2004 2044 2001 1968 1988 2135 2005 2057 2126 2099 1951 2020 1918 2023 1976 2034 2018 1973 2041 1933 2029 2099 1991 1992 2035 2101 1995 2071 2064 1992 2013 1980 1965 2048 2033 2080 2044 2065 2009 2055 2013 2000 2013 2022 2069 1972 2090 2006 2118 2010 1992 2011 2055 2108 1954 2017 2027 2028 2019 2015 2058 2128 2004 2038 2071 2045 2093 2101 2154 2024 2105 2015 2155 2122 2113 2095 2131 2177 2073 2120 2109 2061 2096 2086 2079 2107 2099 2138 2032 2084 2136 2100 2069 2101 2107 1988 2159 2008 2110 2104 2029 2106 2090 2151 2057 2160 2103 2069 2112 2090 2029 2065 2053 2134 2091 2073 2176 2124 2122 2094 2191 2099 2019 2033 2132 2175 2163 2062 2136 2125 2096 2173 2102 2042 2012 2150 2069 2108 2098 2081 2135 2018 2080 2065 2175 2104 2108 2050 2058 2108 2054 2022 2103 2140 2137 2118 2180 2157 2134 2070 2093 2119 2058 2052 2070 2140 2092 2064 2084 2148 2040 2097 2075 2076 2025 2133 2031 2093 2022 2068 2102 2073 2074 2073 2024 2058 2120 2068 2066 2029 2034 2051 2075 2040 2120 2070 2128 2041 2010 1994 2098 2045 2037 2016 1962 2115 2061 2028 2052 2102 2038 2012 2009 2070 1999 2066 1999 2030 2008 2111 1974 2095 2032 1971 2012 2053 2027 2009 1984 2022 2050 1984 2017 2017 1955 1974 2063 1951 2072 2045 2079 2026 2019 2102 1948 2014 2019 2030 2019 2038 2008 1973 1996 1986 2061 2008 1994 2056 2033 2012 1935 1950 1985 2040 2057 1981 2017 2065 1988 2077 2035 2044 2027 2024 2135 2000 2010 2064 1981 2104 2003 2015 1938 2057 2054 2055 1985 2116 2064 2019 1967 2133 1984 2009 2037 2072 1990 2075 2086 2035 2069 2050 2056 2128 2014 2085 2060 2048 2082 2068 1991 2135 2045 2079 2096 2147 2099 2107 2149 2131 2169 2111 2134 2095 2239 2059 2203 2169 2129 2167 2192 2172 2179 2226 2204 2283 2170 2164 2281 2194 2225 2179 2227 2238 2155 2266 2220 2214 2203 2273 2232 2158 2277 2232 2236 2256 2277 2313 2269 2308 2218 2265 2152 2261 2244 2337 2332 2302 2267 2296 2241 2406 2260 2284 2293 2322 2375 2353 2314 2258 2371 2310 2410 2348 2364 2399 2359 2393 2448 2456 2375 2357 2379 2384 2380 2405 2389 2472 2383 2379 2342 2463 2375 2279 2410 2360 2425 2431 2326 2376 2384 2372 2440 2338 2405 2287 2395 2232 2289 2355 2293 2342 2258 2347 2259 2298 2267 2229 2227 2175 2334 2262 2304 2218 2191 2235 2224 2136 2197 2122 2136 2098 2146 2202 2103 2101 2100 2090 2124 2091 2118 2168 2099 2088 2063 2030 2056 2109 2076 2116 2060 2130 2151 2066 2011 2100 2087 2060 2054 2022 2129 2001 2029 2088 2085 2064 2077 2093 1967 2081 2009 2108 2069 2036 2027 2099 2016 2079 2046 1992 2114 2003 2049 1969 2056 2076 1998 2011 2084 2018 2079 2008 2078 1999 2047 1992 2006 2076 2029 1989 2086 2106 2080 2047 2029 2105 2052 2070 2013 2024 2069 2159 2000 2085 2016 2043 2091 2096 2021 2079 1998 2082 1989 2080 2118 2043 2101 2049 2103 2122 2074 2012 2097 2026 2046 2031 2070 1970 1988 1965 2078 2007 2107 2121 2002 2010 1984 2071 2021 2109 2021 2013 1957 2044 2100 2069 2090 2071 2030 2052 2066 2085 2078 2100 2129 2061 2063 2087 2140 2113 2102 2027 2082 2049 2080 2089 2083 2047 2002 2004 2090 2014 2001 2047 2025 2061 2038 2035 2069 2077 2059 2118 2030 2069 2071 2040 2094 2019 2075 1948 1982 2014 1965 2035 2053 2049 2053 2008 1964 1984 1983 2074 2103 2071 2040 2017 2051 2033 2040 2046 2019 2036 2056 2088 1994 1997 2115 2038 1927 2078 1989 1963 2048 2005 2036 2032 2057 1963 2047 2090 1998 2043 1969 2080 2025 1995 2039 1993 1957 2053 1923 2001 2016 1945 1984 1981 1959 1985 1969 2058 1987 1993 2042 2044 2020 2006 2003 1989 1997 1967 2041 2000 2107 1971 1949 2014 2061 2042 2078 2024 2013 1975 1978 2006 2007 2018 2027 2093 2031 2034 1989 2007 1995 1946 1894 1979 1985 1954 1980 1934 2110 2093 2003 1996 1923 2061 1907 2047 2038 1966 2018 2037 2026 2032 1998 2083 2027 1994 2009 1970 1991 2075 1978 2045 1984 2067 2036 1911 2021 2061 2062 2032 1956 2021 2039 1993 2052 1951 2033 2002 2050 2062 2001 1928 2037 1942 2068 1945 1884 2002 2102 2041 2042 2110 2055 2039 2036 1999 1972 2024 1973 1979 1970 2074 2046 2029 1994 1914 2000 1977 2123 1957 1994 2038 2049 2012 1988 1969 1984 1975 1999 2039 2049 2059 2003 2042 2013 1974 1990 2006 2076 1967 1986 2065 2083 2014 1973 1996 2053 2010 2087 2040 2024 1992 2003 2134 2024 2068 2071 1937 1992 2087 2010 2020 2018 1983 2008 2059 1982 2028 1968 2070 2022 1969 2094 2044 1936 1984 2015 2020 2014 1967 1978 2085 1939 1985 1989 1999 1960 1942 1959 1974 1994 2072 1994 2016 2022 1955 2081 2015 2037 2039 2026 1952 2013 2059 2047 1942 2027 2090 2026 1995 2024 2063 2000 1998 2062 2060 2118 2011 2059 2007 2006 1913 1997 2041 1959 1951 2026 2057 2057 1918 2065 1959 2068 2029 2010 2090 2050 2061 1991 1963 2047 1951 1968 1987 1888 2019 1957 2131 1947 1978 2037 2029 1951 2015 1997 2078 2018 2006 2047 1991 2041 2044 2102 2005 1914 2057 2088 1901 1996 1913 2135 2064 2068 2086 2115 2004 2030 1998 2041 1986 1923 1983 2018 2022 1967 2012 2008 2126 1984 2022 2059 2002 2083 1937 1974 2014 2043 2009 2076 1953 2158 2020 2120 2011 1981 2057 2026 1969 1998 2076 1975 1993 1990 2012 2096 2059 1972 1982 2027 2061 1969 2003 1994 1986 1978 2020 2017 2044 1994 2036 2051 2053 2031 1999 2025 2056 2013 1953 2056 2062 2019 2011 2053 2054 2003 2075 2001 2030 2002 2098 1999 2075 2009 2050 2116 1978 2009 2022 2021 2048 2043 2040 2054 2003 2085 1993 2098 2085 2022 2082 2061 2025 2052 2019 2052 2051 2097 1966 2105 2070 2004 2029 2014 2040 2028 1979 2039 2071 2040 2017 2130 2119 2009 2093 2022 2072 2130 1985 2059 2136 1982 2084 1995 2050 2010 2022 2006 2017 1965 2053 2078 2041 1918 2087 2033 1999 2082 2063 2008 2132 1990 2123 2053 1988 2039 2010 2084 2043 2010 2078 1995 2003 2057 2020 2027 1988 1982 2047 1992 2065 1917 2099 2008 2012 2030 1949 2097 2002 2039 2046 2012 2005 1984 1966 1978 1950 2046 2017 2005 1988 1935 1992 1956 2018 2008 2016 1972 1994 2010 1940 2031 1976 2025 1975 2077 1993 2008 2131 1974 1945 2004 2012 2024 2036 2041 2010 1979 2098 1966 2005 2022 1988 1938 1946 1984 2064 2015 2054 2089 1986 2007 2059 2006 1961 2007 2003 1988 2057 1976 1952 1977 2037 1986 2048 2039 2003 2007 1978 2002 2059 2075 1968 1989 1929 2054 1928 2020 1960 2005 1965 2008 2022 1950 2048 2055 2053 1964 2010 2038 2017 2052 2066 1982 1999 1996 2045 2003 2044 1995 1995 2001 2083 2030 2012 1932 2000 2003 1985 1950 2150 2010 1978 2036 2073 2003 2083 2052 1957 2005 2020 2075 2022 2000 1966 2098 2086 2050 2025 2049 2117 2012 2037 2039 2020 2014 2038 2017 2001 2025 1995 2041 2020 2056 1999 2121 2017 1975 1973 2120 2066 2043 2048 2053 2058 2117 2027 1999 2044 2041 2101 2054 2123 2081 2070 2056 2152 2111 2174 2123 2098 2066 2199 2080 2119 2141 2185 2144 2098 2153 2161 2101 2184 2078 2185 2103 2171 2084 2126 2205 2166 2174 2200 2293 2200 2171 2190 2157 2235 2145 2200 2236 2275 2136 2213 2183 2165 2267 2250 2213 2206 2244 2174 2280 2320 2268 2258 2269 2330 2244 2244 2306 2276 2248 2264 2344 2290 2263 2266 2291 2257 2253 2210 2197 2339 2364 2181 2256 2348 2267 2260 2298 2258 2296 2216 2201 2343 2306 2246 2177 2265 2255 2267 2191 2163 2184 2257 2198 2197 2237 2183 2129 2226 2177 2234 2205 2170 2142 2188 2211 2139 2140 2149 2122 2082 2114 2173 2134 2156 2109 2044 2129 2089 2082 2148 2011 2058 2046 2031 2145 2053 1976 2079 2102 2026 2103 2045 2043 2045 2128 1984 2038 1991 2039 1924 2132 2077 2078 2063 2039 2050 2008 2089 2072 2017 2043 2004 2032 1967 2060 2029 1986 2030 2003 2035 2029 1964 2021 1981 1984 2042 2003 2037 2001 2010 1981 2006 1993 1966 1984 2017 2007 2103 2018 2041 1968 2064 2001 1973 1956 1999 2070 2051 1988 2063 2092 2035 1960 2084 2046 2060 2037 2041 1974 2067 1971 2011 2075 1991 2096 2103 2018 2063 1946 2000 2072 2056 2046 2050 2022 2046 2008 2027 2033 2074 2063 1921 1995 2042 2040 1998 2045 2054 2050 2066 2015 2029 2028 1981 2017 2026 2070 1957 2084 2001 2040 2072 2018 2053 2063 2058 2012 2041 1982 1933 1991 1995 1994 1985 2070 2014 1948 2124 2146 2022 2044 1990 2023 2065 2032 1992 2024 2058 1989 2065 2006 2083 2032 1994 1982 2012 2030 2092 2022 2011 2009 2047 1974 2021 2096 2073 1996 1988 1998 2103 2082 1944 2018 1962 1944 2067 2036 2030 2011 2047 2075 2036 1944 2017 1998 2022 2049 1970 2033 2001 2095 2018 1977 2020 2031 2088 2117 2022 1953 2070 2081 2038 2007 2019 2043 1938 2003 2077 1966 2008 1975 2021 2013 2015 1987 1996 2010 2017 2040 2092 2104 2006 1978 2043 2032 2009 2024 2037 2011 2068 2033 1939 1961 2034 2036 1996 2053 2052 1917 1968 1992 2035 1955 2051 2014 2010 1990 2019 1898 2046 1971 1950 1986 1951 2007 2045 1942 1922 1989 2023 1980 1935 2048 2026 1983 2001 2089 1936 2016 2094 1947 2003 2044 2030 2040 1989 2020 2055 2051 2034 1957 2005 2005 1952 1975 1923 1994 1916 1945 1984 2042 1965 2024 1946 1897 1982 1921 2040 1977 1998 2110 2014 2027 1943 2035 2011 2022 2024 2025 1993 2041 2032 2015 2050 2079 1951 2088 2072 2038 2001 1946 1989 2107 1951 1965 1978 1968 2017 1965 1908 1954 2080 1965 2068 2013 2015 2032 2019 2085 2024 1997 2074 2040 2026 1974 2037 2017 2070 2013 1993 1922 2071 2011 2002 1953 2096 2008 1986 2049 1974 2059 1989 1997 1997 2020 1991 2044 1996 2042 1976 2033 2038 1992 1976 1962 2043 1961 2019 2016 2005 2049 1918 1965 2053 2012 1953 1982 2022 2018 2039 1938 2003 1969 2040 2063 1969 1951 1961 2032 1992 2012 2014 2037 2057 2018 1965 1962 2008 2014 1993 2016 2005 1966 1974 1985 2016 2034 1954 2093 1926 2045 2046 1965 2019 1955 1986 2008 2037 1966 2014 2006 2084 1962 2044 2021 2083 2039 2065 2048 1953 2008 2047 2014 1952 2051 1982 2007 2101 2034</counts>
			</dataPoints>
		</scan>
	</xrdMeasurement>
</xrdMeasurements>
