<?xml version="1.0"?>
<xrdMeasurements xmlns="http://www.xrdml.com/XRDMeasurement/2.3" xmlns:xsi="http://www.w3.org/2001/XMLSchema-instance" xsi:schemaLocation="http://www.xrdml.com/XRDMeasurement/2.3 http://www.xrdml.com/XRDMeasurement/2.3/XRDMeasurement.xsd" status="Completed" recordIdentifier="{4EA0F30F-19CA-4315-A0DE-795A11BD4B83}">
	<comment>
		<entry/>
	</comment>
	<sample type="To be analyzed">
		<id>GPSS_Li1p9Fe0p9In0p1Cl4_110625_690d9f07f040177efa2b78eb</id>
		<name></name>
		<preparedBy></preparedBy>
	</sample>
	<xrdMeasurement measurementType="Scan" status="Completed" sampleMode="Reflection">
		<usedWavelength intended="K-Alpha 1">
			<kAlpha1 unit="Angstrom">1.5405980</kAlpha1>
			<kAlpha2 unit="Angstrom">1.5444260</kAlpha2>
			<kBeta unit="Angstrom">1.3922500</kBeta>
			<ratioKAlpha2KAlpha1>0.5000</ratioKAlpha2KAlpha1>
		</usedWavelength>
		<incidentBeamPath>
			<radius unit="mm">145.00</radius>
			<xRayTube id="1010048" name="Empyrean Cu LFF HR (9430 033 7310x)">
				<tension unit="kV">40.0</tension>
				<current unit="mA">15.0</current>
				<anodeMaterial>Cu</anodeMaterial>
				<focus type="Line">
					<length unit="mm">12.0</length>
					<width unit="mm">0.4</width>
					<takeOffAngle unit="deg">6.0</takeOffAngle>
				</focus>
			</xRayTube>
			<sollerSlit id="21010002" name="Soller slits 0.04 rad.">
				<opening unit="rad">0.0400</opening>
			</sollerSlit>
			<mask id="22031000" name="Fixed mask 13 mm">
				<width unit="mm">9.00</width>
			</mask>
			<divergenceSlit id="22120001" name="Divergence slit 1°" xsi:type="fixedDivergenceSlitType">
				<distanceToSample unit="mm">50.00</distanceToSample>
				<height unit="mm">1.52</height>
			</divergenceSlit>
		</incidentBeamPath>
		<sampleMovement xsi:type="spinningSampleMovementType">
			<spinnerRevolutionTime unit="seconds">1.0</spinnerRevolutionTime>
		</sampleMovement>
		<diffractedBeamPath>
			<radius unit="mm">145.00</radius>
			<antiScatterSlit id="22090040" name="AS slit 9 mm (PIXcel)" xsi:type="fixedAntiScatterSlitType">
				<height unit="mm">9.00</height>
			</antiScatterSlit>
			<sollerSlit id="21020003" name="Large Soller slits 0.04 rad.">
				<opening unit="rad">0.0400</opening>
			</sollerSlit>
			<filter id="20030001" name="Large beta-filter Nickel">
				<material>Ni</material>
				<thickness unit="mm">0.020</thickness>
			</filter>
			<detector id="7010019" name="PIXcel1D-Medipix3 detector" xsi:type="rtmsDetectorType">
				<phd unit="keV">
					<lowerLevel>4.02</lowerLevel>
					<upperLevel>11.27</upperLevel>
				</phd>
				<mode>Scanning</mode>
				<activeLength unit="deg">5.542</activeLength>
			</detector>
		</diffractedBeamPath>
		<scan appendNumber="0" mode="Continuous" scanAxis="Gonio" status="Completed">
			<header>
				<startTimeStamp>2025-11-08T15:27:41-08:00</startTimeStamp>
				<endTimeStamp>2025-11-08T15:35:48-08:00</endTimeStamp>
				<author>
					<name>AutomatedUser</name>
				</author>
				<source>
					<applicationSoftware version="1.7b (136)">PANalytical Aeris Instrument Suite</applicationSoftware>
					<instrumentControlSoftware version="3.2.00000000 20240306">AERIS</instrumentControlSoftware>
					<instrumentID>950485</instrumentID>
				</source>
			</header>
			<dataPoints>
				<positions axis="2Theta" unit="deg">
					<startPosition>10.00943322</startPosition>
					<endPosition>99.99442286</endPosition>
				</positions>
				<positions axis="Omega" unit="deg">
					<startPosition>5.00471661</startPosition>
					<endPosition>49.99721143</endPosition>
				</positions>
				<commonCountingTime unit="seconds">12.495</commonCountingTime>
				<counts unit="counts">3398 3445 3594 3506 3435 3470 3611 3519 3486 3538 3596 3583 3515 3465 3578 3580 3616 3434 3510 3545 3429 3534 3442 3406 3562 3523 3492 3480 3513 3477 3538 3450 3555 3379 3657 3434 3520 3679 3613 3570 3655 3487 3476 3497 3559 3523 3497 3521 3453 3497 3534 3460 3592 3425 3566 3456 3539 3615 3636 3606 3622 3569 3580 3431 3448 3482 3436 3530 3559 3570 3442 3600 3508 3617 3516 3497 3570 3462 3582 3600 3624 3643 3663 3600 3543 3662 3653 3610 3549 3553 3405 3530 3464 3582 3705 3530 3577 3562 3501 3594 3656 3544 3697 3550 3609 3638 3574 3627 3457 3654 3660 3605 3566 3530 3575 3617 3580 3549 3599 3576 3644 3653 3643 3702 3721 3577 3649 3746 3741 3662 3674 3591 3557 3663 3635 3707 3711 3732 3549 3546 3649 3567 3698 3794 3760 3621 3731 3633 3698 3552 3619 3611 3585 3557 3574 3670 3628 3678 3662 3661 3656 3556 3615 3776 3610 3675 3691 3628 3703 3615 3645 3679 3555 3587 3554 3623 3658 3796 3519 3682 3617 3627 3619 3673 3714 3672 3613 3688 3726 3656 3714 3607 3673 3633 3579 3638 3702 3649 3561 3609 3786 3555 3591 3717 3559 3643 3620 3662 3638 3667 3587 3606 3644 3716 3577 3749 3658 3705 3656 3663 3721 3763 3600 3765 3615 3723 3676 3663 3634 3689 3700 3741 3656 3740 3689 3494 3728 3677 3757 3632 3540 3673 3712 3722 3735 3690 3664 3667 3786 3618 3634 3572 3688 3673 3750 3698 3653 3618 3657 3684 3693 3665 3631 3567 3588 3721 3610 3703 3733 3757 3648 3740 3572 3666 3650 3605 3677 3656 3661 3774 3808 3664 3632 3639 3698 3720 3775 3714 3781 3634 3692 3778 3767 3693 3791 3610 3874 3800 3786 3754 3714 3654 3753 3800 3759 3871 3767 3809 3870 3920 3915 3869 3878 3798 3884 3899 3948 3837 3733 3795 3887 3890 3905 3869 3850 3954 3943 3898 3984 3912 3980 3925 4018 3953 3981 3784 4025 3971 4021 3972 4010 3998 3910 3965 3976 3921 4096 3904 4119 3974 4070 4152 3870 4132 4046 4032 4055 4017 3950 4138 4148 4098 4180 4105 4147 4082 4109 4131 4288 4030 4142 4201 4099 4115 4318 4248 4291 4300 4255 4348 4186 4182 4216 4270 4177 4258 4306 4370 4273 4359 4227 4274 4283 4402 4357 4333 4326 4227 4403 4461 4348 4487 4414 4381 4351 4392 4433 4378 4522 4489 4614 4587 4532 4393 4515 4612 4603 4760 4601 4557 4586 4794 4842 4708 4809 4808 4788 4941 4979 4988 5032 5255 5194 5279 5335 5322 5462 5557 5711 5862 5861 5988 6096 6272 6230 6423 6461 6447 6705 6675 6954 7079 7096 7318 7326 7295 7400 7623 7460 7511 7374 7271 7273 6874 6695 6416 6389 6139 6002 5753 5762 5381 5226 5093 5113 4987 4885 4993 4740 4818 4577 4710 4566 4667 4572 4540 4647 4569 4571 4535 4395 4635 4426 4632 4423 4621 4452 4409 4443 4414 4362 4537 4324 4381 4428 4308 4380 4336 4407 4247 4393 4288 4238 4326 4375 4395 4290 4357 4332 4331 4241 4236 4178 4264 4226 4210 4215 4226 4181 4264 4266 4190 4357 4446 4381 4075 4220 4228 4149 4138 4134 4172 4180 4160 4232 4206 4216 4190 4056 4107 4217 4210 4181 4214 4168 4119 4121 4074 4139 4173 4095 4108 4115 4141 4176 4207 4113 4066 4190 4263 4117 4304 4157 4106 4204 4235 4245 4197 4273 4255 4369 4361 4586 4550 4592 4718 4724 4624 4654 4571 4396 4307 4321 4413 4273 4229 4078 4094 4138 4116 4043 4054 4173 4064 4034 3962 4133 4006 3997 4080 4090 4006 4024 4080 3993 3968 4038 4045 3901 3909 4038 3876 3985 4025 4088 4001 3946 4055 4078 3912 4023 3997 4072 3981 3949 3932 3946 4059 4052 4006 3926 4006 4082 4036 3916 4084 4072 4167 3889 3881 3988 4134 4167 3924 3989 4118 3863 4028 3979 4031 4040 3952 4095 3833 4061 4105 4007 3999 4052 4066 4142 3957 4059 4194 4120 4067 4301 4069 4011 4056 4159 4072 4074 4015 4069 4056 4068 4008 4020 4052 4056 3975 4088 4002 4070 3909 4037 3987 3976 3979 3872 3794 4008 3964 3948 3846 3955 3931 3872 3889 3952 3921 3912 3922 3947 3752 3870 3978 4046 4015 3946 3942 3811 3849 3983 3943 3882 3804 3890 3972 3705 3972 3932 3825 3912 3921 3905 3894 3923 3906 3952 3918 3866 3939 3979 3792 3955 3848 3854 3891 3913 3983 3843 3827 3813 3833 3870 3810 3750 3976 3812 3818 3894 3852 3775 3922 3847 3878 3860 3894 4003 3857 3903 4005 3741 3812 3804 3905 3840 3982 3891 3929 3811 3844 3850 3839 3837 3866 3836 3877 3924 3793 3782 3797 3828 3816 3905 3883 3795 3913 3824 3867 3844 3878 3852 3778 3777 3889 3785 3914 3939 3823 3805 3852 3745 3906 3927 3848 3900 3931 3865 3892 3929 3898 3773 3940 3784 3888 3755 3915 3850 3795 3815 3822 3821 3797 3778 3787 3698 3777 3816 3874 3782 3736 3814 3835 3883 3908 3870 3875 3703 3706 3838 3777 3809 3896 3725 3756 3780 3864 3827 3855 3781 3820 3635 3859 3831 3772 3708 3811 3689 3793 3693 3725 3767 3858 3668 3773 3758 3773 3689 3760 3828 3824 3818 3694 3646 3684 3808 3798 3685 3848 3792 3736 3796 3703 3667 3719 3672 3669 3676 3625 3724 3803 3689 3862 3635 3686 3756 3733 3698 3707 3622 3700 3723 3651 3736 3701 3679 3630 3719 3613 3695 3651 3656 3667 3633 3730 3623 3659 3754 3602 3719 3697 3684 3605 3660 3811 3705 3681 3768 3691 3714 3707 3743 3626 3701 3719 3584 3629 3690 3636 3619 3766 3625 3619 3798 3521 3695 3586 3695 3605 3642 3611 3739 3697 3660 3582 3630 3656 3650 3695 3682 3558 3653 3660 3615 3689 3700 3634 3635 3578 3582 3747 3543 3616 3690 3668 3710 3797 3632 3664 3627 3671 3651 3704 3652 3617 3652 3711 3502 3614 3680 3658 3702 3560 3589 3643 3646 3645 3557 3631 3624 3542 3674 3578 3673 3668 3620 3713 3706 3639 3630 3529 3682 3577 3604 3655 3737 3596 3721 3540 3625 3739 3522 3658 3529 3522 3581 3561 3774 3562 3734 3699 3590 3681 3662 3763 3652 3475 3638 3714 3677 3656 3572 3641 3761 3760 3618 3532 3764 3715 3658 3694 3622 3653 3774 3610 3655 3527 3656 3730 3743 3659 3733 3683 3666 3722 3689 3641 3723 3694 3753 3608 3641 3582 3614 3709 3619 3694 3719 3632 3657 3674 3660 3665 3730 3701 3628 3593 3625 3643 3635 3621 3694 3649 3738 3667 3640 3741 3634 3697 3700 3655 3586 3686 3707 3663 3614 3668 3660 3615 3675 3579 3647 3517 3552 3596 3592 3651 3662 3656 3610 3580 3627 3547 3768 3490 3743 3641 3578 3630 3622 3512 3674 3598 3607 3608 3582 3716 3614 3516 3522 3474 3490 3537 3639 3615 3661 3639 3513 3529 3633 3572 3540 3496 3517 3491 3559 3452 3384 3498 3471 3647 3586 3407 3471 3446 3447 3395 3354 3488 3454 3515 3653 3350 3371 3371 3451 3398 3336 3453 3360 3376 3484 3450 3431 3410 3498 3249 3464 3300 3355 3396 3401 3394 3470 3307 3311 3323 3421 3357 3333 3349 3295 3422 3359 3283 3322 3263 3317 3219 3346 3407 3384 3296 3251 3389 3250 3301 3219 3214 3273 3324 3289 3313 3327 3172 3256 3237 3245 3229 3235 3255 3254 3209 3199 3157 3290 3225 3218 3216 3203 3070 3171 3135 3183 3208 3219 3191 3250 3266 3153 3236 3153 3212 3216 3071 3135 3115 3184 3166 3145 3121 3154 3248 3177 3071 3109 3034 3198 3160 3133 3162 3137 3129 3072 3151 3073 3113 3120 3218 3130 3126 3275 3007 3171 3135 3143 3047 3192 3026 3008 3113 3142 3031 3250 3046 3216 3084 3102 3115 3135 3182 3246 3222 3078 3087 3107 3168 3031 3064 3196 3148 3186 3200 3087 3092 3133 3029 3137 3156 3167 3172 3247 3141 3191 3124 3178 3119 3096 3174 3152 3196 3273 3290 3093 3202 3210 3147 3137 3069 3116 3149 2963 3098 2997 3046 3083 3084 3087 3051 2985 3028 3023 3079 3067 3095 3010 2965 3096 2941 3076 3035 3042 3038 3034 2945 2921 2950 3049 2919 3110 3040 3082 3010 3024 3016 2976 3040 3098 3051 2978 3000 3011 3103 3016 3122 2906 3026 3042 3043 3085 3039 3049 3056 3025 3052 2987 2980 3087 3056 2992 3123 2970 3054 3052 3108 2945 3133 2909 3082 3081 2977 2969 3048 3055 2969 3109 2999 3026 2982 3064 3050 3067 2992 2971 2956 3014 3112 2915 3069 3034 2943 2933 3013 3089 3157 3121 3086 3074 3045 3021 3034 2978 3012 3018 3082 3110 3057 3055 2966 3081 3046 2958 3045 2974 2957 3048 3024 3093 2949 2994 2989 2915 3057 3034 3031 2993 3002 2958 3017 2996 3010 3060 3041 3003 3179 3013 2932 3038 2964 3019 3091 3071 3083 2973 2963 3130 2990 3041 2998 2866 3038 3036 3071 3073 3000 2994 3045 2979 2974 2964 3001 2965 3046 2939 2986 3040 3016 3037 2992 3005 3039 2891 3034 3027 2985 3147 3023 2992 2931 2964 2840 2953 2989 2986 2981 2886 2884 2981 2938 2974 2938 2983 2906 3007 2997 2970 2886 2891 3007 2948 2924 2931 2905 2976 2916 3025 2958 2949 2883 2892 2915 2867 2850 3016 2947 3028 3071 2871 2887 2850 2922 2906 2932 2888 2881 2879 2953 2898 2889 2853 2874 2841 2891 2875 2827 2869 2800 2797 2946 2792 2910 2845 2794 2869 2844 2768 2841 2852 2790 2815 2829 2748 2928 2833 2813 2748 2846 2878 2815 2759 2807 2807 2750 2677 2770 2689 2871 2773 2727 2811 2735 2771 2764 2728 2778 2768 2794 2868 2812 2702 2788 2785 2730 2805 2753 2704 2755 2787 2777 2754 2807 2650 2798 2664 2763 2727 2760 2796 2709 2637 2706 2794 2748 2646 2744 2681 2735 2678 2724 2751 2831 2722 2680 2754 2723 2686 2747 2770 2699 2640 2724 2753 2669 2745 2734 2775 2734 2813 2781 2703 2729 2737 2736 2690 2817 2767 2783 2778 2842 2873 2856 2804 2834 2844 2967 3031 3024 2970 3102 3180 3139 3186 3220 3177 3362 3377 3524 3547 3665 3737 3872 3873 3920 4160 3973 4294 4173 4353 4230 4271 4095 4003 3955 3750 3763 3658 3670 3583 3479 3314 3169 3284 3182 3089 2996 3027 2831 2847 2876 2906 3034 2896 2756 2884 2742 2811 2851 2739 2756 2820 2700 2762 2618 2549 2712 2658 2544 2620 2595 2650 2691 2566 2589 2566 2622 2659 2581 2572 2670 2646 2538 2626 2482 2621 2615 2564 2594 2643 2591 2576 2603 2634 2636 2603 2578 2638 2629 2516 2664 2596 2546 2610 2582 2732 2566 2600 2691 2605 2595 2666 2594 2686 2687 2760 2741 2642 2746 2805 2858 2823 2939 2946 3024 2994 3178 3311 3218 3297 3360 3565 3588 3637 3845 4004 4063 4195 4243 4517 4707 4888 5050 5224 5479 5702 5748 5818 5832 5867 5840 5741 5636 5468 5143 4974 4951 4845 4529 4408 4252 4162 4030 4073 3947 3894 3799 3922 3651 3813 3614 3570 3584 3532 3440 3226 3331 3189 3166 3173 2965 3023 2961 2801 2814 2685 2752 2637 2694 2605 2583 2679 2530 2534 2606 2460 2524 2586 2578 2563 2446 2506 2495 2541 2493 2507 2417 2514 2502 2453 2502 2452 2453 2541 2527 2463 2486 2401 2537 2484 2528 2508 2513 2401 2442 2475 2484 2519 2506 2481 2538 2467 2453 2500 2487 2428 2461 2428 2469 2567 2482 2501 2455 2457 2533 2400 2391 2503 2580 2476 2432 2563 2543 2575 2593 2479 2547 2537 2534 2561 2603 2562 2645 2534 2620 2581 2627 2557 2556 2606 2709 2665 2513 2562 2579 2577 2656 2621 2646 2604 2545 2581 2491 2504 2486 2503 2536 2627 2577 2470 2486 2530 2528 2542 2473 2548 2515 2517 2407 2342 2515 2433 2462 2432 2439 2361 2398 2405 2481 2356 2393 2384 2363 2376 2393 2422 2340 2396 2468 2387 2443 2400 2391 2347 2352 2385 2334 2335 2443 2347 2378 2326 2308 2307 2285 2426 2385 2429 2250 2394 2382 2385 2372 2401 2321 2384 2412 2334 2431 2371 2473 2419 2258 2291 2357 2365 2298 2321 2281 2368 2334 2410 2301 2412 2320 2295 2424 2418 2365 2311 2346 2325 2297 2331 2406 2240 2330 2413 2395 2320 2232 2367 2269 2320 2357 2317 2378 2395 2346 2377 2426 2321 2307 2385 2376 2375 2371 2391 2303 2322 2397 2317 2329 2266 2283 2331 2349 2292 2373 2340 2305 2304 2440 2296 2281 2329 2268 2370 2297 2352 2370 2262 2367 2361 2283 2374 2345 2327 2355 2344 2341 2275 2263 2347 2384 2292 2280 2312 2325 2322 2320 2300 2325 2299 2321 2365 2356 2248 2360 2321 2399 2338 2349 2397 2279 2387 2346 2396 2354 2292 2339 2353 2365 2281 2329 2344 2363 2352 2409 2378 2330 2326 2367 2374 2314 2409 2349 2367 2315 2411 2424 2274 2466 2365 2359 2385 2434 2269 2466 2350 2398 2360 2331 2391 2420 2479 2308 2445 2367 2322 2439 2441 2479 2497 2381 2456 2426 2471 2431 2350 2323 2407 2479 2363 2352 2484 2425 2388 2400 2375 2430 2390 2420 2459 2503 2489 2359 2430 2497 2500 2417 2502 2482 2510 2628 2560 2532 2489 2434 2497 2702 2605 2612 2593 2652 2745 2671 2712 2703 2666 2865 2758 2931 2926 2964 3212 3226 3192 3359 3553 3782 3825 4015 4272 4389 4549 4798 5151 5288 5692 5856 6231 6569 7068 7619 8130 8618 9051 9801 10278 10889 11432 11370 11778 11957 11798 11734 11428 11008 10790 10518 9876 9545 8822 8593 8062 7643 7011 6518 6367 5919 5730 5515 5245 5002 5104 4783 4732 4699 4552 4421 4426 4362 4380 4155 4038 3967 3808 3664 3681 3576 3416 3285 3145 3146 3032 2899 2918 2783 2776 2814 2669 2545 2621 2590 2542 2562 2553 2568 2556 2558 2430 2398 2450 2420 2471 2433 2467 2339 2439 2452 2465 2438 2344 2435 2451 2453 2383 2434 2317 2384 2445 2345 2372 2422 2469 2364 2423 2367 2230 2371 2347 2358 2442 2389 2314 2324 2350 2422 2300 2301 2433 2302 2286 2365 2380 2420 2456 2406 2329 2439 2401 2303 2372 2374 2371 2319 2279 2331 2327 2364 2379 2367 2358 2372 2331 2351 2389 2323 2405 2359 2268 2319 2232 2374 2266 2332 2330 2220 2317 2332 2301 2374 2345 2343 2369 2323 2424 2326 2396 2412 2292 2313 2278 2376 2334 2324 2364 2315 2332 2362 2321 2359 2353 2282 2330 2312 2326 2318 2307 2263 2351 2290 2309 2352 2288 2307 2239 2355 2302 2320 2278 2320 2291 2359 2332 2296 2287 2240 2238 2319 2344 2184 2279 2260 2299 2285 2296 2240 2241 2302 2217 2294 2262 2225 2247 2181 2302 2256 2241 2301 2309 2300 2281 2320 2218 2332 2238 2211 2272 2208 2225 2216 2247 2243 2260 2298 2312 2251 2236 2287 2188 2242 2251 2355 2259 2269 2194 2311 2263 2329 2282 2302 2256 2204 2292 2360 2201 2274 2225 2345 2271 2266 2327 2273 2240 2296 2231 2161 2237 2328 2306 2266 2314 2152 2302 2245 2240 2232 2354 2260 2280 2361 2243 2263 2134 2251 2261 2269 2215 2260 2417 2247 2343 2241 2320 2303 2303 2309 2340 2242 2355 2274 2344 2297 2320 2504 2388 2363 2445 2398 2354 2380 2421 2418 2423 2313 2346 2374 2391 2363 2384 2381 2294 2354 2245 2317 2245 2217 2356 2395 2284 2407 2247 2399 2237 2294 2290 2209 2258 2282 2364 2310 2339 2225 2271 2280 2278 2277 2322 2215 2284 2171 2119 2230 2338 2237 2176 2255 2252 2160 2169 2261 2299 2297 2184 2217 2275 2220 2200 2238 2215 2168 2285 2159 2150 2185 2308 2221 2259 2349 2177 2235 2284 2144 2210 2270 2235 2189 2198 2121 2296 2238 2292 2213 2278 2232 2177 2207 2134 2199 2303 2204 2334 2205 2246 2194 2286 2254 2248 2282 2241 2258 2202 2182 2239 2312 2261 2286 2253 2336 2239 2227 2233 2271 2261 2290 2301 2280 2317 2252 2375 2211 2285 2172 2353 2242 2276 2275 2244 2202 2294 2142 2224 2223 2257 2201 2166 2182 2283 2362 2192 2146 2221 2301 2195 2185 2205 2275 2200 2192 2227 2236 2217 2206 2187 2236 2225 2157 2132 2155 2210 2246 2141 2266 2163 2184 2215 2349 2147 2173 2254 2182 2157 2231 2215 2183 2214 2159 2174 2229 2236 2239 2130 2252 2233 2253 2198 2187 2201 2113 2107 2201 2287 2110 2164 2259 2178 2148 2100 2198 2189 2259 2202 2208 2227 2211 2157 2252 2174 2256 2140 2288 2212 2215 2173 2138 2228 2093 2272 2218 2215 2226 2214 2152 2208 2229 2246 2142 2247 2176 2181 2199 2198 2193 2187 2223 2197 2109 2198 2201 2267 2232 2159 2233 2161 2212 2252 2207 2308 2228 2231 2152 2193 2167 2150 2208 2227 2255 2185 2296 2237 2176 2245 2129 2283 2158 2103 2122 2163 2151 2174 2160 2200 2186 2208 2235 2233 2145 2127 2293 2251 2158 2198 2224 2233 2172 2145 2220 2134 2215 2171 2160 2262 2157 2296 2246 2218 2188 2199 2224 2143 2210 2240 2100 2121 2186 2141 2238 2189 2133 2214 2149 2167 2190 2164 2250 2275 2182 2203 2232 2200 2158 2153 2218 2213 2226 2104 2299 2156 2198 2251 2186 2284 2363 2200 2241 2168 2162 2244 2174 2215 2199 2208 2191 2231 2225 2196 2184 2160 2225 2234 2212 2175 2204 2144 2206 2224 2224 2114 2198 2196 2237 2168 2179 2162 2163 2198 2215 2188 2183 2149 2229 2182 2272 2184 2239 2202 2157 2248 2205 2178 2215 2265 2220 2204 2191 2202 2192 2181 2075 2176 2254 2086 2214 2185 2200 2191 2203 2201 2164 2191 2203 2163 2251 2179 2124 2178 2129 2242 2219 2179 2298 2134 2249 2200 2228 2211 2119 2216 2171 2154 2220 2122 2229 2169 2204 2206 2183 2184 2143 2189 2193 2091 2184 2238 2191 2119 2221 2202 2265 2184 2118 2162 2128 2215 2225 2150 2189 2132 2175 2144 2190 2250 2182 2166 2121 2221 2134 2207 2192 2192 2191 2264 2198 2216 2265 2216 2145 2129 2136 2219 2314 2297 2243 2239 2220 2196 2216 2169 2220 2217 2200 2160 2212 2223 2209 2181 2203 2207 2249 2251 2258 2040 2198 2160 2163 2147 2208 2168 2128 2124 2154 2192 2145 2175 2240 2223 2222 2140 2192 2214 2215 2179 2191 2133 2194 2177 2135 2213 2241 2177 2194 2178 2157 2222 2205 2202 2167 2185 2123 2129 2108 2228 2187 2119 2139 2171 2099 2204 2264 2230 2196 2094 2093 2116 2196 2150 2208 2213 2162 2239 2198 2209 2258 2152 2150 2144 2194 2190 2112 2071 2266 2199 2180 2234 2207 2176 2145 2186 2090 2291 2127 2152 2237 2227 2161 2253 2118 2239 2176 2211 2206 2236 2204 2151 2138 2183 2145 2215 2130 2140 2269 2137 2215 2178 2165 2085 2222 2133 2139 2221 2149 2185 2123 2129 2255 2205 2209 2217 2155 2216 2214 2229 2189 2179 2060 2112 2171 2183 2162 2134 2199 2163 2083 2178 2223 2147 2165 2157 2213 2191 2216 2302 2246 2135 2174 2182 2138 2177 2143 2169 2168 2204 2214 2133 2213 2180 2149 2179 2200 2183 2147 2240 2223 2206 2160 2243 2252 2239 2146 2229 2198 2184 2186 2285 2224 2271 2248 2174 2222 2215 2214 2214 2293 2314 2283 2382 2442 2365 2416 2385 2434 2421 2434 2538 2529 2532 2689 2716 2758 2895 2819 2954 2995 3051 3124 3291 3311 3166 3241 3316 3217 3161 3177 3087 3155 3057 3127 2938 2938 2895 2807 2846 2739 2597 2678 2573 2407 2535 2476 2461 2418 2485 2358 2397 2399 2304 2380 2395 2390 2371 2307 2284 2228 2310 2251 2352 2352 2329 2373 2309 2298 2261 2249 2246 2257 2190 2274 2176 2229 2249 2239 2164 2129 2185 2240 2178 2297 2199 2201 2156 2105 2166 2258 2245 2168 2178 2228 2172 2182 2112 2200 2167 2151 2146 2161 2129 2154 2194 2245 2155 2068 2129 2163 2161 2178 2168 2149 2256 2107 2108 2252 2128 2225 2225 2124 2239 2033 2168 2171 2083 2112 2125 2205 2183 2079 2193 2100 2175 2140 2193 2230 2200 2090 2129 2098 2124 2202 2090 2265 2137 2227 2178 2187 2104 2099 2140 2104 2164 2116 2184 2145 2227 2110 2229 2129 2153 2182 2156 2212 2086 2045 2147 2182 2068 2108 2208 2134 2158 2190 2125 2194 2203 2227 2083 2181 2149 2169 2157 2151 2169 2215 2182 2123 2143 2185 2111 2178 2161 2133 2111 2225 2080 2132 2147 2134 2134 2178 2172 2276 2181 2129 2128 2160 2133 2084 2116 2200 2106 2192 2024 2223 2192 2161 2055 2072 2145 2139 2153 2111 2149 2103 2114 2152 2190 2097 2209 2115 2219 2216 2178 2241 2163 2181 2163 2134 2117 2256 2188 2275 2178 2182 2128 2202 2248 2142 2195 2134 2173 2152 2145 2193 2238 2064 2095 2188 2104 2096 2080 2131 2174 2148 2203 2178 2145 2229 2160 2164 2234 2110 2194 2226 2062 2245 2140 2107 2182 2192 2194 2165 2269 2202 2148 2143 2160 2138 2180 2151 2227 2241 2233 2153 2162 2187 2185 2154 2159 2241 2151 2222 2158 2197 2185 2190 2203 2192 2191 2171 2208 2126 2211 2174 2213 2154 2138 2227 2298 2186 2159 2245 2147 2262 2150 2195 2241 2192 2237 2227 2158 2209 2251 2205 2163 2157 2071 2301 2153 2222 2192 2111 2199 2067 2222 2202 2217 2326 2230 2239 2263 2179 2236 2235 2217 2295 2242 2202 2169 2145 2214 2283 2278 2259 2338 2233 2263 2369 2364 2249 2295 2271 2277 2321 2275 2349 2312 2313 2303 2392 2498 2379 2469 2455 2523 2363 2559 2568 2535 2634 2761 2699 2757 2974 2934 2970 3163 3199 3403 3473 3767 3824 4110 4423 4615 4930 5253 5569 6228 6392 6851 7037 7116 7436 7247 7158 7245 7109 6821 6713 6539 6366 6227 6219 6130 5982 5816 5588 5270 5095 4912 4540 4295 4115 4096 3875 3765 3583 3566 3571 3387 3408 3211 3260 3170 3228 3150 3130 3193 3234 3302 3105 3220 3143 3117 3048 3083 2974 2944 2925 2900 2864 2822 2714 2741 2732 2550 2568 2640 2516 2488 2428 2404 2333 2519 2467 2458 2424 2299 2249 2273 2244 2287 2282 2214 2269 2220 2264 2124 2208 2150 2187 2204 2089 2211 2258 2209 2135 2226 2203 2155 2185 2155 2121 2166 2194 2237 2145 2197 2176 2183 2164 2151 2226 2176 2163 2272 2150 2139 2120 2164 2141 2121 2082 2156 2182 2246 2167 2266 2218 2152 2257 2175 2135 2164 2157 2224 2165 2136 2185 2122 2207 2174 2146 2171 2186 2141 2165 2119 2155 2114 2169 2108 2145 2131 2120 2140 2184 2087 2107 2200 2121 2106 2200 2173 2134 2218 2090 2144 2193 2221 2109 2156 2180 2144 2184 2119 2125 2146 2236 2167 2133 2243 2110 2220 2081 2160 2128 2151 2094 2150 2130 2175 2184 2166 2148 2190 2188 2132 2101 2136 2159 2161 2212 2193 2194 2186 2173 2213 2217 2219 2175 2141 2191 2218 2237 2182 2196 2233 2252 2244 2260 2296 2266 2428 2240 2419 2411 2495 2524 2502 2499 2656 2641 2659 2768 2666 2767 2700 2704 2705 2718 2696 2577 2706 2625 2637 2603 2645 2557 2529 2481 2577 2410 2472 2494 2390 2472 2310 2364 2245 2297 2338 2224 2325 2279 2310 2295 2266 2274 2255 2238 2270 2246 2231 2262 2272 2220 2246 2205 2304 2275 2207 2250 2189 2240 2239 2168 2214 2208 2246 2231 2098 2225 2188 2165 2132 2106 2208 2182 2151 2112 2212 2189 2194 2064 2241 2094 2164 2107 2216 2182 2104 2169 2075 2128 2086 2113 2085 2128 2081 2074 2166 2109 2124 2184 2143 2189 2106 2096 2130 2168 2076 2103 2086 2180 2138 2174 2092 2127 2162 2109 2154 2134 2138 2142 2050 2116 2154 2112 2148 2097 2133 2201 2129 2065 2051 2167 2154 2192 2044 2083 2162 2115 2112 2132 2134 2122 2139 2181 2106 2136 2207 2174 2133 2134 2122 2165 2188 2081 2036 2083 2107 2049 2104 2100 2150 2119 2113 2085 2084 2132 2137 2122 2137 2082 2177 2170 2141 2115 2115 2176 2177 2155 2103 2098 2172 2115 2227 2128 2097 2164 2123 2109 2196 2040 2115 2088 2146 2193 2115 2043 2194 2079 2099 2153 2078 2134 2088 2206 2169 2012 2035 2001 2102 2101 2095 2082 2142 2111 2040 2063 2154 2128 2070 2147 2175 2079 2095 2197 2129 2024 2164 2154 2078 2133 2068 2116 2016 2169 2054 2058 2063 2126 2105 2136 2053 2087 2093 2058 2129 2078 2126 2111 2108 2250 2062 2064 2176 2112 2076 2094 2137 2100 2073 2121 2067 2157 2061 2154 2059 2119 2121 2051 2174 2091 2132 2068 2114 2098 2066 2146 2110 2110 2151 2141 2083 2040 2098 2056 2124 2131 2132 2109 2117 2079 2098 2140 2087 2088 2081 2064 2074 2087 2188 2074 2107 2222 2069 2047 2177 2067 2096 2086 2044 2130 2077 2123 2101 2044 2146 2134 2111 2021 2086 2148 2168 2090 2149 2127 2123 2071 2086 2091 2050 2058 2085 2083 2094 2083 2098 2075 2097 2085 2118 2052 2085 2161 2089 2173 2147 2179 2122 2022 2038 2134 2070 2047 2059 2099 2141 2107 2047 2147 2113 2171 2192 2132 2035 2181 2100 2021 2072 2097 2059 2170 2038 2202 2081 2060 2124 2032 2107 2098 2089 2098 2110 2058 2051 2111 2071 2067 2079 2091 1985 2018 2088 2002 2137 2084 2074 2054 2125 2182 2041 2060 2053 2076 2091 2102 2147 2123 2076 2092 2106 2013 2213 2072 2208 1951 2117 2045 2150 2104 2039 2148 2078 2046 2258 2126 2204 2058 2054 2160 2112 2087 2176 1997 2128 2147 2104 2100 2058 2060 2041 2105 2125 2104 2032 2087 2227 2094 2057 2057 2043 2051 2020 2131 2076 2082 2058 2101 2099 2120 2097 2150 2142 2143 2174 2058 2098 2147 2071 2104 2054 2165 2117 2099 2160 2060 2104 2133 2119 2157 2109 2089 2140 2036 2201 2116 2057 2081 2002 2119 2089 2138 2100 2121 2085 2060 2154 2179 2049 2137 2098 2033 2078 2018 2116 2065 2161 2077 2102 2069 2134 2090 2095 2093 2152 2100 2110 2174 2107 2012 2111 2071 2130 2028 2078 2061 2154 2012 2195 2098 2135 2125 2122 2083 2080 2082 2098 2103 2106 2172 2085 2069 2024 2130 2083 2084 2065 2029 2070 2070 2117 2129 2201 2086 2046 1999 2048 2079 2047 2050 2139 2139 2083 2164 2084 2178 2108 2106 2073 2116 2087 2124 2157 2059 2215 2202 2209 2137 2246 2185 2308 2247 2203 2231 2193 2123 2125 2267 2164 2243 2215 2162 2169 2138 2147 2165 2288 2130 2164 2235 2170 2009 2043 2100 2199 2136 2194 2027 2085 2073 2002 2109 2136 2131 2049 2198 2186 2168 2134 2127 2186 2155 2218 2137 2206 2111 2178 2230 2147 2182 2223 2169 2177 2161 2333 2279 2300 2338 2259 2372 2400 2361 2506 2516 2606 2569 2689 2742 2690 2590 2690 2635 2541 2507 2611 2515 2563 2403 2444 2433 2470 2473 2451 2372 2361 2389 2442 2223 2357 2317 2272 2283 2220 2256 2214 2262 2200 2170 2256 2255 2204 2208 2158 2274 2183 2226 2290 2303 2180 2262 2343 2263 2266 2287 2273 2340 2156 2268 2225 2271 2274 2191 2248 2255 2282 2256 2323 2157 2268 2266 2269 2281 2241 2193 2256 2189 2153 2220 2089 2160 2152 2100 2094 2131 2163 1988 2104 2213 2091 2128 2092 2099 2096 2030 2093 2140 2080 2166 2173 2091 2113 2077 2067 2099 2083 2122 2046 2036 2059 2051 2053 2126 2066 2015 2047 2094 2073 2097 2093 2164 2057 2165 2091 2144 2097 2123 2079 2029 2108 2066 2129 2090 2114 2074 2062 2104 2084 2108 2088 2065 2062 2051 2055 1962 2085 2192 2087 2075 2071 2068 2057 2093 2131 2041 2027 2004 2128 2018 2098 2144 1995 2171 2067 2069 2107 2106 2145 2033 2056 2152 2105 2176 2127 2154 2127 2121 2048 2063 2068 2033 2079 2157 2100 2022 2108 2127 2154 1997 2091 2104 2172 2011 2056 2123 2134 2102 2186 2114 2134 2010 2033 2108 2055 2103 2032 2133 2138 2157 2098 2096 2160 2113 2075 2136 2115 2161 2159 2075 2176 2125 2119 2097 2046 2098 2188 2098 2053 2088 2166 2102 2175 2048 2089 2156 2095 2133 2184 2154 2131 2120 2094 2150 2129 2200 2139 2103 2130 2128 2187 2211 2262 2324 2337 2216 2281 2342 2351 2275 2333 2377 2444 2482 2485 2534 2578 2585 2706 2789 2853 3001 3193 3228 3331 3372 3395 3405 3327 3234 3317 3146 3141 3079 2988 3004 3049 2966 2882 2844 2919 2916 2907 3041 2817 2755 2692 2603 2719 2585 2501 2523 2462 2432 2419 2267 2271 2337 2351 2385 2296 2330 2249 2304 2340 2420 2300 2393 2262 2233 2290 2385 2307 2371 2362 2435 2349 2352 2339 2358 2352 2262 2405 2364 2326 2362 2289 2288 2217 2223 2294 2204 2289 2264 2249 2147 2269 2160 2167 2183 2098 2130 2127 2129 2111 2169 2103 2066 2131 2138 2091 2092 2164 2085 2144 2159 2146 2066 2092 2140 2092 2120 2167 1992 2131 2081 1983 2138 2092 2173 2062 2098 2067 2066 2028 2072 2100 2115 2112 2173 2126 2087 2024 2126 2151 2047 2144 2077 2050 2049 2032 2124 2034 2217 1980 2050 2096 2121 2149 2122 2069 2048 2061 2065 2059 2066 2085 2050 2130 2040 2114 2054 2036 2082 2107 2110 2053 2042 2030 2125 2028 2060 2010 2173 2001 2149 2067 2054 2051 2038 2081 2151 2040 2143 2060 2120 2033 2137 2152 2107 2118 2127 2182 2068 2094 2082 2162 2205 2162 2138 2257 2161 2156 2209 2302 2299 2299 2383 2368 2394 2349 2474 2380 2384 2395 2421 2337 2396 2288 2296 2193 2257 2277 2278 2284 2203 2339 2283 2307 2280 2251 2260 2312 2305 2239 2253 2134 2217 2122 2122 2047 2204 2132 2056 2103 2040 2034 2092 2130 2148 2068 2135 2172 2107 2101 2113 2073 2063 2101 2002 2186 2132 2171 2088 2079 2083 2156 2087 2135 2046 2054 2151 2033 2129 2022 2129 2138 2045 2085 2149 2111 2098 2097 2074 2099 2091 2150 2077 2031 1968 2105 2155 2115 2086 2163 2112 2061 2004 2049 2132 2049 2032 2068 2021 2011 2152 1997 2085 2062 2113 2050 2070 2073 2151 2067 2009 2061 2148 2111 1951 2093 2136 2118 2079 2080 2086 2096 2062 2089 2032 2068 2074 2059 2052 1940 1976 2012 2096 1999 2089 2036 2162 2012 2014 2071 2074 2044 2101 2151 1967 2113 2079 2093 2079 2030 2044 2019 2071 2045 2133 2075 2038 1995 2022 2053 2081 2064 2068 2075 2050 2039 2009 2075 2058 2008 2108 2097 2098 2033 2167 2039 2050 2009 2079 2057 2072 2044 2006 1976 2065 2145 2035 2114 2023 2095 2100 2027 2019 2008 2057 2006 2011 1987 2074 2040 2047 2139 2001 2032 2051 1995 2043 2042 2057 2027 2075 2000 1963 2166 2126 2095 2048 2063 2156 2096 1977 2050 1994 2058 2064 2102 2085 2136 2101 2113 2061 2030 2070 2098 2035 2025 2074 2064 2024 2074 2073 2030 2030 2041 2038 2062 1994 2022 1979 2104 2110 1979 2041 2010 2092 1988 2060 2060 2010 2073 2042 2027 2094 2052 2045 2032 2082 2013 2053 2028 2126 2077 2079 2033 1984 1969 2029 2072 2068 2034 2107 2004 2095 1942 2116 2108 2013 2045 2107 2033 2026 2051 1975 2085 2109 2020 1944 2144 2103 2040 2118 2027 2091 2076 2050 2050 2066 1999 2022 2106 2043 1951 2050 2130 2034 1980 2032 2071 1986 2134 1977 1978 2178 2106 2136 2044 2132 1997 2097 1949 2112 2027 2016 2073 2037 2064 2009 2048 1954 2063 2021 2047 1982 2101 1987 2127 1981 2117 2076 2098 1976 2091 2043 2018 2021 2055 2042 2024 2065 2003 2072 2124 2060 2066 2020 2021 2047 2108 2105 2153 2072 2056 2023 2136 2031 2065 2060 2116 2123 2088 2115 2092 2033 2045 1975 2039 2147 2110 2043 2086 1954 2157 2009 2080 2085 2167 2013 2154 2062 2092 2009 2071 2053 2056 2049 2058 2023 2080 2097 2096 2027 1964 2093 2080 2077 2081 2108 1983 2044 1953 1967 2124 2067 2036 2060 2065 2084 2024 2122 2074 2106 2097 2011 2161 2117 2034 2050 2110 1984 1948 1968 2040 2029 2026 2074 2067 2091 2092 2092 1993 2054 2000 2068 2129 2133 2101 1997 2106 2103 2133 2009 2008 2117 2037 2036 2023 2081 2085 1979 2029 2107 2021 2031 1996 2115 2041 2008 2004 2017 2081 2089 2076 2028 2082 2058 2034 2100 2023 2105 2060 2005 2113 2049 2002 2029 2016 2068 2047 2144 2128 2096 2116 2137 2167 2140 2206 2171 2238 2211 2187 2275 2172 2257 2188 2207 2169 2320 2168 2183 2175 2291 2172 2122 2162 2126 2207 2185 2086 2199 2080 2131 2176 2123 2206 2108 2196 2115 2166 2100 2063 2141 2137 2019 2082 2031 2059 2125 2106 1999 2014 2084 2137 2113 2134 2130 2024 2033 2138 2038 2072 2092 1983 2077 2106 2050 2149 2101 2056 2017 1958 2119 2083 2130 2092 2072 2074 2044 2121 2109 2012 2026 2055 2092 2013 2043 2049 2163 2006 2038 2159 2109 2067 2074 2060 2022 1963 2039 2020 2070 2051 2037 2013 2087 2039 2058 2055 2004 2089 2097 2086 2155 2145 2055 2028 2033 2017 2007 2068 1961 2099 2042 2135 2018 2084 2046 2032 2073 2068 2108 2055 2004 1997 1999 2048 1958 2038 1971 2076 1986 2071 2038 1954 1979 2063 2062 2023 2049 2059 2021 2027 1962 2003 2012 2022 2039 2010 2130 2011 2044 2086 2052 2142 1957 2063 2045 1966 2080 2066 2103 2044 2037 1991 2074 2097 2028 2075 2137 2056 2069 1994 2034 2002 2118 2088 1973 2061 2002 1993 2081 2027 1983 2008 2031 1970 2033 2006 2067 2020 2054 2075 2047 2097 1993 2057 1999 2042 2137 2016 1988 2057 2058 2069 2030 2097 2089 2006 1976 2043 2063 2060 2026 2091 2156 2089 1973 2112 1934 1988 1992 2084 2088 2035 2004 2055 2083 2129 1984 2114 1940 2061 2078 2017 2015 2072 2065 2037 2045 1966 2059 1994 2030 2082 2049 1970 2065 1995 2035 1924 1975 2112 2033 1998 2026 2030 2013 2079 2013 2052 2098 2048 2097 2101 2074 2071 2040 2140 2140 2067 2056 2113 2049 2074 2073 2090 2108 2023 2052 2036 1960 2147 2168 2069 2147 2095 2079 2158 2159 2119 2093 2130 2119 2089 2069 2142 2173 2207 2248 2262 2299 2277 2275 2350 2379 2452 2394 2410 2440 2433 2535 2505 2447 2512 2442 2465 2419 2399 2446 2348 2393 2379 2378 2300 2300 2387 2363 2337 2363 2354 2389 2267 2285 2222 2344 2295 2290 2293 2251 2224 2257 2238 2232 2178 2102 2046 2131 2108 2140 2080 2144 2134 2069 2242 2021 2099 2143 2123 2110 2108 2104 2147 2118 2169 2065 2051 2065 2106 2136 2107 2118 2203 2145 2106 2095 2133 2090 2120 2126 2059 2098 2170 2052 2123 2118 2096 2151 2099 2069 2111 2126 2137 2036 2105 2192 2057 2104 2076 2097 2072 2126 2036 2034 2132 2157 2083 2133 2105 2087 2119 2074 2109 2006 2019 1998 1975 2038 2103 2012 2036 2106 1979 2025 2108 1972 2064 1992 2041 2063 2032 2038 1960 2078 2043 2070 2068 1965 2060 2085 2001 2081 1970 2068 2101 2079 2036 1997 2047 1983 1957 1993 1996 2085 2027 2095 2006 2134 2042 2005 1996 2010 2045 2004 2072 1987 2027 2018 1985 2057 2012 2034 2045 2042 2000 2013 2086 2013 2037 2103 1992 2017 2000 2028 2051 2054 1981 2156 2067 2043 2056 2039 2109 2000 2016 2012 2052 2107 1932 2060 1934 2095 2071 2128 2002 2140 1978 1984 2029 2029 2001 2042 1988 2092 2083 2015 2001 2151 1965 2136 2023 2018 2029 2032 1971 2075 2090 1963 1979 1987 2043 2027 2038 2049 2042 2070 2038 2021 2061 2027 2080 2030 2010 2054 2001 2059 2031 2004 2072 2038 1980 2060 2069 2033 2042 1997 2038 2080 2029 1995 2061 2106 2064 1987 1931 2056 1996 2050 2163 2030 2057 1998 2106 2109 2032 2001 2056 1921 1937 2064 1989 2039 2182 2019 2081 2022 1965 2058 2052 2008 2126 1981 2124 2004 2014 2065 2027 2126 2088 2035 2019 2037 1984 2095 2027 2010 1919 2034 2041 2086 2015 2098 2103 2132 2139 1960 2020 2149 2039 2093 1974 2056 2053 2050 2035 2072 2024 1992 2073 1994 2142 1981 2085 2107 2019 2112 2023 1990 2139 2020 2110 2051 1998 1996 1999 2082 2040 2119 2071 2039 2067 1999 2025 1960 2087 2088 2044 1978 2037 2082 1941 2051 2036 2116 2009 2055 1992 2027 2169 2024 1981 2087 1958 2029 1986 2101 1980 2003 1976 2105 2131 2086 1998 1969 2058 2069 1959 2011 2055 2053 2094 2065 2073 1937 1975 1989 2004 2038 2016 2042 1988 2002 2059 2144 1967 1961 1984 2128 2117 1962 2059 2022 2015 2070 2085 2078 1994 2006 2109 2043 2038 2049 2056 2049 2031 2040 2052 1998 2111 2013 2038 2015 2094 2028 2056 2036 2070 2052 1994 2104 2041 1960 2027 2084 1981 2042 1986 1935 2064 2014 2074 2015 1926 2059 1943 2045 2083 2028 1993 2060 1989 2057 2075 2011 1982 2058 2075 2000 2038 1974 2048 2090 2104 1987 2066 2045 2000 1944 2066 2012 1980 2078 2048 2014 2057 1975 2036 2110 2030 2016 2090 2071 2103 2027 1961 2031 2009 1986 2012 2036 2196 2071 2100 2082 2070 1974 2077 2111 2090 2092 2074 1973 2030 2040 2133 2051 1986 2084 2120 2016 2008 2144 2051 2049 2060 2004 2095 2011 2113 2097 2075 2114 2152 2026 2044 2029 2078 2105 2032 2074 2099 2092 2014 2070 2106 2079 2084 2175 2041 2020 2084 2043 2036 2029 2070 2100 2036 2067 2047 2069 2034 2041 2059 2020 2054 1997 2008 2014 2070 2049 2124 2025 2097 1991 2095 2059 2016 2075 2038 2124 2033 2015 2095 2081 2131 2035 2112 2061 2173 2075 2132 2059 2049 2054 2024 2161 2078 2071 2040 1991 2094 1976 2040 2086 2021 2075 2104 2073 2059 2051 1959 2085 2072 1991 2061 2113 2109 2091 2039 2033 2164 2094 1986 2085 1992 2040 2066 2082 2014 2047 1995 2039 2147 2046 2099 2049 2082 2149 2118 2016 2144 2083 1950 2123 2053 2013 2073 2077 2076 2113 2092 2081 2070 2065 2031 2133 2202 2068 2165 2125 2241 2118 2153 2127 2152 2222 2151 2176 2155 2242 2196 2150 2083 2162 2161 2213 2095 2080 2146 2129 2097 2108 2194 2155 2114 2159 2163 2102 2140 2093 2044 2089 2133 2108 2216 2195 2139 2127 2077 2148 2111 2071 2082 2127 2080 2084 2055 2171 2091 2089 2109 2083 2141 2138 2170 2086 2122 2148 2119 2150 2194 2180 2191 2222 2288 2221 2255 2118 2236 2263 2126 2078 2127 2242 2179 2268 2161 2086 2219 2183 2144 2142 2097 2169 2120 2233 2238 2207 2139 2135 2202 2133 2141 2158 2142 2085 2165 2115 2151 2107 2089 2101 2077 2098 2089 2134 2081 2104 2059 1988 2039 2005 2106 2048 2177 2078 2027 2131 2082 2065 2018 2079 2110 2102 2156 2162 2080 2116 2117 2116 2126 2091 2140 2042 2160 2134 2128 2149 2135 2100 2184 2162 2102 2105 2089 2151 2081 2124 2105 2114 2076 2022 2072 2031 2027 2086 2111 2069 2031 2084 2040 2032 2135 2136 2046 2065 2002 2121 2044 2149 2026 2094 2102 2024 2106 2090 2153 2080 2024 2118 2021 2099 2128 2013 2011 1991 2061 2067 2040 2111 2024 2111 2009 2009 2070 2008 2061 2040 2089 2015 2089 2079 2111 2050 2071 2062 2028 2025 2023 2045 2097 2094 2031 2063 2065 2048 2044 2063 1980 2100 2078 2057 2021 2039 2113 2011 2092 1976 2211 2142 2042 2146 2038 2080 2030 2039 2093 2070 2085 2052 2043 2070 2034 2138 2173 2014 2047 2089 2181 2019 2080 2065 2148 2110 2154 2127 2135 2163 2099 2110 2174 2079 2211 2115 2144 2131 2124 2189 2138 2184 2150 2229 2186 2217 2135 2169 2200 2228 2150 2261 2209 2220 2199 2311 2279 2377 2342 2389 2418 2382 2517 2449 2506 2632 2695 2645 2876 2877 2895 2803 3003 2968 3039 2999 3010 2997 2924 2809 2891 2881 2722 2695 2708 2656 2612 2602 2705 2686 2616 2644 2635 2642 2679 2547 2617 2598 2678 2718 2620 2501 2551 2479 2468 2461 2403 2390 2445 2422 2277 2360 2379 2301 2275 2205 2200 2193 2197 2359 2206 2176 2215 2252 2295 2161 2284 2199 2075 2168 2244 2163 2210 2204 2218 2220 2185 2112 2173 2255 2178 2266 2226 2207 2273 2251 2272 2315 2227 2219 2190 2280 2206 2289 2135 2304 2223 2116 2201 2250 2227 2153 2183 2205 2165 2250 2110 2187 2175 2107 2228 2209 2129 2186 2179 2138 2182 2080 2068 2148 2127 2145 2110 2131 2142 2185 2159 2104 2130 2136 2083 2111 2165 2067 2070 2146 2040 2109 2080 2092 2038 2096 2075 2045 2162 2062 1991 2035 2037 2100 2078 1986 2050 2083 2042 2047 2080 2045 2130 2124 2129 2048 2095 2037 2167 2071 2074 2122 2159 2085 2106 2120 2069 2093 2062 2126 2049 2142 2125 2051 2056 2091 2141 2170 2143 2269 2152 2120 2170 2208 2153 2156 2124 2135 2131 2073 2134 2089 2111 2222 2145 2137 2100 2130 2038 2077 2109 2124 2080 2023 2086 2095 2154 2133 2164 2083 2072 2094 2108 2066 2107 2089 2101 2074 2174 2092 2053 2084 2113 2116 2060 2126 2060 2083 2094 2093 2007 2122 2041 2113 2086 2034 2030 2105 2042 1966 2099 2085 2059 2040 2096 2045 2105 2083 2079 2090 2057 2084 2030 2094 2058 2084 2067 2047 2060 2076 2140 2092 2023 2115 2075 2069 2054 2159 2032 2067 2052 2154 2199 2031 2041 2068 2062 2073 2065 2089 2011 2060 2054 2029 2064 2020 2062 2009 1958 2057 2128 2157 2035 2199 2096 2082 1960 1967 1997 2069 2058 1999 1966 2033 1995 2082 2147 2096 2049 2043 2032 2027 2045 2062 2086 2038 2120 2136 2145 2030 2035 2080 2050 2075 2015 2128 1998 2083 2037 2032 2091 2168 2039 2077 2005 2064 2131 2138 2088 2033 2097 2083 2124 2007 2063 2050 1977 2085 2052 2149 2027 1992 2097 2074 2064 2068 1969 2114 2061 2029 2058 2091 1976 2054 2032 1995 2054 2075 2051 2098 2053 1968 2067 2127 2035 2088 1978 2077 1953 2048 1991 2082 2040 2042 2001 2037 2020 2010 2060 1978 2090 2062 2095 2036 2044 2041 2061 2064 2077 2090 2043 1945 2029 2039 1996 2077 2029 2092 2070 2071 1995 2152 2112 2064 2062 2075 2123 2112 2077 2027 2156 2034 2095 2039 2110 2014 2077 2111 2057 2079 2027 2048 2010 2017 2104 2151 2058 1948 2043 2092 2059 1986 2098 2078 2107 2134 2045 1999 2080 2117 2093 2077 2039 2095 2020 1993 2083 2069 2114 2014 2051 1986 2043 2100 2051 2025 2014 2066 2095 1992 2073 2052 2021 2078 2038 2155 2068 2083 1950 2061 2092 2078 2039 2134 2069 2100 2050 2069 1989 2097 2010 2142 1985 2118 2042 2061 2051 2099 1895 2010 2087 2063 2046 2010 1988 2092 2045 2104 2065 2048 2001 2114 2050 2051 2053 2032 2025 2076 2042 2136 2066 2127 2070 2092 2017 2031 2043 2090 1991 2054 2071 2061 2103 2034 2102 2080 2066 2023 2054 2023 2066 2076 2104 2052 2017 2029 2041 1989 2110 2031 2130 2058 2070 2079 2145 2069 2015 2101 2066 2054 2032 2031 2056 2061 2094 2046 2102 2060 2046 2038 1998 2116 1971 2095 2056 2149 1941 2044 2049 2139 2090 2070 2069 2096 2072 2199 2072 2048 2067 2039 1970 2019 2063 2095 2009 2067 2139 2098 2016 1961 2049 2084 2102 2057 2051 2123 2063 2083 2067 1998 2060 2004 2038 2190 2102 2087 2129 2034 2101 2010 1953 2118 2029 2039 2085 2165 2148 2154 2097 2069 2084 2070 2100 2165 2093 2159 2207 2098 2078 2145 2106 2243 2113 2149 2183 2094 2161 2168 2154 2261 2115 2174 2115 2168 2225 2206 2071 2189 2116 2138 2116 2097 2134 2135 2075 2173 2086 2076 2120 2112 2196 2154 2181 2239 2168 2131 2112 2120 2079 2155 2016 2068 2026 2137 2109 2022 2081 2113 2080 2075 2072 2125 2154 2060 2068 2067 2070 2002 2034 2142 2058 2055 2093 2054 2128 2010 2135 2027 2047 2022 2118 2060 1984 2091 2061 2117 2115 2087 2064 2101 2075 2119 2055 2099 2112 1960 2011 2022 2101 2122 2043 2155 2082 2057 2040 2109 2085 2066 2046 2223 2029 2060 2050 2059 2093 2076 2093 1988 2097 2166 2103 2085 2128 1999 2134 2061 2116 2134 2172 2108 1992 2069 2038 2042 2088 2125 2072 2072 2082 2077 2154 2151 2079 2031 2021 2085 2069 1980 2073 2016 2001 2020 2057 2094 2032 2056 2085 2118 2079 2112 2089 2096 2153 2121 2049 2116 2067 2091 2083 1973 2043 2035 1988 2049 2129 2063 2121 2109 2024 2083 2050 2078 2098 2081 2041 2048 2010 1978 2068 2104 2030 2103 2095 2010 1997 2039 2022 2024 2091 2062 2107 2062 2081 2137 2112 2040 2001 2123 1998 2029 2067 2022 2041 2079 2049 2085 2102 2080 2189 2035 2068 2073 2134 2128 2124 2071 2025 2025 2099 2130 2127 2053 2137 2017 2069 2087 2135 2078 2017 2063 2077 2119 2065 2124 2104 2107 2088 2120 2112 2142 2070 2130 2093 2084 2082 2021 2078 2104 2071 2111 2063 2119 2065 2185 2052 2037 2011 2141 2165 2135 2172 2131 2126 2161 2126 2159 2165 2110 2111 2125 2261 2215 2181 2094 2205 2218 2244 2267 2225 2182 2187 2302 2248 2218 2349 2306 2347 2414 2409 2496 2523 2569 2633 2664 2626 2662 2756 2741 2829 2589 2699 2707 2709 2543 2611 2596 2536 2458 2420 2402 2490 2429 2455 2378 2422 2335 2434 2290 2388 2420 2389 2518 2527 2475 2435 2474 2508 2462 2442 2342 2396 2405 2340 2325 2301 2327 2253 2311 2254 2301 2266 2239 2189 2180 2258 2131 2231 2176 2235 2109 2121 2179 2165 2213 2053 2207 2182 2272 2163 2103 2203 2164 2149 2180 2147 2141 2205 2193 2156 2129 2156 2182 2167 2152 2190 2192 2166 2199 2211 2082 2228 2217 2170 2160 2135 2113 2216 2221 2253 2193 2175 2140 2193 2167 2194 2203 2166 2102 2132 2183 2165 2070 2133 2139 2096 2139 2121 2171 2178 2113 2160 2174 2102 2200 2125 2128 2158 2164 2054 2062 2164 2130 2146 2103 2159 2122 2133 2067 2155 2079 2159 2125 2051 2179 2140 2148 2123 2036 2014 2121 2138 2181 1991 2108 2060 1979 2132 2039 2043 2033 2119 2164 2069 2063 2089 2075 2039 2076 2010 2036 2125 2099 2104 2085 2120 2068 2144 2116 2113 2165 2207 2131 2166 2193 2106 2138 2078 2161 2053 2092 2141 2166 2129 2132 2135 2060 2115 2135 1986 2120 2037 2115 2196 2142 2169 2085 2101 2105 2029 2042 2081 2086 2167 2135 2169 2106 2047 2114 2076 2065 2089 2032 2078 2081 2051 2040 2101 2042 2130 2075 2086 2080 2062 1972 2046 2049 2045 2124 1989 2091 2114 2136 2093 2094 2091 1993 2027 2088 2048 2046 2121 2033 2068 2096 2029 2047 2173 2046 2146 2088 2041 1961 2066 2056 2045 1994 2100 2060 1986 2021 1990 2075 2052 2122 2095 1986 1977 2155 2039 2073 2061 2041 2009 2099 2051 2050 2100 2109 2026 2129 2032 2017 2067 2059 2106 2042 2034 2053 2116 2130 2036 2077 2025 2023 2033 1996 2039 2058 2079 2074 2078 2053 2053 2077 1956 2071 2020 2069 2004 2125 2045 2067 2073 2062 2036 2074 2027 2018 2091 1996 2107 2027 2051 2019 2049 2061 2010 2089 2052 2075 2046 2025 2004 2031 2069 2063 2035 2011 2134 2052 2088 2078 2093 2021 1959 2058 2070 2039 2104 2052 2048 2134 2087 2053 1996 2037 2047 2055 2095 2040 2061 2084 2009 2122 2010 2134 2130 2001 2071 2078 2068 2024 2065 2089 2011 2122 2056 1999 2111 2044 2053 2098 2048 2034 2092 2077 2108 1998 2064 2133 2037 2145 2008 1999 2039 2008 2125 2040 2050 2106 2077 2099 2028 2135 2065 2042 2099 2065 2159 2034 2095 2117 2016 2102 2059 2107 1970 2140 2021 2014 2079 1941 2025 2072 2049 1964 1978 1997 2047 2052 2031 1972 2003 2148 2003 2022 2038 2032 2037 2051 2011 2060 2121 2069 2098 1989 2105 2064 2049 2015 2045 2170 2070 2171 2019 2089 2044 2002 2037 2064 2034 2096 2061 2076 2115 2068 2071 2104 2117 2061 2102 2075 2043 2039 2094 2106 2075 2037 2040 2069 2124 2070 2118 2037 2066 2112 2001 2064 2079 2076 2034 2024 2029 2062 2055 2077 2044 2002 2061 2068 2013 2032 2134 2018 2092 2098 2056 2126 2013 2097 2026 1988 2075 2092 2077 2121 2003 2030 1982 2036 2037 2112 2016 2125 2034 2055 2103 2196 2049 2050 2078 1991 2018 2013 2062 2114 1969 2074 2049 2002 2030 2102 2030 2025 2088 2092 2047 2084 2126 2056 2100 2144 2019 2147 1993 2072 2053 2082 2093 2103 2099 2037 2080 2081 2150 2113 2071 2080 2104 2094 2123 2084 2051 1997 2059 2121 2029 2029 2063 2060 2119 2005 2107 2038 2149 2129 2105 2004 2080 2030 2032 2089 2086 2003 2121 1998 2092 2044 2041 2059 2051 2115 2070 2105</counts>
			</dataPoints>
		</scan>
	</xrdMeasurement>
</xrdMeasurements>
