<?xml version="1.0"?>
<xrdMeasurements xmlns="http://www.xrdml.com/XRDMeasurement/2.3" xmlns:xsi="http://www.w3.org/2001/XMLSchema-instance" xsi:schemaLocation="http://www.xrdml.com/XRDMeasurement/2.3 http://www.xrdml.com/XRDMeasurement/2.3/XRDMeasurement.xsd" status="Completed" recordIdentifier="{F2C6897D-236A-4A5B-AC5C-8E1A2DF2B77E}">
	<comment>
		<entry/>
	</comment>
	<sample type="To be analyzed">
		<id>GPSS_Li1p6Fe0p9Sc0p2Cl4_102325_68fa7650028f64128e25ed81</id>
		<name></name>
		<preparedBy></preparedBy>
	</sample>
	<xrdMeasurement measurementType="Scan" status="Completed" sampleMode="Reflection">
		<usedWavelength intended="K-Alpha 1">
			<kAlpha1 unit="Angstrom">1.5405980</kAlpha1>
			<kAlpha2 unit="Angstrom">1.5444260</kAlpha2>
			<kBeta unit="Angstrom">1.3922500</kBeta>
			<ratioKAlpha2KAlpha1>0.5000</ratioKAlpha2KAlpha1>
		</usedWavelength>
		<incidentBeamPath>
			<radius unit="mm">145.00</radius>
			<xRayTube id="1010048" name="Empyrean Cu LFF HR (9430 033 7310x)">
				<tension unit="kV">40.0</tension>
				<current unit="mA">15.0</current>
				<anodeMaterial>Cu</anodeMaterial>
				<focus type="Line">
					<length unit="mm">12.0</length>
					<width unit="mm">0.4</width>
					<takeOffAngle unit="deg">6.0</takeOffAngle>
				</focus>
			</xRayTube>
			<sollerSlit id="21010002" name="Soller slits 0.04 rad.">
				<opening unit="rad">0.0400</opening>
			</sollerSlit>
			<mask id="22031000" name="Fixed mask 13 mm">
				<width unit="mm">9.00</width>
			</mask>
			<divergenceSlit id="22120001" name="Divergence slit 1°" xsi:type="fixedDivergenceSlitType">
				<distanceToSample unit="mm">50.00</distanceToSample>
				<height unit="mm">1.52</height>
			</divergenceSlit>
		</incidentBeamPath>
		<sampleMovement xsi:type="spinningSampleMovementType">
			<spinnerRevolutionTime unit="seconds">1.0</spinnerRevolutionTime>
		</sampleMovement>
		<diffractedBeamPath>
			<radius unit="mm">145.00</radius>
			<antiScatterSlit id="22090040" name="AS slit 9 mm (PIXcel)" xsi:type="fixedAntiScatterSlitType">
				<height unit="mm">9.00</height>
			</antiScatterSlit>
			<sollerSlit id="21020003" name="Large Soller slits 0.04 rad.">
				<opening unit="rad">0.0400</opening>
			</sollerSlit>
			<filter id="20030001" name="Large beta-filter Nickel">
				<material>Ni</material>
				<thickness unit="mm">0.020</thickness>
			</filter>
			<detector id="7010019" name="PIXcel1D-Medipix3 detector" xsi:type="rtmsDetectorType">
				<phd unit="keV">
					<lowerLevel>4.02</lowerLevel>
					<upperLevel>11.27</upperLevel>
				</phd>
				<mode>Scanning</mode>
				<activeLength unit="deg">5.542</activeLength>
			</detector>
		</diffractedBeamPath>
		<scan appendNumber="0" mode="Continuous" scanAxis="Gonio" status="Completed">
			<header>
				<startTimeStamp>2025-10-28T17:56:44-07:00</startTimeStamp>
				<endTimeStamp>2025-10-28T18:04:51-07:00</endTimeStamp>
				<author>
					<name>AutomatedUser</name>
				</author>
				<source>
					<applicationSoftware version="1.7b (136)">PANalytical Aeris Instrument Suite</applicationSoftware>
					<instrumentControlSoftware version="3.2.00000000 20240306">AERIS</instrumentControlSoftware>
					<instrumentID>950485</instrumentID>
				</source>
			</header>
			<dataPoints>
				<positions axis="2Theta" unit="deg">
					<startPosition>10.00943322</startPosition>
					<endPosition>99.99442286</endPosition>
				</positions>
				<positions axis="Omega" unit="deg">
					<startPosition>5.00471661</startPosition>
					<endPosition>49.99721143</endPosition>
				</positions>
				<commonCountingTime unit="seconds">12.495</commonCountingTime>
				<counts unit="counts">3010 3025 3020 2986 3071 3086 3077 3105 3103 3027 2965 3005 3004 3029 3096 3111 3151 3104 3214 3019 3063 3127 3057 3020 3111 3052 3099 2965 3219 2995 3084 3074 3008 3080 3150 3086 2932 3174 3044 3098 3112 3111 3215 3214 3055 3214 3305 2984 3060 3108 3289 3054 3163 3152 3153 3233 3157 3059 3223 3259 3143 3221 3087 3175 3152 3126 3198 3162 3132 3181 3209 3136 3144 3231 3166 3186 3237 3113 3198 3169 3237 3277 3256 3219 3049 3252 3268 3106 3161 3249 3130 3196 3104 3213 3258 3195 3222 3234 3159 3236 3283 3189 3231 3268 3163 3238 3335 3209 3273 3325 3174 3162 3200 3209 3229 3265 3200 3235 3254 3114 3241 3325 3203 3149 3293 3248 3286 3247 3205 3314 3230 3261 3352 3271 3267 3171 3252 3284 3208 3188 3166 3263 3244 3190 3325 3248 3217 3244 3230 3303 3284 3266 3249 3297 3219 3299 3241 3243 3303 3240 3233 3188 3273 3178 3211 3267 3296 3230 3279 3273 3276 3295 3340 3225 3293 3163 3339 3191 3240 3264 3195 3261 3272 3329 3266 3327 3283 3246 3245 3234 3241 3219 3143 3264 3181 3214 3211 3169 3226 3166 3206 3152 3159 3207 3227 3195 3315 3169 3302 3272 3110 3186 3296 3225 3194 3081 3198 3226 3133 3204 3182 3291 3177 3231 3162 3220 3192 3196 3120 3183 3212 3255 3087 3188 3088 3141 3198 3156 3080 3112 3192 3154 3260 3171 3218 3080 3106 3175 3119 3072 3215 3088 3199 3142 3263 3205 3113 3224 3144 3197 3183 3059 3246 3065 3165 3185 3095 3172 3230 3131 3126 3219 3172 3193 3113 3152 3220 3215 3032 3050 3217 3109 3210 3133 3214 3159 3288 3161 3184 3159 3220 3059 3167 3204 3115 3257 3071 3177 3260 3191 3183 3212 3167 3223 3229 3154 3243 3199 3219 3210 3218 3243 3117 3154 3242 3277 3234 3243 3170 3230 3307 3211 3293 3253 3237 3257 3317 3295 3276 3224 3432 3210 3417 3290 3333 3401 3214 3203 3323 3312 3266 3385 3359 3330 3387 3423 3387 3377 3401 3424 3394 3401 3450 3381 3372 3375 3412 3427 3522 3510 3464 3428 3400 3315 3480 3535 3510 3475 3549 3553 3424 3528 3405 3415 3477 3467 3484 3527 3525 3528 3629 3586 3490 3549 3500 3616 3496 3660 3609 3617 3613 3530 3602 3675 3616 3713 3680 3719 3580 3632 3682 3670 3627 3623 3640 3703 3635 3717 3764 3653 3904 3795 3774 3760 3735 3734 3864 3830 3904 3824 3933 3835 4008 3857 3968 3942 4037 4038 4092 4223 4136 4114 4244 4235 4384 4435 4572 4527 4515 4634 4654 4792 4828 4821 4871 5017 4969 5294 5309 5525 5319 5597 5567 5650 5768 5806 5903 6022 6244 6224 6518 6599 6650 6752 6885 7139 7129 7249 7316 7451 7468 7784 7827 7956 8144 8231 8429 8364 8385 8712 8674 8686 8817 8602 8824 8599 8626 8579 8390 8069 8037 7933 7762 7648 7642 7456 7373 7311 7219 7106 6973 6844 6730 6667 6648 6697 6645 6663 6822 6839 6974 7022 6914 6972 6881 6800 6622 6237 5768 5251 4994 4612 4385 4045 4076 3889 3874 3709 3660 3713 3665 3669 3774 3604 3573 3725 3546 3594 3642 3670 3645 3622 3562 3536 3559 3622 3661 3532 3557 3530 3498 3592 3500 3509 3451 3533 3445 3557 3417 3431 3446 3439 3521 3435 3509 3446 3479 3438 3411 3397 3342 3456 3483 3471 3306 3388 3482 3348 3417 3460 3471 3301 3395 3335 3404 3359 3511 3360 3437 3394 3375 3449 3467 3325 3374 3339 3341 3401 3312 3373 3272 3429 3307 3324 3347 3244 3361 3357 3294 3228 3310 3244 3320 3373 3237 3272 3363 3386 3260 3288 3253 3227 3334 3282 3171 3252 3196 3130 3263 3265 3294 3414 3192 3237 3398 3302 3248 3262 3210 3259 3267 3254 3324 3233 3229 3294 3315 3274 3197 3260 3348 3219 3269 3223 3249 3306 3121 3213 3297 3303 3212 3237 3078 3230 3301 3286 3274 3355 3305 3222 3342 3252 3309 3291 3276 3235 3230 3258 3260 3262 3275 3243 3225 3245 3355 3319 3213 3133 3287 3322 3157 3139 3346 3120 3235 3227 3239 3197 3313 3324 3323 3287 3267 3289 3301 3278 3283 3275 3190 3190 3166 3118 3161 3256 3165 3106 3231 3160 3200 3080 3109 3163 3151 3077 3235 3055 3211 3105 3201 3131 3257 3201 3240 3229 3057 3160 3122 3124 3150 3320 3101 3186 3037 3104 3135 3111 3169 3164 3138 3086 3141 3069 3158 3135 3199 3142 3085 3188 3111 3096 3161 3144 3141 3136 3131 3070 3157 3083 3151 3134 3071 3148 3110 3051 3193 3131 3092 3114 3096 3056 3002 3193 3075 3135 3170 3154 3126 3151 3053 3073 3055 3070 3093 3056 3109 3070 3049 2971 3123 3059 3071 3018 3139 3040 3048 3150 3030 3018 3061 3148 2961 3147 3018 2938 3091 3112 3028 3068 3029 3108 3030 3044 3031 3054 3078 3009 3070 3153 3069 2993 3009 3089 3037 2948 3029 3101 2978 3089 3012 2941 3089 3136 3085 2998 3009 3074 3041 3072 2982 3014 3019 3031 3005 3062 3005 2969 2931 2831 3016 3129 3003 3079 2999 3053 2992 2923 2967 3000 2957 3116 3011 3025 2919 3100 2934 2913 3000 2971 2980 3001 2988 2956 3018 3001 3043 2941 2951 2913 3002 2994 2977 2933 3043 2951 2943 2962 2966 2969 2919 2923 2931 2927 2960 3088 2997 3059 3030 2936 2910 2862 2965 3000 2996 2981 2973 2973 2941 3025 3026 2982 2977 2994 2893 2886 2925 2919 2967 2794 2896 2895 2982 2905 2962 2993 2907 2930 2844 2938 2975 2889 2969 2922 2845 2894 2928 3036 2898 2964 2986 2896 2781 2994 2903 2898 2909 3007 2875 2865 2916 2848 2805 2977 2932 2912 2928 2928 2929 2920 2846 2849 2906 2895 2896 2914 2886 2879 2877 2847 2842 2721 2969 2815 2917 2799 2885 2846 2832 2821 2734 2908 2899 2997 2898 2827 2844 2854 2861 2915 2847 2885 2862 2851 2903 2862 2898 2841 2920 2901 2890 2803 2791 2774 2771 2868 2866 2894 2981 2985 2930 2862 2922 2878 2912 2994 2942 2984 2892 3045 2895 2854 2763 2923 2901 2844 2958 2907 2928 2856 2941 2788 2916 2833 2859 2872 2849 2921 2905 2904 2834 2907 2890 2827 2903 2874 2860 2894 2934 2916 2948 2898 2941 2933 2956 2930 2934 2962 2906 2969 2854 2932 2953 2972 3012 2890 2899 2873 2967 2927 2899 2879 2823 2972 2946 2931 2932 2858 2927 2879 2891 2949 2864 2914 2869 2933 2895 2782 3070 2791 2950 2932 2804 2828 2961 2847 2971 2927 2947 2887 3064 2893 2888 2863 2989 2937 2970 2858 2929 2835 2939 2864 2887 2951 2878 2879 2940 2877 2903 2875 2869 2871 2991 2898 2973 2994 2880 2931 2846 2917 2895 2888 2904 2842 2873 2877 2856 2903 2975 2827 2855 2876 2858 2862 2925 2786 2834 2857 2885 2901 2764 2824 2782 2927 2910 2907 2790 2835 2827 2804 2801 2777 2828 2739 2775 2790 2749 2814 2854 2813 2861 2774 2836 2761 2717 2717 2660 2777 2735 2647 2768 2696 2760 2795 2748 2746 2627 2725 2666 2738 2713 2834 2695 2774 2769 2721 2641 2619 2735 2669 2740 2736 2699 2805 2688 2741 2654 2679 2699 2632 2695 2623 2659 2703 2617 2653 2747 2617 2720 2603 2643 2677 2688 2541 2634 2565 2497 2569 2592 2571 2498 2567 2543 2559 2648 2458 2572 2566 2596 2604 2593 2580 2545 2619 2446 2518 2502 2606 2641 2543 2646 2513 2633 2576 2464 2455 2592 2463 2504 2526 2527 2504 2457 2536 2480 2538 2528 2428 2422 2579 2642 2535 2421 2496 2609 2551 2497 2415 2547 2499 2466 2450 2496 2423 2567 2459 2503 2484 2482 2472 2428 2507 2510 2497 2378 2512 2349 2461 2507 2540 2487 2473 2473 2448 2436 2513 2419 2364 2444 2373 2415 2375 2411 2414 2439 2410 2400 2399 2425 2432 2330 2435 2476 2395 2388 2436 2467 2497 2422 2451 2454 2421 2479 2375 2414 2469 2427 2384 2419 2336 2445 2497 2470 2473 2509 2545 2473 2338 2456 2427 2522 2423 2420 2455 2584 2475 2464 2441 2437 2384 2498 2365 2390 2437 2360 2369 2489 2412 2409 2327 2445 2459 2445 2392 2494 2471 2459 2365 2389 2449 2408 2279 2454 2241 2345 2328 2375 2422 2403 2373 2312 2410 2287 2299 2404 2376 2359 2435 2457 2335 2426 2347 2360 2413 2357 2426 2448 2406 2285 2493 2319 2429 2326 2332 2348 2401 2371 2436 2324 2422 2369 2329 2354 2376 2352 2342 2465 2412 2406 2333 2374 2413 2325 2350 2341 2323 2411 2389 2304 2414 2323 2438 2424 2443 2403 2313 2407 2376 2486 2385 2426 2371 2369 2356 2536 2419 2395 2318 2327 2456 2370 2440 2324 2406 2416 2346 2397 2408 2384 2416 2395 2382 2418 2387 2434 2391 2413 2428 2396 2408 2324 2382 2308 2391 2399 2352 2347 2293 2279 2368 2372 2354 2296 2393 2433 2399 2444 2343 2347 2359 2351 2382 2382 2417 2380 2392 2431 2391 2358 2394 2397 2438 2379 2394 2406 2375 2381 2404 2444 2396 2362 2348 2484 2444 2326 2408 2414 2356 2333 2467 2319 2404 2384 2348 2256 2363 2389 2352 2339 2407 2294 2266 2327 2377 2411 2347 2261 2272 2275 2323 2307 2298 2377 2314 2402 2366 2302 2400 2333 2265 2335 2327 2293 2314 2304 2215 2415 2361 2318 2302 2266 2313 2319 2302 2298 2351 2266 2269 2304 2364 2227 2236 2291 2357 2256 2156 2316 2363 2377 2248 2292 2207 2284 2207 2314 2246 2312 2247 2267 2257 2281 2260 2197 2196 2161 2224 2228 2264 2223 2090 2231 2169 2186 2190 2295 2179 2192 2229 2255 2225 2100 2160 2145 2152 2196 2255 2197 2235 2166 2147 2175 2189 2154 2280 2134 2167 2177 2187 2211 2199 2157 2144 2148 2130 2162 2250 2091 2086 2250 2130 2134 2105 2038 2098 2205 2185 2107 2115 2197 2212 2149 2120 2115 2088 2132 2108 2079 2164 2120 2011 2207 2146 2123 2184 2145 2133 2136 2160 2108 2076 2060 2193 2179 2220 2049 2170 2186 2103 2117 2063 2153 2136 2150 2164 2217 2131 2249 2249 2187 2106 2160 2193 2222 2169 2241 2220 2263 2284 2254 2198 2382 2341 2316 2385 2352 2390 2372 2488 2416 2463 2400 2605 2582 2561 2545 2549 2533 2606 2590 2673 2602 2656 2638 2692 2720 2615 2687 2636 2618 2545 2561 2650 2487 2628 2448 2479 2445 2463 2434 2323 2404 2388 2420 2185 2247 2242 2290 2212 2234 2233 2206 2177 2103 2194 2146 2091 2127 2094 2111 2077 2206 2098 2110 2121 2171 2119 2138 2121 2083 2128 2095 2108 2082 2059 2081 2143 2144 2131 2102 2147 2034 2064 1984 2092 2116 2022 2012 2139 2064 2123 2106 2146 2156 2128 2166 2190 2152 2159 2182 2128 2303 2324 2266 2216 2317 2267 2331 2312 2421 2382 2315 2455 2499 2519 2642 2553 2623 2806 2729 2961 2809 2942 2919 3136 3265 3310 3246 3513 3498 3625 3635 3849 3816 4022 4098 4221 4122 4332 4395 4706 4514 4782 4776 4916 4891 4919 4842 4812 4593 4745 4699 4442 4484 4342 4232 4095 3897 3871 3758 3692 3626 3644 3551 3456 3272 3310 3197 3098 3104 3046 3087 3057 2962 2969 2862 2859 2735 2667 2528 2459 2387 2388 2385 2138 2243 2333 2186 2013 2084 2102 2141 2058 2122 2060 1951 2004 2039 2073 1964 2071 2137 2003 2031 2107 2120 2117 2014 2141 2135 2047 2112 2064 1981 1996 2046 1948 1988 1970 1965 2004 1972 2047 1966 1901 1923 1881 1916 2018 1856 1920 1836 1841 2006 1884 1951 1894 1852 1887 1856 1866 1897 1839 1943 1856 1937 1890 1824 1719 1943 1928 1903 1942 1820 1863 1842 1863 1874 1856 1788 1871 1784 1911 1885 1921 1845 1812 1913 1874 1803 1909 1870 1848 1890 1801 1913 1901 1854 1915 1912 1881 1873 1888 1894 1823 1872 1932 1919 1880 1803 1903 1823 1828 1847 1830 1834 1858 1895 1932 1978 1851 1962 1944 1953 2006 1952 1914 1969 1966 1937 1931 1963 1888 1970 1884 1883 1978 2024 1961 2028 1990 1959 1965 1991 1866 2031 1954 2018 2023 2002 1998 2055 2035 1993 2095 2002 2006 1991 1913 1850 2041 1925 1911 1990 1881 1874 1888 1857 1847 1815 1867 1742 1816 1848 1892 1854 1818 1799 1783 1817 1809 1814 1860 1799 1776 1764 1886 1822 1870 1812 1843 1834 1881 1821 1821 1793 1819 1772 1756 1842 1866 1783 1767 1916 1693 1803 1830 1792 1829 1679 1759 1851 1770 1860 1740 1782 1764 1861 1766 1736 1794 1809 1800 1778 1867 1838 1854 1862 1736 1859 1749 1801 1832 1733 1800 1823 1845 1864 1825 1809 1788 1778 1795 1878 1798 1848 1924 1777 1766 1846 1812 1797 1756 1778 1799 1781 1897 1784 1768 1817 1792 1817 1754 1783 1758 1853 1801 1767 1762 1835 1782 1835 1783 1799 1849 1794 1866 1793 1835 1802 1763 1897 1839 1759 1863 1758 1834 1696 1812 1837 1881 1851 1788 1862 1817 1801 1798 1849 1847 1835 1912 1832 1853 1838 1831 1853 1846 1929 1797 1817 1835 1842 1868 1803 1965 1922 1901 1851 1837 1956 1819 1883 1850 1751 1860 1869 1900 1869 1834 1880 1888 1921 1899 1908 2033 1927 1918 2011 1805 1955 1925 1987 2003 2016 2016 1979 2077 2027 2059 2099 2037 2102 2185 2179 2268 2246 2284 2223 2312 2312 2379 2427 2420 2531 2469 2643 2669 2733 2717 2804 2831 3100 2948 3197 3108 3276 3378 3388 3605 3762 3893 4008 4190 4355 4511 4458 4704 4752 4944 5135 5251 5302 5610 5815 5960 6034 6035 6136 6201 6426 6365 6313 6398 6565 6218 6311 6247 6173 6133 6172 5943 5584 5568 5436 5273 5096 5018 4794 4646 4644 4513 4442 4562 4261 4255 4273 4146 4072 3804 3792 3669 3581 3378 3279 3327 3106 3056 2926 2743 2642 2613 2572 2531 2478 2384 2405 2391 2357 2263 2252 2236 2257 2253 2213 2180 2264 2247 2205 2238 2218 2204 2179 2142 2117 2151 2105 2142 2145 2098 2041 2050 2138 2035 1960 1992 1956 1973 1960 1934 1914 1876 1799 1861 1795 1832 1827 1889 1805 1833 1751 1908 1792 1807 1846 1730 1816 1860 1806 1860 1800 1785 1842 1785 1810 1751 1795 1750 1739 1868 1808 1844 1744 1849 1769 1817 1882 1876 1795 1833 1814 1779 1802 1855 1797 1820 1732 1809 1787 1766 1779 1815 1818 1790 1798 1798 1744 1795 1744 1808 1817 1736 1716 1788 1803 1762 1802 1801 1840 1765 1782 1724 1796 1825 1741 1754 1842 1808 1768 1741 1775 1722 1791 1800 1749 1826 1696 1748 1763 1763 1715 1755 1740 1797 1792 1802 1780 1776 1769 1768 1754 1798 1782 1738 1831 1765 1667 1736 1746 1730 1786 1735 1754 1792 1761 1800 1794 1777 1762 1762 1804 1724 1786 1806 1748 1714 1696 1730 1844 1749 1813 1726 1690 1775 1735 1745 1745 1727 1772 1712 1672 1804 1786 1791 1788 1762 1733 1776 1704 1788 1806 1743 1757 1748 1702 1715 1753 1808 1739 1686 1771 1711 1652 1761 1757 1841 1742 1705 1758 1704 1714 1707 1767 1704 1744 1773 1712 1761 1698 1824 1842 1767 1740 1812 1762 1749 1771 1800 1747 1742 1677 1769 1768 1772 1823 1688 1768 1727 1735 1726 1794 1830 1872 1837 1794 1764 1807 1759 1757 1802 1815 1823 1868 1864 1797 1876 1884 1767 1830 1875 1832 1776 1801 1772 1799 1797 1792 1802 1773 1838 1786 1851 1910 1775 1753 1673 1710 1823 1743 1790 1820 1800 1790 1764 1759 1795 1770 1779 1720 1809 1733 1677 1811 1728 1805 1794 1845 1726 1746 1761 1760 1715 1749 1824 1835 1787 1756 1749 1751 1735 1779 1756 1780 1825 1748 1805 1774 1787 1759 1724 1770 1738 1686 1796 1714 1817 1791 1792 1804 1774 1736 1766 1727 1740 1717 1705 1665 1788 1758 1738 1729 1747 1767 1686 1662 1790 1769 1759 1799 1661 1754 1682 1719 1767 1742 1757 1725 1743 1771 1793 1718 1739 1699 1681 1703 1764 1786 1788 1718 1789 1773 1789 1772 1790 1796 1802 1710 1731 1726 1797 1777 1832 1769 1712 1748 1726 1707 1687 1698 1600 1750 1690 1683 1722 1724 1698 1675 1691 1692 1696 1764 1736 1752 1725 1731 1724 1680 1686 1660 1765 1658 1682 1684 1654 1639 1751 1601 1677 1688 1681 1739 1650 1704 1697 1777 1739 1701 1678 1663 1745 1670 1696 1714 1755 1647 1744 1678 1674 1683 1653 1732 1637 1638 1709 1685 1674 1721 1700 1744 1670 1727 1709 1696 1696 1735 1807 1733 1833 1679 1788 1751 1735 1769 1693 1786 1648 1700 1676 1777 1735 1681 1709 1798 1720 1726 1694 1624 1688 1713 1674 1649 1707 1747 1696 1770 1729 1663 1727 1705 1682 1694 1651 1730 1712 1676 1648 1664 1637 1611 1718 1742 1678 1745 1662 1683 1766 1719 1787 1735 1660 1610 1743 1781 1655 1682 1716 1708 1676 1732 1722 1706 1727 1755 1762 1816 1691 1763 1783 1685 1719 1698 1719 1638 1772 1742 1703 1774 1715 1748 1734 1694 1715 1702 1743 1677 1669 1730 1786 1697 1756 1675 1645 1698 1767 1669 1624 1681 1763 1754 1743 1737 1832 1730 1713 1725 1721 1691 1804 1727 1813 1704 1679 1731 1706 1723 1711 1734 1787 1858 1782 1801 1786 1785 1790 1807 1872 1756 1746 1845 1842 1817 1777 1837 1916 1761 1833 1806 1862 1823 1815 1836 1782 1857 1880 1854 1874 1978 1839 1882 1851 1813 1839 1806 1823 1761 1782 1751 1716 1765 1829 1782 1782 1737 1749 1760 1764 1705 1693 1733 1747 1779 1750 1707 1587 1783 1724 1703 1771 1694 1640 1774 1746 1700 1775 1682 1714 1739 1723 1745 1686 1680 1599 1758 1644 1730 1635 1693 1729 1683 1638 1762 1694 1674 1662 1682 1656 1692 1748 1761 1754 1651 1686 1684 1686 1740 1703 1677 1749 1722 1649 1734 1701 1666 1658 1669 1758 1738 1633 1692 1657 1661 1679 1738 1789 1687 1724 1680 1747 1687 1744 1706 1759 1720 1753 1782 1643 1676 1717 1664 1675 1721 1784 1756 1819 1709 1661 1714 1757 1711 1699 1715 1734 1706 1651 1729 1721 1744 1823 1677 1713 1831 1826 1746 1653 1751 1751 1733 1791 1793 1725 1730 1731 1679 1722 1695 1690 1727 1716 1739 1744 1757 1772 1661 1629 1726 1707 1689 1627 1621 1758 1708 1693 1664 1726 1684 1717 1617 1716 1692 1756 1620 1687 1598 1740 1637 1703 1712 1769 1609 1704 1678 1716 1710 1735 1628 1760 1707 1704 1695 1677 1644 1606 1675 1606 1744 1701 1687 1682 1688 1725 1621 1667 1724 1754 1707 1715 1616 1635 1645 1686 1717 1623 1701 1678 1714 1695 1640 1731 1667 1751 1681 1748 1572 1629 1640 1752 1704 1655 1646 1659 1691 1647 1706 1679 1663 1693 1778 1768 1645 1795 1729 1654 1668 1692 1709 1680 1674 1744 1704 1686 1640 1665 1747 1615 1665 1668 1699 1643 1718 1686 1645 1744 1721 1670 1675 1775 1723 1677 1732 1696 1654 1693 1705 1787 1719 1728 1732 1703 1753 1743 1741 1706 1678 1759 1804 1768 1708 1740 1715 1752 1667 1698 1724 1705 1717 1716 1667 1646 1684 1714 1762 1718 1765 1760 1696 1809 1777 1695 1708 1740 1727 1692 1751 1735 1686 1710 1760 1794 1737 1698 1710 1820 1726 1827 1798 1736 1800 1786 1812 1756 1815 1882 1894 1888 1916 1909 1823 1911 1970 1883 1908 1942 1947 1959 1940 2056 2019 2050 2094 2121 2099 2067 2112 2109 2115 2111 2198 2090 2157 2096 2071 2079 2062 2054 2108 2155 2124 2074 2019 2056 2045 2103 2090 2003 1990 2022 1914 1957 1912 1967 1944 1906 1922 1971 1911 1901 1893 1890 1914 1826 1836 1887 1783 1814 1960 1842 1851 1850 1778 1798 1836 1875 1830 1843 1721 1854 1755 1824 1773 1749 1777 1670 1788 1748 1795 1870 1781 1735 1785 1758 1783 1697 1784 1707 1902 1736 1760 1831 1753 1818 1769 1840 1734 1779 1770 1855 1821 1814 1888 1853 1741 1822 1821 1831 1873 1826 1909 1893 1932 1884 1897 1888 1819 1886 1915 1905 1804 1846 1858 1899 1888 1912 1848 1930 1880 1947 1879 1843 1822 1886 1770 1800 1795 1807 1844 1808 1769 1804 1705 1720 1700 1733 1663 1657 1658 1657 1638 1712 1607 1692 1719 1703 1639 1709 1713 1691 1624 1626 1654 1711 1671 1673 1663 1763 1685 1749 1730 1718 1681 1776 1636 1729 1752 1663 1741 1700 1661 1676 1644 1677 1707 1712 1694 1623 1748 1685 1685 1688 1673 1686 1740 1646 1707 1682 1735 1651 1654 1673 1625 1665 1709 1777 1666 1716 1708 1635 1740 1662 1638 1691 1775 1718 1712 1682 1708 1664 1741 1674 1684 1655 1705 1670 1649 1671 1766 1743 1693 1661 1696 1646 1711 1670 1761 1701 1653 1679 1681 1668 1774 1672 1726 1680 1696 1746 1732 1727 1732 1710 1717 1662 1740 1694 1734 1632 1750 1736 1729 1691 1782 1758 1756 1689 1698 1750 1734 1788 1739 1714 1730 1779 1721 1698 1678 1749 1702 1731 1716 1682 1748 1677 1688 1670 1702 1671 1670 1651 1728 1698 1843 1695 1723 1718 1676 1671 1748 1852 1732 1719 1812 1687 1739 1673 1710 1780 1697 1674 1774 1719 1671 1784 1692 1710 1737 1702 1715 1612 1792 1718 1645 1770 1741 1780 1733 1717 1835 1744 1726 1694 1768 1670 1698 1743 1748 1701 1755 1813 1687 1709 1722 1714 1774 1753 1728 1694 1773 1725 1770 1816 1720 1746 1779 1820 1710 1801 1749 1830 1715 1835 1865 1846 1787 1856 1820 1888 1883 1951 1904 1896 1900 1889 1970 1949 2048 2045 2011 2020 2198 2141 2207 2158 2180 2275 2268 2317 2325 2369 2403 2586 2532 2696 2597 2713 2703 2871 2845 3043 3037 3097 3150 3164 3259 3364 3499 3492 3598 3665 3702 3740 3777 3757 3799 3668 3840 3594 3745 3617 3642 3648 3637 3524 3521 3475 3471 3496 3425 3286 3198 3179 3103 3096 2943 3035 2872 2917 2800 2870 2850 2688 2719 2723 2607 2501 2638 2590 2518 2577 2497 2488 2463 2425 2391 2450 2468 2392 2342 2381 2165 2146 2290 2139 2115 2038 2089 2096 2070 1923 2062 2014 1981 2023 1962 1934 2003 1927 1979 1932 1987 1822 1839 1931 1840 1882 1943 1868 1982 1897 1906 1970 1928 1992 1887 1903 1926 1979 1986 2059 1905 1887 2020 2007 2014 1957 1976 1995 1945 2060 1983 1959 2007 2029 1963 1954 2000 2036 1899 1933 2024 1982 1937 1949 1897 1975 1821 1947 1905 1917 1953 1888 1874 1886 1844 1821 1773 1819 1728 1752 1810 1727 1779 1729 1686 1752 1756 1702 1750 1707 1737 1715 1745 1685 1727 1717 1771 1693 1681 1737 1761 1745 1666 1698 1815 1714 1647 1677 1761 1709 1646 1688 1663 1767 1690 1724 1613 1704 1735 1692 1721 1634 1683 1651 1716 1722 1692 1684 1664 1681 1679 1789 1784 1763 1680 1724 1760 1752 1762 1729 1681 1693 1719 1735 1673 1770 1821 1760 1764 1771 1720 1842 1823 1782 1772 1766 1720 1775 1806 1822 1889 1818 1851 1868 1784 1916 1876 1859 1900 1911 1875 1896 1926 1919 1876 1944 1852 1891 1900 1923 1877 1981 1906 1941 1873 1931 2011 1903 1956 1885 1872 1867 1864 1893 1842 1851 1813 1884 1862 1816 1889 1817 1795 1877 1756 1824 1778 1868 1826 1772 1782 1828 1738 1881 1764 1814 1843 1793 1773 1815 1781 1764 1819 1763 1805 1783 1743 1775 1761 1802 1760 1781 1729 1661 1750 1695 1714 1664 1742 1711 1726 1734 1776 1630 1749 1720 1769 1738 1689 1732 1679 1758 1709 1827 1659 1760 1708 1706 1676 1733 1754 1685 1701 1692 1746 1756 1779 1818 1711 1669 1739 1740 1749 1766 1752 1695 1745 1756 1761 1670 1708 1679 1740 1782 1775 1750 1715 1680 1699 1799 1720 1718 1697 1704 1676 1648 1666 1643 1717 1704 1628 1755 1649 1607 1669 1646 1750 1725 1698 1697 1744 1668 1703 1634 1679 1641 1644 1666 1650 1724 1681 1705 1733 1813 1726 1611 1650 1704 1716 1666 1696 1725 1679 1738 1670 1644 1682 1753 1668 1761 1646 1734 1694 1760 1682 1689 1682 1697 1720 1765 1732 1622 1624 1702 1717 1747 1650 1695 1700 1683 1715 1703 1723 1668 1700 1694 1752 1741 1731 1713 1645 1791 1701 1699 1726 1683 1712 1746 1780 1706 1723 1651 1711 1764 1790 1755 1731 1771 1722 1682 1792 1710 1789 1801 1763 1764 1804 1831 1866 1782 1890 1931 1849 1891 1830 1805 1798 1850 1757 1867 1866 1779 1820 1763 1716 1774 1713 1757 1730 1763 1698 1814 1748 1718 1727 1755 1635 1720 1636 1718 1752 1784 1668 1635 1698 1648 1675 1680 1703 1665 1734 1646 1697 1688 1708 1688 1661 1640 1632 1688 1630 1719 1666 1698 1623 1687 1648 1581 1584 1734 1718 1692 1677 1666 1733 1696 1611 1689 1598 1732 1743 1647 1664 1720 1688 1687 1645 1766 1646 1675 1647 1649 1697 1683 1721 1610 1671 1641 1662 1656 1647 1653 1686 1643 1693 1632 1688 1691 1684 1693 1707 1665 1656 1724 1655 1581 1749 1708 1624 1674 1700 1638 1694 1699 1667 1650 1753 1714 1708 1672 1656 1651 1646 1624 1761 1647 1695 1683 1616 1627 1678 1625 1655 1685 1668 1623 1656 1606 1657 1642 1665 1627 1652 1705 1729 1748 1645 1643 1673 1639 1678 1679 1658 1662 1664 1694 1708 1676 1695 1650 1803 1632 1681 1691 1666 1687 1608 1660 1668 1726 1573 1633 1674 1715 1642 1759 1691 1716 1641 1741 1639 1724 1720 1717 1712 1652 1637 1652 1723 1721 1728 1651 1718 1669 1604 1754 1640 1641 1659 1632 1701 1693 1641 1667 1691 1618 1701 1736 1558 1717 1681 1636 1653 1632 1694 1632 1730 1738 1575 1720 1597 1629 1575 1720 1607 1698 1677 1667 1679 1720 1666 1675 1660 1745 1620 1666 1650 1632 1727 1682 1564 1717 1647 1680 1714 1680 1659 1678 1650 1705 1693 1694 1745 1605 1710 1672 1675 1636 1692 1629 1651 1662 1695 1687 1680 1589 1724 1670 1687 1647 1693 1687 1598 1630 1697 1616 1659 1721 1720 1752 1624 1702 1666 1663 1694 1660 1670 1670 1648 1634 1744 1692 1705 1674 1647 1556 1648 1687 1628 1699 1621 1670 1709 1592 1615 1677 1640 1703 1652 1659 1674 1718 1638 1678 1640 1703 1633 1705 1696 1755 1643 1702 1658 1731 1731 1701 1714 1712 1767 1674 1792 1687 1744 1695 1809 1709 1740 1704 1661 1805 1713 1757 1734 1768 1753 1724 1637 1741 1786 1758 1752 1715 1778 1732 1720 1785 1718 1726 1753 1752 1760 1824 1648 1800 1762 1746 1678 1728 1754 1720 1661 1777 1812 1674 1702 1732 1799 1830 1802 1734 1763 1780 1846 1709 1755 1800 1770 1644 1738 1770 1816 1797 1851 1781 1740 1895 1796 1907 1830 1810 1893 1882 1885 1903 1941 1869 1878 1912 1940 1948 1897 1952 1992 1960 1925 1891 1933 1899 1887 1880 1958 1898 1957 1943 1853 1899 1921 1908 1876 1932 1912 1906 1927 1936 1917 1876 1869 1904 1844 1908 1847 1870 1887 1948 1854 1870 1946 1935 1887 1914 1907 1918 1952 1938 1942 1974 2035 1925 2007 1952 1921 1961 1907 1905 1896 1872 1862 1894 1772 1890 1822 1811 1826 1859 1821 1791 1834 1768 1772 1792 1720 1706 1755 1772 1738 1768 1664 1669 1706 1717 1634 1675 1772 1639 1736 1677 1729 1744 1674 1703 1651 1763 1728 1686 1649 1741 1664 1657 1671 1669 1728 1692 1690 1675 1700 1709 1717 1689 1749 1729 1699 1646 1750 1727 1647 1630 1648 1607 1645 1676 1679 1685 1737 1684 1675 1680 1718 1723 1700 1681 1678 1686 1662 1634 1672 1651 1679 1738 1685 1711 1688 1718 1689 1628 1694 1685 1704 1644 1715 1690 1679 1634 1642 1698 1693 1665 1702 1622 1703 1674 1736 1744 1646 1687 1630 1699 1705 1631 1722 1630 1700 1672 1746 1631 1707 1719 1692 1788 1717 1709 1659 1718 1697 1705 1683 1688 1739 1610 1735 1655 1697 1688 1658 1726 1717 1652 1692 1745 1758 1753 1610 1757 1620 1664 1729 1744 1778 1721 1680 1659 1659 1738 1767 1766 1654 1686 1678 1723 1756 1741 1738 1728 1786 1777 1733 1697 1729 1746 1744 1763 1854 1734 1811 1778 1807 1814 1812 1777 1832 1833 1910 1916 1969 1830 1937 1956 1931 1989 2018 2048 2012 2061 2112 2111 2150 2093 2210 2200 2391 2387 2405 2401 2359 2417 2319 2385 2504 2435 2495 2453 2453 2578 2476 2471 2614 2525 2631 2540 2480 2509 2531 2575 2503 2572 2497 2473 2477 2346 2399 2362 2346 2377 2316 2307 2226 2226 2242 2248 2246 2224 2282 2104 2121 2143 2066 2057 2125 2114 2033 2133 2161 2039 2110 2154 2210 2076 2104 2055 2185 2106 2024 2147 2080 2145 2166 2191 2091 2142 2058 2178 2161 2139 2194 2214 2186 2180 2138 2109 2058 2047 1929 1924 1918 1918 1872 1906 2003 1934 2009 1906 1873 1946 1928 1967 1748 1818 1806 1824 1866 1696 1827 1768 1815 1749 1804 1799 1815 1790 1755 1759 1828 1747 1785 1756 1787 1752 1805 1772 1786 1836 1745 1822 1895 1797 1788 1824 1772 1848 1889 1880 1888 1869 1917 1895 1931 1934 1941 1932 1998 1977 2059 2019 2032 2091 2001 2066 2068 2112 2146 2157 2180 2197 2273 2153 2359 2324 2382 2400 2437 2351 2431 2418 2383 2245 2160 2130 2167 2147 2122 2181 2040 2152 2087 2050 2131 2088 2126 2039 1980 1965 1929 1904 1891 1853 1782 1879 1845 1826 1794 1763 1792 1837 1818 1813 1735 1856 1897 1835 1848 1856 1831 1875 1796 1759 1772 1856 1785 1766 1827 1794 1836 1821 1792 1737 1865 1802 1748 1805 1774 1763 1707 1892 1751 1810 1779 1700 1814 1819 1770 1709 1809 1744 1748 1718 1721 1756 1789 1777 1719 1772 1809 1839 1748 1714 1763 1764 1753 1743 1770 1767 1717 1786 1751 1703 1671 1725 1721 1738 1664 1747 1655 1685 1701 1814 1687 1681 1715 1653 1758 1718 1746 1702 1749 1723 1658 1632 1717 1717 1730 1692 1658 1649 1688 1750 1723 1663 1621 1653 1691 1663 1623 1667 1647 1712 1639 1767 1725 1665 1697 1638 1713 1706 1726 1653 1703 1689 1634 1623 1698 1713 1660 1731 1688 1757 1715 1633 1659 1649 1787 1756 1721 1698 1724 1730 1743 1752 1725 1815 1756 1748 1686 1725 1686 1698 1689 1779 1718 1694 1720 1821 1817 1746 1673 1786 1713 1755 1737 1737 1706 1719 1707 1822 1795 1743 1872 1786 1690 1738 1616 1750 1682 1690 1730 1686 1754 1776 1716 1697 1672 1682 1688 1707 1657 1755 1715 1712 1650 1681 1682 1749 1711 1744 1645 1687 1689 1675 1677 1640 1672 1687 1726 1625 1769 1648 1702 1742 1657 1668 1758 1640 1584 1688 1636 1687 1698 1675 1635 1574 1704 1719 1773 1677 1696 1736 1698 1707 1653 1702 1626 1710 1630 1653 1696 1673 1721 1677 1674 1702 1713 1651 1703 1646 1634 1614 1642 1693 1694 1655 1626 1704 1728 1625 1654 1568 1686 1695 1644 1652 1656 1626 1728 1629 1671 1715 1707 1590 1666 1705 1642 1657 1565 1713 1602 1696 1701 1668 1794 1657 1691 1705 1704 1679 1660 1678 1713 1665 1719 1648 1646 1614 1637 1690 1635 1636 1585 1642 1697 1662 1611 1646 1675 1628 1659 1729 1665 1644 1721 1608 1690 1715 1725 1729 1629 1658 1646 1671 1721 1712 1676 1644 1702 1701 1736 1661 1686 1664 1697 1535 1681 1693 1613 1684 1650 1674 1667 1642 1731 1681 1689 1689 1650 1615 1615 1678 1648 1664 1650 1692 1647 1684 1678 1619 1668 1639 1674 1617 1711 1645 1647 1699 1735 1647 1592 1652 1645 1710 1655 1646 1714 1682 1698 1690 1688 1701 1667 1639 1625 1650 1652 1645 1696 1714 1627 1732 1683 1743 1654 1690 1621 1687 1669 1669 1701 1594 1637 1733 1653 1714 1685 1652 1740 1627 1610 1610 1588 1677 1678 1703 1613 1671 1675 1619 1674 1604 1718 1676 1661 1667 1603 1652 1679 1683 1644 1640 1631 1670 1608 1680 1686 1547 1680 1622 1676 1788 1570 1710 1654 1584 1657 1594 1630 1651 1607 1664 1635 1718 1625 1656 1668 1679 1653 1681 1661 1601 1630 1701 1595 1691 1689 1658 1675 1706 1613 1568 1663 1680 1654 1609 1677 1676 1660 1657 1683 1623 1640 1691 1684 1659 1657 1688 1670 1727 1697 1640 1708 1713 1733 1679 1691 1692 1684 1679 1657 1644 1712 1688 1664 1738 1660 1758 1679 1762 1666 1730 1733 1729 1725 1724 1761 1701 1738 1789 1705 1819 1764 1749 1641 1714 1764 1776 1827 1750 1698 1753 1821 1680 1697 1767 1691 1794 1753 1697 1813 1813 1822 1703 1689 1735 1707 1723 1773 1735 1719 1789 1754 1802 1803 1777 1678 1706 1804 1661 1812 1705 1730 1736 1708 1704 1718 1696 1648 1619 1744 1664 1762 1700 1742 1698 1721 1719 1696 1688 1679 1658 1675 1731 1649 1669 1678 1727 1668 1692 1663 1622 1636 1626 1656 1654 1636 1691 1674 1696 1748 1706 1618 1631 1580 1749 1737 1673 1738 1624 1649 1595 1696 1661 1653 1575 1617 1638 1701 1591 1644 1632 1745 1685 1664 1625 1720 1749 1613 1648 1607 1678 1744 1677 1693 1588 1604 1636 1700 1684 1617 1649 1656 1599 1657 1670 1674 1694 1739 1677 1664 1671 1676 1674 1646 1663 1657 1573 1605 1668 1603 1676 1658 1721 1698 1634 1741 1639 1643 1669 1663 1648 1705 1814 1611 1630 1721 1670 1652 1691 1704 1643 1671 1583 1717 1636 1665 1712 1663 1650 1676 1638 1685 1627 1657 1679 1652 1684 1673 1624 1708 1661 1688 1642 1654 1701 1641 1631 1630 1716 1638 1580 1616 1669 1716 1676 1715 1661 1685 1636 1642 1657 1739 1649 1678 1693 1652 1694 1605 1637 1631 1659 1725 1664 1721 1593 1645 1692 1667 1670 1730 1695 1687 1633 1672 1564 1667 1732 1728 1658 1623 1684 1701 1624 1669 1599 1669 1624 1626 1705 1647 1566 1717 1672 1570 1642 1604 1716 1660 1679 1714 1686 1666 1607 1632 1620 1663 1698 1634 1647 1658 1677 1683 1677 1663 1701 1605 1671 1635 1710 1645 1690 1693 1734 1672 1731 1683 1638 1679 1670 1681 1652 1637 1701 1783 1783 1800 1677 1781 1764 1648 1788 1740 1808 1838 1810 1806 1817 1844 1836 1894 1773 1782 1772 1846 1855 1889 1874 1842 1795 1809 1771 1891 1793 1847 1890 1756 1912 1879 1773 1785 1828 1842 1860 1879 1896 1859 1790 1845 1843 1830 1876 1842 1823 1827 1777 1783 1846 1802 1884 1758 1813 1780 1824 1738 1729 1812 1766 1921 1774 1790 1791 1721 1837 1872 1811 1781 1875 1736 1803 1736 1728 1764 1739 1691 1772 1868 1746 1887 1760 1707 1851 1769 1731 1793 1851 1823 1850 1781 1740 1726 1802 1774 1693 1740 1743 1687 1698 1729 1697 1736 1701 1746 1769 1697 1702 1725 1809 1748 1822 1760 1654 1671 1637 1695 1704 1690 1686 1701 1726 1773 1672 1667 1748 1669 1680 1682 1789 1708 1671 1634 1707 1727 1628 1635 1657 1634 1589 1698 1589 1699 1623 1674 1702 1670 1675 1717 1615 1678 1623 1707 1619 1767 1689 1652 1634 1689 1749 1662 1737 1725 1718 1735 1657 1642 1674 1699 1722 1679 1657 1803 1656 1683 1788 1768 1624 1731 1730 1671 1698 1709 1590 1721 1724 1715 1652 1679 1673 1714 1712 1682 1706 1694 1694 1648 1688 1685 1646 1708 1658 1675 1660 1652 1635 1681 1686 1658 1680 1691 1665 1615 1728 1658 1629 1695 1713 1719 1724 1674 1667 1658 1651 1681 1728 1585 1650 1617 1694 1652 1655 1677 1742 1711 1580 1709 1737 1674 1688 1732 1669 1613 1639 1644 1681 1658 1661 1600 1651 1641 1692 1669 1690 1724 1702 1668 1676 1691 1684 1676 1707 1650 1741 1683 1635 1765 1649 1691 1701 1712 1630 1695 1622 1725 1673 1709 1620 1650 1738 1604 1646 1647 1666 1628 1701 1589 1643 1648 1658 1650 1664 1756 1673 1622 1730 1631 1715 1643 1681 1711 1740 1666 1589 1666 1705 1667 1678 1676 1711 1640 1685 1663 1661 1697 1579 1682 1561 1649 1681 1711 1693 1729 1653 1752 1650 1754 1666 1645 1666 1654 1717 1638 1623 1627 1696 1612 1653 1647 1656 1703 1676 1580 1691 1734 1661 1639 1688 1663 1646 1657 1642 1714 1607 1597 1628 1635 1718 1664 1691 1623 1722 1607 1655 1653 1661 1708 1769 1676 1718 1715 1670 1733 1740 1656 1726 1744 1673 1621 1612 1634 1655 1697 1639 1803 1763 1724 1731 1675 1724 1681 1658 1686 1598 1650 1699 1675 1731 1775 1634 1648 1681 1617 1702 1688 1688 1714 1705 1615 1628 1665 1710 1588 1735 1685 1621 1588 1650 1717 1672 1672 1634 1662 1713 1726 1644 1645 1676 1715 1644 1708 1726 1692 1641 1711 1598 1630 1634 1693 1656 1705 1650 1647 1706 1616 1648 1574 1622 1675 1751 1579 1665 1662 1637 1610 1684 1709 1651 1751 1660 1632 1613 1621 1597 1684 1660 1662 1667 1599 1698 1707 1657 1675 1655 1709 1673 1659 1655 1676 1700 1726 1704 1719 1694 1665 1568 1669 1745 1697 1683 1676 1622 1681 1656 1640 1619 1711 1650 1632 1742 1673 1720 1580 1689 1659 1705 1664 1719 1704 1696 1697 1601 1705 1689 1683 1621 1707 1717 1764 1630 1664 1668 1667 1696 1655 1659 1680 1623 1703 1632 1611 1683 1782 1679 1625 1717 1679 1760 1661 1638 1671 1652 1645 1692 1721 1675 1655 1693 1702 1689 1694 1634 1661 1669 1679 1699 1643 1706 1668 1623 1658 1639 1703 1688 1653 1724 1734 1720 1746 1711 1747 1688 1672 1683 1626 1706 1654 1659 1756 1720 1705 1664 1730 1644 1675 1680 1667 1684 1612 1779 1672 1688 1681 1590 1689 1687 1622 1643 1703 1650 1739 1628 1667 1670 1702 1660 1630 1681 1614 1630 1641 1650 1722 1662 1674 1672 1674 1634 1703 1672 1642 1691 1647 1689 1691 1694 1710 1750 1655 1629 1703 1615 1701 1624 1653 1626 1684 1666 1679 1669 1657 1641 1703 1680 1700 1700 1670 1624 1680 1717 1809 1687 1736 1708 1740 1779 1715 1674 1665 1644 1752 1661 1734 1693 1744 1698 1721 1735 1694 1664 1724 1788 1731 1736 1665 1716 1779 1736 1729 1790 1787 1695 1711 1760 1655 1678 1721 1772 1777 1745 1773 1784 1718 1741 1774 1747 1773 1668 1749 1730 1776 1736 1747 1767 1801 1747 1785 1676 1732 1740 1803 1689 1715 1731 1707 1887 1758 1773 1814 1791 1775 1797 1663 1730 1794 1772 1728 1778 1738 1814 1770 1784 1771 1804 1766 1781 1778 1857 1763 1808 1820 1792 1739 1741 1876 1763 1761 1796 1709 1734 1752 1829 1811 1773 1734 1781 1676 1814 1767 1803 1788 1850 1740 1767 1770 1714 1774 1770 1739 1719 1756 1785 1798 1803 1721 1754 1741 1763 1752 1732 1779 1654 1698 1796 1804 1748 1869 1793 1711 1775 1711 1819 1791 1771 1823 1813 1828 1770 1824 1810 1759 1761 1769 1806 1785 1748 1789 1798 1733 1746 1732 1824 1728 1780 1802 1781 1752 1769 1791 1752 1623 1761 1756 1731 1781 1755 1734 1770 1737 1725 1735 1736 1676 1775 1698 1746 1749 1648 1755 1754 1758 1709 1696 1680 1642 1590 1671 1732 1658 1741 1723 1719 1679 1765 1676 1741 1716 1716 1781 1733 1669 1754 1803 1725 1749 1706 1672 1753 1756 1748 1829 1710 1762 1723 1744 1785 1793 1808 1765 1753 1829 1794 1835 1936 1783 1822 1924 1852 1873 1892 1890 1897 1835 1909 1820 1773 1974 1794 1858 1820 1787 1764 1756 1797 1774 1758 1842 1860 1784 1811 1855 1779 1835 1757 1823 1767 1802 1803 1775 1827 1751 1750 1704 1849 1760 1744 1753 1728 1831 1748 1685 1774 1772 1785 1855 1797 1869 1736 1843 1690 1759 1832 1761 1867 1819 1896 1822 1916 1858 1884 1888 1908 1838 1799 1946 1905 1913 2021 2013 1938 1942 2006 1946 2060 1968 1993 2016 1969 1982 2000 2021 2090 1927 2036 1925 2019 1955 2084 1990 1937 2044 2002 2071 2003 2010 2093 2067 1979 2036 1972 2012 2022 1960 2016 2040 2015 1874 1976 1981 1975 2047 1970 1952 2008 1970 1878 1980 1928 1984 1919 1942 1910 1994 1927 1925 1926 1942 1864 1911 1947 1874 1942 1934 1926 1943 1954 1905 1887 1858 1922 1794 2005 1931 1929 1859 1905 1972 1853 1917 1968 1917 1929 1996 1912 1876 1887 1904 1863 1872 1889 1913 1890 1938 1859 1824 1847 1797 1918 1887 1893 1839 1860 1817 1824 1808 1782 1817 1785 1847 1849 1728 1815 1842 1792 1775 1741 1758 1721 1822 1819 1812 1802 1745 1705 1738 1756 1733 1768 1741 1791 1739 1714 1768 1776 1662 1746 1691 1747 1743 1712 1742 1746 1704 1788 1766 1665 1754 1668 1720 1700 1813 1856 1792 1695 1741 1663 1760 1728 1711 1764 1772 1782 1812 1756 1737 1716 1670 1768 1676 1719 1823 1751 1775 1752 1796 1759 1771 1724 1761 1741 1757 1734 1765 1692 1752 1795 1760 1823 1770 1753 1818 1752 1789 1767 1788 1769 1785 1785 1857 1719 1769 1859 1788 1797 1815 1752 1799 1811 1814 1815 1877 1777 1797 1738 1830 1803 1830 1789 1789 1766 1793 1800 1758 1775 1814 1731 1717 1823 1825 1802 1731 1754 1784 1803 1716 1797 1736 1744 1704 1828 1765 1788 1742 1750 1752 1757 1691 1799 1710 1741 1795 1692 1757 1723 1815 1749 1687 1800 1740 1739 1756 1822 1739 1708 1807 1735 1727 1756 1767 1781 1783 1743 1714 1700 1744 1690 1681 1675 1743 1703 1705 1699 1693 1820 1703 1698 1758 1716 1651 1659 1749 1749 1670 1733 1672 1757 1755 1730 1763 1657 1712 1642 1689 1759 1694 1707 1665 1757 1711 1636 1776 1726 1681 1671 1659 1697 1724 1665 1753 1803 1728 1775 1749 1709 1780 1749 1688 1591 1699 1662 1687 1651 1730 1708 1647 1732 1648 1696 1688 1707 1740 1750 1671 1727 1665 1688 1645 1641 1654 1756 1683 1644 1668 1711 1684 1736 1665 1744 1730 1709 1681 1741 1741 1667 1715 1756 1633 1676 1685 1834 1674 1726 1734 1728 1763 1684 1659 1702 1695 1677 1683 1732 1744 1739 1767 1842 1691 1783 1681 1740 1712 1728 1767 1666 1680 1698 1713 1688 1713 1690 1772 1727 1662 1758 1770 1750 1749 1690 1803 1748 1804 1693 1741 1680 1693 1673 1733 1777 1750 1712 1760 1775 1682 1769 1762 1695 1671 1788 1766 1878 1831 1763 1777 1778 1753 1700 1768 1737 1741 1652 1765 1678 1705 1715 1764 1663 1689 1786 1792 1738 1733 1799 1792 1705 1655 1752 1714 1766 1734 1749 1780 1734 1747 1683 1765 1645 1662 1724 1686 1683 1699 1707 1710 1728 1718 1693 1724 1782 1660 1653 1741 1686 1659 1761 1719 1703 1752 1696 1733 1675 1734 1671 1770 1738 1663 1685 1725 1707 1745 1701 1619 1754 1707 1680 1750 1711 1770 1628 1767 1749 1715 1666 1720 1725 1700 1602 1689 1630 1804 1697 1653 1672 1637 1707 1696 1703 1748 1657 1698 1707 1682 1736 1708 1738 1694 1752 1726 1710 1678 1680 1696 1656 1695 1724 1745 1729 1721 1644 1662 1666 1661 1650 1707 1701 1738 1699 1688 1677 1766 1773 1715 1633 1674 1686 1686 1745 1758 1696 1713 1739 1690 1625 1659 1726 1764 1702 1705 1781 1657 1711 1609 1695 1699 1652 1788 1718 1717 1823 1631 1646 1673 1643 1743 1650 1692 1743 1662 1774 1744 1729 1689 1720 1728 1661 1780 1687 1712 1701 1679 1767 1686 1656 1678 1696 1673 1779 1777 1686 1717 1678 1724 1672 1709 1704 1800 1703 1675 1684 1749 1739 1644 1783 1770 1727 1748 1737 1703 1648 1797 1750 1741 1682 1701 1793 1737 1748 1696 1723 1665 1777 1745 1799 1787 1852 1750 1797 1715 1707 1740 1727 1660 1749 1748 1675 1746 1823 1748 1739 1693 1704 1690 1710 1731 1741 1738 1767 1790 1692 1646 1730 1774 1738 1786 1709 1722 1777 1711 1750 1739 1707 1743 1705 1748 1785 1682 1784 1645 1749 1801 1715 1761 1749 1672 1709 1777 1678 1736 1703 1737 1719 1772 1715 1736 1706 1723 1731 1720 1830 1649 1728 1651 1683 1681 1743 1661 1758 1744 1787 1779 1737 1761 1768 1819 1701 1735 1774 1728 1774 1709 1718 1691 1723 1720 1639 1823 1737 1740 1701 1693 1706 1723 1705 1712 1692 1701 1692 1657 1689 1690 1740 1645 1699 1723 1717 1715 1767 1669 1695 1766 1685 1728 1724 1740 1691 1712 1698 1748 1738 1677 1674 1701 1808 1645 1714 1728 1664 1788 1696 1729 1650 1711 1702 1689 1707 1709 1641 1725 1704 1779 1782 1724 1768 1674 1710 1665 1659 1770 1769 1705 1711 1776 1681 1711 1762 1802 1691 1752 1710 1690 1676 1702 1592 1730 1711 1721 1706 1734 1639 1740 1702 1665 1721 1755 1806 1754 1681 1714 1724 1745 1700 1720 1679 1749 1764 1666 1729 1794 1759 1738 1826 1785 1688 1821 1740 1786 1716 1784 1719 1789 1737 1617 1690 1715 1733 1697 1768 1718 1671 1737 1759 1677 1688 1714 1762 1661 1818 1730 1782 1723 1692 1652 1717 1685 1741 1753 1786 1792 1781 1716 1695 1745 1802 1748 1759 1782 1747 1818 1679 1748 1745 1708 1781 1675 1744 1664 1778 1741 1836 1779 1820 1746 1794 1773 1785 1794 1896 1810 1924 1816 1871 1838 1834 1898 1885 1826 1812 1953 1968 1814 1870 1885 1866 1839 1944 1849 1866 1850 1954 1904 1889 1911 1907 1955 1893 1879 1907 1901 1953 1834 1982 1913 1888 1940 1889 1974 1908 1992 1935 1955 1944 1925 1928 1935 1929 1976 1925 1859 1935 1889 1913 1920 1835 1906 1962 1967 1938 1944 1886 1848 1841 1872 1899 1808 1848 1949 1954 1854 1917 1898 1864 1921 1869 1897 1816 1858 1865 1888 1930 1842 1838 1869 1812 1872 1828 1866 1828 1820 1776 1845 1900 1801 1816 1805 1865 1823 1952 1895 1836 1888 1883 1860 1915 1909 1901 1900 1795 1907 1879 1823 1834 1913 1850 1822 1838 1840 1827 1812 1843 1820 1798 1859 1855 1847 1851 1811 1838 1836 1822 1883 1750 1912 1893 1795 1708 1736 1808 1798 1768 1811 1773 1742 1788 1694 1781 1765 1800 1762 1782 1792 1727 1784 1797 1742 1739 1685 1768 1738 1725 1763 1744 1769 1691 1781 1709 1776 1811 1747 1735 1818 1733 1728 1698 1769 1716 1764 1809 1774 1745 1616 1757 1723 1791 1829 1771 1710 1690 1723 1766 1793 1725 1728 1707 1764 1758 1702 1773 1770 1800 1791 1786 1812 1750 1796 1716 1690 1745 1789 1794 1768 1770 1798 1747 1765 1730 1685 1757 1721 1805 1789 1796 1771 1779 1779 1859 1821 1726 1766 1807 1777 1812 1824 1714 1736 1754 1803 1790 1854 1754 1733 1787 1791 1794 1769 1785 1797 1867 1803 1789 1761 1821 1690 1763 1841 1707 1749 1760 1778 1783 1767 1696 1812 1803 1782 1795 1698 1749 1846 1828 1861 1808 1792 1776 1781 1850 1802 1867 1752 1809 1806 1832 1843 1847 1785 1871 1793 1835 1838 1807 1877 1758 1804 1760 1703 1850 1761 1765 1812 1686 1756 1860 1821 1824 1781 1810 1775 1742 1854 1803 1774 1836 1838 1755 1681 1785 1776 1819 1861 1756 1784 1785 1796 1721 1758 1719 1717 1717 1708 1702 1697 1754 1740 1787 1733 1682 1808 1751 1727 1742 1729 1777 1782 1672 1713 1742 1701 1724 1736 1758 1755 1638 1734 1800 1722 1710 1747 1722 1671 1784 1711 1723 1715 1794 1737 1691 1682 1706 1742 1744 1706 1784 1731 1706 1762 1708 1769 1737 1742 1809 1704 1709 1677 1718 1802 1727 1805 1803 1740 1775 1745 1716 1718 1762 1768 1733 1712 1718 1690 1768 1656 1753 1732 1711 1767 1704 1760 1781 1736 1758 1758 1700 1724 1747 1789 1705 1791 1744 1666 1637 1692 1728 1663 1661 1690 1783 1738 1738 1720 1742 1711 1812 1770 1704 1698 1672 1727 1792 1706 1691 1718 1684 1654 1720 1697 1726 1708 1708 1663 1795 1772 1718 1680 1713 1697 1734 1730 1720 1752 1874 1737 1721 1673 1685 1764 1685 1668 1727 1648 1720 1666 1709 1787 1714 1784 1751 1741 1637 1721 1742 1650 1758 1722 1802 1747 1729 1736 1729 1720 1767 1762 1739 1729 1718 1754 1759 1760 1703 1752 1700 1703 1776 1807 1741 1691 1722 1709 1750 1770 1703 1717 1761 1717 1707 1711 1759 1866 1761 1674 1675 1718 1668 1727 1665 1797 1750 1753 1683 1742 1725 1688 1679 1674 1646 1762 1687 1725 1709 1768 1739 1713 1840 1674 1693 1686 1711 1764 1674 1760 1786 1716 1783 1803 1744 1659 1725 1717 1703 1683 1705 1682 1706 1772 1726 1733 1646 1761 1788 1697 1669 1728 1716 1686 1769 1754 1693 1650 1713 1677 1694 1713 1698 1757 1712 1788 1721 1699 1668 1700 1784 1748 1743 1740 1677 1727 1811 1669 1794 1743 1663 1694 1755 1735 1742 1770 1701 1779 1731 1724 1731 1742 1746</counts>
			</dataPoints>
		</scan>
	</xrdMeasurement>
</xrdMeasurements>
