<?xml version="1.0"?>
<xrdMeasurements xmlns="http://www.xrdml.com/XRDMeasurement/2.3" xmlns:xsi="http://www.w3.org/2001/XMLSchema-instance" xsi:schemaLocation="http://www.xrdml.com/XRDMeasurement/2.3 http://www.xrdml.com/XRDMeasurement/2.3/XRDMeasurement.xsd" status="Completed" recordIdentifier="{5E9505DB-016E-4E40-9515-9E2BF1BFED7B}">
	<comment>
		<entry/>
	</comment>
	<sample type="To be analyzed">
		<id>GPSS_Li1p4Mg0p8Ta0p2Cl4_121825_6943d914f4d05ae3d69790b1</id>
		<name></name>
		<preparedBy></preparedBy>
	</sample>
	<xrdMeasurement measurementType="Scan" status="Completed" sampleMode="Reflection">
		<usedWavelength intended="K-Alpha 1">
			<kAlpha1 unit="Angstrom">1.5405980</kAlpha1>
			<kAlpha2 unit="Angstrom">1.5444260</kAlpha2>
			<kBeta unit="Angstrom">1.3922500</kBeta>
			<ratioKAlpha2KAlpha1>0.5000</ratioKAlpha2KAlpha1>
		</usedWavelength>
		<incidentBeamPath>
			<radius unit="mm">145.00</radius>
			<xRayTube id="1010048" name="Empyrean Cu LFF HR (9430 033 7310x)">
				<tension unit="kV">40.0</tension>
				<current unit="mA">15.0</current>
				<anodeMaterial>Cu</anodeMaterial>
				<focus type="Line">
					<length unit="mm">12.0</length>
					<width unit="mm">0.4</width>
					<takeOffAngle unit="deg">6.0</takeOffAngle>
				</focus>
			</xRayTube>
			<sollerSlit id="21010002" name="Soller slits 0.04 rad.">
				<opening unit="rad">0.0400</opening>
			</sollerSlit>
			<mask id="22031000" name="Fixed mask 13 mm">
				<width unit="mm">9.00</width>
			</mask>
			<divergenceSlit id="22120001" name="Divergence slit 1°" xsi:type="fixedDivergenceSlitType">
				<distanceToSample unit="mm">50.00</distanceToSample>
				<height unit="mm">1.52</height>
			</divergenceSlit>
		</incidentBeamPath>
		<sampleMovement xsi:type="spinningSampleMovementType">
			<spinnerRevolutionTime unit="seconds">1.0</spinnerRevolutionTime>
		</sampleMovement>
		<diffractedBeamPath>
			<radius unit="mm">145.00</radius>
			<antiScatterSlit id="22090040" name="AS slit 9 mm (PIXcel)" xsi:type="fixedAntiScatterSlitType">
				<height unit="mm">9.00</height>
			</antiScatterSlit>
			<sollerSlit id="21020003" name="Large Soller slits 0.04 rad.">
				<opening unit="rad">0.0400</opening>
			</sollerSlit>
			<filter id="20030001" name="Large beta-filter Nickel">
				<material>Ni</material>
				<thickness unit="mm">0.020</thickness>
			</filter>
			<detector id="7010019" name="PIXcel1D-Medipix3 detector" xsi:type="rtmsDetectorType">
				<phd unit="keV">
					<lowerLevel>4.02</lowerLevel>
					<upperLevel>11.27</upperLevel>
				</phd>
				<mode>Scanning</mode>
				<activeLength unit="deg">5.542</activeLength>
			</detector>
		</diffractedBeamPath>
		<scan appendNumber="0" mode="Continuous" scanAxis="Gonio" status="Completed">
			<header>
				<startTimeStamp>2025-12-22T13:26:26-08:00</startTimeStamp>
				<endTimeStamp>2025-12-22T13:34:33-08:00</endTimeStamp>
				<author>
					<name>AutomatedUser</name>
				</author>
				<source>
					<applicationSoftware version="1.7b (136)">PANalytical Aeris Instrument Suite</applicationSoftware>
					<instrumentControlSoftware version="3.2.00000000 20240306">AERIS</instrumentControlSoftware>
					<instrumentID>950485</instrumentID>
				</source>
			</header>
			<dataPoints>
				<positions axis="2Theta" unit="deg">
					<startPosition>10.00943322</startPosition>
					<endPosition>99.99442286</endPosition>
				</positions>
				<positions axis="Omega" unit="deg">
					<startPosition>5.00471661</startPosition>
					<endPosition>49.99721143</endPosition>
				</positions>
				<commonCountingTime unit="seconds">12.495</commonCountingTime>
				<counts unit="counts">2924 2769 2838 2802 2926 2870 2821 2806 2756 2825 2834 2951 2923 2815 2813 2830 2729 2816 2833 2796 2757 2795 2750 2836 2858 2835 2824 2916 2852 2771 2861 2841 2729 2845 2905 2801 2949 2894 2760 2877 2817 2820 2838 2767 2824 2856 2870 2805 2908 2774 2917 2829 2803 2907 2883 2826 2853 2869 2956 2805 2942 2785 2806 2907 3001 2907 2930 2845 2897 2883 2955 2899 2825 2856 2882 2878 2899 2783 2976 2909 2846 2854 2929 2857 2840 2973 2692 2911 2855 2939 2918 2951 2799 2920 2911 2928 2927 2937 2768 2927 2889 2863 2859 3013 2940 2910 2928 2986 2929 2905 2938 2994 2858 2915 2909 2956 2904 3027 2972 2953 2904 2908 2958 2947 2798 2947 2911 2950 2915 2998 2817 2990 3007 2927 2911 2896 2856 2946 2913 2884 2861 3004 2875 3085 2903 2926 2962 2901 2974 2863 2904 2948 2730 2829 2870 2922 2947 2891 2947 2937 2844 2956 2917 2864 2923 2930 3050 2992 2864 2924 2803 2907 2821 2837 2866 2866 2969 2821 2884 2998 2959 2918 3006 2795 2979 2988 2876 2896 2967 2866 2829 2824 2893 2993 2918 2963 2793 2956 2807 2874 2862 2727 2836 2835 2923 2912 2872 2830 2772 2849 2806 2895 2774 2912 2777 2745 2808 2819 2719 2861 2764 2817 2770 2772 2859 2768 2903 2731 2873 2862 2710 2855 2769 2791 2863 2855 2898 2864 2979 2789 2738 2855 2809 2820 2895 2842 2730 2830 2776 2775 2782 2791 2824 2774 2792 2712 2757 2897 2833 2839 2907 2793 2818 2766 2736 2780 2797 2760 2775 2772 2784 2785 2736 2833 2831 2823 2805 2781 2786 2762 2780 2784 2722 2820 2865 2822 2782 2805 2869 2791 2734 2810 2842 2877 2843 2777 2844 2893 2809 2897 2805 2865 2777 2987 2868 2933 2844 2787 2874 2999 2866 2868 2866 2948 2907 2903 2899 2992 2875 2961 2873 3027 2883 2991 2912 2961 2957 2887 2973 2963 2967 3057 2994 2835 3018 3101 3026 3135 3041 3102 2989 3048 3047 3150 2976 3035 3034 3077 3108 3152 3086 3068 3162 3184 3157 3022 2989 3082 3091 3129 3106 3084 3113 3020 3176 3139 3110 3153 3028 3052 3118 3210 3155 3293 3241 3287 3259 3212 3300 3305 3269 3169 3301 3249 3295 3244 3211 3258 3262 3294 3266 3297 3281 3181 3360 3363 3447 3322 3363 3423 3479 3328 3459 3462 3425 3409 3327 3512 3555 3540 3425 3620 3610 3496 3619 3732 3814 3867 3919 4017 4079 3999 4226 4274 4205 4312 4316 4490 4274 4383 4446 4475 4359 4432 4494 4318 4574 4409 4446 4422 4274 4192 4349 4380 4231 4241 4232 4094 3995 4055 3977 3847 3911 3628 3670 3640 3605 3550 3472 3458 3393 3411 3355 3366 3396 3364 3260 3304 3389 3316 3318 3247 3366 3249 3097 3317 3252 3140 3239 3246 3233 3251 3071 3135 3224 3100 3168 3130 3265 3113 3163 3040 3179 3113 3203 3144 3120 3206 3237 3137 3044 3122 3086 3099 3116 3106 3032 3088 3080 3129 3198 2997 3084 2899 3082 3003 3010 3089 3023 2976 2970 2986 2944 2951 2926 2937 3029 2918 3110 2900 3031 2975 2932 2972 2980 3068 2886 3056 3081 3025 2858 2917 2935 2784 2978 2844 2875 2857 2927 2809 2835 2779 2835 2968 2942 2886 2873 2838 2946 2859 2926 2837 2883 2726 2871 2796 2824 2731 2882 2838 2890 2766 2862 2771 2762 2851 2774 2879 2586 2832 2683 2873 2854 2798 2876 2769 2813 2849 2829 2726 2861 2816 2784 2794 2746 2828 2805 2736 2822 2710 2759 2781 2676 2736 2853 2746 2730 2676 2680 2677 2678 2648 2779 2662 2622 2745 2694 2787 2722 2663 2576 2659 2664 2593 2702 2620 2647 2697 2784 2728 2696 2657 2643 2715 2694 2680 2664 2680 2656 2661 2710 2582 2653 2639 2609 2584 2619 2666 2689 2612 2661 2649 2609 2673 2623 2658 2587 2718 2589 2594 2538 2630 2554 2540 2598 2709 2646 2645 2556 2578 2610 2663 2576 2616 2519 2568 2552 2541 2569 2668 2595 2544 2638 2575 2675 2545 2566 2496 2609 2640 2622 2657 2629 2637 2717 2493 2588 2575 2539 2549 2628 2449 2669 2534 2567 2542 2447 2592 2562 2585 2546 2521 2584 2594 2631 2535 2492 2546 2574 2533 2512 2509 2626 2580 2490 2520 2634 2567 2504 2448 2536 2601 2452 2604 2560 2585 2639 2646 2461 2645 2589 2557 2575 2610 2568 2541 2538 2532 2532 2569 2486 2479 2598 2510 2539 2515 2592 2512 2496 2516 2530 2491 2508 2557 2481 2441 2546 2549 2475 2567 2478 2457 2468 2458 2431 2481 2556 2480 2519 2526 2508 2530 2506 2569 2485 2507 2538 2445 2513 2442 2474 2560 2426 2532 2538 2442 2509 2509 2517 2487 2414 2347 2413 2363 2460 2501 2545 2441 2508 2441 2471 2441 2474 2389 2421 2437 2352 2309 2403 2371 2453 2390 2376 2475 2448 2381 2455 2405 2316 2347 2453 2370 2438 2441 2478 2414 2384 2384 2325 2413 2369 2334 2366 2439 2294 2442 2358 2434 2395 2344 2409 2358 2432 2463 2413 2357 2358 2367 2398 2420 2312 2363 2292 2400 2338 2344 2397 2349 2408 2310 2329 2394 2353 2284 2382 2341 2227 2391 2448 2256 2340 2409 2410 2469 2285 2324 2370 2312 2406 2355 2247 2384 2322 2295 2279 2329 2357 2393 2323 2337 2305 2351 2291 2300 2309 2338 2394 2306 2340 2330 2297 2347 2135 2281 2371 2333 2364 2326 2310 2291 2307 2227 2289 2239 2262 2234 2354 2328 2304 2235 2341 2242 2358 2278 2333 2274 2321 2327 2173 2275 2274 2224 2269 2328 2285 2298 2262 2261 2246 2252 2285 2330 2207 2307 2198 2228 2287 2277 2225 2243 2191 2225 2253 2220 2233 2203 2152 2287 2237 2289 2280 2257 2273 2228 2233 2197 2200 2329 2139 2189 2302 2214 2217 2231 2205 2266 2202 2262 2202 2182 2259 2163 2228 2294 2225 2233 2282 2241 2210 2253 2231 2208 2251 2218 2218 2252 2185 2239 2265 2210 2183 2317 2249 2201 2168 2305 2202 2217 2225 2229 2267 2235 2273 2292 2181 2296 2203 2218 2231 2244 2249 2224 2328 2145 2288 2223 2307 2227 2240 2237 2326 2358 2271 2233 2236 2290 2244 2253 2225 2189 2323 2250 2268 2262 2230 2329 2149 2297 2324 2173 2247 2187 2306 2270 2296 2222 2272 2349 2239 2291 2235 2261 2294 2212 2243 2150 2252 2149 2275 2249 2204 2180 2212 2183 2222 2199 2191 2229 2205 2261 2134 2266 2283 2256 2192 2287 2242 2318 2247 2230 2247 2219 2294 2228 2221 2249 2171 2264 2240 2332 2134 2201 2163 2204 2115 2282 2258 2268 2315 2198 2238 2167 2266 2176 2192 2273 2245 2264 2229 2243 2051 2201 2153 2247 2257 2214 2189 2203 2225 2179 2247 2270 2171 2154 2221 2260 2194 2212 2233 2243 2236 2271 2248 2267 2215 2194 2284 2180 2219 2294 2311 2273 2312 2202 2361 2301 2233 2337 2293 2333 2261 2272 2417 2400 2369 2282 2422 2304 2381 2347 2422 2343 2335 2359 2296 2411 2432 2258 2320 2270 2296 2278 2298 2378 2228 2183 2274 2246 2226 2263 2168 2208 2117 2166 2176 2072 2154 2093 1997 2060 2048 1955 2019 2018 2049 2052 2000 1947 1968 1996 1953 1908 1929 1895 1968 1893 1940 1846 1922 1840 1893 1863 1882 1934 1909 1922 1848 1831 1778 1830 1809 1901 1847 1812 1831 1792 1870 1772 1754 1763 1779 1807 1755 1781 1723 1751 1724 1777 1792 1756 1668 1751 1701 1778 1730 1734 1710 1628 1798 1682 1671 1753 1649 1732 1692 1687 1780 1649 1651 1764 1730 1616 1606 1720 1674 1689 1775 1644 1704 1691 1678 1636 1729 1611 1651 1679 1595 1643 1761 1620 1638 1689 1655 1687 1636 1654 1651 1636 1616 1660 1677 1623 1650 1580 1683 1656 1716 1703 1655 1618 1630 1606 1644 1577 1622 1514 1611 1625 1607 1610 1587 1550 1614 1632 1528 1655 1633 1556 1554 1604 1621 1567 1491 1588 1666 1586 1565 1558 1539 1557 1542 1601 1508 1548 1582 1554 1586 1669 1539 1526 1516 1587 1571 1575 1556 1586 1564 1552 1570 1567 1559 1600 1513 1596 1630 1568 1554 1537 1613 1566 1609 1512 1587 1575 1583 1485 1532 1625 1559 1558 1534 1639 1572 1440 1663 1562 1670 1558 1636 1545 1593 1555 1589 1557 1592 1488 1608 1502 1567 1591 1551 1580 1537 1676 1521 1587 1558 1588 1585 1617 1560 1613 1532 1511 1557 1631 1601 1589 1558 1601 1551 1642 1677 1583 1571 1561 1592 1563 1646 1546 1585 1575 1659 1578 1528 1710 1606 1604 1567 1597 1578 1540 1636 1621 1578 1652 1600 1617 1459 1547 1618 1635 1518 1656 1554 1608 1562 1618 1599 1652 1594 1476 1539 1496 1603 1621 1600 1597 1578 1593 1601 1582 1584 1545 1571 1561 1558 1515 1557 1549 1530 1577 1550 1618 1569 1640 1620 1623 1552 1555 1449 1541 1534 1599 1584 1536 1601 1578 1588 1524 1621 1604 1567 1575 1528 1518 1533 1588 1496 1538 1561 1576 1621 1542 1544 1503 1470 1542 1531 1507 1578 1428 1506 1480 1481 1485 1539 1515 1535 1482 1469 1493 1417 1430 1532 1563 1471 1489 1470 1509 1457 1480 1507 1511 1448 1491 1448 1477 1457 1408 1451 1558 1485 1393 1396 1410 1390 1492 1411 1356 1403 1395 1367 1444 1478 1392 1352 1413 1391 1358 1428 1324 1388 1340 1396 1403 1335 1336 1393 1427 1327 1324 1368 1340 1361 1402 1328 1309 1434 1308 1356 1275 1358 1280 1378 1298 1312 1278 1323 1292 1350 1344 1332 1402 1313 1342 1359 1344 1312 1330 1322 1336 1311 1294 1261 1373 1248 1334 1356 1241 1292 1305 1261 1318 1295 1319 1346 1298 1312 1324 1315 1300 1338 1337 1260 1257 1341 1344 1283 1218 1303 1265 1310 1271 1338 1318 1358 1303 1345 1260 1352 1326 1288 1351 1349 1381 1387 1290 1427 1436 1516 1572 1462 1587 1583 1562 1678 1688 1807 1793 1915 1933 2000 1986 1989 2106 2264 2145 2253 2229 2297 2242 2331 2316 2284 2265 2277 2277 2259 2273 2240 2273 2187 2192 2208 2317 2167 2087 2084 2079 2085 2067 1991 1929 1979 1991 1902 1886 1845 1781 1808 1728 1803 1708 1658 1671 1541 1617 1660 1595 1612 1496 1563 1540 1606 1504 1428 1477 1453 1387 1390 1425 1370 1376 1386 1372 1372 1377 1315 1360 1319 1298 1354 1304 1244 1334 1308 1327 1207 1283 1306 1279 1348 1345 1338 1306 1313 1299 1331 1362 1338 1347 1421 1281 1377 1372 1354 1407 1395 1497 1497 1491 1621 1703 1648 1820 1900 2032 2217 2385 2603 2719 2952 3409 3828 4356 4954 5481 5965 6463 7046 7324 8090 8387 8917 9015 9202 9134 9523 9313 9431 9164 9015 8826 8610 8334 8084 7788 7525 7195 6805 6526 6215 5870 5442 5164 4869 4523 4411 3956 3601 3354 3192 2872 2717 2558 2432 2263 2114 2022 1945 1797 1725 1709 1653 1663 1638 1522 1541 1529 1497 1500 1477 1381 1417 1424 1382 1348 1384 1279 1267 1223 1223 1184 1210 1195 1148 1105 1095 1089 1100 1099 1057 1068 995 1055 999 1009 1000 1020 988 1039 1003 1000 983 959 998 1000 994 1004 1003 913 989 914 955 962 972 904 979 904 923 931 972 979 971 943 919 964 911 976 892 977 941 974 931 920 963 982 913 948 934 1011 924 956 986 919 902 934 978 920 959 879 897 877 903 880 952 943 858 866 896 910 851 909 861 907 856 885 958 868 894 889 872 891 870 850 904 887 848 883 896 865 895 834 878 836 953 847 887 832 861 879 851 865 782 794 881 861 817 860 828 816 836 892 914 839 908 874 871 869 834 825 860 850 861 818 879 863 781 825 867 878 832 835 888 874 822 826 829 876 868 838 851 862 863 829 839 820 857 821 877 859 885 837 846 863 878 812 813 827 859 831 847 846 879 854 850 887 904 883 832 881 845 829 863 860 888 846 896 828 848 852 874 858 823 820 910 874 783 827 796 890 843 848 811 847 842 830 819 833 779 851 802 839 770 854 761 845 803 830 821 794 814 738 829 780 803 791 816 807 801 798 771 761 801 771 821 774 795 829 806 789 751 838 799 783 720 776 775 766 751 804 745 746 776 796 780 742 726 770 800 798 778 754 755 792 803 818 784 803 820 813 832 755 860 820 797 768 805 785 787 864 855 802 812 788 816 852 874 828 861 865 779 847 823 828 877 808 834 861 843 800 804 852 836 793 886 795 797 775 857 819 797 792 836 823 799 819 805 822 835 839 881 843 844 821 845 828 816 806 852 817 880 847 863 872 836 947 924 964 920 932 875 949 973 937 985 992 1001 987 941 1044 1059 1090 1124 1134 1218 1215 1316 1374 1464 1568 1726 1844 2075 2293 2464 2889 3216 3559 4238 4532 5470 5803 6659 7188 7724 7801 8169 8451 8489 8762 9090 9238 9452 9269 9060 8537 8388 7991 7871 7512 7239 6969 6857 6313 5975 5628 5301 4821 4691 4147 3856 3525 3363 3114 2822 2673 2386 2219 2086 2002 1797 1727 1661 1503 1559 1517 1463 1415 1371 1332 1432 1404 1334 1247 1337 1340 1327 1308 1172 1303 1200 1159 1166 1162 1162 1114 1079 1068 987 1045 1033 1016 968 946 935 907 903 920 897 872 858 803 852 777 835 811 782 770 732 749 803 800 735 743 740 814 749 805 711 720 701 716 690 739 728 736 741 745 677 735 730 749 686 781 708 757 708 724 712 706 737 735 726 702 716 719 763 755 735 757 730 764 727 746 730 713 711 717 703 745 724 702 717 745 749 745 775 712 719 732 723 716 706 733 687 705 730 687 698 710 711 713 762 655 690 758 672 727 724 758 686 733 689 725 701 771 769 765 714 714 720 720 741 741 707 725 729 750 742 745 753 735 773 727 725 789 741 764 745 729 729 706 758 747 802 775 801 802 765 847 781 818 844 832 780 780 776 854 850 854 876 810 913 820 918 883 926 917 886 908 896 923 936 859 908 913 938 955 965 896 859 934 896 884 852 919 901 912 917 851 885 867 957 829 887 872 839 886 905 902 856 837 883 826 914 811 878 807 799 786 836 782 831 830 780 776 783 717 739 743 784 762 743 747 764 751 767 684 770 694 711 753 680 719 757 702 765 666 745 705 779 669 690 678 709 719 754 675 707 729 737 739 694 680 722 682 650 696 645 685 675 684 685 677 645 632 646 700 664 657 698 635 649 681 633 659 722 670 678 659 616 657 606 695 640 624 671 666 621 672 637 646 672 586 643 639 619 561 619 614 633 620 653 666 586 640 620 592 573 607 600 633 584 576 610 571 579 576 591 577 614 614 623 616 595 612 551 579 591 599 599 579 580 585 594 534 611 563 592 568 594 584 520 607 582 610 572 576 622 617 596 571 592 584 606 582 578 568 531 583 574 564 553 590 571 627 512 559 576 521 537 573 581 597 582 560 561 570 577 611 545 569 578 608 542 551 586 559 536 562 558 540 558 514 545 601 586 587 580 518 532 608 544 523 514 586 578 573 544 540 557 563 572 555 516 521 517 536 545 572 515 568 582 543 581 578 579 586 564 578 564 559 534 548 570 523 586 516 556 570 610 541 553 573 519 516 539 521 578 535 540 529 588 528 559 541 522 502 577 507 605 508 562 538 533 507 523 535 563 525 504 546 526 539 522 543 564 552 508 544 540 541 521 553 532 571 524 542 509 584 533 529 510 556 510 558 537 529 524 514 537 561 513 558 521 593 527 504 549 575 530 517 547 516 498 546 524 543 502 512 558 548 541 558 570 516 548 517 578 547 529 528 533 556 550 553 588 545 551 563 561 637 572 570 574 572 580 595 497 565 547 589 558 543 563 569 560 591 542 565 572 574 583 560 487 568 484 565 540 582 530 541 556 547 600 621 530 539 529 563 487 538 536 562 479 509 500 560 529 550 540 552 521 493 519 528 504 570 526 505 492 485 522 524 513 466 489 509 530 529 505 509 476 509 485 530 538 493 507 552 507 519 563 513 498 533 473 524 510 516 490 507 505 487 512 529 510 549 533 509 500 500 532 483 481 530 506 505 505 511 487 485 519 471 486 486 485 511 472 511 474 518 494 515 525 501 488 476 543 510 515 484 495 513 514 511 485 494 487 479 502 529 498 567 509 505 499 464 546 494 477 513 518 524 543 489 530 531 476 498 501 523 450 568 491 500 481 528 540 529 539 575 527 523 478 506 512 514 488 530 524 500 511 481 496 500 501 528 488 553 527 525 507 537 539 529 523 487 534 483 555 488 524 529 522 500 520 484 537 530 501 476 508 475 465 521 484 452 488 476 478 512 484 500 518 502 506 462 492 491 502 496 523 468 444 506 475 510 478 437 508 493 504 491 526 510 496 501 452 496 482 488 452 463 502 506 479 536 487 472 471 499 500 492 522 483 478 477 516 492 477 502 483 484 501 484 504 520 484 459 497 487 510 488 477 524 484 480 486 503 487 496 499 489 463 489 473 495 483 490 498 467 455 439 487 461 478 484 485 470 473 501 474 483 462 512 530 449 499 478 493 526 467 436 505 530 487 501 466 502 525 480 493 485 492 441 508 502 455 463 492 495 474 462 476 451 511 485 449 510 463 455 480 501 475 475 524 486 510 486 488 466 466 492 479 503 473 517 498 488 521 499 487 557 501 543 496 530 549 527 528 533 609 602 611 622 593 665 661 771 774 870 970 975 1038 1099 1045 1130 1220 1195 1230 1231 1254 1302 1231 1287 1280 1217 1199 1193 1170 1101 1095 1043 966 953 940 919 903 799 795 768 712 762 704 669 649 602 595 597 555 550 506 538 507 521 525 485 497 492 493 466 480 463 498 473 498 523 506 501 491 483 480 517 455 496 471 510 455 531 499 465 473 471 510 463 498 466 486 487 499 491 499 468 509 448 486 473 452 436 451 457 472 467 462 454 497 434 463 476 476 450 449 490 464 509 484 456 524 470 467 509 506 500 468 461 492 478 478 454 455 441 484 434 463 496 496 462 489 469 507 423 491 456 493 482 477 548 540 469 497 501 488 481 558 511 501 514 511 552 506 502 490 527 484 490 567 505 567 480 533 500 509 523 544 500 505 520 524 489 501 476 500 507 492 544 527 502 490 491 476 462 470 472 506 487 481 472 450 502 490 453 459 437 424 416 416 451 475 449 468 441 467 456 510 434 447 447 475 451 414 451 446 476 417 451 400 463 438 458 462 494 419 484 488 447 481 452 434 496 488 468 455 461 433 461 451 474 469 458 483 471 443 471 436 485 478 449 434 405 481 460 460 513 486 485 471 498 459 479 463 477 458 471 491 447 439 471 430 484 474 488 486 457 467 491 490 478 464 473 460 456 482 467 447 437 472 440 463 464 442 482 433 484 480 459 486 467 463 451 496 483 485 511 484 454 498 468 486 478 457 465 488 457 473 466 480 447 483 460 473 468 491 418 428 466 482 468 503 450 468 456 477 462 466 477 430 513 489 517 472 490 530 482 512 509 478 517 478 514 521 519 494 529 460 541 505 499 546 541 503 627 520 580 620 570 563 616 567 636 607 675 659 693 672 703 708 709 728 761 757 825 811 902 908 1047 1079 1292 1321 1481 1703 1931 2166 2505 2851 3254 3532 3946 4291 4652 4780 5022 5097 5184 5266 5216 5117 5128 5245 5105 5193 5003 5041 4787 4742 4526 4317 4011 3642 3262 3216 3002 2727 2541 2303 2214 2070 1930 1770 1676 1481 1417 1281 1127 1077 1046 1008 905 894 922 812 788 764 738 789 677 717 721 681 691 692 697 687 687 732 706 702 715 697 664 712 740 712 720 750 727 721 708 726 701 664 702 663 699 666 724 735 714 660 628 663 687 666 626 643 670 634 601 595 643 627 579 618 559 592 566 557 600 523 547 571 648 631 563 592 584 580 615 534 571 587 576 580 607 576 618 579 569 534 586 545 636 565 567 556 527 552 551 527 544 526 492 545 529 527 491 552 547 473 532 519 479 500 475 507 522 487 506 479 455 489 440 480 483 465 491 473 422 464 444 485 479 436 467 407 469 470 381 437 457 426 477 446 450 440 459 440 414 440 478 429 438 413 399 417 441 427 424 417 411 432 433 403 402 446 472 442 483 432 406 420 470 386 444 452 441 443 426 425 458 448 454 482 461 487 525 494 585 552 603 601 598 653 665 648 642 699 680 688 631 718 700 673 639 644 679 624 674 623 582 619 576 588 606 601 570 549 504 497 484 485 507 467 461 440 455 428 458 473 454 409 429 453 445 426 407 413 410 400 457 420 411 403 426 453 407 381 409 372 453 393 387 430 406 387 453 443 392 365 434 375 416 411 437 407 419 417 380 427 421 461 366 392 394 418 377 395 395 373 408 417 388 384 397 404 406 408 418 385 430 405 406 384 429 354 385 401 412 438 365 394 417 383 404 366 385 416 400 401 381 403 378 403 410 379 390 382 400 398 387 379 366 393 398 370 385 363 357 410 406 379 411 397 404 374 376 385 402 404 377 397 389 412 399 387 385 383 405 362 384 404 373 393 384 397 393 361 338 366 352 341 382 377 398 382 396 365 376 343 383 431 360 379 405 403 376 357 362 407 367 378 342 366 375 396 443 375 384 375 367 379 396 381 339 416 360 403 379 391 371 389 396 389 363 383 386 427 403 362 401 386 409 368 408 379 380 371 362 371 395 352 355 368 372 404 328 306 386 372 392 378 401 388 408 373 386 359 390 367 375 414 339 396 383 405 372 374 345 386 385 382 368 346 355 391 380 377 374 385 369 402 381 411 360 396 392 380 357 392 380 393 362 363 418 418 371 376 375 356 384 429 412 369 399 377 376 376 406 431 417 451 381 402 363 390 406 407 380 394 402 422 406 394 405 390 411 402 392 408 345 428 410 431 418 422 407 417 428 451 421 387 438 427 432 423 441 444 396 413 433 427 405 481 444 459 433 493 447 469 435 476 472 475 485 496 475 469 441 490 462 495 483 454 501 487 491 495 492 484 474 528 466 479 494 475 473 466 493 462 499 449 464 474 501 466 488 463 514 495 489 497 464 444 500 475 486 474 468 514 515 512 443 467 478 470 467 519 482 460 474 491 516 468 509 477 474 499 450 459 468 467 452 486 469 445 436 432 453 485 450 465 431 477 454 423 468 466 453 397 444 441 419 418 412 423 430 419 416 396 430 409 384 413 400 407 403 378 430 431 387 428 424 374 379 380 384 436 373 379 416 382 391 383 402 372 420 391 386 360 411 364 371 389 363 376 398 384 373 367 379 360 441 355 363 378 372 345 347 392 367 382 375 390 364 378 408 403 374 385 390 388 392 376 394 376 330 374 362 337 343 355 371 359 353 347 348 388 377 369 382 383 390 331 360 369 365 360 324 365 333 354 349 366 407 363 383 351 368 361 377 385 355 384 397 352 374 395 348 374 339 319 392 386 419 351 419 423 373 423 418 403 416 386 377 453 389 373 425 411 387 428 404 409 375 405 403 389 411 407 401 411 388 442 436 422 415 449 425 412 409 388 424 455 422 409 436 409 446 449 459 405 461 454 462 449 461 535 479 509 527 526 596 629 694 673 798 819 928 1150 1214 1257 1478 1547 1616 1703 1756 1920 1828 1845 1851 1887 1884 1905 1804 1870 1773 1798 1799 1706 1707 1734 1594 1542 1466 1387 1364 1340 1251 1167 1126 1044 1018 930 888 854 803 775 718 696 652 690 587 586 545 564 513 495 468 466 477 460 461 412 440 458 421 454 376 403 417 403 448 375 402 354 438 431 409 420 408 417 395 419 396 465 460 429 407 444 440 467 446 462 426 469 476 426 389 386 444 431 416 426 399 441 421 434 433 426 400 405 398 413 423 391 413 370 329 395 389 344 384 360 382 363 377 389 385 369 361 374 382 361 358 331 357 345 354 351 333 359 345 357 364 322 335 344 351 306 317 340 344 381 339 317 381 373 338 348 288 356 295 352 337 338 362 370 370 366 324 351 351 340 313 335 332 315 332 390 378 353 303 306 333 382 344 313 342 310 324 325 299 340 337 332 317 355 350 368 314 351 342 356 327 310 323 366 326 349 365 326 334 302 291 333 346 353 336 348 322 337 306 365 355 367 353 343 368 338 336 297 352 336 339 387 344 332 347 385 330 383 384 379 379 338 358 359 353 370 394 368 372 413 369 360 392 371 400 372 403 410 423 372 394 440 433 470 472 457 548 552 601 706 766 800 917 1072 1170 1225 1324 1320 1447 1509 1427 1479 1411 1480 1418 1401 1377 1322 1291 1295 1275 1275 1301 1275 1256 1299 1177 1120 1138 1026 1059 942 928 909 770 839 706 697 648 600 617 585 549 477 481 523 496 481 461 451 461 403 388 416 376 364 353 378 386 364 375 342 355 354 325 345 376 341 361 341 366 371 345 363 359 351 349 344 340 339 287 346 330 411 348 394 366 389 374 364 356 343 361 333 317 352 351 368 303 353 335 367 319 322 333 351 328 355 360 354 314 351 345 375 342 352 343 345 360 340 327 335 291 328 323 323 337 316 310 321 325 319 312 306 308 351 313 316 299 300 339 285 305 292 345 305 343 295 312 355 323 306 334 327 287 323 296 318 304 319 312 307 304 323 304 318 343 324 307 296 317 311 374 300 284 303 284 309 320 326 311 336 314 315 294 345 308 316 357 340 322 363 357 382 361 391 418 476 447 470 505 487 523 500 601 551 498 541 510 503 480 557 508 502 544 545 488 517 484 473 517 468 508 470 416 436 458 463 432 422 413 423 392 385 381 354 362 373 371 365 342 354 355 417 338 361 331 351 338 331 317 312 340 345 331 309 316 330 300 341 270 298 337 332 318 316 318 333 342 305 304 338 335 344 306 320 322 295 327 290 343 345 303 319 295 312 342 314 320 299 330 326 275 326 288 303 317 306 322 311 302 278 283 286 277 285 284 303 282 301 308 322 249 316 306 298 303 304 336 330 333 279 319 284 292 299 277 290 334 281 296 285 275 309 295 271 343 277 273 288 299 295 318 277 295 269 318 276 304 321 286 283 268 333 298 309 288 267 321 270 280 246 291 272 281 281 291 285 320 277 250 278 247 289 293 265 295 275 287 259 266 283 259 251 286 271 300 284 281 245 308 273 279 302 285 274 274 258 285 316 296 290 285 268 286 242 285 250 278 243 269 309 251 313 261 261 246 265 281 279 294 301 273 278 270 288 279 266 270 246 266 292 265 272 264 290 242 249 289 281 248 263 291 286 276 277 310 257 301 238 280 270 288 261 262 256 242 277 279 299 234 275 284 270 274 303 248 295 284 279 274 292 242 260 245 264 303 245 306 267 228 262 267 264 291 264 279 288 268 289 302 278 283 279 266 240 264 267 271 282 239 267 258 278 270 264 277 297 258 294 278 280 279 262 262 291 291 287 270 284 295 310 249 303 274 247 308 266 304 272 274 261 274 274 301 292 246 296 247 303 270 270 275 259 257 277 262 235 262 285 281 264 280 267 230 273 264 295 279 281 293 259 245 258 264 245 280 238 274 263 264 290 261 299 236 257 271 246 277 274 294 273 276 245 264 247 244 240 245 259 264 260 263 287 308 230 274 218 264 289 276 282 258 234 232 288 291 258 268 274 248 237 241 266 280 275 278 322 259 293 269 295 257 243 287 275 277 277 274 263 236 266 266 276 268 302 212 244 250 256 269 276 279 271 296 274 270 226 241 229 262 219 266 276 224 277 266 239 286 271 304 250 267 232 243 244 266 267 234 273 259 278 271 276 298 210 266 239 313 257 237 261 270 267 286 289 235 275 233 241 281 280 263 287 284 278 275 321 325 311 314 360 321 325 364 389 342 348 403 380 447 409 386 393 392 387 387 376 367 370 387 405 346 398 314 356 328 325 325 346 367 353 349 331 306 291 266 296 309 306 292 278 297 287 261 272 256 259 259 266 260 282 289 277 245 262 268 242 288 276 282 219 229 247 260 209 270 264 220 251 240 245 283 251 265 273 244 264 216 279 276 239 267 243 264 246 237 262 256 260 267 228 237 250 273 275 259 269 267 274 260 273 237 272 260 272 260 257 256 230 259 247 260 236 273 244 243 244 227 245 279 219 239 289 260 241 243 247 261 235 287 232 249 274 275 299 248 283 298 311 272 287 244 278 249 258 250 270 263 262 258 271 262 263 272 266 276 281 266 262 274 316 259 281 238 246 280 257 261 279 280 267 284 284 279 274 270 278 291 291 286 272 272 282 291 278 272 281 302 299 295 247 315 284 279 290 312 261 283 280 291 265 292 300 295 279 312 304 277 282 306 296 313 312 288 293 307 277 273 276 305 246 318 299 317 309 282 282 274 262 272 284 283 277 265 270 273 288 302 302 302 300 261 257 299 290 276 265 293 283 279 262 244 247 269 257 286 311 282 295 265 257 250 287 272 278 269 248 287 269 281 248 264 280 282 269 288 262 243 264 265 308 314 243 312 286 269 291 283 303 315 319 303 359 304 290 352 378 349 385 378 393 451 486 538 529 616 604 617 679 675 695 667 728 664 722 687 724 758 681 653 628 620 630 604 632 648 648 596 579 575 595 566 550 563 543 536 544 508 467 471 460 452 391 404 398 349 330 371 353 356 320 364 324 287 288 288 267 295 295 313 304 306 295 280 298 306 306 293 243 306 276 237 286 257 294 275 281 249 296 249 284 281 288 239 285 270 263 246 283 280 292 282 230 246 261 284 265 268 280 249 317 243 248 273 305 278 291 249 274 298 280 286 267 239 276 268 282 266 257 263 279 239 270 284 246 289 280 257 246 264 235 233 258 236 257 273 247 271 245 268 261 257 287 281 256 259 262 275 242 277 230 230 264 259 249 238 247 271 239 226 218 233 245 231 244 228 239 268 275 270 227 266 256 249 261 243 269 241 266 256 279 227 277 285 274 281 263 256 246 274 278 283 293 303 283 285 307 292 235 241 288 264 276 311 256 269 263 234 239 266 285 260 264 244 265 296 263 267 245 296 224 286 247 276 246 263 280 268 240 265 236 246 256 235 269 219 220 264 244 248 273 267 242 249 259 269 243 215 220 237 260 227 268 249 214 240 258 246 235 225 232 236 234 236 227 222 219 245 230 258 265 233 220 217 231 228 235 235 240 250 215 247 236 218 220 249 260 249 231 267 206 228 228 217 272 250 270 247 242 237 233 231 241 262 256 236 277 227 210 242 248 240 276 241 270 223 239 229 233 228 248 248 225 245 201 236 216 229 232 235 222 262 215 249 217 227 214 231 245 241 215 222 235 221 247 202 226 227 232 229 218 218 228 280 237 240 249 274 259 240 219 236 229 234 266 260 256 262 273 219 233 250 238 237 230 235 225 210 238 238 227 241 226 223 231 262 248 273 226 233 231 230 222 226 229 210 231 228 235 262 280 261 263 236 236 222 202 211 234 225 242 243 239 235 296 269 220 241 241 235 231 218 246 245 256 238 229 239 259 236 223 225 257 272 244 248 246 263 234 250 235 228 280 229 260 247 240 237 233 241 265 263 266 221 233 218 262 281 235 260 269 249 257 230 234 263 214 242 235 264 222 263 235 238 235 279 235 246 269 250 259 269 280 259 272 275 270 274 277 219 249 242 267 257 251 248 225 215 238 232 246 236 283 245 283 240 279 279 247 278 243 259 235 244 231 274 285 245 247 266 250 258 238 245 275 276 257 256 284 248 298 257 250 284 250 258 222 248 258 287 276 240 258 275 278 268 262 278 272 247 264 264 250 269 285 274 250 286 271 289 271 291 308 259 272 261 311 266 244 249 280 247 242 241 273 294 278 222 300 256 286 249 290 224 245 286 283 287 291 256 280 265 268 301 233 260 271 303 245 263 241 247 256 261 283 263 244 264 261 245 275 236 266 283 274 279 262 274 262 256 262 288 244 290 279 284 264 262 271 265 266 284 257 271 305 260 279 274 273 270 247 274 247 248 295 260 246 288 276 270 274 289 298 298 280 286 281 322 331 307 345 310 347 302 379 338 334 317 359 357 328 356 346 354 334 325 350 328 318 311 325 298 319 343 345 328 318 296 321 335 315 338 334 338 346 341 334 316 333 313 343 326 317 342 345 307 335 376 381 365 395 407 382 433 415 489 520 510 570 624 590 650 644 717 681 661 693 666 673 682 629 637 578 562 573 561 588 569 567 546 632 540 540 519 580 515 588 518 529 508 489 514 458 475 446 433 419 407 375 390 371 389 318 329 329 355 332 360 308 335 308 333 310 305 338 343 319 298 290 328 280 283 277 258 308 291 305 279 277 279 286 279 278 274 310 304 315 295 295 314 295 250 294 315 286 306 295 279 281 261 294 302 284 308 287 298 280 297 301 285 288 305 283 327 283 306 310 320 296 301 324 285 319 315 315 310 264 313 284 335 299 287 303 335 274 330 278 315 321 305 281 313 256 315 302 316 315 317 286 323 318 321 278 291 301 302 290 326 306 295 251 294 266 294 280 277 310 306 295 276 256 264 285 283 289 262 338 292 317 300 328 271 281 275 275 286 271 267 297 281 293 310 269 270 302 257 325 322 318 287 305 309 313 305 297 302 297 296 312 310 289 296 311 326 328 355 309 318 347 333 379 369 391 294 374 349 394 396 391 367 442 417 453 487 492 489 595 625 710 697 789 773 861 910 879 1003 1025 967 1015 1067 1041 1052 1082 1084 979 1036 993 892 966 945 924 859 928 875 890 811 855 847 797 801 794 758 704 770 681 769 689 636 648 626 578 586 593 594 537 500 470 461 452 441 428 429 392 376 368 362 363 332 332 358 328 333 354 319 313 299 326 303 301 316 318 306 290 284 269 324 278 299 281 244 299 309 292 267 302 286 290 285 279 301 259 265 291 301 270 248 285 266 272 305 279 301 279 258 258 298 261 260 271 282 291 274 247 309 265 286 290 280 308 312 302 247 286 297 272 277 269 280 293 301 295 296 306 308 281 291 273 267 288 271 282 262 296 311 316 257 268 293 277 289 287 298 282 298 266 319 268 274 273 305 272 301 293 273 260 292 291 259 274 310 343 288 296 281 321 291 353 320 363 313 332 309 308 309 343 364 326 315 319 321 332 320 295 322 339 307 305 300 301 290 285 324 309 305 279 293 304 309 291 298 321 302 321 303 281 269 288 250 294 245 300 267 294 260 285 290 246 260 268 287 248 283 293 287 271 270 269 274 243 240 286 276 272 246 241 282 271 238 279 256 244 256 268 248 263 263 289 242 242 256 261 267 237 242 248 231 220 232 242 284 248 250 258 243 219 263 271 257 267 280 239 225 249 268 279 257 244 245 250 232 238 224 267 249 281 257 258 276 248 248 271 270 215 262 248 231 294 222 302 270 231 289 232 257 244 260 269 256 233 241 220 251 244 242 267 236 267 259 248 275 277 237 258 226 261 233 260 234 261 235 245 263 249 256 263 270 261 258 242 219 236 247 223 234 256 265 266 222 245 214 229 256 242 233 239 237 269 250 244 232 260 239 241 230 246 243 221 245 234 263 239 269 263 241 266 199 236 237 257 244 232 237 257 261 247 260 208 218 222 230 230 229 257 233 239 258 243 234 258 283 241 244 238 233 216 263 220 242 218 220 222 235 245 234 235 206 256 232 242 244 224 270 239 260 259 238 231 210 260 258 205 240 227 242 216 223 244 274 229 218 264 246 244 229 220 215 228 226 236 223 266 223 246 234 256 226 223 238 264 241 264 237 228 233 227 219 222 268 228 231 250 235 212 259 229 244 246 231 264 266 214 234 257 234 259 205 248 267 214 236 231 248 241 218 279 218 260 238 235 222 232 244 226 236 213 209 230 267 264 245 242 194 225 227 238 185 257 235 261 259 259 242 267 235 215 211 207 225 236 260 234 235 260 208 257 227 247 216 216 226 236 195 205 225 249 232 224 240 240 236 231 234 236 228 241 217 249 244 246 246 223 269 222 214 209 244 236 262 217 236 215 221 267 245 256 257 266 240 229 256 257 248 269 259 220 240 256 234 208 242 238 256 230 262 244 218 226 261 247 214 265 226 248 228 229 218 267 235 230 257 241 235 249 223 229 257 286 259 241 244 248 256 291 270 316 285 314 304 267 310 319 310 305 310 306 337 316 338 295 333 270 330 347 283 313 294 272 274 292 294 273 294 284 282 296 250 282 277 288 291 295 278 262 285 243 281 256 249 231 260 242 250 266 277 242 239 242 272 260 263 242 231 235 230 284 256 243 238 264 230 243 262 247 240 233 233 258 229 262 232 212 228 219 244 230 217 239 249 261 242 226 234 244 261 260 248 227 243 210 263 241 224 217 230 233 256 232 220 224 217 201 230 198 260 240 238 224 242 230 259 233 223 240 257 247 237 223 258 232 220 238 231 215 262 205 277 215 236 246 247 235 232 225 234 237 227 247 241 244 200 259 242 249 239 242 222 248 208 245 249 212 231 230 232 232 217 247 191 236 226 235 218 245 257 233 240 244 259 231 223 241 259 244 239 199 260 225 237 197 236 212 247 245 198 236 239 262 274 235 246 226 236 233 226 256 258 232 228 247 225 264 273 259 268 208 267 219 247 258 221 229 221 241 259 258 274 212 237 234 233 224 267 270 270 279 202 284 232 273 265 244 247 248 249 231 250 206 262 251 229 244 266 270 237 272 268 257 273 292 300 245 243 273 301 270 293 291 274 274 279 295 294 297 292 283 325 318 325 299 316 329 318 326 335 323 359 425 408 406 449 497 489 513 551 621 653 699 706 770 783 747 880 812 781 750 798 821 784 749 791 741 734 676 694 703 665 612 626 640 581 609 620 584 604 583 611 602 558 568 560 558 546 583 586 539 527 533 559 511 475 472 412 457 413 366 379 359 332 336 326 360 329 317 332 316 281 296 287 292 296 280 318 287 316 281 280 249 242 221 288 284 309 257 269 239 239 248 273 282 267 274 245 247 261 246 260 276 194 260 242 285 238 280 266 264 270 265 306 242 274 230 239 259 269 258 260 216 244 259 241 276 257 230 313 259 282 265 294 256 244 243 247 242 243 293 281 250 289 286 278 310 277 259 279 296 270 274 264 274 278 262 295 249 275 265 273 302 264 272 284 282 264 256 299 273 289 276 300 269 273 275 282 269 267 286 289 283 292 277 271 276 299 325 304 299 320 273 298 317 294 291 274 315 304 298 273 275 317 283 239 242 257 227 287 303 256 298 256 250 289 246 287 280 251 249 269 269 286 245 265 249 257 272 249 242 235 284 271 226 264 241 231 262 227 256 234 246 227 235 232 224 230 257 236 272 225 227 218 249 263 228 248 259 257 246 224 235 259 222 225 234 248 228 266 239 248 258 229 232 241 246 198 206 225 218 249 213 230 248 249 238 201 221 241 233 249 215 228 223 237 215 248 207 260 241 241 224 242 213 256 241 220 215 244 241 228 237 225 233 269 239 242 244 228 260 243 272 205 279 246 230 259 197 216 219 226 219 208 249 258 212 242 238 230 270 239 229 229 215 233 236 231 226 272 272 234 208 225 256 196 212 234 237 227 259 232 240 243 230 218 224 231 237 222 271 218 226 265 242 237 229 222 227 234 197 242 238 207 217 247 208 235 206 230 220 242 241 267 230 227 227 240 213 235 244 232 245 218 257 270 238 231 261 229 230 241 260 232 210 210 215 244 221 237 233 215 231 231 236 246 266 189 250 285 273 233 239 224 217 227 236 219 218 208 226 208 228 222 209 233 226 205 267 231 257 230 217 263 216 232 213 235 224 219 246 216 221 240 207 235 221 216 221 216 236 230 208 244 239 237 242 209 246 226 237 220 222 236 219 222 243 220 235 227 236 208 274 218 215 217 229 233 211 233 238 238 228 258 208 222 216 237 256 248 264 217 262 231 204 216 247 235 238 237 246 258 243 261 225 218 221 224 194 225 216 237 233 212 209 250 244 242 226 249 244 230 260 222 242 234 249 226 289 239 238 224 213 224 230 263 257 248 237 240 207 260 216 238 235 263 227 222 198 225 208 249 243 245 267 230 232 275 260 263 282 235 270 271 262 240 221 268 236 226 272 246 243 249 201 249 211 248 229 265 218 216 225 241 242 238 247 219 289 242 222 261 241 264 267 236 284 274 246 241 240 268 268 264 234 246 264 262 231 270 244 272 242 277 277 302 287 281 284 290 279 290 332 304 305 331 344 342 373 348 392 393 397 359 406 394 363 438 372 403 373 426 419 367 412 399 364 404 368 340 386 351 399 372 382 347 344 353 311 344 319 358</counts>
			</dataPoints>
		</scan>
	</xrdMeasurement>
</xrdMeasurements>
