<?xml version="1.0"?>
<xrdMeasurements xmlns="http://www.xrdml.com/XRDMeasurement/2.3" xmlns:xsi="http://www.w3.org/2001/XMLSchema-instance" xsi:schemaLocation="http://www.xrdml.com/XRDMeasurement/2.3 http://www.xrdml.com/XRDMeasurement/2.3/XRDMeasurement.xsd" status="Completed" recordIdentifier="{288225F0-9C4B-4EBE-8183-0879C062739A}">
	<comment>
		<entry/>
	</comment>
	<sample type="To be analyzed">
		<id>GPSS_Li1p7Mg0p7Y0p3Cl4_111225_691549b847a6a0fd7c6580bc</id>
		<name></name>
		<preparedBy></preparedBy>
	</sample>
	<xrdMeasurement measurementType="Scan" status="Completed" sampleMode="Reflection">
		<usedWavelength intended="K-Alpha 1">
			<kAlpha1 unit="Angstrom">1.5405980</kAlpha1>
			<kAlpha2 unit="Angstrom">1.5444260</kAlpha2>
			<kBeta unit="Angstrom">1.3922500</kBeta>
			<ratioKAlpha2KAlpha1>0.5000</ratioKAlpha2KAlpha1>
		</usedWavelength>
		<incidentBeamPath>
			<radius unit="mm">145.00</radius>
			<xRayTube id="1010048" name="Empyrean Cu LFF HR (9430 033 7310x)">
				<tension unit="kV">40.0</tension>
				<current unit="mA">15.0</current>
				<anodeMaterial>Cu</anodeMaterial>
				<focus type="Line">
					<length unit="mm">12.0</length>
					<width unit="mm">0.4</width>
					<takeOffAngle unit="deg">6.0</takeOffAngle>
				</focus>
			</xRayTube>
			<sollerSlit id="21010002" name="Soller slits 0.04 rad.">
				<opening unit="rad">0.0400</opening>
			</sollerSlit>
			<mask id="22031000" name="Fixed mask 13 mm">
				<width unit="mm">9.00</width>
			</mask>
			<divergenceSlit id="22120001" name="Divergence slit 1°" xsi:type="fixedDivergenceSlitType">
				<distanceToSample unit="mm">50.00</distanceToSample>
				<height unit="mm">1.52</height>
			</divergenceSlit>
		</incidentBeamPath>
		<sampleMovement xsi:type="spinningSampleMovementType">
			<spinnerRevolutionTime unit="seconds">1.0</spinnerRevolutionTime>
		</sampleMovement>
		<diffractedBeamPath>
			<radius unit="mm">145.00</radius>
			<antiScatterSlit id="22090040" name="AS slit 9 mm (PIXcel)" xsi:type="fixedAntiScatterSlitType">
				<height unit="mm">9.00</height>
			</antiScatterSlit>
			<sollerSlit id="21020003" name="Large Soller slits 0.04 rad.">
				<opening unit="rad">0.0400</opening>
			</sollerSlit>
			<filter id="20030001" name="Large beta-filter Nickel">
				<material>Ni</material>
				<thickness unit="mm">0.020</thickness>
			</filter>
			<detector id="7010019" name="PIXcel1D-Medipix3 detector" xsi:type="rtmsDetectorType">
				<phd unit="keV">
					<lowerLevel>4.02</lowerLevel>
					<upperLevel>11.27</upperLevel>
				</phd>
				<mode>Scanning</mode>
				<activeLength unit="deg">5.542</activeLength>
			</detector>
		</diffractedBeamPath>
		<scan appendNumber="0" mode="Continuous" scanAxis="Gonio" status="Completed">
			<header>
				<startTimeStamp>2025-11-14T11:26:54-08:00</startTimeStamp>
				<endTimeStamp>2025-11-14T11:35:01-08:00</endTimeStamp>
				<author>
					<name>AutomatedUser</name>
				</author>
				<source>
					<applicationSoftware version="1.7b (136)">PANalytical Aeris Instrument Suite</applicationSoftware>
					<instrumentControlSoftware version="3.2.00000000 20240306">AERIS</instrumentControlSoftware>
					<instrumentID>950485</instrumentID>
				</source>
			</header>
			<dataPoints>
				<positions axis="2Theta" unit="deg">
					<startPosition>10.00943322</startPosition>
					<endPosition>99.99442286</endPosition>
				</positions>
				<positions axis="Omega" unit="deg">
					<startPosition>5.00471661</startPosition>
					<endPosition>49.99721143</endPosition>
				</positions>
				<commonCountingTime unit="seconds">12.495</commonCountingTime>
				<counts unit="counts">2908 3026 3009 2944 2890 2883 2919 2968 2991 2982 2932 2791 2940 2884 3003 2882 2936 2925 2893 2931 2911 2767 2984 2886 2946 2813 2850 2869 2955 2941 2920 2801 2954 2941 3084 2849 2996 2908 2944 2923 2886 2921 2933 2934 2967 2836 2866 2899 3000 2992 2952 3007 2888 2911 2966 2932 2989 2914 2926 2938 2867 2862 3072 2922 2928 2829 3048 2929 2912 2969 2977 2872 2909 2934 2912 2952 2993 3007 3002 2980 2855 3052 2981 3075 2884 2974 2867 2950 2910 3014 2998 2928 2995 3024 2901 2999 2862 2885 2984 2940 2970 2995 2948 2892 3080 2950 2903 2972 2991 2973 2867 2955 3052 3023 2978 2992 2987 2953 3018 3019 3101 2927 3078 3082 3085 3017 2996 3009 2977 3059 3014 3087 2975 3068 3021 2951 2998 2882 2975 2998 2962 3002 2976 2960 3062 3039 3045 2925 3028 3027 3173 3029 2948 2948 3053 3080 2953 3021 3018 3033 3028 3067 3014 2984 2985 3055 2950 3085 2908 3108 2872 3012 2970 2884 3053 2966 2944 2851 2943 2993 2914 2998 2921 2974 2929 3005 2985 2950 2856 2910 3058 3037 2943 2972 2854 3018 2919 2937 2929 2927 2850 2972 2932 2903 2923 2899 2830 3000 2975 2954 2995 3002 2977 2877 2869 2968 2960 2855 2785 2911 2979 2954 2873 2839 2928 2868 2869 3018 2905 2814 2895 2798 2977 2838 2953 2836 2886 2894 2899 2965 2840 2820 2822 2843 2788 2872 2858 2887 2797 2854 2864 2865 2858 2918 2811 2842 2870 2872 2799 2854 2827 2817 2809 2869 2896 2847 2840 2894 2835 2871 2775 2839 2870 2813 2815 2826 2837 2790 2853 2910 2823 2764 2855 2845 2927 2740 2865 2845 2839 2725 2899 2850 2838 2858 2824 2857 2912 2839 2875 2974 2958 2895 2897 2901 2947 2959 2948 2762 2785 2834 2856 2881 2920 2872 2930 2859 2845 2896 2907 2923 2947 2948 2898 2936 3001 2878 2860 2843 2811 2940 3001 2982 3023 2999 3016 3080 2938 2955 3059 2958 3048 3048 3043 2922 3003 3032 3021 3025 3035 3018 2957 3107 3066 3005 3243 3072 3146 3043 3048 3134 3001 3147 3147 3152 3064 3179 3198 3158 3188 3182 3165 3225 3220 3265 3184 3174 3187 3160 3276 3127 3143 3274 3161 3260 3327 3232 3333 3294 3130 3324 3311 3282 3359 3339 3388 3300 3326 3466 3288 3371 3244 3351 3417 3402 3369 3231 3214 3431 3530 3523 3348 3425 3514 3504 3536 3563 3461 3780 3629 3684 3798 3823 3896 3871 4030 3942 3895 3987 3996 3976 3869 3971 3786 3864 3905 3719 3870 3781 3752 3681 3773 3800 3839 3796 3844 3754 3841 3838 3830 3728 3749 3868 3874 3689 3820 3738 3724 3643 3653 3544 3554 3636 3594 3624 3472 3526 3541 3581 3511 3552 3315 3585 3341 3304 3411 3432 3421 3402 3335 3351 3312 3278 3264 3226 3348 3365 3322 3339 3285 3270 3291 3224 3183 3299 3130 3320 3217 3212 3267 3159 3282 3285 3262 3211 3227 3276 3289 3308 3213 3180 3315 3324 3273 3277 3188 3245 3207 3206 3257 3255 3406 3404 3472 3558 3535 3673 3606 3713 3643 3687 3610 3712 3582 3659 3608 3453 3516 3408 3432 3461 3354 3378 3427 3223 3200 3300 3230 3335 3333 3207 3324 3276 3270 3241 3255 3188 3293 3260 3119 3225 3132 3082 3143 3077 3053 3127 3171 2980 3047 2987 2950 2938 3020 2863 2953 2993 2993 2896 2986 2877 2988 2858 2962 2815 2828 2916 2930 2762 2950 2782 2890 2880 2805 2777 2913 2772 2812 2768 2837 2739 2739 2655 2817 2849 2847 2893 2802 2792 2766 2734 2830 2791 2847 2808 2853 2846 2755 2692 2785 2727 2907 2797 2777 2784 2810 2743 2649 2783 2742 2754 2789 2654 2767 2749 2752 2851 2773 2740 2777 2719 2808 2757 2827 2835 2774 2778 2792 2849 2855 2843 2795 2902 2828 2901 3018 2951 2960 3004 3143 3068 3151 3216 3328 3324 3309 3473 3369 3357 3245 3362 3315 3273 3209 3192 3108 3190 3082 3127 3020 3006 2976 2936 3054 2990 3002 2970 3094 2976 2999 2958 2841 2991 2933 2937 2946 2929 2856 2949 2938 2830 2873 2850 2821 2853 2881 2886 2819 2790 2733 2821 2722 2835 2684 2676 2760 2747 2860 2687 2641 2733 2663 2748 2706 2607 2684 2546 2597 2632 2674 2633 2551 2621 2662 2671 2694 2559 2714 2694 2598 2615 2690 2770 2789 2614 2591 2657 2565 2573 2629 2546 2624 2597 2608 2707 2594 2558 2633 2614 2698 2518 2599 2565 2619 2499 2502 2518 2540 2503 2624 2613 2598 2539 2599 2511 2656 2563 2549 2644 2612 2515 2572 2602 2450 2537 2546 2600 2560 2613 2564 2622 2563 2577 2646 2543 2571 2560 2576 2437 2461 2476 2563 2663 2525 2476 2496 2459 2526 2597 2505 2493 2501 2525 2474 2473 2515 2390 2485 2483 2552 2454 2416 2419 2478 2557 2547 2499 2566 2472 2609 2449 2501 2492 2449 2454 2483 2548 2460 2504 2456 2487 2481 2478 2489 2474 2484 2320 2475 2500 2425 2487 2419 2486 2435 2491 2471 2446 2406 2344 2431 2363 2486 2468 2381 2451 2439 2533 2501 2421 2363 2465 2436 2412 2365 2443 2403 2417 2417 2445 2399 2354 2471 2363 2357 2369 2392 2492 2377 2505 2428 2349 2342 2438 2383 2375 2422 2355 2320 2439 2331 2356 2384 2367 2449 2444 2404 2420 2494 2350 2342 2418 2416 2388 2336 2364 2357 2299 2317 2394 2306 2381 2259 2283 2421 2270 2412 2281 2292 2293 2324 2315 2398 2440 2229 2274 2309 2390 2362 2368 2285 2269 2350 2305 2349 2291 2372 2330 2368 2344 2265 2349 2232 2317 2315 2310 2309 2243 2242 2237 2284 2209 2278 2216 2212 2331 2303 2247 2337 2216 2209 2252 2262 2289 2286 2306 2307 2286 2281 2255 2257 2233 2278 2214 2277 2267 2217 2313 2275 2273 2271 2247 2318 2244 2278 2278 2345 2270 2244 2283 2244 2267 2191 2226 2323 2242 2239 2258 2337 2313 2268 2307 2282 2307 2260 2301 2340 2279 2267 2346 2273 2216 2322 2306 2242 2355 2176 2267 2355 2262 2275 2231 2358 2320 2341 2169 2309 2371 2161 2325 2297 2285 2345 2306 2330 2345 2285 2280 2317 2334 2348 2373 2261 2257 2351 2272 2257 2320 2280 2413 2384 2332 2376 2298 2391 2411 2430 2434 2364 2373 2394 2297 2304 2429 2396 2434 2348 2289 2276 2355 2321 2345 2270 2366 2309 2309 2320 2296 2307 2408 2322 2378 2293 2338 2263 2378 2310 2236 2355 2292 2332 2410 2310 2349 2413 2283 2308 2258 2349 2275 2185 2326 2283 2315 2269 2300 2154 2294 2295 2210 2270 2235 2224 2250 2274 2241 2237 2238 2202 2247 2201 2167 2287 2183 2218 2178 2117 2231 2326 2211 2166 2236 2227 2162 2231 2188 2164 2127 2209 2219 2287 2191 2196 2096 2218 2087 2192 2233 2143 2057 2229 2072 2156 2147 2135 2115 2177 2167 2121 2009 2171 2059 2160 2162 2132 2123 2126 2089 2120 2075 2145 2131 2115 2102 2067 2064 1987 1974 2013 2002 2133 2001 1970 1999 2117 2059 2071 2065 2039 2001 2007 1995 2058 2041 1953 2038 2041 2034 2055 1915 1988 2019 1963 1942 1979 1881 1953 2008 1934 1999 1978 1980 1927 2031 2009 1987 2017 1983 2087 2031 2045 2094 2036 2098 2059 2238 2178 2272 2329 2345 2358 2258 2281 2195 2253 2286 2210 2139 2171 2117 2143 2084 2014 2008 2012 2004 1919 1936 1950 2052 1899 2004 1891 1934 1995 1912 1973 1977 1982 1908 1872 1841 1852 1922 1853 1951 1841 1846 1796 1813 1867 1676 1842 1759 1807 1751 1765 1805 1731 1770 1727 1816 1790 1692 1751 1655 1741 1621 1752 1726 1755 1637 1724 1755 1724 1677 1732 1667 1657 1707 1680 1694 1651 1740 1653 1743 1630 1716 1604 1658 1765 1654 1677 1696 1641 1594 1661 1711 1672 1711 1692 1612 1663 1608 1652 1656 1605 1570 1619 1664 1629 1596 1601 1615 1594 1588 1656 1673 1682 1621 1670 1617 1692 1615 1657 1597 1670 1685 1705 1640 1630 1556 1590 1662 1653 1551 1647 1599 1584 1570 1592 1592 1586 1662 1562 1608 1665 1621 1613 1578 1561 1609 1597 1588 1628 1626 1594 1647 1732 1595 1601 1634 1619 1598 1698 1568 1591 1623 1588 1617 1608 1610 1530 1699 1525 1627 1657 1583 1579 1651 1606 1660 1626 1590 1528 1629 1571 1622 1539 1563 1592 1553 1626 1712 1624 1669 1609 1631 1599 1573 1695 1640 1674 1611 1623 1666 1570 1581 1596 1624 1688 1678 1649 1690 1696 1585 1638 1591 1678 1614 1633 1665 1672 1661 1730 1608 1690 1632 1574 1637 1560 1603 1606 1604 1681 1639 1713 1679 1690 1668 1610 1670 1549 1613 1565 1642 1674 1633 1557 1626 1632 1566 1601 1664 1660 1663 1665 1631 1688 1620 1574 1617 1616 1630 1594 1567 1737 1605 1637 1747 1658 1692 1646 1665 1657 1689 1642 1691 1632 1636 1678 1648 1672 1737 1689 1620 1725 1644 1701 1687 1599 1577 1585 1631 1712 1581 1642 1702 1644 1607 1653 1633 1593 1682 1570 1576 1550 1505 1618 1563 1554 1632 1525 1697 1586 1589 1595 1560 1591 1575 1532 1566 1486 1511 1508 1610 1514 1592 1532 1511 1536 1529 1544 1524 1462 1462 1510 1484 1512 1417 1469 1510 1430 1510 1429 1475 1425 1467 1498 1518 1401 1446 1473 1461 1532 1480 1472 1466 1447 1544 1487 1390 1474 1431 1378 1424 1434 1452 1408 1435 1346 1418 1421 1490 1417 1348 1452 1489 1408 1403 1395 1492 1427 1424 1359 1493 1367 1374 1397 1504 1409 1449 1369 1410 1416 1372 1371 1353 1414 1373 1374 1446 1441 1411 1369 1390 1323 1338 1369 1379 1427 1289 1426 1390 1355 1405 1336 1432 1352 1384 1359 1351 1321 1413 1363 1323 1380 1343 1392 1321 1296 1313 1328 1351 1363 1343 1292 1341 1357 1379 1398 1346 1396 1447 1351 1556 1500 1548 1590 1582 1576 1589 1625 1598 1715 1702 1717 1685 1737 1812 1791 1811 1873 1939 1804 1862 1762 1865 1853 1834 1796 1741 1728 1695 1690 1717 1547 1545 1558 1559 1531 1547 1521 1498 1512 1403 1502 1470 1487 1447 1462 1483 1463 1447 1350 1413 1384 1369 1340 1369 1277 1307 1355 1262 1339 1350 1306 1275 1294 1257 1258 1223 1241 1246 1297 1235 1268 1248 1263 1279 1218 1195 1263 1240 1267 1220 1301 1223 1278 1232 1221 1162 1252 1165 1265 1232 1240 1175 1171 1228 1235 1233 1317 1246 1306 1276 1273 1263 1263 1345 1392 1429 1474 1424 1658 1674 1780 1863 1880 2089 2251 2483 2788 3067 3298 3655 3944 4301 4658 4939 5013 5317 5272 5357 5332 5150 5210 5193 4752 4440 4444 4049 3955 3700 3700 3447 3301 3349 3204 3105 3115 3075 2908 3038 2985 2990 3035 3193 3150 3052 2940 2943 2815 2878 2911 2806 2819 2503 2566 2441 2341 2282 2076 2110 1987 1891 1717 1694 1676 1595 1461 1477 1401 1404 1340 1322 1372 1358 1323 1291 1324 1303 1210 1284 1188 1248 1205 1252 1131 1178 1169 1164 1260 1161 1162 1216 1151 1162 1137 1126 1096 1131 1125 1114 1131 1117 1046 1095 1131 1032 1060 1085 1032 1064 1044 1034 1012 1080 1088 1081 1104 983 1054 993 1050 1043 1030 1081 1066 1019 1087 1031 1029 1078 1039 1056 1038 1066 1077 1082 1051 1091 1091 1056 1063 1021 1076 1070 1120 1078 1098 1035 1062 1101 1075 1153 1119 1086 1115 1135 1161 1168 1256 1279 1315 1333 1284 1386 1420 1602 1663 1695 1876 2158 2271 2455 2696 2891 3253 3296 3440 3725 3768 3826 3871 3846 3646 3849 3602 3449 3427 3204 3124 2978 2768 2529 2411 2311 2310 2184 2124 1994 2012 1998 1838 1867 1925 1877 1946 1794 1883 1782 1758 1777 1785 1666 1721 1720 1568 1546 1501 1468 1373 1400 1441 1300 1344 1320 1292 1332 1316 1244 1300 1277 1285 1279 1280 1238 1276 1270 1236 1166 1228 1234 1163 1226 1094 1148 1050 1082 1030 1083 1022 1002 996 1028 999 991 1016 983 1026 1004 991 1003 1002 958 1021 1029 1009 1005 991 985 982 934 938 996 971 930 960 950 992 1015 945 1003 975 952 1009 1015 980 969 936 942 935 994 980 963 1065 988 995 959 947 1014 979 1022 1051 1042 1061 1110 1082 1161 1147 1154 1168 1160 1145 1156 1138 1186 1181 1149 1163 1201 1032 1050 1024 1049 1051 1074 1044 1003 1015 979 995 967 938 982 967 1008 1006 1017 935 972 989 924 958 965 947 919 960 940 929 957 923 906 906 862 951 932 909 874 915 874 983 920 956 888 849 904 943 883 974 906 902 925 974 977 990 954 963 934 1021 953 954 963 1018 1071 1045 953 1116 1095 1167 1089 1195 1209 1240 1273 1341 1301 1332 1394 1350 1421 1357 1416 1407 1272 1367 1303 1359 1373 1202 1249 1259 1148 1210 1136 1147 1141 1179 1102 1222 1126 1187 1127 1127 1207 1180 1158 1172 1170 1199 1263 1302 1313 1306 1376 1470 1495 1611 1659 1681 1862 2113 2072 2317 2558 2777 3007 3456 3634 4165 4616 5178 5430 5722 5938 6145 5990 6191 6055 6084 5851 5903 5571 5584 5105 5042 4593 4662 4293 4214 3966 3816 3609 3565 3274 3192 3114 3111 2941 2975 2885 2918 2760 2686 2631 2634 2405 2431 2227 2318 2181 2196 2039 2024 1923 1852 1823 1769 1707 1638 1607 1529 1421 1477 1395 1465 1296 1363 1348 1363 1297 1320 1181 1198 1246 1308 1185 1253 1117 1142 1107 1120 1146 1142 1110 1020 1027 1039 994 1042 1036 1018 978 985 969 1018 1023 1021 979 1045 976 982 984 972 975 1042 985 1003 978 958 1049 985 944 956 939 891 988 943 985 921 925 936 957 933 974 1010 917 886 918 928 981 959 957 947 897 919 930 889 947 862 886 842 851 856 906 846 859 849 908 876 837 916 855 827 838 854 844 795 800 809 842 898 836 825 841 853 849 891 831 826 785 796 824 818 818 776 843 862 830 875 837 836 808 867 838 788 871 791 795 833 820 807 851 808 800 818 833 808 805 824 814 834 883 866 844 889 864 879 848 931 909 925 990 971 976 1009 1106 1063 1111 1114 1036 1090 1047 1070 1039 1073 1037 1003 938 953 958 958 901 925 933 827 856 871 815 870 846 853 830 868 812 849 854 824 814 815 829 864 882 847 814 837 721 829 777 803 777 832 741 796 777 718 783 761 727 770 773 751 744 753 777 818 790 743 761 793 700 754 806 717 751 717 748 747 778 745 725 697 752 755 710 728 738 717 733 732 725 724 701 728 777 765 749 721 729 742 727 748 752 706 767 748 756 753 714 709 747 708 717 715 729 724 687 722 695 723 750 718 681 694 716 671 685 686 782 665 686 720 697 687 711 764 712 703 659 675 758 720 743 701 731 711 713 732 644 701 721 705 679 753 747 698 693 719 680 617 686 697 696 730 659 670 728 726 705 741 712 679 683 672 700 671 688 692 676 665 695 701 679 711 668 645 721 712 685 688 701 661 687 672 674 669 693 697 695 698 704 692 716 734 660 690 682 649 704 704 664 718 661 670 676 663 668 716 645 703 663 666 699 643 640 707 692 645 692 677 678 714 670 625 708 642 691 670 705 681 690 649 691 674 725 646 657 634 662 647 677 687 679 660 649 634 630 660 691 662 702 679 669 628 642 624 698 672 625 692 653 728 688 665 695 621 629 594 688 653 651 599 618 686 672 695 679 641 660 614 649 633 595 622 691 660 646 640 634 621 637 702 635 650 664 664 689 647 666 646 655 620 668 662 709 619 649 634 654 616 673 676 618 671 684 681 696 744 723 701 686 694 696 729 736 704 684 715 687 738 695 691 697 672 682 774 637 694 695 666 717 697 652 632 654 678 661 656 681 674 624 686 632 691 664 675 670 666 664 670 655 680 660 651 667 669 656 683 664 690 659 698 749 717 724 686 744 709 783 781 786 805 823 934 960 989 1117 1086 1198 1290 1434 1562 1619 1731 1836 2013 1937 2047 2072 2094 2073 2093 2023 2011 1949 1853 1893 1850 1799 1711 1642 1572 1499 1466 1442 1326 1293 1270 1215 1187 1200 1165 1130 1034 1108 1065 1015 1082 1016 973 906 962 940 893 909 896 810 883 859 744 760 792 761 756 711 723 697 707 706 666 654 702 678 640 636 646 657 662 663 585 678 636 606 627 617 563 599 642 649 632 653 666 588 617 648 644 627 601 640 569 634 625 617 597 613 584 616 659 587 580 625 568 646 604 638 636 613 599 638 622 558 630 615 562 612 616 595 600 606 629 642 601 629 579 620 630 632 670 627 609 598 563 605 616 622 599 601 599 647 655 626 603 602 626 610 622 647 605 613 613 602 547 564 602 595 623 659 604 623 675 625 644 691 672 614 699 723 690 775 776 767 752 842 841 804 885 780 788 769 722 837 773 804 712 804 763 778 738 754 727 719 705 717 712 700 728 688 626 717 637 687 612 677 680 681 640 689 672 615 651 642 695 654 709 682 692 614 681 686 662 694 721 711 716 763 748 726 831 803 817 799 820 796 807 754 797 790 789 856 759 780 777 764 767 750 731 737 724 695 706 677 685 618 690 647 652 698 635 664 639 650 672 614 653 579 648 588 666 637 635 689 638 610 649 656 596 632 655 560 591 532 591 600 552 630 656 571 590 663 580 616 573 655 626 661 681 703 751 703 751 727 733 733 697 750 734 776 752 714 723 701 760 722 749 686 713 679 691 744 669 656 645 661 663 705 648 628 656 685 646 696 685 645 636 638 607 635 658 635 617 620 635 646 595 567 606 600 606 562 610 576 660 619 568 636 597 590 553 541 612 565 642 626 572 583 610 621 626 606 646 583 592 622 596 600 577 630 626 695 690 650 718 623 681 735 762 772 782 817 808 847 868 895 924 931 899 999 1014 1008 991 1067 998 985 982 913 900 958 948 873 882 841 851 885 843 850 827 781 749 783 745 741 720 764 736 761 772 740 732 723 711 691 695 645 680 686 693 649 634 682 685 607 613 614 655 677 634 621 664 632 636 619 644 647 644 620 612 678 603 599 613 642 613 616 659 612 638 635 602 602 596 588 592 590 617 604 609 597 652 618 597 581 602 545 591 590 594 614 617 572 581 572 653 594 589 603 590 623 610 559 574 602 598 592 580 565 587 515 566 508 550 566 593 577 584 544 568 578 532 562 579 550 574 544 583 569 563 540 586 571 538 535 580 518 594 589 549 539 542 555 534 569 550 604 557 539 585 596 567 593 538 545 516 585 559 564 546 536 569 563 563 543 554 571 506 539 518 586 486 519 565 538 561 566 599 548 595 510 539 557 591 509 529 579 558 558 512 499 581 572 585 574 573 561 561 584 520 542 550 512 565 544 548 539 528 541 568 555 547 579 533 554 542 534 579 514 580 517 556 549 572 534 534 581 591 568 548 600 541 561 584 574 631 544 567 570 571 564 569 499 563 518 593 552 626 579 595 546 604 618 561 651 609 596 625 593 635 536 613 553 604 586 634 692 679 695 656 685 680 699 688 716 706 688 688 743 704 706 691 703 770 659 690 692 689 711 683 737 691 687 640 683 642 699 689 636 760 655 723 651 703 756 730 697 692 706 684 732 703 687 750 748 726 727 736 774 788 712 801 753 835 861 874 937 1010 1038 1099 1180 1154 1292 1283 1292 1363 1378 1484 1314 1413 1380 1394 1321 1328 1322 1351 1287 1309 1253 1257 1257 1249 1165 1139 1078 1102 1076 1011 1029 999 1036 971 1054 949 961 1020 994 960 988 988 986 981 1014 1103 1131 1250 1314 1365 1452 1510 1735 1756 1829 1962 2082 2153 2281 2328 2614 2588 2743 2915 3116 3023 3096 3143 3186 3103 3070 3036 2933 2769 2669 2733 2589 2555 2490 2303 2285 2222 2071 1994 1919 1784 1784 1612 1551 1592 1440 1368 1407 1386 1289 1284 1203 1180 1107 1100 1100 1035 990 963 953 899 923 792 833 826 785 789 733 696 672 681 694 694 715 734 697 728 671 612 750 662 687 747 747 645 727 710 694 686 664 663 683 659 677 645 652 645 684 721 642 671 663 631 617 605 595 672 613 613 582 569 661 527 636 593 598 569 660 606 552 562 564 563 554 532 594 556 583 502 510 584 507 524 543 535 501 534 542 535 544 503 563 545 560 551 542 533 528 499 521 523 532 516 516 516 540 523 496 462 501 528 505 506 534 515 523 491 538 554 485 443 510 492 489 515 534 507 486 505 508 563 516 506 555 532 488 470 519 531 550 494 503 518 495 495 533 516 530 555 506 520 551 541 534 477 528 489 504 532 509 538 487 540 518 479 496 493 558 512 561 501 513 533 524 539 553 484 587 553 563 575 542 602 622 610 630 679 701 696 738 764 754 748 770 757 820 838 775 862 790 753 761 735 730 739 708 763 753 769 710 655 674 703 679 685 671 690 688 658 707 665 645 615 667 621 709 620 641 586 639 591 617 544 645 614 617 626 594 590 613 622 580 544 590 575 511 523 539 517 513 485 476 521 500 538 537 503 507 504 528 543 516 517 474 538 528 485 460 514 475 490 487 517 506 550 569 510 521 591 568 542 568 550 617 593 647 610 610 601 656 608 582 618 613 601 612 587 622 571 613 601 603 533 564 617 554 571 540 598 534 559 502 538 495 519 538 529 544 511 535 472 527 490 481 482 518 510 449 512 483 527 446 483 493 500 468 516 464 518 479 513 442 497 513 516 517 540 508 567 598 577 599 607 651 577 642 672 708 762 697 728 766 776 753 786 767 777 729 742 772 774 783 754 696 684 748 685 693 689 677 712 635 657 598 588 608 604 617 568 567 589 566 575 529 536 510 540 526 528 505 527 487 506 540 492 489 515 498 465 512 482 480 472 401 465 426 459 494 471 460 470 459 451 468 481 451 440 475 485 418 424 467 478 438 448 428 428 459 469 443 501 473 475 472 427 441 450 499 439 403 430 499 443 465 434 442 412 451 427 479 463 478 462 490 480 506 525 493 508 498 516 488 510 502 507 526 550 538 475 487 496 490 464 507 489 516 504 501 499 505 484 469 494 491 512 470 428 445 476 427 449 468 425 484 417 453 470 439 462 456 431 428 450 445 434 450 437 402 382 439 463 460 426 427 437 447 437 438 431 435 435 425 449 421 470 389 448 420 408 389 407 424 396 433 444 429 444 413 415 437 371 411 450 479 459 481 423 421 461 452 436 424 398 404 414 407 407 412 435 461 408 404 410 415 454 417 449 467 444 428 471 420 439 469 402 416 435 427 426 387 423 401 419 413 411 412 422 415 441 429 396 453 424 433 430 428 405 422 389 455 410 479 421 453 425 442 454 427 424 429 433 393 458 395 413 422 428 405 421 474 441 410 415 427 433 446 449 440 449 429 401 409 442 432 434 448 441 412 434 431 472 420 420 438 437 428 438 472 433 431 459 456 461 467 426 445 415 451 384 475 453 468 460 503 477 390 456 440 431 427 424 484 458 455 460 479 484 438 505 459 413 434 487 435 469 465 493 432 417 482 484 472 472 463 476 501 446 429 443 405 427 406 464 458 481 453 444 485 474 484 476 484 435 451 417 435 440 412 425 457 449 493 423 440 399 420 462 417 436 446 441 442 440 461 435 440 445 476 441 461 457 419 491 473 443 460 479 425 503 488 471 476 481 466 523 488 493 503 505 550 510 483 493 511 492 484 545 460 521 515 521 507 523 500 468 513 461 523 538 544 526 513 476 464 489 495 477 519 535 479 573 491 502 525 610 555 580 636 632 649 644 702 761 780 840 809 865 905 973 1067 983 1118 1141 1163 1161 1182 1157 1118 1198 1168 1141 1179 1168 1120 1127 1108 1062 1111 1025 1029 959 936 937 953 875 891 920 863 806 793 743 816 733 709 717 689 699 658 695 667 679 668 654 673 665 691 687 690 709 703 671 711 662 632 622 691 649 688 630 647 595 635 621 613 591 628 628 614 583 609 573 617 560 584 591 624 608 607 613 569 592 561 601 565 538 590 533 580 570 522 528 554 553 559 518 584 516 486 529 539 527 549 535 503 513 539 511 470 493 488 502 529 527 467 518 499 495 503 513 456 489 501 493 512 479 493 470 527 520 488 526 509 512 512 446 469 488 483 479 498 435 515 476 472 413 458 471 482 424 465 433 436 429 455 392 415 424 409 414 403 420 407 447 399 407 388 426 395 420 390 429 428 426 412 414 414 406 416 378 410 385 383 354 404 420 369 405 362 414 381 446 404 396 401 414 356 407 408 411 430 448 385 395 415 408 432 391 377 402 411 429 388 423 438 402 410 386 451 407 412 434 392 387 404 394 394 409 399 449 377 440 392 404 409 405 426 402 465 448 413 400 451 456 464 476 437 477 495 471 543 529 545 557 606 644 618 661 685 710 743 774 872 849 882 932 897 946 933 952 988 972 1040 1036 1003 1093 1049 1088 1092 1002 985 932 946 1022 939 931 962 866 872 900 837 833 844 798 816 781 740 726 733 706 690 637 658 635 622 588 575 573 541 584 554 528 491 502 502 493 504 483 483 480 432 435 458 464 446 460 460 412 460 406 433 468 441 394 403 439 438 395 448 437 413 417 439 402 423 483 427 427 412 451 390 443 400 427 395 411 434 460 425 430 420 393 436 414 408 395 422 422 381 379 421 401 432 391 412 411 424 395 399 388 391 371 439 391 389 414 380 369 370 379 399 431 407 396 380 377 397 410 363 387 381 402 371 440 387 388 360 379 413 359 414 372 400 414 384 360 423 389 465 403 413 425 351 424 402 446 399 372 418 410 406 382 388 426 401 395 397 405 429 402 394 413 404 379 386 405 403 424 447 452 400 437 440 461 484 463 555 470 483 463 493 509 480 504 505 544 472 495 503 531 513 535 525 452 503 467 451 511 482 532 503 503 489 528 522 532 487 524 532 530 480 503 446 439 435 433 397 421 436 470 454 413 422 394 396 419 411 440 423 402 365 388 420 419 374 374 351 383 354 361 365 401 358 369 372 396 343 358 366 368 382 363 381 361 403 390 344 375 347 386 403 372 369 376 399 344 389 379 312 349 384 320 374 351 362 369 380 386 351 386 387 380 365 378 362 374 337 334 351 351 398 360 372 353 376 400 351 389 404 371 370 411 372 394 374 404 403 349 344 376 382 358 385 400 393 386 395 384 383 341 332 416 364 378 429 364 430 357 394 394 398 344 429 343 398 377 396 421 403 387 400 446 408 449 454 480 486 487 444 520 515 517 513 612 546 581 526 538 520 563 518 558 507 492 534 524 511 505 512 512 478 456 455 506 432 501 453 420 456 453 447 441 414 412 404 410 397 414 390 388 360 395 383 384 384 387 391 373 354 382 357 391 362 384 356 336 342 356 377 395 385 392 369 382 367 341 373 316 342 371 346 376 318 361 363 370 325 327 387 348 372 347 341 356 360 368 341 365 335 385 346 347 358 313 305 334 365 346 337 343 339 336 351 368 347 357 348 303 356 381 366 357 376 376 340 371 353 341 382 318 329 324 353 332 347 359 384 370 336 362 340 358 357 316 381 357 408 368 363 369 381 390 391 383 359 383 355 382 366 374 384 361 331 394 380 394 375 365 352 336 346 392 362 398 363 374 375 360 376 375 376 346 352 336 363 368 341 334 346 330 344 363 319 349 353 357 398 341 357 338 321 339 350 377 330 338 286 336 318 347 332 411 350 383 399 391 391 368 393 307 369 376 358 376 369 383 429 378 418 444 402 437 382 449 443 453 387 400 413 419 423 402 408 380 420 404 397 405 387 352 439 405 392 390 360 359 365 372 353 346 366 373 347 386 329 344 340 356 344 334 353 343 336 317 285 387 322 311 344 284 345 363 342 308 311 342 369 306 308 340 318 327 323 369 334 353 320 315 347 332 336 324 391 370 347 346 324 291 313 346 383 348 347 382 323 370 337 359 356 330 361 333 338 358 370 329 360 349 321 357 347 347 375 350 385 342 347 390 356 379 352 407 358 394 380 375 411 396 443 412 385 388 397 389 373 406 403 396 415 447 398 392 380 380 427 403 362 398 384 434 397 410 405 403 409 387 397 365 391 361 374 376 344 365 377 383 359 362 417 346 390 376 407 394 362 373 366 410 401 386 369 367 342 384 381 387 367 355 369 367 334 348 366 338 336 320 361 343 378 349 347 377 332 340 319 355 324 323 364 343 357 336 301 334 314 312 314 339 306 346 297 351 319 339 343 316 337 321 340 311 309 333 308 324 334 327 289 331 312 313 310 312 286 336 315 326 340 344 320 314 309 353 303 345 273 317 309 331 352 278 321 318 342 308 324 305 316 291 334 319 326 327 337 323 352 336 328 338 317 360 331 325 325 357 318 351 293 363 337 335 353 320 359 339 324 356 339 364 322 363 365 344 328 381 358 373 336 350 332 319 334 341 361 323 309 311 330 337 341 329 356 349 368 356 342 321 333 359 316 363 311 319 369 304 358 353 340 311 304 316 328 332 313 363 350 386 350 350 362 331 311 340 322 354 306 346 345 340 339 358 340 348 352 345 342 347 350 315 334 326 336 371 361 314 315 344 343 378 356 371 360 340 369 349 376 360 337 349 353 356 329 342 327 372 337 347 366 335 386 354 379 341 336 357 352 387 370 374 364 355 369 380 389 419 366 430 392 471 441 426 488 458 490 504 513 504 510 459 510 502 507 551 579 523 511 570 555 580 562 575 565 547 509 525 531 542 502 463 516 491 502 499 489 475 421 491 471 436 449 477 445 455 417 410 433 409 406 394 432 398 425 370 413 404 360 337 339 357 368 344 369 350 360 307 338 324 331 356 344 333 318 361 332 345 361 334 324 312 344 323 312 326 332 333 353 313 314 324 311 329 334 330 330 349 346 287 305 351 297 354 313 346 336 329 359 337 350 328 347 310 360 343 303 260 364 298 362 343 310 332 364 353 370 330 334 355 312 371 331 347 338 360 315 329 360 337 380 353 376 342 354 346 385 351 340 341 355 346 311 314 337 390 342 319 344 341 341 348 303 386 339 304 329 348 289 334 310 311 364 322 344 302 324 321 326 317 334 284 311 323 351 307 346 326 347 321 331 336 373 357 331 321 345 318 313 342 362 322 344 308 348 329 336 309 306 344 331 295 353 309 330 357 343 360 312 350 327 340 339 379 372 335 354 297 376 341 364 365 315 365 350 363 325 335 331 307 325 351 336 365 310 341 327 343 345 307 331 352 361 317 329 341 312 355 314 289 322 307 336 290 338 313 360 363 348 322 306 334 320 324 373 328 318 358 366 336 336 334 368 369 380 382 359 338 358 390 376 370 394 370 381 376 373 357 348 398 373 358 342 357 378 393 376 371 360 375 390 360 388 302 379 387 379 325 318 356 322 333 345 351 313 338 335 348 336 322 359 370 344 350 316 326 354 332 352 335 314 373 312 367 374 351 325 312 302 346 346 319 345 315 363 334 322 368 354 359 322 320 349 352 354 356 348 350 361 326 331 339 313 301 312 312 304 334 368 354 321 333 348 328 311 342 370 332 379 321 310 352 317 318 310 399 331 325 281 292 310 316 337 311 299 310 356 321 316 335 324 315 345 334 285 294 339 311 320 328 310 331 301 300 281 338 301 316 299 339 288 331 309 318 319 293 314 325 311 316 322 323 305 302 316 307 319 314 313 318 304 315 315 340 325 320 301 318 350 345 326 336 341 356 340 362 325 339 338 315 307 277 331 296 347 301 313 340 302 331 340 268 310 313 315 356 332 328 355 322 335 325 336 314 326 325 385 338 363 419 329 340 345 336 336 344 366 363 332 390 356 369 368 381 349 332 360 329 348 368 338 342 305 361 338 372 344 340 359 358 324 321 366 354 361 393 372 372 343 371 354 317 334 347 313 332 349 311 327 325 346 317 330 349 316 337 343 337 323 327 348 326 309 318 328 345 307 334 326 310 322 288 333 320 340 299 309 342 341 337 351 320 311 319 325 327 321 326 338 333 319 354 330 322 376 338 342 381 347 331 344 327 336 338 301 321 348 345 348 340 330 321 335 343 337 319 365 314 368 347 334 329 293 320 316 338 333 336 351 354 347 317 335 346 383 367 344 321 314 348 340 372 356 333 335 346 336 347 334 362 382 358 348 365 317 330 309 351 358 366 366 373 385 337 358 362 369 353 352 361 377 396 361 372 417 380 364 409 347 354 399 408 380 375 397 382 387 368 378 436 384 372 397 359 405 405 428 412 413 424 386 446 375 381 378 394 419 441 488 458 450 511 490 502 462 513 505 571 523 592 579 591 550 566 647 626 624 629 574 646 619 636 599 647 613 602 596 584 609 614 597 577 542 578 566 530 536 493 568 481 536 528 504 526 536 492 484 511 482 507 425 473 467 435 458 430 428 406 419 464 390 402 361 396 404 385 375 394 377 362 361 351 363 395 379 367 377 420 373 374 341 366 340 359 400 366 322 407 398 395 375 347 350 322 390 339 399 342 367 361 349 307 325 368 347 342 333 363 343 362 367 341 346 334 354 343 355 312 387 362 348 349 337 360 356 365 329 375 379 382 358 349 394 386 405 430 379 357 354 340 389 358 332 345 364 368 379 413 399 332 422 356 356 372 383 394 362 354 389 384 372 381 364 390 390 359 362 362 368 358 337 354 353 347 340 362 388 387 411 392 361 362 379 385 379 389 412 416 415 386 434 434 432 446 400 459 453 434 493 440 436 459 482 428 484 500 501 471 470 451 438 480 489 424 472 472 495 502 493 533 448 491 498 522 502 572 505 523 550 555 557 535 574 537 585 521 595 593 598 616 593 603 589 606 651 694 693 693 726 784 718 813 806 803 718 836 791 776 764 759 747 762 674 713 699 691 688 702 665 594 655 663 669 659 631 660 629 588 648 623 590 573 553 563 571 555 502 545 460 514 497 444 430 466 472 456 446 429 423 418 423 380 374 362 417 353 390 354 400 367 374 392 396 343 368 311 373 323 338 314 350 367 340 356 330 359 343 344 321 317 337 346 350 350 351 346 338 342 336 355 325 335 315 348 310 333 331 329 346 336 327 348 341 368 290 323 327 294 351 374 353 359 334 345 367 348 307 323 335 339 353 337 343 352 367 348 369 335 347 297 329 339 330 358 352 371 321 365 377 334 333 373 355 351 332 345 357 363 333 303 331 319 335 364 381 358 345 349 354 349 359 347 324 347 355 378 369 362 355 398 384 351 335 365 389 360 383 363 382 360 371 361 329 337 361 365 354 389 349 366 379 365 347 367 316 397 349 364 356 383 345 330 368 345 380 332 342 354 336 345 348 383 308 375 345 366 383 325 368 322 315 340 348 352 355 362 354 341 333 295 344 372 326 322 353 375 341 324 349 298 331 315 329 299 325 310 333 330 325 335 334 304 329 343 325 363 311 302 340 349 319 318 336 349 319 352 339 346 338 358 415 355 346 356 382 367 389 408 419 435 408 428 446 436 448 452 412 416 447 430 404 458 407 420 456 432 439 437 455 423 429 422 411 423 406 437 470 414 420 432 393 340 407 381 389 401 396 364 388 376 378 376 384 348 366 383 367 375 357 331 359 394 339 384 353 364 353 356 369 337 332 324 317 307 307 339 343 305 327 311 328 298 280 317 330 307 316 311 311 243 321 340 309 324 288 317 311 296 337 324 305 305 335 302 310 330 315 292 327 309 313 322 327 324 322 302 339 329 330 350 320 338 337 306 303 286 325 354 356 341 329 314 343 303 354 307 290 308 352 337 337 318 324 325 351 335 341 318 357 328 334 331 319 305 370 304 326 313 319 329 357 310 308 308 346 323 352 319 321 332 359 331 326 337 298 328 289 357 277 307 303 314 304 325 325 313 321 295 327 306 317 309 316 314 340 323 275 317 310 318 317 322 340 307 267 292 339 284 285 313 285 325 341 333 335 267 279 292 313 300 333 315 321 320 292 331 303 288 282 257 299 307 308 282 308 263 311 305 290 318 290 296 332 333 338 303 299 298 304 344 303 279 298 293 282 333 302 307 288 310 249 328 309 313 315 302 278 314 277 291 295 347 294 282 332 320 330 287 311 316 264 320 309 290 277 305 287 316 285 305 290 314 289 299 315 277 308 307 309 304 304 353 308 333 323 304 301 312 336 291 290 348 295 318 325 351 304 321 316 307 320 320 290 335 350 348 295 316 317 300 300 293 318 293 322 299 306 301 300 318 302 310 298 310 301 315 320 282 347 333 298 327 347 315 321 335 330 332 366 336 369 384 355 320 319 375 342 378 324 400 357 344 359 329 343 366 335 364 354 349 322 363 328 339 348 348 353 312 323 368 325 325 328 348 333 324 336 313 322 361 296 300 329 297 334 335 313 300 321 281 311 325 284 316 302 283 309 308 290 315 289 304 277 334 291 319 319 311 295 306 316 289 300 297 324 296 329 300 303 316 302 336 268 294 306 289 278 286 288 302 326 270 325 298 317 291 296 293 287 290 328 336 323 289 336 297 328 311 324 289 305 263 337 313 347 316 293 358 349 324 328 319 307 327 300 299 345 326 301 330 279 343 316 330 332 330 311 334 323 334 341 328 283 343 302 320 304 301 308 360 338 382 305 371 333 357 324 340 312 332 337 376 360 336 341 355 318 363 354 375 339 337 328 333 322 367 370 370 332 344 333 332 331 332 370 317 355 326 315 305 350 326 362 337 322 316 333 334 336 366 341 286 323 310 352 312 345 294 309 308 318 306 314 331 330 279 319 296 313 318 328 323 312 288 314 359 283 344 296 316 295 329 309 331 329 307 277 307 312 305 280 307 281 276 335 301 312 325 335 322 326 313 308 309 332 317 355 337 326 329 334 342 332 347 318 365 355 353 371 384 403 396 401 424 409 404 434 433 460 461 447 452 448 469 462 503 528 464 527 531 539 507 595 558 567 567 542 554 570 584 549 557 551 557 507 541 535 538 508 510 490 497 493 513 534 510 517 476 544 479 495 498 437 471 459 462 478 462 433 433 459 444 419 455 410 428 403 419 390 354 402 365 398 364 380 348 354 363 357 368 345 308 350 364 377 354 338 363 326 325 309 357 346 325 311 286 345 365 320 349 353 306 334 359 344 330 336 326 325 333 326 305 316 331 318 300 313 294 297 295 295 339 344 312 304 307 300 313 294 293 308 339 339 323 311 306 289 312 292 317 297 298 320 338 291 292 304 289 300 286 285 311 285 297 348 289 308 315 278 285 315 320 308 273 302 297 311 325 292 301 319 315 334 290 311 284 326 320 307 297 322 339 299 315 310 315 308 305 313 311 320 331 307 329 322 336 310 303 328 323 289 354 307 354 319 311 326 323 316 300 289 295 313 286 310 316 354 302 327 307 303 323 315 289 312 271 285 308 333 332 328 327 334 321 328 341 336 304 305 348 322 322 343 376 312 351 342 351 308 368 328 350 315 349 334 297 339 280 320 304 352 303 350 316 333 309 322 306 307 348 313 347 273 338 335 293 330 283 314 289 312 298 307 312 314 304 299 312 282 315 290 273 319 271 295 286 315 313 271 305 289 303 280 284 275 280 298 284 272 275 290 266 300 283 278 305 289 294 246 316 291 302 322 288 322 296 308 302 277 299 303 296 297 274 261 286 280 278 263 289 295 237 272 309 283 281 284 333 226 313 235 273 282 310 291 281 300 312 294 294 296 271 285 207 264 259 289 287 302 295 298 236 302 257 278 269 270 268 280 267 299 262 261 304 300 278 297 289 294 259 276 271 292 286 263 295 279 319 321 266 306 301 287 264 289 285 294 308 313 283 286 279 291 274 294 261 304 279 261 283 271 245 275 241 267 295 267 275 270 286 260 227 273 264 287 291 291 295 263 281 296 305 282 260 276 280 285 285 300 298 268 293 291 278 278 302 315 280 283 278 321 289 306 305 304 276 258 281 307 303 264 249 282 270 277 324 300 320 326 243 292 286 301 294 305 274 299 264 297 270 297 278 284 298 279 259 300 262 313 298 268 310 285 283 292 277 325 304 283 309 272 312 296 256 281 276 266 278 267 291 295 277 259 296 270 266 279 298 286 297 297 287 265 321 288 288 289 265 284 297 282 278 298 244 308 262 307 318 275 280 297 270 249 296 263 281 289 301 261 323 263 310 277 236 244 278 274 315 274 283 281 298 283 291 297 230 271 285 298 288 289 276 273 297 292 290 286 280 286 300 271 285 271 290 333 306 291 274 297 276 276 306 290 294 273 287 282 284 292 299 299 276 300 279 306 283 320 281 282 315 272 269 317 299 314 315 328 298 307 302 287 287 313 295 322 304 344 319 325 312 304 354 306 311 332 352 329 308 333 363 294 293 325 299 329 319 351 349 370 348 353 351 353 375 327 398 383 366 366 384 361 421 412 375 368 368 357 365 348 370 359 358 352 381 337 372 324 354 349 328 385 381 378 365 373 358 388 362 428</counts>
			</dataPoints>
		</scan>
	</xrdMeasurement>
</xrdMeasurements>
