<?xml version="1.0"?>
<xrdMeasurements xmlns="http://www.xrdml.com/XRDMeasurement/2.3" xmlns:xsi="http://www.w3.org/2001/XMLSchema-instance" xsi:schemaLocation="http://www.xrdml.com/XRDMeasurement/2.3 http://www.xrdml.com/XRDMeasurement/2.3/XRDMeasurement.xsd" status="Completed" recordIdentifier="{3620A547-ADCB-4502-BB18-6E88AF0A3DC0}">
	<comment>
		<entry/>
	</comment>
	<sample type="To be analyzed">
		<id>GPSS_Li1p8Bi0p2Mg0p8Cl4_112225_6921f967f4e53d1f72397d33</id>
		<name></name>
		<preparedBy></preparedBy>
	</sample>
	<xrdMeasurement measurementType="Scan" status="Completed" sampleMode="Reflection">
		<usedWavelength intended="K-Alpha 1">
			<kAlpha1 unit="Angstrom">1.5405980</kAlpha1>
			<kAlpha2 unit="Angstrom">1.5444260</kAlpha2>
			<kBeta unit="Angstrom">1.3922500</kBeta>
			<ratioKAlpha2KAlpha1>0.5000</ratioKAlpha2KAlpha1>
		</usedWavelength>
		<incidentBeamPath>
			<radius unit="mm">145.00</radius>
			<xRayTube id="1010048" name="Empyrean Cu LFF HR (9430 033 7310x)">
				<tension unit="kV">40.0</tension>
				<current unit="mA">15.0</current>
				<anodeMaterial>Cu</anodeMaterial>
				<focus type="Line">
					<length unit="mm">12.0</length>
					<width unit="mm">0.4</width>
					<takeOffAngle unit="deg">6.0</takeOffAngle>
				</focus>
			</xRayTube>
			<sollerSlit id="21010002" name="Soller slits 0.04 rad.">
				<opening unit="rad">0.0400</opening>
			</sollerSlit>
			<mask id="22031000" name="Fixed mask 13 mm">
				<width unit="mm">9.00</width>
			</mask>
			<divergenceSlit id="22120001" name="Divergence slit 1°" xsi:type="fixedDivergenceSlitType">
				<distanceToSample unit="mm">50.00</distanceToSample>
				<height unit="mm">1.52</height>
			</divergenceSlit>
		</incidentBeamPath>
		<sampleMovement xsi:type="spinningSampleMovementType">
			<spinnerRevolutionTime unit="seconds">1.0</spinnerRevolutionTime>
		</sampleMovement>
		<diffractedBeamPath>
			<radius unit="mm">145.00</radius>
			<antiScatterSlit id="22090040" name="AS slit 9 mm (PIXcel)" xsi:type="fixedAntiScatterSlitType">
				<height unit="mm">9.00</height>
			</antiScatterSlit>
			<sollerSlit id="21020003" name="Large Soller slits 0.04 rad.">
				<opening unit="rad">0.0400</opening>
			</sollerSlit>
			<filter id="20030001" name="Large beta-filter Nickel">
				<material>Ni</material>
				<thickness unit="mm">0.020</thickness>
			</filter>
			<detector id="7010019" name="PIXcel1D-Medipix3 detector" xsi:type="rtmsDetectorType">
				<phd unit="keV">
					<lowerLevel>4.02</lowerLevel>
					<upperLevel>11.27</upperLevel>
				</phd>
				<mode>Scanning</mode>
				<activeLength unit="deg">5.542</activeLength>
			</detector>
		</diffractedBeamPath>
		<scan appendNumber="0" mode="Continuous" scanAxis="Gonio" status="Completed">
			<header>
				<startTimeStamp>2025-11-25T10:13:42-08:00</startTimeStamp>
				<endTimeStamp>2025-11-25T10:21:49-08:00</endTimeStamp>
				<author>
					<name>AutomatedUser</name>
				</author>
				<source>
					<applicationSoftware version="1.7b (136)">PANalytical Aeris Instrument Suite</applicationSoftware>
					<instrumentControlSoftware version="3.2.00000000 20240306">AERIS</instrumentControlSoftware>
					<instrumentID>950485</instrumentID>
				</source>
			</header>
			<dataPoints>
				<positions axis="2Theta" unit="deg">
					<startPosition>10.00943322</startPosition>
					<endPosition>99.99442286</endPosition>
				</positions>
				<positions axis="Omega" unit="deg">
					<startPosition>5.00471661</startPosition>
					<endPosition>49.99721143</endPosition>
				</positions>
				<commonCountingTime unit="seconds">12.495</commonCountingTime>
				<counts unit="counts">3190 3187 3116 3146 3023 3108 3170 3169 3182 3153 3189 3231 3074 3110 3190 2986 3053 3050 3193 3154 3099 3055 3030 3152 3052 3199 3027 3166 3115 3189 3013 3129 3200 3077 3172 3281 3157 3230 3212 3126 3184 3011 3116 3196 3233 3127 3129 3127 3152 3142 3113 3286 3199 3175 3179 3057 3100 3248 3121 3129 3187 3186 3184 3146 3149 3020 3240 3159 3133 3284 3111 3231 3136 3128 3090 3166 3182 3237 3192 3105 3289 3245 3131 3254 3173 3370 3083 3156 3196 3204 3153 3257 3258 3248 3190 3215 3146 3211 3277 3244 3284 3178 3243 3209 3133 3216 3348 3162 3215 3263 3307 3278 3205 3245 3192 3224 3250 3286 3228 3303 3249 3330 3240 3255 3261 3277 3123 3306 3383 3244 3364 3314 3425 3157 3340 3126 3301 3252 3300 3270 3255 3329 3213 3354 3322 3259 3309 3223 3224 3256 3299 3291 3185 3265 3345 3329 3339 3153 3301 3298 3333 3248 3274 3300 3352 3317 3423 3272 3334 3232 3358 3271 3255 3269 3331 3288 3265 3326 3251 3301 3379 3404 3371 3357 3382 3351 3202 3289 3298 3261 3292 3305 3260 3435 3225 3328 3249 3261 3336 3407 3334 3345 3338 3303 3290 3220 3263 3249 3206 3296 3247 3274 3277 3267 3301 3338 3239 3323 3239 3276 3180 3287 3242 3238 3371 3193 3183 3239 3174 3307 3167 3196 3276 3302 3211 3222 3224 3263 3154 3197 3237 3146 3193 3231 3194 3190 3217 3192 3178 3213 3158 3126 3142 3177 3082 3210 3202 3223 3224 3177 3092 3260 3207 3201 3270 3233 3219 3256 3187 3176 3335 3162 3071 3112 3128 3191 3192 3199 3214 3256 3183 3105 3174 3218 3279 3191 3201 3271 3171 3209 3324 3257 3318 3161 3252 3237 3185 3225 3274 3253 3156 3169 3114 3248 3234 3200 3133 3178 3358 3214 3196 3231 3271 3132 3379 3185 3297 3373 3318 3231 3257 3305 3288 3179 3408 3259 3324 3272 3367 3211 3284 3314 3342 3404 3368 3274 3314 3331 3453 3380 3372 3319 3352 3378 3425 3404 3426 3406 3425 3353 3380 3403 3364 3251 3479 3366 3502 3485 3284 3493 3401 3506 3577 3441 3531 3476 3554 3382 3534 3397 3424 3463 3574 3483 3470 3442 3606 3542 3517 3588 3493 3525 3519 3506 3534 3543 3553 3589 3703 3540 3579 3617 3571 3775 3584 3638 3647 3683 3687 3719 3515 3585 3667 3632 3769 3802 3726 3855 3729 3840 3701 3869 3915 3845 3948 3899 3806 3985 4041 4103 4002 4126 4334 4177 4260 4295 4459 4482 4477 4521 4519 4604 4680 4593 4578 4620 4650 4749 4732 4717 4837 4869 4785 4937 4837 4882 4859 4824 4786 4794 4662 4680 4536 4484 4474 4271 4248 4220 4156 4186 4091 4069 4039 4078 3998 4120 3941 3975 3966 3975 3999 3944 4026 4077 4003 3956 4014 4148 4042 3950 4089 4034 4005 4100 4148 4043 4140 4100 4190 4188 4241 4153 4360 4238 4332 4210 4127 4243 4118 4094 4088 3908 4116 3951 3984 3827 3769 3779 3808 3628 3743 3693 3565 3614 3585 3570 3488 3644 3451 3548 3469 3491 3396 3431 3264 3396 3363 3336 3331 3446 3395 3372 3268 3393 3364 3283 3352 3298 3337 3253 3259 3337 3236 3249 3241 3250 3165 3341 3264 3146 3248 3295 3268 3312 3206 3215 3428 3160 3243 3240 3071 3239 3190 3046 3254 3207 3293 3182 3253 3152 3218 3230 3241 3107 3133 3177 3178 3217 3072 3037 3163 3142 3206 3181 3175 3130 3167 3021 3135 2950 3140 3133 3132 3003 3106 3031 3208 3180 3117 3184 3141 3159 3045 3013 3078 3130 3074 2962 3020 3008 3056 2976 3021 2939 3002 3064 2996 2992 3042 3033 2953 2973 2984 3000 3010 3026 2950 3057 3103 3005 3015 3031 3068 2971 3025 3013 3079 2948 2972 2942 3016 2996 2981 2931 3038 3036 3017 2981 3000 2926 2957 2993 2942 2949 2983 2983 2953 3032 2983 2951 2994 2897 2979 3035 2971 2988 2857 3053 2964 2968 2973 2933 2848 2973 3002 2948 2885 2947 2910 2804 2895 2886 3005 2932 2893 2930 2936 2875 2862 2953 2897 2833 2935 2980 2982 2919 2903 2817 2877 2888 2899 2869 2890 2851 2749 2931 2840 2980 2930 2825 2863 2885 2814 2857 3046 2888 2844 2841 2816 2906 2868 2914 2837 2917 2818 2915 2946 2872 2913 2959 2916 2811 2863 2893 2793 2829 2814 2899 2867 2843 2947 2855 2765 2814 2887 2821 2844 2821 2856 2831 2965 2785 2806 2860 2959 2840 2859 2801 2860 2979 2835 2813 2823 2887 2848 2837 2832 2772 2809 2671 2862 2893 2800 2858 2803 2795 2747 2888 2813 2784 2793 2827 2786 2852 2874 2904 2796 2825 2826 2745 2888 2857 2727 2815 2811 2814 2789 2822 2772 2812 2838 2820 2768 2704 2810 2695 2734 2806 2735 2827 2659 2859 2812 2857 2817 2807 2823 2766 2738 2726 2767 2790 2739 2718 2770 2826 2708 2669 2586 2710 2757 2677 2659 2666 2674 2732 2645 2690 2688 2787 2621 2797 2761 2775 2711 2668 2743 2761 2731 2673 2715 2647 2723 2691 2688 2650 2633 2757 2743 2674 2702 2715 2726 2668 2714 2768 2659 2725 2724 2624 2768 2692 2722 2508 2673 2702 2682 2689 2628 2700 2622 2627 2613 2637 2759 2645 2615 2729 2637 2673 2634 2656 2669 2661 2679 2628 2637 2628 2661 2649 2642 2642 2664 2595 2624 2593 2695 2549 2508 2665 2621 2587 2620 2672 2617 2659 2657 2575 2545 2631 2651 2578 2519 2577 2555 2592 2673 2544 2654 2505 2662 2517 2578 2559 2547 2568 2608 2626 2653 2644 2596 2528 2491 2598 2520 2527 2616 2486 2627 2586 2709 2594 2525 2635 2521 2559 2443 2499 2520 2501 2564 2584 2457 2586 2513 2521 2531 2608 2589 2529 2448 2519 2602 2544 2561 2548 2613 2526 2508 2547 2536 2516 2567 2535 2476 2576 2453 2647 2508 2600 2480 2551 2546 2481 2588 2561 2494 2501 2542 2494 2522 2658 2542 2592 2662 2575 2476 2589 2516 2531 2646 2583 2480 2663 2556 2585 2574 2562 2497 2534 2457 2483 2521 2541 2592 2517 2508 2513 2496 2478 2514 2553 2540 2566 2483 2514 2563 2596 2572 2535 2536 2461 2508 2524 2638 2493 2603 2534 2591 2529 2587 2568 2498 2561 2605 2482 2443 2494 2447 2582 2595 2550 2609 2567 2499 2459 2548 2654 2504 2465 2545 2585 2478 2520 2563 2548 2507 2541 2546 2568 2535 2497 2486 2560 2635 2598 2549 2506 2463 2491 2530 2560 2543 2567 2470 2430 2506 2375 2503 2443 2562 2451 2524 2578 2460 2530 2476 2505 2553 2525 2513 2533 2470 2497 2511 2454 2508 2516 2408 2399 2513 2540 2454 2401 2453 2498 2554 2440 2385 2400 2542 2503 2443 2490 2490 2478 2418 2515 2377 2457 2538 2489 2421 2452 2410 2505 2408 2443 2415 2514 2481 2386 2408 2414 2442 2390 2422 2377 2316 2481 2330 2349 2318 2310 2329 2301 2241 2438 2363 2461 2269 2329 2248 2275 2234 2287 2255 2274 2319 2385 2298 2382 2269 2260 2317 2245 2271 2266 2157 2366 2193 2250 2264 2235 2259 2191 2245 2361 2188 2243 2226 2242 2293 2259 2105 2175 2232 2139 2140 2220 2194 2199 2198 2147 2198 2167 2128 2264 2154 2060 2110 2065 2118 2107 2246 2157 2175 2194 2099 2109 2153 2127 2057 2150 2122 2054 2112 2034 2134 2117 2118 2181 2039 2110 2110 2140 2071 2029 2049 2113 2035 2016 2078 2027 2044 1985 2043 2029 2041 1977 2014 2144 1989 2015 1936 2005 1938 2023 2000 1963 1961 2048 1958 1949 1967 1944 1993 1917 1940 2024 2008 1882 1926 1977 2004 1955 1928 1987 2003 1983 1974 1986 2105 1974 2019 1892 2000 1886 1901 1968 1904 1922 1937 1981 1965 1901 1944 1909 1923 1895 1936 1943 1893 1956 1914 1912 1973 1886 1922 2018 2006 1880 1900 1936 1847 1871 1902 1903 1897 1864 1926 1953 1896 1808 1840 1909 1841 1838 1886 1872 1924 1848 1901 1879 1780 1812 1840 1887 1902 1840 1833 1899 1841 1900 1787 1930 1880 1783 1824 1990 1785 1830 1852 1879 1826 1856 1847 1831 1823 1856 1876 1866 1858 1779 1877 1804 1932 1919 1852 1839 1864 1811 1882 1878 1797 1837 1917 1889 1834 1885 1915 1914 1850 1880 1848 1942 1789 2008 1928 1920 1892 1890 1957 1885 1849 1925 1845 1874 1884 1828 1881 1879 1873 1902 1854 1884 1826 1913 1844 1884 1859 1795 1898 1905 1918 1861 1991 1832 1823 1859 1885 1867 1800 1898 1816 1868 1847 1797 1832 1842 1844 1843 1770 1948 1877 1899 1800 1895 1881 1952 1790 1854 1867 1896 1973 1889 1880 1823 1878 1869 1865 1867 1834 1897 1783 1782 1898 1846 1908 1828 1844 1870 1819 1799 1818 1823 1860 1868 1876 1869 1822 1861 1852 1868 1861 1835 1859 1859 1839 1892 1830 1773 1821 1765 1902 1855 1786 1876 1862 1868 1804 1795 1781 1841 1872 1897 1831 1902 1881 1782 1816 1810 1865 1924 1791 1858 1763 1811 1822 1850 1845 1821 1734 1743 1769 1799 1815 1833 1750 1737 1874 1848 1865 1832 1806 1742 1709 1848 1795 1761 1826 1730 1788 1730 1820 1768 1728 1662 1768 1796 1745 1759 1767 1730 1666 1766 1798 1739 1741 1788 1762 1727 1689 1770 1788 1799 1691 1767 1792 1666 1650 1771 1764 1689 1660 1723 1758 1639 1690 1709 1716 1661 1622 1661 1615 1643 1660 1663 1656 1694 1663 1669 1629 1647 1640 1682 1561 1649 1621 1645 1667 1676 1619 1602 1637 1616 1592 1626 1578 1640 1580 1623 1613 1542 1534 1644 1632 1617 1593 1627 1594 1515 1504 1600 1573 1571 1538 1598 1518 1546 1508 1547 1618 1470 1525 1548 1587 1468 1601 1538 1584 1507 1532 1534 1572 1599 1551 1571 1429 1559 1493 1507 1572 1526 1556 1529 1439 1527 1533 1525 1496 1580 1522 1532 1452 1561 1529 1478 1527 1506 1561 1509 1556 1577 1560 1526 1559 1648 1594 1680 1666 1752 1715 1774 1823 1852 1855 1907 1891 1858 1902 1885 1902 1902 1849 1975 1946 1891 1865 2030 1936 1946 2004 1863 1925 1880 1820 1789 1803 1768 1726 1745 1797 1744 1656 1615 1617 1666 1656 1594 1551 1612 1633 1647 1582 1619 1450 1553 1563 1501 1500 1487 1539 1519 1475 1583 1442 1562 1465 1439 1461 1451 1461 1424 1487 1479 1474 1507 1520 1446 1504 1542 1528 1428 1435 1517 1469 1502 1560 1469 1452 1505 1505 1517 1527 1552 1446 1548 1471 1515 1566 1561 1585 1564 1621 1623 1632 1628 1711 1703 1731 1726 1676 1781 1825 1826 1894 1981 2062 2096 2316 2433 2560 2811 3108 3273 3682 3976 4199 4591 4963 5317 5668 6046 6454 6608 7181 7044 7438 7414 7798 7761 8102 8106 7992 8434 8420 8508 8405 8342 8247 7925 8030 7700 7587 7266 6994 6555 6267 5910 5534 5288 5135 4883 4703 4326 4238 4041 3980 3942 3757 3723 3505 3517 3478 3451 3334 3264 3305 3244 3242 3277 3247 3214 3084 3024 3082 2965 2889 2805 2754 2543 2654 2466 2487 2503 2394 2438 2332 2250 2274 2172 2140 2168 2078 2085 2005 1871 1793 1868 1751 1668 1605 1782 1599 1606 1626 1521 1598 1516 1486 1561 1540 1506 1513 1526 1399 1453 1436 1429 1466 1388 1357 1434 1400 1370 1374 1349 1322 1309 1280 1384 1368 1280 1286 1349 1325 1338 1302 1273 1242 1296 1328 1256 1317 1271 1267 1282 1238 1245 1277 1290 1273 1207 1232 1233 1233 1249 1199 1277 1222 1315 1315 1275 1334 1224 1270 1220 1257 1244 1283 1285 1255 1256 1230 1241 1208 1260 1238 1174 1170 1218 1182 1233 1197 1198 1209 1195 1230 1223 1199 1207 1209 1268 1251 1203 1170 1248 1171 1185 1220 1211 1243 1137 1188 1192 1242 1182 1185 1172 1188 1237 1155 1199 1139 1169 1104 1178 1170 1213 1202 1167 1167 1101 1223 1165 1178 1143 1222 1145 1200 1215 1161 1188 1159 1150 1157 1123 1179 1147 1177 1137 1231 1163 1207 1164 1141 1170 1208 1182 1147 1216 1146 1119 1192 1221 1206 1133 1185 1141 1159 1128 1172 1163 1119 1198 1175 1158 1180 1210 1169 1192 1163 1165 1256 1114 1145 1109 1244 1150 1197 1104 1129 1180 1146 1192 1135 1115 1121 1135 1155 1154 1107 1190 1146 1095 1084 1105 1192 1118 1104 1167 1100 1140 1175 1119 1137 1222 1179 1115 1131 1088 1062 1058 1104 1137 1149 1099 1161 1129 1110 1127 1151 1153 1147 1141 1107 1114 1119 1179 1086 1156 1114 1101 1152 1162 1061 1056 1127 1088 1130 1143 1159 1161 1098 1171 1082 1146 1124 1142 1107 1121 1086 1143 1125 1153 1124 1116 1196 1163 1162 1170 1170 1180 1229 1150 1173 1219 1223 1255 1304 1240 1177 1175 1246 1233 1281 1213 1237 1181 1255 1295 1259 1278 1221 1299 1292 1268 1249 1218 1212 1318 1175 1220 1259 1246 1202 1210 1205 1262 1192 1200 1275 1231 1272 1190 1155 1223 1184 1210 1229 1195 1212 1175 1200 1258 1250 1232 1263 1242 1335 1276 1232 1210 1235 1257 1270 1304 1308 1297 1305 1403 1282 1394 1338 1411 1466 1477 1476 1560 1591 1693 1709 1834 2004 2025 2223 2327 2489 2788 3140 3121 3592 3871 4244 4531 4933 5199 5784 6133 6423 6688 7043 7328 7350 7666 7933 8138 8376 8239 8466 8639 8419 8294 7969 8084 7611 7566 7190 7277 6835 6592 6225 6049 5706 5391 5057 4941 4727 4384 4271 4000 3899 3704 3599 3496 3304 3279 3151 3089 2920 2962 2786 2837 2642 2705 2640 2579 2496 2550 2448 2311 2375 2214 2192 2076 2099 1918 2003 1902 1829 1714 1762 1636 1683 1556 1511 1539 1410 1485 1398 1406 1339 1222 1281 1316 1275 1235 1278 1286 1269 1284 1291 1287 1236 1225 1190 1206 1294 1136 1119 1165 1118 1217 1154 1145 1170 1179 1139 1122 1222 1162 1166 1164 1141 1140 1145 1086 1193 1162 1173 1169 1158 1109 1214 1179 1161 1137 1157 1207 1184 1186 1200 1214 1185 1165 1155 1211 1156 1190 1165 1218 1282 1233 1221 1182 1235 1203 1277 1212 1200 1236 1196 1187 1293 1224 1333 1298 1303 1244 1310 1318 1372 1334 1378 1358 1339 1438 1336 1417 1323 1466 1407 1438 1345 1413 1368 1387 1380 1327 1363 1374 1416 1377 1415 1337 1337 1271 1256 1277 1263 1316 1230 1246 1239 1210 1177 1187 1172 1180 1193 1191 1151 1134 1108 1145 1074 1163 1146 1082 1146 1139 1116 1088 1088 1139 1057 1117 1069 1105 1058 1065 1042 1056 1075 1022 1041 1071 1039 1043 1118 1055 1036 1025 1074 998 1048 969 1041 1039 1001 1022 951 1065 1046 1018 1032 1003 1033 1003 1006 972 954 1015 987 1066 1004 1018 978 1062 1022 948 1083 1031 1033 1068 977 1074 982 979 976 1058 1000 1036 968 949 1007 944 1015 1019 1000 975 1009 941 969 1004 1014 920 993 966 963 970 1026 1025 1022 994 1038 1015 1011 951 1026 1026 995 976 1047 1034 1045 1013 1029 989 1062 946 1004 1013 1019 1017 992 1035 924 951 1020 1016 976 1002 945 999 911 982 933 1005 949 979 961 962 999 875 972 1008 954 951 931 963 962 1028 941 973 942 976 979 956 948 942 931 896 953 1004 971 937 967 919 988 893 949 918 983 945 930 947 945 945 916 981 1011 922 970 921 968 981 959 925 951 913 905 970 873 1013 945 915 922 929 946 960 921 863 952 946 922 901 946 978 916 943 903 912 899 906 935 938 1004 931 965 910 979 988 1015 897 981 942 916 957 950 905 899 908 978 887 952 961 918 886 897 917 898 915 896 935 914 951 939 960 968 933 913 963 903 957 891 929 913 956 877 979 904 901 953 908 916 880 902 927 942 940 979 949 894 914 935 916 996 948 961 928 937 1001 920 1009 977 1000 976 952 950 973 953 977 920 987 912 945 905 978 937 973 969 929 969 933 924 885 878 901 887 933 864 935 932 868 913 930 997 958 966 915 960 938 941 951 962 933 865 944 912 923 941 924 901 961 927 952 955 916 891 894 911 841 937 955 933 916 857 879 947 931 926 914 898 918 894 901 824 904 942 911 939 912 858 901 958 923 956 915 860 902 890 893 932 933 904 921 934 956 907 915 913 884 907 932 875 900 905 948 901 913 933 929 896 916 917 898 910 943 922 920 871 935 943 956 973 869 943 931 902 904 934 931 917 956 863 873 928 878 904 913 884 916 923 861 897 897 954 870 891 937 948 910 939 872 863 853 929 903 875 910 956 885 889 944 909 861 943 886 893 942 949 918 892 906 881 867 836 955 926 942 871 897 816 872 885 891 921 869 923 895 900 930 920 991 884 921 860 898 958 900 929 894 905 914 850 907 917 888 910 859 883 900 901 919 848 904 912 885 931 871 857 880 946 923 902 865 937 861 883 861 946 839 899 924 927 971 867 887 892 881 892 970 957 906 857 936 934 878 938 966 906 954 958 903 929 980 994 1000 953 1005 1028 1053 1067 1016 1048 1102 1115 1090 1076 1075 1072 1116 1157 1102 1193 1075 1070 1186 1129 1109 1091 1050 1100 1083 1082 1086 1044 1008 977 1043 981 945 985 935 1014 961 923 921 980 908 997 941 976 945 925 978 936 1010 964 912 892 942 926 958 890 973 892 953 916 939 895 938 1011 931 918 911 896 917 931 901 937 914 880 860 909 886 913 872 919 840 886 940 923 854 918 916 900 893 856 988 863 868 924 897 905 929 907 900 896 870 949 847 890 830 842 902 856 949 860 940 940 910 889 886 906 835 864 842 877 870 907 931 851 914 933 871 879 778 881 790 881 965 881 881 906 903 936 852 898 869 930 934 868 833 905 947 882 911 875 895 914 824 892 895 866 910 884 889 879 856 955 914 882 829 898 882 939 896 881 873 885 893 872 871 897 893 949 886 889 891 886 987 991 1008 984 1025 1034 1007 1018 1083 1057 1132 1076 1125 1214 1201 1228 1260 1328 1299 1325 1392 1431 1444 1438 1515 1480 1420 1487 1450 1481 1436 1396 1448 1427 1516 1524 1467 1404 1405 1357 1363 1243 1234 1182 1220 1164 1249 1162 1132 1090 1180 1058 1085 1092 989 1020 969 1081 1023 1024 985 1013 1017 1010 1009 1021 1005 964 993 954 1018 1015 969 980 1023 1002 1003 1025 1005 1046 1008 1149 1086 1155 1171 1242 1208 1253 1272 1273 1313 1383 1307 1387 1473 1473 1428 1441 1532 1495 1550 1572 1513 1540 1496 1467 1570 1433 1534 1465 1456 1456 1491 1421 1351 1316 1317 1315 1319 1235 1237 1217 1217 1250 1188 1106 1125 1066 1041 1054 1051 1023 961 1057 1022 973 990 962 952 894 970 995 994 953 936 856 863 876 942 931 935 854 906 942 892 915 928 921 902 903 864 815 827 871 925 843 922 880 851 904 846 833 890 860 904 888 895 843 891 831 840 837 854 849 849 875 852 831 848 853 824 839 896 805 846 870 852 907 845 867 838 847 824 874 841 810 887 845 856 787 839 836 870 833 880 863 876 796 844 844 847 843 842 858 904 861 907 826 853 841 867 868 948 814 807 837 907 823 859 892 839 864 822 891 853 870 841 874 857 869 831 827 908 879 913 868 862 860 842 881 813 871 817 864 817 851 890 823 935 866 886 897 865 875 912 862 839 884 919 875 834 836 903 884 861 916 885 891 901 852 852 883 871 874 916 867 861 852 909 855 901 897 859 905 830 895 840 837 866 928 785 827 927 862 890 864 838 851 912 816 886 893 877 853 858 846 884 844 840 851 879 882 885 875 863 900 845 842 869 887 891 871 865 877 827 943 875 883 875 870 859 844 893 875 829 855 874 849 826 880 837 814 819 891 882 851 851 841 860 875 852 829 856 925 848 891 860 863 854 898 892 862 865 922 857 844 874 837 854 856 840 825 867 885 845 880 856 869 909 872 868 897 810 845 904 883 860 861 860 919 874 871 846 876 843 888 867 873 895 901 897 854 908 859 861 863 877 870 892 878 859 976 854 857 889 852 840 920 912 946 965 925 910 980 894 980 948 967 957 964 988 991 977 1014 951 965 1032 1062 1042 985 1063 1086 1097 1162 1171 1194 1267 1362 1452 1439 1530 1690 1845 2000 2153 2314 2470 2637 2840 3057 3295 3491 3745 3909 4033 4263 4326 4579 4633 4891 5064 5240 5217 5276 5351 5333 5311 5091 4951 4949 4763 4842 4659 4504 4638 4304 4255 4044 4156 3841 3710 3417 3326 3238 3177 2981 2959 2762 2607 2575 2444 2400 2319 2129 2213 2031 2007 2041 1901 1855 1823 1818 1667 1683 1586 1567 1534 1604 1512 1514 1522 1554 1565 1462 1489 1476 1386 1434 1388 1361 1405 1347 1369 1373 1384 1337 1245 1265 1216 1258 1186 1155 1171 1147 1131 1113 1027 1092 1022 1031 1101 1010 1012 986 966 995 998 1027 970 982 991 1014 902 949 895 890 943 965 873 924 870 834 907 807 926 874 883 847 860 887 899 833 835 855 841 854 929 880 868 877 825 848 809 845 846 868 918 849 933 864 859 804 801 859 791 864 828 837 839 788 812 869 824 860 803 872 875 836 839 829 820 851 877 921 820 879 856 859 884 872 855 858 894 853 876 851 938 874 893 870 901 856 882 849 857 852 918 884 920 870 874 917 850 908 882 849 897 817 912 922 947 948 892 908 935 912 958 992 1028 1018 895 1002 1024 1064 1087 1072 1101 1178 1128 1144 1162 1218 1204 1177 1301 1262 1284 1270 1305 1288 1380 1339 1350 1386 1383 1292 1337 1323 1310 1285 1274 1362 1315 1258 1251 1298 1247 1202 1166 1207 1197 1164 1161 1168 1194 1149 1159 1141 1104 1075 1138 1077 1035 1107 1018 1035 1137 1086 1069 1030 1100 1024 985 1003 1038 1000 1048 977 987 1013 1016 957 1003 1030 979 969 936 957 971 946 977 964 956 943 895 864 966 946 914 917 918 890 921 860 887 874 833 806 850 805 840 852 817 851 827 891 859 844 817 845 818 828 817 853 857 786 817 827 794 837 849 768 741 801 803 835 845 835 862 824 811 796 793 811 826 830 789 806 757 822 785 793 796 779 809 822 829 820 799 817 813 795 812 792 777 789 822 864 761 786 795 739 830 835 789 798 791 781 769 825 792 754 826 810 795 778 760 788 761 776 831 803 771 756 796 778 819 801 793 733 820 781 816 874 793 821 805 818 797 764 866 820 797 834 793 794 752 870 802 796 813 833 749 751 820 812 799 771 805 810 763 792 799 792 751 776 769 753 822 732 781 820 777 744 757 849 859 790 822 773 798 790 773 776 738 849 766 791 799 739 836 794 826 812 836 803 840 792 811 790 848 823 846 840 888 903 909 925 848 894 897 888 930 927 918 915 961 930 909 912 937 906 906 846 928 924 941 827 845 812 840 885 856 834 831 847 826 851 868 881 809 884 793 842 867 908 816 801 856 811 797 807 830 772 825 848 742 822 818 820 833 785 801 827 848 755 770 732 793 773 741 778 756 785 738 760 790 799 723 743 763 793 717 785 740 800 791 755 758 777 697 830 801 762 782 810 683 772 744 743 780 785 685 722 735 772 802 742 748 756 764 795 805 699 761 753 721 783 802 750 790 775 751 758 723 762 716 752 767 733 804 768 745 754 778 737 777 744 705 743 767 790 763 700 780 737 732 769 771 787 756 756 776 756 710 764 790 776 789 732 736 786 783 758 791 760 744 733 754 725 730 731 761 767 771 738 763 750 757 778 791 736 775 795 767 801 796 816 817 807 741 811 849 922 882 836 835 893 885 845 857 930 898 897 882 864 871 903 895 837 846 809 878 809 893 848 846 862 784 867 874 778 891 835 822 773 816 838 748 778 769 759 848 770 810 756 755 758 731 746 769 782 807 763 800 757 764 819 776 805 731 765 731 789 746 805 732 737 769 727 795 738 811 752 801 758 763 730 815 750 755 756 759 756 731 788 766 798 780 788 823 770 734 811 747 785 746 831 760 761 799 777 796 801 825 828 825 842 860 847 839 790 880 866 841 823 863 913 895 879 922 902 859 867 908 865 860 888 824 818 914 804 792 879 904 778 837 840 833 840 850 917 871 882 799 788 796 839 868 841 872 828 800 778 838 831 793 784 843 805 806 817 879 842 861 856 827 809 843 846 834 791 847 830 846 826 843 852 861 920 880 926 921 960 976 949 1002 1042 1108 1250 1251 1342 1391 1387 1484 1496 1656 1645 1670 1715 1813 1762 1950 1897 1969 2028 2057 2050 2009 1996 1995 2012 1924 1977 2013 1907 1955 1911 1901 1861 1847 1809 1798 1742 1692 1627 1634 1618 1529 1517 1450 1483 1412 1373 1373 1354 1381 1335 1222 1253 1238 1201 1139 1065 1078 1070 1083 1060 1038 1033 1046 987 1021 929 1026 903 962 927 956 952 911 997 925 842 958 885 915 945 974 946 914 1009 921 873 909 902 953 981 879 919 995 971 942 933 923 865 930 890 882 904 873 894 852 838 856 852 889 839 863 848 802 812 786 793 832 778 803 838 846 748 793 791 760 776 804 782 792 789 782 765 756 726 731 792 730 738 753 765 746 771 741 796 725 778 768 741 768 734 751 752 749 777 734 754 757 722 705 731 761 791 698 810 770 728 770 761 791 759 752 743 761 765 738 757 762 729 760 707 745 725 765 761 761 716 687 700 777 745 795 709 704 765 732 801 749 752 734 773 754 735 754 734 711 732 741 722 732 750 767 787 769 711 761 770 783 787 718 750 805 716 779 753 783 761 757 765 764 695 785 730 807 757 732 793 763 753 777 768 818 700 778 800 778 755 741 788 792 772 806 814 799 778 813 774 825 760 891 885 864 893 893 980 920 933 989 1013 1044 1192 1219 1265 1357 1376 1343 1394 1453 1492 1582 1521 1664 1703 1640 1682 1745 1742 1722 1745 1670 1737 1770 1740 1768 1738 1831 1688 1744 1669 1705 1649 1645 1641 1633 1590 1560 1469 1515 1458 1482 1364 1447 1404 1330 1370 1262 1300 1216 1206 1227 1193 1170 1173 1118 1132 1128 1103 1026 962 984 966 1008 962 958 852 978 881 929 960 884 936 903 882 895 894 857 903 867 973 836 898 915 869 823 873 887 875 927 845 828 896 878 849 860 845 832 869 870 890 857 856 850 824 818 828 783 818 792 796 788 790 782 778 782 817 766 776 808 772 770 757 796 777 826 784 770 799 804 820 787 764 834 843 836 781 796 783 778 831 747 809 741 790 756 764 762 756 805 765 754 776 764 795 802 736 766 754 748 789 774 769 792 748 782 725 741 788 770 743 742 706 791 786 764 756 698 736 768 768 806 755 723 685 735 719 738 721 749 738 765 771 781 819 782 798 821 814 860 816 851 818 869 841 823 940 927 907 893 928 946 943 911 953 904 984 926 949 920 951 952 912 938 956 914 972 923 973 878 958 870 948 890 881 879 812 879 887 830 856 847 852 865 825 883 831 776 886 840 844 812 836 836 748 831 817 809 823 847 770 785 782 785 786 714 764 737 814 733 769 733 766 741 728 718 678 734 722 710 716 758 751 723 692 714 749 739 745 714 722 699 692 718 747 770 725 701 699 704 738 756 741 759 713 749 692 753 741 720 710 662 705 688 752 732 734 718 707 732 758 682 613 711 721 705 743 739 728 727 728 742 784 756 727 751 670 711 762 670 768 687 748 756 766 710 757 735 765 764 721 781 747 761 727 753 802 737 757 721 723 702 781 757 748 740 738 701 713 780 738 784 726 729 674 706 744 701 650 749 719 723 699 692 695 673 747 687 679 705 712 693 676 721 722 682 727 690 663 689 688 716 719 744 724 720 702 725 699 674 716 717 711 702 699 701 745 706 664 712 723 705 714 681 706 688 720 671 731 729 671 692 716 683 695 682 713 687 709 725 749 659 690 723 750 729 719 671 676 765 720 704 682 744 667 673 702 693 714 696 731 715 716 698 698 714 678 757 717 680 688 751 693 709 712 716 714 743 711 700 744 673 708 708 714 753 691 731 689 726 684 699 681 704 721 713 686 718 701 696 713 686 690 683 660 739 720 697 758 710 714 758 741 684 740 694 703 722 747 693 685 698 669 753 678 699 732 670 676 693 693 702 700 707 716 679 693 723 694 702 740 702 670 723 638 725 681 698 674 680 662 692 677 690 698 657 675 674 673 777 703 712 715 699 660 713 662 701 697 659 702 684 683 675 694 694 711 674 675 695 668 692 718 707 680 675 661 727 643 662 749 644 714 713 634 686 702 664 708 758 727 703 697 654 675 646 671 705 696 683 645 635 699 620 721 675 688 681 716 709 620 674 673 665 693 684 685 655 649 659 691 698 674 685 681 668 689 684 695 682 674 672 702 703 687 698 702 716 666 649 674 657 661 681 696 670 680 675 681 714 707 700 640 675 640 698 686 734 716 661 680 669 682 726 636 684 709 713 662 692 666 725 667 700 697 709 642 739 670 698 707 747 680 697 673 764 698 730 714 752 722 712 718 753 759 713 751 745 748 779 798 826 739 888 795 808 737 780 811 829 786 762 826 770 813 779 850 772 775 813 787 805 803 769 799 803 826 769 749 805 789 770 730 742 711 774 775 748 731 732 719 714 754 725 756 674 751 783 712 742 636 672 729 725 715 692 710 727 707 692 652 691 671 680 688 699 692 709 698 721 662 676 671 690 710 673 676 732 692 715 715 659 692 715 701 702 636 703 684 688 721 697 740 655 705 697 664 707 698 715 694 745 675 675 690 674 739 705 681 637 721 659 703 720 719 638 700 707 700 701 694 701 678 681 700 639 656 686 698 654 679 686 634 689 654 648 670 667 690 650 685 655 647 653 692 651 689 681 648 656 666 709 674 670 655 692 666 631 694 742 667 647 673 669 636 683 676 683 674 643 706 665 644 663 660 684 660 693 693 639 652 666 669 682 644 680 675 630 651 666 654 642 643 649 692 663 700 631 705 683 692 680 662 668 700 681 718 663 688 628 689 664 688 689 652 656 650 720 620 674 650 666 695 667 650 679 687 661 662 711 714 675 712 666 674 669 654 659 680 675 686 693 671 694 612 680 649 679 684 650 664 700 637 681 691 690 689 712 702 645 668 667 717 681 645 687 707 679 663 670 728 659 723 701 731 696 720 709 750 704 721 713 696 747 792 731 716 760 778 749 732 758 801 760 751 841 851 839 866 949 934 865 908 920 956 954 947 1001 1036 971 991 991 1048 1055 1028 1075 1045 1019 1016 1007 1031 1050 950 1025 986 1023 1051 997 1080 1060 1023 1086 1001 1012 1014 1040 1023 999 923 1003 996 935 959 948 953 893 920 915 852 854 897 963 892 863 795 828 873 847 847 857 793 817 800 854 810 773 777 763 748 745 804 775 769 752 735 729 740 744 701 729 750 730 773 778 713 744 718 713 741 694 778 697 740 723 714 756 721 725 681 724 723 727 706 739 757 651 701 714 709 685 690 686 659 702 690 705 659 722 726 702 662 726 668 663 695 703 665 660 694 683 710 690 686 684 684 627 650 693 688 686 672 674 682 686 681 662 714 705 650 734 625 722 687 658 707 724 692 683 648 652 650 672 671 690 662 687 695 691 687 701 707 653 662 640 716 652 673 649 729 712 694 705 700 683 720 731 709 704 703 728 706 700 653 692 721 705 671 708 747 697 653 696 704 728 654 665 709 701 684 685 722 706 737 728 721 697 669 716 672 705 750 643 691 675 657 663 667 645 648 646 668 613 671 652 686 690 597 615 678 697 678 673 685 654 710 651 634 623 643 700 656 697 701 694 681 680 655 675 721 643 702 660 704 658 683 731 663 724 649 722 642 700 703 678 665 671 670 704 653 685 635 650 655 692 720 671 677 705 651 690 660 707 731 694 739 740 743 678 682 722 655 737 673 650 688 687 676 681 671 655 662 716 618 672 723 695 707 686 763 644 675 674 665 680 640 656 684 603 654 690 663 697 718 657 689 704 712 689 666 664 681 643 683 670 696 713 663 701 735 723 760 762 726 809 729 799 752 774 749 765 786 811 789 769 762 765 753 723 725 749 749 715 830 683 753 723 727 737 726 716 732 709 773 745 737 726 714 735 755 775 772 733 691 667 770 671 759 705 704 706 689 721 667 669 691 712 729 674 723 687 734 710 653 718 674 687 718 708 688 638 695 677 633 703 702 708 669 682 638 670 677 722 699 697 665 650 613 652 651 647 709 697 682 722 701 677 665 663 641 722 676 617 634 649 658 610 703 656 668 677 692 677 683 649 703 678 653 673 664 643 753 683 649 638 699 697 608 673 675 659 672 659 668 672 650 653 666 658 693 653 672 652 718 683 646 714 632 693 669 729 656 678 653 667 657 683 728 646 704 639 652 648 631 687 627 686 690 692 666 636 698 661 636 668 668 652 675 665 683 630 642 685 640 702 670 646 683 694 642 684 642 705 710 690 641 684 666 649 652 689 653 663 681 668 631 661 657 635 668 658 638 670 695 615 731 684 653 676 759 661 667 657 686 655 709 687 700 662 696 651 686 715 708 689 638 607 668 678 687 666 710 666 647 671 728 649 707 662 678 716 693 698 673 661 667 681 639 670 671 633 691 686 664 661 693 682 673 656 698 729 726 692 716 655 651 656 709 688 658 691 652 693 640 678 705 706 678 728 746 668 676 679 641 752 771 681 681 717 713 690 692 743 725 721 740 721 719 732 709 723 732 739 708 784 749 748 740 755 737 740 706 734 715 753 737 732 738 770 784 755 713 742 786 781 752 780 809 765 800 711 773 756 780 772 726 778 800 796 781 772 825 791 828 834 845 883 919 851 911 933 913 1005 942 982 1012 1029 979 939 998 1037 1054 1067 1026 1058 1009 1013 1035 967 1023 1004 992 1012 1023 1028 1016 913 1028 1003 1015 965 963 927 902 1026 956 890 958 876 953 956 899 921 872 903 885 895 890 896 836 848 851 873 878 838 835 804 787 811 806 794 794 823 805 758 791 771 737 785 752 794 743 800 738 747 732 732 721 743 745 732 712 770 723 735 789 686 695 676 722 699 713 736 715 762 749 714 718 690 694 730 757 668 741 756 721 704 741 727 720 732 704 737 762 703 712 773 728 783 726 762 734 700 775 753 763 738 768 782 770 763 734 756 800 768 770 717 794 797 737 713 710 672 713 742 726 767 735 700 763 757 755 739 754 729 775 750 680 741 677 730 718 664 694 664 728 717 726 658 740 720 692 721 715 757 716 690 682 681 692 676 691 637 716 718 724 719 691 730 693 697 732 748 715 673 698 712 685 672 737 720 699 719 736 740 694 736 698 750 743 791 701 759 727 754 736 730 740 795 763 781 769 778 781 847 872 867 889 906 927 906 1054 1035 1058 1062 1095 1119 1230 1238 1289 1346 1362 1285 1363 1358 1287 1374 1348 1332 1278 1291 1258 1378 1311 1298 1348 1269 1337 1315 1403 1342 1373 1423 1386 1405 1379 1384 1359 1374 1392 1389 1392 1367 1346 1339 1257 1324 1267 1220 1253 1211 1190 1156 1194 1181 1110 1105 1161 1150 1166 1077 1158 1117 1069 1060 1000 975 1095 958 973 921 975 946 940 963 926 876 895 908 867 848 884 896 854 908 847 826 750 817 860 769 744 765 795 782 736 802 769 740 728 751 759 756 724 744 740 763 749 714 754 708 778 791 747 749 765 746 723 727 726 744 768 757 710 828 774 683 743 754 783 757 718 783 776 745 726 765 791 720 779 726 698 770 750 719 760 761 752 742 738 717 727 763 720 709 736 750 763 722 687 715 731 721 751 727 731 706 670 685 750 711 735 679 681 708 745 702 713 690 741 729 744 732 709 726 764 683 727 695 720 728 787 731 772 738 741 779 741 776 747 703 719 691 769 714 709 724 727 740 737 723 748 742 727 723 726 744 737 722 745 710 769 753 697 700 721 724 767 716 735 748 720 740 706 708 746 685 681 692 734 708 676 706 695 652 661 701 689 715 757 715 709 690 745 685 658 705 697 695 733 663 660 651 695 679 718 660 654 641 743 674 669 709 689 639 705 686 675 692 655 712 683 611 656 707 681 669 686 655 701 735 704 660 665 700 698 723 672 613 640 665 687 672 666 655 644 655 676 689 742 676 680 638 705 670 701 662 641 732 670 632 675 673 670 711 678 677 632 659 701 674 740 731 719 688 703 653 716 683 667 685 687 654 721 719 659 665 737 613 669 642 706 665 731 673 712 695 750 725 716 719 705 717 675 669 635 668 642 636 629 696 701 757 667 669 702 641 685 727 677 668 673 654 717 731 729 670 727 725 745 725 728 730 748 735 731 691 738 710 738 742 736 729 731 764 681 697 718 705 753 703 693 714 696 756 707 702 724 736 733 670 736 674 680 701 709 760 690 719 706 731 739 735 681 724 660 727 701 728 669 697 671 720 663 670 632 677 702 720 692 682 728 745 683 674 665 712 690 682 705 702 639 742 687 663 723 679 680 655 678 678 660 655 672 672 658 652 690 671 747 697 694 698 656 667 724 699 657 689 742 705 683 697 713 678 686 686 633 671 677 661 697 687 677 705 715 699 685 664 661 682 658 725 716 703 661 695 644 703 688 695 691 701 665 711 673 758 729 738 670 732 672 666 687 705 665 626 695 693 665 710 647 653 692 667 701 679 657 650 665 713 682 670 684 701 643 674 701 664 621 659 669 707 701 687 666 673 728 707 657 636 701 641 683 693 637 680 639 674 674 651 663 670 701 710 684 640 653 659 685 586 668 654 643 679 675 659 677 739 688 630 628 674 663 656 621 719 611 674 698 639 626 672 674 713 688 746 692 677 670 641 695 676 682 668 668 649 698 682 659 646 703 737 683 696 669 716 658 706 749 720 730 744 720 700 683 701 723 697 757 683 708 685 779 765 731 692 776 801 760 742 724 721 737 743 697 734 747 712 763 763 717 755 754 695 751 759 711 741 722 718 749 739 777 706 718 682 730 695 725 700 724 745 688 683 702 690 650 727 702 740 697 684 694 722 696 670 713 715 681 699 647 727 675 677 708 691 664 698 679 677 711 699 691 741 674 685 714 666 654 690 679 681 643 703 670 675 669 668 656 688 644 647 657 653 680 661 657 686 669 682 647 647 639 676 686 657 680 639 606 685 720 649 707 691 685 704 676 653 708 692 647 665 685 726 658 721 678 691 668 702 733 675 672 719 728 707 630 675 675 698 649 688 730 655 702 670 672 661 719 673 677 708 692 673 698 654 738 671 681 607 666 638 669 683 719 662 649 712 638 671 712 673 702 678 694 668 679 668 672 678 653 693 653 699 686 711 652 646 729 668 681 678 659 687 706 666 640 690 690 682 639 672 680 687 691 658 643 685 696 748 706 712 725 680 677 718 756 705 742 729 756 750 728 705 748 721 737 711 690 730 690 714 710 682 702 764 682 736 698 713 728 714 708 723 732 781 744 737 690 782 765 730 756 750 688 756 727 751 760 777 739 776 790 752 752 834 751 788 843 833 896 943 926 863 943 940 1000 1014 1029 1066 1116 1144 1147 1214 1159 1189 1177 1260 1252 1307 1249 1268 1245 1255 1225 1199 1174 1172 1186 1158 1213 1170 1209 1166 1226 1099 1193 1157 1222 1231 1138 1223 1196 1221 1238 1207 1180 1189 1170 1169 1134 1108 1162 1180 1127 1115 1186 1054 1064 986 1008 986 1042 1045 1020 940 1009 1003 979 947 945 922 882 937 965 916 933 931 836 914 850 909 941 876 866 840 871 853 831 828 798 804 757 841 764 783 846 843 766 824 808 740 761 775 747 715 758 737 754 771 747 754 703 729 728 690 754 766 737 741 700 653 720 721 718 740 744 739 713 769 714 717 670 686 719 693 720 746 714 752 719 737 698 700 701 679 753 750 703 675 737 681 710 749 724 771 740 721 678 737 661 681 693 730 760 711 719 735 722 718 801 683 733 725 720 716 658 726 706 701 689 717 773 682 708 740 710 665 789 727 687 697 692 685 688 728 737 730 728 707 688 696 743 718 671 700 779 661 732 707 715 708 682 698 748 704 689 714 599 714 658 694 644 668 698 712 713 704 727 699 726 695 712 654 743 697 644 668 713 695 704 715 650 633 712 687 660 658 700 705 688 736 664 645 686 685 617 650 694 683 693 660 658 720 671 702 696 701 670 680 676 672 705 623 680 679 697 662 733 682 677 676 646 688 700 677 649 703 642 666 664 624 634 714 687 697 648 618 665 616 632 639 626 699 613 645 649 618 667 644 674 688 695 638 688 649 682 668 681 622 649 655 678 667 694 691 667 700 633 660 662 634 653 630 601 726 682 675 646 615 717 626 657 683 650 614 661 620 658 622 582 668 635 699 651 677 646 652 667 653 660 625 642 648 657 669 656 719 627 671 624 631 646 675 638 666 698 672 678 687 657 665 645 663 658 671 660 658 651 634 658 678 680 640 681 660 626 704 623 664 643 678 676 701 661 691 629 703 671 654 642 717 641 631 600 661 661 678 665 651 692 698 703 718 688 697 643 689 670 665 633 685 699 656 656 718 664 609 679 657 677 719 670 655 662 736 681 697 687 710 708 713 660 701 698 710 683 623 670 654 649 626 654 711 681 615 664 651 678 669 685 695 686 682 725 678 641 701 677 645 716 639 723 708 734 671 731 701 723 686 686 687 663 719 652 708 698 684 663 664 726 639 644 708 682 646 671 659 648 663 672 650 659 714 707 646 690 679 679 631 692 682 679 668 656 685 689 693 670 666 705 715 732 703 725 626 645 684 692 669 657 668 674 637 645 656 655 690 682 650 650 690 638 684 696 745 680 703 680 700 666 629 681 666 704 638 652 678 698 660 672 699 634 631 641 717 701 702 697 658 641 673 734 672 656 668 674 685 644 686 668 645 685 661 671 641 662 697 637 712 678 659 655 695 658 687 718 758 653 725 683 671 679 655 702 685 714 683 643 715 699 705 668 704 681 753 703 705 626 700 679 725 683 703 703 694 729 719 730 738 742 737 709 741 804 768 765 706 773 799 844 816 757 798 887 795 820 779 796 740 835 796 773 815 762 748 804 816 805 797 754 743 830 726</counts>
			</dataPoints>
		</scan>
	</xrdMeasurement>
</xrdMeasurements>
