<?xml version="1.0"?>
<xrdMeasurements xmlns="http://www.xrdml.com/XRDMeasurement/2.3" xmlns:xsi="http://www.w3.org/2001/XMLSchema-instance" xsi:schemaLocation="http://www.xrdml.com/XRDMeasurement/2.3 http://www.xrdml.com/XRDMeasurement/2.3/XRDMeasurement.xsd" status="Completed" recordIdentifier="{11A131EE-D039-4763-8E4B-AC9B4324A398}">
	<comment>
		<entry/>
	</comment>
	<sample type="To be analyzed">
		<id>GPSS_Li1p67Mg0p67Y0p33Cl4_111725_691b7e20f3837ac4a0a9937a</id>
		<name></name>
		<preparedBy></preparedBy>
	</sample>
	<xrdMeasurement measurementType="Scan" status="Completed" sampleMode="Reflection">
		<usedWavelength intended="K-Alpha 1">
			<kAlpha1 unit="Angstrom">1.5405980</kAlpha1>
			<kAlpha2 unit="Angstrom">1.5444260</kAlpha2>
			<kBeta unit="Angstrom">1.3922500</kBeta>
			<ratioKAlpha2KAlpha1>0.5000</ratioKAlpha2KAlpha1>
		</usedWavelength>
		<incidentBeamPath>
			<radius unit="mm">145.00</radius>
			<xRayTube id="1010048" name="Empyrean Cu LFF HR (9430 033 7310x)">
				<tension unit="kV">40.0</tension>
				<current unit="mA">15.0</current>
				<anodeMaterial>Cu</anodeMaterial>
				<focus type="Line">
					<length unit="mm">12.0</length>
					<width unit="mm">0.4</width>
					<takeOffAngle unit="deg">6.0</takeOffAngle>
				</focus>
			</xRayTube>
			<sollerSlit id="21010002" name="Soller slits 0.04 rad.">
				<opening unit="rad">0.0400</opening>
			</sollerSlit>
			<mask id="22031000" name="Fixed mask 13 mm">
				<width unit="mm">9.00</width>
			</mask>
			<divergenceSlit id="22120001" name="Divergence slit 1°" xsi:type="fixedDivergenceSlitType">
				<distanceToSample unit="mm">50.00</distanceToSample>
				<height unit="mm">1.52</height>
			</divergenceSlit>
		</incidentBeamPath>
		<sampleMovement xsi:type="spinningSampleMovementType">
			<spinnerRevolutionTime unit="seconds">1.0</spinnerRevolutionTime>
		</sampleMovement>
		<diffractedBeamPath>
			<radius unit="mm">145.00</radius>
			<antiScatterSlit id="22090040" name="AS slit 9 mm (PIXcel)" xsi:type="fixedAntiScatterSlitType">
				<height unit="mm">9.00</height>
			</antiScatterSlit>
			<sollerSlit id="21020003" name="Large Soller slits 0.04 rad.">
				<opening unit="rad">0.0400</opening>
			</sollerSlit>
			<filter id="20030001" name="Large beta-filter Nickel">
				<material>Ni</material>
				<thickness unit="mm">0.020</thickness>
			</filter>
			<detector id="7010019" name="PIXcel1D-Medipix3 detector" xsi:type="rtmsDetectorType">
				<phd unit="keV">
					<lowerLevel>4.02</lowerLevel>
					<upperLevel>11.27</upperLevel>
				</phd>
				<mode>Scanning</mode>
				<activeLength unit="deg">5.542</activeLength>
			</detector>
		</diffractedBeamPath>
		<scan appendNumber="0" mode="Continuous" scanAxis="Gonio" status="Completed">
			<header>
				<startTimeStamp>2025-11-21T19:17:01-08:00</startTimeStamp>
				<endTimeStamp>2025-11-21T19:25:09-08:00</endTimeStamp>
				<author>
					<name>AutomatedUser</name>
				</author>
				<source>
					<applicationSoftware version="1.7b (136)">PANalytical Aeris Instrument Suite</applicationSoftware>
					<instrumentControlSoftware version="3.2.00000000 20240306">AERIS</instrumentControlSoftware>
					<instrumentID>950485</instrumentID>
				</source>
			</header>
			<dataPoints>
				<positions axis="2Theta" unit="deg">
					<startPosition>10.00943322</startPosition>
					<endPosition>99.99442286</endPosition>
				</positions>
				<positions axis="Omega" unit="deg">
					<startPosition>5.00471661</startPosition>
					<endPosition>49.99721143</endPosition>
				</positions>
				<commonCountingTime unit="seconds">12.495</commonCountingTime>
				<counts unit="counts">3163 2991 3002 3003 3043 3085 3085 3121 3107 3116 3048 3110 3156 3048 3154 3142 3109 3078 3197 3181 3071 3075 3078 3001 3060 3145 3159 3159 3208 3057 3096 3196 3125 3162 3135 3228 3205 3060 3195 3202 3207 3169 3131 3129 3238 3218 3288 3123 3374 3208 3197 3215 3311 3159 3168 3125 3151 3302 3128 3215 3184 3113 3265 3174 3327 3185 3222 3202 3288 3161 3303 3274 3271 3188 3236 3215 3227 3277 3231 3273 3251 3206 3246 3332 3275 3156 3216 3192 3242 3262 3303 3232 3348 3235 3257 3300 3335 3204 3337 3401 3397 3241 3225 3239 3395 3300 3486 3282 3309 3419 3351 3282 3347 3284 3170 3417 3274 3294 3354 3363 3359 3408 3368 3399 3423 3363 3421 3390 3339 3447 3454 3470 3451 3408 3395 3380 3432 3412 3334 3366 3535 3272 3410 3417 3388 3523 3470 3516 3341 3491 3404 3522 3352 3428 3474 3511 3545 3459 3360 3389 3281 3551 3358 3396 3402 3411 3334 3433 3455 3396 3387 3415 3501 3347 3409 3384 3396 3357 3452 3460 3424 3396 3289 3389 3368 3405 3511 3457 3385 3407 3403 3413 3292 3338 3389 3327 3396 3315 3399 3382 3440 3240 3413 3364 3395 3377 3356 3399 3358 3353 3326 3443 3495 3448 3512 3314 3350 3526 3378 3285 3321 3434 3353 3398 3268 3250 3363 3310 3279 3247 3338 3241 3301 3283 3229 3308 3176 3215 3364 3246 3367 3425 3311 3386 3342 3291 3425 3337 3335 3217 3327 3276 3320 3278 3401 3310 3246 3183 3313 3228 3256 3376 3248 3241 3201 3375 3269 3337 3354 3122 3196 3326 3310 3231 3291 3293 3262 3239 3261 3236 3278 3241 3195 3207 3353 3233 3333 3275 3225 3269 3269 3230 3163 3228 3344 3321 3257 3272 3182 3313 3267 3308 3190 3313 3306 3238 3242 3250 3317 3277 3283 3272 3281 3254 3348 3354 3373 3253 3275 3418 3384 3377 3334 3366 3351 3423 3382 3398 3381 3400 3394 3384 3436 3350 3409 3359 3331 3426 3372 3401 3519 3537 3378 3534 3390 3471 3440 3457 3490 3542 3481 3466 3434 3368 3436 3471 3463 3550 3447 3485 3526 3530 3448 3480 3565 3488 3420 3452 3474 3585 3465 3504 3557 3483 3587 3536 3621 3577 3593 3634 3561 3560 3622 3656 3651 3587 3741 3662 3593 3514 3591 3625 3612 3520 3692 3508 3744 3560 3657 3671 3549 3561 3795 3627 3734 3814 3772 3827 3797 3791 3813 3934 3913 3926 3783 3969 4093 3926 4020 4136 4092 4168 4156 4067 4320 4135 4224 4350 4346 4161 4304 4349 4349 4414 4410 4539 4433 4349 4421 4348 4496 4437 4395 4399 4244 4402 4399 4399 4321 4194 4119 4082 4226 4230 4079 4024 3896 3923 3908 3909 3753 3735 3628 3697 3663 3653 3719 3531 3562 3506 3519 3540 3571 3545 3468 3441 3554 3561 3561 3362 3571 3490 3382 3472 3540 3594 3487 3399 3501 3466 3437 3396 3463 3429 3472 3340 3361 3485 3411 3322 3435 3412 3353 3375 3374 3540 3538 3459 3461 3517 3502 3511 3420 3498 3599 3613 3673 3673 3716 3681 3709 3665 3792 3767 3820 3813 3896 3912 3867 4020 3995 4019 4002 3907 4143 4049 3956 4012 4028 4010 4030 3970 3991 4012 3930 3911 3907 3901 3810 3880 3823 3812 3835 3659 3643 3660 3510 3619 3541 3401 3372 3393 3397 3265 3285 3282 3173 3235 3185 3104 3004 3142 3197 3090 3147 3102 3165 3154 3138 3074 3086 3124 2975 3042 3012 3055 3001 3038 2994 2944 3093 3024 2999 3147 3008 2987 2988 2964 3047 2968 2998 3000 2927 3055 3008 3031 2969 3057 2931 2947 2994 2980 2973 2880 3027 2888 3110 3136 3000 2942 3047 2922 3013 3001 2983 2895 2973 2936 2926 2872 2940 2881 2980 2959 3080 2990 2970 2931 2946 3079 2985 2966 3100 3000 3010 3025 3146 3171 3203 3240 3422 3295 3387 3341 3355 3444 3547 3459 3554 3543 3582 3706 3610 3725 3760 3885 3887 3974 3960 4041 3916 4045 4067 4089 3990 4057 3893 3902 3974 4051 3907 3963 3828 3860 3775 3869 3828 3687 3702 3689 3675 3569 3485 3365 3427 3414 3342 3162 3217 3105 3096 2965 2972 3010 2840 2957 2984 2919 2776 2874 2878 2850 2825 2886 2875 2713 2845 2685 2859 2695 2822 2935 2807 2776 2877 2751 2793 2871 2903 2746 2815 2766 2760 2822 2796 2834 2796 2866 2829 2792 2661 2787 2764 2687 2714 2701 2802 2753 2781 2720 2699 2825 2810 2768 2697 2661 2785 2784 2727 2646 2613 2712 2799 2800 2642 2762 2796 2759 2703 2767 2708 2707 2693 2753 2740 2643 2791 2707 2717 2622 2665 2727 2720 2673 2680 2736 2713 2659 2643 2740 2717 2698 2644 2667 2643 2635 2731 2731 2711 2731 2664 2648 2665 2685 2694 2588 2630 2733 2614 2635 2642 2677 2620 2718 2713 2594 2629 2716 2572 2597 2750 2687 2544 2648 2627 2667 2553 2642 2647 2631 2639 2652 2556 2685 2712 2605 2739 2668 2574 2529 2714 2586 2638 2604 2558 2660 2610 2642 2578 2575 2581 2673 2550 2628 2494 2669 2678 2547 2568 2554 2603 2501 2586 2588 2546 2613 2609 2552 2622 2576 2593 2636 2500 2478 2472 2471 2536 2560 2522 2519 2594 2580 2428 2481 2586 2487 2535 2609 2541 2544 2370 2529 2492 2474 2537 2504 2523 2514 2488 2546 2467 2467 2490 2489 2523 2572 2477 2497 2482 2476 2484 2456 2461 2388 2410 2452 2497 2377 2540 2452 2497 2397 2432 2455 2478 2517 2446 2455 2418 2567 2329 2445 2545 2591 2459 2501 2536 2561 2339 2456 2452 2504 2537 2424 2503 2475 2406 2568 2383 2477 2336 2445 2401 2393 2349 2521 2436 2466 2537 2397 2384 2379 2327 2526 2367 2417 2346 2471 2446 2431 2408 2434 2300 2463 2421 2392 2403 2482 2390 2408 2334 2466 2399 2397 2418 2412 2338 2498 2377 2505 2451 2409 2437 2339 2486 2396 2340 2470 2442 2404 2397 2399 2356 2467 2375 2491 2446 2337 2380 2311 2393 2373 2356 2415 2430 2400 2452 2437 2457 2337 2329 2393 2422 2400 2494 2412 2406 2319 2372 2533 2370 2503 2373 2520 2326 2364 2469 2425 2461 2461 2402 2463 2389 2409 2440 2464 2442 2415 2374 2462 2544 2433 2465 2568 2466 2506 2570 2596 2511 2533 2550 2558 2570 2682 2504 2542 2558 2548 2545 2485 2543 2535 2576 2526 2552 2533 2504 2492 2573 2567 2451 2550 2524 2425 2492 2537 2515 2536 2441 2461 2482 2421 2494 2445 2440 2574 2488 2483 2372 2474 2383 2334 2370 2436 2409 2366 2323 2388 2440 2379 2422 2337 2357 2376 2442 2271 2412 2447 2342 2318 2408 2296 2308 2397 2378 2355 2429 2335 2305 2324 2305 2337 2342 2346 2359 2356 2368 2200 2358 2338 2263 2285 2272 2307 2230 2260 2262 2272 2291 2226 2297 2210 2241 2330 2267 2202 2220 2331 2159 2196 2251 2194 2291 2192 2140 2130 2293 2194 2226 2144 2135 2158 2174 2337 2141 2129 2204 2161 2205 2148 2222 2162 2093 2159 2202 2170 2183 2103 2159 2101 2108 2111 2072 2132 2106 2150 2173 2111 2139 2064 2116 2100 2122 2076 2119 2059 2109 2080 2144 1977 2079 2089 2121 2073 2123 2080 2078 2088 2120 2205 2074 2057 2137 2120 2093 2260 2219 2286 2321 2271 2365 2381 2361 2472 2404 2530 2511 2596 2601 2584 2577 2622 2573 2581 2606 2542 2522 2492 2538 2464 2395 2508 2449 2345 2366 2279 2305 2329 2425 2238 2236 2282 2234 2297 2191 2137 2217 2102 2075 1977 2039 1966 1953 1906 1987 1912 1928 1913 1890 1909 1878 1775 1820 1860 1771 1844 1818 1757 1875 1861 1856 1865 1859 1827 1888 1816 1727 1758 1865 1804 1793 1800 1842 1876 1779 1840 1750 1768 1801 1804 1696 1767 1646 1740 1853 1651 1748 1756 1758 1699 1681 1773 1794 1716 1732 1790 1738 1756 1714 1722 1796 1756 1706 1831 1840 1725 1725 1714 1708 1662 1781 1767 1653 1728 1640 1695 1729 1737 1750 1757 1725 1739 1721 1701 1762 1624 1745 1654 1719 1682 1769 1641 1644 1656 1774 1759 1823 1706 1674 1737 1817 1685 1646 1688 1751 1730 1740 1703 1730 1683 1666 1664 1760 1672 1782 1712 1747 1818 1698 1763 1709 1685 1765 1741 1744 1634 1750 1814 1676 1757 1698 1671 1694 1776 1739 1669 1691 1719 1814 1736 1696 1635 1674 1727 1727 1708 1661 1680 1627 1674 1684 1771 1767 1821 1792 1749 1816 1694 1746 1728 1786 1699 1772 1732 1734 1725 1782 1722 1736 1739 1729 1694 1773 1813 1722 1720 1676 1773 1699 1738 1761 1764 1749 1659 1752 1771 1742 1798 1833 1742 1749 1787 1710 1729 1721 1764 1687 1753 1685 1729 1724 1693 1702 1772 1642 1803 1757 1722 1818 1707 1695 1772 1699 1751 1760 1742 1717 1755 1727 1705 1757 1772 1744 1656 1776 1775 1795 1745 1726 1685 1695 1684 1807 1761 1649 1774 1804 1763 1777 1863 1788 1694 1780 1761 1730 1804 1778 1738 1803 1720 1779 1724 1770 1780 1718 1804 1696 1717 1771 1768 1709 1734 1686 1703 1727 1710 1792 1734 1700 1600 1638 1595 1716 1659 1600 1657 1622 1622 1719 1680 1648 1532 1625 1557 1640 1691 1556 1635 1590 1622 1619 1538 1557 1552 1581 1505 1563 1630 1547 1580 1538 1586 1554 1501 1605 1557 1546 1513 1523 1479 1592 1479 1502 1617 1585 1598 1515 1570 1594 1511 1617 1596 1564 1531 1449 1456 1532 1538 1494 1425 1398 1483 1516 1438 1475 1537 1456 1456 1438 1436 1481 1410 1476 1529 1412 1452 1460 1441 1507 1459 1415 1485 1460 1462 1439 1533 1467 1456 1430 1420 1461 1518 1463 1454 1452 1400 1518 1512 1434 1405 1460 1479 1419 1430 1423 1435 1466 1419 1542 1460 1388 1444 1381 1402 1424 1482 1429 1425 1415 1418 1421 1458 1428 1459 1382 1432 1460 1469 1424 1433 1466 1487 1506 1537 1557 1562 1558 1644 1626 1664 1733 1708 1736 1794 1921 1849 1871 1955 1931 1992 2011 1987 2136 2049 2069 2107 2166 2090 2128 2101 2151 2143 2028 2112 2021 1998 1939 1923 1902 1976 1845 1880 1807 1766 1762 1766 1679 1637 1637 1572 1611 1590 1536 1504 1483 1450 1456 1433 1406 1324 1421 1317 1404 1369 1425 1346 1306 1333 1430 1419 1370 1373 1308 1288 1372 1388 1253 1296 1282 1301 1325 1285 1297 1309 1343 1332 1464 1303 1326 1331 1320 1392 1352 1322 1390 1303 1398 1364 1433 1371 1382 1355 1410 1429 1454 1436 1508 1521 1562 1562 1659 1685 1689 1779 1908 1926 2121 2209 2301 2493 2706 2700 3077 3120 3462 3592 3604 3985 4238 4417 4663 4869 5066 5329 5454 5550 5496 5679 5466 5446 5369 5361 5293 5118 5005 4840 4636 4601 4447 4419 4232 4020 3974 3812 3779 3656 3607 3429 3157 2968 2946 2839 2535 2399 2185 2096 1924 1811 1796 1751 1640 1520 1483 1389 1399 1375 1351 1313 1259 1247 1238 1288 1244 1223 1168 1204 1301 1201 1193 1255 1245 1177 1200 1148 1137 1214 1123 1150 1210 1178 1212 1158 1208 1146 1242 1142 1201 1134 1160 1094 1211 1149 1133 1182 1162 1145 1106 1113 1157 1118 1170 1114 1227 1175 1135 1166 1163 1105 1123 1052 1100 1116 1176 1154 1248 1183 1156 1154 1300 1161 1164 1230 1183 1211 1130 1182 1128 1165 1168 1148 1139 1179 1227 1148 1193 1259 1199 1159 1174 1211 1179 1190 1203 1270 1208 1293 1253 1358 1287 1368 1416 1518 1544 1634 1709 1850 1893 1963 2171 2185 2416 2625 2888 2910 3102 3403 3583 3710 3856 4029 4243 4411 4475 4680 4747 4776 4818 4869 4690 4701 4639 4547 4316 4264 4197 3977 3864 3644 3582 3462 3248 3150 3064 2937 2907 2707 2540 2537 2308 2244 2184 2036 1977 1883 1747 1683 1634 1606 1419 1516 1450 1396 1418 1380 1362 1300 1297 1280 1369 1303 1434 1364 1397 1420 1380 1412 1441 1400 1455 1468 1457 1446 1403 1317 1368 1385 1349 1352 1345 1272 1388 1289 1211 1226 1231 1128 1123 1134 1158 1112 1211 1157 1074 1144 1070 1068 1067 1156 1053 1057 1042 1138 1008 1032 1063 1098 1036 1105 1090 1062 1110 1114 1107 1116 1109 1067 1067 1119 1056 1111 1081 1080 1053 1113 1148 1046 1173 1117 1121 1077 1114 1092 1115 1048 1079 991 1039 1080 1090 1035 997 1030 1080 1045 1060 1054 1030 1025 1088 1065 988 1051 977 997 967 1018 1021 964 948 1014 986 956 985 949 992 968 979 977 964 1014 1017 980 994 1040 1005 978 977 966 996 965 988 1017 1044 1000 1015 1012 1011 976 1039 915 1013 1016 999 1017 931 1035 991 1077 1037 1055 950 1049 1043 1089 1066 1019 1039 1087 1004 1118 1135 1133 1118 1140 1224 1175 1208 1229 1282 1263 1334 1302 1300 1461 1420 1478 1587 1512 1499 1614 1616 1535 1593 1609 1662 1544 1583 1573 1615 1483 1423 1489 1457 1500 1466 1336 1385 1385 1421 1339 1302 1314 1246 1352 1253 1264 1249 1203 1271 1236 1241 1344 1307 1373 1328 1465 1506 1507 1622 1745 2056 2112 2400 2443 2696 2874 3074 3293 3375 3554 3845 3988 4370 4450 4636 4767 4928 5220 5411 5644 5749 5598 5555 5348 5290 5242 5057 4978 4800 4656 4386 4267 4025 3963 3695 3569 3453 3307 3046 2974 2977 2734 2487 2490 2339 2275 2122 1981 1860 1817 1655 1595 1498 1392 1293 1293 1247 1351 1125 1189 1116 1092 1059 1079 1040 1032 1110 1020 1031 1099 1032 1035 1017 1057 1029 1079 993 1061 984 1088 966 1053 985 972 1013 1024 966 988 963 1007 1018 1049 981 960 1003 1004 1017 952 969 997 959 1011 992 974 991 1082 955 991 992 1030 1069 1073 986 1066 1058 1029 1028 1052 1074 1147 1044 1094 1032 1063 1114 1094 1126 1086 1083 1177 1109 1127 1084 1115 1089 1117 1076 1063 1056 1014 971 956 1037 1000 1015 991 944 958 932 993 1010 971 980 943 938 1004 957 967 918 946 935 917 918 928 932 884 939 917 859 938 855 931 872 903 839 843 839 851 877 868 904 876 847 881 856 971 879 919 888 919 882 929 887 879 854 905 820 901 895 919 874 928 927 918 903 983 966 976 961 1042 1018 1088 1070 1182 1136 1207 1198 1183 1198 1226 1227 1245 1308 1283 1256 1258 1298 1206 1167 1215 1210 1122 1141 1181 1063 1047 1043 1056 1058 1044 1041 1010 950 967 975 990 908 994 873 906 881 898 896 815 866 898 908 911 841 843 786 839 897 798 804 791 798 860 842 776 796 781 789 778 795 843 812 798 800 779 818 803 813 785 733 789 815 792 759 777 787 825 845 803 767 787 823 804 784 802 780 845 840 806 860 808 835 799 786 801 839 798 865 776 774 774 752 774 780 757 839 784 786 808 819 805 828 839 818 809 813 829 755 765 742 817 804 820 807 797 775 799 774 750 719 790 759 763 815 796 804 766 770 704 780 728 804 813 733 781 779 758 758 804 784 784 721 802 806 807 764 758 767 744 748 758 755 742 744 769 815 805 802 788 765 819 733 806 706 843 763 781 833 799 774 750 826 799 750 791 714 785 808 810 781 748 732 789 760 738 747 723 781 728 729 728 819 790 766 743 725 708 803 734 747 733 756 784 783 701 722 705 787 734 730 718 759 738 786 768 749 742 700 761 738 755 740 742 777 799 750 778 759 786 693 743 758 741 736 766 735 728 757 768 770 755 754 823 753 743 730 731 715 716 753 765 769 774 742 752 749 721 709 740 733 718 687 769 738 751 777 794 717 791 725 763 741 733 775 710 779 755 763 715 709 724 715 710 710 707 771 676 740 714 669 667 736 766 700 784 729 724 746 708 784 733 758 821 763 745 809 721 753 775 813 769 767 823 799 822 859 843 833 869 863 828 803 825 905 838 819 837 849 852 842 783 802 762 827 817 839 787 774 811 828 753 791 781 729 725 737 756 775 762 765 773 792 709 784 791 705 765 781 757 784 779 806 809 816 792 825 797 870 809 870 869 921 1065 1024 1090 1146 1118 1209 1231 1358 1476 1474 1548 1652 1745 1899 1940 2049 2234 2216 2364 2444 2626 2613 2782 2759 2874 2899 2814 2694 2770 2619 2588 2442 2523 2452 2310 2355 2195 2092 1960 1932 1792 1651 1577 1614 1534 1491 1431 1368 1362 1240 1244 1187 1124 1146 1098 1020 927 965 1004 940 921 897 830 862 856 833 777 771 754 797 799 783 763 781 805 732 733 819 735 756 706 737 699 728 763 710 722 727 696 724 710 723 763 708 723 724 738 750 766 712 696 713 647 736 680 650 713 649 660 686 671 670 712 722 691 710 649 676 708 699 679 684 674 673 728 669 681 669 674 709 700 652 689 713 671 708 699 671 722 707 712 734 712 715 714 680 654 688 718 685 755 711 663 699 741 721 667 747 714 736 751 678 701 709 715 708 718 751 711 760 734 770 779 790 769 746 734 841 891 834 864 843 913 895 907 1016 1000 942 931 1022 1019 1024 1062 1047 1056 1102 1001 964 995 954 890 888 916 893 872 855 859 838 892 808 818 834 769 833 774 792 757 746 840 715 729 728 725 697 704 700 772 701 731 777 774 735 812 790 767 850 844 837 830 861 882 925 934 980 979 932 968 965 1018 1001 949 990 954 931 911 915 940 893 926 913 821 878 832 817 828 875 809 787 852 780 769 752 788 767 729 764 746 754 729 704 759 715 700 678 664 728 669 760 690 685 721 702 740 669 634 734 703 696 688 731 669 663 702 716 769 777 776 751 778 802 787 825 784 843 839 842 855 861 852 877 833 855 881 840 871 835 813 759 854 778 841 836 800 844 735 767 762 757 709 789 770 731 728 793 710 708 725 752 737 698 778 719 699 727 696 676 693 670 664 696 680 703 651 696 689 638 677 671 699 693 659 690 649 670 657 673 641 679 685 713 674 637 669 687 666 687 669 668 715 700 716 683 718 703 722 707 735 804 879 843 838 882 879 876 954 909 1022 1053 1025 1065 1048 1123 1117 1095 1094 1077 1101 1145 1013 1152 1095 1047 1102 1029 1041 1036 1043 985 1002 937 992 953 936 853 887 825 817 867 844 824 745 732 792 776 738 749 756 762 725 684 704 709 698 716 716 759 715 725 708 683 641 651 661 667 627 634 645 650 683 621 679 712 675 700 668 713 658 661 639 686 710 743 684 707 670 616 663 656 623 662 624 684 672 683 653 697 719 718 674 706 714 675 678 713 648 705 602 705 665 681 707 692 702 644 650 676 673 689 638 649 660 703 633 658 662 645 642 630 639 628 631 673 660 654 655 695 697 674 688 633 649 614 625 605 633 662 693 660 688 720 707 686 682 661 623 668 684 652 655 658 627 644 668 650 673 644 659 679 585 651 644 626 613 632 607 643 596 655 651 615 626 623 601 622 601 618 616 612 579 653 597 611 576 612 603 615 603 626 593 629 611 576 652 617 679 635 646 615 637 626 619 605 602 631 662 612 661 607 643 604 610 599 629 692 672 652 648 637 622 641 653 598 607 636 672 675 650 665 624 648 626 608 623 642 630 620 610 669 616 639 640 671 647 639 642 665 626 588 605 672 678 678 684 652 670 691 671 701 737 732 708 699 647 733 732 733 727 708 722 757 756 770 792 735 766 743 700 764 722 772 766 741 805 735 779 740 721 788 742 684 717 788 795 717 750 757 732 733 719 694 741 699 734 707 770 751 713 724 700 709 727 793 804 774 824 847 772 819 865 881 916 981 997 909 1192 1134 1183 1300 1324 1406 1402 1497 1635 1699 1700 1723 1741 1749 1802 1809 1753 1891 1888 1819 1822 1738 1744 1711 1669 1678 1595 1588 1528 1508 1443 1360 1344 1298 1332 1272 1283 1195 1067 1137 1133 1167 1096 1133 1150 1119 1118 1173 1136 1209 1168 1240 1309 1272 1467 1417 1646 1561 1912 1944 2120 2174 2277 2342 2566 2632 2881 2972 3140 3135 3222 3340 3370 3343 3222 3325 3141 3054 3056 2984 2843 2806 2740 2657 2580 2466 2367 2291 2125 2120 1945 1818 1667 1707 1559 1384 1392 1363 1229 1160 1133 1114 1081 978 976 891 898 889 813 778 759 824 785 706 711 721 688 672 716 623 728 667 639 669 706 671 687 714 639 703 676 713 735 635 648 652 629 594 644 637 656 677 685 645 625 629 670 644 634 633 703 615 634 657 677 662 627 630 613 633 638 588 644 645 609 603 626 595 568 631 637 662 615 661 633 567 620 624 628 618 605 639 551 619 532 593 592 609 504 586 618 575 588 597 584 569 610 560 533 549 590 536 590 584 601 568 615 621 612 584 623 610 568 623 603 634 567 642 597 572 603 558 567 581 587 599 602 610 624 581 662 585 638 609 603 650 658 623 642 623 628 619 624 623 583 639 635 594 601 625 611 578 641 598 569 596 604 629 594 600 626 591 563 559 618 583 604 569 590 601 631 611 643 701 699 683 640 670 662 707 733 765 708 763 802 794 806 842 837 867 909 925 923 977 926 985 980 1061 969 928 952 958 985 893 871 895 918 900 823 879 876 877 848 802 840 895 851 818 799 809 740 785 820 780 815 762 737 795 735 727 734 732 707 671 736 682 710 651 699 660 610 629 663 662 666 665 595 637 630 639 576 603 581 579 555 619 598 586 578 588 582 578 533 580 584 598 602 639 607 621 621 660 672 695 679 671 709 737 724 737 664 753 758 752 781 762 776 782 728 804 820 736 809 737 724 732 699 735 696 775 756 776 710 723 665 725 626 700 668 674 657 656 649 678 662 654 618 595 642 677 634 642 605 584 629 605 575 589 608 595 641 582 638 651 577 651 617 685 668 616 629 653 661 670 693 733 785 737 770 724 803 817 841 831 911 868 903 886 977 942 975 1012 967 1009 966 1030 1027 1029 986 902 920 934 946 943 908 883 909 830 864 829 874 756 820 734 779 731 689 690 651 672 680 642 629 633 633 650 625 605 595 644 586 603 617 557 554 577 582 576 543 519 542 500 548 533 543 544 537 594 550 537 560 552 518 570 544 549 541 540 554 566 539 546 569 564 553 537 529 528 539 564 539 556 539 538 549 549 585 537 557 504 591 547 570 574 552 526 564 557 596 565 589 593 573 596 603 623 612 672 648 615 636 628 635 611 646 603 608 598 604 609 627 614 638 627 564 590 559 585 592 594 552 629 563 568 606 573 575 527 555 525 523 598 513 537 487 547 537 551 551 547 586 553 498 550 545 537 509 532 495 497 536 527 537 516 526 498 464 513 470 530 528 504 517 523 505 495 509 486 502 523 526 508 511 521 522 514 499 586 494 501 523 483 475 458 533 491 502 507 501 510 540 498 526 565 529 511 527 535 519 488 527 499 562 479 454 526 499 503 485 508 497 540 512 522 551 480 534 505 471 487 545 486 534 462 530 477 488 551 511 586 494 505 499 494 540 478 528 517 502 512 496 502 523 503 550 511 531 494 539 514 523 497 510 529 510 512 540 499 547 523 516 482 488 544 499 517 503 493 497 506 576 550 522 501 519 472 503 508 460 505 512 473 534 525 542 484 520 521 520 533 519 496 513 486 518 544 517 533 506 543 566 557 515 537 508 551 547 558 585 587 579 569 538 579 582 529 530 588 531 603 587 582 589 568 582 545 574 522 542 555 513 529 561 549 551 537 520 554 523 522 499 552 539 531 488 521 499 553 502 480 472 476 455 527 527 448 499 517 504 536 500 529 497 504 497 479 476 489 473 572 525 507 557 517 485 503 517 555 540 506 508 531 559 580 549 552 606 546 611 564 577 589 595 549 631 598 646 584 576 604 598 615 604 572 595 610 630 664 579 593 625 566 567 592 590 597 604 539 566 632 560 615 537 581 546 561 624 599 621 598 604 649 583 624 648 690 636 644 703 791 803 817 796 842 925 917 1000 963 1036 1138 1081 1158 1164 1250 1201 1267 1289 1288 1245 1224 1302 1194 1222 1138 1189 1235 1152 1222 1071 1057 1083 1088 1031 996 984 940 933 900 854 847 875 862 829 845 849 780 820 853 833 774 797 838 866 863 869 871 819 886 895 815 849 836 777 828 873 870 804 817 788 802 815 842 744 810 752 761 729 779 698 732 690 669 664 643 637 675 601 640 655 657 635 624 657 609 630 568 650 684 631 573 656 617 582 617 589 582 622 581 650 584 597 591 600 601 592 676 594 658 588 587 605 591 627 681 650 630 622 633 629 596 631 635 639 648 616 672 613 671 684 614 652 611 643 615 624 615 614 624 567 623 623 581 567 530 587 552 562 552 563 568 510 520 523 562 541 527 514 505 510 499 499 503 512 466 536 462 478 512 445 505 500 480 462 488 503 458 478 493 458 512 457 511 480 517 462 498 460 495 466 467 493 493 511 502 505 499 487 447 429 516 469 545 486 481 479 493 490 486 457 476 518 483 509 478 508 461 525 526 516 517 501 515 534 505 528 552 536 531 556 519 538 522 522 521 488 565 544 478 581 592 541 544 593 556 564 638 623 637 605 649 697 671 702 755 732 802 820 850 882 932 994 1032 1118 1080 1163 1239 1180 1239 1322 1216 1343 1335 1284 1290 1328 1258 1285 1287 1264 1295 1163 1161 1167 1142 1110 1114 1017 1076 990 987 983 995 898 898 833 822 781 772 685 717 676 634 643 666 623 640 576 615 579 598 566 557 560 559 562 520 489 542 519 490 515 544 540 508 495 541 479 538 537 549 578 518 539 523 512 515 502 541 554 524 503 518 540 505 496 512 495 546 523 459 460 457 482 478 485 497 435 517 456 475 533 445 456 503 450 418 495 442 452 507 483 495 452 482 472 498 463 505 492 473 476 476 447 424 492 448 436 504 466 428 523 455 464 488 433 473 505 474 421 470 428 470 460 475 492 483 461 495 478 463 455 429 442 481 484 448 468 429 458 432 449 479 452 458 439 495 477 471 469 465 467 469 468 463 466 501 507 478 479 468 471 468 504 521 460 487 521 469 492 518 543 498 561 494 591 573 575 570 611 573 592 595 539 634 642 649 612 621 635 615 653 654 646 647 603 649 645 649 625 638 660 623 592 629 577 566 579 575 559 572 535 546 548 509 517 534 502 495 577 508 533 513 477 504 495 475 529 478 475 511 463 494 453 487 472 508 466 443 431 452 440 427 474 402 465 468 459 461 464 470 435 441 478 427 429 424 487 458 428 458 460 421 478 473 434 420 483 446 491 422 459 452 482 450 503 458 510 418 469 442 440 433 442 411 434 477 444 430 460 476 471 454 472 521 516 505 462 512 471 524 508 516 468 466 485 447 506 469 469 491 477 502 496 488 444 467 451 458 446 462 476 489 444 501 462 480 465 495 488 487 519 472 510 539 566 528 517 552 585 553 632 556 603 594 660 654 695 666 676 713 712 714 737 745 753 721 717 684 717 699 709 692 733 677 671 639 751 668 611 728 671 637 608 631 607 573 595 514 579 555 563 536 547 551 514 486 525 490 526 534 477 492 465 474 477 402 449 494 452 482 449 487 408 473 471 438 421 460 495 438 449 390 392 446 435 444 450 436 417 414 449 416 435 403 436 412 420 455 431 440 444 443 419 448 476 417 435 410 394 426 399 424 442 413 481 413 441 385 450 425 451 490 413 436 425 435 362 455 404 462 422 479 448 420 455 434 430 458 458 433 470 425 425 409 437 435 420 452 478 490 449 475 475 467 452 483 473 456 443 430 473 491 446 447 463 469 430 454 494 473 447 507 461 435 442 440 465 484 528 438 412 454 408 464 420 408 444 463 460 451 429 459 408 475 441 448 453 377 423 401 412 451 476 459 428 424 415 420 437 468 413 459 435 466 418 458 445 453 423 423 438 461 434 463 415 479 518 450 483 473 487 487 502 489 490 519 555 567 520 535 530 559 505 519 527 502 573 500 498 579 535 539 546 535 500 527 510 479 509 541 470 495 479 520 504 480 513 478 484 447 475 441 437 453 455 436 431 441 431 445 459 471 428 442 404 429 367 424 428 428 393 383 424 420 414 448 414 393 430 390 418 476 433 429 390 429 455 421 415 441 465 403 397 459 447 460 456 420 402 444 420 412 416 449 462 430 414 438 400 440 425 445 450 443 441 440 416 453 429 480 427 455 467 476 429 476 420 455 419 434 443 465 446 528 510 501 471 491 502 467 519 478 473 498 517 488 520 472 493 512 454 520 505 492 517 447 473 485 468 462 462 457 476 477 477 509 524 473 480 478 486 467 499 492 521 478 508 455 513 472 470 460 522 479 489 503 469 483 485 497 473 486 504 468 487 473 443 458 455 474 411 453 408 468 402 429 450 400 403 419 425 435 438 441 426 457 407 401 441 413 430 437 433 463 415 412 432 415 385 384 411 406 403 429 387 396 406 393 395 384 433 431 425 385 422 414 405 377 442 412 408 412 375 403 376 380 412 405 400 431 443 385 409 356 433 446 400 405 428 438 374 412 410 409 401 462 436 404 441 412 395 449 443 370 429 402 428 375 447 444 422 419 448 423 449 432 458 457 470 431 418 449 417 450 450 464 468 391 447 447 419 378 411 397 457 440 477 395 406 427 448 430 472 447 457 447 424 441 389 407 424 424 447 424 457 428 421 426 428 405 381 433 391 388 432 438 420 432 453 433 447 416 422 411 427 421 401 399 394 430 448 432 440 391 429 447 467 462 386 421 447 460 479 414 448 519 461 455 428 436 442 436 451 483 468 430 505 520 442 444 446 423 462 458 438 441 468 469 468 458 446 461 473 476 442 431 515 448 436 436 474 448 469 476 473 468 461 444 438 421 442 491 482 488 530 547 525 525 520 570 510 566 562 583 604 614 626 604 670 678 669 658 679 664 644 617 654 643 634 639 646 611 622 658 598 642 580 602 586 594 615 583 557 573 529 573 564 526 547 534 527 512 487 498 473 518 412 466 468 453 437 461 446 437 424 434 403 428 382 475 422 428 432 411 429 381 396 382 406 409 418 396 385 391 389 432 431 418 412 393 411 394 392 411 402 380 366 416 409 418 370 377 389 400 389 441 364 392 417 430 454 433 419 431 395 383 432 410 424 395 421 437 420 407 417 416 374 392 439 417 411 395 418 441 448 403 468 400 433 448 418 443 397 430 424 430 405 402 435 397 431 443 428 410 431 451 391 425 425 452 437 437 436 402 444 381 421 420 429 457 415 414 409 427 416 421 444 416 410 392 443 431 373 398 391 418 399 408 402 403 398 403 413 393 397 411 407 419 415 383 387 405 412 438 437 450 374 405 471 430 415 406 407 399 412 403 429 438 401 426 448 413 441 471 446 448 420 430 444 440 433 469 419 460 444 471 430 415 441 406 448 440 434 472 474 464 470 445 418 444 444 440 401 397 421 431 407 414 432 437 417 410 459 391 429 412 422 407 477 335 456 388 450 493 414 448 409 453 439 415 411 445 452 458 448 419 466 468 437 482 452 498 490 521 499 487 500 477 442 497 432 503 481 496 529 504 469 469 435 474 446 477 472 486 489 473 494 447 489 461 468 468 445 449 460 448 506 436 388 458 423 438 497 433 415 450 396 424 405 411 425 417 404 441 391 433 426 414 427 416 412 401 414 405 407 415 397 442 374 425 416 403 416 422 390 413 413 388 419 429 365 371 377 386 428 437 437 367 389 429 399 428 376 440 392 413 423 401 368 391 437 419 414 407 402 409 364 369 387 379 444 350 384 362 383 374 365 405 394 382 420 383 397 389 414 381 374 359 355 378 387 434 342 374 407 378 456 386 356 419 407 377 382 405 419 403 348 352 381 381 459 410 396 387 404 411 429 328 352 443 413 424 400 405 406 408 385 399 386 440 375 396 408 367 398 425 363 464 447 378 387 413 397 419 439 362 456 384 459 393 388 395 394 405 444 385 398 426 422 432 429 422 436 442 447 466 421 447 423 445 468 423 437 424 502 489 446 470 462 458 443 444 449 521 458 424 489 430 458 462 425 435 466 423 439 439 466 457 488 444 450 451 445 377 426 431 414 493 432 447 454 428 394 459 429 461 412 414 464 395 405 440 386 411 419 414 372 348 427 415 412 410 389 414 399 388 400 399 346 380 402 385 406 422 380 426 389 386 463 418 456 430 446 392 392 430 447 430 422 438 437 396 426 430 439 439 440 404 424 432 431 387 401 447 378 429 434 417 424 405 413 421 437 400 370 379 415 419 373 431 429 431 423 392 446 385 423 367 440 423 412 400 405 399 450 403 460 411 421 415 399 417 408 397 388 410 444 442 423 441 456 415 435 404 454 412 420 447 396 481 403 435 433 418 486 452 433 483 440 457 486 503 489 463 459 472 458 489 479 492 457 478 499 513 499 462 477 452 523 523 497 454 469 496 517 527 497 516 500 520 503 511 519 490 599 493 617 526 533 583 563 522 608 614 575 614 626 632 641 659 681 667 735 706 753 773 760 778 811 832 852 790 842 874 836 843 832 815 806 720 806 731 801 742 761 694 713 716 723 657 732 717 685 691 675 673 668 670 603 663 624 646 612 601 587 557 562 604 593 537 545 512 512 528 503 517 474 503 522 510 509 509 489 495 493 486 471 467 483 427 416 462 476 456 479 471 447 465 476 487 477 463 460 431 431 432 458 435 419 435 412 401 441 450 396 480 425 444 403 410 448 438 395 433 458 421 471 400 415 402 431 453 444 464 428 412 461 425 484 447 414 409 452 406 463 423 440 418 453 430 493 502 472 459 473 446 486 456 431 418 434 472 428 465 435 438 460 456 432 465 454 448 450 433 446 467 454 430 454 446 509 459 398 481 459 451 520 485 466 485 490 503 466 489 479 497 486 497 531 557 549 516 558 531 559 613 568 572 556 570 612 589 666 607 645 635 624 600 630 600 630 614 600 654 616 662 647 635 638 587 611 665 653 631 612 626 662 587 647 626 659 595 628 594 715 666 684 672 633 683 672 688 740 759 763 789 721 822 818 858 822 807 844 853 865 895 906 842 878 824 868 862 875 875 928 835 796 829 828 823 800 787 852 799 774 748 743 756 720 746 704 721 691 736 672 732 655 614 639 660 625 656 585 608 586 558 510 547 527 519 495 532 529 527 516 512 453 447 474 432 440 455 472 418 426 420 426 465 400 453 460 445 422 411 428 430 400 436 379 423 442 415 372 422 411 424 383 410 436 386 443 435 425 414 420 402 381 420 410 443 419 420 446 393 422 398 428 417 407 388 400 418 427 453 441 418 401 428 432 416 442 423 403 387 421 427 402 395 362 405 411 402 405 418 427 411 405 446 387 470 425 437 431 394 416 410 393 417 391 425 400 456 383 409 383 437 432 401 439 422 397 371 395 442 404 411 427 421 431 431 435 415 444 424 422 430 429 465 441 464 426 438 437 445 474 450 427 408 426 434 406 393 452 447 462 440 418 459 416 466 434 402 467 404 441 430 416 443 442 484 458 408 428 448 444 424 420 410 457 431 435 468 431 433 411 433 442 426 433 413 394 424 439 403 405 402 411 439 420 424 411 412 393 407 423 394 477 425 432 445 394 409 399 413 401 422 431 449 415 463 409 450 425 444 420 426 456 417 432 491 445 490 484 477 503 514 507 497 511 466 515 546 545 566 499 531 507 535 564 553 592 552 614 519 617 571 559 550 541 586 550 572 580 542 591 549 604 542 598 601 562 550 537 538 512 536 548 510 490 511 504 501 490 462 457 454 463 497 464 454 466 422 450 421 436 428 455 401 439 460 421 381 415 410 485 455 418 411 427 413 422 418 430 399 404 425 383 422 385 347 415 364 420 395 381 406 405 407 419 385 386 392 415 361 400 358 387 392 411 360 400 390 409 411 407 407 395 372 448 421 414 403 386 365 428 408 393 410 363 403 413 391 426 367 395 385 444 413 405 394 380 401 419 398 403 426 410 440 439 454 416 414 389 424 423 416 400 424 396 390 441 377 380 429 434 422 427 398 404 392 361 388 402 397 393 415 408 383 412 399 397 384 371 420 397 411 371 385 390 417 366 445 402 426 415 415 387 374 417 385 391 348 423 366 398 390 350 382 339 373 391 369 384 387 345 386 387 366 392 353 391 375 392 355 349 348 410 362 390 412 374 380 352 404 396 380 355 375 372 375 377 369 381 382 356 398 370 373 376 395 432 366 379 392 390 390 368 390 355 421 388 336 397 379 379 387 428 369 363 381 390 394 374 391 385 382 372 418 383 370 376 388 390 401 403 444 398 422 393 392 407 358 397 418 420 430 387 411 407 401 418 386 393 399 423 395 359 418 402 427 363 440 406 417 413 400 367 378 398 382 415 425 362 424 435 393 377 425 382 370 379 378 408 394 392 433 401 443 379 417 387 370 409 372 399 383 406 400 385 387 387 406 430 418 406 422 400 430 418 420 409 403 410 429 390 393 406 457 421 454 378 445 420 469 389 451 426 407 427 403 458 444 412 434 429 465 428 417 430 425 413 420 399 395 400 378 391 398 416 431 396 434 369 341 410 417 412 379 387 393 421 371 420 393 400 387 360 388 344 398 372 378 408 361 388 406 387 423 373 364 381 369 340 366 370 334 376 373 415 399 402 403 387 367 394 408 349 380 409 362 406 413 359 410 414 353 377 328 360 368 351 336 387 360 378 379 373 339 362 395 418 369 392 383 377 371 397 393 404 361 360 428 415 370 394 398 398 400 405 391 409 393 404 403 402 372 375 425 366 402 383 399 371 361 442 425 407 400 384 443 418 413 392 412 452 443 426 438 463 438 438 476 429 474 400 440 409 431 428 437 457 419 457 463 473 522 431 414 451 387 449 415 457 424 425 424 476 380 472 443 425 433 403 454 462 418 426 438 440 435 440 430 414 464 392 430 402 406 383 408 389 406 372 396 410 381 380 386 354 449 391 401 404 396 359 403 392 400 380 369 420 360 404 325 417 389 391 377 399 409 389 368 360 319 398 351 394 390 422 377 415 405 350 387 393 374 371 345 427 401 401 406 437 400 419 388 404 408 395 393 390 424 421 447 472 430 465 447 489 455 523 484 515 513 503 520 541 561 545 569 607 564 591 618 582 678 626 676 658 690 674 658 728 668 645 675 658 657 703 684 645 620 648 634 656 629 664 618 620 600 606 592 604 589 584 582 595 584 570 566 553 543 554 556 532 557 499 536 510 526 537 486 525 544 498 514 456 427 465 439 456 433 457 478 462 416 442 435 440 420 451 455 424 407 425 429 397 427 442 432 422 419 407 424 411 415 393 448 399 425 412 391 439 392 389 432 411 387 416 405 408 387 392 405 379 393 383 400 434 400 401 374 395 335 399 366 380 369 379 404 407 412 407 375 387 362 429 370 403 406 426 386 412 344 399 353 386 396 382 385 413 369 360 334 333 373 374 337 397 400 382 359 391 358 412 413 384 414 374 405 414 340 401 385 376 384 361 381 367 409 381 352 357 373 378 419 387 386 364 390 377 395 392 400 402 376 370 412 393 410 420 379 390 378 375 410 413 414 372 377 403 405 395 425 402 361 427 402 405 406 379 389 440 416 398 410 391 422 427 449 385 414 382 390 413 418 450 472 434 420 429 428 441 439 448 422 440 439 469 421 431 376 445 383 429 380 392 413 396 393 395 424 377 387 397 429 414 435 370 390 394 370 421 399 413 423 415 392 390 436 376 386 407 395 402 383 357 363 374 396 394 373 347 343 356 368 389 352 364 326 353 343 325 374 343 349 364 355 372 397 369 380 368 353 360 344 341 340 362 370 378 353 371 332 355 327 343 346 370 375 373 337 349 370 344 369 336 406 375 346 347 336 353 330 319 359 374 376 341 367 342 335 325 380 378 351 360 395 379 339 368 372 337 345 326 337 340 330 369 353 342 398 362 354 328 338 361 341 350 332 334 361 345 390 367 344 332 377 377 359 358 327 374 327 370 356 346 378 364 388 374 358 325 344 342 357 386 347 390 381 353 364 291 351 355 324 369 411 377 368 391 373 390 346 367 374 371 357 420 367 363 373 406 376 364 377 326 337 372 372 413 388 376 375 343 388 388 336 353 387 386 348 397 386 383 361 357 355 385 379 361 358 362 363 345 341 357 347 338 386 395 383 379 369 370 410 369 395 345 400 374 367 355 340 371 371 386 380 342 376 383 383 354 392 397 402 419 384 427 377 391 357 400 335 347 337 392 335 333 396 343 339 357 379 358 378 358 346 367 351 362 394 386 377 341 396 344 385 347 339 342 361 351 352 346 366 357 388 367 381 373 402 336 344 355 337 383 365 386 376 335 334 352 387 347 373 335 363 347 342 329 354 360 384 368 367 398 352 408 362 361 364 358 393 338 375 372 366 344 360 367 316 366 326 366 329 341 345 346 356 376 353 325 357 369 400 362 388 373 382 348 342 343 367 374 386 383 342 347 379 322 404 356 360 360 383 350 330 324 373 358 369 377 386 383 364 373 391 365 401 390 373 399 374 376 364 380 374 396 377 395 380 387 388 437 435 431 412 424 425 451 464 430 435 424 449 441 448 410 421 456 455 439 461 442 437 466 475 428 488 465 442 418 418 469 411 438 449 443 436 434 455 406 436 435 454 431 470 481 466 485</counts>
			</dataPoints>
		</scan>
	</xrdMeasurement>
</xrdMeasurements>
