<?xml version="1.0"?>
<xrdMeasurements xmlns="http://www.xrdml.com/XRDMeasurement/2.3" xmlns:xsi="http://www.w3.org/2001/XMLSchema-instance" xsi:schemaLocation="http://www.xrdml.com/XRDMeasurement/2.3 http://www.xrdml.com/XRDMeasurement/2.3/XRDMeasurement.xsd" status="Completed" recordIdentifier="{8BEE883F-9320-4D1B-B6F1-F7D45798BA41}">
	<comment>
		<entry/>
	</comment>
	<sample type="To be analyzed">
		<id>GPSS_Li1p50Mn0p80Ta0p15In0p05Cl4_111725_691b7e20f3837ac4a0a99381</id>
		<name></name>
		<preparedBy></preparedBy>
	</sample>
	<xrdMeasurement measurementType="Scan" status="Completed" sampleMode="Reflection">
		<usedWavelength intended="K-Alpha 1">
			<kAlpha1 unit="Angstrom">1.5405980</kAlpha1>
			<kAlpha2 unit="Angstrom">1.5444260</kAlpha2>
			<kBeta unit="Angstrom">1.3922500</kBeta>
			<ratioKAlpha2KAlpha1>0.5000</ratioKAlpha2KAlpha1>
		</usedWavelength>
		<incidentBeamPath>
			<radius unit="mm">145.00</radius>
			<xRayTube id="1010048" name="Empyrean Cu LFF HR (9430 033 7310x)">
				<tension unit="kV">40.0</tension>
				<current unit="mA">15.0</current>
				<anodeMaterial>Cu</anodeMaterial>
				<focus type="Line">
					<length unit="mm">12.0</length>
					<width unit="mm">0.4</width>
					<takeOffAngle unit="deg">6.0</takeOffAngle>
				</focus>
			</xRayTube>
			<sollerSlit id="21010002" name="Soller slits 0.04 rad.">
				<opening unit="rad">0.0400</opening>
			</sollerSlit>
			<mask id="22031000" name="Fixed mask 13 mm">
				<width unit="mm">9.00</width>
			</mask>
			<divergenceSlit id="22120001" name="Divergence slit 1°" xsi:type="fixedDivergenceSlitType">
				<distanceToSample unit="mm">50.00</distanceToSample>
				<height unit="mm">1.52</height>
			</divergenceSlit>
		</incidentBeamPath>
		<sampleMovement xsi:type="spinningSampleMovementType">
			<spinnerRevolutionTime unit="seconds">1.0</spinnerRevolutionTime>
		</sampleMovement>
		<diffractedBeamPath>
			<radius unit="mm">145.00</radius>
			<antiScatterSlit id="22090040" name="AS slit 9 mm (PIXcel)" xsi:type="fixedAntiScatterSlitType">
				<height unit="mm">9.00</height>
			</antiScatterSlit>
			<sollerSlit id="21020003" name="Large Soller slits 0.04 rad.">
				<opening unit="rad">0.0400</opening>
			</sollerSlit>
			<filter id="20030001" name="Large beta-filter Nickel">
				<material>Ni</material>
				<thickness unit="mm">0.020</thickness>
			</filter>
			<detector id="7010019" name="PIXcel1D-Medipix3 detector" xsi:type="rtmsDetectorType">
				<phd unit="keV">
					<lowerLevel>4.02</lowerLevel>
					<upperLevel>11.27</upperLevel>
				</phd>
				<mode>Scanning</mode>
				<activeLength unit="deg">5.542</activeLength>
			</detector>
		</diffractedBeamPath>
		<scan appendNumber="0" mode="Continuous" scanAxis="Gonio" status="Completed">
			<header>
				<startTimeStamp>2025-11-19T10:48:30-08:00</startTimeStamp>
				<endTimeStamp>2025-11-19T10:56:37-08:00</endTimeStamp>
				<author>
					<name>AutomatedUser</name>
				</author>
				<source>
					<applicationSoftware version="1.7b (136)">PANalytical Aeris Instrument Suite</applicationSoftware>
					<instrumentControlSoftware version="3.2.00000000 20240306">AERIS</instrumentControlSoftware>
					<instrumentID>950485</instrumentID>
				</source>
			</header>
			<dataPoints>
				<positions axis="2Theta" unit="deg">
					<startPosition>10.00943322</startPosition>
					<endPosition>99.99442286</endPosition>
				</positions>
				<positions axis="Omega" unit="deg">
					<startPosition>5.00471661</startPosition>
					<endPosition>49.99721143</endPosition>
				</positions>
				<commonCountingTime unit="seconds">12.495</commonCountingTime>
				<counts unit="counts">2757 2657 2622 2600 2646 2615 2648 2686 2700 2646 2664 2732 2702 2688 2724 2685 2636 2639 2617 2688 2633 2689 2729 2607 2701 2698 2698 2538 2698 2661 2619 2694 2689 2677 2580 2635 2669 2604 2663 2621 2622 2743 2632 2743 2543 2649 2622 2611 2667 2679 2728 2697 2682 2669 2655 2709 2608 2644 2630 2657 2669 2563 2633 2664 2606 2651 2591 2736 2680 2667 2725 2664 2654 2724 2641 2688 2671 2625 2697 2651 2718 2711 2698 2740 2596 2715 2614 2701 2610 2660 2711 2639 2701 2669 2647 2719 2587 2734 2614 2740 2639 2663 2697 2664 2586 2689 2661 2737 2770 2657 2584 2727 2675 2708 2647 2719 2719 2772 2664 2710 2707 2593 2639 2754 2612 2749 2756 2731 2627 2695 2609 2710 2740 2651 2765 2687 2700 2667 2720 2627 2671 2573 2716 2633 2701 2768 2668 2703 2709 2642 2695 2748 2652 2743 2725 2688 2720 2753 2717 2682 2737 2596 2666 2761 2632 2674 2617 2715 2743 2675 2616 2680 2755 2583 2699 2652 2724 2813 2657 2770 2622 2763 2704 2660 2740 2670 2653 2721 2704 2627 2690 2733 2595 2778 2513 2714 2651 2711 2672 2718 2679 2736 2685 2568 2709 2662 2645 2665 2669 2643 2523 2665 2644 2586 2614 2696 2573 2602 2621 2650 2629 2747 2722 2695 2621 2659 2678 2675 2613 2576 2674 2643 2628 2584 2635 2626 2546 2692 2647 2694 2583 2595 2664 2645 2612 2559 2663 2668 2642 2553 2703 2585 2588 2687 2619 2704 2669 2565 2649 2573 2505 2702 2592 2676 2681 2599 2584 2638 2646 2669 2678 2648 2566 2577 2580 2565 2626 2630 2588 2687 2583 2660 2665 2623 2593 2674 2588 2745 2570 2721 2657 2615 2672 2658 2587 2635 2722 2549 2637 2647 2684 2628 2705 2735 2647 2715 2687 2693 2705 2664 2737 2600 2777 2587 2624 2742 2649 2773 2696 2718 2702 2772 2692 2732 2678 2737 2655 2725 2635 2654 2731 2752 2688 2872 2772 2839 2718 2814 2737 2796 2710 2830 2832 2776 2740 2742 2808 2796 2775 2798 2802 2789 2872 2816 2762 2876 2846 2843 2826 2839 2862 2926 3006 2908 2892 2916 2789 2840 2879 2872 2835 2825 3026 2958 2924 2760 2939 2885 2967 2893 2970 2927 2946 2985 2934 3076 2967 2964 2933 3089 2925 3001 3173 3061 2980 2977 3041 3144 3036 3049 3037 2985 3103 3182 3075 3093 3128 3089 3111 3190 3087 3103 3168 3240 3154 3291 3224 3163 3187 3310 3259 3297 3216 3375 3360 3390 3272 3328 3307 3448 3467 3524 3549 3407 3592 3450 3532 3595 3495 3478 3432 3388 3509 3443 3563 3643 3547 3491 3590 3453 3600 3579 3534 3588 3588 3537 3709 3709 3581 3641 3648 3731 3751 3653 3707 3756 3708 3673 3729 3785 3689 3739 3758 3783 3661 3725 3677 3644 3685 3586 3601 3594 3497 3457 3482 3430 3356 3421 3426 3329 3292 3255 3296 3230 3180 3168 3099 3153 3116 3060 3128 3193 3113 2961 3078 3098 3125 3077 3053 3166 3125 2967 3023 2923 3000 3008 3025 3031 3049 3016 3009 3068 3039 2965 3100 3033 3022 2972 3002 2987 3065 3057 2958 2903 2999 3026 2940 2945 2968 3053 2976 2921 2930 2927 2920 2935 2970 2853 2913 2835 2860 2927 2954 2980 2880 2927 2927 2830 2802 2981 2958 2850 2904 2934 2766 2883 2867 2870 2843 2730 2737 2797 2833 2810 2847 2786 2803 2778 2790 2810 2784 2847 2673 2720 2726 2750 2761 2681 2759 2838 2783 2695 2797 2792 2811 2796 2831 2731 2952 2638 2766 2848 2790 2681 2703 2625 2887 2781 2792 2710 2752 2731 2717 2639 2678 2699 2688 2758 2659 2820 2715 2668 2749 2525 2704 2568 2673 2676 2770 2736 2691 2727 2755 2712 2687 2657 2634 2665 2709 2672 2686 2714 2632 2654 2635 2644 2661 2633 2693 2667 2628 2718 2695 2584 2700 2589 2522 2696 2659 2618 2643 2657 2724 2619 2658 2655 2527 2670 2632 2676 2618 2761 2591 2582 2599 2575 2624 2642 2602 2581 2572 2608 2674 2620 2620 2615 2587 2642 2706 2741 2554 2637 2585 2577 2611 2493 2570 2486 2553 2604 2562 2570 2562 2655 2513 2530 2606 2550 2608 2584 2593 2560 2569 2634 2535 2562 2514 2499 2640 2573 2542 2598 2540 2550 2656 2550 2547 2604 2523 2491 2632 2628 2522 2642 2440 2551 2572 2509 2575 2535 2525 2525 2588 2512 2510 2516 2496 2644 2490 2539 2501 2525 2555 2488 2541 2522 2488 2596 2471 2631 2505 2513 2555 2522 2588 2495 2506 2509 2484 2608 2431 2544 2460 2494 2555 2543 2557 2547 2597 2512 2438 2532 2407 2488 2488 2544 2487 2510 2490 2492 2591 2510 2525 2542 2534 2492 2534 2523 2549 2405 2455 2453 2650 2520 2532 2406 2488 2564 2607 2475 2470 2522 2453 2497 2527 2521 2564 2527 2484 2471 2484 2522 2497 2416 2494 2416 2514 2508 2421 2474 2504 2416 2522 2527 2575 2433 2477 2468 2512 2425 2440 2439 2476 2429 2503 2496 2457 2559 2421 2428 2416 2463 2425 2414 2536 2399 2529 2391 2424 2452 2477 2426 2494 2397 2421 2485 2399 2395 2531 2419 2469 2398 2429 2390 2391 2316 2435 2498 2402 2460 2401 2415 2471 2407 2501 2396 2420 2426 2449 2515 2388 2479 2518 2381 2411 2372 2380 2296 2372 2395 2395 2455 2414 2328 2314 2409 2384 2390 2376 2412 2357 2350 2341 2338 2369 2379 2428 2350 2335 2358 2411 2440 2377 2326 2318 2364 2197 2386 2466 2348 2425 2358 2277 2338 2395 2314 2398 2329 2433 2333 2329 2309 2338 2380 2397 2348 2350 2261 2377 2365 2325 2354 2315 2428 2439 2360 2359 2336 2386 2334 2372 2277 2295 2318 2321 2240 2318 2275 2368 2384 2302 2312 2311 2307 2367 2287 2342 2363 2336 2289 2263 2319 2209 2340 2269 2286 2256 2294 2288 2266 2365 2347 2264 2305 2191 2235 2312 2298 2298 2258 2290 2333 2206 2369 2280 2294 2346 2318 2252 2380 2368 2266 2233 2235 2274 2369 2357 2317 2326 2258 2300 2328 2166 2246 2365 2188 2302 2258 2339 2306 2262 2339 2316 2345 2388 2320 2338 2325 2306 2286 2281 2283 2253 2319 2439 2273 2349 2342 2349 2397 2359 2367 2300 2324 2335 2327 2291 2346 2326 2303 2333 2272 2359 2302 2288 2246 2277 2267 2261 2307 2270 2336 2335 2286 2323 2367 2227 2296 2274 2327 2302 2418 2287 2329 2364 2227 2255 2316 2248 2307 2274 2373 2454 2267 2338 2274 2331 2398 2242 2403 2209 2343 2265 2390 2323 2286 2366 2236 2310 2359 2365 2302 2214 2283 2259 2197 2301 2308 2329 2283 2298 2284 2171 2327 2319 2232 2214 2360 2264 2259 2330 2269 2265 2255 2314 2295 2242 2324 2261 2193 2217 2208 2333 2143 2220 2339 2395 2290 2244 2253 2235 2228 2224 2279 2229 2288 2261 2197 2248 2222 2313 2198 2200 2290 2184 2310 2188 2293 2180 2175 2294 2174 2159 2214 2252 2241 2183 2201 2160 2221 2193 2134 2107 2101 2144 2199 2221 2154 2104 2242 2208 2159 2189 2279 2104 2118 2127 2156 2119 2147 2149 2106 2025 2135 2129 2094 2076 2144 2126 2094 2150 2082 2026 2094 2109 2151 1984 2032 2081 2152 2104 2006 1984 2006 2132 1994 2045 2082 2020 2053 2081 1954 2006 1987 1992 1988 1955 2030 1960 1898 2026 1975 2014 2018 2020 2079 1974 1999 2031 2010 1938 1924 1982 1960 1936 1959 1971 1936 1956 2005 1987 2008 1985 1969 1994 1900 1915 1888 1903 1933 1952 1900 1939 1874 1819 1932 1880 1820 1920 1871 1980 1945 1901 1851 1929 1860 1879 1825 1872 1990 1928 1821 1901 1947 1839 1857 1904 1885 1882 1855 1801 1917 1782 1803 1731 1870 1778 1892 1872 1819 1857 1853 1829 1803 1854 1842 1825 1798 1799 1766 1782 1812 1755 1799 1813 1806 1898 1648 1810 1708 1830 1823 1771 1734 1760 1798 1756 1744 1740 1865 1752 1731 1846 1750 1750 1767 1793 1794 1799 1742 1742 1742 1808 1809 1771 1768 1692 1769 1680 1736 1745 1683 1744 1760 1671 1768 1676 1779 1701 1760 1811 1722 1735 1808 1707 1739 1768 1702 1718 1710 1743 1724 1785 1791 1727 1653 1699 1637 1729 1692 1737 1737 1790 1739 1720 1717 1729 1748 1712 1688 1733 1701 1689 1688 1732 1688 1766 1678 1793 1721 1659 1710 1673 1697 1731 1669 1734 1728 1724 1792 1694 1723 1717 1813 1667 1756 1783 1676 1709 1691 1719 1715 1684 1828 1795 1738 1739 1746 1759 1732 1684 1721 1721 1733 1727 1723 1665 1765 1706 1730 1719 1780 1745 1786 1696 1644 1791 1802 1760 1784 1807 1673 1810 1761 1711 1717 1714 1750 1752 1730 1765 1738 1735 1726 1685 1845 1703 1754 1760 1708 1716 1640 1734 1725 1712 1762 1724 1742 1754 1792 1796 1772 1707 1655 1745 1677 1733 1714 1763 1798 1774 1718 1722 1720 1720 1712 1743 1775 1739 1687 1760 1736 1712 1778 1741 1734 1745 1714 1731 1743 1744 1661 1791 1789 1810 1691 1852 1760 1807 1746 1745 1755 1691 1722 1685 1725 1753 1719 1667 1677 1734 1713 1696 1684 1752 1759 1698 1768 1642 1740 1710 1664 1631 1626 1693 1671 1675 1655 1656 1694 1701 1719 1653 1612 1682 1696 1658 1721 1669 1699 1661 1694 1686 1662 1697 1619 1705 1652 1645 1620 1617 1680 1575 1612 1641 1713 1589 1600 1642 1681 1694 1643 1606 1653 1600 1555 1585 1606 1702 1639 1599 1719 1570 1592 1552 1611 1596 1633 1565 1543 1572 1593 1580 1654 1599 1583 1550 1627 1539 1559 1649 1592 1633 1517 1525 1504 1517 1559 1588 1528 1588 1590 1524 1499 1475 1469 1534 1544 1507 1502 1576 1552 1538 1504 1580 1470 1484 1511 1509 1548 1485 1536 1495 1521 1522 1542 1463 1555 1531 1599 1558 1574 1605 1576 1631 1657 1647 1718 1718 1695 1653 1775 1708 1742 1725 1794 1850 1826 1857 1874 1881 1844 1854 1847 1876 1823 1895 1795 1838 1759 1759 1775 1818 1751 1766 1867 1794 1727 1725 1789 1711 1712 1744 1799 1739 1808 1774 1775 1763 1709 1726 1758 1717 1769 1757 1728 1720 1823 1712 1716 1730 1782 1694 1700 1762 1640 1669 1720 1667 1730 1620 1724 1563 1580 1553 1545 1565 1480 1473 1452 1424 1405 1454 1381 1348 1400 1447 1363 1397 1426 1398 1375 1400 1398 1435 1367 1312 1383 1368 1404 1408 1379 1399 1418 1426 1373 1405 1433 1410 1420 1419 1478 1388 1458 1490 1455 1506 1502 1477 1519 1562 1612 1611 1648 1665 1759 1795 1817 1892 1959 1992 1944 2052 2142 2130 2114 2234 2222 2241 2119 2197 2236 2241 2228 2225 2180 2142 2122 2044 2144 2096 2047 2098 2076 2032 1999 1965 1956 1999 2033 1966 1948 2045 1969 1956 1940 1977 1988 1968 1964 1985 2004 1960 1906 1962 1959 1996 1914 1923 1934 1866 1999 1905 2030 1869 1910 1804 1867 1773 1803 1858 1766 1728 1698 1692 1620 1573 1418 1454 1399 1388 1362 1353 1328 1333 1216 1347 1244 1207 1286 1221 1276 1269 1234 1229 1312 1313 1193 1314 1220 1225 1182 1227 1195 1235 1208 1242 1188 1241 1244 1208 1230 1207 1159 1239 1136 1125 1244 1251 1163 1201 1235 1241 1203 1205 1176 1182 1200 1161 1176 1152 1196 1258 1217 1218 1190 1211 1190 1189 1188 1169 1199 1231 1211 1176 1195 1147 1144 1158 1147 1169 1112 1143 1189 1213 1189 1199 1165 1200 1117 1205 1137 1177 1138 1165 1180 1156 1158 1213 1196 1169 1169 1193 1208 1153 1169 1202 1158 1171 1119 1086 1156 1142 1121 1126 1134 1107 1103 1111 1164 1133 1091 1148 1136 1133 1124 1146 1116 1170 1081 1129 1083 1139 1107 1091 1081 1142 1069 1100 1088 1167 1125 1199 1134 1120 1152 1146 1122 1127 1116 1120 1155 1136 1122 1119 1106 1118 1077 1131 1035 1135 1120 1112 1167 1141 1045 1104 1138 1082 1139 1062 1099 1097 1018 1048 1111 1106 1121 1059 1100 1048 1073 1078 1090 1113 1002 1132 1045 1118 1128 1114 1136 1052 1091 1122 1070 1127 1119 1036 1075 1104 1086 1155 1067 1052 1154 1109 1139 1043 1118 1119 1154 1001 1056 1075 1092 1060 1102 1027 1027 1059 1076 1047 1068 1127 1095 1094 1067 995 1047 1101 1081 1091 1089 1095 1077 1122 1015 1089 1040 994 1014 1002 1077 1138 1050 1060 1036 1063 1045 1072 1116 1068 1108 1080 1109 1107 1122 1088 982 1081 1061 1033 1094 1080 1098 1077 1068 1102 1082 1061 1098 1104 1147 1154 1052 1029 1128 1102 1071 1072 1110 1146 1089 1112 1143 1062 1005 1036 1065 1087 1076 1079 1074 1079 1090 1064 1127 1112 1083 1067 1115 1058 1068 1037 1046 1104 1079 1107 1117 1066 1057 1026 1096 1114 1066 1121 1191 1101 1109 1142 1088 1077 1086 1119 1054 1125 1068 1117 1059 1128 1083 1155 1153 1166 1179 1151 1075 1180 1128 1142 1210 1158 1220 1192 1197 1244 1183 1265 1288 1355 1338 1349 1413 1518 1591 1541 1692 1750 1817 1914 1990 2151 2079 2249 2426 2515 2630 2749 3008 3123 3224 3394 3522 3586 3691 4036 3947 4082 4301 4210 4176 4292 4167 4119 4077 3989 3949 3827 3808 3555 3678 3455 3356 3371 3224 3210 3239 3079 3230 3147 3190 3155 3106 3216 3038 3151 3054 3090 3075 3062 2944 3096 2977 3085 2904 2934 2978 3122 3152 3033 3109 3109 3059 3055 2923 2883 2879 2692 2708 2535 2565 2382 2366 2162 2142 1992 1882 1780 1743 1642 1560 1500 1397 1423 1370 1322 1312 1258 1277 1258 1207 1252 1233 1209 1122 1165 1145 1167 1157 1113 1116 1151 1173 1142 1074 1119 1114 1149 1134 1107 979 1148 1064 1064 1060 1046 1113 1068 1054 1055 1140 1148 1065 1032 1076 1093 1095 1077 1085 1056 1072 1001 1091 1039 1061 1073 1029 1006 1058 1081 1066 1066 1113 1074 1016 1058 1044 1058 1022 1075 952 1034 1024 1007 1062 1008 994 1060 1048 1022 1081 1048 1016 1002 983 1032 1039 1060 1030 1023 980 1029 1002 986 1007 1043 1018 1011 1031 1091 1002 1032 1080 986 1016 1039 1007 994 1075 997 1033 1002 1059 1002 1003 1060 1003 1037 1010 984 1020 1033 981 1025 1023 983 1001 1017 1008 1084 1045 1050 1047 1061 1068 942 975 1004 993 1044 995 996 1065 1026 997 1010 1024 989 980 956 1036 1026 973 1072 1031 961 1022 961 983 982 1019 1013 1069 1020 1012 973 1059 1070 981 995 997 1019 987 973 1005 1041 1010 999 1024 1007 1050 957 980 995 1030 960 984 1027 971 1054 1002 972 1028 1033 950 1005 1016 1063 1000 947 1023 1016 1023 1011 992 932 997 1011 1001 969 1028 1007 1010 999 943 1000 1006 1086 1004 1047 1002 1017 969 1010 1003 1073 1069 1077 1031 1100 1036 1041 1113 1047 1008 993 1079 1004 1059 974 992 1022 1029 1083 1010 980 1010 1062 1000 1060 1054 1022 1012 1016 970 1037 908 1017 995 1001 1004 996 1051 1014 969 993 992 1018 1004 1017 965 967 1015 979 986 952 954 996 958 976 993 957 980 1018 1020 992 918 956 972 950 994 929 994 921 949 991 950 978 867 1038 947 948 974 969 981 927 1017 955 956 995 1045 933 896 929 947 964 931 949 897 910 882 968 978 1046 991 966 981 914 959 967 990 977 991 976 968 917 920 935 942 912 980 934 918 968 968 944 948 975 931 938 928 940 943 985 969 997 922 917 935 909 948 967 994 981 930 902 953 957 947 978 988 867 958 910 902 930 882 949 927 967 991 870 1021 861 933 931 928 914 918 906 907 905 953 918 949 991 911 949 926 953 950 878 930 935 923 898 946 972 991 960 962 937 960 952 1007 830 915 902 894 967 957 952 908 894 940 902 918 931 877 884 926 890 864 904 962 877 853 925 951 915 976 923 918 932 943 882 931 932 939 957 943 961 911 966 892 915 896 902 875 900 915 966 902 929 933 927 941 871 933 888 947 860 915 956 898 929 888 970 920 904 870 902 912 889 916 913 893 852 893 934 948 930 897 973 921 915 939 982 927 878 862 883 906 896 915 905 970 893 928 915 900 928 948 915 954 904 894 904 937 905 954 886 877 947 866 899 965 853 932 934 837 834 918 936 955 890 907 925 905 921 901 949 925 923 921 905 929 910 875 892 884 885 832 904 902 859 952 890 914 924 916 851 832 894 896 931 846 911 884 926 937 908 921 959 921 944 865 902 863 981 911 945 897 912 909 908 907 844 885 897 918 939 961 912 910 913 892 974 893 889 908 947 932 885 913 924 934 875 919 922 862 910 874 900 854 923 903 890 887 913 880 899 890 949 942 880 956 914 916 866 864 887 914 898 881 883 903 927 849 893 904 875 824 920 854 893 897 888 849 917 919 913 885 889 908 880 898 948 911 921 896 894 874 874 900 948 903 895 867 921 857 889 876 905 875 914 901 900 902 864 857 914 890 878 913 837 929 914 853 910 850 931 921 923 880 946 886 952 893 871 865 907 924 898 924 884 966 892 912 892 937 850 959 893 917 860 963 949 835 882 911 887 892 890 882 913 866 893 916 892 868 904 929 851 920 844 964 928 906 889 940 882 856 856 867 862 880 903 885 911 894 926 885 896 939 916 938 958 922 881 879 921 895 888 905 865 897 873 906 934 897 934 915 904 899 925 904 824 911 961 880 907 932 899 918 877 881 874 931 893 874 928 873 892 851 864 919 879 931 904 887 854 905 914 912 919 865 959 895 929 894 929 901 890 911 910 962 860 942 926 958 901 948 953 852 945 919 884 872 838 899 906 961 884 942 879 866 902 904 910 921 891 859 939 939 908 897 937 914 931 890 934 931 1005 934 894 910 901 974 878 935 926 937 938 908 957 876 894 924 902 842 915 928 922 907 855 878 925 881 911 931 915 915 866 861 946 955 944 958 891 972 903 954 908 871 957 903 954 980 975 1008 953 969 1020 1048 1022 1137 1060 1096 1141 1204 1210 1178 1247 1278 1228 1286 1241 1405 1316 1316 1328 1386 1371 1341 1383 1334 1272 1328 1295 1257 1347 1323 1172 1246 1229 1203 1230 1213 1118 1168 1157 1144 1164 1114 1208 1195 1150 1134 1074 1058 1091 1099 1135 1078 1112 1087 1099 1092 1126 1065 1131 1054 1061 1116 1096 1167 1099 1065 1099 1072 1080 1050 1101 1065 1017 1033 984 985 921 942 964 907 965 930 905 923 965 964 897 885 943 896 916 825 898 864 928 907 950 934 898 864 909 884 908 874 875 938 893 867 885 889 931 904 850 866 882 922 900 902 892 910 856 886 901 855 893 855 903 886 834 958 933 850 857 906 917 946 899 842 816 885 862 877 906 861 864 874 906 899 819 883 847 898 834 913 895 923 892 918 835 886 858 864 908 900 918 903 858 875 869 867 864 937 930 929 846 857 907 871 892 860 952 813 910 903 856 945 895 847 928 898 932 894 932 939 899 856 905 920 876 909 868 852 929 811 886 904 910 952 898 883 872 890 907 846 886 850 944 835 910 898 924 890 845 895 837 889 909 901 853 899 877 901 930 868 915 950 884 953 862 860 868 930 892 836 914 901 886 848 894 864 944 889 930 922 911 892 891 858 870 925 878 899 881 873 879 908 848 876 909 903 846 885 905 872 897 900 947 901 925 898 897 885 886 896 870 883 908 885 916 890 953 907 890 937 880 948 865 875 881 923 927 888 852 991 903 901 925 883 876 880 908 928 892 865 844 925 922 896 824 892 934 885 915 899 921 923 940 906 871 875 876 942 918 847 930 842 900 953 875 939 925 925 925 891 899 883 957 935 940 892 928 881 921 903 942 946 938 965 937 928 987 936 947 940 1042 972 975 951 972 953 988 1004 991 995 1005 1022 1022 990 1067 1155 1095 1187 1263 1212 1279 1329 1381 1525 1628 1631 1694 1828 1940 2077 2201 2257 2438 2585 2841 2887 2958 3196 3336 3332 3435 3323 3447 3426 3510 3470 3355 3425 3355 3286 3275 3190 3181 3016 2883 2875 2860 2828 2639 2658 2489 2375 2428 2393 2248 2348 2325 2190 2228 2170 2083 2125 2088 2109 2065 2049 1986 2012 2052 2055 1996 1956 2083 2102 2051 1941 2000 1969 1964 1881 1930 1788 1704 1760 1688 1588 1576 1445 1449 1397 1319 1248 1222 1195 1230 1201 1146 1099 1062 1002 1036 972 978 986 1009 1016 980 951 929 959 976 919 958 886 956 930 1034 964 998 932 915 973 903 903 968 935 947 925 928 934 907 931 957 944 919 948 885 894 955 914 921 897 894 947 994 922 940 959 914 928 923 897 872 916 989 939 914 916 932 919 918 897 914 871 905 924 968 920 873 893 856 885 934 934 908 921 923 894 872 896 982 883 905 884 955 912 919 859 909 887 884 900 873 905 907 884 913 892 863 883 881 879 893 873 873 888 902 869 871 925 844 907 903 910 867 867 885 904 885 875 870 839 887 856 887 903 852 931 854 898 909 907 961 972 936 889 969 989 1042 1021 970 976 1014 1046 1108 1080 1153 1055 1112 1119 1115 1203 1106 1200 1194 1191 1198 1094 1167 1159 1152 1107 1170 1094 1101 1028 1096 1104 1100 1054 1067 1121 1091 1078 1028 1083 1002 1024 1011 971 1017 1012 936 1016 944 933 1024 972 988 1011 1025 1025 995 985 970 983 948 944 1016 1000 971 985 911 943 950 930 880 875 896 889 934 943 901 925 937 833 910 927 871 889 868 854 875 857 872 781 883 856 924 879 853 846 856 856 840 835 874 870 856 845 895 905 802 839 870 863 891 814 823 847 823 808 820 822 857 842 920 807 874 884 894 838 852 811 844 793 869 824 883 881 863 857 864 864 844 852 865 844 896 844 916 820 876 871 865 846 840 889 812 873 886 840 837 782 879 831 803 822 842 850 876 793 809 842 845 819 894 818 801 877 818 835 809 848 824 831 857 857 830 832 823 913 846 855 802 830 840 815 839 836 845 837 850 838 845 856 814 849 835 864 893 853 840 787 803 928 835 846 861 821 816 858 836 888 825 808 807 901 811 840 831 833 840 867 818 819 858 820 788 861 844 811 869 795 883 851 826 857 885 867 872 850 864 833 882 830 853 808 845 811 881 825 863 852 816 849 811 781 807 828 805 886 842 848 829 853 863 823 796 827 818 786 862 812 834 870 861 853 880 831 852 838 804 874 825 812 797 831 907 870 863 795 815 799 861 835 824 805 829 852 842 840 841 825 826 832 876 827 899 862 865 867 801 798 793 811 808 838 847 802 801 824 839 852 871 806 797 872 843 857 821 807 849 861 860 869 863 849 903 795 845 903 842 851 827 818 866 813 847 819 800 772 815 853 811 832 840 826 823 756 898 884 819 795 850 854 848 800 860 861 887 810 808 799 832 878 816 819 852 880 813 788 885 866 866 869 839 801 766 812 826 837 814 865 835 818 822 887 840 831 784 769 834 804 841 799 764 842 836 808 850 777 859 803 818 879 852 855 823 795 797 818 791 838 858 805 832 811 842 817 823 877 863 864 818 836 790 796 813 803 804 793 866 811 833 848 830 804 873 780 871 782 811 793 804 775 835 779 814 831 794 841 805 855 791 814 828 800 857 853 829 802 837 804 816 823 812 799 867 825 894 861 809 810 824 798 830 787 829 820 837 830 807 820 844 831 813 790 826 842 780 796 796 806 809 848 798 801 799 841 821 789 844 798 794 855 786 836 780 848 798 837 819 845 847 824 877 832 838 827 801 850 816 815 816 828 795 850 825 838 815 830 813 790 822 794 842 765 856 857 836 823 818 871 870 793 869 816 831 909 894 890 834 958 872 876 932 893 850 880 875 937 966 927 888 908 877 883 887 906 873 829 900 876 887 899 911 910 877 902 887 875 891 886 913 882 920 832 861 874 887 894 847 882 864 881 832 866 888 818 811 902 854 854 877 901 865 926 857 914 949 910 902 900 1006 1024 1002 1062 1061 1103 1083 1076 1071 1217 1156 1152 1198 1173 1158 1190 1233 1201 1194 1172 1240 1202 1152 1156 1098 1145 1130 1091 1093 1048 1060 1034 1085 1083 1071 1027 1013 1071 1035 977 960 1038 1004 981 999 1012 968 1011 961 999 992 905 933 1026 944 949 976 948 936 923 916 961 911 941 885 888 856 926 850 895 884 869 865 853 865 875 837 869 859 868 888 788 796 852 815 815 837 847 820 802 808 828 780 864 825 803 817 828 848 793 787 750 837 825 829 788 834 804 785 905 873 810 798 815 864 816 833 854 859 803 841 827 865 878 869 834 885 834 846 795 837 816 800 857 845 825 838 766 851 807 793 789 877 854 809 819 822 876 811 803 850 840 819 827 853 777 787 854 834 764 820 797 807 819 831 806 787 793 859 798 845 840 829 803 800 779 812 834 803 815 815 784 832 834 820 778 820 827 835 852 832 816 838 817 798 836 816 846 804 822 799 780 809 829 824 872 802 825 792 799 775 802 872 828 757 844 816 875 833 889 838 823 814 827 784 840 814 859 821 818 825 897 825 830 837 859 816 836 832 840 799 855 826 829 845 849 862 880 817 853 895 827 866 848 801 934 972 950 967 973 993 1081 1091 1098 1130 1182 1169 1215 1257 1360 1371 1434 1464 1461 1568 1532 1549 1605 1574 1567 1469 1489 1511 1436 1471 1522 1517 1495 1411 1463 1464 1426 1424 1343 1404 1336 1306 1368 1318 1184 1229 1219 1160 1140 1160 1106 1118 1131 1126 1156 1070 1098 1145 1138 1117 1138 1135 1110 1081 1077 1064 1080 1108 1030 1047 991 1000 1001 1023 906 923 903 1001 910 920 862 911 885 930 867 859 900 848 835 845 811 821 841 820 853 801 866 814 807 837 818 800 856 867 837 784 831 821 832 782 830 843 791 840 781 799 805 841 849 828 800 794 823 784 760 774 813 743 777 839 816 829 806 723 806 823 825 772 799 834 809 812 807 833 852 822 825 812 836 783 842 802 867 827 801 837 827 805 787 824 811 844 794 785 788 801 796 826 843 844 871 834 858 812 808 849 785 848 790 822 859 815 796 770 823 882 857 814 841 829 803 802 845 837 840 807 815 845 865 849 934 890 850 878 911 910 966 941 1000 977 966 981 954 986 986 963 913 958 990 1029 968 997 951 955 972 965 1006 929 927 909 888 931 912 987 946 900 918 918 888 903 893 867 929 869 849 810 902 831 888 845 854 885 857 838 859 874 836 860 826 842 907 853 850 871 855 882 841 805 858 828 810 796 832 867 835 829 812 799 838 835 802 817 807 823 831 766 841 830 794 767 822 828 812 821 841 816 816 792 814 792 849 811 832 774 770 774 764 742 742 772 802 754 814 806 831 829 802 804 818 811 783 788 759 813 854 784 745 805 809 769 783 756 769 800 781 809 795 782 773 791 825 764 786 768 775 784 717 855 805 818 809 806 856 823 795 763 779 773 792 802 805 783 771 804 813 790 804 744 772 839 750 776 822 792 779 785 734 791 754 806 790 814 805 794 796 736 870 779 758 807 785 788 746 780 799 755 745 814 776 825 757 764 814 752 742 788 807 753 814 772 798 880 789 816 761 786 792 765 805 859 751 749 810 775 778 829 786 832 739 794 847 775 776 803 797 741 772 839 755 810 783 834 800 770 787 753 795 789 782 786 791 787 762 770 776 769 831 801 804 729 782 732 799 776 844 788 787 836 801 809 789 777 793 788 785 744 757 749 799 788 780 750 782 794 784 760 747 814 736 750 844 795 785 809 758 781 827 854 823 774 762 791 783 757 805 792 777 811 781 773 792 779 789 767 809 797 820 788 824 785 865 816 789 833 800 804 793 761 813 836 764 770 805 813 827 722 794 786 817 771 755 824 733 789 825 772 767 743 786 770 781 800 721 728 698 802 749 761 825 777 782 765 776 838 805 818 765 788 777 796 845 826 788 794 820 751 819 762 775 748 774 742 783 766 786 745 827 768 757 784 725 809 766 749 766 759 788 759 784 781 748 756 757 822 724 833 750 786 818 745 777 816 795 791 788 793 755 777 757 780 795 814 791 755 854 744 765 774 829 762 746 769 755 785 748 819 813 795 788 730 783 761 797 836 745 778 781 802 780 781 781 759 770 797 805 767 777 708 777 857 747 778 824 751 808 760 811 735 790 798 759 807 771 779 816 779 817 743 730 765 760 717 806 744 753 744 779 786 712 748 804 762 830 776 784 765 828 815 844 827 858 800 880 875 901 886 849 884 895 841 835 883 912 867 919 867 890 892 880 893 938 908 860 906 854 823 870 823 936 881 867 863 865 897 810 857 871 840 825 852 811 798 814 861 847 800 855 814 798 822 828 813 842 797 844 798 872 804 756 830 758 777 828 749 798 771 781 773 811 813 819 788 777 796 844 800 790 767 773 755 757 768 779 780 749 820 811 740 801 739 765 840 762 791 783 799 780 798 792 780 721 757 810 807 813 748 804 757 829 739 771 753 765 747 725 785 821 741 750 795 781 769 749 823 757 807 763 790 759 770 773 790 788 799 783 681 770 768 741 773 767 731 821 792 801 773 785 756 778 736 756 830 816 781 791 789 733 752 754 787 811 774 791 754 812 803 765 780 799 804 809 721 747 743 777 784 802 776 754 790 836 826 817 788 796 799 815 727 722 804 797 776 777 760 794 782 799 732 749 772 780 764 743 785 755 764 825 803 815 789 781 776 827 814 759 782 772 751 796 775 770 739 806 773 783 751 801 715 758 803 812 768 746 769 797 753 803 812 789 793 778 777 768 811 764 822 781 822 750 766 762 745 743 777 809 709 792 803 839 765 766 779 818 806 758 795 798 784 774 752 799 805 788 774 842 815 798 804 799 824 787 789 794 811 789 780 783 838 721 779 856 824 865 860 857 834 874 882 878 883 976 956 923 951 958 936 959 1021 1002 1086 1076 1053 1072 1086 1116 1149 1033 1122 1078 1053 1034 1078 1056 1035 981 1042 1015 1033 1041 991 1029 981 1026 1042 986 987 1041 965 998 985 957 952 934 874 922 929 862 876 841 910 947 944 860 822 921 829 890 878 882 906 864 853 841 860 790 814 812 787 819 857 796 834 807 836 784 793 816 855 850 787 784 790 797 882 803 756 767 811 815 797 803 754 811 790 797 788 797 798 801 811 801 781 824 750 788 826 810 819 797 805 816 787 775 778 810 765 794 784 774 800 762 784 781 745 774 802 792 768 753 801 804 780 749 793 747 801 753 773 746 813 852 823 764 748 834 791 739 823 803 793 780 733 787 768 803 731 762 801 772 766 802 723 816 770 744 812 800 789 771 780 763 713 784 830 769 761 776 791 757 805 784 782 798 732 753 763 733 846 788 843 705 811 776 776 754 763 744 806 799 749 825 746 787 805 793 804 803 753 792 776 809 820 729 763 804 782 729 784 764 814 756 799 717 797 777 756 787 750 839 743 824 767 816 825 788 770 770 750 781 779 756 770 804 806 750 804 803 831 710 786 768 739 790 757 791 799 769 762 766 788 731 822 775 779 745 741 760 787 743 767 808 769 761 786 824 792 796 780 716 780 802 802 748 783 753 737 812 765 752 756 768 715 777 762 780 783 726 764 763 752 770 779 790 769 745 731 722 756 777 767 747 754 791 782 778 784 770 760 722 733 800 789 756 798 764 777 762 756 774 780 730 735 779 823 756 841 742 753 738 727 744 764 782 862 736 784 782 768 790 813 741 818 777 785 766 740 807 748 744 749 778 773 725 801 763 778 788 806 744 752 749 733 725 765 760 771 782 820 771 777 780 775 796 797 757 735 745 784 769 744 802 804 709 779 725 809 751 817 765 785 745 750 760 733 738 780 797 801 738 778 780 752 793 801 817 782 758 800 833 776 753 816 767 803 820 693 775 786 758 789 748 735 789 794 761 746 772 743 786 790 709 789 745 749 799 790 777 831 763 743 799 783 798 788 797 709 797 739 783 777 726 811 822 716 794 791 745 766 781 767 774 774 765 767 761 818 784 760 756 791 808 789 773 825 770 788 809 832 756 794 755 796 755 759 765 784 806 788 795 757 742 816 785 771 812 726 832 812 813 753 779 797 805 773 812 783 856 752 793 793 822 823 814 772 818 757 742 762 756 750 756 772 728 788 745 791 753 753 779 771 814 740 778 798 794 764 759 877 744 753 752 740 796 738 779 734 803 847 773 735 762 828 761 806 792 764 802 817 778 768 766 793 845 803 771 792 735 786 828 755 739 832 805 757 808 770 747 769 779 759 801 788 818 747 788 826 732 819 814 755 805 764 776 798 747 782 788 776 797 793 813 767 779 773 811 813 837 767 842 748 813 777 783 749 782 732 754 792 790 758 795 790 770 818 766 816 805 802 783 765 768 785 789 820 800 789 818 863 835 816 849 831 830 872 829 915 874 903 899 864 870 870 829 849 826 808 833 883 880 854 870 890 875 862 870 872 897 873 838 831 886 827 796 905 843 896 876 838 896 836 825 857 922 864 863 828 855 860 863 851 872 860 885 885 857 858 847 919 850 823 881 925 909 908 924 927 971 953 916 929 897 948 912 880 877 874 907 878 938 872 938 859 919 922 919 865 884 872 849 873 809 857 859 865 922 889 890 860 870 836 872 849 833 859 814 845 855 848 874 837 879 821 815 854 835 834 811 804 760 840 819 818 845 829 810 816 812 792 820 816 872 786 833 811 832 793 816 852 819 766 829 837 808 798 849 721 839 796 811 779 803 799 802 767 819 823 822 844 822 798 800 765 832 766 765 841 802 810 794 795 789 804 813 837 789 803 836 785 791 778 811 811 783 804 796 776 767 778 804 795 812 762 830 817 803 802 825 828 773 790 774 782 781 791 797 853 765 797 858 826 805 788 784 821 865 783 812 798 765 829 834 796 822 781 827 804 806 792 837 778 781 812 801 783 845 796 821 862 846 844 816 807 825 875 766 783 848 815 824 865 777 848 872 859 816 854 883 830 846 846 780 874 836 842 895 894 854 882 848 869 850 908 850 899 923 865 877 948 973 927 964 1069 1027 1135 1129 1166 1261 1284 1318 1328 1354 1412 1475 1471 1490 1479 1513 1486 1375 1464 1509 1406 1410 1439 1352 1316 1339 1361 1331 1372 1384 1406 1353 1401 1397 1402 1348 1369 1394 1340 1333 1291 1357 1344 1267 1256 1254 1204 1227 1162 1128 1132 1176 1180 1082 1140 1090 1065 1048 1064 1074 1045 1054 970 1031 942 974 953 920 948 958 920 933 926 866 924 859 906 883 892 863 909 851 882 916 791 909 815 863 859 871 828 794 829 775 789 778 813 806 822 815 795 807 803 820 782 789 812 795 807 778 837 836 784 811 834 794 754 806 823 817 829 791 795 784 816 749 775 838 841 764 868 809 814 720 812 791 781 768 809 784 752 833 813 763 795 775 776 788 846 795 811 798 823 766 782 829 784 750 838 791 826 750 820 821 804 838 805 778 809 822 869 804 846 835 833 815 820 849 792 821 826 829 846 797 848 895 906 849 863 921 830 908 878 837 848 858 827 906 823 874 851 815 832 838 871 884 843 867 862 887 834 902 850 825 897 822 843 893 866 806 790 867 832 804 816 803 859 807 820 833 810 799 831 817 802 858 778 810 801 837 802 817 816 748 838 858 806 856 820 805 770 801 872 806 793 834 823 817 757 783 816 835 746 805 822 840 840 738 799 782 813 791 802 728 805 769 806 850 868 828 803 729 760 825 820 790 837 822 771 794 762 779 727 757 772 723 760 809 784 781 785 775 776 796 794 766 750 813 805 752 802 790 775 759 791 787 807 803 751 796 801 778 748 772 789 763 808 814 745 784 766 798 805 774 778 784 753 756 763 805 765 708 744 798 774 765 759 813 765 787 830 778 807 820 782 776 780 784 793 805 781 778 787 785 758 739 803 813 748 840 776 812 784 806 743 782 844 791 766 751 774 792 758 796 762 826 816 791 776 809 811 791 805 804 765 779 724 787 815 744 771 866 765 771 766 776 817 820 777 743 788 803 784 774 795 785 819 744 812 817 817 818 771 796 775 788 800 818 727 789 750 759 770 784 766 783 811 837 775 719 798 769 778 826 786 771 755 785 840 817 731 817 779 823 783 783 823 779 761 754 803 820 802 805 814 764 784 759 790 804 774 800 797 776 811 777 780 772 830 791 760 755 775 758 820 795 768 815 774 769 777 766 803 748 749 800 778 781 763 738 771 755 803 750 798 796 777 764 719 786 761 827 766 764 756 789 836 794 778 773 781 772 774 793 785 792 771 857 757 761 786 796 797 805 777 800 771 798 771 795 741 836 798 818 790 777 801 771 765 788 753 826 801 824 807 752 786 765 824 777 798 732 730 769 736 746 819 781 800 789 765 823 821 775 767 808 826 825 805 819 813 741 827 790 737 781 801 819 763 752 807 780 760 748 788 781 807 812 766 748 804 778 802 776 818 796 776 797 792 780 795 787 799 803 805 758 772 778 797 793 799 809 789 805 788 804 766 835 799 859 865 889 805 875 842 860 901 876 890 873 821 890 853 874 826 821 858 862 878 878 907 830 821 856 873 825 828 868 858 832 794 905 833 843 884 845 871 877 836 865 831 842 830 877 878 840 814 827 840 863 836 809 822 780 799 790 867 816 856 810 775 826 789 835 789 868 775 782 854 792 804 770 782 770 808 817 835 809 773 775 823 814 839 781 799 805 798 779 795 726 783 765 759 743 815 776 749 823 820 740 802 807 810 814 761 831 838 772 784 754 801 765 788 810 748 812 828 764 765 798 774 802 780 795 784 870 773 746 788 832 803 818 866 828 808 780 796 765 761 789 763 820 828 812 775 752 793 802 731 816 846 753 814 787 834 810 755 833 764 798 755 794 761 733 764 759 782 799 779 796 780 803 812 806 800 757 770 809 749 802 755 790 809 777 813 792 816 802 801 814 814 754 768 772 781 792 824 788 824 747 803 732 745 758 760 748 835 746 782 812 755 845 796 811 790 807 773 774 813 751 795 771 788 805 788 804 779 722 844 770 830 805 739 850 824 785 807 849 827 805 771 838 813 841 788 790 819 803 815 755 772 847 781 813 831 798 831 814 841 853 868 769 831 863 857 788 789 890 842 863 876 847 875 855 902 860 884 939 862 920 936 1000 981 1045 1041 1077 1139 1172 1216 1312 1229 1377 1246 1364 1333 1381 1370 1350 1347 1352 1269 1298 1271 1215 1248 1221 1134 1091 1172 1092 1154 1119 1152 1126 1159 1182 1199 1124 1192 1164 1194 1179 1264 1210 1145 1238 1153 1159 1180 1127 1145 1107 1127 1114 944 1049 963 955 964 977 941 958 932 900 915 901 900 887 901 851 917 913 902 886 842 891 841 939 874 852 869 842 888 821 797 787 834 860 876 779 872 839 865 828 815 766 825 857 825 818 795 843 774 794 783 803 808 788 834 789 830 842 831 781 797 803 768 853 875 794 814 760 807 812 756 761 788 756 798 783 832 808 811 824 808 755 793 812 825 804 833 807 852 770 803 809 829 734 816 788 777 807 794 855 830 797 827 791 801 778 768 809 812 794 769 785 860 827 782 854 768 809 791 797 761 792 815 813 798 813 829 827 834 875 812 854 880 841 844 816 840 785 796 817 776 815 787 824 809 813 815 841 834 793 856 792 827 828 821 768 834 840 825 774 858 828 815 853 785 770 804 796 804 835 841 793 875 795 790 850 819 752 776 750 777 797 796 773 762 810 840 793 773 792 767 772 742 831 807 819 824 775 781 782 772 767 815 771 815 779 802 780 752 772 812 783 787 799 778 775 729 768 790 847 817 750 862 788 793 788 826 767 781 809 852 735 745 801 780 779 755 810 788 797 810 724 767 821 761 796 766 771 775 814 841 826 835 754 787 780 788 722 757 753 739 823 798 786 786 745 833 782 797 778 758 815 798 821 789 763 811 815 737 797 715 811 827 787 787 826 819 763 785 745 786 810 774 774 796 749 785 771 823 791 761 802 781 838 788 763 798 771 778 797 779 786 815 811 803 818 785 782 763 816 837 771 859 797 764 794 805 814 803 752 769 768 778 745 792 761 795 773 829 794 784 795 809 800 798 770 772 771 780 783 829 810 769 780 735 797 817 821 813 798 829 780 752 779 795 806 790 766 770 792 781 789 805 813 765 794 765 761 774 839 745 809 759 806 791 761 840 800 778 781 773 817 755 753 777 779 812 817 730 761 826 793 787 789 771 810 775 790 793 771 735 836 774 773 759 810 821 810 778 790 811 821 803 850 789 737 779 774 767 759 787 767 775 767 779 773 790 771 824 813 767 768 766 818 777 753 808 743 797 753 744 832 813 773 724 777 831 763 795 787 804 755 768 795 761 806 751 807 813 803 836 783 749 807 740 793 804 824 784 779 797 765 796 799 823 820 785 825 794 758 801 788 751 873 809 783 770 757 784 807 742 798 823 792 799 845 796 857 763 803 760 750 802 810 748 791 802 761 795 784 782 834 763 828 792 759 837 808 780 775 792 786 787 743 810 788 821 817 762 782 771 769 807 732 810 792 818 806 812 837 757 752 824 818 812 772 794 853 833 780 846 787 789 824 777 789 803 835 829 824 799 825 796 799 830 814 868 833 846 821 864 929 909 860 899 860 890 905 927 929 919 943 898 902 899 914 883 874 872 893 883 875 877 845 853 890 811 873 845 910 898 926 871 912 911 841 894 928 860 900 868 920 912 884 907 858 879 889 858 900 892 898 888 936 897 838 877 900 872 915 934 891 929 898 968 921 881 944 875 926 886 914 840 843 892 885 864 924 918 827 885 871 900 846 874 902 863 820 832 863 910 851 876 870 840 863 850 848 946 914 912 912 878 851 821 848 836 770 798 835 821 832 817 814 801 868 796 864 785 814</counts>
			</dataPoints>
		</scan>
	</xrdMeasurement>
</xrdMeasurements>
