<?xml version="1.0"?>
<xrdMeasurements xmlns="http://www.xrdml.com/XRDMeasurement/2.3" xmlns:xsi="http://www.w3.org/2001/XMLSchema-instance" xsi:schemaLocation="http://www.xrdml.com/XRDMeasurement/2.3 http://www.xrdml.com/XRDMeasurement/2.3/XRDMeasurement.xsd" status="Completed" recordIdentifier="{9EC2371D-99A1-4F6C-8FCA-54FC964443F6}">
	<comment>
		<entry/>
	</comment>
	<sample type="To be analyzed">
		<id>GPSS_Li1p8Fe0p7Cu0p1Y0p2Cl4_122125_69474145f4d05ae3d697aef0</id>
		<name></name>
		<preparedBy></preparedBy>
	</sample>
	<xrdMeasurement measurementType="Scan" status="Completed" sampleMode="Reflection">
		<usedWavelength intended="K-Alpha 1">
			<kAlpha1 unit="Angstrom">1.5405980</kAlpha1>
			<kAlpha2 unit="Angstrom">1.5444260</kAlpha2>
			<kBeta unit="Angstrom">1.3922500</kBeta>
			<ratioKAlpha2KAlpha1>0.5000</ratioKAlpha2KAlpha1>
		</usedWavelength>
		<incidentBeamPath>
			<radius unit="mm">145.00</radius>
			<xRayTube id="1010048" name="Empyrean Cu LFF HR (9430 033 7310x)">
				<tension unit="kV">40.0</tension>
				<current unit="mA">15.0</current>
				<anodeMaterial>Cu</anodeMaterial>
				<focus type="Line">
					<length unit="mm">12.0</length>
					<width unit="mm">0.4</width>
					<takeOffAngle unit="deg">6.0</takeOffAngle>
				</focus>
			</xRayTube>
			<sollerSlit id="21010002" name="Soller slits 0.04 rad.">
				<opening unit="rad">0.0400</opening>
			</sollerSlit>
			<mask id="22031000" name="Fixed mask 13 mm">
				<width unit="mm">9.00</width>
			</mask>
			<divergenceSlit id="22120001" name="Divergence slit 1°" xsi:type="fixedDivergenceSlitType">
				<distanceToSample unit="mm">50.00</distanceToSample>
				<height unit="mm">1.52</height>
			</divergenceSlit>
		</incidentBeamPath>
		<sampleMovement xsi:type="spinningSampleMovementType">
			<spinnerRevolutionTime unit="seconds">1.0</spinnerRevolutionTime>
		</sampleMovement>
		<diffractedBeamPath>
			<radius unit="mm">145.00</radius>
			<antiScatterSlit id="22090040" name="AS slit 9 mm (PIXcel)" xsi:type="fixedAntiScatterSlitType">
				<height unit="mm">9.00</height>
			</antiScatterSlit>
			<sollerSlit id="21020003" name="Large Soller slits 0.04 rad.">
				<opening unit="rad">0.0400</opening>
			</sollerSlit>
			<filter id="20030001" name="Large beta-filter Nickel">
				<material>Ni</material>
				<thickness unit="mm">0.020</thickness>
			</filter>
			<detector id="7010019" name="PIXcel1D-Medipix3 detector" xsi:type="rtmsDetectorType">
				<phd unit="keV">
					<lowerLevel>4.02</lowerLevel>
					<upperLevel>11.27</upperLevel>
				</phd>
				<mode>Scanning</mode>
				<activeLength unit="deg">5.542</activeLength>
			</detector>
		</diffractedBeamPath>
		<scan appendNumber="0" mode="Continuous" scanAxis="Gonio" status="Completed">
			<header>
				<startTimeStamp>2025-12-22T15:15:05-08:00</startTimeStamp>
				<endTimeStamp>2025-12-22T15:23:13-08:00</endTimeStamp>
				<author>
					<name>AutomatedUser</name>
				</author>
				<source>
					<applicationSoftware version="1.7b (136)">PANalytical Aeris Instrument Suite</applicationSoftware>
					<instrumentControlSoftware version="3.2.00000000 20240306">AERIS</instrumentControlSoftware>
					<instrumentID>950485</instrumentID>
				</source>
			</header>
			<dataPoints>
				<positions axis="2Theta" unit="deg">
					<startPosition>10.00943322</startPosition>
					<endPosition>99.99442286</endPosition>
				</positions>
				<positions axis="Omega" unit="deg">
					<startPosition>5.00471661</startPosition>
					<endPosition>49.99721143</endPosition>
				</positions>
				<commonCountingTime unit="seconds">12.495</commonCountingTime>
				<counts unit="counts">2806 2840 2699 2916 2863 2780 2826 2780 2840 2830 2688 2819 2854 2819 2840 2831 2741 2818 2795 2815 2728 2906 2764 2764 2762 2701 2727 2842 2747 2658 2761 2739 2738 2765 2779 2731 2804 2812 2827 2816 2754 2743 2843 2769 2642 2781 2780 2692 2772 2872 2739 2826 2714 2757 2756 2809 2750 2771 2778 2838 2836 2758 2799 2707 2763 2810 2767 2738 2706 2741 2687 2740 2730 2773 2693 2704 2780 2787 2744 2850 2835 2842 2800 2734 2763 2896 2816 2851 2724 2848 2749 2791 2737 2827 2766 2836 2820 2815 2820 2861 2761 2844 2819 2855 2880 2718 2718 2752 2746 2770 2781 2693 2750 2872 2746 2809 2795 2843 2690 2787 2745 2734 2747 2780 2877 2764 2818 2823 2785 2818 2860 2826 2802 2787 2767 2816 2828 2761 2757 2745 2907 2791 2764 2752 2799 2856 2837 2873 2782 2878 2753 2700 2797 2710 2799 2729 2706 2765 2824 2859 2753 2872 2750 2746 2753 2749 2810 2838 2802 2785 2816 2757 2685 2819 2671 2884 2787 2779 2736 2873 2792 2803 2896 2758 2731 2667 2743 2761 2755 2782 2721 2687 2657 2661 2717 2816 2668 2608 2768 2661 2793 2764 2775 2758 2689 2773 2706 2857 2715 2737 2803 2678 2702 2669 2752 2717 2599 2639 2663 2734 2722 2776 2771 2668 2785 2687 2677 2765 2751 2738 2665 2733 2749 2814 2691 2712 2768 2548 2619 2754 2647 2663 2668 2707 2755 2685 2758 2713 2586 2762 2774 2728 2696 2741 2786 2672 2647 2705 2701 2814 2701 2671 2748 2706 2642 2641 2783 2613 2732 2698 2626 2764 2724 2773 2690 2787 2650 2687 2775 2765 2556 2589 2712 2618 2638 2710 2670 2689 2810 2721 2696 2744 2639 2709 2688 2759 2752 2739 2594 2667 2668 2688 2626 2668 2733 2674 2760 2681 2667 2583 2792 2590 2652 2612 2729 2824 2727 2681 2732 2617 2681 2641 2627 2720 2598 2776 2734 2673 2819 2852 2683 2818 2727 2758 2746 2818 2834 2698 2741 2820 2738 2814 2782 2833 2748 2824 2792 2798 2836 2768 2709 2896 2692 2818 2843 2800 2831 2898 2777 2946 2838 2805 2746 2795 2837 2943 2849 2862 2916 2983 2881 2884 2864 2917 2920 2870 3020 2846 2897 2844 2933 2827 2882 2910 2964 2836 2959 2919 2981 2944 2925 2967 2881 3000 2965 2869 3021 2922 3013 2917 2936 2952 2953 3074 3031 2953 2998 3041 2999 2944 3035 3058 3066 2968 3159 3076 2972 2977 3153 3062 3078 3104 3069 3117 3106 3147 3136 3082 3218 3224 3150 3136 3125 3082 3260 3259 3259 3289 3325 3319 3260 3283 3221 3250 3231 3350 3241 3313 3313 3379 3354 3232 3390 3331 3357 3511 3422 3460 3378 3460 3532 3418 3472 3522 3564 3529 3555 3611 3546 3519 3726 3701 3654 3689 3610 3710 3577 3614 3583 3743 3735 3660 3677 3673 3771 3802 3819 3876 3760 3854 3780 3845 3790 3919 3856 3738 3754 3636 3677 3599 3495 3439 3410 3348 3242 3281 3173 3210 3140 3106 3163 3200 3229 3209 3178 3147 3082 3194 3099 3227 3148 3181 3111 3058 3052 3134 3266 3128 3116 3139 3094 3130 3161 3126 3164 3150 3113 3010 3085 3002 3112 3033 3074 3174 3113 3118 3063 3081 3201 3143 3039 2993 3083 3067 3029 3036 3020 2966 3074 3055 2935 3072 3002 2984 3019 3097 3063 3044 3076 3086 3083 3116 3021 2999 2927 3049 3154 3080 3014 3137 2980 3188 3011 2982 3037 3059 3068 3010 3038 3025 3032 3043 2976 2943 2985 2895 2946 2897 2896 2940 2925 2972 2928 2830 2915 2920 2831 2846 2869 2885 2847 2906 3005 2830 2891 2906 2828 2881 2733 2916 2885 2870 2851 2805 2837 2873 2877 2813 2870 2836 2916 2838 2833 2735 2841 2893 2885 2786 2824 2788 2814 2799 2895 2926 2809 2784 2946 2808 2789 2862 2754 2938 2777 2890 2729 2792 2803 2844 2807 2880 2835 2821 2853 2766 2799 2711 2765 2826 2771 2856 2843 2799 2810 2811 2725 2725 2768 2823 2738 2793 2839 2784 2781 2843 2862 2826 2868 2889 2878 2706 2759 2817 2838 2765 2781 2716 2784 2803 2779 2786 2749 2711 2695 2803 2763 2717 2837 2786 2817 2773 2838 2948 2866 2853 2779 2852 2768 2758 2702 2931 2856 2872 2934 2789 2844 2832 2800 2782 2749 2793 2676 2836 2770 2757 2899 2838 2854 2821 2774 2789 2854 2729 2860 2854 2775 2882 2772 2717 2889 2736 2745 2800 2831 2847 2862 2774 2905 2824 2904 2749 2759 2829 2831 2814 2729 2805 2764 2828 2855 2754 2762 2755 2850 2811 2803 2739 2716 2841 2810 2841 2791 2852 2785 2792 2788 2735 2725 2655 2803 2788 2698 2780 2883 2734 2761 2670 2729 2664 2837 2823 2701 2708 2768 2735 2686 2715 2730 2709 2748 2757 2711 2719 2749 2702 2640 2722 2743 2740 2644 2698 2603 2707 2813 2708 2706 2755 2680 2764 2769 2634 2710 2692 2721 2721 2748 2727 2760 2658 2659 2721 2716 2659 2670 2715 2673 2535 2730 2709 2694 2705 2775 2762 2645 2646 2766 2706 2681 2671 2675 2669 2615 2672 2731 2706 2654 2661 2672 2616 2754 2613 2736 2657 2664 2563 2660 2702 2673 2705 2623 2609 2575 2634 2745 2600 2623 2658 2578 2586 2610 2701 2608 2791 2644 2724 2566 2669 2730 2754 2553 2692 2506 2707 2637 2618 2553 2692 2670 2615 2679 2645 2583 2660 2634 2590 2640 2614 2686 2630 2629 2608 2560 2520 2667 2619 2581 2629 2581 2617 2635 2582 2653 2634 2528 2609 2610 2486 2643 2545 2619 2489 2447 2540 2541 2601 2565 2577 2666 2635 2627 2638 2591 2625 2629 2514 2693 2546 2518 2683 2627 2640 2599 2620 2570 2593 2588 2567 2549 2646 2561 2658 2582 2551 2637 2564 2680 2624 2563 2596 2514 2518 2625 2578 2663 2645 2501 2632 2642 2582 2561 2595 2498 2598 2589 2599 2466 2550 2517 2589 2543 2585 2595 2548 2620 2654 2521 2560 2508 2597 2522 2526 2458 2516 2631 2607 2515 2554 2548 2421 2542 2538 2529 2569 2556 2628 2642 2555 2597 2496 2566 2596 2541 2625 2557 2508 2526 2454 2529 2645 2569 2570 2629 2591 2610 2557 2564 2628 2519 2640 2587 2564 2619 2563 2581 2590 2600 2578 2532 2510 2570 2508 2550 2665 2522 2540 2644 2660 2592 2569 2574 2497 2598 2583 2627 2665 2610 2606 2621 2559 2594 2593 2654 2569 2652 2542 2573 2635 2618 2665 2687 2570 2583 2525 2553 2700 2593 2628 2600 2569 2621 2615 2639 2567 2600 2574 2549 2690 2509 2592 2606 2548 2584 2593 2522 2600 2628 2622 2566 2617 2608 2594 2540 2549 2532 2563 2645 2679 2578 2522 2484 2625 2475 2636 2532 2572 2594 2550 2583 2573 2611 2535 2507 2573 2547 2581 2541 2648 2601 2504 2505 2554 2501 2613 2488 2509 2591 2604 2519 2654 2558 2548 2578 2598 2539 2470 2483 2493 2541 2544 2546 2542 2560 2440 2552 2515 2480 2559 2584 2527 2502 2492 2517 2438 2580 2603 2501 2525 2482 2535 2463 2580 2434 2476 2523 2510 2572 2505 2477 2545 2577 2481 2445 2393 2522 2453 2451 2518 2392 2390 2419 2440 2451 2475 2371 2393 2465 2393 2452 2408 2550 2473 2526 2388 2397 2398 2477 2421 2360 2378 2495 2477 2456 2425 2395 2325 2331 2408 2404 2429 2420 2326 2344 2296 2372 2288 2355 2448 2358 2440 2416 2352 2341 2411 2372 2318 2282 2440 2329 2350 2369 2241 2209 2320 2264 2293 2320 2315 2289 2265 2330 2229 2294 2316 2258 2287 2154 2343 2308 2249 2327 2260 2174 2272 2204 2242 2219 2196 2122 2277 2276 2273 2247 2174 2235 2197 2186 2242 2295 2248 2251 2154 2257 2261 2270 2206 2182 2219 2220 2235 2272 2212 2202 2258 2232 2257 2199 2242 2252 2209 2103 2195 2168 2195 2195 2245 2228 2214 2153 2226 2178 2225 2204 2114 2201 2124 2223 2190 2153 2192 2214 2146 2181 2159 2295 2209 2158 2196 2217 2125 2226 2215 2181 2217 2209 2214 2196 2120 2157 2201 2214 2202 2164 2241 2085 2074 2145 2143 2133 2164 2292 2175 2150 2152 2193 2154 2146 2166 2174 2128 2170 2193 2122 2199 2129 2153 2153 2106 2073 2073 2216 2109 2112 2078 2121 2192 2117 2130 2124 2018 2136 2139 2174 2152 2173 2095 2151 2162 2163 2138 2113 2116 2138 2068 2088 2134 2125 2233 2112 2168 2061 2148 2140 2129 2106 2186 2102 2113 2144 2149 2138 2141 2157 2180 2224 2181 2223 2104 2134 2146 2159 2068 2113 2074 2208 2155 2060 2117 2129 2278 2154 2204 2247 2095 2212 2230 2150 2138 2125 2139 2198 2069 2068 2148 2075 2129 2104 2198 2089 2160 2190 2137 2219 2059 2049 2037 2101 2114 2245 2114 2166 2077 2141 2213 2070 2173 2070 2115 2121 2016 2146 2119 2219 2211 2159 2189 2221 2169 2108 2100 2192 2143 2130 2152 2132 2188 2185 2068 2108 2083 2158 2114 2166 2093 2118 2116 2242 2164 2188 2079 2114 2174 2056 2041 2142 2061 2103 2079 2157 2193 2189 2149 2106 2086 2102 2057 2108 2073 2180 2134 2143 2218 2155 2143 2008 2118 2137 2121 2151 2024 2117 2057 2019 2044 2145 2108 2063 2108 2068 2139 1967 2098 2191 2084 2132 2134 2117 2117 2080 2027 2059 2054 2091 2135 2043 2009 2003 2096 1975 2085 2120 2093 2070 2060 2092 2036 2022 1970 2024 2070 2075 2034 2011 1966 2058 2134 1965 1979 1996 2125 2011 1977 2025 2028 2040 2087 1939 1982 2073 2014 2052 2075 1972 2101 1960 2060 1926 2038 2007 2025 2018 2003 2010 2023 1943 1928 1951 2004 1981 1971 1956 1881 2005 1985 2043 1969 1874 1940 1906 1967 1943 1971 2007 1856 1941 1826 1965 1960 1859 1997 1921 1897 1974 1964 1931 1982 1953 2017 1921 1992 1822 1932 1906 1947 1920 1923 1909 1770 1960 1933 1933 1944 1895 1932 1939 1965 1935 1961 1942 1912 1953 1966 1854 1995 1930 1978 2123 2022 2058 2094 2059 2054 2098 2167 2158 2091 2174 2005 2085 2085 2109 2218 2143 2161 2144 2161 2058 2086 2150 2048 2114 2124 2118 2128 2026 2118 2159 2158 2134 2136 2143 2138 2122 2135 2137 2119 2199 2114 2159 2116 2190 2225 2269 2147 2242 2147 2216 2215 2238 2270 2246 2330 2339 2303 2320 2300 2231 2331 2268 2303 2365 2356 2334 2319 2319 2258 2323 2214 2202 2240 2245 2174 2203 2076 1947 2069 2059 2048 2031 1974 1958 1912 1956 1889 1901 1803 1879 1879 1839 1817 1903 1794 1892 1873 1863 1835 1925 1908 1844 1841 1832 1867 1877 1876 1871 1874 1969 1850 1853 1950 1833 1923 1913 1883 2046 2039 1954 2048 2064 2161 2154 2128 2064 2080 2237 2189 2132 2204 2149 2206 2177 2181 2190 2250 2276 2143 2203 2183 2214 2157 2161 2180 2140 2127 2203 2195 2264 2297 2229 2211 2165 2209 2316 2329 2306 2318 2267 2319 2341 2445 2339 2369 2440 2456 2363 2479 2547 2583 2562 2528 2692 2566 2629 2644 2648 2742 2730 2885 2714 2749 2719 2751 2780 2732 2758 2648 2730 2634 2535 2521 2517 2428 2382 2318 2270 2189 2079 2026 2058 2058 2034 1976 1950 1897 1949 1934 1887 1861 1941 1900 1913 1840 1888 1828 1931 1800 1894 1796 1820 1767 1723 1809 1679 1745 1709 1757 1770 1660 1714 1747 1670 1660 1728 1641 1709 1760 1741 1747 1715 1729 1696 1707 1638 1687 1662 1662 1734 1645 1742 1722 1726 1773 1699 1748 1709 1803 1730 1744 1816 1820 1858 1834 1883 1874 1864 1914 1865 2032 1942 1943 2043 2087 2110 2089 2021 2057 1992 2102 2084 2155 2009 2184 2106 2010 2095 2139 2140 2078 2039 2014 1966 1980 1940 1958 1966 1960 1972 1904 1933 1954 1958 1984 1913 1887 1904 2071 1897 1936 2019 1992 2036 2031 2053 2066 2027 2090 2083 2137 1953 2108 2107 2096 2034 2067 2097 2087 2167 2131 2162 2125 2136 1991 2025 1979 1987 1981 1925 1907 1855 1777 1802 1843 1757 1676 1682 1676 1726 1734 1695 1633 1729 1603 1666 1620 1664 1592 1590 1660 1666 1595 1639 1588 1659 1635 1653 1585 1624 1611 1614 1578 1664 1618 1739 1658 1639 1601 1615 1703 1682 1659 1651 1673 1598 1649 1579 1632 1586 1643 1598 1622 1593 1659 1611 1662 1595 1638 1583 1632 1519 1557 1619 1588 1571 1532 1599 1565 1564 1580 1607 1577 1575 1545 1577 1597 1602 1622 1592 1620 1582 1613 1553 1512 1536 1514 1629 1572 1578 1521 1547 1504 1613 1532 1588 1541 1605 1534 1607 1615 1599 1504 1653 1542 1580 1564 1572 1601 1535 1547 1528 1562 1516 1528 1470 1602 1496 1568 1597 1615 1495 1530 1551 1600 1573 1579 1572 1624 1573 1565 1605 1520 1547 1597 1517 1646 1669 1589 1560 1619 1603 1659 1638 1670 1672 1618 1675 1650 1613 1717 1665 1683 1745 1599 1770 1600 1657 1605 1664 1616 1666 1606 1577 1659 1547 1714 1658 1632 1686 1702 1600 1674 1614 1646 1615 1647 1660 1619 1618 1655 1623 1660 1565 1642 1642 1638 1654 1650 1651 1685 1739 1723 1692 1656 1708 1634 1647 1656 1678 1717 1728 1702 1812 1793 1796 1795 1832 1856 1968 1974 1962 1991 2133 2041 2194 2183 2308 2279 2268 2393 2321 2387 2431 2383 2504 2396 2641 2608 2683 2483 2566 2591 2673 2709 2700 2625 2661 2753 2695 2729 2667 2714 2745 2740 2742 2755 2838 2700 2783 2724 2842 2712 2809 2787 2763 2873 2867 2951 2850 3033 3008 3044 3002 3020 3123 3135 3212 3256 3304 3287 3295 3419 3413 3468 3428 3364 3490 3477 3540 3391 3438 3459 3372 3244 3309 3149 3062 2872 2826 2775 2764 2642 2536 2397 2379 2390 2190 2255 2085 2101 2007 1956 1924 1964 1906 1866 1816 1810 1765 1752 1796 1742 1750 1680 1759 1814 1801 1674 1708 1636 1686 1742 1671 1636 1636 1639 1673 1622 1710 1636 1686 1583 1651 1594 1684 1635 1637 1601 1560 1643 1635 1620 1654 1609 1606 1565 1676 1584 1551 1724 1670 1668 1668 1581 1614 1528 1627 1537 1591 1606 1634 1591 1621 1671 1545 1511 1638 1641 1573 1605 1580 1666 1600 1588 1550 1620 1556 1632 1585 1565 1595 1555 1499 1594 1601 1577 1581 1489 1548 1518 1584 1516 1531 1523 1575 1487 1546 1514 1471 1490 1494 1537 1555 1544 1535 1612 1526 1553 1569 1603 1571 1522 1570 1601 1557 1561 1557 1460 1476 1523 1588 1494 1551 1607 1525 1487 1564 1552 1518 1508 1505 1540 1504 1499 1486 1486 1453 1513 1507 1501 1537 1456 1493 1505 1565 1489 1533 1540 1535 1522 1499 1486 1483 1520 1492 1508 1486 1487 1478 1514 1479 1546 1466 1506 1461 1396 1539 1461 1483 1494 1464 1466 1503 1462 1571 1493 1557 1510 1454 1484 1468 1485 1518 1557 1511 1434 1476 1454 1454 1463 1452 1500 1527 1471 1465 1372 1428 1426 1512 1436 1477 1499 1434 1597 1610 1462 1485 1539 1504 1464 1462 1500 1501 1518 1538 1437 1495 1480 1532 1524 1479 1519 1526 1517 1549 1528 1515 1448 1420 1461 1458 1489 1495 1483 1473 1518 1489 1506 1417 1553 1496 1499 1482 1430 1466 1462 1473 1471 1462 1495 1488 1507 1423 1497 1472 1502 1482 1453 1546 1476 1483 1545 1449 1468 1466 1542 1456 1401 1468 1474 1502 1451 1525 1400 1498 1383 1496 1499 1445 1416 1556 1542 1504 1464 1465 1437 1482 1421 1504 1486 1518 1420 1523 1455 1511 1436 1506 1396 1517 1407 1466 1514 1433 1506 1520 1487 1501 1356 1506 1520 1445 1429 1435 1522 1455 1534 1447 1450 1504 1464 1464 1424 1458 1452 1513 1489 1487 1427 1520 1389 1473 1384 1502 1480 1481 1472 1458 1439 1400 1449 1502 1473 1469 1436 1475 1508 1461 1465 1490 1457 1465 1499 1439 1497 1411 1455 1503 1416 1441 1493 1475 1456 1450 1521 1504 1417 1464 1375 1388 1431 1424 1451 1521 1461 1539 1387 1455 1433 1461 1379 1481 1455 1434 1451 1476 1380 1476 1414 1381 1518 1474 1432 1410 1476 1391 1480 1506 1462 1427 1488 1448 1465 1490 1491 1462 1442 1466 1383 1471 1526 1513 1428 1345 1457 1472 1438 1411 1455 1500 1474 1394 1433 1393 1442 1508 1473 1392 1472 1361 1485 1399 1492 1427 1411 1454 1404 1459 1472 1439 1455 1424 1394 1400 1400 1464 1499 1498 1466 1400 1486 1469 1477 1484 1484 1397 1477 1382 1430 1416 1439 1419 1437 1507 1487 1467 1425 1462 1468 1494 1442 1531 1451 1438 1433 1457 1488 1493 1412 1460 1523 1416 1434 1449 1445 1374 1523 1463 1546 1391 1443 1509 1499 1577 1544 1467 1505 1541 1592 1666 1655 1605 1567 1612 1669 1611 1707 1648 1672 1756 1750 1712 1724 1777 1737 1814 1717 1730 1840 1791 1755 1700 1757 1704 1722 1624 1716 1743 1694 1737 1674 1633 1648 1656 1612 1680 1604 1623 1551 1633 1631 1626 1544 1563 1638 1649 1647 1648 1653 1598 1620 1681 1589 1629 1533 1605 1676 1722 1670 1706 1589 1665 1782 1696 1650 1718 1674 1713 1667 1694 1644 1580 1617 1635 1511 1597 1503 1485 1550 1511 1439 1562 1416 1440 1479 1475 1439 1472 1435 1493 1468 1419 1413 1442 1441 1499 1424 1461 1375 1415 1380 1426 1413 1407 1399 1397 1430 1379 1398 1405 1410 1465 1445 1442 1449 1532 1394 1437 1396 1426 1377 1415 1397 1445 1382 1463 1407 1467 1473 1482 1477 1410 1426 1365 1370 1417 1422 1486 1408 1460 1396 1431 1473 1484 1418 1440 1395 1446 1476 1412 1415 1439 1420 1384 1417 1434 1402 1420 1385 1449 1451 1502 1414 1494 1493 1457 1457 1397 1467 1476 1454 1415 1489 1496 1515 1435 1494 1544 1442 1521 1450 1449 1427 1521 1465 1552 1464 1479 1427 1423 1454 1598 1491 1497 1524 1430 1466 1476 1423 1452 1519 1445 1385 1518 1513 1496 1446 1422 1448 1452 1380 1438 1404 1470 1476 1482 1485 1504 1589 1540 1491 1438 1526 1404 1538 1452 1457 1525 1474 1512 1517 1450 1421 1471 1477 1514 1578 1536 1418 1448 1435 1475 1472 1484 1426 1428 1419 1490 1386 1407 1397 1411 1427 1454 1451 1407 1436 1414 1422 1456 1489 1472 1471 1385 1406 1426 1446 1410 1491 1366 1466 1508 1459 1468 1461 1437 1381 1416 1430 1433 1410 1445 1391 1500 1442 1422 1440 1445 1511 1502 1492 1455 1382 1429 1434 1473 1385 1481 1422 1458 1491 1410 1441 1496 1463 1421 1446 1431 1473 1455 1485 1428 1402 1463 1437 1384 1507 1490 1455 1482 1472 1456 1434 1419 1441 1454 1436 1369 1411 1424 1509 1423 1453 1524 1475 1477 1465 1522 1454 1464 1463 1437 1433 1413 1381 1463 1422 1490 1478 1495 1390 1423 1461 1464 1422 1497 1432 1486 1470 1435 1495 1411 1403 1430 1472 1413 1320 1440 1469 1493 1424 1437 1494 1465 1431 1446 1441 1446 1382 1432 1404 1451 1444 1407 1388 1403 1432 1429 1402 1381 1415 1305 1373 1479 1397 1414 1428 1423 1435 1476 1390 1389 1464 1444 1458 1448 1443 1524 1488 1546 1544 1507 1548 1510 1566 1511 1560 1685 1584 1571 1601 1588 1610 1641 1575 1579 1724 1616 1624 1666 1658 1673 1727 1632 1733 1625 1637 1683 1606 1611 1589 1625 1603 1686 1615 1632 1678 1592 1655 1649 1668 1691 1689 1645 1644 1647 1675 1621 1721 1699 1586 1712 1683 1664 1764 1685 1716 1748 1729 1689 1603 1737 1684 1666 1716 1667 1782 1571 1622 1606 1568 1695 1577 1715 1583 1585 1612 1557 1489 1637 1558 1524 1451 1563 1544 1484 1500 1357 1519 1463 1460 1439 1518 1424 1408 1462 1442 1421 1373 1466 1403 1475 1360 1456 1437 1422 1428 1499 1346 1414 1424 1411 1415 1375 1369 1375 1460 1386 1427 1365 1401 1443 1360 1390 1470 1437 1318 1424 1460 1462 1453 1419 1400 1429 1366 1332 1420 1373 1360 1409 1421 1363 1433 1400 1405 1373 1433 1435 1317 1501 1383 1349 1384 1428 1418 1409 1400 1367 1400 1365 1404 1385 1421 1385 1426 1415 1405 1377 1326 1402 1400 1360 1363 1363 1440 1367 1405 1401 1376 1411 1406 1414 1439 1425 1446 1448 1420 1417 1350 1431 1399 1307 1414 1354 1400 1389 1436 1473 1369 1415 1381 1397 1369 1417 1438 1395 1445 1336 1425 1428 1434 1389 1355 1418 1395 1367 1351 1448 1422 1349 1404 1412 1466 1355 1409 1342 1421 1373 1407 1398 1369 1389 1390 1448 1328 1364 1356 1322 1386 1339 1377 1347 1429 1471 1393 1417 1371 1359 1366 1389 1378 1381 1395 1424 1386 1397 1440 1478 1391 1440 1396 1387 1430 1424 1328 1492 1476 1417 1413 1398 1421 1411 1397 1423 1417 1531 1354 1372 1488 1463 1478 1360 1386 1458 1463 1407 1498 1350 1444 1429 1444 1476 1393 1450 1343 1467 1485 1422 1460 1400 1457 1478 1398 1500 1440 1483 1512 1425 1520 1483 1495 1478 1493 1496 1497 1537 1517 1569 1558 1640 1621 1629 1523 1619 1626 1547 1633 1622 1588 1615 1668 1642 1651 1698 1670 1710 1724 1572 1668 1674 1680 1667 1632 1632 1586 1670 1638 1627 1605 1570 1627 1608 1596 1578 1474 1544 1522 1576 1646 1563 1615 1572 1554 1538 1578 1514 1499 1518 1552 1560 1615 1521 1621 1540 1621 1575 1626 1639 1550 1581 1677 1592 1631 1639 1658 1636 1721 1695 1711 1733 1774 1763 1826 1858 1875 1886 1937 1972 2039 2077 2117 2129 2186 2179 2242 2247 2382 2417 2505 2563 2597 2720 2629 2745 2664 2642 2584 2555 2597 2605 2603 2643 2574 2599 2528 2533 2505 2524 2556 2433 2449 2489 2435 2453 2414 2281 2451 2363 2506 2427 2478 2565 2419 2586 2470 2511 2500 2503 2542 2645 2626 2604 2615 2671 2732 2657 2601 2705 2623 2634 2580 2639 2593 2519 2526 2485 2427 2308 2444 2267 2241 2188 2102 2160 1986 2065 1872 1891 1883 1746 1799 1715 1778 1706 1720 1653 1613 1669 1597 1582 1596 1593 1511 1567 1532 1541 1589 1528 1531 1535 1488 1480 1468 1552 1564 1458 1490 1522 1483 1468 1504 1441 1447 1463 1500 1406 1553 1386 1438 1447 1353 1427 1476 1467 1404 1441 1411 1448 1500 1455 1450 1367 1389 1407 1409 1412 1410 1404 1501 1430 1466 1423 1486 1360 1460 1358 1412 1403 1364 1467 1427 1403 1385 1384 1441 1434 1432 1399 1457 1466 1465 1398 1410 1439 1397 1313 1408 1422 1338 1361 1427 1419 1454 1394 1474 1408 1473 1474 1406 1411 1361 1342 1415 1432 1365 1344 1423 1405 1407 1414 1367 1369 1319 1402 1395 1374 1366 1359 1381 1413 1345 1409 1420 1474 1344 1395 1408 1307 1363 1397 1325 1418 1437 1450 1464 1393 1397 1460 1430 1414 1538 1437 1459 1430 1430 1514 1440 1429 1450 1416 1423 1403 1428 1487 1430 1449 1441 1519 1515 1384 1487 1476 1471 1462 1489 1497 1479 1403 1512 1506 1493 1462 1556 1580 1477 1480 1472 1405 1462 1464 1522 1476 1489 1472 1438 1530 1474 1536 1537 1537 1504 1518 1386 1565 1500 1511 1519 1480 1459 1484 1462 1479 1500 1537 1462 1584 1507 1590 1567 1515 1427 1454 1400 1412 1449 1410 1484 1455 1454 1427 1453 1440 1549 1392 1447 1465 1429 1388 1405 1357 1459 1359 1412 1455 1423 1339 1449 1428 1368 1413 1419 1386 1455 1349 1368 1435 1419 1438 1411 1471 1388 1374 1423 1370 1412 1393 1338 1436 1464 1355 1392 1366 1369 1451 1424 1440 1420 1449 1391 1400 1401 1444 1403 1441 1431 1404 1455 1438 1468 1444 1505 1412 1471 1387 1421 1436 1416 1489 1515 1500 1399 1460 1475 1441 1502 1527 1487 1477 1483 1482 1489 1436 1480 1456 1485 1457 1339 1440 1419 1486 1366 1410 1444 1421 1422 1408 1364 1341 1342 1390 1396 1460 1425 1380 1390 1312 1437 1351 1449 1380 1326 1412 1374 1407 1427 1432 1444 1398 1390 1407 1401 1352 1383 1389 1320 1475 1373 1343 1397 1313 1413 1389 1343 1382 1432 1390 1393 1398 1385 1350 1325 1359 1322 1320 1388 1363 1358 1407 1375 1411 1354 1315 1339 1290 1430 1336 1369 1412 1327 1333 1321 1288 1317 1354 1333 1393 1324 1362 1365 1321 1337 1387 1312 1397 1371 1320 1311 1391 1421 1311 1396 1275 1425 1363 1335 1318 1299 1295 1354 1363 1364 1270 1345 1378 1362 1350 1355 1261 1303 1339 1327 1275 1348 1325 1411 1351 1335 1373 1398 1381 1328 1311 1284 1379 1372 1276 1349 1308 1351 1271 1291 1294 1386 1352 1326 1327 1325 1348 1293 1330 1345 1297 1374 1319 1346 1339 1279 1327 1408 1400 1288 1280 1348 1244 1416 1378 1324 1319 1319 1288 1408 1400 1337 1327 1338 1276 1376 1274 1320 1405 1354 1438 1353 1316 1337 1277 1294 1360 1339 1272 1328 1370 1362 1294 1269 1328 1244 1245 1393 1372 1316 1366 1342 1354 1323 1341 1267 1391 1302 1321 1365 1308 1408 1291 1345 1341 1346 1292 1381 1374 1411 1338 1337 1359 1262 1345 1340 1286 1348 1378 1300 1309 1347 1360 1332 1338 1327 1361 1328 1313 1343 1380 1385 1382 1339 1334 1357 1280 1334 1310 1299 1255 1273 1239 1370 1300 1387 1373 1349 1353 1393 1365 1349 1336 1337 1412 1324 1353 1344 1268 1227 1335 1336 1343 1341 1366 1343 1337 1344 1307 1338 1281 1457 1393 1381 1377 1305 1336 1357 1376 1353 1283 1395 1313 1280 1340 1353 1342 1327 1347 1357 1328 1363 1288 1356 1348 1243 1348 1356 1380 1360 1263 1301 1345 1337 1402 1360 1333 1297 1398 1299 1299 1365 1301 1341 1428 1268 1307 1344 1300 1329 1335 1332 1366 1368 1343 1425 1357 1354 1289 1360 1310 1355 1321 1352 1303 1300 1310 1364 1390 1352 1404 1270 1348 1328 1320 1263 1319 1309 1382 1317 1303 1338 1382 1318 1412 1349 1382 1336 1386 1310 1294 1343 1367 1371 1369 1385 1285 1273 1325 1344 1308 1333 1422 1381 1285 1311 1385 1390 1359 1340 1389 1362 1269 1328 1314 1438 1328 1373 1356 1351 1364 1382 1319 1373 1343 1352 1407 1390 1406 1414 1451 1475 1403 1398 1329 1306 1362 1358 1361 1357 1379 1394 1361 1379 1367 1314 1377 1453 1410 1458 1299 1363 1343 1423 1358 1392 1302 1353 1380 1397 1400 1393 1428 1421 1389 1366 1346 1379 1364 1382 1403 1342 1372 1406 1370 1407 1378 1391 1311 1386 1424 1434 1340 1462 1351 1402 1432 1402 1401 1461 1392 1446 1338 1354 1401 1437 1502 1415 1413 1451 1540 1474 1438 1586 1494 1516 1476 1435 1466 1469 1498 1456 1571 1554 1499 1563 1520 1536 1484 1572 1534 1570 1608 1515 1558 1517 1539 1509 1603 1462 1536 1585 1481 1527 1536 1504 1522 1497 1518 1527 1529 1526 1512 1468 1522 1562 1471 1587 1482 1536 1464 1572 1484 1551 1509 1500 1515 1505 1595 1488 1503 1611 1481 1505 1497 1518 1476 1493 1491 1489 1408 1509 1451 1509 1421 1419 1440 1452 1537 1450 1413 1488 1401 1430 1419 1428 1337 1418 1393 1360 1375 1389 1368 1417 1407 1408 1381 1387 1431 1375 1405 1406 1431 1371 1363 1288 1400 1464 1436 1322 1345 1324 1364 1371 1348 1391 1398 1429 1370 1442 1362 1322 1376 1323 1316 1336 1381 1287 1271 1348 1324 1409 1421 1316 1406 1341 1384 1357 1357 1321 1367 1321 1349 1304 1329 1388 1315 1347 1394 1320 1373 1315 1314 1330 1301 1372 1324 1310 1420 1347 1334 1319 1299 1390 1336 1397 1367 1358 1327 1287 1334 1372 1330 1360 1367 1356 1372 1318 1337 1288 1286 1347 1397 1313 1323 1302 1306 1364 1307 1294 1285 1337 1188 1327 1325 1285 1361 1315 1296 1396 1348 1313 1364 1334 1384 1312 1335 1275 1296 1348 1304 1409 1392 1364 1396 1320 1354 1337 1342 1337 1275 1361 1365 1350 1407 1313 1377 1286 1393 1348 1319 1402 1352 1436 1323 1361 1381 1315 1339 1344 1330 1374 1319 1332 1298 1359 1361 1368 1394 1389 1381 1407 1398 1342 1418 1456 1439 1449 1480 1386 1541 1437 1443 1467 1524 1489 1460 1492 1613 1510 1539 1595 1516 1560 1534 1640 1620 1592 1620 1589 1606 1614 1612 1583 1652 1604 1645 1608 1620 1544 1580 1596 1619 1582 1605 1630 1627 1593 1635 1636 1652 1601 1548 1615 1623 1627 1599 1634 1647 1664 1635 1644 1605 1603 1658 1618 1641 1669 1600 1618 1633 1653 1570 1570 1522 1671 1541 1586 1532 1535 1564 1536 1582 1572 1552 1531 1491 1431 1444 1497 1432 1533 1409 1414 1436 1480 1473 1467 1415 1469 1399 1342 1354 1375 1386 1334 1431 1453 1473 1374 1380 1399 1364 1324 1389 1355 1412 1358 1351 1322 1264 1237 1394 1323 1395 1364 1347 1301 1411 1295 1313 1284 1369 1286 1352 1366 1352 1381 1367 1306 1349 1329 1304 1355 1345 1333 1417 1323 1328 1292 1352 1223 1291 1340 1293 1331 1358 1331 1357 1284 1311 1366 1348 1325 1362 1352 1359 1290 1339 1319 1367 1341 1277 1340 1305 1306 1361 1308 1346 1276 1325 1400 1351 1323 1296 1317 1368 1264 1292 1288 1353 1320 1344 1324 1297 1311 1347 1430 1306 1343 1428 1332 1389 1296 1358 1373 1370 1402 1397 1377 1371 1315 1379 1357 1432 1345 1330 1454 1415 1384 1377 1430 1359 1396 1378 1327 1450 1412 1445 1356 1404 1363 1413 1413 1420 1379 1349 1365 1354 1449 1324 1331 1471 1405 1359 1371 1369 1382 1426 1457 1446 1396 1317 1344 1327 1330 1437 1355 1364 1387 1324 1385 1425 1422 1427 1285 1360 1357 1351 1292 1314 1331 1307 1329 1346 1358 1355 1353 1334 1349 1338 1429 1303 1314 1329 1344 1347 1358 1349 1295 1314 1291 1281 1325 1376 1300 1353 1285 1279 1350 1313 1303 1283 1331 1342 1323 1365 1275 1376 1318 1324 1264 1285 1219 1325 1291 1309 1316 1298 1289 1346 1312 1318 1291 1393 1331 1304 1287 1233 1280 1307 1293 1297 1310 1256 1290 1321 1264 1344 1356 1302 1315 1333 1360 1334 1384 1391 1356 1339 1320 1390 1318 1322 1378 1396 1374 1354 1357 1369 1390 1354 1346 1350 1334 1426 1368 1356 1382 1390 1351 1343 1368 1308 1391 1420 1369 1357 1347 1383 1391 1392 1351 1368 1298 1355 1334 1279 1410 1409 1346 1341 1372 1382 1339 1328 1347 1288 1341 1385 1285 1283 1329 1309 1419 1317 1283 1364 1334 1311 1363 1340 1307 1351 1329 1358 1271 1321 1299 1352 1286 1369 1291 1347 1300 1378 1296 1315 1275 1273 1243 1346 1290 1300 1204 1286 1270 1225 1250 1242 1303 1299 1273 1348 1310 1381 1319 1309 1323 1295 1319 1326 1251 1335 1268 1268 1300 1264 1310 1310 1305 1277 1332 1234 1283 1291 1261 1304 1260 1323 1243 1255 1288 1303 1327 1335 1313 1309 1343 1277 1292 1338 1278 1324 1268 1261 1362 1260 1288 1337 1285 1194 1397 1311 1364 1284 1269 1308 1291 1368 1356 1278 1279 1329 1294 1347 1261 1259 1305 1320 1343 1327 1292 1346 1264 1318 1350 1285 1422 1275 1276 1325 1355 1283 1247 1316 1255 1261 1314 1336 1373 1310 1338 1310 1283 1271 1292 1365 1363 1328 1307 1314 1303 1248 1326 1321 1241 1267 1293 1379 1383 1329 1312 1296 1317 1279 1324 1263 1280 1348 1417 1365 1310 1318 1322 1293 1342 1326 1297 1335 1296 1299 1344 1312 1283 1342 1341 1354 1386 1377 1345 1353 1282 1343 1305 1360 1385 1277 1312 1269 1338 1333 1381 1332 1367 1324 1312 1321 1281 1327 1320 1358 1375 1306 1350 1353 1334 1352 1288 1336 1292 1346 1349 1320 1319 1260 1284 1331 1262 1330 1376 1325 1360 1295 1389 1294 1332 1306 1294 1316 1287 1276 1337 1269 1269 1408 1282 1295 1320 1325 1257 1296 1299 1304 1284 1332 1269 1275 1333 1341 1273 1342 1322 1350 1367 1262 1221 1258 1292 1356 1242 1302 1298 1309 1306 1368 1273 1304 1289 1263 1311 1360 1259 1301 1259 1269 1219 1322 1314 1310 1341 1325 1377 1307 1270 1314 1311 1269 1348 1266 1291 1341 1264 1298 1333 1278 1311 1266 1374 1280 1365 1308 1298 1254 1341 1273 1292 1226 1284 1341 1330 1380 1380 1311 1365 1235 1338 1290 1356 1343 1318 1370 1401 1260 1331 1404 1305 1344 1383 1358 1316 1282 1356 1383 1339 1348 1362 1396 1327 1428 1305 1361 1393 1408 1327 1347 1317 1349 1286 1348 1340 1363 1357 1358 1347 1429 1278 1343 1336 1366 1319 1364 1353 1326 1351 1318 1394 1345 1394 1311 1257 1330 1381 1316 1310 1358 1318 1260 1297 1365 1353 1329 1411 1235 1328 1294 1200 1314 1303 1360 1388 1335 1331 1294 1294 1338 1270 1306 1277 1307 1297 1332 1330 1296 1361 1344 1367 1367 1337 1251 1327 1231 1261 1301 1246 1208 1285 1277 1236 1210 1319 1262 1242 1270 1298 1300 1252 1340 1303 1285 1241 1249 1280 1325 1294 1252 1255 1240 1352 1290 1310 1348 1321 1274 1249 1314 1318 1277 1333 1287 1294 1248 1292 1265 1327 1284 1355 1299 1343 1296 1291 1316 1222 1350 1249 1294 1352 1364 1343 1227 1288 1315 1195 1308 1257 1286 1378 1377 1365 1322 1310 1291 1326 1328 1268 1254 1263 1300 1315 1263 1316 1374 1269 1324 1348 1294 1295 1324 1347 1240 1362 1293 1329 1272 1302 1277 1274 1323 1257 1254 1242 1351 1329 1260 1318 1248 1287 1242 1278 1266 1322 1264 1342 1306 1277 1334 1289 1278 1237 1328 1324 1251 1295 1277 1264 1290 1329 1327 1245 1291 1300 1323 1302 1236 1270 1249 1295 1264 1345 1272 1257 1330 1327 1263 1236 1244 1200 1347 1301 1368 1266 1263 1191 1276 1266 1268 1356 1284 1335 1248 1296 1354 1254 1304 1301 1267 1282 1289 1297 1326 1232 1269 1340 1303 1349 1251 1230 1303 1247 1301 1302 1289 1301 1279 1367 1337 1270 1287 1321 1333 1255 1401 1334 1363 1236 1394 1322 1339 1363 1306 1345 1307 1283 1303 1342 1344 1411 1401 1373 1336 1417 1298 1380 1388 1424 1418 1403 1382 1425 1372 1446 1413 1411 1356 1337 1337 1401 1420 1482 1355 1443 1404 1445 1380 1414 1450 1391 1509 1358 1452 1475 1407 1487 1381 1447 1436 1399 1437 1376 1344 1457 1451 1454 1427 1404 1416 1456 1369 1450 1400 1443 1353 1481 1467 1392 1413 1374 1343 1426 1358 1299 1382 1363 1331 1387 1364 1366 1331 1333 1345 1349 1356 1442 1344 1367 1425 1370 1370 1380 1356 1382 1319 1372 1311 1372 1388 1289 1309 1292 1321 1350 1287 1337 1272 1388 1337 1364 1395 1336 1293 1329 1282 1302 1381 1340 1268 1278 1274 1377 1289 1372 1338 1287 1418 1355 1322 1289 1295 1261 1298 1328 1288 1342 1291 1334 1362 1270 1308 1346 1298 1346 1314 1382 1269 1323 1242 1280 1285 1238 1323 1322 1318 1283 1364 1353 1309 1318 1355 1312 1333 1311 1286 1330 1309 1327 1276 1253 1256 1235 1346 1256 1259 1305 1287 1317 1263 1361 1245 1358 1336 1328 1320 1317 1298 1314 1240 1300 1300 1350 1279 1312 1309 1267 1310 1295 1305 1311 1338 1332 1366 1277 1294 1303 1316 1280 1324 1271 1262 1354 1309 1271 1332 1376 1326 1261 1319 1214 1238 1305 1328 1298 1366 1327 1296 1307 1319 1319 1314 1296 1331 1325 1238 1346 1300 1234 1336 1320 1298 1233 1297 1312 1304 1276 1290 1307 1251 1295 1295 1286 1322 1248 1416 1271 1295 1367 1343 1362 1332 1412 1318 1345 1240 1329 1328 1306 1337 1339 1209 1303 1300 1385 1299 1342 1317 1299 1374 1334 1264 1377 1346 1325 1279 1313 1349 1339 1270 1246 1330 1302 1363 1299 1284 1323 1303 1375 1290 1298 1313 1275 1330 1369 1308 1320 1285 1276 1326 1285 1302 1328 1266 1330 1302 1304 1364 1323 1230 1342 1288 1255 1332 1315 1246 1363 1302 1308 1262 1326 1339 1277 1358 1274 1373 1298 1323 1299 1318 1278 1335 1311 1350 1341 1260 1270 1247 1313 1319 1317 1336 1275 1302 1306 1252 1322 1312 1224 1298 1319 1261 1307 1231 1306 1312 1330 1310 1312 1402 1314 1283 1227 1277 1272 1281 1293 1328 1310 1277 1357 1235 1385 1322 1290 1286 1247 1246 1332 1297 1258 1304 1340 1271 1265 1249 1286 1243 1291 1247 1305 1203 1332 1356 1266 1399 1310 1270 1273 1217 1262 1307 1315 1346 1359 1290 1340 1287 1242 1252 1253 1266 1249 1305 1274 1334 1268 1284 1279 1322 1317 1312 1290 1290 1346 1336 1262 1342 1305 1270 1266 1225 1317 1357 1316 1294 1324 1282 1303 1236 1310 1349 1286 1270 1277 1232 1363 1357 1242 1340 1364 1327 1373 1304 1280 1314 1280 1389 1248 1302 1324 1298 1272 1320 1291 1334 1302 1255 1326 1251 1299 1279 1372 1250 1296 1350 1310 1279 1317 1373 1324 1324 1264 1294 1254 1286 1294 1337 1284 1364 1290 1313 1278 1311 1302 1356 1312 1318 1296 1296 1255 1336 1273 1350 1271 1334 1367 1257 1282 1307 1326 1306 1312 1269 1329 1316 1268 1371 1335 1299 1190 1306 1286 1342 1385 1352 1292 1293 1311 1296 1319 1260 1250 1285 1274 1245 1264 1283 1341 1333 1278 1274 1302 1300 1268 1279 1295 1315 1365 1352 1360 1279 1300 1338 1286 1337 1310 1302 1406 1339 1366 1307 1343 1273 1296 1231 1307 1254 1362 1287 1307 1338 1286 1326 1297 1313 1312 1354 1327 1300 1287 1358 1232 1297 1274 1257 1307 1350 1305 1276 1348 1252 1276 1265 1333 1298 1277 1344 1317 1299 1261 1270 1301 1294 1326 1315 1307 1223 1330 1312 1303 1327 1363 1331 1323 1368 1258 1352 1319 1269 1309 1302 1345 1357 1331 1313 1331 1297 1327 1246 1311 1353 1382 1281 1352 1304 1329 1301 1265 1325 1275 1281 1326 1296 1324 1406 1310 1344 1381 1261 1316 1268 1314 1328 1341 1360 1343 1284 1278 1306 1343 1334 1349 1301 1363 1372 1396 1362 1414 1401 1328 1395 1319 1339 1363 1331 1372 1397 1366 1386 1383 1418 1405 1388 1389 1381 1449 1412 1417 1407 1451 1453 1418 1477 1420 1396 1436 1474 1377 1386 1376 1408 1389 1406 1488 1429 1428 1409 1360 1391 1390 1463 1370 1409 1398 1394 1436 1408 1422 1361 1434 1462 1468 1375 1334 1404 1419 1348 1370 1416 1416 1363 1386 1385 1427 1426 1432 1381 1436 1288 1330 1348 1381 1381 1396 1354 1308 1331 1348 1344 1337 1419 1425 1356 1285 1390 1298 1325 1367 1336 1348 1321 1376 1409 1327 1399 1353 1352 1352 1445 1381 1380 1337 1321 1308 1334 1277 1355 1352 1300 1376 1317 1399 1375 1243 1286 1336 1374 1370 1317 1339 1357 1327 1344 1290 1317 1280 1279 1276 1346 1336 1355 1432 1396 1386 1273 1353 1327 1333 1355 1341 1307 1342 1348 1334 1369 1326 1261 1332 1326 1469 1344 1325 1303 1431 1404 1371 1323 1379 1309 1381 1355 1391 1358 1310 1304 1379 1324 1352 1427 1404 1378 1329 1285 1362 1385 1364 1360 1373 1399 1377 1391 1315 1376 1346 1360 1322 1352 1302 1424 1339 1421 1448 1363 1411 1335 1423 1391 1393 1356 1381 1460 1417 1348 1336 1347 1378 1479 1381 1329 1411 1340 1353 1424 1352 1378 1442 1375 1407 1355 1398 1350 1396 1350 1297 1391 1347 1368 1315 1302 1335 1376 1317 1338 1295 1363 1354 1325 1350 1300 1403 1297 1361 1382 1356 1303 1349 1334 1367 1376 1375 1366 1362 1289 1324 1300 1335 1346 1317 1323 1366 1308 1352 1347 1387 1285 1363 1345 1413 1349 1390 1424 1371 1388 1352 1431 1404 1392 1406 1572 1422 1426 1498 1450 1488 1391 1484 1475 1542 1399 1529 1486 1462 1529 1535 1483 1559 1515 1589 1546 1547 1595 1601 1566 1600 1653 1615 1581 1565 1633 1585 1560 1580 1685 1677 1561 1541 1649 1473 1616 1580 1515 1561 1556 1573 1518 1647 1509 1566 1578 1528 1664 1664 1499 1520 1483 1498 1524 1507 1558 1512 1439 1561 1471 1507 1521 1456 1490 1464 1528 1421 1481 1441 1420 1377 1392 1489 1487 1422 1386 1421 1354 1421 1439 1374 1374 1414 1485 1325 1380 1356 1359 1337 1440 1399 1428 1335 1316 1420 1356 1343 1386 1375 1308 1336 1395 1373 1406 1359 1425 1310 1382 1338 1328 1321 1363 1440 1379 1285 1281 1272 1385 1259 1312 1312 1326 1328 1345 1405 1395 1354 1297 1346 1279 1392 1344 1300 1366 1310 1324 1316 1339 1325 1267 1383 1318 1272 1347 1338 1288 1292 1342 1344 1358 1307 1347 1382 1364 1298 1363 1367 1275 1326 1424 1268 1370 1326 1270 1405 1330 1297 1365 1306 1312 1318 1367 1337 1360 1320 1372 1343 1288 1329 1377 1347 1358 1348 1311 1320 1344 1311 1365 1300 1309 1259 1299 1322 1270 1320 1390 1365 1340 1280 1357 1292 1418 1342 1303 1354 1369 1373 1282 1333 1295 1363 1325 1379 1308 1333 1305 1334 1350 1298 1333 1408 1322 1302 1283 1380 1402 1311 1373 1382 1357 1358 1355 1399 1300 1358 1368 1383 1349 1325 1379 1392 1324 1393 1373 1422 1393 1384 1399 1455 1338 1311 1376 1353 1488 1292 1373 1375 1395 1326 1427 1359 1382 1319 1383 1390 1224 1316 1343 1434 1340 1451 1336 1358 1429 1378 1327 1294 1336 1381 1350 1404 1394 1389 1350 1303 1422 1338 1326 1363 1368 1367 1387 1372 1338 1319 1297 1300 1327 1359 1320 1275 1341 1253 1331 1318 1317 1336 1327 1322 1318 1289 1308 1330 1329 1290 1344 1277 1294 1310 1291 1292 1285 1334 1328 1306 1324 1338 1309 1289 1313 1341 1318 1360 1258 1305 1304 1367 1308 1299 1316 1253 1346 1319 1303 1327 1329 1255 1343 1263 1301 1247 1338 1289 1353 1350 1325 1298 1362 1277 1292 1222 1347 1317 1332 1298 1366 1322 1386 1318 1320 1249 1318 1352 1366 1295 1307 1290 1325 1346 1268 1329 1249 1324 1363 1295 1359 1289 1343 1299 1332 1256 1190 1304 1322 1332 1240 1275 1302 1363 1370 1330 1362 1377 1260 1331 1313 1320 1360 1342 1305 1364 1240 1295 1259 1248 1373 1335 1297 1309 1251 1314 1330 1340 1315 1350 1331 1339 1305 1316 1212 1330 1375 1302 1302 1275 1325 1322 1273 1389 1313 1268 1369 1353 1313 1265 1329 1309 1312 1338 1358 1322 1308 1326 1290 1347 1346 1219 1304 1282 1295 1385 1328 1294 1280 1247 1296 1245 1259 1258 1329 1288 1317 1315 1296 1313 1229 1326 1347 1289 1342 1312 1317 1266 1315 1384 1353 1324 1314 1305 1301 1323 1303 1347 1273 1293 1332 1394 1278 1353 1290 1337 1258 1300 1338 1284 1367 1300 1357 1311 1294 1294 1295 1342 1325 1274 1322 1291 1256 1346 1316 1336 1256 1278 1329 1326 1315 1362 1328 1371 1324 1261 1293 1268 1287 1310 1274 1294 1286 1248 1296 1373 1322 1355 1292 1272 1313 1294 1319 1352 1308 1386 1300 1340 1283 1322 1308 1289 1300 1301 1332 1325 1327 1274 1294 1292 1340 1349 1348 1375 1351 1306 1341 1279 1315 1308 1259 1344 1275 1382 1271 1332 1274 1245 1300 1319 1314 1299 1294 1297 1316 1362 1288 1347 1351 1353 1332 1287 1307 1287 1283 1382 1314 1332 1295 1259 1296 1332 1353 1294 1407 1373 1324 1303 1329 1339 1321 1277 1276 1347 1346 1403 1341 1304 1317 1325 1372 1381 1316 1304 1341 1362 1378 1378 1394 1315 1296 1314 1357 1317 1398 1303 1336 1365 1363 1291 1351 1399 1306 1363 1327 1367 1307 1360 1341 1334 1369 1342 1335 1357 1412 1382 1347 1313 1383 1376 1324 1304 1396 1430 1375 1359 1402 1301 1336 1361 1357 1266 1345 1366 1386 1353 1380 1382 1371 1385 1422 1397 1322 1402 1343 1388 1333 1353 1368 1416 1335 1283 1350 1349 1323 1370 1318 1250 1394 1366 1328 1305 1301 1289 1322 1377 1297 1286 1312 1347 1344 1311 1342 1269 1379 1323 1323 1253 1348 1322 1312 1324 1389 1274 1405 1291 1272 1317 1335 1311 1333 1370 1387 1399 1349 1286 1308 1357 1344 1272 1378 1323 1314 1325 1330 1308 1283 1350 1374 1310 1284 1321 1287 1426 1300 1311 1337 1357 1309 1371 1338 1386 1346 1379 1335 1324 1374 1360 1334 1409 1347 1336 1273 1372 1314 1307 1291 1318 1321 1327 1338 1339 1338 1280 1313 1372 1362 1270 1307 1343 1338 1332 1284 1395 1298 1331 1334 1315 1338 1410 1306 1275 1362 1337 1309 1333 1325 1288 1252 1364 1360 1302 1412 1364 1302 1307 1308 1348 1281 1317 1308 1312 1337 1277 1269 1309 1308 1330 1371 1276 1278 1297 1306 1341 1307 1347 1274 1350 1367 1353 1319 1300 1294 1259 1348 1357 1288 1264 1374 1305 1283 1387 1381 1344 1320 1354 1305 1302 1369 1318 1272 1312 1292 1297 1288 1290 1326 1261 1323 1324 1325 1281 1367 1286 1286 1293 1298 1288 1283 1300 1272 1299 1320 1344 1312 1296 1298 1300 1291 1341 1348 1366 1347 1300 1362 1353 1365 1383 1323 1338 1345 1338 1400 1348 1371 1339 1462 1367 1368 1402 1424 1422 1402 1457 1422 1405 1449 1459 1419 1393 1458 1471 1491 1439 1503 1513 1516 1492 1494 1448 1479 1499 1478 1579 1583 1586 1592 1489 1543 1598 1603 1604 1675 1679 1631 1667 1647 1714 1674 1808 1756 1820 1712 1807 1762 1758 1771 1618 1660 1597 1621 1595 1642 1606 1588 1619 1492 1604 1565 1551 1586 1601 1623 1640 1619 1591 1625 1567 1627 1616 1614 1583 1575 1623 1549 1587 1523 1488 1428 1459 1489 1430 1448 1440 1401 1364 1451 1437 1468 1350 1455 1425 1372 1434 1493 1373 1408 1444 1384 1352 1350 1354 1419 1385 1412 1405 1390 1414 1418 1370 1387 1374 1315 1393 1386 1358 1385 1358 1319 1365 1311 1368 1341 1379 1331 1359 1356 1409 1363 1426 1321 1351 1393 1380 1388 1409 1434 1321 1305 1347 1374 1369 1374 1364 1356 1319 1347 1360 1331 1317 1347 1428 1367 1351 1402 1344 1321 1365 1367 1374 1310 1356 1403 1385 1423 1366 1386 1373 1389 1386 1351 1435 1321 1392 1347 1390 1347 1363 1371 1358 1341 1260 1368 1412 1336 1343 1414 1393 1362 1453 1367 1377 1386 1403 1326 1315 1430 1351 1347 1325 1372 1295 1307 1395 1317 1399 1339 1292 1336 1351 1424 1359 1351 1358 1271 1370 1302 1324 1341 1333 1362 1374 1319 1309 1371 1302 1352 1407 1318 1416 1288 1314 1378 1355 1370 1373 1303 1277 1319 1337 1303 1400 1346 1389 1281 1399 1340 1378 1354 1317 1421 1417 1353 1345 1301 1371 1331 1250 1380 1277 1386 1317 1342 1294 1305 1315 1294 1380 1270 1389 1331 1340 1298 1376 1364 1304 1304 1241 1304 1340 1331 1305 1349 1281 1411 1370 1275 1305 1326 1373 1346 1270 1314 1390 1378 1334 1388 1351 1287 1308 1378 1235 1340 1306 1322 1403 1348 1310 1332 1264 1330 1376 1322 1232 1315 1382 1297 1378 1373 1341 1282 1309 1396 1272 1297 1434 1355 1357 1323 1382 1287 1309 1304 1220 1278 1355 1323 1279 1304 1303 1345 1339 1306 1323 1308 1347 1296 1310 1332 1359 1314 1238 1271 1305 1311 1332 1301 1340 1309 1344 1296 1337 1376 1308 1260 1353 1318 1300 1269 1329 1322 1324 1299 1290 1310 1299 1282 1303 1301 1310 1388 1304 1324 1393 1338 1359 1254 1301 1367 1325 1325 1314 1293 1384 1317 1360 1271 1323 1342 1320 1377 1316 1379 1366 1243 1288 1385 1294 1274 1311 1289 1359 1324 1299 1267 1324 1321 1360 1296 1339 1335 1298 1253 1315 1305 1303 1335 1333 1268 1296 1328 1345 1313 1332 1276 1410 1257 1373 1349 1350 1307 1327 1336 1310 1291 1350 1327 1318 1417 1326 1300 1308 1325 1323 1359 1328 1305 1302 1340 1369 1339 1345 1286 1200 1273 1245 1273 1292 1348 1369 1365 1283 1337 1362 1377 1325 1339 1356 1315 1354 1254 1332 1294 1365 1349 1316 1354 1300 1312 1316 1326 1249 1435 1313 1335 1378 1291 1339 1180 1275 1319 1286 1357 1287 1353 1248 1254 1303 1351 1329 1327 1371 1459 1290 1263 1346 1317 1319 1302 1401 1355 1320 1322 1295 1223 1312 1328 1312 1285 1296 1358 1376 1304 1393 1342 1331 1253 1365 1284 1305 1310 1310 1361 1273 1329 1378 1327 1320 1299 1301 1284 1332 1385 1269 1310 1352 1288 1278 1244 1445 1410 1360 1374 1261 1357 1339 1304 1376 1293 1263 1361 1345 1314 1260 1316 1270 1292 1321 1340 1363 1301 1326 1237 1322 1354 1356 1409 1288 1320 1282 1361 1367 1308 1337 1320 1320 1295 1356 1315 1319 1361 1321 1320 1354 1360 1329 1328 1367 1304 1406 1412 1292 1314 1376 1304 1347 1376 1353 1310 1310 1323 1332 1305 1322 1381 1441 1321 1344 1295 1309 1287 1336 1335 1362 1404 1325 1299 1380 1328 1375 1276 1285 1300 1315 1335 1242 1328 1275 1345 1436 1312 1355</counts>
			</dataPoints>
		</scan>
	</xrdMeasurement>
</xrdMeasurements>
