<?xml version="1.0"?>
<xrdMeasurements xmlns="http://www.xrdml.com/XRDMeasurement/2.3" xmlns:xsi="http://www.w3.org/2001/XMLSchema-instance" xsi:schemaLocation="http://www.xrdml.com/XRDMeasurement/2.3 http://www.xrdml.com/XRDMeasurement/2.3/XRDMeasurement.xsd" status="Completed" recordIdentifier="{78E374B4-2A19-4CAF-8B09-D64A0953DC90}">
	<comment>
		<entry/>
	</comment>
	<sample type="To be analyzed">
		<id>GPSS_Li1p65Hf0p1Mn0p75V0p15Cl4_110825_690fcd71f040177efa2b8c4c</id>
		<name></name>
		<preparedBy></preparedBy>
	</sample>
	<xrdMeasurement measurementType="Scan" status="Completed" sampleMode="Reflection">
		<usedWavelength intended="K-Alpha 1">
			<kAlpha1 unit="Angstrom">1.5405980</kAlpha1>
			<kAlpha2 unit="Angstrom">1.5444260</kAlpha2>
			<kBeta unit="Angstrom">1.3922500</kBeta>
			<ratioKAlpha2KAlpha1>0.5000</ratioKAlpha2KAlpha1>
		</usedWavelength>
		<incidentBeamPath>
			<radius unit="mm">145.00</radius>
			<xRayTube id="1010048" name="Empyrean Cu LFF HR (9430 033 7310x)">
				<tension unit="kV">40.0</tension>
				<current unit="mA">15.0</current>
				<anodeMaterial>Cu</anodeMaterial>
				<focus type="Line">
					<length unit="mm">12.0</length>
					<width unit="mm">0.4</width>
					<takeOffAngle unit="deg">6.0</takeOffAngle>
				</focus>
			</xRayTube>
			<sollerSlit id="21010002" name="Soller slits 0.04 rad.">
				<opening unit="rad">0.0400</opening>
			</sollerSlit>
			<mask id="22031000" name="Fixed mask 13 mm">
				<width unit="mm">9.00</width>
			</mask>
			<divergenceSlit id="22120001" name="Divergence slit 1°" xsi:type="fixedDivergenceSlitType">
				<distanceToSample unit="mm">50.00</distanceToSample>
				<height unit="mm">1.52</height>
			</divergenceSlit>
		</incidentBeamPath>
		<sampleMovement xsi:type="spinningSampleMovementType">
			<spinnerRevolutionTime unit="seconds">1.0</spinnerRevolutionTime>
		</sampleMovement>
		<diffractedBeamPath>
			<radius unit="mm">145.00</radius>
			<antiScatterSlit id="22090040" name="AS slit 9 mm (PIXcel)" xsi:type="fixedAntiScatterSlitType">
				<height unit="mm">9.00</height>
			</antiScatterSlit>
			<sollerSlit id="21020003" name="Large Soller slits 0.04 rad.">
				<opening unit="rad">0.0400</opening>
			</sollerSlit>
			<filter id="20030001" name="Large beta-filter Nickel">
				<material>Ni</material>
				<thickness unit="mm">0.020</thickness>
			</filter>
			<detector id="7010019" name="PIXcel1D-Medipix3 detector" xsi:type="rtmsDetectorType">
				<phd unit="keV">
					<lowerLevel>4.02</lowerLevel>
					<upperLevel>11.27</upperLevel>
				</phd>
				<mode>Scanning</mode>
				<activeLength unit="deg">5.542</activeLength>
			</detector>
		</diffractedBeamPath>
		<scan appendNumber="0" mode="Continuous" scanAxis="Gonio" status="Completed">
			<header>
				<startTimeStamp>2025-11-11T13:50:01-08:00</startTimeStamp>
				<endTimeStamp>2025-11-11T13:58:08-08:00</endTimeStamp>
				<author>
					<name>AutomatedUser</name>
				</author>
				<source>
					<applicationSoftware version="1.7b (136)">PANalytical Aeris Instrument Suite</applicationSoftware>
					<instrumentControlSoftware version="3.2.00000000 20240306">AERIS</instrumentControlSoftware>
					<instrumentID>950485</instrumentID>
				</source>
			</header>
			<dataPoints>
				<positions axis="2Theta" unit="deg">
					<startPosition>10.00943322</startPosition>
					<endPosition>99.99442286</endPosition>
				</positions>
				<positions axis="Omega" unit="deg">
					<startPosition>5.00471661</startPosition>
					<endPosition>49.99721143</endPosition>
				</positions>
				<commonCountingTime unit="seconds">12.495</commonCountingTime>
				<counts unit="counts">2901 2882 2792 2776 2819 2816 2792 2869 2871 2863 2770 2803 2780 2716 2831 2836 2817 2763 2722 2736 2821 2858 2713 2793 2887 2814 2813 2794 2814 2789 2802 2749 2790 2911 2920 2804 2772 2778 2859 2882 2823 2805 2843 2783 2945 2898 2835 2901 2871 2959 2904 2943 2876 2937 2942 2896 2944 2858 2865 2871 2907 2856 3030 2973 3028 2970 2973 2946 3018 2947 3016 3061 3033 3080 3037 3098 3065 3165 3104 3176 2996 3121 3176 3178 3148 3150 3163 3207 3128 3118 2952 3050 3182 3107 3113 3016 3070 3049 2984 3049 2988 3042 2958 2915 2890 2965 3004 2944 2901 2965 2849 2905 2847 2987 2876 2822 2797 2842 2979 2806 2891 2843 2875 2836 2941 2775 2958 2866 2858 2826 2812 2876 2881 2825 2843 2874 2897 2869 2938 2828 2833 2782 2864 3010 2848 2892 2891 2949 2748 2935 2802 2958 2929 2949 2907 2875 2864 2836 2797 2816 2891 2877 2870 2841 2847 2829 2830 2899 2789 2845 2783 2907 2787 2799 2859 2840 2822 2866 2844 2822 2846 2820 2876 2788 2806 2863 2814 2860 2731 2849 2834 2790 2783 2783 2840 2839 2787 2761 2757 2810 2856 2841 2799 2811 2764 2793 2828 2868 2700 2747 2770 2876 2815 2817 2767 2868 2742 2863 2711 2865 2830 2801 2789 2817 2716 2832 2715 2717 2805 2736 2710 2800 2829 2691 2720 2850 2745 2695 2717 2719 2703 2840 2731 2741 2817 2779 2756 2812 2855 2651 2723 2721 2710 2675 2861 2778 2790 2784 2727 2870 2810 2723 2770 2742 2772 2717 2745 2745 2870 2755 2753 2739 2906 2774 2866 2713 2827 2717 2842 2775 2829 2905 2758 2856 2912 2859 2896 2795 2740 2800 2866 2746 2854 2824 2840 2757 2899 2808 2853 2766 2881 2758 2799 2718 2892 2767 2816 2888 2783 2765 2780 2837 2896 2811 2964 2777 2800 2946 2795 2795 2858 2891 2773 2874 2941 2905 2924 2907 2864 2906 2843 2955 2897 2874 2945 2993 2912 2985 2971 2932 2945 2966 3001 2959 3058 2918 3020 3038 2987 2909 3064 3039 2986 3018 2993 3024 3071 3073 3075 3153 3085 3050 3065 2997 3101 3119 3104 2993 3200 3030 3211 3120 3047 3104 3251 3095 3148 3235 3037 3144 3195 3118 3270 3158 3239 3060 3192 3184 3194 3175 3293 3228 3221 3219 3215 3205 3298 3293 3271 3343 3354 3442 3357 3377 3378 3397 3392 3571 3490 3507 3509 3693 3689 3731 3840 3650 3704 3896 3733 3995 3894 3991 4041 3971 3973 4010 3931 4089 4055 3913 3988 3864 4025 3912 3916 3822 3691 3694 3693 3655 3670 3619 3587 3639 3583 3561 3607 3435 3552 3402 3473 3520 3584 3436 3503 3458 3498 3486 3491 3597 3570 3514 3475 3528 3623 3630 3629 3456 3669 3641 3559 3608 3514 3580 3504 3591 3453 3601 3499 3526 3441 3378 3351 3370 3335 3443 3179 3288 3307 3421 3277 3220 3292 3241 3349 3250 3195 3268 3269 3217 3151 3264 3116 3201 3245 3274 3221 3228 3262 3085 3296 3127 3201 3140 3222 3295 3159 3190 3102 3183 3098 3124 3176 3185 3078 3253 3138 3097 3110 3121 3006 3102 3029 3044 3133 3097 2982 3042 3126 3083 3119 3027 3105 3027 3112 3051 3110 3088 2994 3077 2932 3076 2935 2977 2984 2996 3044 2961 2933 2977 3005 2943 3017 2945 2989 2844 2901 3030 2919 2860 2985 2782 2827 2924 2824 2912 2893 2889 2835 2841 2906 2852 2826 2864 2793 2934 2827 2985 2839 2901 2800 2928 2829 2812 2788 2794 2855 2893 2832 2865 2858 2786 2877 2754 2796 2769 2876 2877 2828 2841 2846 2850 2836 2809 2735 2656 2831 2762 2807 2924 2900 2767 2845 2797 2778 2707 2833 2812 2826 2783 2843 2811 2851 2723 2756 2780 2710 2752 2736 2723 2836 2669 2796 2674 2757 2810 2728 2851 2899 2749 2749 2632 2686 2737 2721 2805 2810 2793 2701 2708 2832 2690 2656 2787 2678 2746 2688 2851 2660 2735 2758 2778 2738 2828 2676 2661 2632 2740 2855 2770 2772 2760 2787 2749 2782 2788 2787 2827 2821 2744 2740 2728 2646 2730 2758 2695 2667 2700 2711 2685 2735 2696 2662 2731 2796 2793 2715 2761 2751 2794 2783 2753 2775 2668 2642 2694 2700 2706 2719 2722 2739 2704 2685 2732 2741 2677 2714 2622 2759 2728 2676 2696 2669 2746 2634 2714 2593 2768 2676 2657 2650 2642 2650 2629 2779 2765 2697 2618 2703 2675 2624 2647 2671 2632 2623 2584 2651 2632 2621 2739 2721 2691 2669 2681 2700 2610 2727 2707 2722 2656 2721 2753 2711 2579 2657 2693 2626 2703 2672 2622 2647 2669 2650 2610 2662 2598 2676 2611 2597 2764 2674 2664 2590 2669 2669 2670 2705 2519 2775 2701 2673 2678 2650 2637 2651 2569 2585 2551 2604 2595 2630 2498 2685 2597 2650 2631 2614 2612 2584 2734 2590 2575 2683 2589 2626 2681 2640 2585 2658 2591 2549 2679 2624 2622 2616 2586 2576 2542 2632 2667 2551 2582 2666 2560 2584 2613 2583 2661 2554 2631 2643 2577 2571 2669 2559 2566 2569 2594 2593 2700 2547 2606 2579 2569 2516 2574 2512 2664 2603 2558 2552 2464 2590 2529 2581 2512 2531 2578 2490 2605 2588 2576 2526 2537 2525 2507 2608 2525 2541 2575 2610 2567 2530 2504 2572 2476 2526 2611 2556 2523 2557 2504 2569 2497 2673 2564 2472 2486 2538 2533 2561 2485 2510 2553 2584 2628 2591 2493 2463 2549 2446 2600 2461 2544 2569 2561 2589 2480 2478 2555 2379 2499 2607 2486 2488 2576 2484 2507 2511 2554 2391 2480 2495 2461 2454 2507 2456 2523 2466 2521 2486 2465 2417 2404 2544 2557 2369 2488 2554 2393 2506 2519 2515 2550 2500 2461 2403 2507 2484 2409 2497 2416 2448 2428 2512 2421 2503 2474 2460 2348 2387 2423 2443 2445 2411 2495 2394 2412 2454 2462 2483 2434 2461 2551 2497 2456 2459 2469 2488 2417 2399 2460 2406 2460 2417 2470 2382 2476 2401 2471 2479 2464 2493 2351 2487 2472 2372 2417 2390 2523 2418 2503 2417 2418 2439 2551 2476 2377 2399 2470 2507 2491 2536 2489 2518 2437 2420 2518 2461 2372 2548 2451 2364 2448 2539 2385 2471 2447 2416 2430 2514 2467 2383 2435 2484 2489 2455 2496 2444 2447 2398 2509 2507 2439 2487 2456 2502 2505 2543 2513 2601 2493 2493 2525 2532 2412 2407 2437 2435 2457 2452 2449 2486 2456 2408 2433 2534 2565 2495 2481 2471 2523 2477 2461 2417 2406 2510 2387 2507 2464 2409 2412 2409 2441 2360 2400 2416 2400 2477 2480 2496 2517 2480 2408 2461 2402 2374 2392 2324 2396 2512 2359 2393 2401 2462 2459 2400 2529 2415 2305 2418 2414 2544 2387 2328 2411 2386 2430 2479 2430 2373 2402 2414 2377 2333 2278 2354 2283 2326 2326 2332 2272 2256 2277 2266 2358 2348 2319 2255 2334 2390 2255 2320 2158 2283 2314 2312 2283 2316 2340 2322 2316 2383 2299 2216 2282 2281 2172 2207 2207 2235 2287 2247 2205 2219 2171 2179 2294 2249 2204 2238 2170 2202 2214 2126 2224 2219 2115 2158 2093 2172 2206 2178 2175 2194 2197 2168 2217 2125 2164 2165 2121 2103 2123 2055 2120 2147 2111 2107 2139 1975 2067 2045 2111 1973 2015 2005 2001 1993 1989 2131 2026 2060 1984 1937 2038 2006 2076 2044 1935 2054 1988 1989 2015 2024 1977 1970 1925 2003 1997 1981 2053 2007 1993 1971 2028 1953 1976 1973 2010 1956 1949 1889 1951 1895 1925 1934 1996 1882 1965 1976 1923 1932 1857 1830 1880 1943 1921 1905 1846 1862 1896 1840 1906 1832 1895 1931 1890 1849 1856 1844 1897 1887 1840 1832 1888 1902 1868 1888 1892 1808 1945 1825 1906 1858 1897 1838 1871 1861 1869 1879 1773 1818 1849 1819 1864 1811 1870 1816 1805 1877 1793 1852 1749 1793 1769 1880 1832 1727 1818 1791 1792 1891 1871 1842 1762 1785 1845 1821 1822 1779 1789 1752 1815 1842 1831 1831 1811 1809 1816 1843 1871 1731 1828 1861 1815 1764 1783 1797 1827 1810 1762 1810 1816 1811 1842 1824 1940 1816 1810 1792 1800 1751 1767 1859 1845 1833 1791 1798 1823 1924 1917 1733 1847 1854 1721 1838 1828 1738 1795 1843 1782 1838 1721 1799 1843 1787 1831 1847 1863 1864 1753 1854 1859 1858 1754 1880 1829 1873 1803 1820 1843 1778 1807 1830 1848 1871 1799 1903 1839 1780 1877 1843 1853 1839 1887 1772 1839 1824 1846 1851 1876 1758 1789 1894 1866 1836 1798 1797 1863 1826 1887 1849 1784 1845 1832 1784 1872 1879 1821 1854 1833 1903 1829 1838 1807 1893 1878 1773 1806 1831 1925 1819 1847 1869 1874 1844 1791 1828 1789 1749 1827 1876 1823 1783 1770 1835 1832 1857 1811 1801 1921 1885 1873 1782 1799 1779 1777 1830 1820 1783 1872 1822 1819 1754 1721 1754 1816 1740 1786 1776 1767 1735 1768 1810 1737 1804 1756 1890 1788 1805 1752 1802 1748 1795 1751 1775 1810 1765 1810 1684 1729 1732 1791 1734 1757 1636 1711 1761 1702 1764 1687 1756 1698 1738 1799 1736 1740 1784 1703 1667 1725 1766 1727 1680 1713 1718 1758 1696 1687 1709 1689 1757 1800 1651 1725 1671 1728 1702 1755 1732 1748 1658 1665 1736 1690 1685 1631 1732 1711 1720 1773 1671 1662 1701 1718 1638 1640 1646 1632 1600 1665 1708 1661 1698 1661 1602 1659 1548 1599 1578 1605 1602 1643 1679 1568 1588 1547 1588 1633 1496 1577 1570 1617 1627 1583 1531 1545 1593 1528 1668 1558 1605 1551 1593 1559 1495 1600 1517 1508 1586 1505 1592 1622 1566 1542 1584 1537 1550 1564 1593 1554 1486 1620 1649 1498 1559 1566 1472 1555 1527 1561 1595 1473 1515 1543 1576 1553 1552 1489 1459 1563 1478 1582 1619 1574 1571 1659 1679 1707 1668 1686 1847 1747 1821 1851 1920 1990 1988 1987 2047 1925 2049 1971 2022 2049 2054 2041 2057 2066 2060 1973 1940 1927 1872 1838 1825 1825 1700 1723 1724 1723 1613 1597 1611 1585 1616 1526 1532 1471 1473 1465 1490 1473 1600 1447 1454 1491 1373 1477 1409 1405 1462 1381 1409 1324 1362 1413 1465 1443 1415 1342 1409 1442 1350 1431 1324 1400 1379 1326 1318 1331 1344 1396 1333 1305 1348 1406 1327 1359 1331 1352 1369 1315 1318 1322 1334 1322 1353 1299 1341 1318 1354 1307 1348 1319 1348 1316 1350 1333 1294 1330 1354 1314 1327 1380 1395 1396 1364 1387 1409 1431 1431 1476 1477 1595 1479 1571 1680 1677 1740 1888 1915 2038 2030 2068 2100 2072 2216 2240 2191 2290 2229 2253 2268 2212 2200 2178 2146 1994 1958 1975 1987 1914 1838 1766 1699 1675 1651 1611 1519 1580 1545 1509 1413 1540 1511 1454 1451 1436 1440 1518 1473 1459 1502 1519 1561 1531 1590 1533 1576 1681 1729 1706 1715 1805 1814 1876 1898 1767 1759 1795 1777 1768 1697 1628 1621 1654 1629 1549 1497 1512 1513 1487 1425 1388 1434 1403 1278 1354 1248 1343 1332 1268 1315 1287 1229 1305 1255 1279 1297 1317 1239 1301 1224 1238 1275 1284 1268 1237 1230 1238 1279 1224 1262 1239 1306 1197 1253 1254 1245 1265 1255 1236 1188 1268 1289 1223 1194 1274 1227 1265 1271 1168 1147 1232 1281 1241 1268 1236 1229 1247 1240 1260 1130 1174 1163 1184 1148 1198 1119 1213 1187 1152 1129 1170 1135 1171 1188 1214 1144 1185 1110 1135 1198 1189 1149 1102 1169 1186 1104 1119 1093 1154 1163 1118 1142 1141 1122 1160 1092 1158 1140 1090 1139 1157 1146 1096 1172 1094 1091 1171 1138 1092 1162 1096 1073 1179 1118 1105 1136 1113 1196 1053 1146 1113 1140 1127 1121 1112 1151 1080 1094 1173 1114 1120 1085 1165 1155 1112 1197 1153 1153 1144 1244 1129 1134 1134 1146 1147 1134 1150 1170 1198 1181 1121 1141 1169 1151 1182 1162 1131 1080 1226 1149 1204 1155 1144 1197 1147 1197 1199 1225 1189 1208 1157 1185 1173 1164 1190 1244 1247 1205 1238 1255 1286 1273 1181 1293 1293 1360 1279 1336 1353 1374 1373 1417 1471 1399 1523 1590 1556 1566 1682 1661 1712 1730 1804 1801 1844 1819 1845 1850 1874 1898 1701 1897 1919 1750 1867 1691 1744 1800 1725 1735 1691 1705 1660 1629 1613 1611 1535 1555 1482 1489 1469 1434 1474 1545 1389 1434 1408 1361 1406 1403 1394 1419 1398 1370 1365 1268 1297 1399 1328 1291 1277 1300 1306 1306 1271 1263 1224 1220 1236 1209 1230 1202 1247 1181 1204 1241 1224 1221 1278 1232 1280 1244 1244 1270 1255 1231 1272 1281 1230 1201 1277 1159 1208 1200 1196 1243 1266 1303 1204 1168 1197 1140 1183 1193 1150 1163 1121 1286 1143 1221 1183 1193 1156 1184 1183 1161 1205 1154 1196 1123 1119 1137 1150 1188 1253 1148 1158 1179 1133 1221 1160 1169 1150 1119 1174 1184 1190 1202 1133 1179 1209 1199 1198 1176 1168 1158 1213 1240 1265 1269 1323 1282 1374 1345 1450 1487 1503 1619 1669 1761 1846 1961 2144 2349 2621 2657 2777 3024 3371 3330 3660 3701 3707 3812 3830 4046 3935 3949 3954 3802 3792 3836 3622 3742 3481 3459 3263 3261 3051 2816 2836 2685 2567 2403 2396 2262 2087 2045 2007 1985 1872 1756 1803 1784 1631 1691 1577 1569 1553 1579 1577 1516 1473 1599 1550 1567 1570 1610 1505 1511 1579 1534 1524 1498 1588 1631 1621 1674 1666 1706 1760 1816 1762 1762 1856 1881 1845 1795 1826 1786 1764 1717 1668 1561 1589 1529 1486 1380 1379 1365 1343 1249 1228 1253 1241 1214 1194 1216 1195 1197 1105 1143 1128 1109 1093 1049 1046 1076 1064 1091 1118 1066 1116 1020 1091 1041 1028 1092 1040 1053 1108 1026 1007 1100 1023 1092 1019 1052 995 1003 1037 1076 1029 1031 1059 952 1014 1108 1038 988 1003 1055 1007 1071 1004 1073 1000 1074 1060 1043 1069 1064 1031 1000 1106 1040 1065 1073 1055 1087 1097 1050 1096 1079 1025 1054 1167 1075 1073 1015 1081 1039 1064 1061 1087 1062 1037 1016 1022 1064 1051 980 985 935 1058 992 989 1023 937 1029 877 1003 934 1016 997 1006 982 957 1010 972 1011 949 974 957 904 938 967 965 975 996 916 958 973 969 954 900 961 949 947 937 963 934 923 912 943 903 953 930 892 893 923 887 975 832 974 908 928 951 899 985 950 915 906 902 919 899 902 871 925 907 885 954 884 863 904 932 967 887 890 933 887 880 849 859 859 870 899 941 900 898 915 849 949 864 864 917 941 943 944 875 904 880 885 959 912 921 911 856 914 897 928 899 916 898 944 892 922 945 913 926 926 983 907 897 880 879 931 930 921 913 889 885 963 928 926 906 890 942 933 860 929 898 896 931 901 890 891 881 902 931 858 875 877 906 914 846 830 864 805 896 887 875 875 888 861 899 861 912 831 918 909 891 825 860 901 897 912 898 908 903 915 931 894 929 879 885 931 859 908 925 879 903 829 865 922 893 890 862 896 811 878 878 873 853 819 838 856 835 919 832 865 771 844 816 851 873 815 845 834 840 867 879 806 827 808 835 834 763 855 833 846 816 858 816 823 781 826 825 838 858 816 821 855 814 837 827 885 799 846 821 850 853 769 813 788 784 869 865 764 809 809 750 869 802 803 840 833 819 832 862 772 829 832 854 788 852 813 781 872 801 840 807 823 834 785 824 811 832 818 830 809 810 855 806 818 837 837 850 851 806 769 855 824 814 793 824 780 879 760 850 812 851 852 883 812 819 816 828 841 809 827 846 820 777 822 806 780 807 817 786 768 810 749 841 798 867 845 819 845 769 767 790 826 798 753 816 815 835 806 883 844 847 830 829 774 798 799 862 802 806 864 827 770 773 807 759 779 770 789 755 811 743 765 836 850 805 805 842 789 788 805 839 788 823 813 796 853 721 784 809 812 743 821 818 790 783 792 856 781 777 747 798 811 789 788 781 772 791 825 774 782 785 779 812 806 770 780 769 799 808 727 794 792 763 753 787 793 770 853 828 814 790 759 804 821 815 783 735 726 776 785 736 792 795 784 776 798 807 813 726 799 748 817 772 799 787 782 781 752 759 842 801 759 815 769 812 790 815 778 833 796 783 807 801 771 818 783 774 781 765 751 790 816 765 822 732 775 767 765 728 813 767 835 802 762 803 785 808 741 832 791 835 767 791 750 759 775 781 779 769 789 764 749 811 752 773 775 809 749 768 783 821 769 766 783 741 786 723 764 719 802 742 767 733 797 746 719 804 730 762 773 744 762 723 784 725 733 752 745 808 789 744 783 809 749 792 753 810 770 759 728 734 751 810 811 771 781 771 804 737 797 735 796 742 794 727 752 799 732 796 783 758 811 752 703 767 769 717 775 757 793 796 749 815 811 775 730 779 803 772 795 818 810 768 784 793 748 796 823 786 767 837 795 810 768 753 746 747 808 813 790 772 797 773 781 766 723 785 802 758 776 778 784 792 758 754 757 800 764 744 767 734 794 766 785 818 777 766 824 726 766 751 821 763 824 745 851 716 747 773 780 853 795 763 753 780 782 773 832 765 749 739 776 769 721 795 770 754 812 811 774 784 785 760 738 748 795 757 785 749 845 735 760 758 824 769 788 816 816 786 769 810 800 771 749 840 838 789 794 823 809 832 821 778 860 844 853 830 824 760 802 806 853 885 828 856 810 848 854 846 891 831 893 806 866 851 843 839 824 829 869 845 836 850 803 836 879 887 882 839 895 926 853 816 831 879 814 882 841 855 859 874 868 830 786 828 828 788 847 842 840 805 783 807 810 792 813 805 743 800 782 754 767 747 767 811 748 792 811 781 777 802 798 796 789 783 887 842 828 812 826 766 815 795 804 842 852 838 826 851 856 899 885 924 950 947 949 971 1012 1026 987 995 1055 978 988 962 1015 981 981 987 976 946 960 1013 943 897 934 853 935 889 874 847 908 884 857 820 857 859 822 769 864 803 793 814 790 790 807 751 780 768 707 699 784 727 761 729 786 764 778 780 726 769 774 763 719 739 718 698 738 727 697 766 726 716 729 749 699 714 733 714 716 766 764 756 743 762 737 767 748 738 723 735 738 766 702 677 714 715 732 735 739 695 773 747 762 749 732 785 776 736 720 723 736 778 689 706 749 720 715 678 695 708 705 733 729 717 729 729 712 684 710 769 756 740 723 702 695 723 718 698 694 671 731 747 730 694 689 749 707 653 770 719 680 707 699 682 665 677 670 725 721 726 698 718 734 738 701 708 645 738 665 727 719 707 720 738 689 737 713 746 706 711 715 700 689 699 754 704 727 737 705 679 713 644 742 672 712 714 707 714 759 766 733 721 724 738 712 731 769 758 752 722 741 734 717 737 695 757 720 696 717 750 706 765 745 738 726 770 742 701 729 743 684 708 728 735 786 750 730 733 699 727 709 743 713 681 678 766 755 726 736 750 692 757 716 687 707 670 693 754 707 730 767 699 739 696 708 747 703 727 646 741 732 776 680 699 720 690 723 677 680 772 725 671 714 708 743 754 709 765 681 711 723 728 704 727 708 721 718 724 694 669 768 716 738 720 730 726 688 750 707 714 702 734 707 740 714 720 706 705 690 721 724 718 715 752 747 741 733 675 681 704 704 735 702 715 674 745 720 712 755 744 718 698 759 759 761 724 704 714 719 744 703 728 759 745 755 788 716 800 772 726 734 765 733 784 792 790 817 817 789 827 843 804 852 872 874 859 958 948 1005 985 1029 1053 1087 1145 1223 1288 1362 1474 1543 1604 1693 1768 1884 1933 2082 2190 2165 2263 2223 2316 2302 2246 2367 2247 2347 2274 2269 2171 2089 2121 2074 1936 1945 1834 1770 1595 1645 1495 1490 1464 1381 1288 1338 1188 1174 1074 1038 1077 1051 1039 913 893 960 893 904 883 877 838 796 803 805 794 835 835 742 770 771 803 779 760 780 747 786 817 807 788 790 774 728 736 756 782 773 820 772 762 773 755 698 780 726 799 776 791 789 849 810 808 860 891 921 957 887 941 928 935 969 930 940 1003 937 921 952 977 954 994 950 967 882 911 919 863 837 916 853 858 826 895 875 817 863 825 810 878 822 839 832 802 764 856 838 850 787 816 864 774 770 846 789 795 779 815 845 760 779 805 686 804 767 751 778 723 748 680 744 731 702 735 699 717 683 766 774 742 743 709 651 704 686 703 687 682 644 727 702 704 705 674 665 700 672 682 690 687 688 669 722 712 662 642 678 695 672 651 660 632 705 662 656 703 697 687 682 639 605 660 707 696 636 687 670 709 664 697 681 692 708 710 704 709 748 798 735 788 732 780 746 758 757 819 801 779 839 835 743 775 841 837 781 874 771 880 775 759 810 769 809 828 743 726 740 802 731 780 779 712 707 669 728 726 727 647 684 646 651 650 685 688 723 655 671 647 717 673 666 716 641 679 675 653 676 715 707 671 641 648 658 697 632 699 708 674 640 682 679 648 686 674 672 707 688 676 726 674 656 670 681 649 621 687 654 691 689 670 618 609 645 691 641 663 639 684 633 635 644 654 638 637 595 560 608 621 658 607 659 595 643 666 606 645 642 597 635 585 638 584 618 635 617 633 649 622 628 661 665 638 686 633 617 675 652 575 642 564 658 636 614 615 546 671 636 638 632 625 639 642 617 597 624 630 633 613 682 645 645 627 663 614 672 718 589 683 677 612 626 624 584 623 603 615 626 609 666 633 645 620 600 615 594 621 647 630 635 631 636 610 629 598 708 614 561 612 610 649 581 599 618 631 590 631 619 637 689 703 653 656 653 629 640 623 636 651 637 649 575 605 582 600 656 622 603 627 597 649 665 655 671 646 598 589 670 618 607 600 622 665 560 641 609 589 617 587 633 648 613 600 630 626 603 603 646 644 641 655 648 658 622 640 645 669 687 632 602 587 669 670 692 639 625 666 594 621 624 658 678 604 604 623 610 610 591 586 617 564 626 675 609 608 622 647 624 628 573 577 568 612 596 639 605 634 595 637 630 658 623 589 608 603 579 655 613 611 610 588 611 608 616 583 620 585 626 604 559 602 617 621 630 601 644 609 610 611 619 531 610 558 576 646 616 611 608 633 618 591 593 599 622 629 586 578 574 642 554 609 620 592 610 615 593 598 620 563 623 639 578 620 603 596 574 666 602 647 645 614 543 565 556 626 578 608 580 615 565 617 598 628 587 615 633 560 592 627 590 632 589 570 644 642 606 607 582 653 608 605 577 527 634 626 543 599 621 567 585 570 610 567 604 630 599 621 575 590 576 591 572 553 608 579 595 575 594 594 647 589 590 608 590 575 573 594 555 643 582 616 581 659 574 612 650 592 585 617 541 599 582 599 546 593 598 606 609 623 661 605 570 618 635 617 605 591 601 569 580 578 591 586 550 591 575 581 599 579 600 601 605 584 611 588 589 630 608 584 579 595 552 571 599 568 639 597 622 566 611 571 579 562 618 563 583 569 600 611 607 618 599 564 563 594 571 595 579 564 613 588 597 556 641 601 566 606 619 640 579 605 556 608 608 590 634 603 602 581 565 604 616 607 586 629 584 645 609 659 608 627 640 676 644 642 642 677 656 614 642 613 644 669 688 643 625 671 658 643 625 650 598 586 646 660 620 582 628 592 580 623 614 552 541 634 623 583 633 625 612 642 601 608 586 636 613 601 601 601 609 618 602 601 628 594 638 582 703 615 614 677 657 631 669 681 718 650 697 702 690 716 769 666 664 670 734 670 723 724 696 702 776 758 721 780 757 734 772 677 661 727 673 701 663 686 701 672 639 612 625 594 646 709 640 619 610 652 644 578 626 639 630 643 669 649 636 610 627 587 612 608 656 620 593 629 604 625 627 611 614 552 646 605 575 651 642 610 597 626 596 610 646 659 625 611 623 614 594 617 611 610 570 668 669 610 609 581 591 646 571 610 647 641 670 639 692 672 644 606 615 631 633 650 690 686 712 639 720 704 703 668 734 672 738 696 684 692 686 681 716 664 734 698 706 694 641 632 692 652 642 639 708 644 661 629 627 607 632 603 609 634 632 578 577 619 572 573 572 555 643 600 607 601 633 591 585 567 630 624 604 611 607 629 587 613 654 611 574 612 619 653 637 592 588 619 592 620 628 599 603 612 605 594 603 610 665 640 639 648 563 556 587 630 679 589 622 610 595 635 595 578 606 630 581 623 624 650 619 632 585 633 564 574 590 553 651 618 615 651 550 620 622 620 567 655 605 575 576 600 603 581 638 578 647 598 589 630 587 613 590 602 607 614 632 611 603 601 651 644 646 663 621 675 678 664 699 714 681 695 729 723 754 774 779 830 775 775 819 825 806 802 840 803 849 787 896 794 802 821 791 775 827 843 758 795 787 719 733 722 735 701 718 696 676 702 657 664 639 680 674 679 677 607 586 625 607 629 622 644 654 637 631 637 572 595 571 561 590 588 645 573 593 553 600 602 617 568 592 600 604 590 577 612 610 600 594 576 606 547 609 611 602 534 573 582 585 542 608 548 601 550 593 584 557 577 555 545 590 589 570 579 575 577 599 590 533 548 574 564 544 563 599 584 552 631 609 608 630 637 617 637 633 595 589 615 605 653 628 585 615 571 597 545 609 610 616 564 639 599 556 610 601 591 538 551 569 587 608 574 565 545 566 581 590 553 549 584 529 597 538 572 530 532 575 541 568 560 526 560 526 556 553 510 526 522 524 548 598 553 562 544 561 615 556 626 551 584 570 554 556 558 612 548 608 585 628 637 525 612 621 626 625 574 612 599 667 623 634 620 585 586 642 648 613 598 579 618 642 613 631 572 620 629 618 567 577 593 615 596 619 592 577 549 580 559 547 574 574 572 546 538 614 542 578 559 572 549 566 531 585 564 552 547 587 523 555 548 557 584 580 529 579 493 522 551 588 563 596 493 550 536 522 548 539 529 518 556 605 547 545 533 553 527 547 544 531 540 526 539 532 523 584 519 517 529 574 569 538 519 525 539 509 563 525 559 504 560 532 496 538 546 545 548 562 556 574 508 508 527 567 544 566 507 542 566 548 536 485 506 539 513 534 510 526 552 525 561 525 530 519 522 560 520 522 551 517 536 547 526 502 513 533 549 516 514 535 526 541 495 537 521 531 523 493 496 495 538 548 516 541 566 546 508 580 537 508 540 514 502 519 553 532 507 502 512 525 484 517 525 530 539 528 545 501 545 548 571 534 502 507 571 480 546 555 516 514 525 549 541 494 498 476 477 499 529 586 519 532 539 506 516 519 494 556 498 510 518 517 513 512 508 557 541 539 539 530 514 525 528 547 578 539 519 533 524 530 544 517 504 571 532 506 538 513 526 510 533 520 511 528 491 536 542 600 518 516 486 484 532 507 495 517 541 536 514 518 522 531 490 492 529 467 453 534 486 544 541 504 530 530 507 494 536 490 470 529 514 536 540 517 520 546 560 501 505 499 520 531 492 504 515 523 531 507 533 484 507 508 533 503 503 516 548 521 560 514 490 514 544 475 496 486 505 572 557 511 562 535 523 512 562 512 508 525 507 486 501 515 531 525 527 480 493 523 515 495 509 541 547 517 534 472 526 539 543 499 497 518 509 505 538 510 531 490 524 494 554 504 507 507 488 556 507 525 547 542 544 477 438 533 461 552 517 515 532 536 491 516 517 521 479 501 500 517 526 537 526 519 491 519 467 548 534 589 534 576 521 537 537 517 523 534 530 528 546 543 547 555 503 524 573 552 516 504 509 469 505 471 530 530 561 542 558 550 594 536 513 527 588 568 511 563 531 537 503 488 537 536 518 541 513 539 563 505 510 535 542 580 536 508 545 478 541 519 507 509 527 502 538 509 518 561 501 559 557 472 574 525 567 561 572 565 532 520 500 567 558 609 584 536 543 543 555 568 552 559 607 544 534 558 584 526 548 540 534 580 532 597 566 542 548 523 551 546 531 567 558 511 502 503 567 547 560 521 508 478 512 491 508 481 548 517 540 550 524 505 503 507 532 554 507 542 551 530 556 461 479 527 496 511 499 518 493 508 533 590 526 524 542 516 530 526 534 523 516 516 541 531 464 492 529 523 510 500 542 505 559 497 540 550 491 512 545 545 528 515 524 502 528 510 498 487 552 504 519 499 539 518 546 497 536 559 487 531 489 523 511 469 540 454 516 540 528 519 540 506 511 475 544 534 459 526 533 507 539 477 509 514 524 523 480 507 519 552 525 526 534 529 532 535 488 521 508 497 510 541 487 534 521 540 489 499 536 488 502 548 479 500 483 487 508 503 483 505 519 509 512 456 546 534 506 506 516 498 493 521 539 519 477 501 508 468 513 475 511 508 478 536 503 479 509 525 530 532 513 483 477 524 490 484 507 481 514 524 526 501 468 524 508 505 540 531 536 506 513 483 519 470 508 529 522 479 499 526 497 527 512 501 517 496 486 499 520 513 489 565 539 532 518 528 491 571 528 513 547 509 509 505 481 510 534 482 544 518 502 517 502 489 536 560 520 540 573 521 540 510 537 498 548 576 562 507 505 503 564 531 512 574 560 590 589 555 561 642 576 619 587 626 583 551 632 597 613 563 574 651 600 617 656 612 650 609 614 619 598 571 623 582 607 599 556 577 576 575 561 606 530 611 559 592 540 558 565 535 543 526 554 473 523 560 502 522 549 552 555 525 539 516 497 519 524 502 546 521 505 478 490 532 531 536 508 505 517 511 521 502 521 493 495 514 504 495 499 499 489 522 497 508 522 549 536 433 561 527 511 493 505 517 522 492 505 518 503 473 480 504 569 493 531 528 517 489 530 518 463 500 490 525 502 495 482 546 523 484 463 495 491 485 548 532 482 519 521 505 473 545 486 471 492 494 541 519 548 526 539 516 510 529 503 506 514 500 497 512 554 515 530 533 569 539 552 514 525 530 473 532 533 520 612 524 498 543 510 526 540 515 534 517 515 506 506 510 489 542 504 531 494 495 503 553 503 516 488 515 498 536 488 478 522 504 481 496 532 496 515 484 493 554 509 523 477 460 507 466 501 500 524 471 478 489 510 460 487 512 480 490 518 503 449 512 480 499 499 512 490 502 479 509 482 492 476 504 553 463 498 481 501 499 498 477 497 475 477 529 505 492 475 467 478 471 517 506 490 491 496 477 499 519 503 511 472 481 544 490 502 493 503 494 474 486 514 477 501 510 556 521 498 520 508 506 489 516 501 510 465 508 468 467 496 503 500 514 481 443 517 514 463 516 479 492 508 536 476 488 494 477 505 461 493 497 473 490 469 549 494 539 502 460 431 496 489 473 506 479 515 509 510 444 465 463 462 469 500 508 511 545 520 461 505 440 500 486 455 519 473 502 512 475 552 482 464 527 499 492 506 477 499 523 517 449 470 513 527 480 537 492 536 484 494 480 504 479 521 533 482 474 512 527 507 494 539 468 503 465 507 515 534 473 472 522 491 484 512 509 473 510 467 486 496 507 523 508 496 470 515 567 470 507 459 508 492 496 509 523 471 515 488 490 482 473 529 499 508 505 505 468 467 495 514 503 467 492 547 503 494 484 533 492 531 489 481 510 503 476 513 548 478 492 534 455 477 482 502 513 512 540 484 510 496 480 471 510 511 496 493 504 507 501 454 494 487 512 501 467 466 454 474 479 494 501 489 479 525 520 484 561 514 495 508 495 466 553 510 511 465 510 499 498 489 465 487 519 462 479 492 496 503 466 485 533 474 494 501 474 477 466 509 516 492 478 501 502 485 525 475 538 528 528 495 507 485 461 494 509 489 497 494 467 512 494 466 481 510 516 492 499 524 467 505 520 501 471 519 514 519 567 443 534 503 518 488 517 477 478 464 494 505 477 469 519 519 489 534 523 520 512 535 522 483 487 528 499 521 532 507 492 528 519 543 511 494 499 482 575 470 517 536 532 495 514 520 491 502 509 538 499 520 526 528 497 479 479 493 549 511 524 484 530 511 552 518 516 499 526 538 523 548 479 551 530 543 524 541 494 523 516 507 552 534 582 580 512 552 539 527 538 501 603 502 501 531 550 577 550 537 544 583 509 511 538 555 566 520 539 516 511 517 538 591 528 527 561 499 560 511 526 517 556 537 504 551 542 542 522 559 559 547 520 533 523 525 549 540 566 523 479 555 522 548 551 558 555 522 500 573 576 532 534 570 534 554 539 542 526 560 576 547 561 576 530 528 533 536 533 559 552 523 520 531 544 534 517 514 531 529 552 548 508 539 539 520 505 522 526 517 523 558 589 521 521 516 513 531 526 537 488 527 517 496 531 508 492 451 516 518 532 470 524 540 467 521 535 546 472 521 494 476 489 508 510 516 512 511 492 527 496 515 525 482 493 531 551 550 512 528 529 549 510 542 485 523 542 517 516 472 500 515 522 526 550 515 539 514 503 500 536 513 516 533 522 482 546 505 520 496 542 502 535 554 526 504 530 559 487 537 516 523 478 508 526 568 511 542 523 575 528 539 552 566 561 503 575 561 560 535 550 546 547 512 552 524 485 555 587 527 611 548 576 578 496 640 561 560 584 558 551 602 569 565 560 609 605 505 562 565 580 583 526 547 529 535 578 576 577 581 545 595 582 540 544 569 553 544 572 562 577 551 537 510 534 579 532 592 552 577 601 581 509 578 603 552 589 616 563 618 628 646 594 640 605 608 672 629 640 678 654 628 699 677 643 716 678 728 713 742 675 675 742 702 680 688 713 665 647 699 702 699 670 658 674 661 643 650 651 643 659 577 598 627 581 635 669 610 610 606 591 560 613 576 531 557 560 532 557 558 561 562 590 606 577 552 565 577 508 533 540 553 536 534 514 517 536 584 550 536 519 558 499 519 559 536 489 527 550 544 509 510 558 560 529 520 527 550 511 562 532 566 506 531 531 546 519 552 545 502 542 564 520 500 507 461 541 512 558 483 508 523 529 525 511 495 504 504 494 523 487 513 508 463 491 519 512 527 522 520 510 543 553 483 557 540 497 515 507 570 526 490 584 537 498 514 500 561 513 498 543 542 532 538 526 556 534 598 529 506 536 571 595 551 594 494 555 551 599 567 570 550 566 550 554 583 601 552 566 559 605 539 575 542 531 578 564 573 579 537 565 563 580 557 562 572 533 554 556 548 588 520 566 556 540 530 532 562 554 521 519 527 544 512 571 544 533 519 510 539 551 513 546 485 508 540 497 537 470 531 523 497 504 463 510 531 490 538 466 484 536 524 505 485 490 538 519 510 474 525 496 512 518 493 495 515 501 438 510 523 494 522 502 492 524 479 491 491 543 529 520 491 498 517 492 533 544 453 482 535 455 503 532 499 515 505 534 508 489 496 480 537 493 474 496 487 510 465 511 473 513 505 477 512 520 470 481 490 503 502 483 518 467 496 531 544 496 520 480 525 496 458 477 493 501 501 495 500 550 491 441 502 461 482 501 513 455 484 517 495 557 457 529 559 505 493 525 499 502 515 563 536 478 485 509 464 546 509 435 474 463 525 483 514 481 463 461 494 521 537 495 469 483 518 517 489 529 484 535 512 497 451 510 519 498 497 468 497 477 454 505 479 504 505 531 477 538 481 534 497 503 527 464 518 501 514 489 480 469 492 453 522 509 455 489 490 481 453 516 525 494 496 461 468 503 521 488 493 470 510 510 515 504 506 522 475 472 467 487 535 542 471 533 480 515 525 477 482 434 492 478 458 466 469 510 457 474 497 511 475 481 522 464 506 457 516 486 484 480 485 484 523 481 509 489 484 540 498 456 479 437 480 455 487 508 495 522 521 504 543 469 506 488 481 477 488 498 477 520 475 477 500 469 456 466 503 491 504 453 478 500 485 495 449 490 489 480 489 502 475 522 523 503 474 496 449 471 494 468 497 494 509 452 506 497 481 532 477 460 487 456 498 491 497 481 513 540 487 522 520 474 529 483 493 511 485 487 511 533 464 484 519 517 508 513 487 501 485 490 540 546 501 499 461 490 506 492 514 505 514 520 486 506 466 503 479 507 512 513 471 514 478 505 497 503 508 466 521 484 501 478 519 525 486 495 499 474 473 510 540 523 534 527 525 487 514 496 468 496 496 481 500 484 496 527 473 518 485 474 488 508 509 508 493 508 471 499 503 494 475 529 530 498 510 511 511 479 495 469 464 501 481 516 481 481 466 485 496 493 553 428 540 485 521 483 495 503 474 544 467 490 515 500 471 498 496 474 490 504 499 508 517 507 485 484 477 488 486 507 482 465 474 501 485 490 459 477 502 458 503 533 495 522 513 517 484 520 503 501 495 478 467 530 472 488 498 517 450 502 534 490 532 454 469 476 503 464 491 483 503 491 491 529 476 487 522 461 474 504 482 507 501 457 535 460 470 536 437 510 510 494 462 468 501 506 490 482 462 477 493 487 439 480 513 460 504 511 482 490 533 507 501 484 508 499 500 479 504 462 526 470 487 527 518 494 511 488 487 509 482 511 510 454 494 518 449 495 507 499 456 502 474 504 471 482 466 477 508 479 492 507 485 465 508 505 497 500 457 493 506 524 490 467 504 460 502 511 469 520 454 484 452 483 526 509 472 486 532 506 502 508 449 492 464 457 486 478 471 509 445 502 489 468 468 485 499 493 489 490 502 495 440 468 443 470 446 508 471 487 471 520 499 478 512 482 562 479 515 530 509 480 532 449 504 486 490 496 501 540 522 515 516 541 547 553 502 545 526 517 543 534 547 565 517 532 553 541 583 580 569 560 598 605 555 610 591 619 584 615 620 598 582 611 611 579 661 593 575 580 602 640 579 635 575 589 614 575 628 615 557 540 569 554 553 566 581 554 540 559 527 539 557 532 564 522 509 514 532 523 537 507 548 518 552 564 509 523 529 507 502 527 515 532 545 466 547 503 473 513 504 495 506 459 490 495 461 509 483 436 519 506 485 485 500 514 502 483 492 477 521 494 508 523 447 493 481 505 488 519 513 475 464 458 501 522 494 514 472 516 515 481 488 469 472 502 481 497 480 489 498 486 432 471 496 477 457 511 485 483 491 467 477 497 502 467 574 451 472 492 486 486 490 481 452 482 497 463 500 475 468 490 452 483 469 433 511 470 453 485 479 475 481 471 463 516 514 493 475 456 514 458 487 513 505 476 483 494 469 470 483 501 455 494 513 474 470 502 494 462 502 504 461 457 472 470 525 515 510 476 489 494 448 516 497 517 494 498 451 511 510 497 526 510 547 525 537 502 501 527 522 504 506 496 486 531 477 522 492 542 505 436 508 453 489 507 495 491 454 465 466 469 522 491 479 448 507 460 491 446 460 496 545 435 463 514 452 473 502 506 438 449 482 452 492 453 502 527 470 466 482 495 471 475 493 468 498 509 466 436 487 478 440 458 503 464 455 505 435 448 500 458 511 474 471 471 470 471 450 448 432 490 535 502 501 507 516 466 472 463 499 475 452 468 471 470 449 492 445 484 497 494 455 467 482 492 483 479 485 503 484 469 449 503 449 436 471 466 480 484 499 466 465 428 467 505 494 472 522 465 480 513 474 452 498 459 471 487 457 457 500 510 437 455 497 452 492 500 469 504 499 466 461 486 493 495 506 479 464 460 485 527 477 494 490 481 412 441 437 488 460 499 493 473 477 453 446 507 411 469 452 517 417 483 463 464 497 480 481 448 471 505 458 466 494 476 468 487 467 456 461 449 438 499 489 470 458 458 447 443 517 443 456 469 443 497 450 489 478 491 485 423 492 471 475 505 471 487 472 483 452 481 443 482 468 490 456 434 487 450 486 458 433 525 467 457 476 485 461 475 483 457 514 452 428 443 428 477 472 455 475 475 487 524 452 510 455 445 454 493 472 466 469 473 498 449 471 419 510 485 478 452 437 473 469 432 468 478 470 433 435 492 497 450 464 467 418 437 433 457 431 474 448 464 476 468 471 523 480 448 501 460 494 469 483 487 474 439 490 420 468 477 450 470 452 459 466 420 465 447 491 453 484 456 449 453 466 497 449 445 462 447 471 513 468 444 486 454 416 475 447 511 502 500 478 480 473 492 487 476 476 470 497 479 430 478 461 472 439 494 436 494 444 442 495 512 500 445 469 501 483 452 476 454 473 512 489 492 473 466 472 475 470 485 494 451 462 484 488 517 492 472 490 440 461 466 463 483 479 529 468 466 504 498 536 500 518 528 522 482 487 485 508 543 491 509 487 473 506 451 478 497 534 485 483 476 463 480 516 499 480 492 479 526 499 471 526 498 473 492 448 488 492 490 491 478 510 525 482 525 504 478 455 465 501 504 499 473 500 482 482 483 484 535 474 448 489 475 501 512 470 470 479 502 456 486 446 481 486 470 511 443 533 495 496 498 455 469 483 480 463 487 496 521 478 443 481 471 519 441 453 499 468 456 513 480 487 506</counts>
			</dataPoints>
		</scan>
	</xrdMeasurement>
</xrdMeasurements>
