<?xml version="1.0"?>
<xrdMeasurements xmlns="http://www.xrdml.com/XRDMeasurement/2.3" xmlns:xsi="http://www.w3.org/2001/XMLSchema-instance" xsi:schemaLocation="http://www.xrdml.com/XRDMeasurement/2.3 http://www.xrdml.com/XRDMeasurement/2.3/XRDMeasurement.xsd" status="Completed" recordIdentifier="{961B59CC-8831-41B5-95A8-142CB7EE388C}">
	<comment>
		<entry/>
	</comment>
	<sample type="To be analyzed">
		<id>GPSS_Li1p7Zn0p85Zr0p15Cl4_110825_690fcd71f040177efa2b8c51</id>
		<name></name>
		<preparedBy></preparedBy>
	</sample>
	<xrdMeasurement measurementType="Scan" status="Completed" sampleMode="Reflection">
		<usedWavelength intended="K-Alpha 1">
			<kAlpha1 unit="Angstrom">1.5405980</kAlpha1>
			<kAlpha2 unit="Angstrom">1.5444260</kAlpha2>
			<kBeta unit="Angstrom">1.3922500</kBeta>
			<ratioKAlpha2KAlpha1>0.5000</ratioKAlpha2KAlpha1>
		</usedWavelength>
		<incidentBeamPath>
			<radius unit="mm">145.00</radius>
			<xRayTube id="1010048" name="Empyrean Cu LFF HR (9430 033 7310x)">
				<tension unit="kV">40.0</tension>
				<current unit="mA">15.0</current>
				<anodeMaterial>Cu</anodeMaterial>
				<focus type="Line">
					<length unit="mm">12.0</length>
					<width unit="mm">0.4</width>
					<takeOffAngle unit="deg">6.0</takeOffAngle>
				</focus>
			</xRayTube>
			<sollerSlit id="21010002" name="Soller slits 0.04 rad.">
				<opening unit="rad">0.0400</opening>
			</sollerSlit>
			<mask id="22031000" name="Fixed mask 13 mm">
				<width unit="mm">9.00</width>
			</mask>
			<divergenceSlit id="22120001" name="Divergence slit 1°" xsi:type="fixedDivergenceSlitType">
				<distanceToSample unit="mm">50.00</distanceToSample>
				<height unit="mm">1.52</height>
			</divergenceSlit>
		</incidentBeamPath>
		<sampleMovement xsi:type="spinningSampleMovementType">
			<spinnerRevolutionTime unit="seconds">1.0</spinnerRevolutionTime>
		</sampleMovement>
		<diffractedBeamPath>
			<radius unit="mm">145.00</radius>
			<antiScatterSlit id="22090040" name="AS slit 9 mm (PIXcel)" xsi:type="fixedAntiScatterSlitType">
				<height unit="mm">9.00</height>
			</antiScatterSlit>
			<sollerSlit id="21020003" name="Large Soller slits 0.04 rad.">
				<opening unit="rad">0.0400</opening>
			</sollerSlit>
			<filter id="20030001" name="Large beta-filter Nickel">
				<material>Ni</material>
				<thickness unit="mm">0.020</thickness>
			</filter>
			<detector id="7010019" name="PIXcel1D-Medipix3 detector" xsi:type="rtmsDetectorType">
				<phd unit="keV">
					<lowerLevel>4.02</lowerLevel>
					<upperLevel>11.27</upperLevel>
				</phd>
				<mode>Scanning</mode>
				<activeLength unit="deg">5.542</activeLength>
			</detector>
		</diffractedBeamPath>
		<scan appendNumber="0" mode="Continuous" scanAxis="Gonio" status="Completed">
			<header>
				<startTimeStamp>2025-11-11T14:21:22-08:00</startTimeStamp>
				<endTimeStamp>2025-11-11T14:29:29-08:00</endTimeStamp>
				<author>
					<name>AutomatedUser</name>
				</author>
				<source>
					<applicationSoftware version="1.7b (136)">PANalytical Aeris Instrument Suite</applicationSoftware>
					<instrumentControlSoftware version="3.2.00000000 20240306">AERIS</instrumentControlSoftware>
					<instrumentID>950485</instrumentID>
				</source>
			</header>
			<dataPoints>
				<positions axis="2Theta" unit="deg">
					<startPosition>10.00943322</startPosition>
					<endPosition>99.99442286</endPosition>
				</positions>
				<positions axis="Omega" unit="deg">
					<startPosition>5.00471661</startPosition>
					<endPosition>49.99721143</endPosition>
				</positions>
				<commonCountingTime unit="seconds">12.495</commonCountingTime>
				<counts unit="counts">2689 2667 2657 2800 2655 2784 2710 2826 2715 2705 2716 2759 2692 2766 2764 2759 2687 2747 2659 2694 2720 2678 2798 2704 2627 2742 2651 2743 2691 2706 2701 2687 2654 2828 2620 2662 2705 2707 2740 2641 2677 2770 2673 2696 2700 2705 2660 2706 2650 2739 2791 2727 2712 2780 2808 2735 2775 2782 2730 2656 2700 2778 2725 2763 2680 2820 2748 2818 2799 2803 2753 2745 2850 2898 2731 2886 2798 2782 2869 2766 2728 2783 2838 2836 2773 2700 2860 2878 2708 2754 2880 2840 2893 2782 2734 2855 2772 2761 2796 2806 2807 2795 2905 2754 2816 2793 2711 2698 2724 2802 2783 2772 2838 2803 2768 2722 2767 2838 2903 2859 2824 2848 2787 2821 2913 2756 2830 2769 2851 2800 2873 2787 2789 2809 2898 2780 2810 2802 2794 2770 2801 2756 2811 2733 2821 2845 2838 2830 2774 2817 2783 2733 2853 2817 2811 2680 2868 2704 2784 2888 2808 2844 2865 2795 2824 2839 2774 2887 2885 2789 2846 2826 2805 2849 2767 2816 2812 2881 2873 2866 2875 2783 2825 2928 2822 2855 2851 2942 2872 2765 2906 2814 2834 2816 2787 2815 2825 2908 2797 2838 2898 2921 2853 2844 2875 2809 2818 2905 2827 2809 2724 2866 2804 2763 2816 2841 2845 2711 2865 2801 2786 2789 2821 2729 2870 2773 2818 2882 2823 2887 2858 2849 2829 2855 2849 2898 2842 2847 2926 2854 2762 2872 2926 2831 2831 2805 2855 2800 2857 2821 2843 2695 2861 2864 2845 2698 2816 2781 2779 2733 2754 2669 2751 2848 2745 2635 2745 2703 2673 2753 2757 2762 2800 2805 2651 2667 2724 2670 2575 2658 2676 2730 2715 2709 2666 2668 2710 2605 2794 2682 2669 2805 2651 2764 2669 2647 2643 2622 2620 2507 2615 2639 2617 2624 2710 2766 2660 2710 2707 2691 2663 2757 2698 2691 2708 2688 2781 2723 2682 2667 2778 2748 2750 2775 2677 2683 2817 2686 2715 2708 2755 2850 2806 2802 2879 2872 2903 2817 2909 2917 2898 2932 2998 3064 3086 3064 3180 3015 3163 3127 3286 3265 3121 3026 3172 3121 3101 3125 3032 3039 3005 2991 3005 3033 2904 3024 3043 3003 2939 2883 3019 2960 2966 2929 3030 2808 2959 3009 2994 2965 3027 3017 2978 3024 3084 3072 2992 3076 3052 3068 3059 3016 2960 2993 2950 3100 3050 3019 3038 2936 3015 2959 2963 2984 2965 3006 2988 3069 2920 2946 2903 3081 3033 3006 3032 3009 2976 3126 2926 2910 2975 3100 3083 2889 3071 2987 3020 2960 2999 3184 3076 3028 3042 3033 3050 2964 2980 3144 3056 3059 3032 3072 3047 3107 3151 3064 3001 3076 3094 3099 3028 3070 3062 3074 2975 3065 3071 3014 3036 3074 2997 3017 2991 2983 3106 3029 2975 3047 2954 2942 2973 3080 3015 3121 2978 2956 2930 3032 2949 2947 2967 3007 2950 2911 2991 2984 2959 2978 2993 2931 2983 2912 3008 2938 2923 2996 2966 2845 3020 2890 2879 2862 2885 3013 2778 2894 2912 2882 2914 2935 2799 2784 2808 2856 2933 2891 2861 2809 2948 2735 2898 2817 2922 2881 2888 2787 2805 2921 2868 2873 2810 2945 2915 2930 2969 2964 3007 3001 3049 3063 3172 3216 3193 3167 3167 3319 3226 3446 3412 3454 3519 3567 3743 3641 3784 3578 3514 3522 3461 3505 3444 3426 3413 3282 3233 3154 3091 3028 3001 3021 3014 3055 2805 2959 2921 2988 2838 2928 2904 2878 2734 2851 2893 2754 2833 2767 2715 2857 2805 2725 2779 2806 2790 2783 2702 2762 2655 2828 2692 2807 2649 2694 2642 2720 2678 2626 2542 2567 2565 2438 2713 2608 2602 2580 2477 2501 2594 2509 2552 2638 2484 2512 2586 2483 2541 2536 2517 2490 2529 2590 2579 2572 2469 2542 2575 2557 2468 2463 2563 2559 2533 2376 2405 2524 2497 2558 2533 2575 2508 2549 2566 2606 2601 2638 2621 2608 2519 2562 2577 2574 2494 2633 2652 2625 2471 2525 2538 2536 2543 2482 2559 2512 2417 2372 2444 2558 2515 2428 2509 2435 2449 2449 2532 2414 2435 2493 2379 2541 2399 2463 2498 2476 2455 2485 2528 2457 2373 2519 2418 2472 2376 2359 2410 2478 2456 2474 2433 2412 2457 2442 2353 2445 2370 2485 2467 2517 2441 2411 2429 2502 2397 2537 2469 2551 2400 2525 2483 2447 2404 2556 2541 2488 2572 2512 2633 2474 2631 2611 2718 2576 2698 2668 2738 2747 2904 2982 3025 3059 3203 3189 3405 3482 3648 3782 3870 4142 4221 4233 4512 4388 4378 4597 4583 4479 4340 4424 4215 4213 3872 3904 3639 3510 3485 3508 3085 3097 3071 2900 2925 2867 2836 2897 2798 2945 2879 2881 2844 2820 2980 2910 2905 2983 3035 3063 3044 3181 3187 3253 3154 3247 3359 3381 3385 3273 3261 3216 3218 3212 3285 3087 3084 3072 2950 2927 2817 2807 2749 2658 2602 2604 2619 2613 2466 2486 2505 2528 2502 2445 2431 2376 2400 2459 2548 2355 2460 2520 2385 2406 2482 2535 2487 2446 2484 2430 2511 2409 2492 2506 2439 2288 2410 2426 2325 2361 2296 2344 2324 2289 2260 2380 2245 2388 2312 2372 2251 2281 2284 2307 2219 2274 2331 2308 2229 2299 2271 2305 2216 2268 2312 2214 2263 2214 2277 2345 2223 2243 2319 2262 2276 2264 2293 2254 2248 2246 2230 2244 2324 2246 2246 2343 2312 2306 2317 2283 2322 2299 2426 2450 2461 2485 2527 2559 2544 2587 2585 2730 2653 2786 2837 2824 2935 2951 2904 2907 2895 2900 2930 2898 2829 2796 2772 2663 2703 2654 2528 2515 2440 2428 2456 2366 2371 2282 2325 2309 2403 2361 2342 2260 2258 2317 2326 2329 2209 2342 2284 2348 2258 2344 2367 2260 2317 2252 2213 2320 2147 2259 2216 2201 2188 2196 2167 2212 2219 2190 2131 2149 2205 2180 2036 2136 2060 2118 2028 2136 2180 2131 2147 2098 2035 2107 2074 2137 2031 2063 2131 2120 2039 2102 2130 2142 2001 2051 2122 2078 2060 2162 2059 2127 2048 2139 2092 2060 2133 2130 2100 2081 2110 2129 2076 2154 2029 2110 2058 2097 2147 2101 2057 2080 2113 2120 2137 2026 2088 2037 2122 2164 2133 2126 2146 2105 2093 2144 2184 2129 2201 2184 2104 2195 2155 2145 2095 2144 2092 2136 2031 2087 2086 2118 2157 2075 2189 2110 2109 2195 2097 2162 2147 2136 2181 2152 2078 2091 2031 2074 2071 2028 2141 2095 2199 2091 2067 2027 2152 2176 2050 2165 2107 2227 2157 2159 2167 2112 2142 2115 2181 2062 2226 2165 2181 2179 2187 2201 2269 2171 2212 2199 2174 2197 2204 2110 2158 2185 2204 2182 2112 2179 2092 2248 2150 2147 2104 2147 2159 2212 2108 2149 2189 2197 2106 2033 2121 2209 2086 2056 2178 2171 2183 2030 2139 1998 2088 2055 2027 2038 2069 2020 2047 2028 2023 2044 1993 2020 2037 2014 1927 2022 1995 1907 1988 1987 1992 1976 1960 1998 2050 1947 1927 1961 1953 1973 1866 1946 1928 1861 1978 1906 1824 1913 1913 1918 1924 1851 1943 1865 1939 1940 1918 1917 1835 1855 1794 1912 1825 1846 1843 1745 1797 1883 1635 1767 1872 1722 1866 1862 1819 1758 1768 1824 1762 1842 1801 1709 1779 1887 1778 1792 1841 1808 1823 1835 1795 1937 1853 1919 1809 1914 1973 2074 1961 1911 1927 1940 1912 1947 1835 1841 1950 1846 1823 1826 1787 1807 1796 1742 1806 1743 1722 1737 1659 1679 1680 1715 1696 1679 1741 1733 1647 1809 1701 1639 1760 1670 1634 1745 1733 1749 1753 1695 1797 1973 1831 1883 1927 2033 2015 2041 2159 2155 2212 2141 2237 2132 2154 2158 2164 2253 2134 2095 1988 2033 1948 1890 1859 1849 1821 1757 1760 1672 1677 1695 1675 1640 1604 1615 1567 1574 1623 1654 1676 1618 1589 1626 1644 1627 1625 1592 1693 1631 1604 1663 1616 1592 1550 1631 1558 1584 1485 1555 1551 1529 1616 1548 1520 1564 1580 1495 1543 1457 1425 1422 1443 1477 1462 1504 1491 1514 1483 1445 1427 1416 1531 1423 1431 1497 1409 1442 1460 1388 1425 1405 1450 1485 1506 1426 1391 1463 1430 1471 1457 1479 1441 1494 1459 1450 1393 1490 1495 1504 1459 1543 1452 1464 1457 1467 1498 1442 1405 1434 1537 1502 1432 1437 1485 1496 1357 1458 1458 1513 1503 1523 1436 1490 1490 1458 1476 1537 1510 1531 1515 1548 1476 1522 1495 1585 1552 1596 1510 1578 1560 1531 1531 1551 1530 1574 1505 1598 1514 1557 1550 1536 1541 1566 1494 1619 1546 1611 1503 1583 1567 1585 1581 1591 1560 1545 1610 1551 1609 1625 1597 1588 1671 1582 1587 1601 1621 1627 1561 1625 1578 1563 1629 1510 1576 1656 1544 1553 1578 1552 1546 1638 1487 1525 1543 1568 1455 1538 1478 1552 1550 1478 1404 1471 1450 1522 1529 1489 1527 1511 1477 1503 1508 1497 1522 1513 1473 1479 1412 1522 1443 1418 1463 1480 1431 1440 1483 1529 1452 1468 1374 1410 1415 1395 1424 1385 1407 1345 1474 1464 1484 1399 1451 1399 1413 1394 1385 1355 1483 1384 1407 1395 1356 1384 1422 1461 1437 1462 1367 1385 1384 1363 1359 1442 1404 1443 1458 1432 1436 1409 1375 1429 1427 1355 1402 1337 1413 1458 1330 1427 1441 1362 1377 1368 1425 1358 1437 1378 1358 1326 1377 1409 1407 1432 1353 1369 1445 1397 1382 1390 1356 1404 1434 1306 1349 1369 1383 1395 1463 1389 1425 1365 1329 1372 1322 1360 1399 1293 1359 1317 1253 1307 1328 1297 1367 1362 1377 1279 1353 1369 1430 1400 1420 1415 1434 1540 1492 1530 1615 1652 1604 1808 1912 1949 2119 2265 2301 2510 2684 2875 3023 3142 3285 3402 3553 3558 3534 3695 3719 3579 3717 3598 3587 3567 3422 3401 3253 3106 3033 2999 2870 2721 2575 2439 2429 2358 2197 2119 2277 2088 2080 2151 2247 2145 2374 2316 2391 2479 2630 2651 2691 2793 2768 2777 2795 2761 2855 2726 2600 2564 2416 2452 2279 2237 2098 2084 1936 1850 1795 1768 1737 1584 1633 1612 1556 1474 1527 1463 1563 1488 1400 1512 1457 1468 1473 1458 1432 1463 1484 1421 1488 1462 1417 1412 1473 1403 1338 1385 1324 1322 1273 1246 1321 1290 1236 1217 1253 1330 1249 1284 1338 1297 1282 1309 1387 1449 1646 1641 1711 1778 1746 1813 1821 1928 1973 2029 2028 2054 2103 2101 2069 2068 1963 1941 1954 1910 2013 2018 2082 2204 2165 2217 2202 2174 2191 2270 2357 2299 2205 2142 2120 2053 2063 1995 1926 1778 1733 1722 1642 1579 1473 1490 1346 1416 1407 1348 1318 1334 1220 1376 1281 1256 1258 1295 1216 1217 1260 1284 1261 1270 1285 1211 1315 1196 1233 1244 1226 1188 1192 1189 1206 1107 1213 1118 1098 1139 1079 1053 1061 1047 1138 1024 1113 1109 1037 1063 1085 1045 1138 1067 1095 1125 1129 1234 1200 1121 1189 1253 1359 1300 1261 1278 1293 1291 1273 1258 1238 1270 1248 1154 1182 1205 1196 1139 1113 1063 1070 1067 1029 1053 970 1027 1028 1007 1072 1035 1147 1069 1094 1079 1144 1126 1200 1322 1227 1290 1378 1288 1298 1316 1336 1326 1298 1315 1264 1176 1280 1160 1160 1184 1099 1184 1142 1056 1025 971 913 981 998 981 947 959 1049 931 983 947 987 1005 1014 1016 1023 1033 1042 989 1016 986 966 959 947 1043 946 964 1088 1034 1075 1012 1007 1024 1074 1022 1071 1042 1054 1063 1048 1122 1131 1110 1172 1107 1168 1154 1210 1242 1163 1218 1245 1228 1300 1332 1329 1291 1307 1317 1368 1346 1495 1515 1631 1683 1705 1879 2032 2243 2469 2564 2735 2914 3327 3469 3650 3954 4161 4253 4535 4579 4591 4750 4601 4673 4536 4495 4425 4208 4092 4042 3652 3404 3277 3070 2857 2670 2490 2437 2120 2008 1936 1891 1780 1734 1653 1586 1613 1567 1590 1565 1553 1560 1536 1590 1543 1544 1526 1487 1450 1473 1505 1364 1416 1361 1384 1284 1246 1231 1154 1119 1100 1043 1046 992 1031 969 973 952 920 929 875 914 851 900 924 876 898 974 932 944 1021 947 1020 1084 1130 1247 1281 1273 1467 1504 1665 1714 1842 1801 1889 1841 1851 1962 1974 1941 1862 1846 1808 1612 1475 1583 1524 1396 1331 1264 1160 1097 1114 994 968 963 982 922 957 844 964 912 951 922 956 952 1008 936 947 943 917 941 1009 969 915 915 886 881 897 830 877 826 829 808 805 815 779 757 760 754 712 724 809 755 776 804 718 732 715 795 738 767 732 786 752 719 785 809 770 847 769 757 782 730 803 801 753 717 762 742 768 815 788 737 728 754 735 717 733 750 726 688 732 768 788 714 715 709 695 756 715 702 689 694 703 735 739 740 750 706 688 695 681 714 723 749 684 675 696 697 691 719 697 734 701 727 682 733 709 683 737 728 672 697 707 738 697 683 692 686 703 745 676 673 671 684 704 708 670 707 710 658 693 677 674 682 679 730 677 734 717 742 690 738 719 722 752 771 814 753 762 797 814 783 821 833 858 750 843 871 867 869 846 883 858 854 885 881 861 865 968 937 935 956 874 954 942 893 972 988 1021 990 1012 1008 981 991 957 953 876 900 929 898 928 818 874 829 778 730 825 773 774 841 783 743 720 791 769 768 767 709 696 718 741 721 745 733 773 734 722 723 734 685 739 658 732 703 682 779 704 722 645 657 677 685 661 692 652 634 660 695 746 737 762 724 708 712 769 675 689 732 730 690 719 728 678 655 707 659 641 655 690 638 639 714 660 688 675 614 701 634 623 629 630 683 664 667 595 681 649 640 653 644 614 628 645 647 631 648 700 678 705 665 671 669 623 675 645 679 677 695 722 706 721 756 719 730 773 757 860 878 904 911 984 965 987 1004 1090 1062 1118 1133 1013 1091 1093 1068 979 1027 993 924 910 870 900 838 800 751 759 758 734 704 683 641 685 767 655 684 669 626 651 671 643 729 672 669 702 672 704 677 637 647 664 694 670 652 606 661 639 619 643 606 606 557 616 635 606 647 582 584 645 584 600 602 656 628 647 635 599 614 647 637 587 648 627 611 601 612 638 718 605 638 636 655 679 644 718 664 692 675 683 689 671 614 674 665 686 665 658 646 653 649 618 611 644 626 623 635 607 568 634 599 605 629 617 580 615 611 583 595 594 616 596 570 576 567 574 552 602 578 590 613 549 574 589 594 578 545 558 535 640 565 574 583 557 591 586 585 593 572 575 594 602 604 547 564 568 583 596 604 591 639 574 565 555 544 600 651 579 594 657 664 657 609 680 734 699 776 793 765 816 830 840 827 855 829 865 896 847 858 883 854 848 790 787 775 709 703 653 674 655 643 635 643 671 650 580 617 601 617 629 631 585 597 636 599 573 642 623 589 655 597 640 661 624 628 625 593 681 626 602 601 571 599 616 589 649 689 646 687 734 733 714 712 715 704 744 782 745 723 716 749 719 702 697 765 747 770 720 777 722 798 728 768 822 766 773 770 809 783 832 806 811 817 804 772 733 735 754 733 717 687 727 692 684 666 630 638 655 633 662 673 630 647 647 610 675 601 618 646 615 718 602 621 582 569 588 591 624 508 579 587 599 487 573 524 559 561 533 529 541 489 538 550 510 550 518 529 526 614 556 548 541 554 525 548 497 572 523 564 583 578 578 562 594 563 592 579 637 625 583 619 657 583 672 645 615 608 647 612 670 656 638 681 658 628 591 676 606 643 608 655 602 575 552 591 577 563 611 536 568 589 566 560 569 573 593 554 531 544 618 597 606 582 580 538 604 566 581 583 555 568 574 597 583 581 603 578 588 579 578 642 657 641 668 740 797 828 882 902 942 1006 1021 1124 1121 1137 1155 1189 1218 1173 1167 1152 1152 1119 1110 1105 990 1014 940 956 833 807 806 806 709 699 693 621 638 684 620 607 623 593 625 607 600 616 626 628 599 629 598 597 579 590 561 590 605 599 614 577 586 572 586 584 503 573 572 525 574 548 526 558 494 539 536 517 559 576 525 589 505 555 556 532 537 504 523 496 512 531 552 489 511 512 511 536 501 551 491 551 494 565 537 576 557 523 550 554 554 528 578 576 588 589 605 531 509 550 543 551 560 522 487 541 573 542 523 518 504 515 517 539 483 474 535 517 497 485 481 460 476 502 554 493 468 456 516 477 520 522 539 514 497 550 521 547 567 557 549 566 546 570 595 618 603 598 602 554 580 563 569 548 589 560 637 567 569 536 569 537 599 552 586 667 626 639 587 673 695 667 614 639 704 642 629 683 680 706 679 644 646 638 635 581 625 629 556 593 606 527 540 513 493 518 505 516 500 484 524 498 527 524 563 483 527 506 571 495 547 482 547 510 532 471 445 506 506 513 500 516 474 497 478 478 455 473 441 459 477 468 438 464 472 463 458 476 434 454 467 475 473 496 450 464 462 482 481 488 459 446 467 460 498 481 469 462 473 491 501 518 498 499 555 549 582 591 569 613 629 678 654 743 797 800 829 838 862 893 857 910 935 924 891 853 890 841 834 812 794 785 742 669 648 689 621 646 642 579 611 606 541 554 574 568 586 576 571 584 558 582 555 630 587 567 613 552 563 573 575 566 576 567 566 573 526 503 523 506 452 494 479 498 506 483 475 499 475 462 504 482 492 468 501 460 454 485 462 489 447 432 502 445 475 499 526 459 482 499 505 540 477 593 529 618 574 590 625 654 650 631 697 692 733 734 669 684 732 703 666 655 622 627 651 593 631 566 623 609 554 578 581 527 535 473 494 501 515 550 489 539 549 482 541 492 549 486 448 499 512 501 513 478 518 481 468 467 543 481 515 524 475 511 518 511 539 536 533 565 518 557 532 572 572 631 611 572 608 596 594 593 597 562 588 618 593 571 547 532 494 543 517 491 496 478 520 497 514 536 512 498 463 486 511 468 544 498 528 514 518 515 505 540 527 473 509 493 551 510 560 509 569 529 573 537 543 547 609 659 654 601 676 652 662 697 636 717 677 683 703 703 664 709 717 676 702 728 643 714 701 697 693 661 689 687 684 621 641 647 606 599 609 619 613 616 571 590 605 620 576 567 636 604 546 567 548 544 542 558 597 576 629 578 644 616 672 670 718 693 652 650 653 585 633 642 626 591 606 554 601 555 577 509 517 532 480 494 487 477 500 468 515 470 503 489 470 450 446 476 514 467 500 454 463 471 450 442 462 446 448 468 464 432 448 437 455 446 471 434 464 459 484 471 481 456 422 470 423 400 411 476 447 428 434 486 458 457 464 461 464 476 484 490 464 550 500 500 541 498 532 524 518 539 563 676 577 647 673 712 733 726 768 828 814 866 861 911 896 896 880 959 911 977 959 1004 978 1027 988 1005 982 966 920 887 903 841 801 802 816 810 756 760 713 737 742 727 669 662 641 703 682 640 717 604 605 677 628 629 628 664 603 595 644 637 613 636 594 563 569 583 609 551 632 561 607 559 566 543 536 565 595 519 548 533 535 497 503 551 520 537 481 565 530 545 501 531 535 518 532 539 548 522 509 476 529 563 616 524 604 604 608 575 615 615 639 632 672 709 726 747 833 833 844 885 997 960 1130 1194 1174 1195 1269 1253 1222 1313 1236 1220 1301 1272 1380 1445 1433 1418 1456 1607 1588 1681 1702 1807 1833 1882 1863 1883 1907 1905 1817 1794 1746 1680 1704 1611 1509 1589 1557 1468 1449 1378 1389 1315 1190 1174 1125 1096 975 988 959 887 880 874 825 837 775 754 769 789 802 767 741 736 668 682 695 644 620 614 618 630 631 558 589 585 556 541 532 570 519 497 524 464 508 531 537 544 455 490 545 488 487 483 441 503 467 505 429 445 480 442 491 450 500 477 482 441 474 465 474 447 463 429 468 439 447 481 495 443 412 423 457 459 452 411 389 439 407 467 448 435 432 407 421 447 422 421 404 456 405 416 425 429 457 444 421 441 455 445 472 467 438 455 435 426 488 449 443 428 463 453 434 460 426 417 423 418 415 435 409 453 388 408 436 426 433 401 386 430 407 462 421 436 433 434 440 435 425 521 417 433 450 443 460 461 435 481 510 449 461 493 472 471 505 499 507 512 507 489 462 451 501 459 457 472 432 471 484 417 461 430 473 431 468 437 458 433 446 454 421 436 437 471 488 442 441 458 446 451 485 472 457 460 390 451 467 432 443 448 461 432 460 435 433 452 477 442 483 444 459 454 520 484 460 438 489 462 458 456 489 527 488 514 474 510 516 545 570 495 513 484 478 527 452 478 497 476 480 464 519 513 493 485 545 500 536 546 508 529 496 534 572 496 534 530 528 490 540 525 496 524 514 522 462 508 467 521 406 479 419 444 449 461 478 415 431 437 431 487 447 468 398 451 433 409 438 452 436 439 471 418 436 483 470 450 461 468 469 455 439 478 481 472 463 447 507 455 458 484 489 496 512 463 515 501 520 526 577 539 591 581 590 593 678 723 733 773 905 1024 1100 1262 1366 1497 1607 1899 2015 1965 2238 2277 2411 2447 2376 2225 2087 2157 2093 2071 1978 1908 1854 1831 1809 1708 1664 1546 1456 1360 1353 1317 1180 1143 1078 1068 974 886 858 832 875 801 774 809 765 822 732 727 752 702 730 701 677 660 661 614 662 604 612 622 526 562 565 498 572 551 532 466 476 512 467 445 485 444 433 467 461 409 433 401 446 428 430 406 469 414 429 387 426 426 424 402 428 408 401 432 370 411 355 395 367 394 389 413 390 416 401 439 387 436 378 371 396 359 439 408 364 393 387 432 393 395 392 409 396 389 403 380 391 377 404 417 386 405 393 365 383 358 405 354 376 359 390 380 381 388 422 389 414 436 388 422 443 471 467 458 497 457 511 452 488 433 446 476 483 454 446 448 413 452 411 445 416 381 404 414 382 366 371 399 374 457 381 378 422 363 395 377 367 364 376 375 360 357 366 379 367 387 379 354 360 350 383 373 340 366 353 342 340 405 321 354 357 347 353 364 372 321 374 384 343 311 383 363 365 370 356 343 413 366 375 362 348 338 331 367 352 385 365 401 378 402 372 397 356 413 365 387 391 399 403 365 371 366 369 338 413 348 364 365 376 410 349 391 347 381 345 398 371 364 384 384 346 405 355 386 391 346 382 343 367 365 353 337 338 386 362 349 341 348 365 358 340 351 364 374 354 379 334 357 357 316 381 342 383 330 336 323 317 334 359 344 333 367 346 336 323 340 299 362 360 324 349 339 313 335 324 316 339 355 347 331 350 336 351 350 335 363 353 334 323 323 368 340 320 348 330 319 340 366 365 386 349 356 342 351 357 342 365 372 356 350 367 336 372 357 390 348 339 368 323 367 344 327 349 368 360 352 378 361 399 367 369 374 399 397 390 392 418 456 451 488 482 469 458 487 463 429 451 481 469 492 445 421 441 374 439 445 451 449 436 470 446 450 434 400 396 445 438 463 384 445 402 404 404 423 416 414 436 363 456 383 382 404 375 402 400 374 406 416 422 404 400 401 403 371 389 369 420 416 384 397 395 414 439 435 420 439 467 465 464 515 471 489 496 487 537 489 569 584 550 542 572 552 568 621 639 649 677 615 693 655 594 611 662 608 597 582 540 602 564 581 573 555 542 518 521 518 483 500 495 500 498 542 504 524 504 481 513 506 478 544 535 529 529 499 458 492 460 440 494 489 479 495 494 531 455 457 455 450 436 433 418 420 445 424 409 419 420 401 429 421 435 392 443 469 464 481 469 500 488 481 494 440 487 474 494 542 498 534 507 497 475 520 484 522 501 458 459 471 423 483 458 476 466 458 445 440 477 465 503 506 487 509 567 509 550 530 548 584 558 579 610 524 543 517 547 525 453 496 518 508 497 478 484 497 516 480 520 481 502 461 482 475 480 480 488 447 457 424 409 423 421 426 385 427 402 428 406 400 386 403 429 416 388 401 379 404 444 405 408 418 389 430 442 430 433 474 439 408 445 491 453 503 434 453 448 441 488 466 469 472 478 459 494 458 443 439 426 447 436 448 439 433 450 420 441 393 406 443 376 424 424 437 441 445 442 405 420 399 387 403 387 382 395 383 365 394 372 379 370 358 370 381 349 354 348 313 320 337 306 340 346 319 328 313 355 317 312 323 325 314 344 313 301 282 308 296 305 295 348 327 350 311 327 321 369 347 340 312 326 304 360 347 350 366 318 368 345 307 316 318 354 324 348 348 298 337 352 357 366 319 315 374 364 352 316 345 347 356 349 320 333 305 352 337 357 321 319 302 311 328 277 300 337 325 340 288 313 281 278 270 288 285 286 317 318 310 307 313 277 284 331 296 291 287 320 312 292 285 272 332 287 276 289 297 311 344 299 300 306 289 282 271 278 279 282 302 267 297 316 274 293 298 292 280 296 294 298 310 297 283 298 308 320 342 350 322 327 316 361 339 343 350 367 342 389 376 403 385 408 382 413 392 365 375 372 345 358 383 397 371 361 381 333 334 386 353 373 332 323 346 352 339 337 311 310 330 299 339 312 337 292 312 306 288 321 328 341 294 301 314 289 325 354 333 298 301 293 291 301 293 322 286 321 293 305 294 296 307 311 319 306 312 313 286 279 307 298 293 297 265 298 287 279 317 287 288 268 288 281 330 276 310 273 303 322 286 326 333 269 297 303 309 274 295 281 303 304 291 284 314 343 287 343 314 319 303 296 341 329 289 312 291 292 352 318 314 352 340 347 359 358 343 383 362 345 364 340 328 307 338 320 342 312 315 338 319 308 321 345 318 360 335 361 334 335 323 353 270 319 314 309 281 304 321 296 357 305 304 335 320 321 277 304 319 305 355 295 325 326 291 331 324 353 362 341 391 375 385 372 453 461 413 458 452 479 454 474 437 439 451 445 402 451 444 417 434 425 389 402 424 377 380 413 416 379 346 388 356 406 384 327 343 335 358 355 359 356 352 305 340 328 331 338 314 321 316 280 320 335 351 303 334 331 323 260 334 283 299 304 269 301 273 300 290 291 327 294 297 288 263 305 302 283 304 300 315 292 282 312 343 319 333 310 337 321 293 330 300 315 295 306 337 319 295 309 283 315 290 282 318 310 314 310 309 339 310 313 316 320 346 320 287 322 326 366 348 317 319 321 324 328 329 332 334 368 302 326 285 313 310 308 295 331 330 340 340 359 343 341 342 325 306 324 325 334 324 332 327 316 347 334 315 358 359 339 344 341 374 382 385 391 355 387 357 344 332 365 333 321 368 324 302 345 323 342 361 304 328 306 335 294 303 345 299 302 306 321 299 279 285 312 292 312 311 312 281 279 287 285 288 300 260 279 292 300 279 294 271 297 306 300 305 276 293 278 303 305 296 314 303 289 306 276 336 309 285 305 286 298 290 269 275 268 289 291 273 281 266 301 239 248 278 279 305 269 280 279 264 275 267 260 281 247 262 259 273 285 264 261 279 273 260 247 250 283 290 284 243 256 277 228 245 286 262 234 263 240 260 266 269 236 240 245 240 260 261 276 278 239 239 269 277 273 263 262 238 240 220 246 265 246 245 273 240 265 280 232 272 251 271 294 224 267 282 256 285 296 299 296 289 277 273 327 290 307 263 284 265 287 289 263 267 257 290 242 259 264 273 266 263 266 292 225 301 273 264 250 267 238 287 233 246 232 234 269 243 242 258 240 283 243 247 225 238 278 256 250 271 242 234 226 243 225 296 266 280 266 243 266 240 247 259 277 290 260 249 296 283 277 304 292 297 271 279 247 277 237 257 281 289 215 272 308 287 303 295 289 287 293 323 299 250 290 293 277 261 316 314 328 274 279 310 314 295 307 280 305 272 300 290 276 245 315 271 314 258 298 302 299 295 289 268 289 293 277 294 273 249 277 288 265 269 262 287 297 290 251 299 249 313 256 274 282 240 269 289 265 241 239 272 269 242 290 283 257 274 266 258 258 247 245 272 265 239 290 232 265 268 234 238 232 291 259 261 286 284 298 270 267 273 257 260 262 269 280 246 272 262 313 295 308 290 270 311 297 279 346 331 337 337 330 321 354 337 349 336 315 315 343 288 326 275 291 301 306 319 279 296 307 312 287 299 326 294 302 290 300 281 291 287 257 300 267 267 298 297 286 284 287 265 236 264 286 246 267 241 256 241 257 258 274 220 268 259 277 239 284 281 227 262 238 266 262 296 259 287 282 246 312 263 268 257 317 285 291 242 277 285 296 273 287 320 294 288 292 286 285 264 297 278 303 284 277 289 319 304 312 335 284 295 302 270 306 308 306 264 292 275 278 243 263 281 286 259 279 268 274 266 274 257 306 248 263 263 259 243 239 270 237 232 238 225 243 227 285 263 250 262 232 280 212 262 230 244 228 243 241 242 259 233 268 263 220 241 247 242 247 265 265 261 240 244 248 248 248 261 234 257 227 246 266 274 231 231 246 266 245 240 244 282 280 224 213 225 236 225 247 214 248 225 232 239 263 268 251 265 244 237 229 225 259 243 264 230 266 248 247 242 250 242 231 240 231 246 259 257 249 200 261 225 276 240 264 230 273 243 286 246 245 228 248 225 246 241 275 271 273 226 267 246 216 228 275 247 257 242 230 257 273 245 243 225 233 248 264 232 264 225 256 265 288 295 257 279 273 288 234 277 270 262 263 259 283 272 259 248 258 288 283 326 280 281 235 241 269 283 286 293 267 293 243 249 309 267 265 241 246 262 286 239 273 305 257 270 268 274 300 304 277 274 292 276 291 287 279 288 282 274 283 256 277 238 250 262 250 275 250 256 248 259 220 282 244 270 270 267 266 283 278 232 287 266 243 239 286 231 249 263 270 243 248 260 271 226 243 235 240 268 212 246 263 282 279 242 258 230 265 250 233 232 251 283 229 250 247 286 258 221 221 266 267 236 242 249 258 298 265 282 283 270 281 292 233 283 278 292 270 279 262 280 246 281 302 307 286 289 321 306 306 284 272 282 299 256 282 264 305 279 291 280 284 276 306 276 298 314 262 322 290 270 279 264 278 275 296 276 286 282 243 274 294 282 245 281 283 256 285 277 290 269 275 294 285 296 301 295 266 261 276 280 283 268 264 287 310 283 305 300 280 284 310 322 325 368 342 348 372 351 382 397 456 461 495 489 486 524 473 477 522 495 525 526 451 452 443 448 462 410 464 440 454 513 541 515 508 528 520 510 509 488 447 442 477 420 393 424 417 376 429 435 395 386 388 340 357 375 343 382 342 322 403 323 338 299 293 342 332 298 342 274 270 275 312 273 289 262 267 279 293 272 285 286 289 283 262 300 248 263 266 277 241 273 272 280 242 269 276 289 265 245 271 278 249 208 236 239 249 242 268 227 245 259 243 283 229 228 246 260 240 221 257 278 240 260 256 222 248 239 281 225 269 234 242 236 276 243 243 246 263 267 237 239 240 279 270 264 247 243 270 240 268 237 237 281 241 266 288 242 242 229 261 275 258 242 250 264 233 225 282 301 290 262 284 273 249 287 274 234 247 243 243 263 268 279 272 267 241 280 243 236 263 240 277 259 295 248 267 267 273 263 251 285 269 246 289 281 270 232 279 260 241 261 265 228 282 248 236 235 278 285 266 256 269 257 280 243 270 245 268 256 290 257 279 277 272 275 267 249 281 258 238 264 244 244 242 231 249 241 231 225 258 260 250 266 233 241 230 259 233 258 245 228 232 264 237 289 259 239 275 243 256 241 259 229 282 214 269 262 256 250 262 258 265 236 241 256 261 263 266 256 248 258 278 277 265 261 266 286 284 280 243 260 271 276 276 305 264 295 321 291 296 299 281 311 296 294 352 298 347 306 340 314 292 265 291 290 326 311 290 310 322 324 315 320 304 318 327 334 312 281 293 340 290 295 299 279 284 297 296 264 279 308 303 283 289 314 325 325 329 322 313 293 296 311 288 318 327 338 291 350 301 304 322 303 331 329 324 355 331 347 368 316 333 313 343 321 320 307 304 354 310 337 295 335 310 307 303 337 307 321 316 328 316 294 257 284 308 315 333 339 287 359 319 297 281 280 321 294 300 290 323 316 319 294 324 326 341 318 344 291 321 301 289 308 316 315 299 305 289 313 296 308 321 284 287 296 318 322 301 315 318 294 304 291 288 259 305 304 333 334 320 283 305 296 286 272 279 278 269 276 288 312 310 299 290 260 297 270 294 258 277 291 286 293 289 261 307 311 309 313 310 330 282 311 319 346 292 363 324 342 323 305 319 293 331 327 296 339 322 293 337 291 333 305 351 304 324 327 358 326 341 345 380 349 340 339 360 370 306 339 389 342 354 335 343 329 364 333 348 347 367 343 379 335 332 339 359 328 338 357 360 351 338 325 329 354 336 323 367 333 339 329 342 357 326 303 327 328 315 337 309 318 301 295 318 312 312 328 319 292 337 320 346 336 341 333 362 334 331 332 303 352 348 356 323 344 342 351 326 325 318 325 360 317 358 378 325 336 371 317 313 317 332 313 326 311 335 302 308 293 288 293 318 294 279 320 309 295 293 277 317 328 279 284 290 281 259 295 278 310 279 273 280 245 260 238 273 286 310 301 270 216 229 282 250 222 234 234 246 290 303 274 267 262 250 295 272 205 243 258 272 248 258 248 265 259 222 235 246 277 239 260 239 293 261 239 220 265 274 234 261 290 276 271 263 269 274 266 291 269 262 286 268 263 285 286 263 283 298 275 271 270 287 302 283 289 265 286 279 256 257 267 292 264 299 261 285 296 283 309 299 303 339 278 317 326 307 323 270 306 269 290 325 275 308 317 277 287 271 300 268 295 269 299 330 284 269 316 300 323 296 259 291 342 297 316 298 308 356 323 335 307 303 296 314 261 271 286 287 283 271 284 297 264 289 268 290 309 298 328 294 296 313 274 317 283 307 301 286 269 308 312 242 298 278 268 257 267 248 269 290 324 278 285 323 264 245 288 270 283 268 248 267 271 264 300 272 273 258 284 243 240 272 271 257 239 264 244 247 245 306 241 237 260 268 269 246 261 271 239 266 224 248 271 244 263 292 233 240 265 257 275 277 256 236 265 260 283 269 269 230 238 271 279 265 235 304 305 262 316 315 281 305 282 305 312 312 319 302 309 326 294 312 330 299 308 318 313 321 325 313 261 271 279 300 293 270 346 289 279 282 281 276 291 281 301 262 277 272 263 282 260 296 307 278 269 275 258 263 256 303 274 272 251 284 297 244 282 274 250 262 228 237 244 230 250 269 247 270 233 258 278 243 260 263 266 262 247 293 315 280 247 256 204 263 262 245 268 267 267 217 238 262 283 230 236 242 284 267 227 299 245 245 230 228 241 242 263 245 257 245 256 221 227 247 258 215 287 258 274 283 259 259 282 262 259 285 242 279 268 277 288 284 289 273 241 273 242 272 257 287 275 286 258 297 281 282 271 301 274 282 238 266 281 284 239 248 277 267 229 243 225 286 274 274 260 245 273 284 264 225 261 241 258 260 271 243 232 243 276 274 241 266 247 273 243 256 273 233 244 244 232 278 246 259 269 248 245 290 272 280 256 245 236 258 239 231 242 249 230 264 257 234 286 243 225 227 224 269 229 276 247 241 249 256 247 214 234 219 239 214 237 249 267 244 262 238 261 265 260 216 264 215 221 245 204 232 209 217 232 238 209 236 240 259 203 264 238 236 257 236 237 235 248 222 268 258 246 242 266 231 239 217 231 216 278 281 231 249 263 244 208 231 257 265 240 223 225 258 250 224 265 239 241 239 228 247 247 214 245 242 240 270 248 268 223 235 269 269 228 245 264 245 319 247 272 259 279 257 268 292 235 278 232 248 249 281 275 227 275 297 262 271 262 269 240 238 274 237 235 249 235 278 248 286 273 243 230 285 270 265 274 227 238 258 257 243 282 240 278 259 257 238 271 281 262 256 256 246 218 267 257 245 232 259 282 285 262 202 234 258 219 251 264 259 228 235 266 272 246 246 238 258 236 269 237 220 263 210 260 231 284 245 237 267 246 233 237 240 215 290 283 271 259 243 230 233 250 236 225 240 219 215 245 244 246 238 216 232 246 271 277 247 266 287 247 241 277 236 238 289 242 245 243 275 261 242 229 266 278 261 295 260 278 256 284 262 290 285 259 263 277 268 279 288 259 276 268 249 266 234 296 275 287 287 270 272 271 257 261 235 270 283 263 247 277 260 257 284 266 221 228 234 280 277 279 262 298 231 271 256 262 242 218 235 269 240 251 240 264 243 273 211 270 290 240 262 278 246 275 234 265 250 236 240 248 232 293 206 231 266 261 247 245 238 226 256 222 262 234 223 236 258 229 231 215 261 236 260 216 232 215 259 251 230 243 196 231 230 201 245 223 196 227 257 250 227 261 258 237 241 265 225 216 275 269 292 266 275 237 273 239 226 210 272 241 241 223 240 235 237 250 212 275 263 248 247 248 244 260 244 267 233 272 216 256 276 242 275 240 273 224 243 231 220 271 277 248 227 228 240 244 258 283 241 277 264 258 261 245 273 285 294 249 263 263 238 262 211 249 232 258 261 230 242 258 269 261 257 273 273 271 259 243 273 272 246 243 247 263 247 266 275 296 311 272 308 294 276 310 277 313 298 344 299 280 306 283 294 320 287 328 297 307 307 287 297 313 315 325 326 295 310 278 279 287 296 277 300 295 283 268 293 270 282 321 257 279 285 286 295 280 303 302 287 286 296 281 302 248 288 285 293 278 274 294 312 298 317 274 311 308 283 301 266 259 260 288 293 240 241 281 265 219 266 228 266 269 235 266 242 281 249 283 324 285 284 288 275 264 279 296 275 264 285 274 289 318 313 289 280 268 304 264 273 286 249 245 242 242 235 243 275 243 240 243 239 292 271 233 249 241 242 260 237 242 294 283 272 262 248 266 286 278 264 285 241 301 302 250 260 317 265 272 269 273 272 277 273 283 242 262 293 230 251 269 294 233 279 229 279 227 278 261 263 272 239 244 247 266 311 258 267 248 247 239 295 222 280 256 233 238 246 275 269 266 292 298 269 246 242 286 277 245 267 257 274 242 221 216 260 241 264 245 235 262 247 249 247 225 241 266 281 248 284 256 248 256 278 240 250 245 259 265 266 294 240 267 241 242 234 246 238 274 242 242 301 284 249 239 258 262 259 275 272 227 259 264 216 268 258 258 226 244 241 279 241 243 241 240 262 249 247 229 269 276 283 261 301 249 295 265 247 284 309 285 259 308 280 233 305 274 292 244 264 273 307 282 313 318 321 338 341 347 350 376 329 339 368 348 356 356 356 333 338 350 319 342 326 332 341 342 381 361 394 325 376 385 390 365 374 362 385 402 383 380 360 413 373 370 360 387 390 365 361 373 367 382 362 366 359 311 332 338 335 358 325 336 298 327 355 357 327 374 323 340 328 343 274 304 323 309 305 283 312 313 289 307 294 270 284 269 242 281 262 243 246 260 242 277 236 212 217 278 242 265 244 259 245 243 231 225 245 281 251 228 265 234 197 212 225 235 265 225 228 216 236 210 213 231 267 244 237 233 235 193 236 232 219 224 240 247 250 239 240 203 244 238 216 290 231 256 257 250 215 242 214 211 204 235 246 239 211 224 217 228 232 260 238 224 238 226 229 238 247 236 273 225 259 260 226 226 215 233 241 202 235 225 262 218 197 257 195 223 191 245 207 236 229 228 269 215 250 230 244 231 235 228 228 260 207 204 221 216 200 239 249 224 236 227 224 188 239 228 225 222 206 248 218 233 246 217 215 225 212 224 248 233 233 196 242 216 225 214 226 209 258 219 294 227 245 250 269 227 222 218 220 219 225 219 228 248 221 230 230 271 230 240 237 256 236 229 241 241 226 222 216 213 217 232 232 243 243 220 239 250 230 259 233 237 257 266 270 265 266 246 282 233 296 233 279 270 284 231 225 246 237 245 240 274 239 234 282 243 259 264 276 257 233 267 262 271 272 271 244 270 282 275 241 244 244 265 242 239 222 241 280 232 264 211 227 219 235 246 236 246 247 270 201 208 256 260 246 230 258 234 225 233 213 220 240 230 219 230 264 220 229 226 240 245 232 215 216 262 231 258 217 263 229 214 236 217 240 222 207 214 228 192 239 232 218 232 231 234 243 244 243 281 273 269 286 277 227 286 272 266 264 266 277 221 246 263 249 242 288 249 231 264 248 262 242 231 247 228 241 222 240 256 235 285 229 265 292 280 258 245 258 287 265 266 245 290 284 290 299 286 242 297 286 278 279 285 282 271 291 223 248 274</counts>
			</dataPoints>
		</scan>
	</xrdMeasurement>
</xrdMeasurements>
