<?xml version="1.0"?>
<xrdMeasurements xmlns="http://www.xrdml.com/XRDMeasurement/2.3" xmlns:xsi="http://www.w3.org/2001/XMLSchema-instance" xsi:schemaLocation="http://www.xrdml.com/XRDMeasurement/2.3 http://www.xrdml.com/XRDMeasurement/2.3/XRDMeasurement.xsd" status="Completed" recordIdentifier="{5DCD0F67-61D5-427D-9864-B1EC41CCACE7}">
	<comment>
		<entry/>
	</comment>
	<sample type="To be analyzed">
		<id>GPSS_Li1p6Fe0p2Mg0p6Zr0p2Cl4_111725_691b7e20f3837ac4a0a99382</id>
		<name></name>
		<preparedBy></preparedBy>
	</sample>
	<xrdMeasurement measurementType="Scan" status="Completed" sampleMode="Reflection">
		<usedWavelength intended="K-Alpha 1">
			<kAlpha1 unit="Angstrom">1.5405980</kAlpha1>
			<kAlpha2 unit="Angstrom">1.5444260</kAlpha2>
			<kBeta unit="Angstrom">1.3922500</kBeta>
			<ratioKAlpha2KAlpha1>0.5000</ratioKAlpha2KAlpha1>
		</usedWavelength>
		<incidentBeamPath>
			<radius unit="mm">145.00</radius>
			<xRayTube id="1010048" name="Empyrean Cu LFF HR (9430 033 7310x)">
				<tension unit="kV">40.0</tension>
				<current unit="mA">15.0</current>
				<anodeMaterial>Cu</anodeMaterial>
				<focus type="Line">
					<length unit="mm">12.0</length>
					<width unit="mm">0.4</width>
					<takeOffAngle unit="deg">6.0</takeOffAngle>
				</focus>
			</xRayTube>
			<sollerSlit id="21010002" name="Soller slits 0.04 rad.">
				<opening unit="rad">0.0400</opening>
			</sollerSlit>
			<mask id="22031000" name="Fixed mask 13 mm">
				<width unit="mm">9.00</width>
			</mask>
			<divergenceSlit id="22120001" name="Divergence slit 1°" xsi:type="fixedDivergenceSlitType">
				<distanceToSample unit="mm">50.00</distanceToSample>
				<height unit="mm">1.52</height>
			</divergenceSlit>
		</incidentBeamPath>
		<sampleMovement xsi:type="spinningSampleMovementType">
			<spinnerRevolutionTime unit="seconds">1.0</spinnerRevolutionTime>
		</sampleMovement>
		<diffractedBeamPath>
			<radius unit="mm">145.00</radius>
			<antiScatterSlit id="22090040" name="AS slit 9 mm (PIXcel)" xsi:type="fixedAntiScatterSlitType">
				<height unit="mm">9.00</height>
			</antiScatterSlit>
			<sollerSlit id="21020003" name="Large Soller slits 0.04 rad.">
				<opening unit="rad">0.0400</opening>
			</sollerSlit>
			<filter id="20030001" name="Large beta-filter Nickel">
				<material>Ni</material>
				<thickness unit="mm">0.020</thickness>
			</filter>
			<detector id="7010019" name="PIXcel1D-Medipix3 detector" xsi:type="rtmsDetectorType">
				<phd unit="keV">
					<lowerLevel>4.02</lowerLevel>
					<upperLevel>11.27</upperLevel>
				</phd>
				<mode>Scanning</mode>
				<activeLength unit="deg">5.542</activeLength>
			</detector>
		</diffractedBeamPath>
		<scan appendNumber="0" mode="Continuous" scanAxis="Gonio" status="Completed">
			<header>
				<startTimeStamp>2025-11-19T11:05:58-08:00</startTimeStamp>
				<endTimeStamp>2025-11-19T11:14:05-08:00</endTimeStamp>
				<author>
					<name>AutomatedUser</name>
				</author>
				<source>
					<applicationSoftware version="1.7b (136)">PANalytical Aeris Instrument Suite</applicationSoftware>
					<instrumentControlSoftware version="3.2.00000000 20240306">AERIS</instrumentControlSoftware>
					<instrumentID>950485</instrumentID>
				</source>
			</header>
			<dataPoints>
				<positions axis="2Theta" unit="deg">
					<startPosition>10.00943322</startPosition>
					<endPosition>99.99442286</endPosition>
				</positions>
				<positions axis="Omega" unit="deg">
					<startPosition>5.00471661</startPosition>
					<endPosition>49.99721143</endPosition>
				</positions>
				<commonCountingTime unit="seconds">12.495</commonCountingTime>
				<counts unit="counts">2672 2787 2662 2723 2794 2756 2797 2754 2754 2797 2750 2831 2715 2746 2770 2781 2801 2707 2774 2812 2703 2743 2782 2797 2619 2768 2712 2733 2739 2782 2732 2791 2790 2755 2802 2837 2779 2849 2762 2793 2678 2847 2774 2866 2813 2777 2673 2786 2769 2769 2863 2768 2748 2890 2890 2872 2835 2828 2798 2789 2787 2690 2760 2829 2769 2790 2824 2774 2793 2789 2844 2817 2828 2732 2698 2806 2814 2938 2830 2900 2826 2781 2784 2715 2853 2856 2831 2772 2717 2877 2934 2863 2833 2892 2927 2830 2786 2795 2877 2908 2795 2832 2795 2855 2779 2805 2850 2871 2826 2885 2836 2854 2846 2877 2790 2790 2855 2782 2896 2847 2857 2825 2861 2974 2823 2964 2841 2835 2863 2892 2961 2852 2837 2873 2956 2822 2835 2931 2870 2897 3000 2920 2874 2849 2865 2942 2788 2913 2800 2881 2893 2895 2930 2851 2917 2855 2836 2875 2910 2862 2909 2838 2933 2826 2838 2917 2874 2884 2771 2886 2872 2840 2877 2840 2840 2877 2872 2775 2879 2859 2960 2902 2816 2917 2808 2860 2909 2844 2820 2859 2823 2828 2900 2874 2884 2830 2823 3043 2897 2885 2846 2783 2868 2906 2886 2924 2931 2866 2949 2986 2835 2808 2901 2859 2935 2826 2893 2826 2776 2849 2919 2875 2766 3015 2903 2894 2837 2828 2938 2843 2886 3055 2868 2875 2898 2817 2894 3009 2913 2881 2908 2844 2821 2791 2908 2925 2852 2777 2799 2894 2846 2859 2886 2775 2900 2843 2907 2859 2866 2942 2965 2816 2933 2836 2860 2915 2925 2804 2979 2827 2918 2880 2943 2901 2989 2930 2829 2936 2821 2946 2962 2956 2891 2921 3004 2953 2807 2858 2950 2860 2922 2867 2921 2941 2842 2889 2843 2980 2958 2811 2935 2825 2915 2903 2932 2870 2956 2915 3006 2935 3052 3019 2888 2902 3064 2942 2989 2896 2947 2946 2950 2992 3007 2903 3101 2995 3008 3041 3082 2961 3049 2999 3102 2973 3056 3049 3039 3063 3119 3080 3058 3013 2972 3176 3090 3001 3108 3107 3066 3112 3123 3175 3123 3177 3224 3155 3094 3240 3143 3142 3145 3075 3270 3162 3269 3236 3226 3261 3169 3125 3272 3223 3172 3302 3286 3139 3260 3211 3275 3168 3302 3275 3324 3298 3280 3242 3410 3253 3402 3221 3261 3343 3340 3292 3281 3363 3382 3413 3348 3348 3411 3306 3453 3371 3519 3467 3403 3437 3421 3533 3463 3551 3552 3543 3661 3489 3651 3695 3701 3669 3826 3803 3800 3845 4025 4037 3974 4157 4085 4017 4094 3957 4196 4060 4234 4283 4322 4126 4409 4335 4433 4389 4506 4506 4591 4627 4674 4615 4520 4723 4837 4821 5001 4927 4868 4963 5017 5119 5047 4985 5120 5148 4944 5199 5036 5018 4842 5017 4802 4876 4892 4834 4949 4757 4901 4767 4909 4724 4698 4722 4753 4814 4757 4766 4866 4645 4657 4494 4673 4509 4543 4419 4255 4245 4146 4139 4104 4038 4013 3916 4055 3947 3820 3889 3819 3911 3738 3814 3846 3619 3651 3641 3625 3680 3544 3619 3585 3498 3462 3454 3343 3556 3387 3389 3398 3460 3379 3416 3425 3219 3391 3390 3224 3361 3317 3363 3307 3284 3274 3320 3220 3272 3293 3282 3276 3288 3303 3218 3222 3318 3238 3337 3330 3134 3164 3143 3195 3201 3193 3184 3144 3159 3182 3212 3211 3054 3159 3120 3312 3235 3215 3197 3092 3228 3299 3267 3122 3217 3212 3126 3137 3163 3028 3077 2968 3242 3081 3107 3046 3059 3044 3117 3033 3087 3126 3213 3159 3110 3123 3160 3084 3059 3021 3005 3084 3080 3053 3027 3055 3193 3012 3024 3029 3066 3020 3075 3021 3011 3108 3027 3176 3062 3085 3013 3054 3031 3057 2932 2930 3016 3067 3065 3049 3127 3002 2976 2968 2910 3045 2957 2930 3017 3001 3009 2979 2986 2984 2948 2893 2978 3028 2927 3052 2975 2920 2967 3029 2895 3001 2948 2910 2990 2990 3028 2964 2902 3009 2891 2981 2933 2953 2933 2948 2883 3033 2892 2884 2901 2969 2997 2935 2953 2967 2942 3001 2956 2964 2951 2972 2865 2887 2928 2895 2896 2923 2830 2971 2963 2856 2844 2815 2969 2862 2891 2954 2932 2892 2841 2945 2951 2984 2951 2960 2948 2894 2865 2953 2856 2824 2867 2874 2809 2868 2837 2822 3012 2823 2885 2778 2826 2851 2855 2789 2911 2956 2891 2833 2858 2846 2851 2822 2905 2883 2910 2889 2831 2932 2885 2890 2682 2720 2859 2863 2831 2856 2909 2833 2873 2899 2880 2775 2741 2832 2889 2866 2934 2996 2914 2802 2844 2900 2881 2757 2887 2804 2775 2810 2890 2737 2727 2775 2734 2918 2879 2930 2902 2877 2766 2784 2888 2759 2729 2922 2828 2927 2815 2754 2806 2740 2815 2859 2870 2827 2898 2782 2788 2786 2830 2753 2849 2758 2742 2812 2689 2792 2874 2763 2763 2774 2772 2832 2822 2755 2615 2772 2862 2803 2754 2818 2757 2901 2697 2805 2762 2716 2814 2809 2804 2847 2699 2797 2689 2850 2853 2738 2793 2785 2776 2733 2714 2755 2852 2625 2650 2790 2739 2769 2765 2706 2776 2708 2783 2621 2806 2687 2758 2719 2713 2693 2704 2709 2774 2707 2680 2653 2768 2718 2628 2624 2701 2769 2692 2741 2717 2674 2700 2685 2576 2708 2724 2727 2703 2747 2736 2716 2569 2644 2645 2617 2674 2684 2658 2694 2713 2687 2652 2652 2587 2762 2702 2795 2716 2649 2649 2706 2751 2613 2704 2658 2605 2670 2670 2684 2593 2641 2606 2688 2747 2629 2559 2608 2579 2631 2658 2695 2603 2721 2622 2683 2627 2704 2690 2615 2682 2639 2606 2602 2549 2582 2602 2557 2583 2582 2620 2656 2600 2614 2672 2578 2553 2623 2650 2652 2575 2596 2641 2609 2589 2625 2579 2640 2569 2583 2559 2533 2546 2612 2626 2554 2588 2535 2537 2618 2587 2536 2599 2632 2590 2668 2619 2571 2678 2632 2597 2614 2540 2579 2500 2512 2600 2534 2532 2564 2651 2568 2561 2583 2545 2488 2528 2581 2572 2541 2574 2563 2648 2489 2617 2547 2566 2527 2631 2528 2533 2465 2576 2555 2582 2601 2604 2583 2576 2655 2599 2510 2665 2671 2535 2606 2528 2490 2511 2504 2666 2556 2561 2454 2521 2541 2558 2493 2503 2618 2656 2719 2539 2604 2577 2548 2622 2526 2569 2617 2545 2540 2508 2709 2609 2596 2560 2522 2532 2599 2486 2547 2568 2502 2631 2513 2647 2530 2621 2547 2541 2488 2523 2548 2598 2557 2633 2584 2520 2575 2597 2537 2459 2567 2569 2556 2610 2482 2479 2572 2657 2573 2560 2634 2562 2493 2584 2618 2536 2570 2639 2546 2588 2542 2505 2530 2550 2539 2542 2505 2569 2593 2620 2573 2637 2595 2510 2618 2538 2573 2507 2480 2453 2474 2571 2552 2551 2566 2468 2401 2473 2528 2521 2522 2516 2427 2546 2497 2483 2522 2529 2517 2456 2544 2536 2481 2524 2400 2430 2461 2433 2463 2468 2434 2466 2479 2407 2502 2521 2406 2411 2462 2395 2441 2364 2474 2424 2384 2391 2528 2319 2494 2422 2410 2322 2420 2396 2370 2453 2386 2332 2421 2447 2331 2336 2398 2277 2450 2314 2321 2343 2302 2311 2321 2372 2264 2344 2336 2379 2255 2231 2308 2304 2317 2282 2263 2281 2331 2265 2246 2281 2276 2291 2416 2336 2291 2264 2261 2263 2220 2247 2255 2184 2268 2229 2273 2163 2275 2212 2239 2197 2138 2187 2183 2223 2246 2215 2249 2261 2183 2209 2145 2172 2234 2164 2188 2027 2253 2128 2176 2151 2123 2138 2174 2068 2139 2148 2199 2114 2148 2071 2058 2099 2105 2172 2083 2132 2158 2154 2134 2215 2158 2038 2175 2130 2106 2134 2105 2093 2128 2035 2106 2141 2078 2063 2014 2090 2011 2115 2093 2057 2074 2058 2026 2082 2049 2011 2035 2074 1950 2072 2046 2128 1995 2070 2069 1942 2148 2006 2095 2019 2042 2070 1974 2068 1990 2062 2002 1989 1963 1966 2120 1998 2112 1930 2049 1957 2018 2050 2021 2026 2005 2070 1996 1976 2019 1983 1977 2016 1936 2021 2011 1971 2010 1992 2050 2006 2021 1951 1995 1969 1991 2002 1908 2054 2027 2058 1938 2027 2074 1961 1952 1999 2005 1963 1947 1921 1896 1968 1899 2010 1993 1920 2019 2023 1984 2032 1974 1965 1989 1985 1926 1995 2041 1958 1953 2016 1843 1980 1971 1972 1859 1946 1960 1889 2022 1979 1927 2071 2033 1942 1989 1973 1934 2064 2077 1932 1948 1987 1995 2092 1998 1906 1933 1949 2011 1952 1904 2065 2035 1911 1879 1937 1999 2010 1974 1900 1950 1916 1981 1999 1985 1989 1981 1991 1898 2011 1955 2027 2002 1958 1939 1984 1944 1990 1953 1989 2010 1923 2026 1949 1937 2012 2031 1992 1982 1947 1961 1996 2040 1988 1965 1922 1963 1986 1922 2132 2004 1912 2025 1978 1916 1989 1894 1976 1987 1935 1995 1968 1976 1908 1966 1988 1961 1987 1928 1944 1912 1978 2060 2102 1971 2005 1990 1977 1988 1922 1941 2001 2011 1999 1972 1948 1924 1995 1931 2045 2006 2005 1913 1907 1912 1854 1934 1964 2014 1942 1948 1944 1967 1949 1917 2000 1986 1979 1935 1896 1835 1981 1961 1956 1947 1893 1960 1900 1960 1923 1970 2020 1899 1851 1962 1917 1842 1854 1959 1852 1894 1911 1971 2020 1875 1942 1861 1886 1978 1915 1804 1857 1887 1815 1827 1881 1916 1839 1941 1872 1884 1859 1913 1904 1768 1879 1878 1873 1899 1881 1810 1732 1821 1843 1799 1808 1862 1859 1896 1790 1756 1793 1830 1839 1798 1765 1837 1826 1891 1745 1817 1779 1765 1856 1755 1738 1702 1810 1789 1742 1804 1838 1715 1770 1771 1701 1747 1819 1788 1772 1770 1743 1685 1736 1703 1788 1808 1736 1684 1739 1700 1740 1718 1695 1805 1750 1775 1764 1696 1640 1790 1821 1691 1680 1709 1699 1719 1797 1696 1640 1668 1686 1676 1710 1741 1824 1711 1758 1666 1765 1689 1768 1717 1731 1703 1797 1699 1698 1731 1703 1735 1800 1805 1819 1748 1781 1790 1811 1774 1725 1816 1897 1789 1877 1794 1886 1861 1867 1940 1934 1940 1981 2000 1987 1969 1974 2068 2031 2073 1976 2096 2059 2085 2101 2207 2075 2112 2107 2162 2071 2062 2115 2087 2039 2053 2066 2062 1882 2041 1939 1894 1867 1886 1880 1850 1898 1817 1846 1854 1778 1884 1768 1750 1864 1864 1834 1783 1799 1741 1738 1869 1776 1795 1744 1854 1781 1778 1816 1759 1639 1669 1750 1744 1729 1621 1746 1756 1737 1768 1699 1733 1809 1714 1710 1724 1835 1750 1759 1713 1684 1798 1800 1743 1754 1797 1757 1861 1920 1948 1950 1927 1978 2079 2060 2163 2157 2304 2384 2503 2653 2640 2795 2876 3068 3073 3073 3287 3389 3428 3605 3681 3792 3715 3866 3909 4225 4342 4192 4530 4782 4823 5079 5391 5470 5377 5833 5971 6224 6338 6473 6775 6816 7086 7243 7424 7577 7594 7518 7335 7213 6973 6778 6481 6375 6023 5783 5563 5391 5134 5065 4908 4778 4644 4515 4504 4448 4354 4332 4409 4357 4356 4238 4225 4164 4098 4058 3931 3891 3850 3840 3710 3603 3548 3501 3319 3330 3196 3198 2989 2933 2955 2886 2761 2804 2703 2655 2676 2521 2641 2651 2549 2537 2456 2415 2333 2451 2267 2225 2251 2184 2105 2143 2057 2015 2004 1998 2020 1928 1907 1960 1933 1809 1773 1860 1732 1781 1693 1767 1777 1647 1758 1762 1679 1631 1611 1651 1670 1627 1608 1606 1607 1579 1530 1510 1587 1493 1554 1487 1506 1535 1565 1492 1544 1536 1509 1523 1514 1503 1522 1496 1568 1502 1429 1533 1496 1546 1525 1508 1455 1617 1490 1498 1476 1478 1491 1533 1485 1466 1452 1478 1437 1453 1453 1397 1489 1421 1425 1414 1446 1450 1469 1440 1420 1436 1435 1431 1382 1430 1401 1432 1471 1393 1423 1416 1431 1413 1461 1395 1405 1364 1411 1389 1359 1384 1438 1397 1392 1423 1364 1378 1391 1375 1431 1394 1310 1466 1349 1462 1331 1362 1357 1424 1333 1344 1372 1409 1359 1369 1388 1370 1344 1364 1408 1374 1330 1363 1332 1454 1361 1347 1352 1355 1355 1399 1412 1366 1366 1364 1350 1391 1358 1406 1430 1386 1297 1345 1313 1344 1333 1358 1324 1346 1333 1308 1327 1300 1353 1372 1409 1328 1337 1339 1273 1257 1323 1345 1375 1295 1321 1390 1323 1354 1340 1357 1392 1365 1329 1344 1310 1344 1262 1312 1357 1405 1354 1313 1274 1362 1415 1336 1374 1338 1326 1345 1283 1295 1326 1314 1306 1391 1338 1308 1312 1331 1295 1311 1314 1218 1341 1326 1301 1297 1342 1414 1305 1340 1340 1280 1318 1288 1356 1360 1312 1307 1328 1256 1309 1289 1354 1358 1308 1468 1311 1341 1303 1336 1279 1322 1354 1308 1306 1309 1406 1361 1406 1386 1354 1347 1344 1384 1382 1328 1329 1302 1318 1403 1365 1371 1373 1340 1306 1436 1322 1297 1384 1347 1352 1323 1431 1293 1293 1378 1354 1437 1384 1356 1420 1401 1368 1449 1283 1413 1303 1351 1419 1435 1452 1408 1438 1419 1341 1369 1420 1379 1415 1416 1390 1381 1397 1391 1495 1497 1461 1502 1506 1558 1588 1532 1543 1585 1601 1613 1648 1809 1714 1831 1778 1871 1906 2058 2029 2110 2278 2247 2491 2651 2707 2769 2936 3064 3294 3399 3510 3718 3871 4034 4201 4360 4616 4619 4838 5035 5098 5115 5351 5620 5841 6029 6129 6567 6666 6623 7107 7330 7338 7646 7839 8074 8142 8192 8234 8226 7959 7735 7821 7474 7180 7026 6663 6595 6238 5991 5798 5525 5185 4983 4889 4786 4580 4601 4507 4386 4238 4206 4190 4098 4059 4062 3910 3968 3819 3982 3966 3995 3807 3900 3833 3884 3677 3630 3601 3582 3519 3539 3261 3426 3179 3094 2972 2872 2909 2763 2668 2638 2572 2459 2259 2278 2213 2224 2115 2094 2057 1963 1953 1940 1883 1831 1809 1810 1673 1735 1739 1658 1657 1644 1689 1594 1648 1599 1528 1543 1490 1606 1565 1447 1420 1483 1525 1507 1461 1512 1421 1503 1355 1392 1433 1370 1386 1329 1396 1324 1351 1336 1314 1363 1290 1367 1306 1299 1337 1406 1306 1368 1360 1264 1307 1262 1249 1316 1293 1259 1268 1287 1330 1241 1330 1319 1287 1261 1264 1279 1260 1256 1258 1323 1276 1214 1262 1235 1277 1237 1264 1271 1214 1258 1218 1294 1218 1324 1247 1280 1272 1291 1246 1264 1171 1264 1241 1208 1229 1247 1286 1218 1271 1285 1309 1228 1278 1258 1253 1268 1294 1270 1191 1237 1224 1277 1237 1247 1252 1255 1209 1259 1220 1189 1257 1259 1163 1199 1342 1208 1142 1222 1181 1243 1267 1160 1210 1290 1226 1230 1207 1176 1229 1237 1191 1216 1203 1237 1234 1283 1257 1281 1189 1244 1195 1208 1278 1247 1248 1268 1188 1183 1249 1186 1145 1196 1169 1218 1215 1178 1172 1211 1216 1204 1103 1197 1246 1149 1180 1208 1235 1200 1189 1183 1222 1167 1093 1254 1193 1272 1236 1177 1227 1197 1197 1188 1222 1144 1208 1241 1209 1193 1148 1111 1177 1180 1188 1161 1183 1135 1176 1153 1142 1147 1133 1127 1111 1119 1178 1181 1252 1196 1187 1164 1234 1194 1209 1252 1180 1199 1148 1163 1171 1196 1154 1208 1179 1146 1235 1102 1239 1135 1212 1136 1156 1167 1139 1243 1170 1143 1168 1180 1098 1210 1177 1137 1152 1160 1115 1151 1127 1159 1168 1204 1156 1089 1195 1124 1218 1183 1191 1190 1122 1161 1210 1190 1145 1165 1157 1167 1218 1192 1178 1108 1214 1133 1143 1141 1177 1120 1130 1143 1162 1208 1232 1135 1123 1251 1140 1131 1184 1176 1136 1177 1097 1143 1173 1183 1112 1165 1168 1192 1195 1152 1127 1087 1167 1110 1150 1130 1222 1090 1103 1138 1172 1069 1146 1162 1117 1193 1149 1128 1196 1150 1147 1136 1178 1155 1074 1078 1116 1129 1103 1162 1162 1143 1108 1110 1138 1059 1175 1157 1111 1163 1151 1090 1125 1100 1137 1062 1049 1087 1110 1066 1118 1144 1066 1095 1076 1192 1091 1138 1158 1155 1119 1106 1144 1097 1101 1115 1035 1102 1079 1131 1186 1065 1132 1104 1084 1132 1076 1037 1114 1099 1160 1117 1109 1053 1134 1096 1078 1125 1119 1084 1154 1098 1116 1129 1108 1087 1075 1101 1081 1083 1120 1075 1086 1138 1081 1102 1139 1084 1154 1092 1080 1041 1063 1157 1091 1090 1136 1085 1063 1117 1053 1105 1134 1137 1064 1118 1037 1105 1099 1030 1130 1074 1149 1045 1064 1091 1086 1019 1110 1136 1083 1042 1118 1121 1092 1058 1077 1070 1160 1115 1077 1053 1114 1077 1016 1116 1076 1094 1074 1089 1028 1123 1070 1161 1114 1052 1070 1074 1122 1042 1109 1084 1015 1050 1010 1041 1091 1038 1122 1070 1064 1061 1064 1093 1032 1072 1056 1103 1081 1020 1084 1122 1003 1001 1121 1116 1092 1059 1081 1057 1074 1112 1082 1104 1124 1073 1094 1090 1047 1078 1129 1111 1071 1088 1047 1138 951 1037 1136 1011 1150 1084 1092 1071 1114 1114 1047 1097 1061 1089 1115 1078 1034 1102 1092 1110 1074 1114 1099 1098 1077 1104 1077 1076 1101 1074 1000 1094 1088 1099 1075 1037 1046 1106 1067 1106 1047 1044 1082 1080 1084 1114 1064 1088 1115 1061 1071 1056 1078 1047 1084 1047 1075 1076 1088 1076 1044 1106 1091 1072 1114 1046 1089 1092 1123 1048 1024 1083 1074 1005 1124 1008 1098 1066 1080 1022 1070 1052 1085 1080 1085 1116 1047 1060 1021 1063 1138 1071 1116 1100 1058 1045 1090 1065 1066 1010 1010 1055 1070 1044 1070 1065 1014 1087 1007 1093 1118 1058 1058 1097 1054 1093 1128 1055 1031 1060 1104 1087 1072 1091 1071 1063 1082 1114 1066 1032 1060 1041 1043 1041 1073 1093 1073 1009 1065 1040 1011 1127 1064 1040 1009 1058 1083 1059 1109 1095 1109 1059 1093 1066 1045 1051 1050 1048 1012 1121 1006 1014 1094 1100 1134 1101 1060 1049 1067 1009 1128 1083 1021 1113 1084 1085 1070 1014 1069 983 997 1015 1088 1072 1064 1003 1058 1007 1004 1027 1044 1042 1070 1033 1077 1072 1100 1091 1005 994 1067 1099 1067 1037 1066 1072 1041 1051 997 1064 1077 1067 1099 1079 1037 1060 1036 1059 1063 1030 1007 1072 990 1051 1045 1035 1112 1066 1053 1068 1066 1008 1057 1029 1078 1072 1078 1052 1076 1000 1081 1089 1084 1029 984 1075 1024 1059 1062 1086 1050 1067 1014 1011 1050 1041 1074 1061 1118 1077 1051 1068 1050 1029 1048 1075 1058 1106 1068 1023 1030 1058 1041 1021 965 1025 1024 1043 1093 1114 1021 1077 991 1036 1040 1042 1061 1051 1099 1029 1060 1014 997 1062 1075 1050 1063 1035 1068 1053 1005 1093 1069 1074 1064 1024 1008 1022 1082 1006 1143 1053 1060 1083 1089 1051 999 1055 1060 1027 1040 1099 1075 1013 1083 1074 1092 1068 1034 1076 987 1052 1067 1098 1088 1076 1032 1015 1032 1103 1099 1039 1076 1081 1028 1047 1038 1039 1106 1055 1071 1060 1053 1041 1063 1041 1035 1121 1073 1067 1077 1070 1119 1089 1095 1081 1102 1107 1180 1205 1218 1170 1210 1179 1228 1293 1262 1295 1281 1319 1335 1355 1332 1409 1446 1443 1456 1453 1462 1480 1495 1599 1551 1604 1580 1645 1657 1708 1637 1743 1722 1717 1677 1653 1782 1698 1614 1622 1545 1576 1473 1538 1516 1501 1321 1400 1373 1385 1358 1317 1335 1263 1315 1195 1247 1138 1213 1174 1197 1124 1164 1173 1124 1141 1131 1122 1161 1068 1091 1040 1127 1136 1093 1105 1061 1096 1122 1098 1072 1060 1100 1057 1145 1107 1101 1178 1114 1153 1125 1118 1153 1091 1129 1173 1112 1131 1103 1118 1084 1141 1117 1091 1121 1103 1066 1120 1092 1147 1105 1127 1144 1112 1112 1076 1107 1059 1060 1116 1060 1101 1097 1045 1046 1145 1099 1123 1075 1069 1095 1048 1038 1032 1027 1010 1038 1048 1120 1050 1029 1027 1072 1014 1041 994 1041 1077 1080 1037 1066 1065 987 994 1064 1038 995 1000 1005 1016 1000 1005 1028 958 1019 1055 1037 1070 998 1012 997 1019 969 1074 1020 991 994 1019 1029 1030 1015 1034 1065 1051 984 1044 1019 1093 1067 1025 984 996 1001 1020 1052 950 1069 1056 1034 1050 997 960 1019 1025 1004 1074 1065 1016 1028 936 1009 1003 967 1026 1030 1021 963 1033 1028 1039 1049 1000 1055 993 1044 1011 1007 1046 1020 995 1023 1052 1008 1012 996 1009 996 1032 1063 1009 1004 1043 1072 1017 983 1029 1017 1025 1019 991 1039 1106 1019 1014 1054 1042 995 1056 1033 1049 1046 1013 1000 1014 1087 1062 1088 1022 1101 1023 1071 1027 1042 1080 1068 1075 1099 1097 1011 1094 1052 1053 1066 998 1078 1022 993 1083 1042 1068 1067 1052 1059 1006 1094 1074 1061 1052 1042 1077 1073 1006 1023 1059 1062 1033 1118 1047 1096 1057 1037 1047 998 1027 1039 1043 1128 1052 1041 1006 1117 1040 1093 999 1087 1059 1094 1060 1063 1096 1044 1120 1087 1036 1099 1023 1015 1035 1045 1083 1078 1113 1023 1081 1039 1074 1101 1074 1049 1048 1028 1004 1092 1093 1117 1092 1092 1082 1114 1040 1042 1037 1096 1066 1087 1114 1114 1092 1120 1174 1149 1096 1231 1209 1166 1160 1163 1189 1211 1278 1254 1253 1352 1304 1332 1285 1304 1336 1525 1552 1579 1621 1767 1712 1817 1908 1896 2174 2099 2274 2310 2319 2527 2662 2763 2873 2873 3083 3157 3189 3294 3530 3552 3624 3820 3919 4090 4331 4355 4570 4760 4932 4900 5076 5181 5091 4904 4793 4784 4679 4452 4436 4112 4204 4010 3997 3751 3589 3550 3445 3249 3131 3015 2790 2698 2640 2500 2480 2422 2354 2258 2175 2271 2060 2115 1977 2002 2012 2016 1949 1961 1957 1980 1828 1920 1904 1935 2007 1992 2014 1960 1975 2055 2088 2047 2170 2159 2141 2115 2238 2225 2309 2220 2245 2245 2202 2136 2146 2264 2188 2160 2234 2086 2095 2060 2043 1929 1962 1870 1962 1909 1834 1860 1794 1755 1815 1825 1778 1796 1742 1769 1685 1716 1618 1563 1614 1646 1574 1504 1614 1562 1532 1486 1588 1565 1539 1458 1396 1449 1418 1465 1399 1422 1401 1388 1339 1288 1288 1283 1290 1285 1284 1262 1352 1255 1278 1246 1208 1184 1217 1242 1232 1202 1190 1155 1146 1219 1156 1153 1201 1213 1180 1165 1143 1124 1164 1036 1029 1072 1126 1056 1110 1036 1076 1105 1106 1076 1119 1091 1128 1037 1055 1097 1032 1113 1034 1093 1075 1040 1094 1064 1053 1069 1102 1078 1057 1089 1080 1001 1012 1040 1063 1029 1084 1030 1022 1029 976 1048 1030 1048 1028 1101 1121 1099 1092 1026 1065 1044 1074 1169 1066 1134 1124 1077 1100 1085 1132 1127 1141 1108 1134 1138 1109 1162 1269 1164 1283 1270 1244 1199 1245 1269 1243 1280 1288 1284 1254 1329 1334 1362 1325 1269 1239 1268 1283 1224 1263 1223 1195 1207 1206 1154 1167 1180 1200 1162 1099 1086 1122 1057 1050 1080 1123 1094 1091 1093 1014 1079 1082 1085 1018 1072 999 1090 996 1061 1051 1096 1028 1046 1045 1025 1062 1070 1031 1062 1026 985 1052 986 1025 984 1100 1042 1061 1051 1054 1105 1089 1012 1054 996 1064 1026 1021 1002 1002 1046 1055 1109 1036 1025 1020 981 1089 1022 1033 1069 995 1041 1039 1053 997 1035 1053 975 990 1034 1044 1008 974 982 985 1001 1052 1012 998 1021 945 1036 1015 991 1020 1025 1075 1020 1005 1010 1005 1050 994 1021 972 992 987 1006 982 981 1027 968 967 939 1035 1030 957 1013 943 990 1015 998 1018 916 1018 951 993 1022 963 984 977 971 972 935 931 959 1009 981 990 975 969 967 947 974 1003 919 927 952 961 983 970 987 1004 977 984 983 934 982 1020 951 990 955 1008 1024 849 968 990 956 939 964 971 931 976 982 970 955 1022 977 913 995 926 980 954 945 1009 1003 1025 936 902 944 951 935 969 959 925 998 982 970 947 986 1008 984 979 972 983 949 894 969 937 934 943 934 924 1007 931 949 951 964 905 952 968 965 952 959 900 937 998 887 964 944 935 903 969 963 909 915 962 965 851 976 987 985 944 893 950 947 969 946 927 944 955 933 988 1005 963 896 957 939 908 855 923 957 1006 952 919 940 914 910 914 966 893 976 959 959 967 1046 899 918 880 960 947 890 958 1002 950 940 945 919 919 909 917 931 963 936 936 939 923 948 1001 941 925 898 919 888 942 965 914 940 946 928 962 949 916 971 961 971 940 961 927 938 910 965 972 966 1002 968 945 917 962 944 982 947 923 909 1012 938 949 938 944 971 916 1004 944 942 995 972 912 917 907 928 908 897 919 942 978 941 931 920 931 948 904 901 929 943 891 1009 924 921 909 936 887 907 950 958 996 940 915 959 978 927 962 916 905 920 951 893 906 932 891 958 910 963 897 978 889 946 861 926 941 903 932 937 900 998 976 905 933 918 945 920 925 987 887 939 972 961 883 1012 975 932 944 915 934 882 889 864 904 961 902 983 939 1020 907 913 916 977 894 962 960 953 937 947 974 964 970 956 945 968 902 1010 931 911 947 908 973 945 939 920 897 915 916 911 889 950 963 913 941 932 908 945 935 882 939 936 860 991 912 983 952 991 971 900 894 909 864 987 916 913 961 1030 962 969 967 955 901 944 882 980 923 861 904 932 976 940 936 897 977 927 884 913 986 947 935 926 907 940 909 943 944 929 918 948 945 902 961 957 877 999 924 898 990 999 1004 986 999 967 980 958 956 972 1005 986 950 1010 994 1010 989 1055 1013 1026 1024 1037 1021 941 1003 1021 956 1029 1056 946 1007 1019 995 1014 1036 984 957 993 1043 1044 1001 950 983 987 1021 958 1000 1064 985 989 1018 1028 1092 1008 1140 1074 1137 1139 1120 1114 1143 1183 1209 1220 1225 1214 1284 1312 1344 1377 1371 1495 1473 1463 1623 1571 1582 1681 1669 1686 1742 1778 1796 1849 1944 1924 2004 2029 2047 2081 2016 1987 1967 1911 1846 1842 1839 1889 1815 1740 1769 1652 1746 1577 1648 1636 1630 1626 1511 1474 1475 1459 1466 1415 1347 1395 1308 1258 1206 1369 1265 1242 1214 1231 1180 1183 1115 1239 1191 1204 1190 1198 1162 1179 1158 1248 1187 1209 1231 1310 1227 1292 1274 1259 1278 1329 1290 1368 1314 1343 1343 1382 1433 1432 1443 1429 1466 1364 1395 1435 1420 1424 1405 1431 1437 1412 1392 1406 1358 1384 1277 1317 1296 1303 1249 1245 1261 1287 1286 1292 1281 1233 1221 1171 1228 1191 1193 1168 1195 1195 1117 1166 1174 1145 1098 1135 1100 1153 1109 1083 1121 1164 1116 1112 1141 1151 1161 1180 1085 1042 1130 1153 1085 1070 1121 1074 1071 1066 1099 1097 1097 1127 1040 1079 1011 1035 1041 948 1076 1019 1022 1067 1004 1094 1031 1064 973 1013 1068 989 1053 923 1032 1004 1018 985 1068 1048 1002 1014 1040 960 960 953 976 962 962 1010 970 992 963 922 1034 962 981 984 1032 975 917 934 958 991 894 951 956 928 974 969 951 943 946 942 969 995 975 962 957 947 964 987 1000 1017 969 993 950 1010 976 996 935 969 1005 956 989 985 969 993 932 961 1014 913 1002 989 975 979 1013 1027 1018 957 964 1029 1113 1005 1072 1113 1033 1081 1044 1134 1127 1159 1172 1171 1262 1288 1295 1317 1368 1433 1478 1526 1546 1634 1608 1763 1674 1726 1853 1810 1939 1868 1861 1994 2031 2088 2132 2228 2212 2027 2100 1996 2037 1910 1924 1893 1910 1816 1819 1790 1740 1720 1673 1705 1673 1720 1609 1599 1528 1527 1432 1470 1360 1340 1292 1301 1240 1207 1190 1179 1164 1166 1118 1075 1158 1083 1094 1163 994 1108 1059 1060 1085 1017 1105 1035 1020 1098 1091 1079 1052 1089 1050 1115 1088 1130 1126 1162 1090 1127 1060 1188 1202 1148 1166 1155 1184 1093 1291 1171 1184 1185 1178 1208 1172 1204 1208 1165 1205 1175 1192 1178 1058 1146 1135 1054 1135 1112 1117 1188 1139 1161 1096 1106 1096 1127 1059 1003 1049 1039 1089 1065 1020 989 1100 983 1056 1071 1057 1043 1130 1045 1095 1077 1093 1011 1082 1015 1064 1078 1037 1048 1048 1065 1074 1016 1107 1023 1034 1025 1001 1069 961 1070 1039 1032 1005 1022 969 963 1017 1000 1001 978 1002 991 1030 964 940 946 990 960 972 955 1032 948 985 883 973 945 965 947 951 974 1015 1031 985 979 961 1005 1046 974 1029 1020 1032 1038 995 1011 1056 1039 1068 1058 1110 1059 1140 1037 1148 1086 1107 1086 1098 1105 1078 1159 1123 1184 1105 1043 1109 1025 1077 1049 1049 1011 1070 1086 1089 1047 1122 1009 1039 983 1026 1016 936 937 941 943 973 952 934 1010 953 1025 978 943 990 957 985 911 1021 902 931 937 890 945 925 846 879 913 921 865 881 950 797 837 926 905 925 918 942 941 927 896 912 894 848 875 921 853 963 913 939 890 909 931 965 947 884 936 891 875 874 931 859 897 925 861 930 910 905 946 931 916 926 887 907 888 932 940 904 910 954 1015 856 889 899 891 904 973 946 866 909 882 934 907 882 906 928 909 966 890 922 963 941 911 935 971 849 900 916 930 938 873 864 945 896 917 913 905 906 877 903 900 860 930 906 960 907 903 885 857 859 891 915 865 884 895 918 881 875 887 906 881 905 848 831 893 853 905 890 904 864 854 882 901 885 876 896 908 843 899 878 870 879 906 877 887 909 888 942 892 818 912 865 873 875 838 812 850 875 876 878 865 906 845 888 812 897 847 848 839 871 861 869 864 901 846 878 865 903 899 888 823 887 922 847 872 861 874 902 840 864 888 864 839 852 864 905 852 825 856 832 828 868 804 912 915 906 854 892 864 860 868 902 779 847 855 823 836 906 824 884 841 864 877 885 864 864 834 891 811 881 891 856 835 883 820 849 855 803 873 883 850 886 829 832 877 894 915 846 850 844 827 872 946 873 855 855 872 883 829 917 864 864 829 919 885 920 910 875 829 826 813 869 821 881 865 909 892 824 865 880 885 911 902 849 889 833 926 910 874 898 919 863 860 901 828 860 921 875 898 892 883 888 911 851 905 890 922 865 853 856 847 861 830 834 858 893 866 828 866 855 872 843 864 837 890 872 926 802 875 866 816 831 884 826 856 815 756 870 819 887 871 860 864 890 925 806 871 849 816 928 932 898 854 883 822 801 840 849 832 829 893 843 823 871 799 813 837 889 887 892 863 872 821 856 843 896 831 870 831 853 835 883 808 871 882 886 867 811 886 851 858 877 858 828 859 855 855 884 870 910 916 901 899 890 843 821 860 857 877 881 891 861 851 862 857 842 902 843 873 870 850 890 847 933 884 883 911 864 828 876 854 898 892 850 868 853 852 855 898 873 891 910 928 913 903 901 877 908 913 871 1004 982 896 943 921 973 1000 936 951 1023 1024 1030 949 1004 956 957 996 994 917 982 992 1013 994 975 987 938 940 943 978 944 963 954 931 894 948 914 905 966 881 877 900 937 896 858 856 917 867 905 901 868 892 844 886 892 825 927 900 846 900 890 922 897 841 826 862 907 858 915 877 822 834 845 841 826 844 826 827 851 847 892 878 836 873 869 889 871 862 888 876 820 872 847 822 843 892 861 850 840 797 804 887 884 887 792 879 861 831 884 880 848 876 889 847 835 877 799 853 816 924 893 873 897 926 849 937 860 827 821 828 855 846 852 859 877 860 784 849 856 874 843 917 831 871 873 825 873 794 801 864 876 824 863 892 794 872 814 879 938 868 832 826 813 859 866 901 833 845 802 843 853 908 820 833 845 794 877 815 852 817 814 880 858 864 876 831 811 892 837 914 815 925 787 877 878 828 859 879 840 854 876 808 870 863 825 872 822 848 834 889 770 834 856 813 845 863 827 886 880 892 846 884 829 854 843 884 873 851 899 852 891 878 823 842 901 842 896 883 841 803 842 857 846 844 864 854 863 799 886 896 816 867 902 853 909 840 874 839 870 849 857 844 899 862 785 866 842 909 893 895 893 910 837 873 876 829 867 836 860 873 929 869 890 869 858 916 956 879 833 923 945 958 980 929 942 1007 1014 989 1018 1034 1035 1026 1065 1039 1104 1089 1111 1124 1130 1187 1167 1195 1225 1207 1235 1248 1201 1272 1247 1204 1221 1206 1221 1184 1179 1173 1203 1241 1165 1189 1186 1194 1222 1144 1167 1146 1151 1124 1047 1122 1019 1019 1105 1059 1030 1029 949 1081 962 982 991 995 937 1000 943 992 914 952 912 932 971 917 898 893 927 978 935 945 904 906 989 875 904 915 853 885 889 910 903 920 891 902 877 874 840 888 871 876 879 847 912 933 934 961 956 948 933 919 957 879 922 929 916 918 947 884 1008 938 978 1012 941 953 1006 926 934 912 923 950 982 947 929 926 970 953 935 972 962 1017 928 910 927 918 995 958 946 902 946 894 940 925 888 921 946 908 848 862 855 959 903 915 881 942 889 907 860 864 842 816 876 917 893 840 956 866 888 897 934 905 871 846 904 875 868 904 883 906 916 892 914 876 895 901 881 899 830 873 827 907 867 866 922 868 919 951 871 898 856 888 939 926 977 884 862 868 868 874 879 901 893 883 887 985 867 860 887 830 868 887 925 879 841 836 827 807 872 851 844 835 852 872 826 890 838 913 892 845 833 882 835 864 782 835 810 804 824 901 838 793 844 853 878 848 845 833 807 832 799 834 804 844 849 841 856 806 843 808 836 831 851 859 865 835 814 872 846 833 875 793 829 859 825 821 830 840 833 836 863 822 825 857 827 868 925 837 866 832 833 846 803 809 897 821 887 851 825 863 779 851 826 846 803 847 843 816 834 836 873 835 843 870 820 870 808 857 809 861 843 817 768 824 820 849 881 810 839 817 761 829 848 772 800 869 815 846 870 846 846 848 818 776 829 815 878 777 807 903 865 869 895 843 804 845 770 873 792 853 846 840 833 865 885 837 863 777 885 837 873 881 858 825 851 832 857 840 801 825 835 839 832 862 824 838 892 808 869 879 849 831 884 889 810 862 794 870 821 874 826 837 872 844 831 814 836 808 796 830 859 811 810 821 804 840 817 856 795 795 797 845 811 884 848 810 912 848 793 856 780 891 886 855 843 859 838 826 884 817 829 832 825 861 796 846 891 825 841 834 780 902 829 831 910 802 857 814 868 815 790 827 800 807 806 849 807 867 815 792 876 843 841 813 809 829 829 817 787 836 844 852 838 862 891 828 847 862 822 885 836 849 847 820 887 815 845 824 848 791 859 802 861 832 862 862 859 829 845 843 820 865 793 891 792 819 806 830 800 873 789 840 814 817 826 802 830 893 801 842 847 874 857 790 866 856 790 876 836 828 837 856 829 808 862 858 835 855 853 846 878 865 856 861 820 876 827 807 837 828 814 855 878 862 892 866 866 848 828 822 811 865 833 837 847 819 853 855 784 831 817 829 823 824 853 826 830 875 848 865 796 830 834 832 855 814 865 871 845 827 893 865 871 823 862 818 866 831 855 878 873 818 833 866 854 816 911 855 883 829 825 900 889 808 869 794 833 818 853 857 882 861 866 906 881 908 831 887 822 847 860 893 893 817 859 878 937 934 904 911 881 884 927 897 934 942 918 922 911 938 906 934 945 933 978 905 895 887 951 959 939 887 926 921 968 958 930 885 922 922 918 903 914 966 982 958 892 929 957 920 944 935 853 952 968 922 912 924 925 953 943 969 955 964 1013 931 976 928 1035 990 1044 995 1105 1101 1032 1102 1079 1130 1148 1079 1114 1137 1174 1143 1173 1172 1144 1205 1161 1136 1146 1136 1065 1083 1099 1131 1113 1117 1079 1051 1062 1049 1088 1057 1042 1056 1007 1074 999 970 1006 979 987 1003 954 986 941 963 949 1001 918 990 919 922 928 910 866 934 933 872 869 907 882 866 892 886 997 900 900 903 858 850 884 918 867 855 850 884 872 901 908 895 943 892 909 858 914 905 872 925 975 879 876 924 947 849 1008 904 963 990 959 936 978 1008 1059 977 925 980 982 1036 996 985 1057 1002 1042 981 999 1026 1019 985 1000 1069 1017 1023 966 968 1027 1052 1042 943 1000 984 972 1015 999 1020 976 983 957 945 949 1028 1032 1000 996 948 994 982 1026 1039 975 899 967 917 891 935 923 952 910 957 973 958 908 957 941 976 894 892 951 956 936 949 906 901 952 957 943 959 911 931 944 880 958 904 912 918 928 942 930 900 933 955 928 964 888 950 919 916 969 919 917 974 944 957 995 930 952 1017 982 993 984 980 943 953 1027 996 1072 1021 1079 1063 1061 1141 1092 1182 1125 1164 1162 1196 1262 1278 1243 1316 1298 1324 1435 1437 1409 1528 1537 1603 1580 1583 1590 1643 1668 1671 1633 1678 1629 1669 1643 1622 1592 1592 1531 1549 1576 1478 1472 1535 1496 1504 1500 1479 1489 1424 1424 1436 1385 1402 1415 1372 1273 1371 1399 1280 1297 1276 1305 1239 1214 1168 1152 1146 1188 1126 1129 1062 1064 1066 1069 1017 1020 969 1060 1025 1036 996 1050 954 998 948 933 937 922 938 1007 1001 947 890 929 957 969 926 938 953 972 943 988 941 951 912 904 982 977 925 885 952 945 983 908 989 1022 946 958 983 1002 1016 968 1033 1047 1006 1052 1075 1043 1001 1108 1050 1092 1093 1097 1017 1095 1059 1121 1032 1141 1119 1198 1138 1083 1129 1120 1085 1055 1060 1108 1077 1100 1110 1102 1049 1034 1105 1093 1058 1040 1054 1065 1052 1054 1058 1087 1075 1006 1080 1063 1041 1057 1022 1000 1027 971 1017 961 1013 951 1013 966 985 1005 966 995 993 938 988 1012 992 1007 972 967 1025 1014 1000 991 1043 936 987 954 1005 946 990 1009 1021 956 949 961 974 1009 943 1004 986 973 933 945 932 971 973 1011 952 971 1011 859 994 974 895 1005 901 947 905 922 944 949 909 876 914 954 875 904 878 890 909 858 869 932 904 872 875 874 917 910 918 870 920 945 873 894 912 934 868 881 916 903 938 844 909 883 912 875 905 927 909 859 887 868 886 856 859 860 901 868 872 923 850 862 781 802 866 858 867 899 879 835 931 897 862 863 848 843 808 868 842 854 868 908 875 799 854 821 875 871 916 854 796 841 809 901 899 840 846 848 824 880 841 824 862 834 837 855 833 862 858 843 829 871 827 877 877 859 887 862 839 835 846 876 911 919 861 871 881 877 873 838 826 905 860 939 840 878 874 839 865 843 832 836 837 883 857 831 844 876 838 858 862 802 902 870 801 851 883 862 882 915 826 844 831 868 864 843 845 866 833 878 799 821 897 824 833 871 902 864 889 820 860 850 914 832 890 838 846 856 851 834 869 814 871 856 862 833 856 851 844 822 870 813 820 854 874 844 878 824 808 850 884 852 871 843 903 826 843 766 834 793 846 849 801 863 827 821 878 845 861 847 827 856 878 818 846 834 841 845 848 886 843 852 857 837 822 797 821 818 799 829 805 859 810 898 820 838 819 809 764 910 849 903 888 853 813 838 824 830 810 803 814 833 855 846 825 875 860 860 784 859 822 870 892 830 809 824 830 840 848 823 832 883 823 869 858 811 806 862 841 809 855 842 844 839 776 809 813 819 798 884 811 831 873 827 858 837 830 905 807 880 918 892 815 895 824 817 869 875 817 796 851 841 789 844 887 860 902 811 810 852 843 863 854 848 831 823 880 851 846 814 870 796 886 796 833 847 893 773 809 819 910 847 858 846 847 853 778 830 874 840 862 816 881 865 847 852 847 749 866 809 876 852 851 852 815 861 812 848 874 830 876 850 843 811 917 874 891 844 884 858 841 813 876 814 864 875 870 865 895 848 853 850 811 902 908 823 916 836 907 845 895 904 921 898 832 895 906 870 916 943 914 959 861 910 886 862 872 889 890 898 864 891 893 889 955 905 913 920 911 937 873 938 861 898 881 937 892 929 905 881 937 883 922 921 940 903 848 894 844 894 893 895 886 857 883 863 897 806 852 904 871 892 843 838 852 856 887 865 884 927 829 891 797 822 821 847 855 848 855 792 860 853 883 820 852 908 807 881 838 853 881 818 819 859 905 831 857 873 847 848 775 872 843 826 815 837 834 881 837 818 813 849 869 836 852 869 852 800 897 845 848 827 840 814 916 811 850 788 805 892 852 884 847 841 904 874 826 847 812 918 843 818 820 842 846 893 828 821 831 870 849 827 824 863 874 850 745 850 857 895 842 851 809 836 891 816 911 872 848 855 909 866 851 876 811 828 859 777 839 871 874 872 833 862 824 852 818 864 855 843 872 885 877 868 848 913 824 825 841 897 851 821 883 888 845 877 840 843 869 817 837 837 866 826 856 839 919 858 878 846 841 856 831 851 789 858 843 811 868 844 815 924 918 806 867 921 843 871 899 843 880 862 875 884 909 886 870 877 890 839 902 869 861 856 827 892 824 817 901 881 909 888 894 906 931 895 884 908 918 928 922 935 881 934 920 884 953 996 939 958 936 960 1001 936 1012 1026 1092 996 1094 1118 1121 1157 1170 1192 1209 1155 1282 1322 1281 1344 1370 1375 1373 1451 1344 1435 1486 1367 1385 1425 1407 1396 1373 1347 1395 1393 1324 1393 1309 1395 1348 1348 1282 1333 1300 1280 1296 1319 1297 1245 1267 1342 1268 1311 1276 1271 1237 1196 1197 1192 1179 1133 1131 1110 1139 1074 1083 1034 1087 1046 1014 1015 1026 1054 1017 1048 980 964 976 979 910 977 873 922 933 960 953 896 878 873 918 912 820 909 898 904 902 942 870 817 911 882 902 886 885 931 909 868 938 880 899 882 843 861 917 868 889 881 913 886 883 898 895 879 916 903 885 904 938 973 902 972 906 954 983 949 967 916 932 910 906 906 961 926 978 926 968 998 998 960 1001 1013 1034 1008 1025 1008 1050 1040 1008 1002 947 1014 1014 995 1021 1013 1022 999 996 959 1068 1039 957 1006 982 1015 1035 1008 980 998 1035 1035 1032 978 1062 998 1034 1013 1010 971 972 1000 982 951 950 1015 960 967 971 955 947 1016 976 951 986 988 968 920 949 990 1002 997 921 927 914 923 927 914 932 958 929 885 944 958 954 1013 987 926 950 928 902 973 902 953 927 924 935 963 995 919 892 898 894 913 914 874 911 906 920 897 890 873 939 935 913 939 943 880 879 942 879 884 922 893 882 939 856 845 921 925 874 932 885 892 884 934 893 813 897 858 903 877 865 897 884 840 878 877 880 901 809 832 895 871 877 808 823 867 864 911 857 892 858 886 861 873 893 873 848 889 908 855 810 905 895 914 854 829 856 838 839 836 878 866 843 838 847 838 875 888 811 814 903 822 869 876 879 884 877 809 865 814 861 897 816 861 880 879 860 870 869 775 901 876 901 834 843 853 823 902 820 854 847 867 880 835 811 851 849 851 779 861 822 852 868 863 883 806 871 870 849 876 850 850 875 845 839 815 890 791 852 856 884 832 830 835 842 836 854 867 888 825 871 875 860 887 845 832 829 822 859 842 891 860 833 838 820 825 816 856 865 809 815 838 855 798 790 853 868 843 818 816 833 839 827 850 875 877 843 819 846 798 908 850 849 866 818 780 794 850 897 837 837 910 788 816 776 787 864 876 833 823 852 783 827 824 816 882 802 859 884 856 780 835 873 852 806 805 834 824 862 861 903 817 821 883 877 810 905 865 796 823 819 818 877 823 808 860 813 851 830 815 798 766 815 856 800 828 829 877 842 843 815 865 850 832 875 852 881 790 833 810 873 804 865 804 846 838 851 866 791 868 783 861 905 861 879 886 785 835 796 884 804 832 839 886 857 839 778 833 829 831 811 815 849 877 888 834 878 895 841 849 927 857 853 880 845 848 848 834 836 848 836 851 851 865 838 841 799 813 828 812 815 796 865 820 861 868 803 840 780 815 862 911 777 844 852 804 859 866 831 842 860 842 855 848 799 876 880 916 867 805 864 887 843 843 864 855 855 832 836 824 854 822 825 824 809 869 881 880 830 829 846 810 837 840 830 859 904 836 898 864 875 907 982 912 909 922 915 915 976 882 967 919 961 919 928 966 958 964 930 1004 980 1004</counts>
			</dataPoints>
		</scan>
	</xrdMeasurement>
</xrdMeasurements>
