<?xml version="1.0"?>
<xrdMeasurements xmlns="http://www.xrdml.com/XRDMeasurement/2.3" xmlns:xsi="http://www.w3.org/2001/XMLSchema-instance" xsi:schemaLocation="http://www.xrdml.com/XRDMeasurement/2.3 http://www.xrdml.com/XRDMeasurement/2.3/XRDMeasurement.xsd" status="Completed" recordIdentifier="{20F81153-A003-4841-81D5-F1F7822EE47E}">
	<comment>
		<entry/>
	</comment>
	<sample type="To be analyzed">
		<id>GPSS_Li1p7MnV0p1Cl4_111125_691433ae47a6a0fd7c6576f9</id>
		<name></name>
		<preparedBy></preparedBy>
	</sample>
	<xrdMeasurement measurementType="Scan" status="Completed" sampleMode="Reflection">
		<usedWavelength intended="K-Alpha 1">
			<kAlpha1 unit="Angstrom">1.5405980</kAlpha1>
			<kAlpha2 unit="Angstrom">1.5444260</kAlpha2>
			<kBeta unit="Angstrom">1.3922500</kBeta>
			<ratioKAlpha2KAlpha1>0.5000</ratioKAlpha2KAlpha1>
		</usedWavelength>
		<incidentBeamPath>
			<radius unit="mm">145.00</radius>
			<xRayTube id="1010048" name="Empyrean Cu LFF HR (9430 033 7310x)">
				<tension unit="kV">40.0</tension>
				<current unit="mA">15.0</current>
				<anodeMaterial>Cu</anodeMaterial>
				<focus type="Line">
					<length unit="mm">12.0</length>
					<width unit="mm">0.4</width>
					<takeOffAngle unit="deg">6.0</takeOffAngle>
				</focus>
			</xRayTube>
			<sollerSlit id="21010002" name="Soller slits 0.04 rad.">
				<opening unit="rad">0.0400</opening>
			</sollerSlit>
			<mask id="22031000" name="Fixed mask 13 mm">
				<width unit="mm">9.00</width>
			</mask>
			<divergenceSlit id="22120001" name="Divergence slit 1°" xsi:type="fixedDivergenceSlitType">
				<distanceToSample unit="mm">50.00</distanceToSample>
				<height unit="mm">1.52</height>
			</divergenceSlit>
		</incidentBeamPath>
		<sampleMovement xsi:type="spinningSampleMovementType">
			<spinnerRevolutionTime unit="seconds">1.0</spinnerRevolutionTime>
		</sampleMovement>
		<diffractedBeamPath>
			<radius unit="mm">145.00</radius>
			<antiScatterSlit id="22090040" name="AS slit 9 mm (PIXcel)" xsi:type="fixedAntiScatterSlitType">
				<height unit="mm">9.00</height>
			</antiScatterSlit>
			<sollerSlit id="21020003" name="Large Soller slits 0.04 rad.">
				<opening unit="rad">0.0400</opening>
			</sollerSlit>
			<filter id="20030001" name="Large beta-filter Nickel">
				<material>Ni</material>
				<thickness unit="mm">0.020</thickness>
			</filter>
			<detector id="7010019" name="PIXcel1D-Medipix3 detector" xsi:type="rtmsDetectorType">
				<phd unit="keV">
					<lowerLevel>4.02</lowerLevel>
					<upperLevel>11.27</upperLevel>
				</phd>
				<mode>Scanning</mode>
				<activeLength unit="deg">5.542</activeLength>
			</detector>
		</diffractedBeamPath>
		<scan appendNumber="0" mode="Continuous" scanAxis="Gonio" status="Completed">
			<header>
				<startTimeStamp>2025-11-13T15:52:53-08:00</startTimeStamp>
				<endTimeStamp>2025-11-13T16:01:00-08:00</endTimeStamp>
				<author>
					<name>AutomatedUser</name>
				</author>
				<source>
					<applicationSoftware version="1.7b (136)">PANalytical Aeris Instrument Suite</applicationSoftware>
					<instrumentControlSoftware version="3.2.00000000 20240306">AERIS</instrumentControlSoftware>
					<instrumentID>950485</instrumentID>
				</source>
			</header>
			<dataPoints>
				<positions axis="2Theta" unit="deg">
					<startPosition>10.00943322</startPosition>
					<endPosition>99.99442286</endPosition>
				</positions>
				<positions axis="Omega" unit="deg">
					<startPosition>5.00471661</startPosition>
					<endPosition>49.99721143</endPosition>
				</positions>
				<commonCountingTime unit="seconds">12.495</commonCountingTime>
				<counts unit="counts">2678 2632 2737 2523 2704 2667 2622 2810 2669 2695 2713 2609 2634 2503 2630 2579 2648 2598 2623 2663 2635 2596 2639 2650 2580 2691 2604 2714 2685 2584 2680 2632 2572 2565 2671 2530 2588 2636 2604 2637 2708 2602 2606 2548 2664 2706 2776 2631 2708 2638 2671 2659 2658 2742 2635 2659 2733 2514 2760 2659 2731 2578 2521 2631 2645 2692 2640 2732 2653 2739 2677 2642 2661 2767 2637 2725 2716 2709 2614 2590 2684 2661 2676 2608 2744 2682 2724 2661 2801 2723 2746 2709 2649 2652 2721 2703 2634 2675 2738 2759 2619 2640 2659 2624 2722 2744 2588 2653 2538 2633 2571 2676 2633 2680 2688 2697 2675 2695 2640 2657 2611 2683 2573 2643 2648 2696 2633 2798 2723 2668 2631 2646 2636 2690 2667 2670 2665 2653 2663 2763 2728 2800 2684 2675 2684 2587 2704 2609 2707 2581 2637 2571 2637 2725 2558 2733 2690 2580 2695 2563 2645 2627 2585 2648 2576 2725 2632 2698 2688 2598 2686 2698 2651 2677 2666 2617 2640 2658 2653 2648 2595 2624 2622 2590 2561 2596 2604 2530 2545 2558 2589 2596 2582 2513 2624 2557 2613 2609 2654 2597 2596 2529 2531 2638 2585 2611 2542 2644 2504 2624 2496 2572 2601 2650 2576 2648 2526 2650 2662 2569 2616 2611 2630 2454 2558 2460 2533 2516 2578 2577 2540 2604 2559 2577 2425 2579 2539 2492 2534 2517 2466 2505 2571 2536 2556 2446 2538 2586 2578 2512 2513 2563 2501 2626 2481 2549 2454 2619 2560 2425 2506 2449 2472 2466 2526 2541 2481 2543 2450 2519 2485 2489 2532 2544 2527 2546 2550 2369 2511 2537 2623 2439 2519 2610 2485 2529 2585 2531 2575 2527 2506 2465 2509 2512 2452 2578 2548 2591 2490 2546 2449 2526 2507 2512 2500 2409 2462 2611 2530 2524 2500 2482 2526 2479 2505 2553 2531 2606 2643 2550 2647 2578 2524 2507 2512 2562 2504 2473 2502 2584 2630 2570 2540 2508 2591 2614 2543 2624 2579 2629 2550 2695 2627 2738 2616 2643 2586 2608 2508 2729 2600 2650 2675 2617 2692 2638 2617 2753 2633 2627 2717 2742 2665 2701 2681 2663 2716 2802 2731 2672 2836 2752 2666 2759 2743 2743 2833 2838 2822 2833 2840 2816 2734 2788 2852 2745 2846 2717 2858 2739 2793 2867 2837 2882 2907 2855 2902 2878 2894 2880 2923 3029 2968 2958 3035 3118 3055 3045 3138 3044 2971 3140 3058 3160 3259 3158 3232 3203 3217 3127 3170 3118 3184 3218 3181 3173 3083 3130 3118 3093 3109 3170 3113 3117 3126 3203 3114 3189 3085 3240 3063 3218 3173 3114 3222 3135 3296 3155 3171 3104 3241 3224 3326 3248 3352 3278 3298 3367 3456 3438 3464 3568 3564 3509 3615 3635 3637 3711 3650 3761 3710 3738 3712 3724 3863 3769 3785 3667 3609 3617 3647 3498 3592 3481 3512 3223 3292 3313 3333 3156 3100 3121 3123 3132 3164 3111 3035 3108 3119 3040 3144 3130 2937 3066 3040 3113 3068 3156 3080 3176 3036 3111 3103 3171 2997 3094 3076 3081 3067 3147 3037 3023 3132 3020 2995 3011 3082 3095 3056 3079 2973 2978 2905 2992 2944 2903 2883 2890 2909 2825 2847 2819 2816 2871 2936 2922 2783 2839 2798 2827 2987 2800 2698 2797 2818 2747 2665 2707 2756 2689 2815 2782 2693 2717 2714 2817 2872 2751 2804 2680 2685 2707 2706 2768 2778 2648 2815 2721 2727 2792 2669 2654 2711 2719 2689 2727 2622 2691 2716 2671 2771 2643 2590 2658 2594 2704 2710 2594 2593 2636 2759 2715 2580 2684 2708 2729 2575 2576 2609 2609 2678 2620 2581 2684 2647 2720 2653 2579 2654 2623 2618 2602 2498 2560 2627 2607 2624 2627 2677 2624 2554 2565 2582 2590 2589 2529 2583 2587 2519 2461 2548 2534 2537 2566 2567 2623 2596 2591 2495 2527 2565 2519 2557 2650 2475 2531 2590 2552 2562 2554 2501 2557 2487 2538 2543 2541 2541 2509 2373 2528 2465 2535 2541 2558 2621 2597 2615 2624 2520 2552 2507 2467 2492 2455 2561 2471 2462 2539 2541 2470 2482 2565 2530 2541 2502 2440 2417 2541 2414 2479 2519 2375 2477 2552 2520 2464 2562 2501 2474 2564 2529 2511 2540 2457 2402 2423 2524 2359 2603 2575 2518 2398 2536 2520 2500 2460 2470 2486 2389 2489 2407 2493 2461 2385 2455 2553 2453 2431 2480 2581 2463 2466 2500 2513 2552 2473 2511 2446 2470 2430 2397 2530 2434 2522 2455 2474 2445 2469 2552 2404 2491 2447 2494 2474 2474 2436 2439 2527 2409 2488 2365 2437 2438 2466 2395 2474 2442 2380 2446 2367 2468 2503 2365 2522 2327 2448 2436 2465 2420 2415 2374 2377 2429 2502 2446 2429 2346 2558 2435 2467 2506 2356 2418 2402 2417 2386 2475 2484 2434 2354 2419 2318 2426 2374 2420 2386 2368 2432 2334 2403 2407 2396 2379 2437 2398 2338 2419 2369 2463 2407 2392 2405 2342 2418 2349 2387 2289 2457 2434 2480 2390 2341 2440 2360 2469 2293 2341 2370 2401 2335 2374 2405 2359 2340 2360 2360 2307 2403 2384 2277 2407 2360 2310 2392 2389 2336 2354 2302 2442 2374 2402 2367 2344 2229 2372 2383 2309 2375 2374 2367 2347 2441 2334 2336 2345 2330 2379 2297 2303 2264 2343 2361 2326 2369 2325 2412 2418 2276 2194 2333 2276 2347 2344 2345 2270 2307 2382 2366 2336 2301 2307 2392 2235 2258 2314 2319 2336 2329 2217 2330 2256 2330 2363 2332 2355 2254 2275 2298 2245 2222 2255 2252 2232 2354 2339 2280 2279 2252 2258 2362 2309 2219 2282 2240 2259 2307 2214 2246 2213 2279 2269 2325 2254 2307 2216 2302 2220 2271 2262 2283 2286 2309 2308 2258 2242 2230 2195 2150 2215 2250 2242 2224 2258 2168 2298 2179 2250 2208 2200 2204 2183 2209 2303 2153 2249 2180 2158 2236 2339 2225 2319 2216 2233 2255 2193 2232 2266 2206 2237 2206 2231 2240 2267 2263 2266 2168 2132 2237 2249 2166 2214 2223 2163 2295 2256 2202 2192 2176 2220 2139 2116 2103 2178 2110 2167 2240 2198 2158 2139 2306 2114 2156 2089 2178 2165 2174 2196 2168 2186 2225 2186 2178 2143 2224 2191 2263 2276 2257 2192 2293 2215 2137 2177 2191 2221 2065 2187 2215 2265 2226 2240 2140 2202 2179 2208 2221 2235 2221 2181 2253 2267 2236 2212 2170 2268 2283 2240 2237 2262 2252 2184 2197 2255 2231 2217 2320 2284 2302 2276 2180 2233 2203 2210 2170 2270 2216 2207 2185 2202 2142 2229 2376 2227 2141 2215 2129 2178 2237 2213 2246 2319 2218 2262 2242 2211 2217 2257 2302 2153 2210 2156 2210 2208 2218 2229 2174 2258 2211 2259 2196 2232 2210 2190 2241 2109 2194 2205 2224 2163 2192 2171 2287 2249 2164 2242 2182 2309 2118 2205 2126 2139 2196 2121 2189 2182 2146 2225 2162 2091 2217 2140 2135 2146 2097 2137 2025 2119 2151 2101 2207 2034 2096 2127 2076 2111 2170 2109 2131 2132 2152 2095 2135 2078 2070 2054 2088 2132 2011 2097 2091 2107 2037 2053 2104 2128 2062 2055 2029 2087 2065 1971 2124 2114 2067 2067 2033 2054 2003 1919 2043 2062 2004 1954 2039 2006 1914 1982 1971 1960 1957 2009 1934 1938 1994 1914 1909 1905 1916 1960 1924 1916 2005 2028 1864 1969 1932 2002 1962 1913 1887 1916 1916 1973 1965 1907 1902 1828 1943 1923 1877 1872 1804 1890 1882 1934 1841 1869 1859 1893 1830 1918 1885 1828 1826 1835 1868 1807 1817 1879 1873 1889 1862 1805 1807 1819 1903 1859 1836 1864 1816 1788 1816 1787 1858 1798 1737 1766 1805 1791 1826 1847 1769 1769 1735 1822 1731 1822 1860 1754 1703 1814 1757 1746 1759 1724 1780 1825 1725 1779 1740 1768 1761 1783 1819 1742 1724 1772 1709 1679 1761 1761 1754 1772 1671 1667 1726 1729 1700 1695 1686 1677 1783 1649 1722 1696 1811 1728 1603 1749 1681 1731 1716 1653 1719 1604 1722 1601 1737 1610 1647 1637 1728 1624 1587 1642 1721 1668 1634 1615 1616 1672 1700 1664 1686 1659 1689 1665 1657 1635 1688 1650 1704 1618 1735 1627 1725 1619 1660 1710 1655 1686 1584 1669 1680 1639 1659 1587 1676 1648 1690 1629 1609 1714 1662 1670 1674 1628 1635 1632 1726 1674 1629 1643 1691 1699 1647 1629 1667 1728 1692 1617 1658 1653 1661 1661 1654 1649 1744 1636 1623 1703 1692 1634 1625 1621 1637 1663 1624 1720 1686 1679 1617 1625 1646 1627 1590 1759 1703 1669 1693 1661 1667 1649 1649 1675 1640 1687 1700 1654 1648 1682 1632 1617 1659 1609 1659 1661 1752 1674 1704 1609 1602 1657 1728 1669 1701 1790 1663 1748 1712 1608 1721 1709 1682 1697 1693 1641 1658 1643 1668 1779 1696 1719 1717 1686 1727 1677 1624 1676 1684 1655 1666 1650 1706 1670 1599 1640 1701 1659 1661 1655 1695 1687 1671 1618 1623 1653 1637 1640 1712 1728 1720 1687 1638 1686 1708 1706 1635 1746 1646 1714 1678 1642 1630 1676 1648 1698 1670 1663 1662 1766 1671 1662 1670 1673 1587 1690 1601 1757 1595 1671 1710 1709 1680 1580 1580 1660 1680 1626 1672 1677 1598 1652 1733 1607 1619 1669 1641 1547 1649 1680 1602 1608 1605 1678 1551 1610 1624 1669 1590 1659 1659 1650 1648 1619 1591 1571 1688 1681 1569 1616 1582 1570 1577 1605 1570 1582 1593 1560 1649 1599 1631 1680 1678 1603 1570 1602 1570 1550 1479 1515 1517 1513 1522 1490 1548 1530 1524 1526 1475 1598 1503 1552 1557 1428 1528 1554 1520 1552 1463 1514 1558 1599 1540 1509 1522 1565 1548 1466 1539 1468 1542 1477 1442 1489 1509 1530 1488 1505 1453 1476 1568 1417 1507 1455 1459 1510 1451 1451 1549 1506 1544 1554 1519 1580 1642 1560 1690 1645 1706 1672 1846 1716 1860 1807 1853 1861 1891 1891 1851 1872 1934 1824 1793 1802 1726 1708 1636 1643 1616 1552 1616 1622 1566 1513 1502 1607 1605 1535 1531 1582 1510 1512 1520 1550 1541 1548 1552 1570 1562 1567 1610 1664 1565 1555 1655 1655 1629 1724 1643 1767 1774 1741 1792 1843 1830 1836 1772 1896 1873 1922 1913 1992 1925 1916 1883 1893 1775 1821 1838 1768 1782 1676 1776 1617 1629 1574 1594 1574 1466 1466 1491 1471 1387 1468 1411 1407 1325 1379 1361 1404 1377 1332 1352 1394 1259 1359 1315 1278 1334 1293 1296 1351 1321 1374 1390 1389 1422 1388 1464 1414 1501 1520 1486 1556 1636 1722 1744 1805 1850 1981 1937 2079 2091 2149 2090 2103 2152 2128 2028 2003 1931 1945 1739 1749 1649 1682 1651 1551 1613 1508 1568 1514 1465 1511 1526 1450 1627 1507 1469 1477 1529 1485 1608 1592 1535 1616 1633 1552 1670 1632 1669 1652 1762 1802 1789 1877 1794 1949 1960 2011 2138 2164 2241 2184 2181 2280 2265 2243 2327 2281 2356 2302 2281 2160 2176 2168 2098 2006 1954 1965 1912 1810 1765 1651 1613 1533 1556 1456 1454 1496 1450 1350 1325 1348 1346 1260 1309 1275 1250 1229 1284 1327 1236 1281 1284 1271 1295 1256 1283 1272 1237 1303 1202 1229 1291 1294 1317 1302 1317 1325 1317 1271 1326 1226 1258 1283 1237 1261 1279 1301 1323 1210 1247 1264 1187 1162 1327 1098 1182 1203 1130 1178 1177 1177 1209 1186 1155 1195 1108 1194 1153 1099 1165 1141 1206 1138 1166 1215 1128 1150 1122 1130 1047 1139 1104 1173 1088 1147 1154 1080 1156 1130 1128 1152 1176 1147 1147 1088 1122 1152 1111 1191 1158 1115 1148 1169 1041 1178 1157 1104 1192 1082 1135 1151 1197 1131 1098 1117 1194 1179 1151 1130 1102 1122 1076 1115 1130 1161 1135 1100 1141 1143 1131 1075 1068 1137 1129 1098 1116 1090 1124 1106 1133 1091 1096 1078 1092 1034 1108 1130 1090 1108 1083 1093 1082 1153 1125 1079 1086 1025 1130 1140 1084 1108 1028 1118 1062 1135 1069 1107 1115 1083 1080 1118 1118 1095 1088 1050 1059 1077 1113 1053 1135 1061 1059 1041 1136 1118 1110 1092 1083 1067 1082 1050 1124 1079 1126 1101 1127 1138 1081 1040 1089 1050 1092 1095 1090 1099 1152 1098 1103 1057 1101 1083 1124 1024 1085 1148 1161 1104 1015 1069 1046 1081 1087 1081 1081 1062 1103 1039 1095 1114 1110 1045 1103 1010 1080 1111 1070 1108 1111 1137 1140 1085 1144 1062 1089 1049 1030 1079 1101 1048 1062 1072 993 1118 1058 1111 1049 1065 1129 1108 1032 1053 1071 1087 1082 1072 1039 1055 1053 1111 1078 1056 1101 1109 1104 1052 1130 1069 1124 1092 1063 1048 1054 1057 1050 1095 1048 1083 1024 1070 1067 1067 1034 1049 1057 1103 1046 1142 1062 1074 1133 1042 1021 1101 1027 1083 1080 1111 1094 1123 1083 1108 1047 1113 1057 1024 1049 1124 1082 1123 1153 1120 1085 1129 1111 1170 1118 1142 1126 1144 1130 1170 1185 1184 1098 1157 1146 1147 1190 1197 1216 1239 1234 1326 1259 1344 1431 1486 1503 1531 1649 1722 1859 1887 2035 2294 2426 2581 2763 2812 2989 3029 3267 3390 3285 3407 3297 3333 3279 3187 3080 3036 2874 2825 2668 2626 2510 2449 2310 2253 2295 2157 2269 2222 2129 2046 2177 2234 2180 2085 2116 2236 2300 2251 2376 2364 2475 2496 2576 2645 2846 2819 3026 3091 3240 3299 3383 3521 3784 3845 4029 4252 4199 4435 4407 4519 4495 4509 4465 4658 4518 4581 4477 4416 4163 4067 4049 3881 3718 3556 3281 3255 2945 2754 2668 2438 2295 2288 2103 2072 1958 1841 1874 1781 1726 1689 1685 1614 1606 1620 1551 1528 1599 1529 1577 1551 1514 1522 1531 1454 1395 1447 1440 1385 1416 1368 1377 1353 1361 1283 1311 1377 1285 1270 1271 1272 1271 1280 1280 1226 1299 1217 1235 1214 1165 1190 1198 1136 1131 1159 1126 1161 1068 1129 1183 1103 1050 1095 1029 1121 1033 1080 1119 1096 1093 1065 1022 1006 981 1048 991 1011 1069 1071 1037 1006 1063 1025 1088 1036 1039 1036 1028 1025 1044 1039 1098 1057 1039 1066 990 1065 988 1034 1039 1038 1059 1067 1045 1053 1072 1040 1060 1026 999 1025 988 1034 986 1050 1061 1052 1029 1020 1008 974 993 988 945 1039 1047 1023 1012 1072 1044 988 1021 1021 1005 1015 1089 1051 964 1038 1015 974 1007 940 992 992 1001 939 972 967 996 1002 968 1005 942 1021 1033 968 963 1024 992 1032 1052 1021 1069 1028 983 1017 972 969 974 1057 997 996 991 987 975 938 996 1033 1039 1023 1004 1006 1045 1062 1003 995 1015 1006 1042 1003 996 968 996 999 988 987 1065 981 1035 1007 1016 1025 930 1020 1054 988 1062 1011 970 1021 988 929 1010 975 1008 1004 1000 998 1089 986 1041 1065 1071 1037 1016 955 940 1021 1045 1021 970 1004 1064 1027 959 1017 984 1048 939 990 998 1005 1063 1008 956 973 1004 1009 929 996 986 1043 999 953 1036 979 1007 1018 999 964 1037 1032 1026 1069 1006 1023 1028 992 1042 1037 972 1070 1028 1046 1085 1068 1068 1063 1055 1057 1045 1031 1044 1057 1008 1025 1006 966 927 1034 916 1014 971 980 985 983 989 982 977 954 988 987 962 973 939 923 989 930 986 974 1009 950 1019 1009 960 957 984 986 951 1001 1012 990 953 1011 941 990 954 977 954 1005 1007 1011 936 934 936 957 922 940 916 1015 899 959 926 1041 906 953 1008 949 908 933 964 919 974 954 918 940 873 916 938 894 936 925 962 897 959 936 947 959 937 946 914 897 924 945 950 948 909 943 953 984 1040 916 981 951 887 900 917 945 964 946 928 904 960 960 956 920 970 960 965 948 1015 919 961 962 883 923 966 952 933 961 879 991 882 972 912 898 915 952 967 893 997 894 950 924 925 920 918 859 925 927 912 944 940 942 924 927 918 937 910 967 881 861 972 951 909 942 924 898 934 974 958 946 932 889 940 934 914 871 892 897 985 927 908 944 893 883 901 925 915 910 925 931 950 926 877 913 887 949 916 892 890 956 966 904 932 854 902 938 888 925 889 941 886 959 905 955 919 927 940 969 928 904 946 853 974 897 930 939 926 963 892 921 939 919 900 886 934 867 896 854 875 892 846 957 910 910 951 927 884 902 916 918 851 872 851 866 915 936 888 900 990 902 900 936 956 928 890 906 890 937 973 923 917 913 909 950 916 943 909 950 897 883 870 911 900 905 937 892 877 955 943 945 878 921 876 899 945 924 871 887 915 928 895 916 886 898 919 919 859 862 848 936 921 920 949 897 917 933 949 949 911 942 935 970 895 972 907 878 948 858 894 891 926 864 897 907 912 905 906 873 888 886 920 922 860 877 907 931 871 914 886 901 934 952 887 907 907 931 914 992 847 888 904 958 863 925 847 909 897 894 940 933 885 897 915 927 888 937 847 938 896 917 905 947 952 917 924 891 921 890 904 908 937 880 908 901 933 950 922 927 926 870 953 898 918 908 868 908 928 893 833 891 910 956 943 888 888 903 878 898 934 934 917 892 877 892 951 964 918 868 914 905 870 925 931 956 888 937 901 914 931 831 909 881 994 831 877 910 961 922 862 914 925 905 874 871 923 929 887 914 904 895 916 974 923 877 833 920 869 977 915 895 865 888 910 852 856 961 899 953 952 932 936 916 917 928 890 913 922 906 924 910 872 903 890 925 904 921 930 877 920 904 951 925 862 905 909 912 879 943 956 926 966 937 914 944 896 841 843 944 903 882 905 880 906 924 915 930 888 922 928 978 951 949 896 909 902 895 898 899 861 925 932 876 864 938 930 910 936 912 918 938 973 925 829 900 977 951 912 980 921 883 900 924 889 902 841 903 874 982 910 931 935 950 909 926 931 956 904 895 884 892 878 884 905 938 846 898 890 889 920 953 880 927 950 936 921 884 865 900 859 944 942 967 948 939 941 887 963 886 928 949 934 959 941 958 963 947 1003 938 953 979 973 1053 1003 1033 1116 1086 1100 1064 1174 1244 1177 1239 1174 1218 1174 1198 1184 1169 1139 1167 1141 1092 1135 1060 1152 1117 1098 1114 1135 1092 1085 1120 1024 986 1020 1058 1113 1103 1037 1063 1048 1116 1049 1142 1033 1113 1118 1149 1172 1163 1187 1174 1212 1171 1202 1225 1172 1233 1267 1273 1292 1281 1275 1319 1271 1271 1253 1311 1341 1261 1232 1222 1226 1150 1218 1142 1145 1117 1165 1056 1124 1060 1031 1035 978 1037 977 946 971 961 958 948 966 966 966 966 939 959 973 972 942 991 885 930 970 920 947 946 947 919 936 947 988 929 909 994 1029 943 972 918 871 891 941 956 866 910 896 927 868 903 943 970 908 960 929 945 957 972 985 966 856 924 929 966 953 942 973 927 961 902 915 972 924 910 1008 919 936 920 924 948 923 928 939 951 914 901 917 900 914 931 910 873 912 887 902 919 897 928 989 922 867 896 904 889 862 871 898 965 951 892 897 905 920 895 865 899 876 922 900 936 896 910 870 929 895 945 926 857 889 955 963 877 918 861 888 905 958 926 889 887 932 897 915 850 908 913 886 936 907 893 903 900 934 887 890 848 947 914 876 901 894 859 888 946 887 921 849 912 977 940 959 879 888 884 861 951 949 966 878 964 894 917 862 905 891 910 878 863 935 909 927 920 957 883 911 930 933 931 921 914 915 961 956 914 894 895 887 875 889 924 955 934 930 904 936 894 912 938 934 910 933 940 880 899 955 925 940 873 926 869 956 919 952 965 881 956 923 954 926 921 929 939 934 960 894 890 894 920 917 895 876 963 935 927 936 950 946 988 930 957 914 915 935 990 962 900 917 937 942 970 937 941 953 939 932 911 946 973 989 942 945 927 947 960 936 954 933 970 991 994 1001 963 997 949 1016 968 949 993 1003 1043 1043 1051 1022 1150 1179 1108 1278 1297 1307 1383 1511 1598 1788 1898 2006 2116 2377 2350 2501 2460 2528 2522 2557 2622 2609 2480 2469 2475 2464 2448 2347 2402 2354 2237 2246 2138 2160 2115 2011 2015 1936 1883 1985 1921 1955 1922 1957 1838 1910 1862 1977 1951 2039 2038 2122 2144 2149 2152 2347 2391 2516 2502 2650 2744 2844 2779 2977 3024 3079 3088 3192 3155 3121 3154 3155 3021 2983 2927 2914 2731 2736 2662 2408 2375 2312 2116 2134 2014 1903 1810 1673 1655 1542 1480 1406 1483 1345 1256 1220 1237 1176 1184 1114 1176 1126 1128 1095 1135 999 1061 1089 1083 1136 1068 1044 1039 1033 1039 965 998 1030 989 1008 1002 1040 1078 1078 1030 1095 1026 1027 1027 976 1092 1065 1035 1032 1099 1038 999 1007 1023 1047 1007 1026 1031 1015 996 1029 1043 1038 1067 1006 960 1069 988 1067 1049 1069 1005 1049 1007 1066 1082 1039 1068 1055 1007 1000 1053 1002 1004 1030 994 1088 987 1013 1060 1017 1021 1005 997 1040 1007 1006 1001 1036 980 969 968 972 955 974 888 963 946 924 874 948 975 918 962 964 937 886 944 934 915 938 976 934 935 890 890 943 908 952 970 972 944 951 935 952 947 946 904 987 977 936 917 981 908 955 949 1006 990 1030 963 1066 1062 1095 1083 1100 1010 1109 1075 1090 1065 1114 1065 1127 1078 1045 1100 1090 1074 1033 1033 1108 1092 1062 1036 1049 1028 1034 1013 1070 1059 1043 1028 987 992 1017 1050 1040 1012 1062 1072 1051 1070 1078 1104 1084 1090 1144 1161 1024 1128 1173 1107 1119 1137 1075 1114 1154 1148 1161 1117 1121 1102 1148 1166 1115 1064 1033 1052 1081 995 1106 1051 986 1008 1032 1005 984 989 999 963 917 929 975 902 934 966 921 913 913 856 833 888 898 891 927 929 855 878 880 900 876 869 850 836 870 825 903 861 865 880 853 879 895 886 883 902 894 817 909 836 910 903 870 851 858 858 903 817 864 897 860 866 864 883 855 842 856 831 839 878 855 856 928 885 889 891 893 880 907 852 952 918 831 847 859 876 852 867 809 839 855 857 864 839 913 887 845 873 865 828 834 910 919 888 856 865 847 851 863 800 849 867 859 861 863 901 836 838 855 833 827 852 835 805 866 811 857 811 881 819 909 886 874 861 877 837 816 855 817 866 873 867 823 796 846 853 910 842 842 841 833 851 882 857 862 845 902 837 863 859 888 842 830 831 845 845 853 848 857 876 846 848 786 836 837 887 856 865 840 841 857 844 846 886 841 865 880 798 851 873 852 837 786 850 850 819 834 909 831 799 840 929 854 826 890 814 842 872 923 874 819 846 904 839 870 889 864 820 856 783 865 865 895 898 861 857 838 832 858 868 802 831 837 868 880 902 855 798 851 881 814 858 864 828 847 822 847 850 852 882 837 838 815 840 800 831 862 819 831 835 828 851 859 884 850 886 856 798 814 839 859 814 834 866 902 842 807 827 795 854 803 829 820 826 859 858 780 822 887 838 873 870 837 781 844 853 849 817 832 817 823 888 858 846 893 805 805 869 792 817 887 845 808 816 836 880 822 832 813 857 821 842 843 826 848 857 833 793 839 844 833 855 862 870 846 838 872 831 826 862 810 834 875 841 923 856 796 888 825 839 867 816 853 836 895 829 861 916 808 824 884 852 864 869 833 882 843 839 819 890 875 805 864 853 866 898 811 849 860 819 823 834 856 816 823 836 876 850 808 865 836 810 858 793 907 832 875 840 827 757 799 826 897 864 803 897 856 833 851 843 835 836 873 830 832 835 844 817 832 829 874 855 828 803 851 861 835 851 850 857 853 842 831 842 870 846 840 898 811 842 825 820 863 879 859 911 877 885 817 871 858 823 884 875 847 870 839 897 798 804 889 853 870 812 836 861 821 932 891 863 888 840 824 871 869 908 816 852 873 864 839 843 882 803 820 880 885 827 906 858 865 895 897 902 896 865 906 849 899 898 894 891 848 821 935 852 893 866 893 888 908 913 893 869 872 955 881 867 872 896 895 841 909 841 897 873 854 887 934 932 910 857 864 886 943 911 929 929 951 901 901 949 978 1003 998 918 920 964 953 921 1006 916 951 1017 968 1086 1033 1135 1008 1091 1058 1046 1097 1040 1032 1031 1013 1078 1017 1047 980 1092 996 1060 1089 1009 1006 969 991 1030 995 974 975 1048 994 1040 991 1006 920 961 913 986 999 977 1004 983 1003 1069 1038 1093 1092 1087 1118 1078 1041 1095 1111 1046 1119 1065 1109 1111 1077 1071 1104 1062 1093 1062 1095 1067 1110 981 1007 1011 966 976 976 999 938 964 959 905 886 902 896 903 866 874 870 860 868 875 896 864 879 835 862 875 864 903 846 869 889 852 885 840 867 831 956 836 845 872 868 880 864 870 873 874 872 911 869 857 906 844 887 854 906 899 909 881 858 886 878 843 887 863 851 852 866 863 843 877 842 916 909 881 848 938 949 888 801 882 875 880 808 834 843 869 845 850 859 907 869 836 937 849 904 817 900 902 849 897 876 883 988 843 828 868 821 881 879 874 886 882 924 888 889 860 873 856 866 909 907 885 919 895 864 862 869 819 865 860 837 850 840 871 848 841 801 817 892 875 841 836 856 841 826 822 845 829 859 822 820 898 836 836 829 829 885 878 859 875 848 860 859 834 861 831 875 861 865 828 806 870 869 856 869 876 835 892 886 907 857 861 850 904 959 875 877 864 952 957 961 941 1044 1047 1056 1099 1114 1146 1210 1171 1216 1193 1244 1251 1194 1236 1162 1249 1224 1219 1275 1220 1204 1219 1234 1179 1246 1245 1246 1177 1200 1218 1240 1215 1217 1162 1162 1202 1121 1164 1212 1207 1238 1134 1202 1171 1229 1143 1234 1277 1308 1284 1337 1276 1306 1290 1377 1406 1427 1416 1389 1410 1360 1331 1397 1368 1372 1316 1310 1315 1299 1254 1254 1245 1263 1184 1177 1093 1100 1176 1143 1081 1043 1020 1064 1046 1011 965 949 934 974 950 961 950 927 907 904 911 889 905 899 879 884 876 881 881 817 894 810 947 906 889 883 871 869 826 879 840 867 854 896 826 851 848 902 838 879 862 862 890 878 873 855 855 896 835 830 918 864 862 893 876 845 885 835 860 824 898 865 870 887 825 887 907 848 851 864 896 823 833 847 857 870 931 928 901 838 806 887 811 814 818 834 858 860 855 828 869 830 832 894 861 816 899 863 874 874 854 927 854 816 862 859 890 912 843 953 886 899 862 918 897 919 987 923 884 963 943 959 903 966 924 951 919 904 914 923 931 949 957 959 1003 947 945 947 938 967 949 896 939 902 949 906 863 862 893 960 953 956 949 983 931 939 920 974 964 973 999 950 998 1014 982 921 935 946 977 920 989 906 960 984 963 1000 946 962 922 907 1013 919 951 883 878 865 889 884 916 897 874 858 901 914 899 902 899 870 868 895 877 835 844 819 874 848 845 800 872 841 854 904 838 861 840 842 808 816 881 854 889 819 841 829 847 794 876 794 777 854 852 856 850 820 802 824 857 870 829 859 812 803 851 844 808 843 794 828 815 802 794 809 845 841 836 932 797 850 841 806 816 811 856 867 828 775 792 838 865 807 844 827 827 807 834 869 791 786 848 868 831 844 844 808 841 881 780 829 821 805 801 865 823 857 789 827 792 858 820 841 826 849 856 873 799 858 856 804 822 810 817 828 854 826 835 853 802 811 847 838 834 828 815 823 820 802 829 885 823 803 849 832 811 785 843 859 831 875 832 851 842 782 800 830 852 848 856 781 780 750 820 894 833 811 822 843 818 842 867 809 867 790 847 882 842 809 829 795 821 790 784 821 850 821 833 784 836 829 852 805 832 782 806 779 848 884 824 835 790 851 808 828 805 776 789 799 823 789 827 822 844 773 829 821 786 768 837 875 801 747 795 844 838 823 839 774 846 819 839 819 832 808 833 823 789 793 831 823 829 870 796 763 791 791 843 790 870 786 822 786 784 780 881 813 792 858 807 796 818 830 833 806 777 834 814 786 796 826 839 819 831 824 825 763 843 859 820 827 819 875 810 761 820 823 824 826 819 849 826 846 852 826 790 804 796 844 914 816 801 803 818 833 778 827 854 812 821 781 820 830 843 891 809 815 820 844 813 767 839 802 828 819 801 781 778 774 797 799 815 837 804 878 789 856 798 843 839 805 807 834 837 816 771 823 839 848 814 830 827 801 825 834 852 813 791 859 841 832 826 803 837 840 794 804 830 845 803 833 791 745 828 848 849 771 846 801 841 778 835 803 788 777 809 832 751 849 781 808 801 838 835 838 832 837 796 799 793 834 840 815 830 819 844 869 825 849 791 804 768 851 814 815 829 835 848 860 800 920 848 846 872 865 885 881 890 902 836 826 866 857 837 861 902 870 917 840 870 855 859 870 894 870 839 840 826 867 848 838 877 885 772 843 881 875 855 861 853 841 879 848 892 886 915 873 869 859 882 922 888 901 926 872 933 903 863 886 932 864 881 893 854 851 915 889 853 863 845 827 853 889 851 841 892 762 886 889 824 831 846 837 892 820 810 808 788 844 814 797 850 809 826 834 845 798 850 818 846 843 829 842 831 846 841 865 842 786 826 816 871 857 812 812 840 850 798 837 816 832 842 822 845 818 773 807 852 769 851 804 782 798 840 823 881 818 840 844 831 837 824 851 877 836 839 818 841 837 850 855 818 804 738 821 866 829 784 822 826 836 834 811 893 861 789 840 806 815 826 829 825 839 860 832 792 867 790 827 875 767 804 838 819 795 776 792 798 825 817 804 825 793 847 850 827 832 866 848 781 840 859 809 858 804 860 848 868 849 788 767 784 822 829 789 817 839 784 824 771 790 873 823 832 835 782 775 822 830 833 833 829 859 813 833 812 826 820 817 835 836 838 783 788 812 733 803 824 816 782 825 877 799 820 849 814 780 819 811 887 808 824 817 874 783 849 779 824 808 811 852 813 776 829 866 818 845 809 825 786 849 806 831 816 789 843 851 857 831 844 863 843 828 856 824 854 822 799 786 855 898 850 957 953 952 912 857 893 933 945 953 955 958 906 944 995 955 970 1026 949 984 977 952 948 1029 896 973 948 957 975 968 932 959 1024 971 942 997 989 934 967 963 1027 986 1017 957 974 972 987 1068 1048 1026 985 1078 1025 1057 1053 1090 1027 1062 1039 982 990 996 1069 1030 985 1010 926 1004 1022 930 996 946 941 970 979 969 944 912 920 863 894 857 950 849 856 865 845 890 867 858 854 857 897 893 906 855 873 813 848 766 852 820 836 807 850 832 813 882 865 871 805 772 845 840 853 843 858 836 854 808 906 857 840 830 834 827 838 858 893 767 857 882 843 808 885 878 852 841 872 826 876 835 824 869 855 817 878 812 805 818 864 818 871 857 826 819 828 853 832 853 838 856 762 837 775 800 831 813 855 823 847 863 843 814 802 848 819 807 805 820 796 820 849 837 843 804 793 860 793 839 815 793 845 806 859 794 834 833 812 820 852 820 814 814 791 860 798 875 835 843 846 800 818 778 809 767 813 795 812 810 812 841 797 758 858 789 804 813 814 786 809 808 849 767 751 813 820 826 819 775 792 805 866 822 831 771 846 843 823 808 830 852 778 853 812 820 841 796 845 831 788 763 907 831 776 819 816 774 830 824 857 816 877 836 835 783 828 811 788 820 826 826 842 834 766 786 833 817 782 883 823 818 798 804 814 827 822 813 827 912 787 812 829 805 773 784 776 788 806 869 790 833 832 830 824 793 809 838 793 825 815 798 803 740 804 755 850 819 805 842 803 749 839 776 789 821 801 765 827 796 822 848 823 793 764 801 802 811 873 833 788 830 807 787 821 843 816 768 803 759 824 877 778 836 818 816 833 834 811 814 804 862 824 816 798 784 768 781 828 788 840 804 814 841 785 782 784 826 820 786 823 787 832 824 795 833 801 825 800 831 787 848 801 797 805 780 834 841 811 841 788 823 869 829 833 786 814 804 835 841 803 861 811 827 775 832 805 816 822 831 811 795 874 827 794 852 820 807 840 830 827 791 810 813 794 806 826 807 834 797 753 812 803 794 819 807 768 814 849 820 794 803 842 833 768 856 830 780 816 822 893 792 841 825 815 768 818 854 856 784 839 832 810 816 809 782 871 831 821 780 859 808 797 835 845 836 789 862 833 841 818 859 814 859 840 792 813 833 802 822 843 814 815 818 740 792 830 809 830 783 811 793 832 794 850 813 796 765 832 782 798 794 830 851 768 825 830 828 766 778 820 729 824 807 849 832 820 768 823 769 799 826 877 806 762 766 825 830 773 836 802 810 863 805 788 856 838 788 826 829 833 766 836 777 833 822 867 771 788 847 816 789 804 846 884 804 791 785 797 813 841 829 819 805 846 835 817 812 794 850 822 842 806 813 831 853 758 800 836 831 873 820 818 786 829 789 921 850 823 797 813 801 827 810 832 855 851 859 842 873 789 817 869 854 862 826 777 836 820 816 835 794 847 830 785 854 831 943 869 817 901 858 856 855 920 859 861 860 899 886 865 870 863 765 897 851 911 906 815 869 877 861 796 911 912 876 906 840 873 883 941 885 901 916 896 909 891 879 879 887 883 926 836 927 867 930 866 843 896 910 960 869 885 861 980 904 908 877 906 917 902 867 919 975 949 888 863 895 883 892 894 933 881 842 943 957 912 869 907 943 910 870 902 882 963 955 844 887 975 909 899 897 911 911 882 922 858 923 882 955 921 917 899 955 964 919 877 937 970 930 929 956 935 920 866 942 887 895 872 923 889 906 879 824 842 883 909 891 862 893 894 852 857 843 848 866 858 857 757 835 881 831 887 810 926 844 850 850 866 816 827 833 820 849 826 845 784 877 806 832 817 821 810 809 830 828 817 829 854 843 909 815 876 808 839 854 831 807 867 827 802 866 852 835 848 868 825 825 876 818 841 826 870 844 841 809 848 791 851 840 812 784 844 873 832 841 906 836 839 815 875 835 839 811 839 823 861 809 858 871 875 841 870 844 813 831 873 844 850 848 814 779 855 863 828 846 858 820 862 811 803 829 856 868 881 886 840 902 893 846 876 850 861 837 837 910 884 818 772 886 839 888 848 900 866 924 897 898 913 896 883 890 883 933 924 902 952 964 962 933 937 971 976 1018 1002 942 1017 1046 1084 1099 1035 1154 1111 1194 1153 1173 1105 1153 1190 1172 1175 1160 1227 1216 1223 1164 1200 1264 1211 1219 1258 1213 1253 1204 1245 1226 1272 1282 1302 1222 1299 1327 1311 1281 1327 1393 1365 1411 1377 1349 1424 1382 1491 1353 1441 1425 1343 1431 1319 1435 1415 1416 1380 1307 1269 1245 1260 1246 1244 1246 1243 1148 1208 1213 1168 1165 1194 1155 1168 1081 1148 1158 1161 1080 1067 1070 1032 1051 1078 1013 1032 1030 937 974 977 952 905 931 910 920 926 917 927 906 959 911 841 893 903 896 926 962 892 857 889 880 893 901 895 816 863 839 921 867 863 852 837 830 858 825 890 841 878 833 862 847 820 904 887 876 861 877 892 848 825 853 870 865 846 808 879 827 843 814 846 816 907 909 825 870 793 851 826 838 847 841 833 891 898 821 843 871 838 859 821 855 866 837 893 877 873 854 855 881 847 877 914 887 938 883 903 891 837 862 907 910 848 913 911 902 909 915 903 905 894 926 886 896 920 872 915 934 946 917 890 954 842 905 912 855 913 927 922 956 937 922 897 873 963 985 936 894 911 899 924 985 892 929 941 905 944 909 919 899 878 923 887 857 960 858 881 916 921 849 845 895 912 929 928 876 852 827 883 853 887 881 827 852 886 865 854 904 872 927 892 864 875 849 829 854 827 847 854 814 867 836 856 808 836 887 888 800 861 870 853 921 878 857 831 862 833 825 829 822 798 848 838 844 880 867 792 890 829 845 844 778 849 809 821 811 844 871 850 835 788 894 820 867 844 828 834 834 773 802 848 776 900 786 896 788 854 830 819 840 867 839 850 797 788 823 814 836 838 891 852 862 816 882 821 851 864 861 844 818 833 827 841 832 910 838 820 845 812 832 792 824 832 835 831 774 888 793 857 810 817 798 864 861 814 924 898 864 842 775 838 816 838 812 840 836 824 838 827 740 817 845 856 913 845 892 850 854 814 882 810 862 858 738 860 830 824 822 772 842 825 875 805 878 823 831 863 863 828 805 830 810 817 856 863 816 853 815 809 812 779 795 853 840 844 848 819 819 799 832 845 868 759 869 806 827 826 859 795 802 802 830 835 827 809 859 844 832 868 814 837 845 880 796 868 846 790 825 830 837 798 807 807 862 862 845 778 792 794 823 820 851 834 828 834 841 869 797 827 832 817 854 800 813 791 828 839 840 865 792 893 821 810 874 843 829 860 832 818 848 832 853 788 840 815 821 809 882 840 833 873 807 796 824 773 852 779 858 827 859 816 838 803 792 879 811 847 845 814 804 869 816 788 783 830 808 823 821 853 820 818 846 869 815 856 845 831 803 800 877 860 852 846 830 844 839 764 815 876 837 825 848 848 815 785 781 910 944 839 855 860 777 886 813 851 801 816 834 832 782 848 840 891 839 846 849 835 761 812 829 830 824 817 823 838 798 795 835 877 826 804 824 874 821 824 843 831 841 840 905 848 834 860 864 858 850 884 862 826 846 878 814 860 858 886 926 913 842 889 877 862 883 884 847 890 876 869 898 826 874 863 898 893 829 826 843 874 877 910 964 939 861 836 896 902 912 914 956 875 925 928 956 927 856 895 889 898 879 943 878 879 861 866 862 905 901 841 871 856 877 866 859 856 857 880 834 840 846 880 823 888 878 828 866 872 834 849 806 859 837 852 878 827 808 845 845 865 807 808 843 825 885 853 847 826 876 812 806 840 890 863 851 798 861 810 807 827 846 850 841 830 844 815 855 852 855 810 860 830 848 889 841 822 792 854 838 853 841 863 836 873 845 852 805 812 828 794 837 820 825 867 834 864 846 827 805 813 795 801 812 818 807 767 869 801 870 823 814 860 834 866 827 865 819 876 884 818 837 852 825 872 847 831 829 835 842 810 873 834 774 858 853 815 886 833 826 847 821 858 816 785 832 855 771 837 815 854 856 882 776 848 833 832 850 812 797 799 803 830 861 796 828 868 822 835 861 847 835 859 799 856 765 810 826 889 868 807 852 853 849 868 854 815 881 833 833 835 823 882 838 833 837 845 856 845 851 818 849 822 868 852 891 883 868 877 860 860 922 912 892 858 815 840 871 894 882 865 926 886 976 991 894 972 927 1017 995 970 943 985 1004 1031 1025 1088 1071 1083 1093 1063 1114 1116 1096 1151 1072 1153 1139 1114 1096 1216 1071 1149 1126 1092 1138 1096 1115 1129 1141 1179 1139 1172 1221 1277 1304 1195 1263 1279 1279 1295 1233 1271 1247 1279 1261 1279 1261 1254 1245 1247 1275 1179 1182 1176 1084 1165 1078 1123 1167 1170 1142 1075 1063 1103 1094 1034 1051 1109 1054 1106 1043 1027 1069 1021 981 1092 1050 980 1033 954 930 992 1010 958 999 931 1005 976 926 873 980 880 883 857 906 952 861 878 932 882 920 905 883 866 898 905 807 910 929 872 875 845 883 892 928 906 898 915 858 881 918 851 884 869 902 891 893 872 856 928 876 865 834 829 810 868 900 850 892 871 848 846 868 871 832 884 891 878 837 825 911 866 865 845 828 821 849 806 832 819 899 856 871 826 868 832 847 824 815 890 838 852 867 836 840 866 831 887 902 841 831 870 854 834 836 817 844 916 847 898 831 801 850 922 862 843 856 857 898 938 835 898 908 867 889 850 874 915 868 870 889 912 862 878 897 949 833 886 874 910 863 886 848 853 874 923 859 873 902 871 930 824 841 879 896 907 872 912 850 881 863 907 893 886 899 894 843 815 905 881 868 894 882 895 885 864 912 858 869 936 843 835 825 903 902 847 841 903 855 844 861 853 819 865 915 820 848 885 869 819 787 841 827 853 845 797 853 857 834 861 832 816 795 868 815 783 816 832 904 819 857 860 820 881 780 865 825 834 824 798 828 844 843 844 819 808 830 800 814 823 850 845 829 848 813 837 791 850 825 855 847 840 805 815 779 813 844 851 878 854 878 837 850 820 813 809 792 833 808 854 821 838 858 878 832 851 839 847 820 843 794 813 826 849 887 828 847 842 862 815 844 854 826 873 851 787 813 843 882 818 856 855 789 859 849 868 846 852 815 899 897 818 812 810 859 824 840 854 901 839 883 840 791 844 830 787 799 854 862 834 799 853 830 822 815 852 862 863 809 860 872 878 840 875 817 820 898 795 788 788 829 836 859 848 846 836 844 799 803 850 802 785 793 828 811 857 847 847 818 778 865 875 806 814 830 823 834 853 801 815 819 822 863 840 820 853 805 804 833 821 803 815 782 799 803 864 811 784 809 865 816 828 893 825 793 817 845 850 866 813 826 828 796 870 853 812 855 850 837 815 848 850 844 834 814 848 838 797 883 822 805 784 860 827 878 856 796 786 815 861 863 866 872 874 845 808 907 831 868 812 819 862 845 844 799 853 839 824 864 818 844 834 837 750 838 829 818 794 836 863 857 867 806 823 826 832 908 875 855 840 846 855 848 905 833 842 841 895 836 855 830 834 865 788 865 792 817 856 845 848 793 808 846 801 854 869 840 840 854 831 840 868 848 781 801 870 864 849 816 816 814 905 795 886 822 853 870 841 803 847 872 818 911 827 875 842 838 790 817 802 794 930 863 883 830 853 885 867 891 872 898 860 884 916 893 855 895 845 899 892 925 879 938 871 941 901 903 883 906 931 842 892 909 962 921 918 936 854 913 972 877 882 895 900 934 921 973 941 967 914 964 886 938 921 917 925 910 880 922 985 954 947 959 929 936 925 939 897 980 922 927 962 912 928 918 941 921 936 878 879 927 951 898 969 900 896 951 886 949 887 878 906 865 878 914 895 932 888 955 1013 900 913 889 891 879 926 926 942 949 882 872 854 924 963 889 910 958 975 881 874 894 886 937 869 897</counts>
			</dataPoints>
		</scan>
	</xrdMeasurement>
</xrdMeasurements>
