<?xml version="1.0"?>
<xrdMeasurements xmlns="http://www.xrdml.com/XRDMeasurement/2.3" xmlns:xsi="http://www.w3.org/2001/XMLSchema-instance" xsi:schemaLocation="http://www.xrdml.com/XRDMeasurement/2.3 http://www.xrdml.com/XRDMeasurement/2.3/XRDMeasurement.xsd" status="Completed" recordIdentifier="{33615AC5-37D0-4F1A-9DDA-586282090DCF}">
	<comment>
		<entry/>
	</comment>
	<sample type="To be analyzed">
		<id>GPSS_Li1p4Mn0p8Nb0p2Cl4_100825_68e6fdc007cf888582f941b1</id>
		<name></name>
		<preparedBy></preparedBy>
	</sample>
	<xrdMeasurement measurementType="Scan" status="Completed" sampleMode="Reflection">
		<usedWavelength intended="K-Alpha 1">
			<kAlpha1 unit="Angstrom">1.5405980</kAlpha1>
			<kAlpha2 unit="Angstrom">1.5444260</kAlpha2>
			<kBeta unit="Angstrom">1.3922500</kBeta>
			<ratioKAlpha2KAlpha1>0.5000</ratioKAlpha2KAlpha1>
		</usedWavelength>
		<incidentBeamPath>
			<radius unit="mm">145.00</radius>
			<xRayTube id="1010048" name="Empyrean Cu LFF HR (9430 033 7310x)">
				<tension unit="kV">40.0</tension>
				<current unit="mA">15.0</current>
				<anodeMaterial>Cu</anodeMaterial>
				<focus type="Line">
					<length unit="mm">12.0</length>
					<width unit="mm">0.4</width>
					<takeOffAngle unit="deg">6.0</takeOffAngle>
				</focus>
			</xRayTube>
			<sollerSlit id="21010002" name="Soller slits 0.04 rad.">
				<opening unit="rad">0.0400</opening>
			</sollerSlit>
			<mask id="22031000" name="Fixed mask 13 mm">
				<width unit="mm">9.00</width>
			</mask>
			<divergenceSlit id="22120001" name="Divergence slit 1°" xsi:type="fixedDivergenceSlitType">
				<distanceToSample unit="mm">50.00</distanceToSample>
				<height unit="mm">1.52</height>
			</divergenceSlit>
		</incidentBeamPath>
		<sampleMovement xsi:type="spinningSampleMovementType">
			<spinnerRevolutionTime unit="seconds">1.0</spinnerRevolutionTime>
		</sampleMovement>
		<diffractedBeamPath>
			<radius unit="mm">145.00</radius>
			<antiScatterSlit id="22090040" name="AS slit 9 mm (PIXcel)" xsi:type="fixedAntiScatterSlitType">
				<height unit="mm">9.00</height>
			</antiScatterSlit>
			<sollerSlit id="21020003" name="Large Soller slits 0.04 rad.">
				<opening unit="rad">0.0400</opening>
			</sollerSlit>
			<filter id="20030001" name="Large beta-filter Nickel">
				<material>Ni</material>
				<thickness unit="mm">0.020</thickness>
			</filter>
			<detector id="7010019" name="PIXcel1D-Medipix3 detector" xsi:type="rtmsDetectorType">
				<phd unit="keV">
					<lowerLevel>4.02</lowerLevel>
					<upperLevel>11.27</upperLevel>
				</phd>
				<mode>Scanning</mode>
				<activeLength unit="deg">5.542</activeLength>
			</detector>
		</diffractedBeamPath>
		<scan appendNumber="0" mode="Continuous" scanAxis="Gonio" status="Completed">
			<header>
				<startTimeStamp>2025-10-17T13:51:00-07:00</startTimeStamp>
				<endTimeStamp>2025-10-17T13:59:07-07:00</endTimeStamp>
				<author>
					<name>AutomatedUser</name>
				</author>
				<source>
					<applicationSoftware version="1.7b (136)">PANalytical Aeris Instrument Suite</applicationSoftware>
					<instrumentControlSoftware version="3.2.00000000 20240306">AERIS</instrumentControlSoftware>
					<instrumentID>950485</instrumentID>
				</source>
			</header>
			<dataPoints>
				<positions axis="2Theta" unit="deg">
					<startPosition>10.00943322</startPosition>
					<endPosition>99.99442286</endPosition>
				</positions>
				<positions axis="Omega" unit="deg">
					<startPosition>5.00471661</startPosition>
					<endPosition>49.99721143</endPosition>
				</positions>
				<commonCountingTime unit="seconds">12.495</commonCountingTime>
				<counts unit="counts">3132 3058 3040 3171 3092 3064 3106 3085 3054 3071 3190 3112 3104 3154 3016 3080 3089 2968 3058 3030 3160 3048 3070 3068 3090 3069 3189 2995 3025 3209 3091 3137 3059 3099 3100 3078 3167 3114 3133 3081 3191 3112 3238 3086 3109 3150 3092 3162 3190 3127 3273 3157 3074 3099 3152 3143 3124 3268 3128 3191 3284 3128 3182 3042 3141 3124 3242 3251 3296 3284 3329 3284 3392 3398 3450 3298 3433 3363 3440 3435 3341 3403 3364 3302 3405 3306 3375 3414 3354 3451 3434 3259 3167 3284 3291 3295 3318 3297 3332 3276 3238 3266 3221 3096 3162 3316 3281 3176 3219 3156 3229 3098 3207 3251 3059 3200 3109 3158 3259 3247 3179 3172 3182 3086 3061 3142 3165 3221 3150 3204 3103 3209 3145 3166 3140 3154 3203 3136 3009 3169 3247 3140 3119 3218 3185 3110 3159 3128 3155 3118 3195 3131 3170 3119 3143 3168 3180 3088 3196 3027 3243 3160 3194 3108 3124 3207 3190 3223 3218 3220 3229 3111 3119 3171 3179 3236 3257 3118 3118 3155 3119 3065 3205 3191 3242 3164 3224 3298 3179 3110 3210 3101 3159 3116 3199 3199 3169 3254 3222 3164 3191 3097 3213 3095 3149 3176 3089 3156 3141 3156 3172 3173 3188 3200 3199 3225 3015 3204 3042 3097 3112 3157 2990 3038 3152 3100 3093 2984 3126 3084 3176 3003 3125 3217 3072 3087 3119 3253 3174 3155 3075 3123 3049 3147 3125 3033 3106 3080 3162 3137 3105 3111 3168 3049 3133 3085 3113 3089 3172 3080 3113 3240 3179 3187 3090 3083 3188 3114 3058 3168 3139 3200 3190 3220 3119 3154 3169 3080 3054 3216 3221 3154 3313 3199 3168 3122 3210 3249 3188 3205 3204 3129 3199 3229 3312 3196 3241 3242 3188 3213 3223 3236 3222 3317 3253 3362 3268 3268 3260 3213 3274 3270 3169 3251 3227 3397 3304 3383 3375 3345 3366 3319 3325 3349 3254 3409 3339 3376 3416 3323 3362 3386 3311 3402 3392 3290 3446 3510 3471 3533 3441 3419 3496 3396 3457 3477 3568 3429 3452 3496 3522 3587 3455 3545 3570 3509 3564 3562 3415 3577 3556 3501 3431 3548 3563 3636 3654 3505 3636 3591 3577 3696 3546 3652 3578 3575 3650 3545 3709 3640 3707 3704 3641 3648 3648 3623 3704 3777 3711 3772 3844 3727 3745 3691 3868 3793 3853 3874 3987 3910 3888 3911 3886 3989 3912 4207 4236 4235 4289 4377 4414 4472 4734 4739 4926 4937 5042 4997 5184 5139 5235 5216 5246 5286 5429 5440 5244 5322 5361 5354 5009 5008 4953 4769 4702 4613 4469 4352 4203 4121 4107 4005 3930 4042 3911 3911 3920 3871 3938 3766 3831 3821 3824 3808 3926 3900 3925 3999 3851 3954 4014 3916 4034 3902 4064 4004 4014 4045 3967 4093 4130 3990 4167 4063 4005 4023 4020 4069 3922 3861 3840 3852 3766 3724 3753 3634 3718 3605 3657 3577 3562 3564 3433 3534 3471 3542 3571 3489 3528 3509 3379 3390 3451 3373 3421 3439 3405 3369 3416 3381 3557 3376 3374 3404 3387 3456 3428 3371 3350 3333 3324 3368 3333 3326 3300 3488 3296 3387 3306 3352 3329 3310 3192 3375 3362 3330 3320 3227 3293 3288 3265 3271 3246 3275 3173 3290 3218 3254 3173 3105 3093 3268 3295 3242 3249 3161 3219 3040 3278 3248 3272 3176 3288 3104 3089 3179 3217 3105 3131 3235 3153 3239 3156 3080 3124 3127 3100 3234 3101 3183 3100 3030 3202 3160 3095 3150 3111 3073 3064 3144 3117 3051 3146 3204 3114 3178 3140 3020 3026 3082 3148 3117 3047 3066 3134 2986 3145 3127 3026 3058 3010 3028 3048 3117 3092 3072 3080 3079 3092 3107 3019 3077 3011 3025 3171 3054 3046 3061 3060 2996 3009 3151 3003 3057 3107 2907 3000 3034 3054 3101 3088 3066 3136 3078 3019 3029 3110 3104 2989 3038 3018 3056 3034 3104 3054 3016 3064 3023 3037 3028 3042 2971 3066 3051 3087 3016 3017 3022 3037 2970 3026 3033 3081 2997 3031 3057 3069 3029 3036 2973 3037 3020 3065 3063 2956 3052 2917 3012 3039 2995 2951 3015 2973 2894 3030 3026 3040 2990 2971 2944 2992 3065 2973 2955 2982 3019 2972 2987 2845 2988 2972 3003 2998 3073 2882 2892 2970 3014 2981 2989 2957 2936 3028 2901 2964 3013 3064 2948 2912 2949 2930 2963 2929 2963 3026 2909 3026 2974 2843 2965 2891 2939 3029 2885 2993 2951 2998 2971 2921 2967 2999 2949 2944 2988 2897 3012 2969 2892 2916 2916 2935 2908 2905 3038 2844 2852 2885 2958 2961 2924 2940 2919 2976 3011 3010 2904 2973 3001 2903 3023 2908 2867 2899 2857 2758 2945 2890 2918 2841 2863 3005 2891 2936 2838 2831 2870 2915 2923 2786 2897 2940 2924 2809 2868 2895 2838 2891 2902 2930 2796 2899 2969 2867 2857 2978 2839 2914 2866 2845 2839 2884 2889 2875 2924 2847 2965 2828 2885 2890 2850 2802 2860 2767 2832 2907 2880 2867 2880 2847 2783 2817 2844 2905 2873 2815 2793 2892 2813 2889 2875 2723 2800 2808 2874 2769 2751 2735 2815 2846 2874 2783 2767 2743 2730 2827 2771 2798 2728 2745 2731 2806 2803 2834 2860 2735 2828 2769 2839 2737 2786 2825 2815 2768 2767 2741 2741 2787 2737 2817 2701 2759 2694 2873 2694 2885 2816 2786 2674 2759 2667 2843 2733 2736 2776 2768 2631 2772 2729 2738 2722 2681 2737 2713 2763 2711 2749 2678 2785 2763 2766 2718 2698 2739 2651 2658 2673 2700 2773 2758 2695 2701 2659 2681 2744 2657 2724 2761 2692 2690 2695 2645 2693 2697 2775 2724 2696 2689 2664 2665 2723 2815 2587 2653 2750 2656 2688 2719 2659 2727 2758 2644 2587 2680 2726 2688 2620 2517 2666 2718 2713 2772 2670 2670 2605 2758 2676 2687 2629 2609 2740 2686 2703 2623 2745 2675 2686 2578 2667 2718 2688 2700 2629 2694 2683 2653 2669 2635 2693 2669 2694 2668 2750 2580 2695 2618 2753 2587 2684 2629 2601 2663 2632 2714 2711 2676 2633 2522 2747 2749 2762 2728 2624 2615 2627 2687 2649 2734 2695 2699 2713 2662 2728 2647 2749 2707 2735 2701 2772 2674 2727 2732 2689 2629 2818 2791 2758 2670 2601 2752 2780 2663 2681 2630 2674 2737 2789 2720 2759 2610 2787 2676 2661 2692 2767 2699 2657 2731 2731 2732 2797 2717 2637 2717 2658 2660 2700 2664 2664 2699 2758 2693 2720 2657 2740 2620 2664 2654 2601 2652 2664 2717 2709 2685 2806 2647 2594 2677 2656 2635 2664 2601 2623 2659 2694 2661 2667 2669 2666 2656 2598 2638 2637 2666 2664 2578 2611 2713 2669 2635 2675 2636 2630 2682 2585 2510 2575 2624 2604 2610 2554 2577 2541 2570 2511 2649 2596 2560 2613 2503 2473 2555 2515 2605 2541 2633 2590 2501 2555 2536 2498 2588 2511 2509 2484 2542 2525 2535 2358 2516 2380 2462 2487 2490 2466 2520 2512 2524 2464 2493 2376 2450 2444 2427 2529 2425 2440 2459 2480 2455 2497 2475 2397 2437 2360 2367 2342 2411 2381 2413 2394 2292 2295 2316 2399 2268 2323 2385 2322 2328 2311 2370 2290 2375 2376 2263 2210 2314 2277 2361 2270 2266 2278 2368 2331 2196 2258 2242 2286 2224 2232 2240 2301 2289 2358 2203 2256 2211 2252 2245 2209 2192 2248 2196 2148 2301 2166 2170 2139 2167 2211 2248 2172 2103 2173 2083 2160 2167 2168 2190 2248 2091 2208 2146 2128 2146 2115 2137 2067 2076 2152 2157 2169 2129 2181 2188 2048 2146 2208 2149 2170 2132 2081 2152 2186 2171 2113 2041 2030 2028 2177 2032 2146 2091 2059 2110 2017 2027 2112 2016 2079 2078 2042 2033 2029 1968 1970 2097 2070 2096 2084 2018 1997 2094 2025 2087 2019 2011 2015 2029 2068 2067 1961 2073 2075 2018 2096 2019 1993 2106 2070 2056 2019 1926 2137 2073 2126 1988 1953 2025 2062 1942 1981 1979 2025 2019 2003 1963 2035 2027 1969 1906 2004 1978 2008 1981 1949 1980 2043 2036 2101 1942 2032 2107 1985 2010 1952 1987 2022 1955 1948 1969 2010 2004 2005 1933 2052 1953 2063 2059 2021 1951 2023 2010 1933 1993 1994 1976 2013 1976 1979 1934 1972 1953 2033 2032 1991 1924 2015 1966 2013 1982 1968 1971 1945 1930 2019 2039 1961 2037 1984 1989 2030 1972 2080 1982 2054 2044 1989 1950 2049 1987 1948 2035 2042 2009 2035 1949 1945 2051 1944 2044 2189 2080 1997 2004 2003 2012 2032 2029 1917 1984 2031 1963 1872 2055 2054 1981 1872 2028 1957 1896 2037 2005 2035 2006 2058 1968 2002 1998 2066 1972 2078 1995 1939 1940 1977 2048 2021 1986 1983 1987 2049 2019 2007 1955 2010 1971 1993 2010 2028 1920 1951 1945 1927 1996 2008 2035 2012 1975 2025 2010 1985 2032 1963 1981 1948 1986 1991 2002 1952 1932 1929 1938 1936 2000 1926 2002 1966 1988 2004 1978 2020 1941 1926 1924 1909 2029 1879 1982 1971 1984 1901 1955 1854 1923 1920 1966 1934 1919 1849 1988 1911 1945 1875 1970 1880 1980 1770 1871 1957 1923 1879 1932 1942 1964 1922 1906 1895 1922 1833 1924 1882 1880 1932 1800 1831 1884 1851 1917 1860 1813 1837 1868 1775 1813 1817 1813 1855 1821 1771 1839 1775 1865 1786 1769 1789 1811 1832 1796 1762 1845 1822 1840 1724 1764 1784 1828 1742 1745 1801 1882 1733 1786 1744 1856 1771 1843 1751 1723 1803 1707 1725 1667 1737 1727 1751 1778 1703 1889 1813 1753 1625 1763 1664 1745 1727 1755 1795 1702 1675 1696 1676 1744 1671 1793 1765 1674 1765 1710 1697 1704 1699 1680 1729 1724 1674 1669 1694 1695 1726 1699 1724 1732 1730 1718 1722 1680 1705 1769 1761 1718 1720 1743 1715 1706 1723 1769 1800 1774 1840 1809 1822 1911 1848 2005 2028 2029 2059 2145 2282 2331 2341 2377 2536 2658 2746 2722 2773 2840 2920 2856 2976 2893 2918 2951 2988 2889 2921 2802 2652 2603 2518 2398 2338 2285 2168 2072 1983 2014 1897 1899 1779 1835 1781 1663 1698 1728 1645 1677 1607 1655 1656 1682 1618 1612 1625 1613 1622 1675 1595 1625 1527 1594 1528 1495 1621 1575 1537 1602 1647 1587 1535 1664 1580 1513 1581 1535 1484 1500 1540 1533 1530 1542 1574 1579 1590 1568 1581 1606 1565 1549 1589 1536 1509 1468 1506 1519 1489 1525 1587 1530 1490 1635 1536 1542 1525 1505 1585 1581 1543 1570 1603 1525 1666 1588 1666 1698 1623 1805 1798 1749 1945 1954 2140 2176 2348 2521 2751 2985 3122 3321 3322 3377 3684 3814 3656 3756 4006 3972 3945 3956 3978 3944 3900 3824 3518 3426 3301 3196 3036 2867 2739 2464 2431 2263 2087 2067 1885 1785 1726 1783 1719 1729 1660 1617 1570 1517 1534 1491 1497 1527 1491 1591 1527 1549 1531 1487 1532 1480 1542 1570 1628 1604 1653 1624 1674 1745 1781 1700 1757 1808 1770 1726 1671 1670 1790 1723 1722 1727 1714 1672 1622 1637 1655 1594 1571 1533 1613 1526 1505 1492 1498 1423 1483 1437 1427 1449 1484 1422 1411 1349 1346 1414 1435 1377 1351 1343 1337 1417 1409 1335 1404 1352 1404 1336 1380 1333 1330 1334 1334 1393 1369 1309 1373 1401 1300 1319 1364 1410 1364 1337 1394 1382 1336 1344 1349 1347 1345 1339 1345 1383 1346 1357 1329 1328 1359 1336 1344 1339 1205 1303 1359 1360 1395 1293 1337 1372 1318 1364 1421 1250 1304 1241 1276 1395 1363 1335 1309 1356 1332 1344 1336 1339 1294 1315 1259 1316 1234 1278 1266 1238 1262 1334 1318 1319 1280 1294 1283 1268 1270 1348 1249 1340 1330 1273 1298 1238 1244 1323 1318 1275 1305 1346 1288 1306 1354 1267 1260 1215 1279 1284 1255 1316 1261 1318 1289 1288 1302 1260 1353 1263 1297 1320 1243 1307 1250 1310 1285 1321 1236 1297 1276 1169 1343 1266 1291 1232 1258 1234 1224 1252 1227 1262 1243 1211 1240 1291 1313 1245 1349 1254 1277 1266 1254 1288 1267 1282 1272 1248 1323 1306 1268 1239 1302 1309 1328 1323 1366 1295 1318 1279 1314 1329 1346 1422 1341 1343 1342 1399 1341 1476 1456 1383 1504 1446 1455 1426 1461 1461 1470 1460 1475 1435 1412 1446 1460 1500 1503 1428 1392 1421 1291 1385 1346 1375 1297 1282 1338 1338 1272 1294 1313 1290 1318 1304 1286 1239 1352 1298 1237 1182 1315 1284 1288 1266 1274 1263 1296 1267 1219 1230 1245 1231 1213 1259 1281 1236 1236 1245 1294 1278 1279 1254 1323 1252 1327 1206 1324 1227 1287 1248 1194 1314 1238 1242 1314 1270 1272 1269 1265 1287 1298 1244 1257 1248 1254 1274 1331 1356 1294 1265 1269 1249 1329 1262 1373 1279 1245 1295 1227 1316 1294 1275 1299 1294 1285 1260 1222 1365 1389 1315 1324 1296 1272 1311 1371 1309 1316 1366 1357 1298 1351 1348 1381 1369 1417 1389 1438 1408 1399 1395 1451 1377 1441 1467 1461 1481 1471 1505 1522 1564 1559 1545 1696 1750 1763 1883 1927 2070 2144 2317 2528 2770 2933 3346 3697 4134 4564 5160 5767 6365 6621 7099 7256 7870 8041 8066 8463 8553 8675 8866 8775 8801 8577 8416 8317 7904 7264 6915 6480 5969 5547 5302 4744 4413 4087 3760 3359 3142 2822 2689 2460 2374 2285 2185 2189 2193 2144 2149 2107 2066 2062 2123 2089 2126 2062 2110 2002 2115 2051 1987 1978 2117 1944 1857 1896 1901 1876 1825 1710 1754 1786 1751 1774 1749 1702 1674 1739 1681 1731 1789 1769 1795 1757 1751 1750 1608 1751 1764 1592 1619 1617 1623 1602 1551 1584 1520 1464 1447 1395 1376 1407 1365 1345 1363 1308 1268 1279 1296 1241 1221 1269 1223 1291 1285 1242 1204 1187 1193 1243 1207 1210 1236 1211 1243 1279 1194 1169 1159 1165 1243 1187 1253 1200 1206 1182 1140 1151 1141 1206 1177 1180 1118 1187 1247 1217 1198 1174 1173 1232 1215 1238 1194 1141 1152 1143 1137 1173 1156 1215 1228 1203 1212 1186 1211 1200 1175 1161 1169 1186 1166 1181 1161 1177 1175 1175 1144 1144 1150 1197 1156 1207 1124 1150 1236 1156 1172 1176 1157 1141 1170 1185 1077 1239 1088 1164 1188 1192 1124 1098 1201 1161 1191 1093 1158 1148 1126 1188 1087 1140 1135 1130 1144 1152 1148 1114 1139 1083 1120 1142 1136 1098 1117 1094 1120 1096 1101 1104 1080 1123 1193 1135 1125 1111 1127 1094 1122 1116 1159 1063 1120 1148 1135 1101 1110 1137 1098 1131 1143 1074 1152 1184 1133 1129 1142 1071 1111 1128 1098 1064 1104 1130 1087 1115 1111 1109 1141 1114 1099 1083 1122 1119 1135 1164 1090 1043 1156 1068 1038 1081 1093 1155 1090 1127 1144 1113 1075 1107 1083 1166 1061 1079 1123 1123 1069 1072 1117 1154 1169 1160 1141 1160 1090 1167 1182 1178 1152 1200 1178 1247 1165 1171 1214 1234 1175 1138 1215 1222 1147 1219 1144 1094 1079 1154 1104 1201 1085 1130 1107 1135 1112 1085 1122 1112 1080 1055 1067 1023 1122 1110 1084 1124 1125 1032 1040 1081 1035 1078 1128 1080 1107 1100 1090 1157 1185 1071 1127 1054 1139 1026 1108 1120 1100 1177 1128 1094 1117 1145 1102 1172 1067 1089 1106 1127 1114 1076 1094 1012 1105 1090 1025 1094 1065 1120 1094 1099 1099 1144 1098 1051 1077 1048 1073 1053 1092 1027 1054 1082 1094 977 1077 1064 992 1071 1032 1047 1059 1019 1075 1044 1022 1033 991 1053 1062 1018 1086 992 1085 1029 1010 1105 1082 1088 1004 1015 1058 1095 1043 1054 1063 1010 1023 1056 1034 1021 1046 1083 1035 1012 1052 1009 1027 1067 1021 1058 1020 1029 975 1099 1020 1006 1079 994 990 1048 1097 958 1046 991 956 992 1075 1086 1028 1057 1043 1022 1042 1045 1028 1113 987 1067 1034 1060 1082 1056 1032 1068 1056 1036 1038 996 1051 991 1062 978 1039 1027 1022 1022 933 1021 1051 1064 1067 976 1060 962 985 1053 1024 1023 1035 981 996 1054 1025 1029 990 1095 1061 1048 1006 988 1021 977 957 984 1022 1028 1036 1052 1060 1002 954 1036 996 1000 980 1050 965 1006 991 1019 1008 1069 985 1012 1019 994 975 953 1021 948 1010 1033 1068 995 1036 961 1006 1006 1007 1011 1006 963 1022 921 1017 1028 1024 971 1037 1008 1037 1011 1006 1009 1029 985 964 1002 971 1050 1069 1013 1014 1025 1027 1030 966 996 1013 1005 981 995 1055 972 957 995 982 1039 1052 1025 1018 971 1026 1058 1002 964 1090 1027 995 1011 957 1000 1046 996 1005 1028 983 996 985 1034 1011 956 988 1060 995 1005 1045 970 975 974 970 1021 1013 1027 1006 1002 1023 939 1006 1015 965 1011 1021 923 1019 972 972 1068 1036 926 990 1021 971 992 979 998 1037 990 960 977 1005 1025 1006 1005 950 928 986 1033 936 977 949 973 951 1009 1022 987 998 974 947 1011 1009 1036 1012 969 943 955 965 978 955 987 1044 935 1033 1044 999 976 1022 978 947 1048 986 946 976 1003 1009 981 1016 982 986 941 1018 972 1029 977 946 951 928 1006 947 927 998 993 1007 971 972 982 992 985 1070 992 989 1025 992 985 1015 952 1003 928 1013 968 1022 990 1044 965 988 982 973 1055 956 991 998 971 975 946 982 1002 862 944 1012 1006 982 943 1005 1058 959 1015 971 950 998 944 1008 995 968 1020 970 1027 942 979 959 990 1041 967 914 941 974 941 944 993 995 949 973 980 961 1007 999 961 1029 982 944 988 1026 964 1023 965 934 973 953 996 1033 955 961 1023 981 1003 963 984 979 1004 986 965 1000 962 990 924 952 1005 937 976 973 927 995 978 1000 966 963 982 984 973 989 936 981 985 995 935 995 941 965 985 920 970 981 964 954 1031 1006 978 994 997 973 933 953 952 987 998 1055 953 1013 961 961 1016 1019 938 976 1031 998 984 989 994 977 970 969 1001 1011 994 963 880 970 1048 950 1034 981 975 1032 970 961 993 935 979 973 943 1026 986 998 1016 1007 976 989 942 983 1019 959 996 997 1000 1027 992 1007 968 1013 1059 1035 951 1079 1012 1009 1017 991 1070 970 1024 1021 1015 975 988 968 1076 1039 992 994 1009 983 1028 1009 996 993 1027 1009 1027 948 1015 1013 1016 981 997 956 1034 978 960 857 975 972 1011 1006 957 1040 1013 961 1031 963 971 963 996 958 965 1046 1028 967 975 1018 999 935 1046 988 1043 1009 1002 1064 1004 1085 1113 1065 1135 1170 1218 1274 1268 1375 1416 1465 1503 1553 1583 1610 1580 1682 1634 1728 1677 1716 1743 1759 1781 1689 1695 1612 1527 1501 1485 1404 1330 1360 1310 1305 1284 1286 1136 1177 1128 1130 1080 1092 1002 1052 1011 977 1004 984 1012 999 1016 956 974 939 951 973 1011 948 972 971 941 970 963 978 980 978 973 985 961 938 942 986 956 998 999 959 974 931 983 914 948 994 953 974 959 964 922 1013 989 985 980 972 975 1038 956 999 1003 971 958 1018 1021 1008 1044 994 988 1012 1033 1064 1032 1020 955 1044 957 981 1027 1008 987 961 1023 1055 1044 955 929 960 982 962 939 941 973 1005 941 943 880 957 962 970 937 890 989 944 957 940 918 911 939 989 942 977 964 938 950 954 977 972 962 955 939 935 925 897 952 951 941 919 863 972 923 927 924 950 932 912 910 958 922 947 993 948 933 960 933 943 929 944 900 920 956 958 925 855 954 922 915 947 960 964 919 944 861 869 951 924 1010 949 946 908 900 918 925 944 939 936 886 945 898 966 887 945 968 946 878 877 1003 936 961 919 948 950 935 881 943 928 940 952 942 972 955 963 988 890 963 964 986 956 899 957 985 945 965 942 944 952 935 934 964 948 949 980 951 885 892 984 971 896 920 934 952 916 962 896 935 985 940 914 934 913 983 972 970 932 974 925 970 933 925 972 951 948 929 922 939 978 933 974 973 978 974 947 904 894 927 980 955 955 978 953 982 932 872 954 934 860 929 924 960 942 978 964 930 994 947 908 971 911 980 885 974 951 976 903 913 940 1025 931 907 977 883 964 951 928 920 968 930 947 994 979 971 959 998 968 1044 1012 948 973 1026 997 988 939 1010 1036 971 948 1038 1061 1045 1030 980 1101 1092 1049 1068 1009 1049 1066 1067 1006 1129 1064 1156 1123 1174 1192 1200 1203 1244 1270 1340 1425 1486 1653 1666 1839 1971 2208 2457 2644 2991 3374 3567 3879 4100 4316 4488 4538 4612 4630 4490 4649 4599 4844 4824 4884 4566 4488 4247 3995 3852 3554 3284 3081 2951 2688 2569 2453 2400 2178 2019 1897 1744 1679 1494 1483 1401 1327 1223 1223 1225 1130 1085 1122 1105 1076 1074 1077 1068 1023 1022 1077 1057 1063 1021 1045 959 1037 1001 971 1058 989 996 931 961 954 986 947 1004 1024 953 933 1001 962 1006 949 960 966 980 923 1008 953 1045 1001 949 927 977 1013 1050 915 1005 988 927 943 1025 1073 978 1040 1022 999 1054 1023 1169 1117 1143 1106 1096 1154 1097 1182 1209 1182 1169 1104 1137 1139 1240 1170 1173 1126 1140 1197 1167 1121 1160 1082 1132 1066 1110 1077 1047 1137 1089 1057 995 1060 1031 1067 1048 1019 1095 975 994 1001 963 990 970 1001 971 939 976 946 929 933 982 951 914 898 952 932 903 927 947 905 884 929 917 917 890 947 890 885 928 919 905 976 916 927 881 919 916 948 912 935 935 924 945 855 879 913 905 869 870 927 957 899 951 945 882 909 900 977 893 929 895 889 927 965 968 924 892 953 985 963 978 911 962 1003 985 1007 1055 1086 1112 1169 1213 1272 1318 1309 1322 1293 1353 1288 1168 1318 1244 1264 1312 1298 1327 1255 1322 1286 1247 1245 1230 1148 1217 1209 1154 1112 1117 1130 1078 1088 1029 1061 1011 999 979 973 940 966 938 940 975 962 900 929 937 916 919 891 895 880 920 886 938 914 895 881 889 911 871 896 902 828 871 829 896 867 922 823 870 858 888 886 859 884 964 931 927 938 962 907 868 908 904 869 847 923 925 878 882 854 869 870 878 834 850 864 856 913 836 828 870 903 888 852 859 866 845 916 829 865 863 860 843 898 861 837 892 889 827 869 923 865 916 875 893 825 846 866 837 927 878 873 857 915 873 889 855 907 871 807 872 849 834 897 847 898 873 848 867 859 861 830 850 830 893 867 813 806 905 848 880 830 877 878 817 846 911 830 905 821 818 825 813 865 873 868 863 863 872 869 906 878 870 911 835 858 842 860 897 816 851 788 874 838 874 865 883 847 822 818 820 906 854 887 879 842 893 830 883 895 897 907 836 889 840 848 867 893 891 855 851 815 833 879 823 849 856 798 843 809 874 879 863 816 869 890 882 858 935 826 844 893 858 868 829 806 839 872 902 877 787 838 830 910 836 786 857 838 815 808 864 777 871 843 780 828 868 819 876 880 865 854 882 843 846 882 833 870 843 853 878 801 861 833 845 843 870 881 845 862 825 846 800 849 898 893 856 862 827 871 805 808 838 800 882 818 813 820 805 885 831 824 859 789 844 806 849 827 834 819 803 817 859 812 848 836 850 835 888 877 799 814 809 829 827 807 855 833 849 821 840 812 834 778 853 776 825 827 830 859 817 878 828 821 844 811 777 879 889 848 851 817 863 862 813 839 848 827 808 843 840 831 800 853 847 792 808 778 821 829 860 848 834 834 829 836 866 839 793 820 818 796 805 872 811 893 804 845 800 797 823 803 792 789 821 832 847 861 823 861 851 805 844 831 850 848 796 845 827 820 836 855 752 838 796 785 787 829 791 810 861 822 832 791 821 811 764 836 862 835 818 862 851 874 811 854 766 824 813 814 827 833 828 875 846 787 824 858 869 831 833 809 853 855 828 853 833 830 894 820 856 846 759 858 763 855 778 803 891 783 829 833 811 865 785 836 807 780 766 781 813 817 858 840 835 826 787 822 846 808 823 786 832 836 815 825 782 786 803 798 827 825 784 842 805 862 821 858 818 849 816 806 758 809 806 862 777 862 813 833 801 817 884 821 828 883 829 762 840 817 832 824 845 857 819 861 854 792 837 807 818 844 881 907 842 898 843 872 854 934 958 954 925 958 920 906 943 951 904 891 953 970 950 928 934 952 921 956 871 901 906 877 892 801 872 796 881 860 850 873 887 854 858 843 880 889 880 849 822 838 847 880 880 841 857 858 823 813 856 808 875 905 846 886 931 890 864 906 903 932 922 993 1085 1115 1153 1125 1192 1240 1258 1260 1317 1291 1294 1257 1227 1255 1242 1340 1232 1304 1286 1230 1204 1193 1188 1056 1096 1093 1126 1070 1073 1070 1004 987 985 942 929 863 941 866 851 868 839 883 922 859 894 799 861 842 868 884 798 829 808 893 829 819 845 782 802 823 854 860 806 838 805 799 815 801 822 827 783 810 788 772 831 860 779 862 876 839 791 870 831 809 802 860 832 843 756 858 801 801 806 836 821 857 862 807 835 789 807 842 780 871 838 831 825 805 871 876 755 803 803 861 851 878 871 843 801 830 808 850 899 879 878 883 859 883 901 850 896 860 929 881 877 983 883 868 847 891 893 838 875 876 854 842 859 845 844 823 850 835 829 818 842 925 825 878 858 874 812 836 825 830 812 786 802 856 843 852 812 810 763 876 834 814 818 828 808 800 798 854 848 783 832 841 833 857 787 797 824 810 868 844 826 831 870 829 846 856 849 842 838 852 859 794 799 809 778 863 857 883 823 858 790 825 800 799 893 828 833 824 788 808 798 826 809 809 881 830 820 855 817 821 851 833 850 853 855 838 826 826 835 850 867 856 843 919 837 859 876 877 860 843 926 899 881 979 984 1051 1023 1128 1157 1255 1279 1400 1601 1650 1660 1729 1632 1734 1637 1687 1648 1613 1566 1542 1647 1610 1676 1674 1587 1530 1493 1554 1450 1397 1366 1352 1307 1297 1216 1191 1198 1197 1148 1173 1036 1058 1080 985 992 950 971 969 892 937 922 928 885 910 880 897 869 865 866 866 888 882 923 816 847 840 818 892 787 751 786 838 809 819 832 795 826 790 826 769 854 816 832 841 808 784 799 767 769 824 783 790 834 804 818 767 797 835 809 864 788 802 769 826 794 811 822 798 774 865 814 861 797 828 766 785 803 794 767 755 815 799 803 763 731 761 766 823 769 769 875 886 822 832 845 869 854 830 809 807 860 868 897 814 864 800 827 815 869 868 843 825 795 821 845 807 845 791 812 804 797 845 777 793 797 818 821 800 831 785 830 840 807 771 834 784 818 796 818 794 815 772 772 815 859 775 781 767 752 834 759 831 872 802 885 903 849 839 843 913 874 991 972 1007 1047 945 954 985 981 959 979 921 1004 1000 972 906 950 991 961 921 929 921 914 906 938 906 898 909 953 888 901 876 898 869 890 863 850 894 834 828 880 830 841 808 754 826 837 858 814 784 809 829 855 763 792 745 760 766 774 774 822 804 762 796 764 773 818 824 820 804 802 776 747 795 773 788 795 803 800 784 799 805 802 789 799 802 783 777 763 759 776 808 738 825 803 799 791 824 776 762 810 816 761 770 740 734 826 814 790 765 783 802 765 788 785 804 750 738 779 781 746 792 808 769 818 788 805 813 760 844 827 776 769 785 808 799 700 825 806 743 775 778 753 785 750 754 776 751 780 748 772 769 831 753 774 803 733 797 779 772 790 834 832 752 770 754 778 791 746 785 745 782 770 783 791 764 745 767 811 790 765 786 781 756 742 802 797 819 770 821 831 781 780 795 786 712 762 810 773 779 767 816 805 803 745 844 843 809 711 792 759 835 821 780 777 741 772 763 758 736 762 796 759 752 729 779 769 768 700 753 736 801 742 769 799 763 799 753 785 807 776 804 735 737 763 738 816 789 747 737 717 793 748 790 759 754 777 794 774 805 732 763 780 757 804 769 811 799 796 768 734 778 766 747 754 787 777 755 761 754 762 742 785 733 764 800 728 743 780 809 773 780 679 789 744 775 772 750 730 757 727 786 702 775 788 787 766 769 744 741 804 751 745 738 736 734 789 747 709 807 743 732 792 816 750 725 764 798 764 762 782 801 832 791 785 747 777 704 745 756 772 744 774 750 771 762 773 755 716 741 798 749 772 778 771 766 709 765 759 744 771 769 811 753 769 736 775 759 743 748 775 722 769 745 741 749 813 782 740 745 767 725 754 792 750 775 793 793 733 778 769 752 774 749 808 721 781 775 777 756 750 746 732 739 781 776 763 824 766 761 771 750 820 777 751 789 776 733 728 759 780 751 744 812 793 824 771 758 765 733 728 785 746 825 738 722 780 767 738 765 717 795 767 787 730 748 744 727 739 779 737 755 785 775 799 744 691 750 728 735 732 806 757 744 764 788 808 766 772 776 747 737 758 765 732 748 776 773 755 755 776 797 791 808 728 760 788 781 776 798 755 769 796 798 801 819 833 824 849 867 831 903 864 857 932 917 873 845 900 887 833 854 911 782 822 837 894 852 861 823 907 851 866 815 802 798 819 748 824 823 771 812 781 796 805 799 760 822 789 766 762 775 801 783 712 768 747 761 756 759 768 792 786 752 753 753 712 770 787 740 727 784 800 766 753 772 756 787 731 738 807 814 754 746 749 718 732 810 805 802 776 732 766 765 826 779 770 764 774 716 700 775 789 768 782 746 750 729 753 774 741 702 696 764 752 728 756 748 744 797 798 730 808 775 770 769 812 759 745 730 746 747 750 734 687 686 724 765 741 762 767 756 745 784 725 825 764 780 764 743 745 725 713 760 748 808 774 788 704 814 735 752 720 739 756 752 751 751 724 729 721 723 771 757 805 771 803 759 723 794 720 757 770 743 748 766 763 722 754 689 748 768 725 797 783 743 806 709 778 770 746 800 750 731 789 710 742 794 752 755 694 765 780 786 755 747 746 726 793 755 718 742 713 726 733 756 743 759 738 730 809 794 765 761 718 738 740 706 777 758 736 745 769 766 757 758 762 741 774 742 731 756 759 761 769 765 734 722 754 769 748 747 746 761 742 754 746 763 724 760 728 735 759 754 754 789 765 753 735 790 693 704 750 809 780 787 767 754 779 761 724 817 797 777 800 799 741 849 815 893 801 832 822 887 849 889 869 933 994 1043 1060 1076 1101 1154 1212 1178 1193 1156 1155 1130 1121 1102 1062 1072 1054 1016 1062 968 1024 1037 961 1020 1044 987 1024 1012 1009 1001 958 980 927 883 881 895 840 799 861 884 844 825 802 830 813 792 814 765 795 784 787 715 734 758 767 712 743 770 725 712 751 728 802 779 787 755 775 774 783 762 806 777 711 747 742 714 770 709 767 776 771 749 760 774 729 753 805 814 788 787 745 726 765 807 752 799 782 779 776 769 762 769 762 766 741 773 758 743 742 758 793 792 743 809 797 768 753 739 768 766 800 822 771 768 751 802 772 790 765 701 730 746 748 715 782 761 760 766 753 775 733 759 772 760 727 796 756 761 812 738 779 702 769 754 776 744 754 748 730 762 753 779 779 759 803 757 753 767 758 755 732 768 797 782 765 733 737 725 739 770 759 775 762 747 736 741 783 771 697 738 746 733 787 741 747 730 716 751 750 748 691 737 746 783 803 800 725 713 761 737 738 747 790 763 800 680 801 693 767 749 723 725 697 735 716 768 728 745 716 717 762 700 730 746 711 733 765 730 766 783 728 732 776 705 767 741 765 719 771 725 769 739 754 741 741 699 740 777 685 763 737 746 726 736 799 767 745 776 709 752 766 754 769 695 752 756 712 768 686 723 708 730 700 721 750 719 711 763 738 725 761 737 751 766 738 743 737 736 762 730 733 753 745 756 746 723 747 765 737 746 750 755 780 719 784 685 716 711 736 719 750 697 755 725 775 798 756 742 804 755 704 707 763 769 734 758 761 716 731 754 750 750 782 754 708 770 817 735 754 772 778 730 717 747 769 762 740 728 752 777 707 733 774 734 695 799 789 725 769 714 716 804 739 748 713 696 773 725 677 714 734 749 743 712 814 727 724 739 729 726 728 748 790 746 716 793 761 764 732 773 752 760 769 714 738 770 795 765 744 775 716 748 756 697 710 727 750 745 756 735 746 735 730 695 707 712 763 775 739 770 761 704 756 742 765 758 753 771 716 725 734 737 787 777 734 724 720 729 761 764 730 703 714 722 728 694 750 762 685 763 723 790 654 746 759 717 710 750 738 767 719 735 712 728 763 746 760 742 774 736 735 732 747 745 690 724 777 766 726 763 742 688 775 714 720 726 698 780 749 740 782 707 723 729 715 755 724 718 773 807 744 708 757 700 715 703 775 733 767 717 713 723 723 751 703 819 693 757 723 773 709 720 745 742 770 724 750 733 733 734 688 714 791 732 758 747 759 772 741 731 751 756 727 777 760 746 715 737 721 762 733 718 800 755 767 732 749 750 727 769 723 726 767 768 734 717 743 750 736 747 777 717 747 706 764 709 723 749 751 812 727 757 747 723 726 716 747 811 715 746 742 746 783 774 757 752 745 731 720 817 743 746 766 712 766 759 718 733 763 741 784 774 741 753 789 807 784 713 755 749 747 753 739 780 766 752 798 727 824 773 776 752 788 762 757 776 877 801 804 819 880 857 835 839 849 905 834 853 862 874 811 816 844 856 783 788 758 763 819 779 842 806 825 813 803 827 808 807 800 818 813 829 774 800 787 774 808 807 760 841 808 812 736 703 769 804 777 764 759 799 775 761 824 733 818 843 895 865 900 881 903 937 908 905 853 864 889 877 845 864 869 835 829 859 816 833 821 879 816 822 813 800 808 802 841 856 824 772 793 785 812 805 880 794 764 792 770 768 818 835 736 679 752 758 725 748 724 804 747 783 763 774 792 785 778 749 725 719 740 830 764 789 732 686 748 734 790 736 757 690 775 756 766 795 785 767 761 729 716 753 722 712 770 717 781 765 780 749 778 750 727 777 723 729 738 732 797 752 801 791 809 765 745 764 741 740 766 735 666 747 794 767 744 757 773 775 792 748 791 760 756 749 734 726 773 747 704 752 764 728 770 718 765 743 733 751 757 739 776 736 777 730 772 739 751 768 801 774 747 789 748 787 749 809 766 795 756 787 789 800 799 791 750 756 709 772 794 790 813 792 752 814 722 768 789 789 871 750 789 829 759 750 789 802 780 750 848 805 792 821 804 821 808 850 824 830 801 838 860 817 809 823 801 861 811 805 808 844 875 812 790 825 876 818 920 886 964 890 922 969 960 1033 1113 1157 1197 1208 1259 1264 1493 1378 1469 1539 1492 1562 1504 1486 1438 1413 1397 1367 1397 1281 1343 1203 1262 1166 1139 1162 1161 1233 1179 1184 1224 1179 1289 1226 1324 1243 1129 1154 1143 1149 1096 1095 1091 971 917 935 943 940 869 870 849 839 888 884 851 805 846 821 798 806 850 811 825 817 803 754 819 747 765 772 797 798 766 766 782 740 758 680 760 796 745 774 761 768 756 755 761 744 752 765 783 746 711 780 768 762 732 781 759 820 793 783 767 722 783 747 813 708 748 740 787 753 712 723 740 763 730 783 722 792 739 767 746 751 799 729 804 748 736 735 716 706 785 733 755 759 744 718 770 771 758 730 784 743 743 742 748 724 793 755 720 830 733 789 775 760 730 778 780 765 775 743 775 792 778 763 736 762 763 802 776 740 798 750 735 782 841 830 806 842 854 861 833 836 881 868 895 801 829 804 808 836 845 823 786 805 790 843 841 794 771 882 859 867 798 823 812 836 840 872 879 833 846 833 807 815 853 768 794 825 762 805 768 741 786 792 803 797 765 773 734 779 799 759 794 813 772 816 754 784 792 752 771 779 788 765 688 710 744 810 736 764 768 710 732 736 752 801 759 760 738 730 687 680 757 769 749 785 784 734 757 753 731 706 742 767 750 730 720 762 714 754 724 766 734 727 729 777 780 761 727 718 762 706 742 731 743 733 761 760 712 778 657 758 750 756 763 727 773 734 748 755 734 717 735 715 708 714 711 751 725 747 720 703 784 747 702 716 790 731 733 716 763 741 757 776 743 733 710 721 739 725 775 751 737 703 750 751 767 738 758 726 763 702 702 736 799 774 760 759 703 720 726 728 748 762 726 721 762 747 709 677 747 783 743 753 735 743 647 728 697 686 705 744 741 710 710 717 767 732 699 759 729 797 711 709 757 722 747 725 692 762 725 735 730 717 719 737 686 744 754 749 739 759 718 714 760 720 746 775 761 748 708 802 755 753 718 699 704 694 727 772 725 768 689 733 706 699 726 688 714 713 778 732 715 723 732 792 734 760 747 723 741 749 751 758 750 760 756 754 762 754 736 790 701 667 681 715 712 707 744 708 728 712 798 721 756 724 764 773 695 720 756 745 699 735 720 728 768 772 692 748 751 709 791 714 800 724 682 777 739 667 785 699 691 762 710 721 751 731 702 715 709 714 665 754 720 717 739 677 696 702 726 724 710 737 788 716 727 743 755 766 689 777 734 707 741 724 724 729 768 694 745 741 717 719 736 751 747 754 736 758 753 700 738 713 715 730 767 723 710 759 716 742 756 711 805 684 778 703 723 721 757 759 726 702 767 721 750 729 740 726 747 730 743 699 742 732 717 710 733 729 713 759 710 738 750 719 735 774 754 739 769 750 694 757 739 743 755 721 723 720 769 731 772 795 760 714 756 714 755 771 712 767 757 756 802 789 786 852 803 824 843 800 814 832 782 774 830 824 805 753 826 788 796 761 761 803 759 757 763 803 796 775 778 756 775 752 787 768 737 791 828 797 795 794 769 793 831 789 750 795 770 720 753 746 719 733 752 699 705 709 755 712 748 718 719 761 706 763 762 723 808 766 688 751 736 735 727 760 742 723 745 714 698 751 735 732 734 696 712 728 762 720 753 694 739 736 765 733 698 746 727 718 774 707 753 771 713 722 742 716 696 710 725 741 758 746 751 683 722 697 758 698 744 763 705 720 717 737 731 751 709 737 674 696 768 681 752 743 727 727 773 695 721 742 720 758 712 759 734 695 734 686 786 775 742 761 775 747 752 729 723 747 790 691 712 750 706 731 736 660 720 765 772 763 776 759 720 725 812 765 699 750 725 753 728 713 748 743 737 716 775 739 749 727 769 783 709 760 743 693 745 739 747 725 744 759 733 721 724 737 776 749 675 728 744 764 738 751 695 716 719 731 730 724 742 746 742 730 700 707 742 744 728 700 742 753 738 722 751 724 793 750 744 758 777 741 738 725 755 751 746 718 726 760 758 779 725 774 781 747 769 790 807 772 734 707 786 693 745 798 768 744 749 757 766 779 797 807 766 714 797 803 820 828 838 858 864 869 854 982 1054 1018 1096 1070 1166 1213 1260 1284 1292 1309 1262 1273 1300 1293 1191 1204 1097 1073 1040 1037 1027 998 973 941 919 886 911 949 917 965 990 945 1006 1031 998 1113 1060 1012 1040 1068 998 925 945 966 916 886 865 872 837 838 828 834 837 771 783 827 806 753 780 810 773 767 790 714 736 797 781 772 729 752 771 775 779 790 753 792 738 801 751 756 678 674 780 790 763 753 745 803 722 706 753 758 697 757 720 760 711 794 747 751 731 727 743 783 756 746 749 737 732 693 721 792 707 736 766 779 769 772 755 728 764 771 737 748 782 732 680 760 766 743 776 709 733 756 723 761 767 738 741 712 791 757 749 717 722 716 707 725 730 718 749 743 699 731 702 668 768 737 682 692 744 697 705 699 732 706 686 715 719 722 759 762 766 723 750 713 735 746 769 764 773 760 758 768 774 745 743 769 767 752 782 793 749 772 788 760 732 731 731 745 736 741 761 736 717 756 701 740 757 744 735 730 727 722 768 771 778 794 732 780 754 750 700 774 740 746 773 771 786 740 766 697 739 707 728 751 761 688 751 777 782 754 795 744 722 705 757 762 740 767 740 750 736 749 734 727 740 709 719 742 694 778 742 736 725 714 725 714 798 724 711 721 734 721 761 722 775 760 765 750 739 699 690 686 770 729 730 763 795 778 792 699 732 730 776 726 733 771 735 712 725 676 668 750 755 754 671 772 736 683 774 716 712 710 687 703 711 724 723 683 715 743 760 738 729 750 736 771 722 722 703 723 742 727 760 703 653 678 707 715 748 742 753 701 730 737 737 728 709 729 693 700 755 660 767 698 762 684 692 736 697 687 718 731 719 706 712 768 722 710 713 734 695 742 701 685 718 747 715 776 742 777 701 718 731 707 717 804 717 714 710 690 725 705 675 713 732 753 691 676 683 702 683 692 694 746 696 732 704 701 738 753 702 731 696 728 709 733 753 757 717 731 746 719 713 714 716 697 663 748 634 786 742 694 752 735 701 755 683 755 715 694 713 680 701 700 716 726 668 743 694 739 710 741 759 676 716 693 741 678 716 715 712 685 800 690 704 709 746 684 746 739 700 747 725 731 793 744 738 730 753 732 654 698 705 686 703 668 720 714 719 713 690 694 702 766 726 710 685 711 761 683 705 698 651 734 706 720 751 672 737 672 736 744 745 716 680 716 704 731 706 700 734 727 698 716 673 758 774 696 691 719 729 716 737 683 710 737 699 707 717 731 729 765 682 636 743 706 734 716 717 723 733 734 701 706 715 687 718 727 699 767 690 705 676 752 743 691 662 749 720 762 702 711 693 720 781 678 723 696 744 718 740 766 740 756 761 735 691 705 710 703 731 732 724 715 741 752 680 758 717 714 754 704 731 696 721 710 692 725 708 711 758 731 713 717 768 705 704 703 717 742 774 803 743 772 756 719 758 766 754 808 768 790 803 846 825 845 840 805 824 797 891 784 805 799 800 835 800 775 772 754 774 788 789 749 758 838 750 757 756 742 741 802 814 806 774 820 843 718 831 826 776 775 763 808 782 830 768 733 798 736 782 782 812 809 774 813 791 811 822 793 844 838 826 854 790 813 748 826 792 796 788 764 736 789 812 747 751 768 796 778 778 723 735 764 724 735 745 749 715 791 814 738 752 805 781 762 807 754 751 785 743 795 723 765 749 702 736 763 733 750 726 719 728 733 727 695 722 687 756 703 744 711 716</counts>
			</dataPoints>
		</scan>
	</xrdMeasurement>
</xrdMeasurements>
