<?xml version="1.0"?>
<xrdMeasurements xmlns="http://www.xrdml.com/XRDMeasurement/2.3" xmlns:xsi="http://www.w3.org/2001/XMLSchema-instance" xsi:schemaLocation="http://www.xrdml.com/XRDMeasurement/2.3 http://www.xrdml.com/XRDMeasurement/2.3/XRDMeasurement.xsd" status="Completed" recordIdentifier="{74280980-8A5A-40CD-8287-4B59F393B727}">
	<comment>
		<entry/>
	</comment>
	<sample type="To be analyzed">
		<id>GPSS_Li1p6Ni0p4V0p4Zn0p2Cl4_102025_68f72594028f64128e25d0d3</id>
		<name></name>
		<preparedBy></preparedBy>
	</sample>
	<xrdMeasurement measurementType="Scan" status="Completed" sampleMode="Reflection">
		<usedWavelength intended="K-Alpha 1">
			<kAlpha1 unit="Angstrom">1.5405980</kAlpha1>
			<kAlpha2 unit="Angstrom">1.5444260</kAlpha2>
			<kBeta unit="Angstrom">1.3922500</kBeta>
			<ratioKAlpha2KAlpha1>0.5000</ratioKAlpha2KAlpha1>
		</usedWavelength>
		<incidentBeamPath>
			<radius unit="mm">145.00</radius>
			<xRayTube id="1010048" name="Empyrean Cu LFF HR (9430 033 7310x)">
				<tension unit="kV">40.0</tension>
				<current unit="mA">15.0</current>
				<anodeMaterial>Cu</anodeMaterial>
				<focus type="Line">
					<length unit="mm">12.0</length>
					<width unit="mm">0.4</width>
					<takeOffAngle unit="deg">6.0</takeOffAngle>
				</focus>
			</xRayTube>
			<sollerSlit id="21010002" name="Soller slits 0.04 rad.">
				<opening unit="rad">0.0400</opening>
			</sollerSlit>
			<mask id="22031000" name="Fixed mask 13 mm">
				<width unit="mm">9.00</width>
			</mask>
			<divergenceSlit id="22120001" name="Divergence slit 1°" xsi:type="fixedDivergenceSlitType">
				<distanceToSample unit="mm">50.00</distanceToSample>
				<height unit="mm">1.52</height>
			</divergenceSlit>
		</incidentBeamPath>
		<sampleMovement xsi:type="spinningSampleMovementType">
			<spinnerRevolutionTime unit="seconds">1.0</spinnerRevolutionTime>
		</sampleMovement>
		<diffractedBeamPath>
			<radius unit="mm">145.00</radius>
			<antiScatterSlit id="22090040" name="AS slit 9 mm (PIXcel)" xsi:type="fixedAntiScatterSlitType">
				<height unit="mm">9.00</height>
			</antiScatterSlit>
			<sollerSlit id="21020003" name="Large Soller slits 0.04 rad.">
				<opening unit="rad">0.0400</opening>
			</sollerSlit>
			<filter id="20030001" name="Large beta-filter Nickel">
				<material>Ni</material>
				<thickness unit="mm">0.020</thickness>
			</filter>
			<detector id="7010019" name="PIXcel1D-Medipix3 detector" xsi:type="rtmsDetectorType">
				<phd unit="keV">
					<lowerLevel>4.02</lowerLevel>
					<upperLevel>11.27</upperLevel>
				</phd>
				<mode>Scanning</mode>
				<activeLength unit="deg">5.542</activeLength>
			</detector>
		</diffractedBeamPath>
		<scan appendNumber="0" mode="Continuous" scanAxis="Gonio" status="Completed">
			<header>
				<startTimeStamp>2025-10-27T16:12:47-07:00</startTimeStamp>
				<endTimeStamp>2025-10-27T16:20:54-07:00</endTimeStamp>
				<author>
					<name>AutomatedUser</name>
				</author>
				<source>
					<applicationSoftware version="1.7b (136)">PANalytical Aeris Instrument Suite</applicationSoftware>
					<instrumentControlSoftware version="3.2.00000000 20240306">AERIS</instrumentControlSoftware>
					<instrumentID>950485</instrumentID>
				</source>
			</header>
			<dataPoints>
				<positions axis="2Theta" unit="deg">
					<startPosition>10.00943322</startPosition>
					<endPosition>99.99442286</endPosition>
				</positions>
				<positions axis="Omega" unit="deg">
					<startPosition>5.00471661</startPosition>
					<endPosition>49.99721143</endPosition>
				</positions>
				<commonCountingTime unit="seconds">12.495</commonCountingTime>
				<counts unit="counts">2789 2992 2816 2819 2856 2868 2826 2860 2808 2782 2864 2868 2778 2899 2859 2932 2761 2892 2814 2791 2921 2809 2945 2902 2941 2958 2941 2875 2751 2922 2957 3003 2846 2839 2891 2776 2855 2839 2877 2943 2794 2857 2798 2833 2830 2767 2906 2905 2801 2891 2915 2895 2845 2872 2748 2881 2887 2965 3018 2912 2919 2843 2952 2773 2871 2823 2872 2887 2882 2755 2899 2855 2857 2944 2924 2951 2851 2909 2956 2916 2930 2810 3013 2933 3010 3039 2972 2973 3064 3011 3010 3018 3138 3100 3062 2987 3118 3223 3213 3141 3189 3238 3190 3180 3366 3254 3313 3237 3281 3267 3368 3272 3411 3307 3333 3466 3436 3558 3456 3437 3525 3593 3596 3465 3533 3620 3573 3489 3646 3633 3563 3658 3719 3663 3679 3685 3654 3656 3592 3574 3597 3521 3446 3525 3438 3406 3370 3369 3381 3305 3207 3132 2995 3144 3113 3049 3068 3119 2937 3052 2931 2992 2977 2960 2951 2943 2893 3023 2902 2869 3001 2994 3062 2963 2836 2899 2807 2829 2831 2823 2875 2886 2905 2842 2886 2813 2769 2876 2883 2777 2886 2909 2784 2916 2831 2820 2790 2799 2801 2831 2837 2880 2732 2739 2713 2927 2874 2896 2837 2884 2874 2852 2852 2831 2878 2804 2905 2860 2926 2861 2824 2840 2821 2803 2845 2769 2829 2824 2902 2840 2742 2821 2814 2741 2839 2781 2787 2877 2753 2740 2773 2729 2826 2801 2771 2888 2836 2777 2909 2703 2881 2854 2848 2827 2799 2914 2917 2791 2856 2781 2833 2739 2789 2868 2954 2838 2755 2822 2835 2832 2849 2813 2904 2845 2926 2783 2874 2890 2850 2772 2856 2903 2915 2810 2894 2902 2911 2785 2946 2796 2716 2906 2860 2956 2843 2888 2791 2823 2778 2971 2744 2909 2906 2783 2874 2912 2876 3033 2925 2956 2935 2970 2907 2982 2858 2952 2977 2958 2931 3042 2907 2995 2996 2946 3009 2926 2864 3051 2877 3021 2972 2962 2912 2960 2964 2973 3068 3004 3055 2984 3047 3017 3097 3080 3076 3089 3094 3064 3142 3146 3063 3119 3095 3123 3090 3287 3133 3200 3181 3239 3149 3170 3087 3181 3225 3101 3238 3268 3188 3163 3283 3274 3178 3333 3313 3259 3390 3266 3403 3281 3255 3390 3434 3411 3362 3355 3492 3376 3492 3378 3435 3467 3491 3444 3419 3559 3580 3583 3459 3464 3454 3451 3551 3525 3469 3581 3614 3573 3585 3517 3452 3535 3561 3575 3635 3603 3604 3557 3590 3576 3580 3566 3549 3592 3632 3670 3515 3592 3746 3652 3651 3753 3672 3836 3742 3740 3744 3811 3843 3876 3884 3855 3825 4061 4071 4003 4085 4148 4263 4160 4202 4242 4317 4241 4473 4418 4578 4584 4707 4744 4704 4748 4890 5022 5012 5048 5207 5045 5399 5236 5182 5257 5209 5364 5452 5424 5363 5489 5710 5570 5782 5623 5718 5774 5945 5715 5876 5801 5915 5825 6066 6024 6029 6040 6063 6217 6033 6206 6339 6251 6259 6365 6303 6275 6519 6566 6508 6607 6690 6666 6710 6714 6788 6742 6817 6706 6836 6643 6619 6478 6331 6157 6207 5900 5741 5652 5429 5374 5247 5020 4984 4823 4809 4848 4693 4407 4533 4456 4193 4348 4191 4156 4002 3808 3842 3792 3636 3562 3512 3397 3526 3326 3480 3445 3372 3362 3403 3174 3355 3266 3339 3241 3272 3298 3290 3141 3139 3213 3233 3159 3237 3163 3214 3141 3153 3097 3232 3255 3252 3195 3113 3139 3208 3140 3146 3185 3218 3173 3081 3211 3157 3127 3064 3097 3062 3109 3133 3058 3046 3026 3065 3198 3176 2976 3172 2988 3233 3057 3183 3053 2957 3054 3116 3130 3053 3008 3090 3069 2983 3152 3148 3000 3167 3023 3022 3079 3113 3115 3139 3041 3003 3024 3087 3016 2978 2992 3025 3067 3135 2952 3037 2933 3029 3032 3062 3037 3097 2984 3119 3026 3120 3061 3099 3146 3157 3090 3040 3073 3121 3094 3131 3125 3106 3148 3092 3200 3140 3206 3103 3107 3098 3187 3230 3192 3164 3275 3288 3261 3263 3327 3290 3247 3316 3227 3246 3235 3222 3356 3267 3232 3324 3203 3211 3244 3268 3171 3246 3314 3193 3192 3112 3018 3104 3016 3129 3044 3053 3176 2982 3022 3006 3106 3003 2972 3042 3041 2946 3082 3013 3099 2886 2966 3018 3015 2962 2940 2893 2980 2939 2933 2977 2942 2923 2938 2960 2958 2974 3015 2903 2963 2910 2970 2961 2893 2932 2949 2850 3026 2861 2871 2870 2943 2958 2936 2953 2913 2869 2979 2916 2880 2906 2968 2934 2862 2929 2897 2947 2921 3029 2960 2985 2973 2773 2843 2906 2987 2854 2854 2819 2934 2770 2859 2891 2802 2878 2871 2875 2819 2987 2943 2947 2922 2867 2891 2869 2952 2853 2853 2893 2917 2924 2789 2881 2925 2844 2820 2912 2778 2816 2877 2983 2862 3009 2892 2996 2810 2916 2950 2839 2888 2860 2877 2949 2961 2824 2971 2817 2863 2880 2861 2839 2866 2856 2926 2970 2904 2922 2890 2876 2805 2787 2871 2856 2857 2758 2806 2766 2816 2873 2822 2893 2896 2887 2824 2827 2808 2786 2849 2886 2806 2802 2758 2829 2854 2914 2895 2792 2803 2863 2761 2856 2810 2786 2780 2715 2894 2754 2781 2730 2819 2875 2794 2813 2807 2764 2788 2710 2790 2867 2712 2850 2839 2719 2734 2718 2689 2716 2790 2768 2752 2718 2713 2688 2702 2804 2693 2801 2847 2714 2762 2688 2796 2730 2765 2816 2700 2737 2759 2702 2672 2749 2772 2761 2688 2779 2737 2690 2740 2668 2639 2760 2793 2673 2685 2720 2703 2800 2781 2704 2691 2710 2778 2686 2735 2675 2671 2767 2677 2743 2712 2730 2650 2760 2645 2701 2604 2692 2768 2645 2751 2819 2723 2764 2671 2716 2682 2640 2659 2699 2651 2687 2687 2663 2637 2750 2668 2688 2638 2682 2665 2703 2648 2758 2666 2657 2645 2677 2583 2615 2628 2654 2749 2635 2644 2683 2686 2590 2668 2629 2717 2649 2564 2661 2662 2658 2675 2726 2682 2631 2714 2659 2685 2675 2588 2654 2625 2596 2690 2583 2704 2654 2671 2698 2593 2714 2695 2640 2737 2626 2785 2673 2712 2692 2714 2606 2681 2685 2555 2767 2771 2687 2574 2670 2639 2671 2561 2630 2628 2731 2722 2631 2599 2594 2695 2646 2639 2669 2615 2668 2593 2703 2600 2622 2642 2668 2627 2554 2684 2666 2674 2732 2722 2619 2643 2634 2680 2755 2703 2666 2641 2682 2612 2638 2693 2638 2682 2664 2667 2617 2772 2609 2739 2708 2587 2700 2685 2660 2642 2703 2672 2521 2741 2631 2677 2725 2633 2753 2729 2751 2684 2657 2711 2632 2664 2690 2613 2598 2647 2619 2676 2594 2734 2729 2594 2774 2613 2596 2688 2670 2589 2550 2609 2645 2595 2663 2666 2498 2691 2671 2608 2578 2615 2629 2596 2570 2551 2569 2607 2551 2550 2576 2581 2601 2519 2480 2609 2607 2595 2477 2529 2575 2618 2549 2536 2502 2541 2605 2531 2545 2548 2491 2570 2562 2627 2562 2470 2548 2546 2394 2512 2487 2505 2536 2521 2460 2462 2370 2425 2458 2523 2461 2478 2487 2407 2562 2497 2410 2461 2377 2454 2414 2397 2356 2395 2420 2413 2400 2442 2477 2392 2444 2324 2503 2417 2403 2419 2392 2427 2480 2379 2448 2320 2292 2360 2407 2411 2367 2372 2405 2362 2347 2393 2296 2399 2332 2303 2376 2461 2378 2337 2327 2446 2284 2308 2334 2267 2364 2338 2282 2299 2264 2245 2291 2181 2290 2307 2187 2276 2305 2261 2306 2303 2195 2291 2271 2203 2250 2272 2229 2141 2211 2314 2263 2188 2240 2210 2224 2293 2185 2249 2134 2226 2206 2230 2119 2178 2150 2215 2219 2134 2235 2132 2185 2222 2189 2160 2184 2145 2139 2221 2198 2099 2138 2156 2203 2233 2098 2208 2158 2266 2217 2139 2273 2219 2159 2124 2164 2244 2207 2190 2149 2237 2248 2224 2215 2320 2207 2343 2273 2323 2278 2466 2324 2381 2424 2364 2477 2433 2395 2443 2534 2458 2490 2486 2471 2457 2465 2470 2483 2515 2455 2574 2506 2477 2613 2527 2415 2412 2352 2502 2348 2317 2375 2416 2403 2256 2381 2393 2318 2314 2345 2328 2287 2194 2273 2223 2298 2217 2206 2249 2191 2257 2271 2246 2250 2202 2227 2159 2227 2233 2264 2239 2162 2211 2198 2321 2175 2237 2211 2132 2059 2159 2166 2216 2121 2056 2153 2096 2115 2154 2091 2151 2152 2279 2128 2209 2158 1994 2116 2102 2255 2128 2025 2058 2168 2190 2112 2157 2112 2113 2073 2230 2133 2100 2118 2114 2073 2131 2203 2100 2085 2207 2121 2111 2150 2087 2117 2088 2131 2219 2121 2102 2096 2182 2178 2176 2200 2113 2259 2147 2070 2221 2142 2150 2106 2174 2115 2112 2240 2227 2247 2275 2195 2211 2215 2300 2299 2252 2213 2177 2350 2315 2377 2288 2291 2270 2388 2337 2337 2442 2449 2489 2451 2479 2519 2492 2490 2478 2529 2612 2609 2575 2475 2494 2597 2609 2569 2579 2579 2618 2500 2502 2573 2488 2456 2578 2482 2431 2392 2497 2372 2404 2237 2429 2343 2326 2304 2207 2267 2264 2272 2209 2252 2183 2184 2124 2231 2188 2171 2168 2099 2150 2139 2150 2195 2183 2032 2143 2062 2046 2094 2100 2049 2040 2031 2050 2014 2110 2076 2022 2171 2054 2051 1986 2053 1977 2084 2058 1972 1971 1996 2099 1903 2022 1984 2033 1984 1991 2058 2031 1939 2037 2001 1936 1990 1979 2001 1975 2031 1969 1974 1976 1999 2062 2007 1925 1953 1909 1905 1984 1915 1962 1980 1827 1969 1898 1890 1906 2087 1943 1830 1981 1832 1919 1844 2005 1972 1931 1861 1902 1881 1877 1814 1915 1877 1876 1860 1935 1907 1939 1931 1792 1885 1861 1929 1929 1906 1902 1827 1899 1823 1832 1767 1832 1854 1852 1786 1885 1796 1826 1882 1863 1832 1789 1845 1808 1846 1820 1900 1896 1910 1746 1833 1825 1827 1813 1767 1782 1806 1747 1748 1779 1822 1881 1891 1831 1835 1802 1856 1824 1732 1778 1828 1831 1798 1806 1799 1813 1847 1790 1909 1827 1839 1841 1816 1826 1871 1879 1836 1848 1897 1789 1885 1908 1919 1901 1899 1919 1849 1940 1883 1974 1926 1978 1991 1910 1935 1994 2010 2044 2002 1998 2065 1997 2190 2101 2109 2052 2132 2197 2172 2275 2265 2311 2269 2352 2468 2418 2346 2443 2384 2462 2416 2495 2568 2477 2491 2500 2474 2410 2488 2399 2398 2417 2439 2457 2374 2332 2343 2287 2298 2343 2153 2177 2161 2180 2252 2142 2253 2195 2209 2144 2150 2164 2057 2073 1998 2192 2073 2084 2148 2054 1981 2030 2075 2127 1938 1986 1949 1986 1960 2021 2006 1893 1935 1841 1853 1819 1877 1818 1858 1857 1957 1825 1851 1867 1751 1877 1863 1818 1842 1816 1817 1976 1894 1880 1857 2003 1955 1979 1921 1920 2004 2001 2077 2100 2092 2142 2321 2204 2339 2312 2497 2430 2580 2615 2674 2687 2888 3028 3005 3161 3374 3397 3595 3570 3691 3925 4057 4264 4382 4482 4624 4653 4786 4835 5070 5131 5052 5221 5289 5552 5406 5365 5549 5352 5482 5395 5399 5323 5091 5110 4988 4923 4738 4688 4499 4422 4230 4014 3889 3873 3623 3618 3498 3402 3172 3250 3026 2879 2767 2737 2623 2535 2466 2462 2515 2417 2359 2286 2236 2168 2206 2154 2163 2085 2074 2039 1998 1911 1933 1900 1936 1882 1871 1845 1746 1754 1817 1744 1757 1706 1741 1844 1691 1760 1631 1770 1746 1717 1719 1745 1700 1698 1688 1668 1655 1674 1697 1704 1742 1622 1619 1654 1596 1703 1696 1655 1659 1565 1646 1626 1593 1594 1644 1621 1703 1672 1711 1551 1619 1568 1676 1621 1572 1660 1638 1626 1665 1663 1605 1598 1655 1618 1522 1664 1641 1655 1660 1583 1572 1579 1579 1636 1606 1590 1563 1641 1599 1607 1600 1559 1557 1574 1603 1571 1595 1631 1522 1523 1538 1535 1506 1470 1510 1542 1480 1535 1516 1543 1518 1481 1530 1478 1552 1522 1610 1501 1501 1492 1562 1450 1450 1530 1506 1491 1442 1480 1546 1574 1494 1543 1550 1498 1494 1512 1570 1480 1548 1420 1428 1473 1456 1487 1425 1444 1543 1524 1440 1485 1475 1515 1525 1482 1433 1586 1466 1453 1471 1512 1457 1460 1462 1488 1390 1530 1485 1478 1498 1524 1482 1413 1507 1394 1485 1519 1515 1373 1468 1458 1421 1475 1471 1524 1434 1431 1512 1520 1485 1449 1454 1457 1468 1480 1478 1411 1404 1421 1493 1467 1504 1473 1320 1534 1422 1467 1475 1447 1399 1466 1509 1479 1404 1452 1544 1523 1455 1503 1387 1444 1447 1468 1465 1484 1507 1476 1407 1443 1483 1515 1504 1453 1464 1440 1482 1441 1461 1465 1421 1413 1460 1469 1517 1455 1428 1444 1486 1483 1491 1501 1426 1442 1459 1397 1422 1480 1435 1411 1450 1453 1484 1501 1407 1468 1458 1384 1479 1417 1431 1483 1436 1420 1408 1449 1438 1474 1411 1482 1486 1438 1422 1442 1479 1458 1439 1430 1478 1402 1506 1461 1432 1446 1457 1496 1511 1453 1471 1422 1545 1490 1481 1435 1510 1478 1480 1520 1495 1505 1583 1497 1480 1507 1454 1492 1565 1472 1449 1453 1481 1510 1475 1526 1556 1496 1482 1554 1539 1550 1534 1497 1518 1496 1421 1522 1558 1543 1439 1495 1496 1514 1500 1528 1483 1497 1625 1485 1571 1603 1583 1644 1552 1621 1551 1642 1604 1650 1553 1651 1556 1640 1667 1701 1747 1748 1715 1761 1762 1805 1838 1857 1936 1964 1959 2054 2096 2148 2081 2219 2368 2445 2497 2448 2734 2789 2961 3044 3047 3407 3438 3722 3858 3891 4178 4251 4554 4601 4844 4840 5170 5327 5351 5589 5785 5743 5991 6055 6094 6061 6151 6228 6193 6244 6321 6129 6155 6003 5949 5878 5678 5581 5524 5166 5153 4900 4748 4755 4590 4399 4419 4185 4286 4089 3987 4044 4027 3931 3883 3799 3920 3790 3892 3795 3830 3779 3617 3697 3633 3688 3642 3540 3370 3453 3367 3286 3203 3047 3031 2946 2976 2850 2722 2745 2532 2541 2528 2428 2350 2246 2324 2259 2231 2195 2154 2194 2082 2149 2056 2112 1990 1997 1938 1937 1939 2043 2062 1983 1971 2014 2026 1955 2043 2081 2064 2100 2113 2070 2116 2131 2334 2341 2293 2371 2385 2505 2448 2633 2587 2690 2798 2727 2811 2841 2974 2930 3015 2978 3142 3094 3234 3125 3226 3199 3177 3272 3332 3265 3325 3165 3299 3174 3208 3159 3195 3034 3006 2969 2834 2728 2667 2546 2469 2308 2388 2269 2199 2219 2094 2053 1930 1998 1957 1967 1843 1864 1875 1818 1773 1715 1746 1729 1659 1607 1692 1658 1633 1548 1605 1575 1563 1515 1543 1581 1477 1600 1591 1539 1512 1555 1464 1484 1475 1525 1517 1573 1435 1478 1448 1483 1532 1457 1472 1474 1460 1352 1470 1429 1494 1479 1437 1472 1442 1378 1491 1393 1463 1436 1485 1401 1499 1421 1378 1379 1439 1418 1412 1454 1412 1382 1422 1475 1403 1446 1421 1442 1369 1434 1353 1471 1419 1422 1477 1367 1403 1404 1419 1486 1401 1477 1373 1491 1473 1348 1409 1400 1414 1481 1510 1455 1419 1437 1385 1363 1447 1480 1493 1473 1446 1467 1395 1445 1429 1489 1447 1424 1471 1453 1488 1473 1481 1507 1502 1498 1403 1509 1544 1529 1577 1535 1602 1600 1532 1564 1644 1554 1539 1577 1527 1528 1672 1590 1636 1619 1604 1627 1566 1628 1639 1579 1557 1626 1640 1570 1584 1602 1558 1606 1539 1607 1537 1616 1611 1506 1489 1568 1487 1521 1527 1488 1510 1465 1533 1544 1502 1485 1440 1490 1522 1519 1435 1420 1461 1580 1554 1436 1394 1410 1401 1538 1407 1459 1462 1473 1408 1410 1424 1464 1385 1374 1429 1409 1417 1447 1399 1440 1381 1389 1394 1347 1424 1399 1314 1412 1352 1455 1386 1368 1450 1360 1331 1335 1327 1409 1322 1384 1346 1501 1364 1448 1400 1427 1449 1427 1464 1296 1448 1392 1482 1441 1465 1426 1492 1443 1462 1485 1462 1456 1379 1473 1474 1472 1478 1424 1486 1463 1492 1502 1490 1547 1536 1607 1505 1517 1555 1521 1572 1619 1432 1530 1515 1535 1585 1620 1610 1499 1506 1548 1564 1563 1568 1594 1620 1566 1593 1556 1690 1572 1577 1541 1558 1527 1568 1543 1518 1520 1496 1512 1455 1555 1454 1487 1457 1415 1409 1439 1481 1470 1482 1388 1426 1473 1392 1463 1401 1411 1438 1389 1374 1345 1384 1333 1373 1386 1383 1388 1446 1414 1316 1325 1364 1341 1313 1381 1279 1378 1383 1348 1283 1390 1297 1329 1338 1330 1381 1278 1347 1272 1350 1359 1320 1342 1402 1303 1284 1268 1299 1309 1349 1263 1355 1365 1347 1289 1332 1357 1261 1317 1266 1253 1289 1290 1329 1299 1359 1332 1338 1381 1262 1376 1329 1301 1357 1272 1266 1242 1260 1294 1325 1307 1337 1293 1352 1303 1280 1303 1272 1306 1285 1326 1236 1273 1317 1346 1371 1349 1317 1313 1268 1338 1277 1341 1288 1268 1288 1249 1279 1303 1329 1331 1316 1245 1303 1299 1300 1270 1257 1236 1299 1305 1314 1338 1361 1257 1329 1248 1304 1291 1321 1259 1279 1195 1263 1316 1301 1265 1287 1304 1280 1273 1273 1321 1312 1270 1252 1363 1319 1244 1278 1291 1273 1327 1280 1380 1299 1268 1167 1278 1361 1305 1342 1284 1296 1293 1292 1310 1299 1281 1217 1300 1292 1242 1263 1333 1258 1306 1289 1302 1296 1316 1270 1375 1337 1315 1378 1339 1289 1319 1319 1354 1325 1283 1322 1245 1331 1214 1287 1256 1266 1286 1280 1270 1313 1324 1242 1327 1264 1292 1323 1288 1265 1303 1256 1280 1301 1277 1299 1279 1256 1224 1218 1230 1288 1252 1254 1286 1253 1280 1262 1264 1257 1213 1262 1238 1261 1257 1248 1277 1267 1315 1303 1262 1303 1185 1222 1229 1262 1263 1322 1275 1276 1316 1270 1256 1231 1250 1261 1268 1256 1270 1305 1298 1288 1318 1324 1254 1220 1302 1270 1241 1277 1251 1258 1291 1315 1335 1310 1262 1344 1401 1377 1317 1407 1392 1402 1383 1428 1435 1454 1427 1397 1468 1396 1379 1429 1467 1481 1478 1456 1433 1430 1446 1450 1516 1419 1541 1490 1406 1469 1468 1422 1441 1374 1442 1457 1395 1508 1409 1461 1434 1348 1416 1399 1368 1354 1339 1334 1372 1387 1346 1365 1343 1338 1373 1384 1360 1376 1358 1306 1276 1364 1353 1295 1307 1379 1328 1319 1255 1293 1263 1326 1321 1274 1340 1347 1291 1344 1256 1313 1336 1353 1303 1373 1353 1382 1325 1301 1380 1379 1355 1284 1316 1291 1283 1319 1314 1378 1346 1375 1342 1419 1388 1431 1394 1371 1333 1350 1365 1326 1344 1350 1325 1293 1321 1354 1347 1322 1360 1312 1290 1305 1267 1297 1336 1304 1277 1279 1260 1234 1291 1294 1227 1276 1256 1239 1306 1287 1376 1232 1344 1248 1284 1301 1340 1264 1347 1261 1240 1285 1278 1342 1240 1251 1224 1221 1283 1271 1326 1328 1312 1374 1318 1291 1281 1288 1244 1233 1305 1336 1257 1293 1236 1309 1238 1305 1284 1327 1246 1240 1281 1262 1269 1275 1225 1246 1178 1252 1251 1257 1295 1324 1267 1248 1259 1248 1260 1266 1284 1301 1306 1258 1297 1280 1297 1239 1264 1258 1255 1287 1262 1231 1313 1337 1228 1348 1259 1238 1253 1253 1318 1272 1282 1243 1222 1238 1255 1260 1248 1243 1197 1276 1253 1265 1320 1336 1262 1283 1332 1266 1346 1306 1344 1276 1366 1420 1374 1469 1401 1342 1474 1466 1419 1473 1443 1512 1474 1536 1494 1567 1609 1713 1676 1656 1700 1696 1810 1726 1727 1736 1911 1809 1827 1825 1865 1848 1835 1865 1742 1922 1811 1941 1903 1777 1821 1797 1792 1729 1727 1680 1757 1783 1671 1639 1641 1662 1647 1692 1573 1596 1574 1552 1606 1563 1537 1561 1539 1534 1610 1507 1556 1511 1522 1517 1553 1383 1530 1457 1420 1455 1445 1448 1451 1435 1457 1394 1415 1330 1389 1302 1389 1346 1374 1319 1295 1313 1356 1351 1301 1285 1320 1271 1251 1255 1326 1262 1295 1319 1287 1276 1217 1271 1304 1249 1255 1328 1281 1305 1302 1259 1332 1327 1302 1286 1325 1268 1290 1250 1301 1263 1247 1325 1292 1314 1268 1253 1402 1337 1344 1335 1308 1282 1370 1313 1364 1355 1383 1310 1318 1317 1408 1393 1453 1426 1498 1407 1387 1382 1377 1487 1440 1470 1424 1481 1507 1484 1480 1529 1552 1500 1538 1574 1511 1532 1607 1523 1533 1556 1594 1579 1491 1523 1535 1456 1600 1494 1487 1488 1425 1508 1562 1488 1417 1463 1449 1387 1392 1356 1394 1371 1388 1369 1399 1343 1394 1404 1292 1281 1350 1301 1298 1294 1350 1270 1299 1314 1307 1331 1337 1280 1272 1254 1228 1249 1244 1255 1277 1250 1242 1269 1314 1239 1302 1311 1353 1314 1365 1261 1311 1344 1289 1335 1285 1245 1342 1287 1294 1370 1370 1344 1343 1302 1356 1326 1370 1401 1359 1441 1389 1406 1410 1346 1388 1406 1432 1440 1396 1364 1324 1361 1341 1366 1292 1313 1399 1328 1393 1246 1340 1299 1285 1318 1301 1267 1290 1254 1257 1295 1313 1270 1261 1230 1307 1274 1283 1281 1304 1204 1287 1260 1208 1268 1247 1249 1235 1267 1190 1246 1199 1288 1264 1238 1233 1286 1199 1327 1196 1292 1233 1277 1235 1274 1293 1249 1308 1281 1236 1290 1265 1252 1248 1216 1215 1299 1290 1212 1249 1248 1302 1288 1245 1216 1229 1196 1292 1201 1290 1260 1256 1242 1255 1258 1290 1301 1281 1362 1283 1272 1313 1237 1296 1273 1326 1262 1275 1279 1318 1224 1313 1310 1322 1299 1379 1362 1314 1325 1279 1437 1348 1377 1351 1410 1400 1436 1404 1439 1479 1520 1403 1461 1400 1512 1504 1473 1616 1619 1578 1609 1545 1631 1643 1738 1760 1758 1831 1959 1898 1966 2164 2141 2289 2333 2402 2503 2623 2657 2837 2912 3115 3092 3289 3411 3501 3408 3679 3840 3862 4004 3972 4168 4246 4256 4231 4264 4278 4337 4329 4391 4215 4317 4272 4228 4175 4217 4107 4127 4089 4047 3923 3873 3760 3848 3709 3628 3591 3633 3445 3375 3361 3287 3254 3181 3130 3142 2901 2997 2995 2741 2718 2697 2569 2556 2398 2438 2314 2241 2226 2087 2148 2052 2067 1925 1853 1810 1818 1792 1703 1719 1649 1639 1597 1628 1587 1585 1588 1533 1442 1488 1565 1524 1544 1554 1499 1505 1496 1549 1503 1454 1470 1581 1545 1646 1494 1464 1557 1528 1518 1520 1499 1545 1491 1573 1514 1499 1480 1457 1447 1415 1438 1414 1425 1404 1425 1422 1362 1390 1444 1421 1357 1348 1407 1334 1417 1386 1315 1356 1409 1363 1443 1343 1432 1321 1349 1384 1417 1385 1375 1389 1385 1309 1409 1422 1433 1457 1460 1490 1466 1517 1473 1528 1564 1560 1576 1651 1646 1664 1737 1786 1725 1694 1761 1837 1842 1827 1833 1769 1918 1836 1807 1886 1865 1901 1902 1959 2001 1937 1843 1886 1805 1845 1898 1876 1822 1777 1826 1824 1846 1829 1747 1748 1881 1788 1751 1791 1823 1830 1838 1905 1867 1962 1958 1902 2020 1905 1928 2006 2025 2101 2083 2151 2153 2105 2130 2238 2138 2149 2138 2141 2112 2050 2153 2040 2122 2033 2050 2003 1961 1935 1916 1770 1768 1832 1766 1842 1826 1840 1709 1671 1650 1690 1726 1672 1621 1656 1613 1657 1690 1602 1619 1585 1606 1497 1577 1583 1621 1572 1540 1510 1448 1533 1532 1513 1531 1562 1490 1488 1500 1465 1488 1600 1487 1507 1418 1477 1415 1390 1383 1413 1439 1411 1334 1436 1390 1405 1376 1319 1369 1381 1386 1317 1368 1276 1333 1315 1363 1371 1317 1318 1272 1337 1298 1406 1340 1301 1321 1376 1348 1355 1290 1338 1365 1393 1304 1392 1382 1351 1409 1343 1341 1428 1377 1438 1336 1337 1294 1417 1370 1325 1328 1370 1335 1320 1351 1358 1386 1363 1249 1314 1312 1308 1248 1292 1281 1211 1207 1249 1284 1386 1296 1300 1265 1259 1287 1226 1253 1254 1246 1216 1275 1144 1259 1252 1236 1259 1238 1241 1192 1244 1249 1204 1195 1224 1207 1171 1228 1263 1269 1238 1263 1237 1255 1208 1237 1240 1229 1222 1246 1243 1305 1229 1219 1174 1283 1243 1224 1236 1225 1224 1180 1192 1267 1253 1265 1261 1253 1277 1246 1243 1317 1217 1230 1283 1274 1280 1220 1266 1277 1311 1296 1298 1245 1349 1284 1324 1307 1314 1365 1391 1343 1344 1387 1347 1413 1463 1483 1471 1403 1458 1454 1548 1442 1555 1460 1571 1510 1432 1511 1550 1530 1466 1453 1460 1483 1451 1463 1463 1425 1456 1455 1412 1423 1403 1408 1408 1366 1392 1384 1371 1424 1311 1306 1311 1298 1284 1280 1243 1266 1271 1258 1299 1180 1175 1217 1221 1190 1135 1240 1259 1222 1180 1297 1174 1161 1155 1166 1209 1174 1136 1220 1231 1194 1265 1277 1204 1284 1251 1214 1195 1187 1248 1261 1243 1275 1205 1245 1215 1244 1207 1239 1188 1221 1283 1253 1280 1223 1221 1260 1308 1288 1209 1231 1267 1241 1211 1243 1243 1292 1192 1274 1229 1264 1235 1145 1271 1179 1213 1221 1271 1240 1240 1165 1137 1169 1245 1165 1124 1157 1195 1179 1205 1175 1163 1183 1242 1278 1216 1126 1177 1142 1199 1225 1231 1222 1209 1163 1178 1188 1148 1150 1155 1202 1248 1166 1168 1241 1217 1249 1250 1143 1215 1208 1166 1228 1244 1317 1252 1244 1183 1231 1224 1212 1205 1250 1235 1235 1258 1173 1278 1245 1240 1242 1272 1232 1221 1197 1187 1157 1229 1170 1230 1212 1200 1268 1181 1184 1233 1227 1179 1247 1158 1198 1259 1268 1189 1246 1182 1212 1206 1184 1201 1246 1261 1207 1178 1252 1188 1250 1163 1135 1232 1172 1174 1184 1220 1163 1238 1145 1176 1203 1156 1201 1165 1164 1149 1194 1178 1219 1257 1162 1202 1198 1109 1108 1174 1171 1125 1169 1204 1152 1213 1147 1208 1170 1214 1171 1195 1155 1196 1135 1169 1172 1176 1219 1178 1215 1172 1164 1163 1189 1196 1169 1137 1133 1154 1208 1177 1175 1194 1232 1226 1160 1180 1147 1171 1143 1139 1142 1144 1177 1151 1184 1160 1231 1170 1237 1128 1128 1182 1156 1148 1143 1183 1187 1245 1175 1201 1182 1157 1178 1176 1145 1201 1181 1231 1191 1226 1221 1159 1171 1194 1186 1190 1111 1224 1210 1164 1195 1167 1239 1192 1145 1200 1195 1179 1220 1192 1130 1212 1159 1249 1205 1167 1201 1175 1150 1117 1156 1186 1175 1237 1217 1161 1222 1175 1176 1218 1177 1224 1147 1211 1192 1295 1209 1235 1190 1219 1243 1287 1195 1149 1155 1303 1183 1219 1162 1236 1311 1219 1238 1283 1238 1224 1274 1241 1257 1198 1233 1294 1327 1282 1288 1255 1277 1211 1255 1276 1238 1269 1267 1234 1239 1224 1275 1320 1209 1282 1250 1301 1265 1314 1281 1281 1258 1256 1334 1307 1310 1345 1321 1297 1342 1405 1423 1369 1469 1387 1506 1498 1512 1552 1574 1596 1545 1652 1697 1758 1719 1785 1814 1846 1792 1832 1962 1899 1966 1948 2011 2068 2006 1988 2021 2098 1960 2020 1986 1992 1995 2072 1951 1933 1957 1991 1930 1938 1858 1900 1921 1830 1761 1693 1808 1655 1643 1750 1562 1613 1579 1558 1498 1403 1466 1490 1497 1485 1435 1509 1424 1367 1488 1368 1326 1331 1331 1351 1328 1320 1340 1286 1336 1311 1353 1291 1240 1207 1267 1267 1245 1305 1297 1195 1219 1265 1208 1219 1227 1258 1251 1241 1213 1217 1209 1186 1241 1218 1206 1323 1214 1235 1159 1266 1132 1304 1227 1220 1289 1202 1205 1286 1224 1155 1198 1198 1171 1138 1220 1167 1201 1220 1225 1177 1131 1220 1175 1168 1120 1156 1204 1180 1225 1219 1187 1198 1194 1186 1139 1223 1139 1159 1106 1170 1158 1174 1200 1214 1248 1200 1234 1194 1218 1226 1172 1238 1235 1238 1234 1257 1313 1236 1305 1251 1286 1265 1271 1380 1293 1333 1322 1250 1364 1291 1362 1300 1360 1361 1274 1319 1289 1323 1306 1306 1335 1295 1334 1350 1339 1333 1297 1388 1299 1299 1297 1281 1307 1276 1270 1283 1345 1317 1200 1334 1254 1275 1300 1176 1214 1246 1193 1159 1261 1175 1196 1201 1242 1163 1153 1268 1185 1201 1182 1210 1209 1175 1139 1228 1136 1193 1196 1244 1165 1149 1177 1243 1179 1136 1169 1243 1208 1219 1178 1160 1201 1201 1198 1172 1222 1198 1243 1164 1138 1194 1225 1249 1172 1204 1212 1254 1251 1263 1263 1211 1294 1241 1317 1362 1344 1356 1332 1357 1386 1357 1453 1412 1476 1474 1499 1520 1533 1586 1575 1529 1538 1603 1591 1589 1735 1637 1663 1751 1745 1752 1779 1780 1761 1719 1692 1806 1769 1761 1752 1778 1705 1747 1697 1775 1723 1780 1712 1744 1668 1720 1699 1639 1640 1570 1668 1563 1616 1542 1500 1428 1543 1504 1468 1490 1495 1476 1348 1386 1292 1437 1404 1353 1297 1357 1319 1320 1338 1306 1245 1258 1253 1265 1285 1288 1296 1249 1278 1294 1247 1296 1276 1254 1301 1287 1312 1314 1315 1373 1274 1285 1311 1386 1363 1409 1353 1365 1374 1350 1304 1303 1358 1249 1316 1302 1285 1263 1339 1296 1361 1282 1287 1326 1306 1261 1243 1235 1233 1287 1201 1243 1233 1237 1241 1240 1199 1219 1261 1268 1192 1218 1250 1204 1236 1273 1134 1256 1200 1137 1172 1161 1175 1193 1171 1198 1200 1139 1152 1154 1163 1183 1173 1175 1203 1144 1187 1220 1167 1164 1164 1192 1108 1233 1186 1214 1195 1193 1227 1188 1182 1195 1192 1236 1219 1231 1302 1230 1212 1166 1242 1275 1238 1245 1251 1395 1349 1330 1353 1310 1285 1401 1352 1448 1318 1373 1422 1345 1349 1370 1380 1309 1285 1324 1306 1330 1338 1348 1313 1358 1392 1344 1354 1337 1301 1351 1317 1349 1317 1369 1395 1366 1328 1348 1311 1383 1344 1270 1307 1281 1362 1309 1359 1415 1334 1390 1418 1429 1384 1359 1306 1384 1402 1435 1409 1404 1315 1391 1411 1324 1389 1436 1364 1436 1364 1365 1371 1420 1419 1422 1447 1411 1472 1449 1406 1432 1506 1395 1472 1385 1475 1540 1384 1498 1457 1426 1498 1435 1520 1388 1420 1423 1405 1342 1402 1357 1375 1421 1326 1279 1292 1395 1352 1277 1372 1335 1338 1307 1361 1235 1287 1279 1210 1246 1246 1292 1248 1249 1228 1278 1223 1272 1221 1248 1241 1226 1219 1213 1221 1181 1252 1169 1200 1204 1207 1180 1203 1199 1098 1171 1119 1157 1112 1182 1213 1136 1188 1143 1112 1165 1154 1154 1208 1138 1136 1078 1159 1117 1173 1148 1174 1165 1119 1117 1171 1153 1127 1160 1075 1146 1128 1185 1097 1082 1142 1131 1131 1126 1143 1115 1155 1188 1141 1148 1162 1114 1152 1101 1162 1131 1177 1155 1163 1165 1109 1137 1119 1164 1205 1184 1162 1185 1185 1210 1151 1150 1154 1130 1151 1162 1170 1124 1148 1137 1110 1174 1226 1260 1231 1257 1241 1185 1189 1276 1287 1266 1221 1209 1240 1264 1238 1208 1258 1289 1239 1221 1279 1169 1207 1257 1229 1249 1192 1120 1229 1190 1228 1222 1181 1258 1245 1117 1251 1168 1234 1181 1231 1158 1246 1125 1185 1173 1174 1182 1202 1206 1200 1203 1204 1231 1140 1168 1199 1233 1163 1218 1178 1095 1169 1220 1180 1152 1197 1105 1169 1213 1198 1146 1162 1181 1130 1127 1139 1222 1134 1117 1100 1073 1124 1172 1126 1124 1189 1045 1140 1208 1127 1138 1093 1148 1113 1122 1134 1112 1145 1136 1128 1100 1146 1112 1179 1135 1106 1155 1111 1178 1146 1197 1154 1118 1189 1172 1152 1130 1207 1158 1117 1145 1202 1196 1128 1181 1158 1185 1171 1152 1109 1196 1147 1166 1214 1090 1196 1205 1191 1189 1233 1225 1195 1185 1168 1109 1107 1182 1150 1190 1153 1145 1151 1115 1174 1140 1131 1165 1137 1146 1187 1143 1120 1240 1206 1169 1122 1136 1178 1156 1161 1104 1153 1139 1149 1133 1148 1175 1173 1107 1115 1145 1057 1158 1154 1084 1144 1159 1152 1182 1156 1085 1132 1179 1126 1124 1142 1149 1152 1210 1136 1132 1222 1054 1149 1105 1166 1170 1121 1132 1124 1149 1135 1091 1084 1125 1113 1161 1096 1157 1106 1162 1129 1155 1093 1101 1151 1066 1109 1094 1142 1109 1161 1171 1177 1135 1115 1119 1131 1059 1109 1123 1153 1141 1086 1081 1098 1152 1110 1128 1110 1072 1128 1039 1055 1060 1080 1098 1141 1125 1100 1069 1068 1133 1189 1064 1057 1088 1116 1088 1073 1058 1159 1108 1114 1023 1164 1105 1110 1030 1077 1124 1114 1119 1193 1100 1076 1094 1180 1053 1121 1110 1196 1113 1156 1135 1171 1153 1076 1160 1154 1140 1118 1089 1167 1100 1130 1106 1185 1088 1148 1188 1218 1195 1149 1164 1101 1166 1139 1192 1186 1202 1177 1139 1167 1172 1184 1189 1157 1154 1164 1229 1200 1200 1173 1177 1162 1157 1225 1234 1209 1225 1171 1131 1181 1171 1169 1226 1160 1241 1161 1122 1176 1142 1181 1156 1177 1103 1181 1150 1100 1137 1143 1162 1194 1140 1141 1181 1156 1157 1140 1158 1187 1152 1128 1095 1069 1126 1111 1143 1196 1151 1157 1104 1125 1138 1185 1098 1079 1146 1173 1165 1148 1142 1192 1201 1148 1123 1188 1162 1118 1077 1204 1163 1091 1147 1175 1077 1118 1143 1128 1157 1139 1125 1101 1124 1125 1103 1132 1088 1078 1121 1107 1080 1102 1101 1099 1134 1113 1097 1152 1074 1141 1093 1104 1097 1122 1031 1103 1137 1130 1115 1176 1183 1114 1089 1057 1175 1106 1071 1097 1162 1155 1092 1109 1118 1118 1144 1113 1104 1086 1034 1123 1070 1064 1169 1112 1106 1140 1152 1128 1031 1131 1070 1103 1140 1098 1074 1082 1093 1053 1064 1129 1083 1098 1122 1081 1117 1043 1063 1113 1110 1138 1130 1079 1146 1106 1148 1068 1093 1058 1122 1124 1100 1124 1086 1158 1149 1089 1101 1127 1093 1074 1103 1086 1113 1074 1075 1112 1143 1118 1070 1117 1148 1074 1097 1142 1095 1132 1152 1102 1070 1066 1077 1073 1043 1107 1120 1075 1158 1112 1139 1122 1070 1076 1153 1073 1105 1095 1096 1159 1145 1121 1084 1083 1135 1111 1103 1139 1118 1106 1127 1094 1108 1089 1166 1161 1126 1100 1111 1160 1134 1093 1128 1115 1167 1197 1130 1156 1167 1169 1200 1129 1129 1156 1097 1114 1153 1159 1163 1155 1179 1113 1145 1150 1131 1201 1232 1212 1248 1201 1251 1211 1201 1304 1247 1266 1238 1199 1214 1197 1287 1310 1269 1242 1288 1278 1301 1264 1293 1313 1259 1244 1315 1388 1425 1344 1376 1441 1399 1391 1371 1440 1386 1424 1465 1431 1426 1428 1382 1331 1414 1447 1403 1336 1321 1340 1321 1375 1444 1410 1426 1395 1356 1387 1303 1274 1293 1372 1344 1343 1267 1219 1314 1233 1180 1214 1179 1224 1200 1209 1186 1175 1171 1230 1226 1192 1202 1180 1109 1217 1217 1164 1221 1159 1206 1126 1145 1174 1124 1090 1097 1185 1170 1148 1171 1163 1116 1170 1157 1150 1155 1168 1151 1092 1157 1105 1160 1223 1186 1205 1162 1180 1197 1155 1160 1169 1165 1210 1135 1136 1194 1218 1165 1171 1223 1248 1224 1172 1229 1112 1219 1219 1171 1166 1160 1150 1214 1113 1166 1130 1118 1150 1226 1182 1162 1146 1153 1091 1100 1119 1121 1091 1115 1189 1142 1096 1141 1085 1149 1116 1105 1162 1091 1081 1156 1051 1098 1158 1161 1097 1102 1128 1089 1138 1036 1132 1062 1104 1137 1167 1104 1064 1052 1124 1144 1131 1182 1147 1141 1159 1114 1066 1076 1098 1132 1150 1147 1147 1135 1123 1056 1112 1111 1225 1164 1134 1155 1118 1080 1105 1096 1074 1101 1183 1118 1056 1126 1088 1065 1050 1153 1127 1070 1103 1098 1040 1126 1071 1090 1137 1075 1123 1116 1055 1091 1117 1107 1121 1110 1099 1077 1128 1103 1123 1109 1091 1113 1189 1160 1060 1123 1118 1086 1048 1094 1128 1117 1132 1027 1151 1115 1118 1083 1130 1121 1209 1083 1118 1126 1137 1129 1189 1144 1143 1101 1173 1131 1149 1166 1093 1112 1076 1125 1151 1171 1131 1186 1171 1166 1191 1148 1159 1182 1085 1191 1206 1214 1157 1133 1175 1212 1181 1253 1190 1206 1215 1262 1208 1221 1191 1289 1233 1291 1274 1172 1217 1221 1247 1332 1320 1256 1323 1274 1352 1278 1198 1237 1257 1293 1190 1219 1240 1209 1239 1260 1216 1214 1204 1179 1125 1164 1203 1241 1173 1203 1165 1270 1149 1207 1206 1151 1153 1187 1175 1149 1119 1178 1092 1156 1168 1138 1159 1146 1129 1116 1163 1115 1198 1143 1168 1165 1051 1135 1145 1164 1131 1127 1072 1153 1090 1085 1145 1147 1128 1151 1034 1087 1102 1092 1114 1117 1193 1081 1087 1144 1124 1076 1150 1084 1110 1138 1072 1187 1101 1048 1105 1158 1099 1080 1154 1138 1126 1079 1080 1144 1136 1092 1086 1186 1081 1066 1045 1104 1098 1103 1075 1166 1069 1176 1092 1146 1142 1159 1164 1072 1053 1113 1119 1112 1039 1053 1131 1098 1101 1124 1124 1072 1085 1081 1080 1133 1125 1100 1094 1089 1065 1104 1092 1117 1108 1078 1094 1062 1118 1111 1092 1161 1113 1083 1070 1069 999 1131 1130 1107 1174 1038 1208 1078 1059 1056 1123 1153 1192 1117 1112 1078 1121 1143 1145 1110 1098 1160 1105 1098 1144 1069 1148 1120 1221 1126 1146 1082 1207 1093 1091 1130 1098 1164 1097 1101 1184 1101 1177 1103 1167 1129 1146 1140 1131 1074 1060 1102 1121 1111 1154 1120 1108 1152 1162 1186 1184 1140 1117 1127 1089 1016 1113 1145 1136 1088 1112 1035 1129 1078 1132 1043 1109 1115 1155 1126 1075 1108 1166 1086 1107 1147 1064 1145 1125 1119 1127 1053 1061 1119 1038 1104 1157 1141 1110 1116 1083 1073 1103 1114 1170 1071 1154 1066 1080 1110 1114 1089 1089 1097 1022 1058 1164 1090 1157 1088 1078 1133 1143 1116 1080 1126 1162 1032 1103 1070 1074 1125 1102 1096 1054 1107 1111 1103 1073 1023 1074 1078 1144 1143 1034 1109 1158 1078 1174 1108 1140 1155 1143 1176 1119 1160 1075 1089 1106 1133 1037 1097 1097 1040 1042 1114 1119 1087 1119 1117 1122 1122 1135 1166 1039 1070 1133 1104 1099 1066 1108 1084 1087 1117 1074 1144 1152 1079 1090 1122 1128 1180 1140 1147 1106 1147 1133 1107 1073 1129 1129 1135 1200 1133 1182 1143 1177 1095 1141 1182 1142 1154 1185 1199 1197 1165 1129 1152 1160 1111 1103 1181 1230 1125 1107 1125 1124 1124 1149 1116 1202 1213 1173 1193 1158 1199 1127 1180 1141 1197 1203 1196 1241 1139 1249 1149 1225 1193 1224 1227 1151 1223 1205 1221 1190 1229 1204 1242 1234 1259 1239 1240 1272 1271 1283 1228 1176 1199 1277 1241 1308 1327 1269 1293 1325 1357 1353 1311 1309 1327 1301 1297 1321 1260 1274 1364 1303 1299 1372 1296 1385 1282 1373 1360 1296 1259 1346 1310 1319 1317 1327 1428 1315 1384 1297 1335 1325 1312 1300 1329 1272 1291 1279 1320 1274 1274 1248 1244 1334 1315 1280 1275 1271 1168 1260 1194 1225 1235 1182 1226 1234 1216 1159 1225 1217 1197 1270 1223 1193 1112 1168 1219 1123 1160 1191 1216 1164 1185 1140 1122 1123 1099 1135 1150 1126 1153 1119 1161 1167 1167 1187 1101 1186 1101 1123 1171 1113 1169 1121 1149 1196 1193 1113 1185 1156 1157 1137 1062 1144 1126 1149 1108 1121 1084 1102 1082 1148 1143 1157 1104 1142 1207 1105 1102 1110 1147 1124 1105 1078 1111 1185 1136 1105 1141 1085 1098 1145 1106 1151 1111 1150 1111 1124 1105 1158 1130 1119 1179 1161 1169 1075 1133 1156 1142 1192 1176 1133 1181 1144 1135 1147 1132 1127 1134 1134 1170 1153 1163 1098 1153 1118 1147 1193 1147 1175 1144 1084 1186 1135 1180 1090 1202 1173 1169 1177 1125 1123 1149 1158 1196 1101 1156 1187 1221 1090 1168 1248 1174 1137 1153 1226 1137 1155 1151 1083 1136 1188 1251 1175 1202 1153 1220 1143 1179 1200 1241 1186 1159 1254 1227 1246 1253 1240 1245 1332 1285 1366 1228 1268 1292 1257 1296 1319 1322 1342 1302 1361 1378 1381 1367 1408 1386 1392 1534 1504 1419 1454 1499 1441 1538 1526 1561 1520 1532 1572 1442 1575 1516 1549 1518 1510 1525 1522 1569 1578 1531 1600 1602 1555 1590 1592 1565 1592 1574 1571 1610 1600 1623 1636 1602 1609 1500 1536 1484 1466 1511 1553 1544 1527 1462 1544 1508 1461 1394 1373 1384 1387 1414 1401 1462 1448 1393 1356 1382 1387 1373 1393 1398 1373 1389 1450 1341 1339 1295 1347 1358 1344 1387 1346 1270 1280 1296 1343 1340 1302 1299 1325 1350 1299 1228 1319 1274 1242 1339 1216 1264 1259 1296 1313 1315 1311 1234 1323 1270 1205 1219 1290 1291 1258 1267 1169 1230 1246 1243 1219 1168 1256 1185 1278 1223 1210 1213 1196 1215 1226 1254 1198 1243 1144 1215 1136 1166 1230 1175 1235 1283 1190 1149 1178 1235 1157 1133 1107 1150 1141 1159 1185 1096 1128 1199 1208 1209 1259 1144 1201 1217 1110 1200 1110 1218 1165 1261 1178 1223 1164 1196 1211 1226 1180 1150 1172 1156 1225 1090 1194 1203 1193 1183 1212 1207 1124 1198 1087 1192 1210 1185 1096 1188 1201 1174 1193 1205 1123 1188 1192 1192 1164 1190 1193 1227 1163 1198 1190 1116 1141 1261 1175 1202 1212 1136 1155 1235 1085 1205 1154 1115 1197 1152 1174 1159 1144 1201 1173 1119 1109 1241 1173 1209 1204 1167 1150 1135 1172 1106 1097 1172 1153 1124 1202 1157 1112 1110 1160 1177 1197 1138 1095 1147 1116 1160 1213 1152 1164 1171 1148 1175 1195 1141 1163 1252 1111 1135 1124 1185 1232 1152 1086 1086 1211 1142 1176 1202 1156 1119 1185 1147 1191 1178 1149 1193 1208 1172 1180 1183 1129 1200 1154 1203 1269 1255 1195 1204 1133 1171 1181 1186 1189 1200 1272 1158 1163 1208 1178 1238 1223 1232 1176 1136 1280 1269 1263 1303 1270 1253 1241 1284 1281 1300 1259 1308 1255 1314 1342 1287 1271 1353 1339 1264 1301 1229 1324 1275 1296 1369 1300 1307 1246 1295 1287 1358 1225 1266 1252 1289 1251 1205 1270 1232 1287 1260 1320 1200 1279 1251 1214 1245 1153 1292 1236 1230 1230 1187 1208 1187 1202 1184 1184 1213 1247 1201 1269 1200 1162 1170 1211 1160 1214 1151 1203 1232 1199 1222 1291 1218 1180 1200 1189 1182 1209 1313 1289 1238 1189 1202 1234 1237 1235 1210 1265 1276 1235 1278 1225 1274 1275 1286 1214 1235 1238 1245 1240 1207 1269 1226 1241 1168 1196 1297 1196 1167 1257 1222 1209 1287 1200 1216 1169 1171 1195 1107 1179 1186 1186 1166 1113 1137 1101 1202 1185 1166 1206 1170 1201 1123 1119 1160 1198 1106 1124 1157 1189 1135 1139 1172 1139 1151 1120 1097 1112 1114 1132 1177 1132 1147 1099 1115 1102 1155 1150 1101 1133 1104 1091 1191 1100 1137 1090 1119 1150 1144 1115 1147 1061 1177 1117 1189 1259 1093 1179 1108 1153 1186 1241 1072 1146 1138 1188 1066 1138 1114 1101 1134 1119 1144 1098 1143 1113 1168 1187 1140 1207 1157 1229 1185 1138 1172 1135 1156 1210 1230 1146 1172 1114 1161 1212 1184 1212 1183 1241 1106 1145 1101 1152 1101 1169 1133 1230 1174 1159 1174 1181 1146 1172 1095 1100 1137 1214 1129 1108 1143 1180 1186 1131 1222 1158 1134 1122 1117 1120 1078 1133 1138 1057 1145 1143 1159 1143 1142 1069 1145 1122 1107 1185 1123 1133 1095 1121 1131 1170 1126 1192 1178 1165 1113 1173 1150 1140 1136 1128 1074 1105 1159 1138 1116 1127 1151 1115 1127 1174 1114 1098 1154 1165 1111 1150 1111 1146 1143 1171 1127 1187 1091 1120 1097 1129 1077 1197 1115 1144 1132 1163 1183 1118 1112 1162 1118 1126 1108 1191 1136 1146 1147 1121 1171 1122 1136 1140 1171 1104 1129 1119 1149 1157 1135 1164 1163 1108 1146 1166 1164 1217 1129 1198 1111 1152 1118 1221 1153 1129 1125 1174 1213 1127 1165 1214 1107 1244 1188 1147 1181 1200 1183 1168 1175 1210 1199 1121 1172 1170 1183 1214 1115 1137 1117 1140 1125 1152 1187 1203 1209 1213 1116 1152 1192 1182 1232 1193 1134 1145 1192 1214 1184 1169 1162 1100 1138 1209 1168 1157 1195 1168 1092 1071 1118 1156 1160 1193 1173 1177 1156 1143 1174 1153 1117 1201 1164 1120 1204 1188 1116 1130 1234 1125 1160 1176 1167 1165 1196 1130 1109 1124 1158 1158 1206 1154 1195 1161 1128 1100 1124 1160 1143 1099 1093 1088 1111 1142 1087 1134 1196 1236 1080 1125 1193 1169 1178 1156 1061 1155 1165 1095 1111 1176 1149 1155 1160 1101 1095 1075 1135 1132 1156 1084 1124 1121 1166 1171 1105 1076 1211 1127 1133 1114 1144 1122 1143 1120 1116 1089 1139 1148 1183 1130 1153 1097 1086 1132 1203 1117 1070 1142 1096 1102 1087 1120 1165 1080 1097 1219 1060 1123 1173 1135 1176 1141 1129 1202 1076 1181 1108 1141 1173 1087 1156 1156 1157 1150 1173 1174 1146 1150 1123 1108 1130 1143 1184 1166 1247 1160 1133 1127 1152 1085 1153 1213 1099 1133 1111 1121 1127 1154 1135 1139 1130 1160 1164 1136 1113 1175 1142 1069 1177 1194 1092 1095 1084 1100 1106 1131 1194 1120 1096 1207 1202 1119 1218 1150 1104 1165 1167 1158 1210 1072 1149 1187 1191 1162 1202 1133 1175 1216 1182 1211 1152 1176 1125 1176 1133 1144 1189 1174 1163 1206 1246 1203 1192 1185 1182 1193 1233 1109 1304 1156 1160 1277 1184 1228 1222 1271 1337 1298 1299 1313 1339 1280 1284 1303 1301 1346 1365 1394 1389 1323 1357 1398 1400 1419 1434 1441 1397 1412 1410 1453 1452 1438 1498 1422 1553 1399 1535 1441 1444 1492 1452 1462 1491 1452 1525 1458 1539 1500 1531 1509 1521 1577 1455 1525 1532 1504 1510 1543 1472 1459 1460 1516 1504 1505 1447 1488 1436 1520 1445 1427 1424 1416 1367 1409 1375 1454 1419 1385 1352 1419 1330 1245 1304 1333 1346 1288 1306 1358 1303 1290 1404 1327 1251 1316 1339 1375 1317 1367 1365 1262 1287 1306 1273 1289 1250 1288 1248 1308 1218 1294 1340 1207 1307 1265 1247 1206 1269 1274 1289 1267 1228 1244 1260 1223 1218 1197 1255 1172 1164 1166 1171 1170 1172 1172 1228 1185 1226 1130 1165 1130 1138 1128 1123 1151 1178 1167 1191 1113 1217 1188 1169 1223 1188 1226 1175 1228 1240 1198 1146 1142 1158 1160 1220 1145 1203 1171 1191 1134 1288 1124 1142 1177 1234 1186 1192 1225 1186 1250 1196 1205 1195 1206 1216 1244 1245 1220 1236 1138 1221 1158 1228 1276 1189 1241 1163 1194 1191 1178 1215 1154 1174 1225 1156 1228 1175 1214 1196 1192 1237 1237 1126 1206 1197 1136 1184 1230 1147 1171 1137 1183 1199 1209 1210 1153 1171 1144 1192 1172 1136 1159 1159 1218 1143 1187 1152 1145 1106 1169 1219 1165 1097 1137 1169 1106 1187 1171 1162 1140 1140 1189 1134 1191 1127 1117 1194 1110 1174 1176 1163 1165 1142 1054 1141 1135 1165 1173 1151 1153 1121 1156 1160 1148 1135 1189 1057 1119 1140 1091 1168 1136 1083 1126 1100 1077 1078 1144 1115 1108 1132 1039 1149 1136 1133 1233 1185 1114 1176 1148 1102 1111 1121 1180 1107 1096 1144 1119 1112 1126 1127 1090 1091 1129 1183 1143 1149 1103 1134 1132 1104 1114 1152 1200 1056 1092 1139 1032 1113 1129 1183 1085 1163 1147 1147 1120 1181 1162 1201 1099 1140 1099 1173 1105 1144 1124 1185 1211 1135 1157 1208 1152 1231 1154 1188 1173 1200 1137 1190 1199 1174 1226 1190 1137 1156 1217 1103 1184 1154 1228 1267 1186 1150 1176 1155 1196 1130 1228 1139 1174 1096 1191 1137 1143 1162 1175 1166 1140 1250 1148 1200 1173 1109 1120 1239 1155 1197 1167 1135 1175 1128 1163 1172 1109 1101 1111 1159 1112 1160 1109 1094 1175 1190 1200 1166 1171 1078 1121 1125 1115 1192 1143 1148 1115 1197 1185 1111 1154 1046 1142 1134 1156 1133 1118 1149 1131 1169 1094 1152 1157 1121 1172 1176 1110 1233 1180 1126 1125 1166 1086 1079 1138 1172 1145 1167 1127 1187 1180 1126 1141 1201 1100 1154 1179 1221 1194 1206 1184 1140 1145 1236 1232 1211 1244 1209 1221 1245 1227 1237 1205 1224 1240 1210 1203 1182 1271 1199 1172 1240 1194 1268 1190 1233 1220 1227 1180 1208 1267 1244 1256 1233 1235 1227 1250 1235 1251 1212 1236 1191 1279 1257 1208 1257 1298 1255 1216 1245 1192 1291 1297 1195 1188 1210 1234 1187 1235 1221 1165 1238 1226 1149 1147 1180 1186 1192 1170 1167 1217 1137 1124 1221 1201 1192 1192 1154 1192 1205 1205</counts>
			</dataPoints>
		</scan>
	</xrdMeasurement>
</xrdMeasurements>
