<?xml version="1.0"?>
<xrdMeasurements xmlns="http://www.xrdml.com/XRDMeasurement/2.3" xmlns:xsi="http://www.w3.org/2001/XMLSchema-instance" xsi:schemaLocation="http://www.xrdml.com/XRDMeasurement/2.3 http://www.xrdml.com/XRDMeasurement/2.3/XRDMeasurement.xsd" status="Completed" recordIdentifier="{F1FEE8DD-E5F6-4B5D-8B6E-3B5D55FDACCE}">
	<comment>
		<entry/>
	</comment>
	<sample type="To be analyzed">
		<id>GPSS_Li1p5Mn0p5Y0p1In0p4Cl4_122325_694ae824ae15af25ac37277c</id>
		<name></name>
		<preparedBy></preparedBy>
	</sample>
	<xrdMeasurement measurementType="Scan" status="Completed" sampleMode="Reflection">
		<usedWavelength intended="K-Alpha 1">
			<kAlpha1 unit="Angstrom">1.5405980</kAlpha1>
			<kAlpha2 unit="Angstrom">1.5444260</kAlpha2>
			<kBeta unit="Angstrom">1.3922500</kBeta>
			<ratioKAlpha2KAlpha1>0.5000</ratioKAlpha2KAlpha1>
		</usedWavelength>
		<incidentBeamPath>
			<radius unit="mm">145.00</radius>
			<xRayTube id="1010048" name="Empyrean Cu LFF HR (9430 033 7310x)">
				<tension unit="kV">40.0</tension>
				<current unit="mA">15.0</current>
				<anodeMaterial>Cu</anodeMaterial>
				<focus type="Line">
					<length unit="mm">12.0</length>
					<width unit="mm">0.4</width>
					<takeOffAngle unit="deg">6.0</takeOffAngle>
				</focus>
			</xRayTube>
			<sollerSlit id="21010002" name="Soller slits 0.04 rad.">
				<opening unit="rad">0.0400</opening>
			</sollerSlit>
			<mask id="22031000" name="Fixed mask 13 mm">
				<width unit="mm">9.00</width>
			</mask>
			<divergenceSlit id="22120001" name="Divergence slit 1°" xsi:type="fixedDivergenceSlitType">
				<distanceToSample unit="mm">50.00</distanceToSample>
				<height unit="mm">1.52</height>
			</divergenceSlit>
		</incidentBeamPath>
		<sampleMovement xsi:type="spinningSampleMovementType">
			<spinnerRevolutionTime unit="seconds">1.0</spinnerRevolutionTime>
		</sampleMovement>
		<diffractedBeamPath>
			<radius unit="mm">145.00</radius>
			<antiScatterSlit id="22090040" name="AS slit 9 mm (PIXcel)" xsi:type="fixedAntiScatterSlitType">
				<height unit="mm">9.00</height>
			</antiScatterSlit>
			<sollerSlit id="21020003" name="Large Soller slits 0.04 rad.">
				<opening unit="rad">0.0400</opening>
			</sollerSlit>
			<filter id="20030001" name="Large beta-filter Nickel">
				<material>Ni</material>
				<thickness unit="mm">0.020</thickness>
			</filter>
			<detector id="7010019" name="PIXcel1D-Medipix3 detector" xsi:type="rtmsDetectorType">
				<phd unit="keV">
					<lowerLevel>4.02</lowerLevel>
					<upperLevel>11.27</upperLevel>
				</phd>
				<mode>Scanning</mode>
				<activeLength unit="deg">5.542</activeLength>
			</detector>
		</diffractedBeamPath>
		<scan appendNumber="0" mode="Continuous" scanAxis="Gonio" status="Completed">
			<header>
				<startTimeStamp>2025-12-25T14:53:30-08:00</startTimeStamp>
				<endTimeStamp>2025-12-25T15:01:37-08:00</endTimeStamp>
				<author>
					<name>AutomatedUser</name>
				</author>
				<source>
					<applicationSoftware version="1.7b (136)">PANalytical Aeris Instrument Suite</applicationSoftware>
					<instrumentControlSoftware version="3.2.00000000 20240306">AERIS</instrumentControlSoftware>
					<instrumentID>950485</instrumentID>
				</source>
			</header>
			<dataPoints>
				<positions axis="2Theta" unit="deg">
					<startPosition>10.00943322</startPosition>
					<endPosition>99.99442286</endPosition>
				</positions>
				<positions axis="Omega" unit="deg">
					<startPosition>5.00471661</startPosition>
					<endPosition>49.99721143</endPosition>
				</positions>
				<commonCountingTime unit="seconds">12.495</commonCountingTime>
				<counts unit="counts">2785 2799 2851 2885 2882 2867 2743 2724 2923 2879 2795 2888 2900 2813 2946 2942 2808 2853 2855 2843 2880 2793 2814 2826 2870 2813 2871 2820 2828 2747 2781 2871 2830 2866 2850 2874 2911 2788 2837 2891 2825 2809 2861 2768 2911 2895 2892 2783 2844 2886 2855 2828 2877 2802 2831 2742 2851 2895 2843 2871 2788 2953 2884 2994 2807 2857 2839 2906 2881 2756 2803 2885 2864 2904 2863 2846 2819 2921 2907 2885 2843 2997 2904 3033 2943 2839 2841 2811 2924 2917 2914 2983 2959 2994 2823 2965 2833 2895 3017 2830 2982 2936 2979 2928 2935 2901 2934 2850 2853 2911 2903 2858 2892 2978 2903 2998 2930 2934 2859 2967 2937 2899 2867 2952 2861 2848 2917 2917 2799 2912 2852 2828 2771 2930 2894 2895 2792 2926 2891 2900 2767 2881 2737 2894 2891 2958 2821 2814 2796 2748 2858 2914 2830 2824 2810 2808 2810 2851 2891 2815 2894 2800 2790 2762 2809 2732 2890 2793 2843 2861 2680 2826 2797 2824 2766 2780 2807 2743 2844 2793 2800 2790 2734 2807 2696 2819 2768 2709 2774 2758 2753 2777 2746 2680 2710 2829 2751 2802 2881 2715 2795 2821 2746 2781 2722 2770 2734 2601 2712 2704 2681 2731 2730 2748 2707 2857 2677 2742 2658 2665 2636 2641 2700 2614 2664 2707 2762 2768 2686 2717 2746 2666 2652 2828 2641 2813 2747 2699 2633 2660 2718 2662 2660 2709 2601 2665 2654 2682 2669 2700 2687 2641 2665 2728 2665 2727 2689 2702 2696 2623 2697 2681 2609 2663 2636 2674 2725 2762 2640 2637 2669 2665 2701 2651 2658 2580 2675 2666 2599 2628 2607 2725 2589 2553 2644 2637 2637 2711 2677 2756 2684 2729 2717 2674 2693 2729 2695 2746 2707 2784 2730 2664 2665 2723 2721 2785 2685 2732 2731 2673 2733 2625 2676 2718 2747 2650 2766 2746 2718 2766 2795 2721 2718 2659 2749 2644 2775 2772 2798 2757 2815 2796 2826 2987 2766 2788 2833 2807 2800 2842 2792 2687 2754 2781 2804 2793 2826 2930 2930 2829 2948 2887 2907 2818 2818 2876 2961 2831 2841 2900 2869 2934 2935 2984 2900 2894 2932 2874 2883 2935 2998 2879 2973 3209 2888 2965 3010 2972 3120 2963 3104 2927 2951 2951 3042 3107 3089 3099 3024 3051 3094 3067 3136 3098 3193 3119 3175 3260 3215 3147 3266 3187 3371 3353 3351 3449 3538 3472 3567 3471 3604 3524 3583 3651 3572 3520 3624 3556 3552 3509 3601 3653 3584 3473 3555 3618 3510 3643 3562 3635 3586 3502 3749 3674 3707 3617 3622 3625 3644 3706 3734 3780 3725 3803 3810 3849 3807 3965 3859 4083 4024 3871 3920 4047 4073 3900 3748 3868 3712 3662 3573 3469 3309 3445 3342 3356 3194 3246 3306 3187 3136 3264 3262 3259 3207 3185 3211 3201 3144 3360 3256 3286 3144 3205 3209 3162 3079 3161 3171 3181 3101 3274 3252 3082 3077 3087 3034 3211 3175 3186 3248 3170 3088 3119 3120 3138 3097 3045 3124 3054 3158 3264 3248 3114 3211 3023 3048 3072 3019 2997 2984 3055 3079 2994 3029 3029 3081 3247 3079 3030 3077 3017 2996 2928 3022 2987 3117 3041 2998 3086 2976 3009 3010 2938 2961 3029 3071 2990 2990 2947 2970 2898 2983 2932 2855 2869 3002 3020 2940 3019 2973 2834 2955 2919 3006 2837 2872 2846 2807 2879 2923 2896 2936 2912 2892 2871 2850 2985 2877 2962 2946 2904 2997 2867 2901 2931 2808 2828 2856 2801 2897 2819 2804 2857 2859 2815 2919 2727 2835 2707 2920 2921 2807 2882 2775 2880 2804 2777 2728 2812 2760 2831 2714 2815 2808 2741 2779 2711 2764 2781 2816 2689 2766 2802 2706 2780 2784 2768 2760 2745 2801 2772 2634 2647 2816 2737 2757 2656 2754 2791 2708 2669 2772 2681 2659 2678 2650 2722 2847 2690 2657 2594 2765 2775 2770 2762 2570 2716 2733 2746 2717 2628 2677 2685 2758 2726 2616 2732 2667 2679 2715 2657 2690 2672 2676 2723 2724 2707 2780 2689 2682 2762 2673 2708 2718 2596 2605 2678 2692 2787 2624 2651 2637 2780 2686 2662 2661 2626 2682 2713 2668 2703 2663 2626 2623 2605 2681 2658 2688 2621 2719 2631 2679 2587 2647 2650 2575 2647 2595 2686 2615 2652 2600 2650 2652 2653 2658 2620 2685 2604 2593 2632 2618 2573 2641 2676 2758 2593 2661 2618 2599 2667 2598 2653 2602 2661 2676 2708 2647 2583 2598 2623 2532 2598 2636 2691 2572 2662 2585 2660 2590 2621 2607 2577 2671 2659 2564 2681 2574 2620 2591 2493 2617 2570 2633 2665 2574 2521 2684 2529 2580 2633 2623 2546 2477 2597 2599 2521 2643 2537 2633 2566 2614 2556 2633 2744 2629 2608 2506 2650 2625 2695 2595 2535 2604 2606 2515 2519 2522 2515 2508 2607 2516 2570 2483 2520 2599 2465 2433 2541 2566 2616 2640 2439 2475 2641 2497 2472 2508 2606 2553 2533 2627 2439 2556 2517 2485 2595 2484 2591 2515 2524 2509 2558 2509 2504 2539 2565 2483 2472 2510 2537 2569 2481 2520 2568 2553 2576 2519 2386 2507 2489 2495 2417 2554 2536 2487 2484 2431 2472 2577 2511 2551 2398 2489 2504 2472 2580 2512 2488 2487 2368 2487 2428 2488 2409 2524 2469 2544 2390 2382 2492 2500 2404 2556 2519 2447 2513 2466 2444 2415 2463 2456 2528 2429 2436 2462 2399 2413 2516 2476 2472 2479 2449 2550 2460 2498 2474 2418 2513 2421 2453 2413 2450 2433 2493 2422 2371 2448 2346 2504 2395 2348 2533 2345 2402 2364 2421 2338 2346 2470 2264 2421 2454 2406 2412 2418 2425 2488 2409 2468 2291 2385 2393 2409 2297 2405 2384 2238 2425 2441 2410 2275 2337 2349 2401 2363 2470 2352 2444 2344 2395 2400 2372 2370 2410 2299 2317 2372 2381 2393 2396 2396 2362 2342 2416 2365 2443 2348 2419 2369 2308 2338 2416 2378 2329 2417 2287 2323 2307 2313 2339 2424 2369 2256 2360 2343 2314 2309 2442 2317 2308 2418 2313 2331 2397 2304 2348 2327 2344 2365 2359 2333 2402 2257 2400 2385 2281 2296 2330 2389 2337 2353 2408 2361 2295 2354 2328 2366 2430 2264 2327 2388 2316 2367 2317 2352 2314 2392 2373 2379 2423 2388 2401 2369 2253 2317 2376 2383 2311 2421 2395 2441 2476 2450 2368 2311 2390 2472 2313 2420 2365 2383 2344 2388 2387 2334 2455 2408 2436 2399 2449 2331 2359 2398 2286 2375 2335 2451 2378 2411 2422 2362 2384 2331 2333 2387 2337 2462 2467 2371 2273 2313 2359 2389 2413 2435 2425 2362 2414 2434 2402 2382 2479 2471 2419 2361 2397 2322 2400 2414 2442 2300 2387 2376 2428 2409 2392 2446 2442 2337 2322 2291 2396 2349 2350 2334 2333 2451 2407 2308 2463 2198 2300 2287 2353 2252 2365 2258 2355 2353 2374 2278 2276 2329 2248 2244 2258 2327 2283 2346 2326 2273 2243 2298 2255 2209 2274 2176 2314 2234 2205 2267 2219 2187 2243 2285 2247 2255 2327 2217 2196 2253 2254 2275 2098 2313 2154 2194 2165 2176 2223 2220 2123 2186 2200 2175 2147 2201 2164 2127 2123 2188 2081 2091 2151 2112 2158 2151 2185 2112 2156 2137 2066 2134 2026 2134 2081 2089 2033 2137 2061 2083 2028 2040 2027 2058 2107 2166 2049 2071 2079 2072 1992 2049 2001 2062 2025 1972 2059 2014 2045 2018 2049 1987 1932 2036 2015 2129 1950 2015 1968 2092 1891 2063 1954 2061 1940 1843 1928 1923 1928 1959 2037 1934 1931 1951 1926 2005 1948 1932 1913 1917 1841 1889 1896 1976 1950 1861 1946 1837 1822 1901 1819 1887 1927 1897 1923 1768 1912 1931 1896 1759 1841 1852 1807 1882 1801 1869 1855 1880 1889 1859 1883 1852 1886 1873 1885 1819 1815 1825 1743 1865 1788 1879 1782 1799 1747 1823 1781 1807 1805 1806 1770 1796 1821 1812 1768 1744 1830 1827 1850 1820 1729 1793 1789 1838 1696 1850 1696 1722 1800 1736 1616 1753 1673 1718 1761 1760 1716 1695 1642 1749 1751 1676 1659 1809 1743 1701 1771 1824 1714 1802 1745 1838 1732 1756 1746 1776 1680 1842 1801 1672 1753 1765 1745 1728 1763 1796 1707 1711 1783 1776 1713 1710 1726 1674 1734 1731 1790 1742 1805 1718 1798 1795 1748 1719 1696 1853 1727 1793 1711 1703 1715 1691 1744 1765 1698 1727 1764 1810 1729 1723 1734 1649 1792 1757 1738 1816 1796 1772 1658 1723 1697 1734 1688 1770 1808 1721 1813 1708 1775 1832 1735 1782 1710 1752 1672 1637 1717 1810 1725 1835 1806 1694 1765 1758 1813 1785 1777 1747 1792 1716 1714 1764 1654 1683 1788 1730 1770 1768 1735 1761 1779 1759 1791 1687 1741 1707 1824 1780 1813 1733 1746 1736 1780 1783 1783 1771 1791 1720 1776 1748 1811 1791 1769 1838 1771 1816 1796 1768 1792 1850 1854 1750 1813 1764 1800 1715 1735 1736 1807 1832 1754 1756 1768 1720 1750 1773 1683 1775 1753 1786 1786 1850 1729 1707 1804 1712 1720 1834 1732 1824 1735 1766 1669 1750 1708 1733 1711 1731 1756 1757 1707 1846 1765 1772 1759 1703 1775 1704 1688 1810 1700 1770 1730 1750 1754 1791 1703 1714 1637 1727 1738 1692 1712 1730 1713 1682 1721 1739 1724 1710 1660 1590 1682 1725 1664 1763 1746 1601 1718 1647 1675 1648 1721 1615 1722 1577 1679 1680 1671 1669 1613 1629 1648 1658 1687 1629 1570 1584 1591 1563 1546 1602 1595 1602 1642 1595 1575 1555 1629 1561 1515 1527 1620 1543 1616 1571 1675 1570 1574 1618 1557 1562 1538 1638 1569 1539 1607 1567 1669 1603 1538 1546 1502 1548 1505 1565 1565 1558 1590 1555 1515 1551 1618 1614 1543 1581 1521 1577 1613 1555 1601 1506 1573 1575 1614 1646 1696 1693 1646 1644 1825 1747 1733 1774 1752 1773 1901 1785 1784 1856 1839 1782 1784 1763 1777 1830 1846 1777 1789 1789 1751 1736 1785 1732 1840 1764 1816 1720 1768 1809 1734 1701 1803 1792 1752 1737 1748 1764 1804 1834 1807 1863 1798 1909 1811 1851 1744 1844 1845 1722 1707 1676 1658 1592 1607 1616 1581 1508 1532 1539 1482 1532 1483 1467 1424 1453 1421 1409 1443 1467 1428 1444 1349 1335 1437 1455 1329 1418 1383 1408 1415 1456 1402 1321 1463 1365 1397 1389 1416 1302 1340 1423 1393 1429 1370 1422 1310 1336 1385 1354 1397 1324 1358 1394 1424 1387 1404 1410 1449 1498 1497 1650 1560 1704 1718 1786 1897 1902 1984 2058 1978 2039 2125 2131 2142 2123 2137 2078 2190 2094 2085 1976 2077 1983 2068 2008 1973 2010 1948 1881 1955 1925 1834 1874 1873 1862 1933 1970 1868 1964 1922 2081 2078 2198 2065 2200 2159 2213 2277 2336 2463 2435 2406 2314 2474 2428 2368 2295 2273 2153 2146 2034 1931 1944 1931 1745 1758 1705 1543 1635 1549 1578 1609 1520 1553 1497 1499 1438 1469 1375 1482 1478 1469 1419 1360 1373 1352 1414 1341 1294 1292 1374 1340 1330 1330 1332 1319 1332 1291 1373 1365 1400 1329 1311 1317 1316 1350 1372 1470 1375 1429 1435 1450 1444 1385 1365 1297 1354 1334 1303 1287 1296 1243 1222 1240 1262 1239 1225 1252 1211 1148 1160 1215 1239 1191 1189 1197 1104 1196 1162 1140 1159 1174 1127 1151 1092 1121 1116 1130 1129 1160 1160 1154 1119 1129 1133 1155 1148 1107 1155 1145 1162 1129 1164 1113 1108 1137 1199 1168 1154 1148 1188 1129 1144 1171 1153 1093 1194 1106 1148 1112 1159 1123 1100 1143 1133 1162 1121 1098 1108 1142 1130 1148 1146 1104 1113 1161 1106 1164 1122 1170 1108 1160 1084 1098 1125 1135 1183 1110 1112 1146 1105 1133 1211 1116 1085 1228 1112 1116 1130 1181 1115 1153 1163 1129 1161 1180 1129 1077 1088 1162 1109 1137 1155 1140 1187 1160 1144 1133 1103 1146 1137 1078 1139 1108 1095 1152 1116 1114 1133 1146 1126 1070 1091 1112 1087 1086 1087 1147 1150 1111 1145 1127 1089 1133 1081 1066 1063 1133 1072 1105 1064 1087 1106 1157 1079 1063 1037 1039 1052 1110 1090 1087 1067 1112 1059 1048 1086 1082 1095 1087 1097 1098 1098 1057 1064 1130 1195 1054 1066 1113 1107 1057 1103 1133 1114 1138 1100 1051 1072 1105 1145 1085 1155 1079 1109 1066 1133 1070 1072 1108 1126 1152 1051 1064 1115 1109 1050 1080 1063 1141 1069 1097 1036 1095 1083 1150 1057 1055 1031 1100 1072 1113 1093 1068 1075 1081 1111 1098 1049 1102 1039 1078 1153 1078 1057 1049 1066 1057 1073 1084 1042 1117 1042 1090 1070 1096 1067 1091 1035 1073 999 1040 1004 1018 1032 1070 1077 1104 1017 1119 1048 1058 1089 1013 1121 1074 1117 1062 1073 1065 1133 1103 1070 1065 1043 986 1044 1062 1085 1112 1064 1083 1060 1118 1084 1083 1070 1099 1168 1147 1145 1120 1064 1143 1107 1164 1121 1110 1171 1144 1169 1201 1292 1180 1245 1272 1377 1313 1463 1464 1552 1651 1715 1857 1860 2186 2294 2415 2418 2584 2788 2738 2779 2879 3041 3080 3027 2964 3099 3110 3035 3049 3026 2929 2923 2853 2703 2777 2737 2814 2675 2842 2874 2879 2891 2873 2835 2806 2902 2984 2981 3206 3254 3387 3389 3609 3547 3724 3769 3977 4315 4374 4519 4309 4205 4017 3784 3559 3312 3252 3013 2866 2655 2517 2232 2189 1936 1798 1694 1601 1530 1474 1442 1383 1401 1364 1329 1294 1295 1254 1281 1245 1272 1316 1231 1175 1227 1207 1233 1223 1228 1161 1174 1211 1144 1244 1174 1158 1204 1200 1167 1095 1106 1129 1182 1101 1128 1140 1222 1162 1169 1150 1148 1159 1183 1153 1113 1184 1099 1215 1172 1199 1149 1183 1156 1196 1157 1165 1147 1102 1078 1139 1091 1040 1101 1082 1131 968 1040 1052 1021 1073 1020 1012 963 983 1028 1011 1013 1025 1047 1034 1063 943 1020 994 1011 931 965 991 1031 1004 1008 1067 962 1064 1011 1102 927 1006 988 957 1001 974 1058 1016 1089 1026 970 1012 999 1009 1034 1058 973 1066 959 1012 1012 969 1005 999 1052 998 953 1052 945 1001 1005 1029 997 984 1030 999 953 957 1014 1026 937 1022 962 982 936 964 954 958 983 954 1009 990 939 888 977 998 1038 973 938 953 920 978 969 971 930 943 947 983 956 986 974 930 914 977 932 941 873 882 911 938 885 927 964 968 976 980 968 925 979 974 991 914 949 1025 961 953 969 1015 992 938 952 913 956 948 978 894 909 997 966 942 909 947 914 951 884 916 847 894 907 916 924 968 933 915 958 956 958 926 922 949 939 963 945 932 966 951 991 907 930 896 962 924 946 931 934 1015 925 946 984 967 915 1000 920 920 927 1017 932 941 888 894 949 971 912 885 968 967 925 969 901 1000 951 947 914 1032 933 941 940 975 1002 887 921 853 895 963 899 899 931 931 930 985 979 957 921 885 926 861 943 907 916 936 925 916 907 898 869 898 900 886 903 898 850 851 889 915 838 842 870 876 881 943 973 871 836 868 857 920 858 904 901 893 916 878 863 947 857 924 858 945 900 901 901 943 876 954 901 897 865 882 871 918 842 898 910 919 903 930 834 895 885 840 880 860 865 929 901 898 923 861 867 925 874 838 929 974 910 837 914 923 907 903 844 830 856 868 826 831 904 893 901 867 888 879 842 888 869 897 858 924 884 826 921 882 863 892 806 870 908 872 885 863 875 869 828 873 905 842 907 865 897 866 821 890 860 850 881 855 859 860 824 854 877 921 836 867 840 860 847 857 865 840 875 883 915 858 815 872 849 810 896 823 867 873 868 863 849 816 896 869 846 840 833 881 854 845 815 920 828 875 819 867 907 841 863 902 836 823 825 772 854 885 834 830 842 852 912 861 867 860 868 807 870 893 811 874 896 883 784 881 912 859 846 865 827 851 862 852 835 786 867 845 868 846 808 901 785 775 851 822 862 836 871 839 835 843 846 812 822 852 833 818 881 876 881 819 799 797 841 829 887 828 825 842 804 829 818 774 837 815 855 812 800 855 828 789 836 854 848 855 840 851 812 871 791 831 846 850 861 869 902 818 853 799 848 816 831 806 884 807 870 857 850 790 826 826 840 839 802 853 822 847 875 802 872 855 856 860 828 843 846 879 834 862 816 842 840 865 845 865 767 826 879 910 854 853 797 884 877 887 823 804 897 853 925 807 856 835 870 859 844 821 852 799 866 906 870 827 809 827 854 868 852 813 837 784 881 878 892 796 865 833 809 839 812 881 812 800 855 886 878 853 835 819 811 809 817 806 898 840 773 855 825 852 880 874 815 841 840 785 785 814 819 764 853 813 855 910 788 815 819 820 870 835 829 867 841 839 783 831 826 837 810 854 826 849 890 909 828 846 859 792 805 835 839 839 870 786 874 826 836 813 848 835 823 849 800 809 795 813 797 895 818 890 829 869 801 881 835 828 824 872 861 910 885 846 872 857 819 759 814 853 885 863 833 857 838 892 843 807 908 837 856 789 830 842 805 814 858 868 924 859 853 798 828 782 833 825 838 811 753 817 806 809 843 839 810 807 805 864 817 809 875 823 877 829 834 824 784 841 839 815 878 844 852 842 796 797 856 863 816 814 805 874 790 898 834 784 811 767 847 795 825 826 823 790 855 804 812 842 837 843 837 835 799 802 872 812 895 811 834 813 824 802 791 844 794 864 800 788 800 843 847 859 834 759 815 865 806 851 901 838 842 814 835 808 886 861 857 825 840 818 850 813 816 815 865 872 862 830 822 794 850 856 798 840 865 872 803 844 839 838 880 825 883 840 835 914 812 847 775 875 867 842 785 838 892 854 889 849 885 823 855 905 889 870 872 904 939 971 1002 955 997 1023 993 1044 1055 1148 1046 1046 1078 1184 1167 1167 1140 1224 1125 1129 1166 1171 1177 1155 1184 1166 1153 1203 1170 1157 1134 1155 1132 1162 1149 1102 1110 1130 1199 1107 1181 1209 1159 1165 1195 1165 1141 1128 1104 1113 1100 1096 1047 1138 1057 1057 1046 1001 1026 1001 983 935 953 931 986 878 922 857 827 923 840 901 927 837 786 808 849 839 818 829 844 899 845 855 846 808 797 839 824 803 803 797 763 791 824 825 835 839 774 753 820 783 779 826 798 794 819 766 796 786 787 810 822 814 790 820 830 784 855 793 832 854 837 787 846 804 847 782 783 867 821 864 821 773 785 802 776 798 790 828 789 827 804 806 800 818 819 806 829 786 794 793 765 789 815 792 796 835 820 805 866 849 823 785 835 828 786 825 803 760 777 815 798 747 783 800 814 850 804 791 815 797 742 788 736 819 828 763 781 790 805 800 815 762 903 788 801 764 777 816 791 829 781 823 825 798 843 846 791 838 781 817 797 807 832 828 780 726 810 808 830 808 802 818 852 865 778 876 824 838 815 805 809 802 833 856 819 830 822 794 832 813 854 814 836 772 819 808 791 847 792 805 819 803 800 813 807 813 840 800 828 835 825 833 829 870 810 850 833 836 807 887 856 805 803 847 794 837 795 839 820 860 825 814 802 823 870 839 830 817 829 869 789 861 808 715 819 834 799 835 795 829 836 863 809 826 835 804 806 809 904 893 883 866 855 818 861 847 856 865 817 830 790 851 859 824 818 787 845 815 882 888 855 875 818 908 874 907 870 877 932 875 871 891 857 850 875 892 860 834 929 918 927 871 877 862 877 887 939 913 914 915 878 851 932 865 952 916 918 858 861 872 883 856 905 915 921 911 905 870 930 922 949 1027 1039 1104 1064 1155 1132 1297 1337 1367 1441 1489 1541 1673 1754 1804 1812 2085 2001 2193 2140 2246 2216 2268 2182 2145 2195 2122 2236 2179 2207 2203 2252 2201 2250 2332 2346 2375 2348 2415 2500 2535 2679 2645 2752 2833 2829 2842 2939 2837 2835 2978 2946 3109 3061 3058 2993 2847 2793 2646 2564 2408 2168 2186 2123 1979 1967 1879 1775 1724 1614 1537 1420 1309 1265 1280 1179 1165 1081 1027 1026 966 1036 928 900 981 950 867 932 925 874 939 913 869 907 879 904 832 894 862 861 871 827 844 916 908 888 876 821 841 829 881 826 834 851 854 891 827 874 828 880 895 874 942 844 889 897 895 914 918 855 865 873 909 907 871 850 887 840 917 829 892 908 907 927 865 885 834 856 901 908 900 887 843 901 878 843 894 843 903 906 927 892 870 833 822 911 842 897 834 855 820 849 857 805 880 890 900 798 837 783 858 825 742 812 787 782 783 864 804 793 789 790 809 754 775 806 788 781 824 723 765 775 740 777 773 822 724 750 827 822 799 771 772 798 805 774 778 797 772 825 784 811 783 818 843 818 758 800 808 856 821 872 829 865 832 907 846 886 905 942 905 972 861 972 862 905 921 897 907 895 927 972 908 896 881 906 933 940 925 947 949 921 926 955 864 942 933 936 926 979 949 1002 971 984 897 977 964 946 945 919 867 873 854 854 906 843 847 826 839 892 835 806 846 847 857 798 867 831 809 750 805 799 772 820 707 805 794 799 767 765 808 792 743 773 743 787 807 685 811 739 802 788 825 763 713 760 749 678 784 786 786 760 741 795 760 773 750 778 790 756 820 781 805 783 774 731 736 786 773 719 803 755 725 736 720 750 722 708 728 792 741 736 763 732 743 748 671 733 710 750 682 746 751 746 710 757 786 771 724 773 740 773 728 768 729 743 759 776 754 698 711 757 734 769 753 738 730 815 782 718 760 754 746 736 743 761 716 742 724 745 727 694 754 781 748 743 745 748 773 773 805 715 792 785 745 758 733 741 731 767 765 828 715 750 723 757 737 736 751 817 787 773 752 700 741 748 803 754 759 752 755 673 745 754 754 706 751 712 784 767 764 753 747 763 708 772 728 741 748 756 737 757 734 738 731 783 770 697 728 657 714 773 745 725 717 708 719 766 747 696 732 746 780 752 735 753 779 767 708 775 651 723 713 693 685 787 727 755 699 675 740 754 754 815 736 740 678 750 777 738 737 756 707 715 743 762 758 735 719 768 720 772 706 730 740 727 720 736 779 727 733 686 729 708 751 712 714 810 711 746 700 689 786 686 749 738 767 739 727 757 700 735 720 718 714 694 719 724 706 780 728 699 770 729 711 720 751 734 746 743 776 713 727 726 761 795 705 739 736 752 673 711 732 712 744 713 760 741 741 718 702 745 717 722 755 747 767 732 702 756 711 755 703 743 698 764 710 743 713 705 683 651 759 717 755 697 719 687 709 731 690 734 755 713 771 737 715 698 688 669 704 698 693 715 729 668 703 698 712 748 751 701 678 707 706 743 779 725 714 775 754 709 738 688 770 736 766 726 708 736 730 664 763 674 670 749 704 680 703 748 691 709 705 724 723 728 749 763 772 701 739 731 721 734 720 745 691 721 765 745 692 737 700 697 726 743 703 726 717 697 778 735 721 690 715 744 733 730 696 726 696 702 738 689 656 731 707 775 689 719 740 718 749 743 740 747 732 699 702 776 730 766 732 698 774 729 762 719 754 667 723 725 754 735 732 693 754 722 734 725 790 758 720 741 797 767 746 731 769 701 745 717 700 680 714 765 786 707 709 737 683 720 727 716 734 786 760 784 782 720 737 765 765 755 812 754 750 772 745 744 713 727 741 751 643 777 773 788 786 767 757 755 800 792 816 740 755 791 791 750 765 782 798 803 759 717 816 742 798 774 742 761 759 760 782 758 762 773 725 768 752 797 717 784 751 732 783 773 800 772 855 847 804 836 826 813 810 852 848 833 834 952 931 934 934 970 930 971 906 1016 978 950 967 905 991 987 1000 979 980 960 924 982 981 1058 1017 1048 1030 1011 986 1046 1045 1003 1002 988 1056 999 912 1025 1001 955 909 987 936 995 910 914 945 918 924 961 896 878 876 878 851 831 812 847 741 800 781 809 792 768 762 741 745 804 700 765 728 762 737 762 729 753 738 749 743 744 705 755 779 695 727 723 733 707 751 734 752 755 708 734 737 702 805 769 716 743 719 724 759 775 735 772 755 702 703 670 728 756 748 742 773 695 738 746 723 721 706 764 765 744 760 712 747 778 790 773 784 712 782 771 778 797 820 785 804 804 832 775 780 719 815 792 803 774 807 780 885 778 792 829 839 755 772 752 759 778 815 764 825 719 795 822 798 798 770 753 738 731 734 786 794 756 738 772 779 727 803 756 778 703 794 750 778 797 738 770 755 779 791 735 724 793 752 723 794 733 746 757 773 779 753 764 747 734 748 779 730 698 741 703 710 713 704 724 729 722 768 728 735 773 708 714 767 737 732 735 762 760 682 767 756 739 703 777 716 751 728 740 735 730 701 754 734 779 804 723 734 792 803 829 867 875 902 902 925 922 984 960 1034 1061 1013 1002 1020 969 1014 993 1028 1065 1047 1142 1121 1127 1123 1164 1119 1169 1138 1175 1156 1094 1131 1106 1201 1189 1161 1105 1218 1204 1196 1212 1205 1174 1206 1202 1184 1126 1222 1137 1197 1146 1148 1140 1199 1065 1084 1014 1063 1021 976 986 1011 969 943 961 943 924 886 878 898 860 820 820 827 835 781 794 841 791 825 771 755 751 743 737 719 751 699 700 723 752 760 777 695 735 753 706 751 712 714 715 743 710 755 739 672 760 679 743 691 725 726 707 721 695 737 709 736 730 709 745 711 723 694 700 705 718 725 674 734 714 695 708 676 748 630 709 724 697 686 720 688 750 787 749 750 734 715 767 741 728 734 756 746 723 753 712 705 769 709 724 694 721 754 714 739 776 733 748 708 725 798 737 754 805 680 763 751 767 671 732 726 739 752 791 699 749 697 723 751 817 692 707 740 748 773 750 744 760 789 769 746 777 780 796 789 780 832 834 742 807 806 790 805 817 743 758 782 799 842 844 790 816 819 843 766 859 838 804 831 818 844 813 830 816 775 800 811 825 808 853 808 852 808 840 835 806 840 739 724 802 749 771 801 747 820 742 742 737 707 751 703 764 745 785 708 711 694 743 708 740 701 735 694 719 704 720 705 707 725 718 692 670 674 705 670 716 708 671 701 715 718 638 679 712 678 700 702 719 732 731 712 739 732 671 732 707 694 699 701 631 719 688 700 706 776 716 665 641 702 677 715 716 765 693 641 711 702 679 714 681 707 694 650 703 665 734 680 617 689 673 721 645 674 653 688 709 683 704 699 660 679 666 702 717 696 694 735 699 715 757 697 724 697 684 726 717 712 668 691 713 681 729 680 662 693 666 729 722 688 651 698 651 744 672 698 676 687 755 720 691 665 716 657 728 669 638 682 682 676 661 666 646 661 684 659 723 688 688 634 642 681 709 694 711 705 697 655 698 691 672 679 701 699 680 722 707 705 699 719 731 659 695 694 666 649 710 704 665 675 625 656 642 682 658 688 683 753 663 685 673 713 660 695 705 660 710 712 732 688 669 675 684 721 641 659 650 682 734 681 671 695 665 692 693 692 714 647 647 660 645 711 649 679 682 664 636 712 712 671 669 715 677 662 694 677 693 634 692 701 661 665 687 653 733 681 722 648 685 678 708 732 607 722 617 758 697 651 714 673 714 674 705 682 691 671 660 628 694 662 743 679 718 663 687 664 689 636 706 718 647 656 719 664 695 684 627 665 683 713 707 669 665 666 645 664 631 634 689 717 750 678 648 694 677 653 628 704 730 666 645 661 708 698 703 665 656 660 691 665 681 637 703 670 694 685 714 715 703 719 634 695 671 706 650 637 697 674 660 614 623 692 673 665 703 667 713 713 687 644 642 676 670 759 666 676 663 670 691 662 672 664 708 725 729 698 639 707 675 697 658 694 647 651 665 685 696 725 688 642 644 623 715 682 707 693 687 674 693 690 695 683 675 666 684 668 645 684 730 695 640 702 663 671 694 711 706 695 671 663 664 659 700 634 712 704 688 711 741 735 690 685 710 722 707 731 672 748 726 706 676 717 689 738 717 728 707 706 719 774 731 724 750 765 762 776 741 776 748 746 705 702 759 750 738 735 733 753 786 752 804 748 717 743 790 698 779 822 755 752 689 746 741 733 737 740 808 766 667 722 747 703 763 726 734 704 721 735 712 674 694 725 723 704 700 703 704 704 681 702 747 697 625 697 678 661 637 666 633 630 681 714 686 629 687 703 636 668 668 627 693 641 681 659 703 678 673 651 741 715 652 689 675 682 700 695 701 669 684 720 644 657 713 691 675 713 653 655 662 633 662 687 648 702 659 691 667 733 678 710 663 634 697 712 624 696 661 677 672 710 690 651 677 669 660 696 722 654 673 623 640 677 690 705 698 690 652 603 649 633 626 663 708 672 693 648 684 640 681 643 646 657 690 640 714 700 749 699 750 638 695 654 658 684 644 665 653 672 678 644 697 687 669 667 672 661 648 666 673 661 675 658 659 660 681 658 705 678 667 650 659 724 686 735 664 676 700 706 654 686 665 708 683 652 710 662 670 704 680 696 708 678 682 656 702 635 688 655 666 678 676 694 671 683 634 628 723 728 691 656 686 702 673 680 686 695 717 667 698 648 703 674 628 696 746 733 718 694 691 687 630 684 702 674 689 609 728 672 647 681 667 672 678 700 700 703 720 643 726 661 689 722 691 764 650 696 767 705 788 749 747 734 722 732 785 760 777 771 794 832 761 830 840 843 764 848 929 824 823 870 921 901 886 923 836 896 929 918 936 914 902 906 937 888 902 902 926 946 899 901 965 930 1018 940 1015 917 944 919 867 898 880 853 858 847 877 887 864 837 843 830 827 878 818 836 812 750 766 753 808 773 783 754 709 705 739 750 754 736 727 735 681 660 679 671 722 671 674 658 648 696 711 720 691 671 694 656 684 702 674 676 667 603 679 697 724 708 665 717 678 669 708 715 689 678 666 686 674 690 662 751 639 680 677 675 675 663 652 679 705 724 654 688 666 644 698 673 747 707 662 641 705 674 701 663 693 655 681 696 679 695 648 709 655 697 725 653 671 682 680 617 717 663 666 621 644 658 679 638 649 612 675 717 639 677 628 662 628 681 649 702 675 690 649 717 683 685 678 743 723 637 660 689 656 675 676 655 725 744 723 702 690 644 681 693 645 640 659 664 731 723 762 680 700 659 684 663 732 656 690 700 713 720 694 690 694 701 636 670 672 658 668 718 670 689 652 688 653 689 729 634 649 666 683 671 680 720 738 692 630 722 623 662 653 668 696 708 703 638 695 669 732 672 662 671 682 694 694 662 643 712 651 610 705 653 709 676 612 675 669 666 645 657 679 692 688 686 696 624 643 652 690 639 713 650 699 694 685 612 688 623 689 731 632 647 651 712 672 625 681 626 652 686 655 690 619 620 678 685 686 632 616 716 707 680 613 644 683 677 676 644 680 676 691 664 716 636 683 675 672 696 632 717 676 664 661 646 631 709 647 650 697 582 684 659 671 661 728 646 700 655 664 721 642 681 645 677 646 635 654 671 649 651 729 677 666 672 651 664 618 677 667 664 638 678 697 671 673 661 679 695 671 677 656 646 645 628 709 680 686 700 657 666 635 621 646 629 691 694 695 712 639 661 656 629 676 716 696 660 669 678 675 665 625 660 685 655 634 629 652 654 669 607 614 648 652 674 659 680 705 688 646 707 720 672 660 700 713 687 699 620 687 673 649 635 702 685 618 704 662 697 651 703 698 664 716 676 689 630 659 643 661 683 686 725 694 651 662 693 692 705 695 651 657 669 731 634 706 663 661 691 743 704 719 694 701 648 670 684 645 664 693 699 698 711 669 719 665 691 704 688 661 696 725 619 699 705 662 690 695 677 658 647 659 694 713 660 738 674 681 686 699 655 693 620 638 670 681 698 675 727 652 756 690 680 689 675 638 699 684 684 681 671 679 676 716 644 679 648 688 700 681 619 679 670 640 660 715 700 703 665 637 681 670 698 663 723 731 687 717 704 685 688 704 735 682 736 649 621 723 672 716 682 697 743 637 667 739 654 659 690 727 680 661 678 685 680 689 671 714 710 701 666 645 674 737 689 672 681 650 632 683 661 670 659 619 667 669 656 713 680 649 682 644 742 670 781 683 693 668 704 674 673 684 653 718 710 703 719 679 735 689 715 731 707 688 716 749 719 708 721 694 709 746 772 723 802 706 724 761 708 726 677 757 712 716 713 716 730 764 757 738 766 751 759 712 766 735 766 718 726 798 729 797 742 766 746 748 709 723 781 761 706 748 762 749 809 789 823 777 783 771 765 737 768 754 787 749 724 706 787 747 752 776 733 730 740 834 812 744 803 832 817 784 794 797 762 785 727 785 836 756 774 792 802 768 794 784 773 774 787 780 761 727 771 758 734 757 777 720 730 728 768 762 741 776 736 762 691 706 758 771 737 717 737 752 734 708 760 687 712 701 690 716 653 715 644 717 691 765 740 712 740 729 694 661 681 675 714 704 733 712 738 666 699 698 677 712 727 699 683 702 732 633 642 710 697 674 704 656 717 676 703 705 705 710 673 675 674 622 691 644 670 684 689 657 671 688 669 705 703 725 715 720 671 707 712 683 678 698 697 694 743 707 686 700 688 663 683 749 733 678 721 662 684 635 712 680 696 722 702 703 680 700 712 694 710 714 775 715 673 669 737 646 697 683 675 689 695 707 648 697 753 721 737 763 735 738 726 727 716 746 722 721 714 733 754 703 717 727 714 729 763 749 789 753 748 779 731 748 788 733 765 747 734 763 802 750 822 786 792 823 870 846 845 838 844 913 881 896 911 921 927 852 943 954 949 1006 989 961 977 947 1000 1022 1066 1040 1051 1028 1038 1014 1101 1139 1087 1167 1131 1115 1157 1073 1099 1117 1039 1111 1085 1146 1109 1087 1116 1080 1025 994 1013 1005 1090 1020 957 988 1015 952 981 991 999 912 982 921 900 888 876 893 835 835 832 863 858 823 825 787 815 838 789 803 809 725 756 771 723 775 768 788 740 763 736 726 748 692 689 749 750 765 753 745 674 674 749 734 692 764 711 703 681 740 689 730 733 712 705 758 644 703 734 704 733 707 684 727 677 697 659 684 695 658 679 657 674 701 721 695 698 679 750 686 674 626 678 714 724 705 734 653 701 715 657 666 674 643 671 702 690 646 665 685 698 707 712 716 725 701 661 684 737 661 722 698 685 722 714 670 737 708 738 709 697 709 697 696 734 678 741 694 702 720 740 726 768 716 784 729 710 742 764 809 758 741 741 740 695 789 768 723 726 758 743 739 769 744 744 760 724 761 747 774 738 815 753 716 707 728 746 809 739 779 724 739 760 776 752 766 738 711 738 725 748 703 742 731 691 748 673 723 699 720 688 703 733 688 719 730 680 694 700 727 659 690 727 679 745 678 709 718 700 686 678 680 753 742 687 736 685 715 697 730 692 654 670 714 684 629 707 680 647 671 652 725 658 689 665 711 643 721 689 673 698 650 693 733 708 677 698 696 702 690 709 702 686 698 689 658 686 699 711 691 709 662 653 671 612 690 667 688 673 644 665 716 672 665 694 683 683 647 705 640 655 699 699 687 693 682 639 673 698 664 691 710 671 700 664 709 702 687 726 700 693 716 672 688 695 687 705 669 667 698 677 664 688 665 666 687 704 634 625 721 668 686 686 687 675 725 678 720 675 652 647 660 691 681 706 651 735 662 679 646 663 619 695 682 645 693 714 622 690 636 640 677 673 642 674 664 679 704 675 670 659 688 671 720 650 685 633 676 679 737 641 646 687 685 659 676 618 662 646 700 653 700 655 663 658 670 698 640 685 685 697 684 681 704 666 698 649 669 681 664 658 678 698 659 724 693 690 681 715 652 662 705 677 687 680 696 670 669 717 674 675 700 672 692 655 680 698 648 648 656 671 672 658 723 655 687 655 644 695 686 630 692 684 670 748 686 698 673 681 645 626 670 636 715 696 684 677 673 645 654 667 688 669 640 696 647 698 685 670 662 709 702 634 671 635 677 685 675 691 681 695 693 675 688 680 720 716 675 685 699 664 665 648 687 653 639 669 691 684 628 647 669 666 662 646 704 676 761 696 736 685 641 681 700 627 689 660 675 661 663 678 670 671 628 691 667 697 709 658 707 658 699 652 712 700 709 726 692 672 678 738 649 673 624 633 661 658 626 678 661 710 687 687 685 690 714 678 667 643 673 672 655 734 763 715 765 750 687 705 718 713 720 683 715 737 696 733 686 680 708 686 739 744 703 721 719 743 781 748 720 740 723 727 698 690 724 746 732 763 734 677 738 734 704 706 746 778 722 743 730 731 720 738 755 711 720 682 708 672 724 665 735 673 716 724 773 712 698 704 733 757 714 689 687 707 729 709 713 695 684 682 700 695 696 710 700 686 721 681 669 657 702 641 695 641 699 647 695 709 683 693 686 626 702 705 745 636 734 709 670 725 714 696 702 679 680 699 703 657 697 682 687 711 753 706 708 663 704 737 704 705 698 669 737 717 683 667 696 676 629 707 685 643 678 655 675 650 719 696 658 650 729 689 725 697 710 698 702 707 654 687 679 647 708 656 687 684 680 703 687 730 735 673 712 688 661 716 704 716 722 684 708 732 662 684 662 665 690 696 607 667 654 707 685 666 668 707 713 680 668 713 702 698 707 702 719 679 680 668 660 654 676 667 708 628 697 688 693 718 724 696 660 725 700 639 721 710 669 660 671 700 693 660 712 710 698 696 662 666 704 673 700 674 727 699 707 728 714 652 696 695 697 714 742 703 698 678 724 697 726 714 652 684 695 738 697 675 765 696 680 738 658 728 768 717 749 753 701 747 782 694 754 768 738 767 790 802 778 806 823 807 781 835 846 902 824 886 845 912 923 929 992 933 1026 1000 984 1015 980 1055 1089 1140 1148 1078 1070 1088 1092 1104 1108 1105 1069 1091 1050 1154 1013 1078 1062 1008 1105 1076 1099 1060 1006 1042 1042 1082 1078 1001 1035 1057 1038 1043 1001 967 1030 996 1033 945 975 909 888 876 898 898 943 912 928 825 848 844 846 871 820 837 828 829 806 755 780 801 769 739 733 775 795 786 771 724 701 748 774 725 697 718 729 686 716 694 725 691 687 691 702 658 661 673 726 622 714 742 691 713 697 736 697 682 701 713 709 694 709 655 671 714 662 720 707 687 746 654 721 685 622 686 685 674 684 712 696 695 741 719 677 662 649 697 678 717 731 692 740 713 716 735 776 720 724 684 736 709 703 710 664 751 684 715 683 667 655 730 690 692 736 775 690 712 657 733 700 710 711 698 710 682 763 673 668 701 699 702 763 663 762 723 706 753 652 748 687 742 691 689 708 717 765 731 730 707 684 748 683 748 722 753 764 723 677 708 692 695 723 670 719 731 708 773 734 695 701 709 707 729 655 765 704 686 722 694 746 669 715 707 720 735 722 668 694 653 717 722 658 683 662 653 695 753 711 685 718 712 661 724 759 676 677 728 713 726 689 693 757 683 701 701 701 660 694 779 719 770 695 724 689 738 708 741 695 695 672 723 737 707 734 665 674 696 711 685 668 692 696 670 680 699 675 655 690 686 686 759 690 674 687 704 699 742 687 658 690 709 695 664 674 669 752 712 705 704 671 678 701 709 703 649 664 670 746 714 661 655 673 677 727 690 691 660 647 658 697 681 735 637 686 665 690 688 680 672 678 669 651 690 674 702 709 719 721 649 679 707 677 678 671 684 610 676 658 690 656 635 692 642 670 729 717 668 678 632 663 599 683 634 697 691 727 681 699 636 684 660 725 665 664 658 715 669 677 655 688 696 669 680 734 730 653 652 690 662 687 713 676 661 659 645 695 691 665 680 704 724 672 666 647 682 679 641 704 685 689 745 662 739 704 714 656 649 651 667 692 669 653 695 668 693 694 650 702 660 722 718 668 626 672 705 706 705 621 661 676 702 710 639 717 667 693 685 693 656 679 647 761 662 717 712 650 690 729 721 674 712 694 681 734 663 660 748 679 666 679 651 677 677 671 654 671 688 649 709 660 632 646 674 674 699 683 680 648 676 696 662 733 653 668 702 651 653 704 657 710 694 675 646 643 688 670 656 693 679 685 709 677 752 666 655 709 651 706 725 718 689 707 666 725 659 689 729 657 655 653 691 711 714 694 680 646 692 696 709 674 682 753 675 673 714 684 719 693 667 692 675 726 721 704 664 670 701 668 680 667 661 729 683 710 707 707 683 707 673 636 699 667 717 685 685 672 686 696 715 714 702 707 707 736 753 727 699 649 701 674 698 710 669 682 651 740 737 715 721 703 736 692 765 726 730 635 716 709 709 723 712 691 719 719 744 738 747 747 724 780 734 810 741 777 779 779 669 776 773 700 743 686 744 759 710 732 777 783 781 752 763 789 728 817 732 802 736 735 748 761 733 739 775 757 735 768 723 778 729 765 742 769 796 788 762 724 772 746 765 744 759 731 773 718 801 757 767 782 742 756 721 721 732 725 685 793 751 732 736 727 718 774 717 760 771 702 718 741 740 724 742 747 724 733 775 751 782 744 783 688 715 743 702 694 743 736 728 742 702 692 696 728 675 669 664 739 729 706 700 704 760 708 697 707 701 735 664 660 677 689 726 697 717 738 735 680 729 663 701 693 678</counts>
			</dataPoints>
		</scan>
	</xrdMeasurement>
</xrdMeasurements>
