<?xml version="1.0"?>
<xrdMeasurements xmlns="http://www.xrdml.com/XRDMeasurement/2.3" xmlns:xsi="http://www.w3.org/2001/XMLSchema-instance" xsi:schemaLocation="http://www.xrdml.com/XRDMeasurement/2.3 http://www.xrdml.com/XRDMeasurement/2.3/XRDMeasurement.xsd" status="Completed" recordIdentifier="{C655E5E2-F1F5-49D6-B97A-1677C29208A6}">
	<comment>
		<entry/>
	</comment>
	<sample type="To be analyzed">
		<id>GPSS_Li1p4Fe0p7Mn0p1Nb0p2Cl4_121825_6943d914f4d05ae3d69790b5</id>
		<name></name>
		<preparedBy></preparedBy>
	</sample>
	<xrdMeasurement measurementType="Scan" status="Completed" sampleMode="Reflection">
		<usedWavelength intended="K-Alpha 1">
			<kAlpha1 unit="Angstrom">1.5405980</kAlpha1>
			<kAlpha2 unit="Angstrom">1.5444260</kAlpha2>
			<kBeta unit="Angstrom">1.3922500</kBeta>
			<ratioKAlpha2KAlpha1>0.5000</ratioKAlpha2KAlpha1>
		</usedWavelength>
		<incidentBeamPath>
			<radius unit="mm">145.00</radius>
			<xRayTube id="1010048" name="Empyrean Cu LFF HR (9430 033 7310x)">
				<tension unit="kV">40.0</tension>
				<current unit="mA">15.0</current>
				<anodeMaterial>Cu</anodeMaterial>
				<focus type="Line">
					<length unit="mm">12.0</length>
					<width unit="mm">0.4</width>
					<takeOffAngle unit="deg">6.0</takeOffAngle>
				</focus>
			</xRayTube>
			<sollerSlit id="21010002" name="Soller slits 0.04 rad.">
				<opening unit="rad">0.0400</opening>
			</sollerSlit>
			<mask id="22031000" name="Fixed mask 13 mm">
				<width unit="mm">9.00</width>
			</mask>
			<divergenceSlit id="22120001" name="Divergence slit 1°" xsi:type="fixedDivergenceSlitType">
				<distanceToSample unit="mm">50.00</distanceToSample>
				<height unit="mm">1.52</height>
			</divergenceSlit>
		</incidentBeamPath>
		<sampleMovement xsi:type="spinningSampleMovementType">
			<spinnerRevolutionTime unit="seconds">1.0</spinnerRevolutionTime>
		</sampleMovement>
		<diffractedBeamPath>
			<radius unit="mm">145.00</radius>
			<antiScatterSlit id="22090040" name="AS slit 9 mm (PIXcel)" xsi:type="fixedAntiScatterSlitType">
				<height unit="mm">9.00</height>
			</antiScatterSlit>
			<sollerSlit id="21020003" name="Large Soller slits 0.04 rad.">
				<opening unit="rad">0.0400</opening>
			</sollerSlit>
			<filter id="20030001" name="Large beta-filter Nickel">
				<material>Ni</material>
				<thickness unit="mm">0.020</thickness>
			</filter>
			<detector id="7010019" name="PIXcel1D-Medipix3 detector" xsi:type="rtmsDetectorType">
				<phd unit="keV">
					<lowerLevel>4.02</lowerLevel>
					<upperLevel>11.27</upperLevel>
				</phd>
				<mode>Scanning</mode>
				<activeLength unit="deg">5.542</activeLength>
			</detector>
		</diffractedBeamPath>
		<scan appendNumber="0" mode="Continuous" scanAxis="Gonio" status="Completed">
			<header>
				<startTimeStamp>2025-12-20T14:26:58-08:00</startTimeStamp>
				<endTimeStamp>2025-12-20T14:35:05-08:00</endTimeStamp>
				<author>
					<name>AutomatedUser</name>
				</author>
				<source>
					<applicationSoftware version="1.7b (136)">PANalytical Aeris Instrument Suite</applicationSoftware>
					<instrumentControlSoftware version="3.2.00000000 20240306">AERIS</instrumentControlSoftware>
					<instrumentID>950485</instrumentID>
				</source>
			</header>
			<dataPoints>
				<positions axis="2Theta" unit="deg">
					<startPosition>10.00943322</startPosition>
					<endPosition>99.99442286</endPosition>
				</positions>
				<positions axis="Omega" unit="deg">
					<startPosition>5.00471661</startPosition>
					<endPosition>49.99721143</endPosition>
				</positions>
				<commonCountingTime unit="seconds">12.495</commonCountingTime>
				<counts unit="counts">3288 3198 3290 3282 3303 3250 3326 3257 3275 3207 3289 3109 3299 3248 3368 3372 3313 3315 3279 3436 3266 3326 3287 3326 3205 3365 3334 3325 3357 3386 3250 3314 3328 3319 3362 3263 3341 3387 3215 3320 3395 3414 3544 3332 3348 3290 3320 3310 3405 3363 3409 3446 3447 3485 3482 3485 3469 3385 3520 3488 3468 3617 3644 3469 3469 3617 3571 3566 3608 3586 3643 3541 3628 3592 3651 3567 3625 3732 3639 3684 3641 3626 3706 3713 3765 3640 3704 3786 3574 3718 3592 3630 3753 3649 3610 3616 3625 3622 3692 3610 3614 3593 3570 3592 3540 3610 3642 3636 3603 3573 3534 3624 3673 3640 3539 3600 3601 3491 3600 3577 3495 3447 3511 3593 3413 3546 3582 3463 3578 3489 3550 3474 3592 3526 3679 3554 3494 3581 3616 3593 3522 3534 3567 3500 3626 3495 3531 3500 3464 3571 3494 3430 3538 3670 3606 3568 3500 3464 3611 3582 3519 3651 3422 3513 3358 3601 3594 3508 3569 3638 3485 3499 3541 3448 3586 3516 3456 3593 3505 3539 3519 3581 3600 3498 3536 3575 3477 3548 3536 3449 3518 3475 3438 3505 3480 3571 3381 3507 3434 3515 3490 3626 3481 3589 3461 3427 3519 3511 3462 3457 3451 3393 3550 3458 3490 3444 3486 3513 3441 3513 3511 3499 3501 3453 3498 3412 3484 3498 3441 3497 3466 3440 3504 3460 3507 3423 3534 3534 3479 3508 3519 3494 3412 3545 3576 3467 3490 3467 3497 3433 3509 3471 3497 3437 3499 3416 3450 3415 3399 3472 3417 3487 3390 3432 3435 3479 3542 3450 3461 3437 3394 3419 3477 3453 3440 3364 3462 3527 3391 3452 3351 3473 3371 3459 3451 3466 3278 3367 3536 3429 3426 3474 3514 3491 3417 3448 3433 3322 3394 3448 3380 3470 3437 3417 3467 3510 3491 3490 3492 3537 3554 3513 3505 3398 3381 3512 3432 3532 3502 3427 3537 3529 3476 3594 3466 3415 3417 3441 3560 3561 3437 3481 3534 3526 3454 3496 3546 3456 3408 3385 3486 3463 3469 3525 3547 3537 3525 3502 3567 3593 3436 3668 3526 3585 3554 3618 3616 3628 3528 3672 3618 3464 3656 3544 3587 3739 3595 3594 3500 3706 3578 3807 3618 3697 3595 3628 3712 3704 3605 3593 3664 3666 3704 3717 3738 3684 3731 3705 3775 3600 3692 3867 3771 3710 3691 3696 3837 3780 3862 3845 3851 3755 3742 3810 3741 3696 3713 3758 3867 3788 3751 3908 4004 3914 3907 4065 4009 3943 4137 4037 4155 4320 4273 4426 4404 4607 4594 4615 4743 4816 4654 4832 4874 4715 4734 4808 4742 4586 4641 4445 4541 4458 4585 4431 4460 4447 4441 4362 4463 4436 4473 4393 4252 4383 4398 4447 4477 4439 4571 4562 4527 4485 4523 4597 4580 4487 4623 4541 4502 4461 4436 4410 4514 4270 4309 4143 4219 4094 4090 4100 4072 3970 4143 4026 4058 4024 3948 4032 4046 4093 4028 4051 3937 4028 4020 3907 4088 3898 3993 3951 3975 3934 3930 3836 3948 3805 3873 3870 3920 3831 3931 3748 3824 3834 3745 3773 3703 3697 3682 3755 3790 3656 3593 3707 3603 3761 3774 3737 3699 3744 3718 3602 3770 3606 3655 3666 3673 3647 3688 3499 3597 3667 3622 3420 3684 3614 3685 3632 3483 3554 3510 3612 3552 3597 3584 3496 3512 3621 3623 3538 3440 3504 3370 3580 3452 3467 3389 3578 3547 3546 3427 3461 3548 3388 3392 3441 3350 3386 3495 3426 3338 3341 3325 3446 3549 3330 3452 3381 3529 3456 3350 3338 3378 3352 3375 3322 3328 3269 3367 3377 3226 3374 3291 3309 3191 3299 3226 3378 3336 3284 3387 3336 3375 3268 3360 3284 3299 3393 3263 3376 3310 3340 3303 3224 3280 3329 3319 3350 3263 3455 3371 3292 3369 3377 3198 3397 3227 3382 3264 3191 3199 3334 3304 3312 3298 3250 3243 3249 3340 3343 3305 3328 3403 3316 3324 3220 3355 3235 3343 3326 3367 3364 3353 3209 3322 3183 3220 3279 3281 3312 3258 3299 3278 3268 3288 3312 3261 3213 3253 3329 3198 3292 3272 3267 3112 3284 3176 3361 3107 3255 3287 3314 3296 3275 3268 3136 3202 3187 3283 3261 3285 3253 3187 3328 3199 3166 3260 3171 3130 3163 3168 3148 3209 3094 3228 3164 3251 3166 3201 3082 3156 3233 3146 3253 3220 3169 3336 3190 3151 3206 3216 3191 3126 3157 3187 3231 3293 3238 3130 3217 3149 3172 3208 3254 3229 3268 3156 3183 3185 3273 3222 3194 3136 3030 3225 3063 3219 3246 3213 3186 3274 3223 3198 3118 3199 3098 3148 3154 3052 3195 3175 3149 3178 3176 3184 3173 3157 3203 3081 3218 3166 3193 3183 3034 3033 2969 3189 3148 3196 3172 3305 3179 3206 3121 3115 3256 3188 3172 3088 3154 3107 3081 3157 3176 3199 3043 3173 3086 3087 3196 3110 3112 3172 3134 3211 3153 3132 3106 3139 3174 3126 3052 3169 3024 3115 3098 3201 3218 3075 3104 3237 3125 3187 3182 2995 3091 3113 3052 3146 3042 2986 3037 3080 3097 3064 3104 3064 3031 3190 3068 3073 3048 3018 3071 3055 3143 3014 3178 3070 3070 3013 3112 2948 3039 3043 3146 3143 2987 3098 3156 3050 3007 3030 3102 3042 3085 3081 3164 3053 3032 3114 3002 3021 3132 3003 3030 3048 2944 3017 3113 3082 3027 2964 3053 3100 3111 3050 3080 3131 3003 3010 3017 2999 3071 3061 3038 3060 3038 3064 3091 3055 3043 2973 2944 3002 2976 3046 3058 3015 3033 3046 3075 3016 2969 2942 2915 3079 3090 3058 3027 3023 3063 3115 2960 3117 3030 2993 2934 3058 2940 3035 2918 2991 3054 3083 2876 2977 2973 2994 3013 3035 3044 2966 2997 3011 2991 2989 3024 3054 2961 3036 3090 3092 2971 3034 3096 3006 2976 2989 3007 3039 3078 3031 2920 3109 2976 3038 3013 3021 3044 3079 2953 2954 3033 2994 2995 3011 3087 2933 2981 2876 2992 2949 3008 2951 3021 3068 3055 3061 2861 2977 2877 2906 3012 2961 2990 2926 3010 3069 2981 2985 2947 2911 3015 2981 2986 2977 2881 3027 2942 2953 2928 2883 2977 2878 2988 2947 2964 2902 3013 2943 3012 3040 2971 2860 3006 2943 2994 2997 3024 3066 2934 2926 2949 2973 2994 3014 2884 3065 2971 3004 3093 2887 3028 3038 3016 2935 2930 3026 2844 2919 2891 3045 2963 2962 2938 3000 2921 2980 2888 2848 2954 2946 3008 2980 3045 2946 2967 2919 2949 3020 2993 3060 3025 3074 2908 3009 3150 2916 2950 2883 2895 3035 3007 2898 2992 2904 2980 2980 2979 3055 2914 2878 2877 2954 2942 2973 3094 2961 2919 2979 2977 2963 3001 2942 2936 2963 2878 2999 2869 2958 3029 3064 3018 2951 3005 2887 2996 2879 2986 2959 2944 2963 3070 2947 3032 2933 2957 2901 3021 2967 2958 2894 2901 2990 2870 2924 2954 2925 2833 2908 2900 2938 2909 2926 2876 2992 2908 2894 3018 2861 2875 2968 2928 2918 2955 2961 2787 2903 2839 2928 2882 2811 2876 2871 2870 2879 2866 2798 2872 2810 2970 2844 2821 2871 2810 2855 2831 2843 2921 2841 2852 2829 2895 2756 2833 2760 2876 2800 2739 2797 2852 2875 2727 2752 2805 2875 2767 2766 2829 2869 2867 2768 2834 2777 2733 2826 2713 2824 2792 2822 2746 2771 2768 2745 2724 2744 2862 2649 2741 2769 2791 2773 2706 2650 2730 2652 2649 2655 2805 2808 2750 2734 2716 2722 2726 2643 2692 2631 2711 2642 2706 2723 2707 2742 2672 2576 2731 2620 2679 2638 2684 2640 2647 2679 2614 2696 2589 2653 2678 2655 2712 2679 2676 2668 2770 2684 2680 2665 2642 2590 2545 2683 2577 2637 2700 2650 2618 2689 2569 2586 2657 2603 2644 2706 2667 2678 2666 2634 2661 2625 2595 2670 2618 2611 2617 2653 2647 2567 2570 2546 2644 2592 2657 2643 2579 2633 2588 2624 2622 2705 2580 2562 2561 2598 2592 2604 2611 2677 2641 2586 2657 2513 2588 2505 2615 2607 2640 2622 2587 2644 2552 2504 2576 2538 2520 2600 2601 2575 2545 2528 2553 2546 2506 2567 2558 2491 2581 2578 2687 2570 2505 2559 2567 2504 2523 2473 2486 2552 2581 2504 2562 2528 2643 2658 2574 2589 2547 2521 2586 2558 2583 2640 2587 2557 2515 2518 2550 2568 2540 2437 2584 2565 2608 2573 2550 2470 2554 2601 2512 2615 2480 2601 2553 2493 2645 2568 2590 2533 2528 2596 2542 2612 2565 2561 2674 2532 2528 2566 2659 2534 2596 2591 2541 2563 2534 2529 2618 2544 2541 2639 2588 2641 2559 2619 2589 2561 2545 2543 2708 2630 2638 2621 2566 2599 2615 2579 2554 2688 2548 2576 2554 2578 2527 2665 2557 2517 2560 2568 2458 2626 2546 2529 2679 2512 2528 2550 2458 2629 2554 2579 2555 2684 2559 2596 2627 2593 2499 2507 2569 2513 2667 2554 2620 2510 2591 2396 2585 2542 2589 2583 2602 2591 2596 2510 2594 2521 2690 2583 2599 2563 2608 2497 2593 2635 2585 2690 2611 2571 2622 2602 2649 2549 2624 2567 2532 2602 2440 2546 2662 2597 2546 2546 2599 2528 2646 2504 2569 2555 2583 2550 2592 2684 2592 2512 2476 2489 2435 2541 2455 2472 2532 2587 2607 2498 2502 2536 2431 2563 2534 2492 2565 2565 2537 2457 2483 2593 2525 2406 2475 2468 2504 2520 2554 2543 2500 2560 2547 2487 2517 2488 2485 2424 2410 2526 2596 2473 2491 2524 2522 2455 2446 2475 2435 2504 2523 2478 2433 2528 2378 2461 2464 2424 2456 2370 2426 2468 2480 2499 2372 2455 2410 2446 2390 2459 2430 2419 2416 2445 2384 2423 2341 2334 2480 2455 2395 2404 2429 2467 2384 2387 2413 2364 2465 2379 2424 2345 2482 2392 2353 2361 2407 2371 2428 2331 2426 2292 2378 2400 2441 2362 2375 2306 2366 2365 2400 2395 2415 2345 2351 2315 2422 2414 2406 2372 2316 2251 2351 2396 2350 2302 2306 2393 2348 2335 2291 2341 2287 2378 2400 2337 2425 2395 2365 2329 2377 2335 2397 2346 2522 2570 2610 2529 2521 2695 2650 2644 2861 2817 2857 2840 2887 2874 3047 3012 2984 2911 2998 2976 2954 2807 2811 2784 2711 2641 2745 2806 2672 2631 2601 2608 2658 2555 2566 2669 2576 2600 2561 2514 2538 2601 2569 2506 2598 2523 2488 2525 2595 2559 2528 2546 2560 2375 2549 2409 2492 2488 2558 2547 2523 2439 2501 2481 2445 2492 2515 2371 2354 2438 2458 2370 2361 2334 2379 2420 2357 2407 2357 2397 2362 2362 2336 2316 2342 2337 2318 2301 2196 2289 2366 2437 2341 2229 2316 2309 2152 2346 2326 2257 2301 2254 2385 2317 2336 2365 2331 2223 2323 2223 2307 2325 2379 2339 2317 2379 2356 2526 2455 2589 2573 2596 2628 2699 2807 2897 2964 3052 3107 3266 3387 3275 3297 3344 3239 3323 3384 3288 3311 3214 3122 3054 3026 3060 3019 2944 2852 2930 2724 2904 2826 3030 2928 3009 2971 3187 3097 3312 3309 3410 3329 3326 3339 3177 3159 3204 3094 3102 3023 2969 2767 2824 2705 2673 2647 2648 2555 2479 2512 2439 2493 2423 2428 2396 2411 2374 2401 2381 2292 2432 2338 2328 2355 2374 2360 2292 2376 2371 2322 2352 2322 2214 2264 2237 2359 2321 2311 2240 2285 2171 2255 2206 2232 2224 2266 2159 2274 2314 2184 2141 2216 2170 2278 2137 2284 2155 2149 2184 2150 2267 2268 2149 2169 2219 2183 2135 2215 2284 2177 2195 2253 2230 2224 2187 2197 2241 2171 2130 2185 2123 2268 2135 2173 2121 2207 2217 2152 2225 2261 2179 2100 2160 2152 2108 2143 2100 2166 2182 2157 2162 2159 2133 2099 2167 2081 2110 2087 2121 2166 2233 2095 2065 2151 2170 2158 2108 2106 2071 2198 2102 2160 2083 2075 2148 2181 2093 2034 2146 2087 2044 2105 2085 2146 2119 2065 2078 2076 2104 2066 2048 2119 2021 2064 2010 2067 2109 2040 2170 1976 2090 2040 2066 2062 2139 2084 2008 2069 2118 2036 2092 2054 2069 2046 2104 2023 2103 2106 2089 2018 2060 2083 2100 2017 2122 2036 1989 2051 2082 1945 2052 2071 2055 2053 2063 2020 1967 1991 2055 2101 2066 2062 2048 2022 2109 1986 2085 2034 2075 2106 2116 2064 2149 2067 2156 2131 2110 2149 2112 2058 2008 2071 2110 2061 2141 2133 2161 2184 2135 2133 2182 2203 2224 2161 2155 2205 2153 2242 2221 2306 2265 2253 2186 2295 2344 2189 2335 2327 2283 2281 2350 2345 2299 2223 2300 2374 2346 2289 2218 2292 2287 2211 2331 2265 2237 2196 2277 2166 2265 2210 2172 2198 2150 2218 2230 2244 2274 2194 2105 2217 2126 2147 2218 2281 2201 2159 2227 2116 2146 2144 2192 2184 2106 2156 2138 2178 2219 2131 2138 2163 2170 2187 2155 2204 2079 2089 2095 2114 2069 2109 2189 2083 2222 2036 2109 2003 2156 2071 2047 2108 2019 2063 2183 1940 2123 2140 2029 2131 2100 2099 2069 2052 2046 2103 2229 2071 2132 2012 2034 2120 2056 2116 1989 2019 2108 2012 2044 2037 2076 2034 2039 2016 2009 1969 2106 2140 2071 1924 2127 2071 2046 2123 2112 2051 2051 2013 2113 2067 2036 2087 2124 2042 2152 2094 2074 2078 2202 2247 2245 2217 2184 2217 2216 2264 2308 2347 2372 2410 2413 2484 2537 2682 2667 2783 2896 3015 3161 3175 3446 3639 3780 4029 4175 4440 4828 4934 5278 5495 5667 5706 5895 5876 5988 5769 5913 5837 5674 5607 5299 5095 4959 4620 4536 4399 4124 3999 3913 3833 3747 3724 3744 3641 3853 3764 3899 3915 4049 4159 4161 4273 4421 4476 4502 4374 4330 4287 4271 4252 4004 4060 3861 3789 3576 3540 3392 3357 3285 3132 3089 2993 2850 2880 2740 2714 2713 2680 2700 2644 2591 2629 2645 2636 2652 2568 2641 2649 2567 2543 2551 2627 2552 2558 2453 2542 2500 2461 2462 2485 2372 2408 2301 2323 2299 2341 2230 2211 2250 2329 2258 2342 2230 2154 2193 2230 2178 2190 2101 2120 2098 2208 2240 2095 2148 2158 2163 2171 2176 2131 2120 2068 2155 2120 2153 2082 2063 2145 2117 2085 2057 2115 2042 2068 2032 2089 2064 2075 2006 2068 2030 2102 2032 1984 2049 2035 2009 2008 2073 2019 2030 2058 2010 2063 1983 1994 1982 2100 1974 2090 1968 1912 1966 1920 2062 2029 2017 1973 2025 2005 2015 1909 1877 2032 1980 1862 1943 1886 1969 1913 1912 1883 1954 1977 1918 1923 1950 1844 1932 1919 1916 1892 1919 1928 1942 1874 1927 1973 1899 1971 1841 1879 1884 1932 1986 1919 1947 1962 1956 1910 1999 1894 1910 1874 1939 1857 1783 1861 1826 1840 1935 1861 1885 1910 1877 1870 1886 1886 1922 1832 1923 1881 1892 1881 1885 1895 1866 1838 1909 1922 1851 1895 1856 1821 1857 1813 1867 1899 1854 1836 1833 1851 1860 1805 1859 1904 1873 1845 1879 1880 1864 1961 1902 1786 1892 1844 1833 1882 1827 1869 1934 1842 1784 1913 1907 1913 1890 1761 1887 1870 1839 1861 1893 1873 1843 1924 1921 1996 1840 1918 1847 1986 1868 1924 1877 1914 1843 1863 1923 1932 1843 1822 1980 1937 1962 1934 1898 1916 1957 1894 1973 1919 1951 1874 1943 1897 1918 1956 1915 1908 1954 1910 1859 1933 1913 1799 1924 1854 1955 1790 1855 1916 1860 1869 1898 1859 1928 1888 1890 1847 1958 1850 1918 1843 1920 1856 1824 1844 1852 1793 1962 1856 1868 1833 1885 1860 1823 1765 1744 1862 1899 1908 1846 1869 1819 1771 1815 1908 1825 1857 1826 1913 1889 1904 1912 1832 1884 1870 1857 1875 1841 1872 1820 1958 1890 1841 1946 1853 1859 1905 1815 1889 1851 1802 1855 1840 1881 1801 1826 1869 1854 1891 1844 1887 1885 1822 1872 1964 1860 1867 1864 1824 1743 1843 1905 1865 1900 1845 1804 1810 1847 1838 1775 1795 1849 1926 1853 1837 1845 1842 1819 1880 1803 1852 1840 1841 1811 1808 1837 1825 1793 1839 1884 1778 1768 1794 1802 1795 1765 1719 1860 1813 1728 1841 1779 1809 1803 1832 1796 1784 1780 1839 1788 1786 1791 1884 1800 1826 1789 1771 1816 1788 1709 1824 1775 1832 1747 1752 1806 1761 1702 1777 1744 1779 1744 1675 1680 1748 1785 1813 1794 1815 1847 1688 1805 1782 1852 1798 1792 1824 1779 1811 1850 1783 1712 1787 1742 1877 1841 1813 1768 1815 1895 1778 1808 1700 1849 1735 1824 1873 1868 1800 1814 1753 1870 1775 1878 1839 1804 1749 1694 1763 1802 1755 1768 1852 1774 1751 1781 1795 1769 1757 1816 1797 1829 1869 1718 1743 1764 1781 1785 1795 1784 1740 1816 1834 1744 1717 1676 1758 1784 1794 1769 1743 1742 1790 1822 1724 1783 1789 1696 1754 1779 1720 1682 1732 1738 1685 1822 1751 1768 1737 1802 1782 1811 1742 1795 1748 1744 1688 1779 1759 1752 1803 1680 1731 1727 1762 1745 1736 1842 1755 1769 1836 1719 1795 1750 1734 1773 1748 1698 1719 1661 1772 1779 1666 1848 1746 1831 1769 1793 1667 1700 1755 1753 1687 1733 1778 1760 1686 1740 1716 1647 1730 1719 1750 1713 1726 1781 1717 1707 1736 1700 1674 1747 1816 1726 1767 1685 1750 1693 1764 1706 1753 1675 1759 1796 1762 1787 1720 1674 1755 1695 1692 1704 1686 1766 1744 1735 1782 1794 1697 1675 1675 1679 1719 1698 1768 1799 1694 1695 1766 1752 1742 1784 1703 1750 1760 1723 1771 1716 1777 1724 1759 1624 1736 1658 1794 1698 1761 1745 1761 1727 1702 1742 1771 1750 1641 1695 1750 1717 1797 1708 1756 1668 1721 1767 1695 1650 1791 1658 1684 1687 1745 1752 1735 1698 1652 1675 1716 1745 1620 1719 1700 1729 1726 1693 1720 1648 1728 1718 1740 1692 1753 1651 1712 1704 1650 1722 1820 1675 1686 1749 1716 1739 1776 1794 1707 1678 1677 1694 1708 1674 1728 1678 1708 1716 1759 1713 1742 1698 1713 1689 1750 1712 1663 1783 1707 1749 1712 1692 1709 1672 1698 1698 1636 1690 1730 1646 1701 1721 1752 1736 1690 1785 1732 1757 1718 1644 1696 1693 1678 1807 1717 1675 1744 1656 1701 1795 1685 1769 1784 1726 1661 1773 1703 1741 1703 1684 1720 1644 1780 1791 1713 1644 1760 1697 1697 1771 1728 1690 1617 1724 1716 1728 1746 1641 1631 1655 1682 1694 1721 1708 1765 1614 1708 1762 1639 1756 1709 1658 1706 1740 1737 1684 1746 1784 1662 1780 1700 1659 1793 1718 1817 1706 1658 1733 1800 1740 1768 1743 1591 1730 1697 1755 1721 1714 1613 1692 1711 1747 1730 1692 1770 1756 1737 1685 1733 1692 1668 1699 1765 1670 1738 1695 1687 1662 1738 1744 1753 1682 1666 1744 1823 1846 1770 1683 1773 1751 1688 1728 1656 1676 1778 1699 1646 1722 1782 1784 1774 1713 1729 1703 1747 1831 1802 1728 1693 1737 1732 1730 1782 1707 1672 1746 1699 1737 1751 1715 1739 1799 1692 1697 1787 1765 1752 1747 1765 1700 1693 1681 1672 1753 1687 1668 1754 1662 1727 1660 1753 1660 1739 1673 1746 1665 1736 1681 1757 1779 1696 1705 1743 1644 1640 1666 1679 1753 1674 1836 1700 1705 1742 1700 1744 1770 1746 1747 1735 1795 1805 1785 1792 1771 1810 1888 1867 1882 1922 1824 1927 1994 1964 2007 2068 1979 2060 2057 2115 2117 2080 2123 2108 2042 2023 2018 2087 2041 2067 2045 1944 1937 1879 1929 1890 1971 1906 1888 1777 1861 1847 1861 1815 1833 1835 1757 1759 1787 1772 1786 1801 1815 1876 1815 1831 1811 1825 1837 1827 1807 1844 1810 1820 1797 1792 1792 1740 1811 1769 1654 1782 1737 1772 1679 1737 1757 1794 1712 1712 1676 1758 1767 1757 1712 1726 1653 1747 1730 1647 1772 1733 1748 1747 1755 1718 1702 1802 1682 1685 1690 1731 1684 1621 1714 1718 1633 1642 1694 1683 1632 1705 1698 1690 1704 1702 1679 1678 1739 1763 1633 1663 1693 1677 1773 1769 1699 1707 1695 1611 1661 1650 1650 1702 1705 1703 1635 1770 1632 1680 1684 1684 1676 1702 1746 1614 1685 1721 1715 1668 1724 1665 1730 1609 1615 1686 1612 1674 1688 1712 1689 1644 1745 1671 1745 1777 1684 1724 1693 1615 1675 1617 1592 1684 1708 1694 1687 1701 1700 1756 1645 1721 1640 1643 1664 1618 1736 1654 1678 1707 1710 1676 1657 1679 1608 1694 1674 1697 1706 1704 1604 1651 1647 1666 1644 1662 1663 1625 1659 1678 1633 1685 1676 1681 1613 1642 1691 1642 1637 1635 1732 1710 1687 1591 1635 1722 1677 1661 1682 1621 1707 1681 1583 1644 1623 1676 1622 1620 1667 1703 1687 1668 1692 1687 1696 1679 1620 1669 1697 1698 1672 1755 1651 1648 1633 1633 1657 1615 1671 1681 1589 1691 1657 1639 1694 1741 1642 1720 1787 1605 1605 1739 1664 1665 1701 1685 1694 1667 1721 1664 1687 1692 1633 1698 1676 1708 1632 1728 1619 1763 1619 1714 1632 1625 1667 1696 1734 1765 1571 1652 1675 1686 1635 1694 1675 1634 1710 1636 1742 1703 1689 1712 1679 1667 1597 1717 1652 1687 1701 1590 1745 1687 1675 1682 1699 1675 1609 1799 1653 1709 1686 1607 1659 1634 1603 1637 1646 1707 1714 1740 1678 1657 1731 1644 1775 1665 1706 1650 1666 1666 1675 1639 1611 1675 1677 1730 1603 1681 1715 1687 1682 1770 1708 1710 1726 1762 1669 1737 1674 1701 1708 1686 1750 1766 1710 1784 1682 1816 1782 1847 1818 1816 1818 1855 1828 1841 1805 1923 1838 1877 1990 1902 1939 2031 2012 2010 2096 2128 2241 2308 2259 2440 2371 2565 2628 2626 2837 2970 3057 3119 3161 3262 3399 3517 3516 3548 3588 3447 3661 3476 3520 3422 3503 3390 3321 3211 3085 3058 2978 2875 2774 2764 2651 2678 2476 2519 2582 2475 2440 2351 2361 2333 2424 2351 2313 2402 2333 2445 2417 2478 2503 2516 2609 2559 2653 2597 2694 2612 2706 2636 2713 2545 2588 2599 2546 2589 2384 2379 2375 2329 2301 2319 2249 2280 2247 2227 2247 2137 2039 2030 2024 2003 2042 1946 2025 1992 1983 1993 1925 1865 1910 1924 1969 1937 1858 1952 2014 1926 1899 1935 1948 2018 1921 2015 1932 1944 1966 2021 1994 1908 1927 1899 1879 1883 1945 1897 1882 1928 1862 1871 1924 1818 1775 1806 1796 1785 1742 1700 1733 1687 1776 1845 1816 1786 1759 1794 1776 1729 1799 1771 1736 1718 1731 1805 1808 1750 1720 1786 1722 1717 1865 1729 1794 1802 1673 1654 1780 1746 1753 1785 1730 1649 1734 1735 1721 1713 1718 1675 1661 1694 1662 1716 1649 1662 1644 1619 1672 1695 1721 1591 1679 1667 1635 1648 1579 1708 1620 1659 1632 1644 1654 1701 1743 1591 1612 1613 1618 1598 1611 1636 1646 1645 1648 1690 1610 1619 1646 1638 1645 1593 1637 1644 1666 1637 1596 1658 1637 1658 1601 1600 1608 1624 1668 1689 1633 1662 1751 1651 1773 1744 1763 1751 1722 1773 1774 1772 1838 1835 1771 1854 1741 1678 1742 1793 1826 1754 1716 1751 1677 1801 1681 1771 1738 1781 1744 1695 1767 1702 1675 1707 1703 1728 1638 1653 1614 1704 1678 1623 1675 1689 1629 1605 1731 1627 1636 1684 1630 1629 1575 1584 1703 1691 1634 1683 1740 1644 1666 1746 1631 1618 1648 1624 1572 1671 1652 1632 1658 1580 1607 1603 1628 1653 1579 1611 1630 1577 1616 1633 1555 1624 1586 1604 1618 1622 1596 1569 1618 1562 1654 1622 1579 1579 1529 1678 1627 1763 1635 1654 1717 1589 1678 1639 1640 1638 1607 1678 1689 1675 1725 1697 1699 1741 1652 1674 1649 1657 1621 1637 1663 1657 1629 1639 1706 1623 1616 1573 1668 1595 1684 1616 1612 1631 1555 1611 1577 1597 1570 1596 1611 1582 1652 1600 1581 1635 1615 1624 1575 1660 1579 1627 1561 1540 1558 1650 1579 1580 1568 1615 1611 1630 1597 1612 1574 1539 1575 1596 1642 1580 1592 1519 1556 1587 1550 1546 1524 1536 1512 1580 1521 1583 1544 1547 1530 1611 1577 1458 1555 1550 1556 1594 1559 1540 1599 1533 1625 1567 1524 1541 1535 1546 1548 1543 1623 1584 1505 1517 1580 1514 1566 1569 1636 1468 1518 1600 1547 1558 1536 1484 1549 1588 1524 1534 1585 1581 1502 1535 1558 1595 1606 1598 1551 1582 1555 1571 1559 1609 1516 1509 1507 1565 1480 1565 1532 1573 1570 1580 1506 1530 1511 1538 1559 1592 1530 1556 1592 1580 1620 1553 1525 1555 1496 1585 1619 1536 1562 1501 1500 1544 1495 1565 1539 1572 1471 1505 1573 1557 1533 1556 1513 1515 1591 1595 1562 1439 1561 1499 1471 1580 1509 1548 1578 1595 1493 1536 1518 1588 1513 1541 1550 1524 1476 1511 1535 1542 1551 1570 1539 1557 1556 1564 1573 1521 1537 1531 1505 1546 1489 1558 1501 1526 1465 1474 1605 1532 1579 1536 1552 1512 1488 1492 1493 1549 1567 1615 1536 1527 1559 1565 1569 1559 1581 1468 1540 1496 1572 1498 1579 1504 1502 1534 1513 1535 1528 1583 1599 1552 1513 1438 1446 1512 1540 1497 1585 1452 1512 1563 1490 1512 1469 1500 1549 1465 1494 1491 1547 1499 1524 1496 1507 1510 1518 1489 1511 1536 1485 1448 1504 1490 1478 1577 1470 1527 1558 1521 1555 1460 1497 1504 1480 1549 1557 1492 1504 1566 1546 1485 1564 1451 1520 1537 1547 1476 1482 1522 1572 1591 1504 1507 1521 1662 1462 1462 1543 1525 1594 1482 1534 1565 1533 1514 1530 1580 1485 1497 1563 1531 1556 1498 1512 1480 1502 1462 1494 1499 1525 1561 1520 1538 1502 1550 1551 1559 1498 1569 1516 1541 1493 1519 1552 1562 1489 1526 1429 1547 1503 1470 1518 1488 1509 1488 1489 1542 1477 1501 1497 1453 1509 1487 1564 1457 1514 1471 1580 1559 1538 1543 1494 1577 1466 1502 1534 1480 1524 1536 1498 1438 1562 1537 1506 1514 1524 1442 1556 1478 1485 1510 1505 1530 1514 1517 1556 1482 1464 1447 1537 1549 1583 1509 1485 1511 1502 1461 1554 1460 1550 1499 1486 1536 1457 1546 1462 1488 1487 1530 1539 1522 1536 1552 1528 1522 1489 1533 1479 1543 1529 1532 1525 1493 1427 1463 1561 1497 1557 1487 1526 1467 1541 1523 1488 1497 1512 1443 1535 1526 1592 1500 1574 1518 1537 1518 1544 1558 1512 1580 1456 1545 1571 1564 1528 1608 1484 1561 1536 1509 1527 1584 1502 1513 1587 1553 1518 1519 1606 1582 1524 1502 1570 1534 1520 1567 1545 1603 1501 1559 1516 1553 1512 1520 1548 1561 1539 1539 1573 1516 1592 1572 1559 1566 1566 1534 1559 1559 1490 1635 1551 1613 1565 1570 1587 1620 1534 1683 1608 1585 1602 1620 1646 1711 1690 1622 1616 1615 1743 1611 1679 1596 1649 1668 1649 1661 1716 1607 1694 1681 1780 1598 1628 1693 1687 1702 1606 1641 1668 1639 1622 1586 1675 1605 1607 1638 1564 1575 1592 1605 1545 1586 1576 1651 1618 1573 1572 1599 1643 1649 1657 1541 1614 1707 1623 1708 1628 1725 1660 1702 1783 1643 1722 1690 1759 1702 1725 1687 1802 1778 1691 1661 1656 1641 1691 1627 1624 1585 1601 1701 1575 1634 1636 1655 1645 1570 1607 1511 1574 1608 1565 1598 1595 1468 1592 1598 1519 1544 1533 1488 1490 1434 1486 1479 1596 1535 1521 1530 1499 1531 1472 1501 1544 1490 1492 1603 1485 1546 1572 1524 1513 1511 1486 1521 1553 1516 1488 1502 1424 1483 1499 1518 1458 1470 1465 1463 1495 1532 1511 1500 1456 1484 1503 1489 1499 1474 1544 1482 1461 1488 1487 1450 1460 1485 1445 1526 1531 1480 1486 1538 1551 1511 1481 1448 1545 1486 1474 1427 1557 1457 1470 1481 1515 1443 1435 1506 1539 1512 1451 1485 1486 1479 1519 1484 1471 1557 1525 1430 1399 1422 1581 1489 1535 1513 1528 1491 1459 1518 1472 1517 1478 1492 1461 1482 1517 1483 1506 1502 1511 1505 1593 1471 1548 1478 1516 1453 1511 1499 1531 1492 1506 1505 1468 1524 1548 1508 1499 1513 1544 1492 1492 1456 1470 1533 1548 1508 1534 1502 1434 1521 1498 1511 1463 1542 1533 1555 1511 1509 1588 1486 1445 1561 1532 1551 1546 1559 1540 1560 1558 1461 1576 1606 1644 1651 1636 1748 1747 1728 1788 1752 1843 1848 1825 1798 1808 1846 1839 1853 1766 1791 1956 1951 1876 1785 1804 1820 1792 1734 1719 1687 1753 1768 1699 1662 1661 1680 1675 1659 1651 1676 1621 1660 1644 1590 1678 1552 1608 1605 1609 1570 1617 1598 1624 1617 1562 1615 1620 1631 1579 1557 1480 1639 1588 1564 1586 1526 1582 1635 1607 1719 1611 1642 1650 1538 1636 1647 1638 1661 1626 1562 1610 1616 1613 1581 1594 1537 1476 1606 1649 1634 1490 1595 1556 1596 1454 1595 1545 1541 1523 1518 1554 1610 1518 1574 1487 1494 1476 1486 1586 1488 1450 1501 1498 1459 1508 1436 1552 1457 1507 1537 1518 1484 1499 1518 1512 1452 1518 1496 1527 1509 1498 1499 1512 1503 1470 1505 1534 1535 1478 1492 1520 1594 1455 1525 1418 1516 1408 1509 1434 1569 1470 1484 1496 1486 1541 1473 1520 1485 1481 1449 1571 1443 1457 1482 1563 1490 1464 1440 1476 1400 1477 1548 1474 1469 1490 1528 1449 1446 1491 1495 1540 1565 1503 1465 1422 1571 1499 1447 1442 1493 1528 1481 1626 1376 1492 1513 1475 1525 1562 1505 1498 1468 1487 1593 1501 1580 1573 1537 1552 1467 1512 1584 1556 1603 1598 1526 1534 1537 1502 1627 1570 1527 1490 1557 1561 1528 1439 1521 1556 1463 1497 1457 1481 1522 1475 1533 1489 1547 1531 1517 1505 1447 1486 1439 1451 1438 1424 1475 1494 1498 1415 1521 1519 1467 1454 1410 1482 1445 1471 1445 1607 1443 1442 1551 1511 1482 1467 1426 1420 1450 1474 1423 1422 1407 1459 1489 1403 1478 1516 1465 1471 1492 1425 1446 1394 1477 1478 1522 1456 1455 1452 1417 1478 1429 1412 1520 1452 1422 1455 1397 1492 1450 1445 1442 1474 1464 1463 1450 1470 1374 1402 1459 1453 1379 1473 1453 1493 1468 1413 1457 1397 1431 1432 1498 1426 1371 1487 1420 1456 1501 1459 1413 1361 1435 1477 1455 1426 1412 1498 1437 1494 1494 1370 1455 1451 1402 1400 1437 1371 1436 1475 1448 1455 1483 1419 1445 1375 1475 1453 1459 1414 1425 1400 1438 1440 1477 1513 1436 1470 1387 1410 1456 1434 1386 1401 1456 1406 1302 1404 1461 1393 1417 1381 1411 1452 1439 1381 1457 1414 1488 1477 1404 1413 1448 1452 1445 1477 1408 1411 1460 1483 1435 1442 1453 1404 1408 1461 1430 1440 1375 1439 1438 1401 1420 1402 1454 1470 1415 1363 1386 1426 1381 1454 1379 1352 1397 1422 1424 1414 1416 1369 1435 1451 1334 1402 1419 1332 1427 1445 1474 1409 1459 1397 1406 1446 1432 1399 1400 1422 1422 1438 1453 1414 1352 1437 1405 1377 1366 1425 1480 1402 1388 1388 1454 1441 1399 1398 1481 1400 1415 1377 1460 1350 1349 1402 1474 1399 1435 1455 1398 1383 1454 1317 1414 1411 1408 1420 1402 1447 1348 1412 1418 1437 1421 1362 1426 1447 1410 1455 1399 1412 1387 1444 1384 1403 1449 1344 1446 1403 1356 1331 1452 1382 1380 1369 1402 1424 1457 1390 1411 1395 1432 1426 1437 1399 1420 1376 1457 1432 1382 1416 1395 1392 1415 1370 1372 1360 1416 1368 1465 1343 1432 1485 1403 1382 1452 1420 1417 1464 1411 1439 1438 1360 1387 1497 1399 1307 1433 1435 1434 1357 1316 1365 1423 1389 1425 1338 1418 1389 1441 1347 1429 1442 1468 1432 1379 1318 1392 1456 1401 1379 1407 1393 1428 1377 1419 1380 1416 1434 1334 1444 1386 1407 1313 1395 1405 1409 1354 1380 1400 1405 1453 1366 1420 1405 1413 1462 1362 1400 1385 1346 1362 1364 1461 1431 1461 1420 1369 1327 1355 1418 1428 1380 1425 1396 1450 1440 1390 1394 1374 1389 1430 1372 1402 1354 1489 1408 1383 1338 1410 1371 1355 1394 1410 1405 1350 1430 1377 1381 1400 1396 1377 1380 1404 1418 1418 1367 1374 1348 1390 1453 1391 1422 1393 1364 1447 1455 1420 1397 1380 1459 1457 1381 1419 1397 1443 1400 1352 1396 1390 1401 1351 1417 1409 1424 1406 1340 1340 1361 1377 1477 1404 1369 1421 1378 1334 1341 1437 1416 1439 1380 1327 1375 1353 1443 1450 1369 1414 1474 1372 1382 1494 1469 1461 1446 1378 1418 1464 1447 1472 1399 1393 1470 1428 1507 1377 1324 1463 1452 1486 1382 1479 1396 1430 1498 1418 1512 1415 1451 1468 1542 1355 1333 1466 1462 1454 1444 1452 1395 1410 1398 1477 1411 1360 1462 1415 1403 1361 1385 1389 1394 1444 1313 1380 1357 1437 1430 1428 1424 1417 1367 1361 1372 1418 1407 1409 1377 1427 1335 1355 1380 1423 1368 1451 1337 1337 1302 1371 1419 1389 1449 1407 1376 1353 1385 1350 1389 1340 1366 1424 1474 1415 1413 1368 1471 1414 1401 1336 1325 1392 1302 1359 1453 1377 1393 1436 1455 1385 1434 1393 1351 1391 1393 1439 1369 1360 1371 1371 1391 1325 1380 1436 1387 1431 1378 1365 1387 1281 1346 1348 1403 1344 1384 1417 1366 1395 1375 1423 1282 1447 1411 1386 1433 1331 1316 1435 1325 1396 1423 1405 1388 1351 1440 1404 1417 1393 1385 1369 1348 1430 1397 1389 1479 1411 1404 1413 1310 1395 1354 1394 1380 1395 1379 1431 1420 1368 1415 1374 1448 1455 1356 1406 1384 1300 1397 1369 1403 1489 1417 1397 1382 1371 1440 1342 1441 1395 1403 1424 1343 1409 1358 1371 1370 1355 1431 1288 1442 1400 1401 1443 1423 1317 1395 1370 1333 1381 1362 1300 1331 1342 1340 1312 1338 1327 1352 1345 1339 1378 1383 1358 1290 1403 1313 1368 1354 1396 1266 1376 1383 1380 1408 1411 1375 1437 1336 1328 1292 1390 1350 1331 1340 1354 1320 1391 1355 1431 1382 1345 1394 1389 1362 1402 1339 1375 1302 1343 1422 1354 1365 1379 1476 1388 1357 1438 1418 1395 1408 1355 1386 1346 1380 1409 1391 1399 1394 1444 1351 1438 1369 1459 1401 1425 1447 1424 1468 1375 1508 1438 1429 1488 1423 1432 1464 1522 1474 1446 1514 1487 1480 1512 1500 1464 1472 1490 1477 1506 1429 1613 1519 1483 1596 1541 1478 1520 1600 1469 1489 1462 1502 1506 1468 1495 1387 1463 1467 1506 1464 1544 1507 1417 1491 1468 1462 1410 1454 1462 1436 1443 1428 1353 1336 1396 1434 1403 1438 1415 1343 1438 1377 1383 1440 1401 1455 1407 1440 1452 1451 1380 1400 1434 1457 1432 1430 1483 1377 1430 1447 1408 1392 1423 1435 1432 1446 1445 1420 1465 1315 1449 1529 1443 1439 1382 1388 1413 1399 1505 1457 1417 1399 1431 1355 1403 1353 1390 1422 1413 1430 1479 1343 1478 1453 1494 1405 1378 1364 1387 1386 1395 1409 1400 1352 1401 1364 1374 1407 1408 1349 1312 1371 1282 1359 1330 1404 1382 1382 1380 1389 1432 1483 1398 1399 1385 1371 1393 1372 1336 1403 1392 1407 1372 1335 1393 1411 1376 1456 1405 1340 1394 1401 1357 1371 1428 1330 1313 1362 1363 1333 1404 1407 1368 1393 1388 1406 1374 1382 1407 1394 1385 1419 1323 1370 1343 1314 1294 1341 1353 1402 1373 1319 1336 1352 1375 1278 1327 1336 1349 1324 1386 1365 1447 1369 1370 1453 1392 1345 1364 1377 1348 1349 1323 1364 1347 1340 1337 1387 1331 1372 1365 1378 1366 1304 1376 1370 1356 1332 1362 1270 1295 1371 1396 1429 1282 1360 1339 1364 1313 1374 1421 1339 1347 1388 1367 1417 1287 1387 1404 1317 1325 1326 1348 1376 1337 1309 1298 1374 1401 1310 1374 1389 1432 1387 1395 1302 1335 1326 1376 1363 1259 1346 1327 1313 1339 1310 1382 1366 1311 1375 1371 1412 1371 1389 1342 1363 1381 1386 1400 1390 1347 1305 1376 1323 1316 1364 1393 1237 1368 1337 1352 1364 1317 1358 1393 1309 1415 1352 1355 1341 1364 1324 1293 1349 1357 1315 1404 1321 1285 1312 1346 1359 1369 1307 1416 1308 1387 1363 1319 1324 1355 1345 1361 1353 1358 1371 1297 1367 1355 1330 1369 1313 1384 1355 1339 1352 1343 1416 1280 1371 1382 1380 1354 1365 1398 1313 1352 1327 1331 1319 1313 1326 1391 1309 1331 1274 1302 1377 1301 1388 1327 1373 1378 1304 1388 1361 1345 1366 1388 1280 1303 1364 1329 1393 1328 1377 1345 1327 1321 1336 1347 1328 1386 1340 1341 1334 1316 1377 1382 1382 1301 1313 1329 1296 1344 1295 1335 1376 1290 1368 1426 1414 1333 1349 1357 1343 1404 1340 1307 1368 1355 1344 1290 1397 1395 1374 1384 1306 1342 1277 1379 1294 1375 1346 1226 1357 1378 1371 1337 1386 1272 1291 1328 1378 1413 1357 1350 1421 1397 1358 1392 1304 1308 1289 1420 1240 1362 1296 1380 1303 1329 1326 1321 1349 1337 1338 1327 1304 1354 1408 1299 1365 1341 1347 1411 1338 1375 1337 1380 1398 1368 1401 1317 1329 1298 1369 1327 1315 1299 1344 1340 1350 1381 1380 1383 1339 1375 1322 1348 1269 1338 1374 1314 1343 1345 1337 1304 1356 1332 1311 1341 1318 1423 1302 1349 1335 1387 1346 1367 1402 1380 1381 1337 1260 1356 1321 1457 1349 1299 1285 1374 1331 1299 1332 1318 1365 1283 1338 1359 1340 1371 1321 1361 1293 1364 1323 1330 1373 1390 1366 1368 1336 1320 1325 1379 1343 1279 1290 1386 1348 1374 1399 1308 1350 1343 1308 1329 1368 1396 1334 1339 1329 1408 1405 1393 1320 1388 1382 1307 1369 1350 1336 1400 1413 1369 1340 1413 1333 1342 1363 1377 1297 1271 1370 1339 1395 1338 1373 1364 1323 1358 1394 1414 1427 1301 1328 1410 1384 1333 1337 1337 1335 1381 1379 1311 1370 1370 1394 1292 1311 1430 1338 1407 1363 1366 1311 1309 1332 1283 1264 1382 1342 1327 1334 1358 1296 1345 1341 1309 1374 1368 1361 1377 1337 1317 1378 1312 1363 1345 1355 1387 1320 1410 1356 1303 1333 1413 1428 1363 1311 1329 1370 1388 1382 1385 1321 1381 1338 1383 1412 1345 1363 1370 1436 1433 1363 1395 1377 1456 1359 1376 1391 1372 1342 1424 1400 1391 1412 1405 1371 1431 1311 1340 1404 1408 1370 1329 1436 1372 1392 1380 1345 1411 1385 1378 1322 1398 1425 1411 1343 1392 1345 1370 1345 1396 1369 1420 1425 1285 1423 1320 1394 1387 1370 1369 1340 1389 1356 1408 1349 1493 1390 1364 1429 1368 1421 1400 1331 1337 1424 1444 1314 1415 1391 1396 1454 1397 1482 1420 1439 1355 1467 1378 1435 1416 1374 1406 1426 1372 1376 1358 1309 1445 1424 1425 1401 1372 1414 1302 1380 1363 1362 1347 1397 1392 1379 1337 1387 1350 1368 1309 1397 1408 1350 1324 1392 1414 1272 1406 1380 1396 1313 1339 1327 1380 1379 1428 1376 1340 1341 1407 1346 1403 1382 1421 1423 1383 1434 1359 1319 1343 1347 1412 1331 1366 1387 1346 1359 1410 1362 1306 1445 1342 1422 1355 1410 1378 1392 1401 1426 1359 1321 1302 1350 1382 1334 1378 1358 1378 1341 1325 1367 1356 1372 1361 1375 1375 1397 1358 1322 1291 1342 1322 1334 1327 1330 1343 1353 1343 1380 1380 1378 1344 1399 1333 1324 1325 1370 1389 1405 1309 1288 1329 1331 1436 1364 1335 1356 1357 1351 1384 1343 1399 1346 1295 1351 1369 1418 1381 1331 1412 1399 1436 1360 1325 1348 1381 1359 1321 1318 1359 1335 1366 1435 1350 1383 1362 1384 1381 1319 1368 1383 1422 1379 1420 1330 1407 1369 1379 1329 1458 1392 1426 1443 1383 1361 1442 1408 1426 1422 1434 1454 1390 1367 1392 1419 1337 1434 1439 1411 1465 1407 1403 1495 1461 1400 1485 1525 1433 1474 1430 1483 1503 1499 1456 1484 1520 1488 1558 1556 1541 1532 1571 1601 1543 1592 1611 1610 1624 1581 1568 1589 1580 1642 1568 1637 1662 1637 1600 1584 1663 1617 1578 1574 1572 1589 1470 1627 1542 1578 1569 1478 1614 1559 1468 1469 1529 1446 1505 1427 1447 1456 1449 1496 1460 1453 1543 1499 1459 1513 1513 1424 1402 1443 1416 1454 1445 1382 1455 1407 1410 1417 1407 1426 1382 1363 1380 1316 1352 1380 1474 1400 1436 1334 1416 1400 1432 1407 1376 1366 1425 1411 1461 1433 1437 1441 1452 1471 1460 1434 1465 1551 1444 1445 1487 1473 1435 1473 1446 1493 1475 1498 1487 1472 1462 1448 1459 1384 1491 1418 1450 1463 1430 1461 1444 1432 1430 1411 1426 1400 1399 1376 1383 1411 1457 1354 1433 1427 1367 1421 1486 1317 1473 1410 1359 1378 1404 1405 1376 1437 1367 1374 1343 1441 1452 1402 1299 1331 1347 1334 1310 1303 1368 1407 1419 1414 1301 1351 1331 1433 1316 1381 1361 1381 1309 1291 1349 1385 1381 1388 1396 1407 1428 1387 1392 1464 1369 1476 1372 1327 1377 1392 1361 1374 1297 1405 1410 1381 1400 1373 1349 1358 1456 1388 1353 1423 1426 1270 1376 1381 1428 1400 1327 1351 1342 1294 1384 1434 1369 1389 1459 1385 1350 1386 1388 1392 1339 1305 1376 1364 1402 1415 1397 1363 1356 1386 1420 1434 1294 1356 1356 1407 1394 1355 1410 1369 1314 1308 1324 1460 1372 1345 1388 1319 1389 1330 1392 1344 1330 1366 1315 1348 1350 1387 1341 1383 1362 1395 1346 1299 1342 1363 1391 1315 1304 1340 1368 1337 1323 1278 1255 1360 1298 1294 1365 1293 1393 1318 1310 1335 1341 1377 1353 1398 1324 1401 1343 1388 1325 1310 1315 1366 1297 1310 1308 1367 1302 1280 1339 1308 1366 1352 1341 1329 1271 1312 1351 1315 1341 1351 1365 1368 1354 1383 1373 1337 1329 1350 1306 1337 1316 1323 1313 1319 1327 1335 1368 1295 1301 1357 1329 1358 1235 1375 1293 1264 1260 1323 1302 1349 1386 1342 1296 1349 1308 1323 1340 1375 1317 1317 1328 1316 1293 1401 1372 1345 1383 1334 1371 1331 1303 1365 1312 1336 1342 1319 1349 1278 1299 1353 1328 1348 1354 1306 1311 1300 1316 1308 1335 1326 1339 1340 1304 1333 1301 1349 1326 1326 1262 1250 1263 1339 1336 1335 1249 1324 1260 1336 1300 1358 1321 1300 1342 1341 1352 1339 1380 1394 1306 1318 1350 1257 1295 1318 1313 1326 1341 1326 1344 1257 1293 1318 1389 1294 1265 1302 1299 1347 1275 1371 1262 1335 1340 1343 1277 1258 1316 1329 1314 1376 1298 1363 1316 1316 1290 1331 1278 1377 1297 1398 1364 1328 1236 1333 1340 1285 1286 1319 1337 1364 1265 1283 1355 1353 1303 1333 1300 1314 1331 1330 1265 1319 1309 1269 1331 1203 1300 1303 1389 1290 1269 1289 1299 1305 1339 1307 1251 1233 1360 1358 1249 1314 1303 1304 1321 1341 1354 1228 1290 1328 1310 1304 1386 1364 1360 1375 1335 1339 1379 1330 1326 1304 1285 1286 1257 1324 1301 1280 1288 1263 1298 1262 1288 1351 1380 1308 1345 1296 1293 1337 1256 1258 1335 1323 1291 1322 1306 1384 1344 1316 1333 1267 1350 1259 1374 1298 1358 1253 1261 1306 1365 1340 1306 1302 1262 1329 1258 1300 1266 1289 1285 1265 1376 1336 1351 1274 1269 1294 1332 1246 1292 1323 1352 1324 1348 1380 1314 1266 1299 1353 1264 1319 1275 1320 1267 1324 1330 1294 1331 1322 1267 1299 1359 1331 1362 1297 1291 1331 1321 1291 1315 1358 1270 1288 1313 1309 1257 1276 1311 1310 1402 1282 1290 1267 1352 1338 1300 1318 1333 1326 1289 1308 1251 1343 1326 1342 1276 1379 1303 1351 1381 1366 1356 1319 1344 1368 1292 1369 1264 1379 1301 1286 1370 1342 1338 1297 1368 1307 1322 1358 1270 1335 1354 1313 1322 1354 1366 1265 1333 1337 1361 1339 1275 1312 1362 1286 1240 1300 1316 1338 1305 1350 1288 1263 1313 1336 1313 1334 1380 1326 1307 1303 1408 1321 1366 1273 1318 1352 1330 1344 1341 1313 1353 1344 1356 1289 1343 1301 1322 1310 1292 1316 1439 1310 1356 1358 1355 1285 1326 1318 1344 1339 1265 1350 1302 1360 1320 1276 1272 1292 1314 1252 1266 1307 1336 1314 1270 1299 1298 1340 1319 1289 1321 1238 1323 1253 1303 1339 1350 1341 1319 1311 1303 1250 1255 1337 1307 1366 1360 1333 1283 1304 1338 1245 1316 1309 1295 1361 1267 1248 1350 1325 1317 1308 1328 1246 1302 1309 1350 1241 1268 1317 1313 1301 1296 1222 1305 1231 1243 1301 1261 1334 1295 1325 1302 1300 1297 1243 1288 1282 1294 1300 1302 1275 1292 1308 1275 1274 1310 1322 1298 1330 1332 1338 1289 1269 1372 1281 1320 1278 1297 1289 1253 1275 1290 1246 1314 1273 1320 1307 1252 1278 1310 1335 1270 1340 1351 1324 1325 1259 1298 1337 1301 1324 1267 1274 1266 1366 1336 1291 1326 1311 1335 1301 1304 1290 1269 1342 1335 1300 1369 1288 1329 1276 1292 1281 1272 1243 1281 1350 1303 1321 1273 1333 1303 1358 1371 1341 1296 1330 1307 1327 1280 1293 1312 1318 1286 1349 1288 1292 1335 1299 1354 1296 1304 1266 1284 1254 1279 1265 1237 1335 1287 1442 1305 1339 1315 1315 1321 1376 1332 1327 1320 1352 1331 1354 1299 1388 1361 1273 1394 1376 1384 1372 1348 1393 1349 1326 1380 1384 1367 1414 1410 1405 1429 1426 1453 1469 1481 1420 1400 1460 1370 1398 1423 1476 1464 1445 1465 1406 1456 1451 1442 1401 1551 1473 1422 1441 1522 1511 1547 1418 1363 1475 1459 1518 1429 1536 1442 1483 1446 1497 1481 1418 1413 1362 1423 1377 1404 1413 1391 1368 1450 1423 1327 1409 1360 1401 1398 1449 1393 1441 1371 1349 1399 1335 1450 1399 1362 1319 1333 1325 1350 1374 1358 1403 1389 1352 1348 1310 1324 1382 1346 1340 1387 1355 1342 1371 1279 1288 1336 1316 1401 1341 1285 1295 1342 1343 1313 1374 1350 1349 1376 1344 1317 1323 1337 1363 1298 1311 1347 1307 1282 1364 1349 1409 1319 1324 1335 1305 1366 1331 1282 1343 1383 1376 1280 1342 1380 1345 1318 1326 1359 1386 1291 1353 1412 1310 1344 1346 1308 1307 1342 1352 1367 1363 1344 1302 1348 1326 1255 1293 1300 1368 1325 1287 1301 1359 1345 1306 1354 1381 1332 1375 1267 1327 1285 1337 1285 1300 1261 1345 1342 1280 1293 1289 1365 1305 1297 1362 1328 1285 1284 1309 1257 1276 1263 1290 1305 1303 1317 1343 1281 1368 1272 1301 1286 1271 1311 1281 1295 1276 1288 1347 1296 1262 1317 1351 1295 1263 1311 1299 1292 1254 1291 1350 1303 1309 1281 1296 1252 1324 1275 1363 1277 1299 1240 1261 1343 1340 1332 1196 1329 1281 1308 1286 1291 1320 1251 1337 1320 1283 1278 1333 1299 1333 1301 1308 1245 1295 1343 1247 1288 1269 1253 1255 1314 1236 1261 1317 1290 1286 1352 1285 1340 1314 1253 1332 1292 1320 1295 1327 1276 1293 1300 1321 1301 1234 1287 1241 1326 1340 1289 1294 1274 1297 1232 1266 1206 1242 1332 1314 1295 1225 1317 1302 1240 1296 1229 1332 1297 1285 1289 1242 1233 1237 1302 1277 1230 1304 1316 1350 1269 1258 1215 1298 1295 1235 1238 1289 1229 1241 1330 1286 1261 1298 1322 1293 1279 1261 1292 1337 1288 1293 1241 1247 1284 1227 1285 1249 1301 1278 1237 1291 1239 1312 1312 1250 1317 1256 1268 1292 1260 1289 1306 1281 1293 1259 1221 1255 1286 1325 1256 1264 1257 1234 1247 1302 1210 1279 1266 1256 1294 1299 1339 1299 1266 1285 1246 1303 1293 1307 1260 1293 1311 1324 1292 1183 1316 1268 1329 1273 1272 1289 1249 1288 1290 1301 1286 1273 1254 1258 1268 1255 1302 1341 1255 1295 1247 1270 1202 1232 1344 1348 1234 1268 1287 1294 1265 1315 1290 1320 1208 1267 1314 1332 1280 1288 1264 1299 1300 1265 1294 1228 1320 1290 1250 1280 1227 1217 1332 1257 1238 1199 1261 1281 1262 1222 1300 1299 1352 1276 1281 1236 1273 1281 1269 1278 1340 1260 1288 1267 1287 1218 1283 1283 1268 1222 1288 1258 1267 1238 1268 1260 1275 1239 1241 1227 1315 1311 1281 1309 1274 1242 1287 1301 1256 1278 1264 1243 1285 1291 1244 1289 1295 1247 1312 1266 1240 1240 1262 1315 1258 1284 1232 1251 1264 1261 1266 1268 1289 1273 1301 1289 1222 1256 1278 1251 1257 1262 1260 1251 1258 1318 1334 1279 1302 1231 1252 1285 1288 1198 1258 1251 1257 1265 1268 1291 1362 1275 1305 1259 1280 1281 1275 1268 1242 1255 1257 1259 1359 1238 1256 1285 1236 1232 1276 1277 1276 1240 1298 1245 1305 1275 1242 1164 1303 1240 1222 1248 1239 1235 1260 1266 1300 1229 1228 1279 1261 1246 1294 1245 1292 1340 1275 1289 1262 1280 1299 1300 1276 1231 1242 1302 1312 1210 1266 1301 1311 1232 1258 1313 1284 1234 1331 1301 1240 1301 1287 1331 1230 1238 1271 1237 1307 1267 1309 1243 1299 1324 1208 1320 1244 1283 1278 1243 1243 1242 1266 1271 1255 1298 1299 1325 1262 1330 1289 1407 1284 1334 1302 1293 1274 1252 1286 1284 1299</counts>
			</dataPoints>
		</scan>
	</xrdMeasurement>
</xrdMeasurements>
