<?xml version="1.0"?>
<xrdMeasurements xmlns="http://www.xrdml.com/XRDMeasurement/2.3" xmlns:xsi="http://www.w3.org/2001/XMLSchema-instance" xsi:schemaLocation="http://www.xrdml.com/XRDMeasurement/2.3 http://www.xrdml.com/XRDMeasurement/2.3/XRDMeasurement.xsd" status="Completed" recordIdentifier="{ED4E9E1D-CAB2-4466-BB2C-9016D582A04B}">
	<comment>
		<entry/>
	</comment>
	<sample type="To be analyzed">
		<id>GPSS_Li2Zn0p5Mn0p5Cl4_121225_693c5ab8f4d05ae3d6974f20</id>
		<name></name>
		<preparedBy></preparedBy>
	</sample>
	<xrdMeasurement measurementType="Scan" status="Completed" sampleMode="Reflection">
		<usedWavelength intended="K-Alpha 1">
			<kAlpha1 unit="Angstrom">1.5405980</kAlpha1>
			<kAlpha2 unit="Angstrom">1.5444260</kAlpha2>
			<kBeta unit="Angstrom">1.3922500</kBeta>
			<ratioKAlpha2KAlpha1>0.5000</ratioKAlpha2KAlpha1>
		</usedWavelength>
		<incidentBeamPath>
			<radius unit="mm">145.00</radius>
			<xRayTube id="1010048" name="Empyrean Cu LFF HR (9430 033 7310x)">
				<tension unit="kV">40.0</tension>
				<current unit="mA">15.0</current>
				<anodeMaterial>Cu</anodeMaterial>
				<focus type="Line">
					<length unit="mm">12.0</length>
					<width unit="mm">0.4</width>
					<takeOffAngle unit="deg">6.0</takeOffAngle>
				</focus>
			</xRayTube>
			<sollerSlit id="21010002" name="Soller slits 0.04 rad.">
				<opening unit="rad">0.0400</opening>
			</sollerSlit>
			<mask id="22031000" name="Fixed mask 13 mm">
				<width unit="mm">9.00</width>
			</mask>
			<divergenceSlit id="22120001" name="Divergence slit 1°" xsi:type="fixedDivergenceSlitType">
				<distanceToSample unit="mm">50.00</distanceToSample>
				<height unit="mm">1.52</height>
			</divergenceSlit>
		</incidentBeamPath>
		<sampleMovement xsi:type="spinningSampleMovementType">
			<spinnerRevolutionTime unit="seconds">1.0</spinnerRevolutionTime>
		</sampleMovement>
		<diffractedBeamPath>
			<radius unit="mm">145.00</radius>
			<antiScatterSlit id="22090040" name="AS slit 9 mm (PIXcel)" xsi:type="fixedAntiScatterSlitType">
				<height unit="mm">9.00</height>
			</antiScatterSlit>
			<sollerSlit id="21020003" name="Large Soller slits 0.04 rad.">
				<opening unit="rad">0.0400</opening>
			</sollerSlit>
			<filter id="20030001" name="Large beta-filter Nickel">
				<material>Ni</material>
				<thickness unit="mm">0.020</thickness>
			</filter>
			<detector id="7010019" name="PIXcel1D-Medipix3 detector" xsi:type="rtmsDetectorType">
				<phd unit="keV">
					<lowerLevel>4.02</lowerLevel>
					<upperLevel>11.27</upperLevel>
				</phd>
				<mode>Scanning</mode>
				<activeLength unit="deg">5.542</activeLength>
			</detector>
		</diffractedBeamPath>
		<scan appendNumber="0" mode="Continuous" scanAxis="Gonio" status="Completed">
			<header>
				<startTimeStamp>2025-12-16T10:56:14-08:00</startTimeStamp>
				<endTimeStamp>2025-12-16T11:04:21-08:00</endTimeStamp>
				<author>
					<name>AutomatedUser</name>
				</author>
				<source>
					<applicationSoftware version="1.7b (136)">PANalytical Aeris Instrument Suite</applicationSoftware>
					<instrumentControlSoftware version="3.2.00000000 20240306">AERIS</instrumentControlSoftware>
					<instrumentID>950485</instrumentID>
				</source>
			</header>
			<dataPoints>
				<positions axis="2Theta" unit="deg">
					<startPosition>10.00943322</startPosition>
					<endPosition>99.99442286</endPosition>
				</positions>
				<positions axis="Omega" unit="deg">
					<startPosition>5.00471661</startPosition>
					<endPosition>49.99721143</endPosition>
				</positions>
				<commonCountingTime unit="seconds">12.495</commonCountingTime>
				<counts unit="counts">2541 2593 2552 2619 2547 2622 2580 2666 2637 2600 2667 2545 2688 2675 2615 2537 2546 2516 2530 2598 2616 2689 2641 2535 2555 2606 2655 2618 2544 2644 2639 2603 2724 2543 2716 2567 2634 2541 2630 2574 2668 2614 2551 2565 2609 2670 2608 2586 2553 2604 2573 2609 2675 2587 2608 2602 2651 2632 2639 2641 2631 2622 2578 2718 2571 2661 2672 2681 2595 2700 2677 2659 2646 2672 2681 2670 2641 2718 2648 2726 2696 2776 2717 2723 2641 2789 2673 2746 2783 2717 2746 2768 2752 2641 2701 2721 2828 2791 2655 2780 2841 2833 2721 2661 2738 2713 2659 2664 2763 2666 2779 2725 2667 2725 2769 2802 2770 2639 2809 2705 2751 2766 2786 2744 2817 2775 2755 2838 2778 2709 2741 2700 2730 2720 2765 2796 2788 2732 2749 2703 2778 2789 2766 2759 2707 2712 2821 2786 2747 2755 2716 2707 2695 2774 2650 2763 2701 2759 2683 2777 2727 2815 2812 2848 2807 2779 2765 2764 2756 2781 2762 2767 2764 2719 2783 2800 2749 2816 2737 2758 2746 2724 2688 2743 2799 2686 2699 2785 2707 2807 2717 2817 2717 2739 2687 2767 2750 2798 2777 2777 2822 2780 2823 2805 2850 2774 2703 2849 2850 2708 2851 2773 2737 2752 2787 2576 2842 2715 2725 2710 2667 2714 2793 2702 2728 2823 2664 2699 2796 2663 2792 2806 2813 2668 2744 2743 2792 2767 2773 2745 2702 2759 2699 2662 2720 2701 2694 2811 2730 2698 2744 2666 2764 2669 2787 2588 2637 2616 2728 2736 2692 2693 2704 2686 2652 2641 2761 2617 2721 2678 2779 2763 2718 2657 2632 2743 2685 2768 2698 2744 2659 2772 2639 2667 2673 2676 2689 2719 2658 2728 2692 2682 2706 2654 2642 2775 2713 2644 2706 2703 2650 2780 2675 2626 2760 2748 2766 2664 2685 2725 2641 2761 2759 2680 2648 2669 2739 2650 2756 2770 2653 2751 2687 2700 2759 2809 2765 2819 2713 2710 2858 2771 2853 2816 2785 2787 2834 2862 2781 2771 2779 2871 2847 2805 2838 2776 2811 2881 2860 2892 2901 2814 2889 2875 2866 2852 2900 2858 2903 2922 2917 2922 2998 3041 2971 2852 2890 2970 2869 2949 3000 2923 3000 3005 2925 2994 2968 3052 3047 3106 3088 3002 2939 3056 3065 3100 3022 3098 3039 3134 3075 3107 3027 2996 3052 3006 3076 3097 3078 3087 3203 3141 3132 3115 3222 3120 3224 3271 3387 3171 3353 3325 3326 3365 3495 3420 3354 3473 3485 3437 3408 3524 3516 3459 3497 3478 3390 3466 3377 3442 3393 3469 3416 3501 3461 3459 3464 3387 3315 3458 3327 3331 3429 3333 3323 3471 3437 3432 3295 3389 3429 3461 3374 3442 3442 3386 3347 3323 3358 3355 3308 3284 3335 3213 3294 3257 3200 3228 3326 3176 3270 3195 3211 3168 3176 3202 3181 3198 3126 3148 3146 3133 3075 3041 3041 3035 2969 3138 2988 3104 3042 2983 3086 3089 2920 3018 2988 2989 2987 2931 2949 3067 2964 3017 2921 2957 2908 2905 2944 2988 3003 2858 2917 2891 2966 2971 2773 2847 2922 2868 2820 2926 2837 2817 2981 2783 2879 2808 2798 2886 2841 2931 2921 2892 2888 2794 2891 2844 2880 2836 2836 2826 2790 2980 2840 2895 2876 2863 2835 2975 2820 2859 2888 2827 2874 2885 2829 2884 3005 2874 2869 2849 2932 2850 2890 2790 2895 3005 2910 2909 2877 2821 2880 2965 2751 2786 2807 2844 2866 2906 2827 2885 2858 2824 2795 2721 2746 2722 2712 2762 2758 2755 2807 2829 2825 2740 2802 2752 2729 2815 2735 2744 2754 2678 2723 2765 2773 2682 2805 2684 2590 2661 2741 2566 2622 2587 2625 2742 2643 2663 2733 2685 2625 2604 2687 2602 2611 2528 2556 2669 2643 2550 2563 2623 2668 2616 2619 2585 2533 2646 2608 2510 2662 2539 2553 2523 2511 2519 2559 2606 2636 2728 2690 2530 2706 2708 2632 2598 2547 2723 2674 2661 2638 2675 2575 2532 2565 2698 2635 2651 2647 2638 2598 2504 2604 2546 2533 2564 2502 2574 2460 2577 2547 2634 2507 2474 2582 2554 2463 2553 2479 2554 2511 2519 2573 2570 2556 2593 2580 2561 2521 2550 2506 2442 2563 2526 2497 2521 2507 2529 2489 2501 2529 2566 2575 2459 2472 2590 2501 2497 2397 2519 2511 2532 2458 2498 2474 2431 2451 2442 2528 2535 2529 2465 2421 2453 2619 2384 2511 2508 2494 2478 2459 2481 2512 2541 2577 2649 2520 2633 2632 2647 2707 2572 2624 2761 2739 2664 2715 2766 2776 2648 2606 2664 2665 2737 2566 2558 2716 2628 2563 2628 2618 2581 2503 2535 2531 2603 2512 2581 2558 2643 2491 2587 2533 2634 2712 2635 2667 2659 2701 2651 2670 2627 2629 2701 2638 2620 2562 2729 2699 2631 2673 2675 2619 2647 2578 2527 2433 2542 2558 2521 2492 2522 2481 2499 2508 2546 2424 2427 2472 2437 2408 2490 2431 2417 2335 2449 2439 2447 2444 2533 2479 2364 2463 2396 2504 2472 2466 2347 2441 2347 2440 2373 2452 2382 2331 2455 2482 2354 2404 2360 2353 2335 2384 2429 2344 2301 2318 2373 2366 2361 2342 2270 2305 2308 2384 2393 2333 2328 2295 2299 2330 2278 2253 2326 2354 2303 2408 2236 2301 2286 2247 2370 2345 2305 2234 2346 2367 2257 2364 2313 2427 2251 2287 2368 2326 2233 2276 2217 2141 2316 2161 2282 2205 2291 2226 2281 2350 2194 2296 2270 2397 2298 2358 2281 2327 2416 2337 2344 2444 2360 2356 2307 2381 2281 2320 2267 2361 2269 2390 2278 2403 2391 2300 2312 2232 2198 2330 2360 2251 2189 2374 2226 2290 2219 2248 2345 2276 2203 2213 2258 2269 2252 2178 2308 2251 2219 2165 2300 2175 2269 2187 2301 2278 2222 2150 2294 2202 2129 2212 2259 2274 2231 2176 2160 2217 2135 2184 2155 2190 2162 2219 2146 2190 2225 2217 2208 2207 2247 2197 2134 2176 2104 2185 2158 2265 2207 2193 2210 2124 2093 2150 2073 2234 2073 2167 2211 2161 2137 2181 2192 2139 2192 2169 2204 2132 2209 2133 2243 2205 2089 2166 2186 2131 2210 2133 2210 2218 2161 2180 2196 2168 2105 2143 2163 2118 2082 2148 2257 2235 2116 2181 2154 2071 2249 2160 2213 2189 2095 2178 2106 2175 2169 2217 2175 2185 2084 2244 2142 2228 2194 2243 2185 2158 2137 2189 2271 2230 2155 2267 2176 2235 2098 2209 2156 2288 2234 2130 2165 2172 2169 2234 2171 2219 2202 2285 2175 2175 2277 2225 2196 2174 2222 2117 2214 2300 2245 2294 2255 2293 2244 2392 2286 2267 2244 2287 2291 2281 2255 2261 2329 2246 2232 2250 2321 2269 2268 2175 2171 2116 2147 2230 2175 2167 2192 2222 2087 2217 2211 2167 2282 2154 2194 2187 2172 2217 2164 2146 2096 2139 2165 2206 2236 2121 2209 2205 2295 2185 2212 2063 2206 2119 2106 2216 2124 2086 2028 2180 2078 2062 2074 2102 2140 2060 2144 2150 2171 2126 2101 2134 2014 2090 2108 2093 2105 2077 2069 2080 2118 2027 2074 2071 2154 2062 2089 2021 2023 2058 2112 1950 2027 2025 1983 2055 2113 1980 2078 1930 2016 1966 1907 2038 1951 1968 1999 1987 2002 1966 1946 1998 1871 2023 1882 2037 1947 1936 1908 1875 1982 1990 2044 2005 1951 1986 1942 1928 2032 1963 1969 1981 1986 1910 1979 1907 1956 1938 1939 1965 1934 1905 1861 1767 1862 1851 1872 1792 1857 1831 1901 1930 1820 1837 1919 1773 1771 1878 1826 1782 1845 1837 1955 1902 1910 1809 1795 1858 1787 1757 1873 1859 1882 1883 1925 1814 1910 1897 1861 1837 1958 1952 1861 1921 1899 1819 1865 1787 1924 1847 1821 1787 1801 1826 1881 1832 1874 1896 1813 1849 1902 1928 1926 2007 1985 2065 1970 1996 1924 1982 2050 2043 1957 2097 2054 1912 2012 2005 1980 1939 1957 1953 1976 1988 1977 1917 1823 1843 1840 1783 1834 1843 1818 1862 1862 1798 1830 1832 1743 1775 1767 1753 1779 1770 1742 1842 1685 1781 1726 1844 1795 1799 1802 1802 1729 1730 1664 1675 1688 1718 1677 1723 1595 1688 1651 1652 1582 1600 1581 1642 1627 1618 1579 1618 1644 1671 1560 1611 1591 1613 1603 1610 1571 1604 1596 1620 1572 1654 1631 1554 1607 1610 1665 1647 1619 1622 1586 1593 1592 1633 1522 1551 1538 1562 1629 1627 1599 1661 1593 1640 1728 1610 1583 1643 1609 1623 1621 1690 1622 1656 1694 1658 1654 1629 1539 1611 1609 1540 1651 1654 1625 1604 1573 1584 1650 1647 1640 1599 1620 1587 1652 1589 1636 1672 1629 1747 1606 1649 1675 1597 1633 1771 1647 1592 1608 1606 1613 1623 1633 1634 1616 1620 1617 1589 1583 1578 1515 1618 1614 1642 1668 1590 1683 1621 1674 1640 1578 1641 1590 1579 1553 1620 1662 1563 1687 1604 1605 1665 1577 1582 1611 1648 1569 1548 1582 1578 1636 1634 1580 1570 1571 1590 1625 1569 1680 1679 1613 1647 1587 1627 1604 1640 1581 1583 1607 1664 1592 1549 1649 1630 1613 1599 1702 1616 1576 1655 1591 1583 1573 1555 1653 1663 1606 1590 1554 1547 1660 1558 1711 1563 1596 1604 1616 1571 1588 1609 1631 1662 1564 1572 1546 1513 1609 1624 1588 1592 1582 1463 1560 1564 1576 1567 1587 1582 1572 1580 1637 1528 1562 1598 1538 1562 1634 1623 1551 1581 1519 1418 1526 1561 1521 1522 1522 1501 1563 1489 1458 1479 1491 1513 1451 1457 1475 1490 1564 1506 1503 1545 1477 1486 1538 1416 1511 1440 1524 1524 1459 1440 1462 1500 1462 1542 1501 1528 1447 1528 1478 1554 1567 1564 1577 1583 1633 1667 1750 1700 1701 1745 1732 1759 1891 1781 1802 1750 1793 1796 1780 1789 1789 1716 1826 1855 1800 1736 1620 1712 1719 1627 1747 1664 1650 1677 1706 1716 1843 1772 1701 1768 1765 1906 1889 1890 2028 2085 2041 2112 2180 2177 2146 2207 2095 2205 2193 2149 2144 2119 2200 1994 2161 2001 2055 1974 1926 1917 1931 1865 1941 1823 1816 1819 1858 1806 1792 1805 1775 1924 1809 1904 1856 1943 1954 1999 1887 2004 2090 2009 2070 1995 1995 1958 1914 1948 1964 1907 1922 1773 1863 1789 1819 1854 1784 1711 1698 1604 1618 1620 1576 1612 1585 1630 1678 1608 1700 1534 1619 1612 1548 1564 1600 1559 1568 1507 1599 1581 1577 1579 1592 1540 1572 1550 1624 1538 1544 1553 1497 1566 1532 1460 1476 1569 1497 1539 1545 1529 1514 1564 1552 1574 1555 1638 1619 1698 1734 1718 1737 1697 1787 1916 1915 2032 2033 2118 2210 2303 2383 2382 2526 2437 2522 2526 2586 2598 2514 2518 2442 2462 2349 2461 2292 2327 2188 2294 2199 2174 2136 2182 2039 2104 1973 2007 2012 2177 2231 2154 2368 2310 2527 2497 2510 2528 2537 2581 2647 2616 2546 2685 2807 2627 2686 2726 2554 2495 2499 2508 2464 2398 2295 2303 2241 2153 2184 1929 1981 2030 1916 1895 1911 1854 1790 1816 1752 1703 1697 1702 1646 1635 1617 1638 1634 1622 1674 1580 1570 1616 1555 1517 1499 1419 1483 1435 1441 1392 1435 1396 1412 1441 1400 1352 1371 1350 1317 1289 1318 1349 1297 1319 1317 1228 1230 1183 1236 1265 1238 1161 1099 1194 1162 1181 1161 1180 1216 1171 1182 1179 1157 1145 1204 1205 1161 1168 1207 1187 1169 1206 1097 1189 1125 1179 1112 1193 1162 1188 1117 1152 1088 1098 1170 1068 1147 1095 1172 1132 1136 1115 1151 1124 1170 1159 1187 1152 1149 1205 1168 1182 1261 1244 1253 1306 1237 1254 1266 1240 1216 1322 1340 1305 1319 1346 1371 1352 1437 1456 1477 1460 1507 1617 1617 1647 1534 1586 1614 1702 1641 1659 1662 1689 1678 1607 1561 1618 1669 1523 1643 1520 1511 1578 1491 1511 1512 1500 1478 1431 1398 1395 1400 1385 1397 1337 1371 1373 1347 1296 1250 1334 1294 1278 1225 1218 1312 1207 1257 1202 1252 1232 1261 1264 1171 1140 1154 1102 1152 1237 1133 1074 1155 1149 1075 1092 1053 1039 1033 1037 1114 1054 1122 1044 1035 1003 1027 1043 1058 990 1026 1039 1080 1029 1080 1114 1060 1143 1054 1166 1144 1195 1213 1152 1156 1221 1197 1291 1285 1217 1287 1249 1226 1228 1215 1139 1269 1217 1209 1216 1159 1190 1196 1103 1109 1166 1102 1032 1120 1147 1104 1091 1116 1098 1144 1064 1106 1146 1079 1109 1075 1048 1097 1131 1112 1129 1077 1060 1075 1080 1036 1069 1101 1045 1040 1041 1029 1003 1017 986 999 1022 1016 1025 1069 1008 1028 996 1022 997 1067 1038 1060 1044 1062 958 1005 1071 1134 1065 1021 1053 1145 1053 1028 1060 1006 1077 1073 1011 1023 1078 1025 1028 1042 1024 1032 1024 968 1005 1041 1071 1025 1003 1056 986 1015 978 1037 1049 978 1010 996 973 983 995 952 967 1068 1014 1040 998 1008 1062 962 970 1041 995 992 1015 1045 1056 1056 1016 1054 1042 1071 1061 1103 1079 1106 1036 1183 1123 1161 1215 1247 1281 1304 1392 1416 1500 1621 1655 1657 1890 1943 2035 2258 2384 2428 2592 2778 2900 2934 3010 3084 3145 3256 3294 3297 3383 3103 3313 3273 3350 3216 3015 2973 2930 2855 2662 2796 2520 2536 2424 2433 2318 2368 2344 2247 2222 2200 2195 2161 2177 2212 2172 2228 2118 2099 2219 2154 2255 2199 2180 2127 2195 2122 2116 2050 2057 1895 1944 1904 1889 1911 1776 1796 1670 1674 1561 1551 1545 1437 1439 1380 1394 1262 1315 1207 1298 1259 1278 1159 1178 1138 1162 1120 1219 1118 1158 1038 1093 1092 1070 1059 1116 1057 1071 1079 1088 1044 1030 971 992 993 1001 960 953 967 955 956 918 973 909 927 832 860 929 917 928 908 898 923 870 872 889 904 878 843 885 889 848 910 913 847 818 814 866 860 892 890 910 832 893 902 835 846 916 875 866 867 902 809 857 846 861 869 824 872 863 879 859 884 871 882 899 829 907 902 912 908 927 896 875 889 825 882 856 893 892 854 870 881 901 834 848 910 891 926 901 859 890 876 871 979 936 949 880 910 892 964 902 959 866 952 845 891 851 903 852 875 907 914 879 858 896 900 921 832 855 880 862 838 898 908 835 881 871 843 843 860 854 819 823 815 809 852 853 842 813 801 803 872 786 840 801 826 852 822 817 830 815 890 788 835 838 804 818 871 818 777 806 810 805 777 829 840 807 848 846 839 831 846 796 821 827 802 829 891 828 814 850 792 833 827 896 824 839 816 816 788 819 770 814 854 822 823 824 823 857 863 821 849 855 851 815 807 856 825 920 841 882 821 823 842 809 825 787 820 846 866 823 877 879 843 871 846 811 804 860 806 827 831 823 784 821 805 813 843 833 801 865 812 829 863 868 865 886 887 840 887 940 887 986 916 893 841 910 916 929 930 876 887 934 902 876 859 939 883 852 840 845 850 888 836 928 866 915 851 864 828 867 844 909 837 841 820 799 817 871 772 835 806 818 823 783 821 826 806 799 835 835 831 798 777 811 847 846 831 843 780 803 796 833 792 827 808 799 793 800 792 782 763 800 842 802 785 851 739 785 766 803 743 766 814 810 813 836 781 772 780 804 762 804 788 819 774 724 812 762 777 765 839 806 756 846 763 785 774 831 780 820 835 784 864 833 860 816 847 788 793 791 800 796 777 756 748 802 766 791 824 746 794 801 752 764 782 741 758 776 781 711 751 781 666 821 773 787 755 792 742 696 802 772 764 769 807 786 733 816 770 752 768 766 782 769 820 799 846 844 802 772 782 802 743 775 792 777 765 725 797 770 782 748 796 710 727 729 795 732 744 781 779 745 816 710 747 762 739 784 795 794 784 773 761 737 799 760 739 824 719 738 708 749 709 711 773 747 714 807 749 765 750 770 729 757 704 758 713 735 736 797 739 794 707 756 778 761 738 732 702 766 763 758 742 754 790 720 681 759 693 737 739 720 744 725 748 773 755 731 778 740 799 777 775 794 750 758 833 857 811 827 798 821 814 857 856 829 840 841 777 793 789 802 772 832 801 784 860 745 790 739 751 738 767 687 750 798 758 755 765 741 742 727 774 732 815 742 767 760 767 773 766 730 736 730 759 742 707 724 722 749 731 750 741 734 729 714 709 728 678 692 733 714 703 735 698 702 733 703 694 710 749 682 706 670 704 741 676 695 718 669 700 729 751 772 733 749 729 651 770 739 705 761 683 717 722 742 697 738 736 708 729 707 707 771 730 696 734 773 725 718 695 757 739 712 688 698 710 684 719 711 756 710 715 687 696 698 769 742 722 744 806 733 779 718 739 705 701 760 718 738 731 778 725 734 674 744 713 768 738 708 747 793 694 747 742 727 755 708 733 744 781 731 772 739 749 777 764 811 773 794 748 824 850 809 917 831 893 819 862 837 886 838 889 909 934 907 835 822 851 844 862 862 907 851 887 870 926 862 833 844 861 806 716 879 831 796 811 799 790 853 866 777 751 806 769 773 768 806 749 787 800 804 726 737 739 749 756 716 747 755 725 716 696 706 711 692 720 696 713 733 706 684 721 697 726 699 695 680 659 712 688 700 728 708 710 706 752 705 718 685 683 703 698 728 744 717 705 772 745 735 764 724 703 764 661 747 822 770 771 775 747 789 756 788 768 754 773 734 727 750 792 704 742 721 752 775 738 777 780 744 800 767 753 796 760 735 764 712 749 757 808 754 783 712 725 761 726 723 759 691 707 772 717 803 708 746 701 765 692 724 740 725 706 746 748 703 733 707 701 715 691 743 725 737 700 702 750 666 707 714 716 703 746 719 752 721 759 793 771 784 740 825 818 758 842 852 860 892 915 919 955 893 981 993 1059 1080 1043 982 1009 1070 1079 1059 1100 1056 1033 1012 1114 1033 1039 986 1004 984 975 1034 984 968 935 901 932 896 950 942 922 903 837 858 884 901 871 912 829 802 872 886 818 877 822 829 793 852 843 869 818 851 872 827 840 820 878 879 835 913 855 855 846 821 886 890 858 899 874 864 838 840 843 875 810 820 804 823 848 817 802 822 774 829 799 820 783 778 766 827 761 763 754 735 710 735 770 784 770 705 691 759 721 747 704 712 731 671 675 681 730 724 689 713 688 710 651 707 703 754 716 704 660 727 701 693 697 728 679 719 697 703 665 742 708 717 687 691 707 703 669 673 702 679 724 699 718 710 748 737 720 672 683 750 735 693 728 732 679 725 705 696 727 725 723 706 692 691 710 714 698 673 686 703 715 718 689 739 701 722 701 695 659 672 720 712 713 711 711 722 744 713 680 701 720 735 673 653 712 654 652 691 670 714 672 654 631 708 715 676 644 722 664 673 680 705 718 653 672 739 684 664 718 742 657 711 713 649 634 656 666 686 679 665 706 702 713 660 688 619 693 640 694 694 680 703 676 637 658 687 655 655 704 633 678 688 662 712 634 698 737 672 684 707 671 670 662 655 738 684 724 722 700 748 694 748 749 731 753 740 815 755 794 809 817 754 796 795 766 746 757 773 746 799 766 726 775 774 727 724 740 699 712 688 766 698 690 731 728 693 704 694 720 685 772 701 731 732 731 733 778 716 732 696 708 683 718 744 788 757 727 703 728 780 712 724 733 753 727 728 761 771 749 724 768 749 746 748 743 758 753 777 763 781 780 811 765 722 762 769 792 796 779 783 766 793 802 856 834 854 880 878 956 912 1014 998 1085 1079 1080 1135 1197 1327 1320 1425 1475 1642 1698 1841 1873 2051 2081 2162 2278 2330 2342 2406 2525 2633 2558 2776 2725 2680 2722 2667 2724 2669 2623 2690 2541 2502 2344 2435 2380 2281 2182 2142 2052 2082 1950 2001 1928 1787 1834 1748 1744 1680 1643 1563 1593 1549 1477 1406 1501 1427 1370 1375 1325 1328 1296 1241 1331 1301 1273 1266 1262 1249 1307 1316 1230 1226 1316 1303 1323 1308 1354 1375 1367 1393 1413 1478 1498 1448 1458 1521 1440 1433 1379 1456 1432 1445 1462 1393 1366 1343 1345 1233 1341 1244 1201 1192 1240 1169 1135 1159 1168 1131 1092 1120 1027 1029 1041 961 1014 1011 938 917 899 934 878 910 853 861 808 877 862 816 788 802 806 756 764 779 757 771 762 721 744 672 743 737 721 743 695 661 658 708 622 684 654 669 638 677 674 672 636 688 613 650 646 680 644 669 668 661 669 670 657 625 681 634 604 594 642 622 710 659 692 679 673 608 623 647 653 625 668 661 627 678 649 646 696 628 635 625 625 633 669 671 677 609 658 617 662 677 654 677 712 651 646 656 668 636 661 655 649 653 666 677 682 761 736 704 696 679 732 726 711 693 744 680 743 731 764 761 762 707 743 761 770 726 745 807 752 777 745 737 760 760 727 725 764 729 774 759 689 749 687 731 736 678 649 664 694 694 698 657 720 687 687 661 711 725 662 714 678 659 638 647 691 717 691 711 659 614 647 646 668 695 659 737 658 685 710 646 699 635 639 666 627 683 667 707 654 688 623 687 674 715 708 741 679 673 685 684 734 654 641 648 675 666 696 687 686 661 669 666 673 689 709 626 642 648 653 670 647 648 671 642 636 644 683 659 628 607 677 628 622 610 610 599 654 658 608 642 663 627 579 596 629 646 629 608 632 637 652 606 628 628 638 660 617 626 598 629 672 671 714 664 701 706 744 729 752 743 747 736 831 765 857 856 876 895 880 914 958 928 944 970 941 965 944 967 1012 905 963 937 934 917 959 978 906 937 884 837 832 892 849 874 833 818 787 783 770 821 788 748 755 749 720 745 741 741 729 722 734 739 671 659 676 707 653 646 625 638 625 653 625 682 617 637 591 627 616 612 621 611 590 655 600 602 584 649 592 620 612 619 627 625 583 592 619 635 617 572 609 582 584 562 614 583 586 524 586 618 573 605 595 603 626 606 602 571 596 640 571 548 554 527 546 633 571 601 578 583 574 568 552 585 599 587 630 593 592 578 568 592 575 584 601 581 590 573 581 535 591 599 573 562 578 581 586 607 595 553 542 562 579 613 587 575 614 638 583 614 633 572 605 551 593 640 559 602 555 593 620 614 607 612 592 637 584 615 613 601 593 559 578 590 578 587 564 609 594 610 609 603 585 596 559 580 591 595 586 578 594 549 586 561 654 592 580 614 553 579 535 576 580 550 554 556 590 551 584 585 607 582 627 574 600 574 613 567 619 601 598 590 593 551 610 626 588 541 582 512 604 600 577 580 565 603 546 572 551 633 555 545 595 560 540 613 590 558 605 609 628 591 582 572 586 601 558 603 582 579 602 625 601 599 621 579 626 596 619 576 619 657 635 629 633 637 631 613 606 601 622 614 625 595 636 604 594 600 627 616 662 614 622 624 615 603 582 575 586 606 565 609 549 574 578 572 608 605 547 545 570 563 600 598 614 596 610 583 603 594 577 527 534 567 614 591 576 575 558 527 573 553 541 561 552 562 593 576 503 570 589 564 568 585 591 558 564 578 551 544 583 545 549 552 568 558 526 567 596 531 566 584 556 538 557 615 539 561 580 605 580 535 589 609 595 558 599 582 545 580 604 594 548 594 564 582 585 603 560 606 606 614 588 650 575 592 598 647 615 655 584 635 641 629 646 661 647 618 675 640 611 648 604 614 643 626 609 605 613 627 607 592 642 618 622 648 569 610 673 636 558 632 583 606 581 632 587 615 549 594 618 610 633 602 563 557 600 670 670 629 686 639 666 673 652 696 797 738 728 772 805 815 803 783 866 860 876 837 834 889 857 890 918 865 847 853 918 824 889 853 901 830 892 824 874 843 889 851 843 853 794 911 785 823 791 783 792 790 795 784 740 781 736 736 675 713 717 699 739 662 700 709 654 719 679 694 699 709 645 697 660 643 643 698 672 673 714 680 707 666 701 671 699 734 736 716 734 792 770 777 791 784 780 779 838 861 862 870 875 889 811 823 868 838 819 842 801 771 830 785 842 798 817 812 794 726 749 809 705 801 711 750 784 757 738 795 683 735 751 703 730 745 717 712 720 655 699 689 688 659 638 648 643 645 694 652 629 639 589 617 634 598 593 645 621 668 600 615 610 661 573 599 581 612 615 557 613 615 531 592 596 596 607 581 599 562 572 594 574 631 562 646 547 591 609 569 603 604 616 578 606 597 604 597 593 587 557 555 563 583 585 562 602 582 588 593 589 591 546 551 554 541 586 575 573 550 582 562 592 525 585 558 605 579 523 595 567 553 566 513 535 578 573 602 544 590 553 528 569 587 574 605 589 570 566 553 602 566 606 592 598 634 594 611 561 610 579 562 637 626 603 600 644 616 666 648 618 667 683 688 608 710 722 782 751 779 777 823 865 894 863 872 886 947 905 885 952 950 933 953 893 935 958 928 893 896 902 911 930 896 927 859 858 807 837 786 793 781 792 753 745 750 726 732 762 687 647 661 697 666 653 626 631 634 614 587 570 607 624 579 595 587 510 592 564 546 585 551 531 576 552 558 544 574 530 514 490 511 546 541 569 539 582 559 530 639 609 540 532 533 571 571 581 602 546 580 578 586 582 573 562 564 591 589 608 576 576 522 584 577 612 565 575 595 600 589 548 580 624 576 555 586 565 624 547 580 568 553 546 586 537 579 587 533 550 546 509 559 574 538 531 503 543 525 553 560 555 556 539 539 545 534 486 485 526 545 533 554 536 515 539 526 562 516 503 562 490 536 519 529 507 570 552 518 491 534 531 494 546 530 531 526 504 512 534 532 530 555 499 518 517 593 520 524 561 518 542 580 497 545 579 572 592 598 525 562 560 596 600 565 571 612 600 546 600 578 566 595 565 572 585 571 600 606 523 575 575 582 605 537 542 578 571 554 544 581 509 571 528 570 518 532 524 489 530 531 510 523 524 520 557 450 538 506 549 503 509 531 558 512 554 555 564 484 532 571 560 573 515 554 526 514 515 515 505 545 516 526 505 570 523 503 562 517 536 534 538 536 500 554 546 550 533 553 570 580 524 498 507 523 541 534 543 521 581 559 527 531 540 557 507 563 529 578 561 547 567 516 550 576 534 573 520 532 554 551 534 551 550 532 564 530 533 553 533 565 536 567 551 522 586 527 514 540 528 552 541 538 527 497 514 508 542 491 530 522 530 496 522 482 484 531 476 473 515 518 489 501 502 507 494 548 523 504 485 516 516 523 523 526 498 513 537 497 508 471 494 473 481 540 495 456 461 534 512 554 527 515 539 560 568 520 535 488 501 522 505 499 529 536 517 488 457 468 563 497 554 513 438 521 510 540 514 470 495 546 517 497 503 479 553 469 471 548 530 573 490 496 505 458 518 496 494 516 473 516 463 507 495 474 522 537 530 520 497 463 531 471 508 500 557 476 480 509 512 492 528 485 488 496 498 493 563 548 509 533 521 488 527 543 539 439 494 514 514 538 488 526 524 525 542 480 486 496 495 448 478 477 503 477 504 503 475 489 514 488 498 476 497 426 487 508 454 499 500 504 504 499 463 531 510 493 516 535 463 478 519 497 525 502 505 463 541 433 498 490 467 467 473 509 487 476 471 506 467 512 454 504 463 486 481 499 460 485 532 509 477 451 481 484 479 495 468 468 506 494 523 492 456 483 503 452 459 486 487 474 449 493 495 512 491 470 483 520 476 491 527 480 513 502 467 500 484 497 489 525 471 496 550 483 508 521 561 516 540 581 541 513 557 525 559 486 537 539 527 531 539 555 513 580 570 531 544 498 541 554 549 591 557 543 512 484 498 509 470 527 533 536 502 543 499 517 519 486 518 525 495 477 536 473 522 513 465 467 512 481 519 505 521 479 518 531 538 513 518 536 453 515 493 463 493 491 460 536 499 484 516 523 476 538 483 483 522 494 465 463 474 511 524 463 484 530 511 495 520 473 492 536 537 489 497 537 534 490 556 567 568 560 526 568 531 544 544 583 521 541 552 486 557 531 510 543 550 519 537 509 504 526 532 530 525 545 461 507 517 557 482 519 546 481 501 514 521 496 494 453 491 519 501 481 518 457 489 493 508 464 499 559 493 527 508 526 521 472 478 458 474 507 504 488 521 515 509 467 466 499 493 475 500 499 503 505 515 493 492 477 503 507 467 500 507 494 516 512 546 549 501 510 507 500 514 494 539 514 552 518 532 525 530 539 515 501 532 499 508 514 515 555 522 495 519 533 539 502 515 477 527 523 533 537 547 512 561 502 482 532 540 485 546 440 563 522 515 509 539 488 486 485 482 488 516 517 525 484 467 499 486 461 487 477 489 523 493 455 487 481 500 521 474 441 528 467 472 485 464 489 515 467 503 504 504 506 482 475 495 487 480 473 484 489 480 496 451 505 453 490 516 531 461 480 490 503 486 504 503 494 498 507 519 515 524 468 512 508 483 538 479 502 561 493 512 480 484 501 488 488 524 493 488 486 492 482 493 487 475 515 484 452 516 492 505 463 477 452 514 453 537 508 489 499 492 481 469 479 540 502 465 499 473 512 523 485 478 478 507 522 493 482 534 460 497 509 509 473 510 516 500 519 484 450 526 514 488 472 519 518 496 459 530 539 513 500 532 570 515 599 554 561 565 551 555 559 579 575 558 581 601 573 639 602 633 589 572 671 587 607 611 633 613 647 573 582 608 557 600 625 625 582 584 588 588 576 582 607 561 562 558 561 540 571 551 558 509 531 546 544 554 495 494 534 553 513 495 539 478 484 547 511 478 484 475 538 513 507 493 483 479 503 519 512 481 493 521 542 507 515 502 503 523 504 495 498 478 510 473 499 502 497 484 493 494 501 501 512 524 491 517 506 523 542 518 510 511 519 533 499 530 536 504 521 530 536 572 490 527 546 508 496 586 535 492 570 505 540 555 517 519 499 503 544 574 538 509 497 538 522 522 514 500 520 490 528 520 504 523 490 518 496 503 501 509 484 495 479 514 446 486 468 502 472 498 518 526 491 495 517 523 483 485 463 469 493 436 473 495 499 511 481 465 456 492 480 463 456 479 488 506 502 512 471 493 476 467 493 455 513 499 483 441 454 459 465 491 456 457 520 468 496 483 497 477 485 446 532 519 471 470 488 478 491 502 470 490 492 494 513 506 461 471 498 458 476 457 441 492 526 495 419 514 494 520 476 483 475 489 457 472 452 518 475 496 494 483 447 474 497 488 464 489 468 503 452 485 459 522 503 480 456 492 492 446 479 522 526 488 470 557 481 503 482 495 481 486 489 490 471 484 480 472 505 476 494 524 485 521 515 498 536 510 547 477 518 535 491 509 509 531 491 507 548 556 546 527 537 556 496 534 526 530 526 526 589 496 573 568 582 551 550 509 537 594 518 525 519 543 543 580 543 534 502 486 471 518 529 512 503 520 469 513 536 477 532 512 503 516 509 447 514 524 495 530 486 487 491 465 463 484 438 457 478 450 432 475 429 462 488 469 491 480 474 480 514 500 461 485 522 492 452 479 434 548 463 475 447 469 462 465 450 494 467 507 489 482 484 492 454 457 451 467 458 498 461 418 497 433 500 505 456 494 474 472 430 452 464 448 474 460 483 504 462 466 477 452 453 464 471 490 513 483 449 547 475 491 465 423 472 448 474 470 497 460 469 477 448 474 453 475 453 474 484 482 441 495 427 493 468 457 492 428 462 451 534 460 447 470 486 495 455 453 490 465 470 468 512 442 507 461 479 471 500 440 468 483 476 479 463 502 472 490 450 452 476 520 472 463 481 513 469 508 486 465 494 474 499 474 487 445 494 470 487 501 482 470 499 499 481 463 455 492 431 480 485 478 473 447 510 463 452 462 500 488 473 448 466 452 443 464 495 547 458 497 457 446 523 484 470 486 504 478 467 482 472 487 465 463 464 497 443 511 506 492 494 509 442 509 488 478 474 522 508 503 465 496 523 463 492 439 508 453 493 510 483 497 523 497 459 495 486 452 501 494 461 479 492 532 472 497 546 522 498 481 516 465 516 467 523 551 506 561 522 480 523 487 547 542 523 498 536 517 502 462 487 538 508 551 524 535 495 533 506 519 521 522 508 502 539 538 546 505 529 542 542 617 512 494 512 500 479 545 534 586 525 508 546 584 527 535 520 542 548 567 583 501 542 547 514 507 541 512 595 522 518 520 538 528 492 521 529 523 478 553 532 499 532 523 542 566 542 494 564 521 526 527 552 556 547 562 558 521 546 551 549 606 548 608 575 568 548 563 569 566 542 548 551 571 559 555 607 580 605 579 553 547 536 533 570 529 519 551 568 535 518 584 537 564 510 535 509 504 562 514 545 482 503 507 517 539 521 528 488 527 527 512 515 544 548 519 571 553 532 554 511 540 527 482 495 479 506 494 524 468 528 485 536 533 502 545 531 491 570 522 515 539 516 541 518 538 534 486 512 538 526 535 529 540 551 520 550 594 551 605 550 582 502 578 563 576 572 559 527 563 619 603 603 579 641 542 548 561 543 593 621 545 629 542 610 632 554 600 525 571 561 590 552 584 578 612 549 560 568 508 584 577 521 532 572 564 575 517 559 563 545 536 552 565 531 506 573 531 518 561 534 508 532 550 541 519 526 548 546 533 545 542 473 561 518 515 558 541 507 533 520 529 522 514 518 557 537 530 576 494 517 509 594 520 559 483 522 518 535 518 559 560 543 584 597 561 566 568 564 589 621 544 534 573 607 620 640 657 631 650 675 653 681 694 674 727 651 695 733 770 738 772 781 795 787 845 721 758 717 773 759 747 718 723 776 719 734 759 754 744 693 766 717 682 670 714 732 678 649 661 637 676 652 722 622 672 637 632 621 611 638 622 570 611 596 589 591 582 588 559 584 569 504 565 538 588 505 526 580 511 531 560 515 490 512 552 511 476 543 508 522 522 486 523 519 485 477 499 503 494 486 523 475 532 479 518 498 502 474 513 514 496 528 521 519 510 576 527 516 531 524 496 502 500 520 559 541 512 532 545 523 514 511 526 565 553 473 534 554 553 563 540 562 511 500 572 550 579 557 550 527 558 560 549 583 546 525 503 555 538 551 582 532 531 522 515 505 554 497 507 537 507 556 537 521 552 547 527 526 534 520 548 526 488 554 537 557 561 510 539 523 542 472 504 537 493 508 491 506 470 562 480 503 486 535 563 462 508 498 499 517 467 502 522 499 530 480 518 468 550 506 491 507 504 477 515 499 500 507 532 473 517 460 443 489 485 486 480 482 485 457 496 484 515 486 492 469 498 473 465 466 488 471 465 459 451 468 489 487 445 473 500 480 482 484 494 486 502 455 497 480 531 467 512 490 492 477 467 459 472 488 490 475 479 466 492 506 478 460 479 498 493 483 489 450 462 465 494 467 462 481 504 479 478 454 472 455 465 490 525 488 483 483 491 522 460 479 464 499 525 470 484 489 487 493 498 503 471 504 463 480 473 506 493 488 485 479 487 496 455 484 460 504 476 454 501 496 464 505 478 492 464 429 497 526 493 451 466 447 470 468 453 468 463 469 468 488 436 455 456 443 463 451 482 489 453 507 497 478 479 461 463 467 471 446 476 463 476 420 510 457 482 461 446 476 492 487 500 453 460 448 469 462 454 443 448 493 474 451 477 510 466 450 498 455 499 514 455 447 482 459 481 486 461 478 481 451 471 480 475 465 478 459 481 501 447 461 471 477 457 450 480 489 500 483 484 471 465 489 458 472 505 514 476 481 483 477 498 443 479 483 455 472 478 479 466 474 467 491 421 457 481 488 468 495 456 453 459 430 509 436 487 497 460 481 464 475 474 468 461 415 450 452 453 476 450 422 478 463 469 481 452 445 460 447 479 427 458 455 445 494 452 472 444 472 449 415 461 498 467 461 419 455 434 447 426 488 454 463 492 457 468 484 464 478 455 462 472 479 452 458 441 463 465 472 459 457 421 435 482 487 494 497 486 448 456 448 429 473 457 464 478 440 504 453 483 478 463 495 459 468 470 461 457 477 496 453 459 452 502 480 462 460 450 446 492 475 477 474 462 478 478 439 478 491 482 483 437 471 481 435 519 462 491 441 478 475 461 454 508 451 462 491 492 425 488 496 497 478 486 510 511 445 540 463 463 482 501 492 494 503 502 460 470 499 465 482 493 438 524 476 483 466 502 494 468 483 463 515 492 491 478 462 517 487 514 490 433 494 494 440 497 473 505 490 523 509 491 453 516 518 501 527 486 473 487 508 444 466 492 468 472 483 490 478 479 449 473 467 481 485 463 517 461 524 479 457 468 456 461 497 475 490 470 483 494 467 464 482 477 506 457 463 470 461 466 473 468 441 493 438 467 469 491 459 490 458 491 463 507 484 502 464 481 473 467 492 464 506 466 482 431 442 472 438 463 474 502 452 508 484 494 464 461 473 461 439 505 455 489 458 445 487 453 433 463 477 458 457 472 483 460 473 468 498 476 421 494 524 483 511 487 493 504 473 500 502 505 473 448 510 447 499 518 453 497 481 485 485 454 487 462 487 473 491 450 463 495 431 498 479 486 501 449 478 501 500 486 486 487 492 437 460 483 431 453 501 499 469 458 484 455 523 490 495 441 479 478 493 455 481 488 458 488 488 451 489 435 452 453 477 490 482 496 465 497 495 519 459 479 455 494 469 486 473 458 492 451 466 512 490 483 502 513 491 475 505 520 502 460 503 506 480 520 485 464 492 477 461 521 515 482 491 541 486 534 533 506 514 462 522 501 517 485 473 510 546 536 566 546 539 554 519 540 604 594 596 575 557 595 576 606 650 647 649 599 600 674 621 685 701 743 672 699 717 723 746 699 706 671 751 737 778 749 710 691 663 730 692 671 724 660 615 679 699 707 659 634 641 663 679 685 655 634 647 666 579 592 606 621 588 601 632 588 644 577 613 567 630 609 579 573 567 562 521 559 531 539 551 538 565 570 517 525 523 505 499 540 535 502 499 515 505 480 458 494 484 473 477 497 482 479 485 491 466 448 497 513 516 486 501 498 475 536 456 498 491 503 465 474 482 491 538 524 487 452 500 482 459 460 491 518 502 498 491 486 522 495 482 529 496 492 484 528 501 516 549 551 521 512 504 498 525 529 544 553 537 527 525 553 555 556 561 590 558 573 549 554 574 613 556 595 607 567 585 569 580 576 604 593 572 547 557 587 549 607 563 592 531 601 560 555 558 583 511 619 533 574 563 510 556 563 541 581 536 570 546 521 529 513 528 532 537 535 549 520 500 514 544 540 513 508 515 493 488 528 522 534 521 458 487 499 483 484 496 520 521 503 529 508 477 485 511 489 516 467 514 485 475 483 544 477 443 501 470 479 473 460 484 474 501 480 493 488 477 483 478 450 481 483 478 451 461 482 455 523 494 462 461 482 482 487 468 481 461 493 456 521 520 493 524 475 443 480 462 459 479 456 455 452 469 483 500 506 482 442 508 493 500 490 518 493 495 481 505 479 503 518 501 510 465 519 490 503 438 471 493 515 479 493 488 511 513 508 468 506 477 499 492 498 493 481 528 500 477 480 505 472 514 479 487 466 541 511 488 470 497 477 499 528 509 479 485 489 499 492 476 512 494 492 483 467 506 479 500 491 470 480 511 500 486 501 469 437 476 482 466 513 458 528 488 479 435 449 471 470 484 484 436 451 465 467 428 464 445 455 441 460 488 450 464 451 468 478 480 467 459 459 438 441 454 461 474 491 466 438 465 441 421 459 511 452 427 433 473 454 435 421 465 477 445 441 450 414 460 433 422 455 472 479 427 443 516 478 480 439 468 443 458 510 478 457 472 428 452 432 463 445 435 457 464 474 459 459 429 464 483 451 450 419 427 470 451 409 416 471 484 450 449 447 437 428 435 466 473 439 430 471 477 444 451 437 455 507 447 463 451 442 451 460 436 458 462 454 449 460 459 462 401 445 435 481 467 476 429 420 469 443 442 466 492 434 435 464 437 440 445 495 448 453 438 469 455 470 475 439 492 460 447 478 474 465 447 471 447 495 442 452 479 475 448 466 457 441 444 441 462 469 463 468 441 480 440 487 417 466 413 441 459 414 465 467 460 454 478 479 451 456 461 475 492 432 499 485 478 474 473 466 488 460 485 463 433 464 481 474 494 479 468 451 492 453 497 511 478 451 480 483 492 488 525 484 476 501 457 498 504 510 478 502 458 483 555 458 522 475 472 519 492 474 502 480 509 487 494 481 514 524 504 494 500 502 526 523 479 550 517 537 551 476 491 491 514 541 526 499 517 509 478 500 514 478 490 511 492 531 505 518 507 489 488 522 542 556 560 476 491 473 507 517 564 505 491 543 497 525 502 532 463 532 516 538 511 520 505 540 509 529 547 498 536 526 524 510 546 477 503 492 497 524 529 498 494 509 506 509 471 451 524 513 555 495 451 505 502 500 482 502 514 479 524 509 465 480 497 502 508 521 491 476 480 486 479 483 468 481 499 504 459 490</counts>
			</dataPoints>
		</scan>
	</xrdMeasurement>
</xrdMeasurements>
