<?xml version="1.0"?>
<xrdMeasurements xmlns="http://www.xrdml.com/XRDMeasurement/2.3" xmlns:xsi="http://www.w3.org/2001/XMLSchema-instance" xsi:schemaLocation="http://www.xrdml.com/XRDMeasurement/2.3 http://www.xrdml.com/XRDMeasurement/2.3/XRDMeasurement.xsd" status="Completed" recordIdentifier="{E270F545-16F5-4586-AC32-4F228EAE2883}">
	<comment>
		<entry/>
	</comment>
	<sample type="To be analyzed">
		<id>GPSS_Li1p5Fe0p5Y0p2In0p3Cl4_122325_694ae824ae15af25ac372777</id>
		<name></name>
		<preparedBy></preparedBy>
	</sample>
	<xrdMeasurement measurementType="Scan" status="Completed" sampleMode="Reflection">
		<usedWavelength intended="K-Alpha 1">
			<kAlpha1 unit="Angstrom">1.5405980</kAlpha1>
			<kAlpha2 unit="Angstrom">1.5444260</kAlpha2>
			<kBeta unit="Angstrom">1.3922500</kBeta>
			<ratioKAlpha2KAlpha1>0.5000</ratioKAlpha2KAlpha1>
		</usedWavelength>
		<incidentBeamPath>
			<radius unit="mm">145.00</radius>
			<xRayTube id="1010048" name="Empyrean Cu LFF HR (9430 033 7310x)">
				<tension unit="kV">40.0</tension>
				<current unit="mA">15.0</current>
				<anodeMaterial>Cu</anodeMaterial>
				<focus type="Line">
					<length unit="mm">12.0</length>
					<width unit="mm">0.4</width>
					<takeOffAngle unit="deg">6.0</takeOffAngle>
				</focus>
			</xRayTube>
			<sollerSlit id="21010002" name="Soller slits 0.04 rad.">
				<opening unit="rad">0.0400</opening>
			</sollerSlit>
			<mask id="22031000" name="Fixed mask 13 mm">
				<width unit="mm">9.00</width>
			</mask>
			<divergenceSlit id="22120001" name="Divergence slit 1°" xsi:type="fixedDivergenceSlitType">
				<distanceToSample unit="mm">50.00</distanceToSample>
				<height unit="mm">1.52</height>
			</divergenceSlit>
		</incidentBeamPath>
		<sampleMovement xsi:type="spinningSampleMovementType">
			<spinnerRevolutionTime unit="seconds">1.0</spinnerRevolutionTime>
		</sampleMovement>
		<diffractedBeamPath>
			<radius unit="mm">145.00</radius>
			<antiScatterSlit id="22090040" name="AS slit 9 mm (PIXcel)" xsi:type="fixedAntiScatterSlitType">
				<height unit="mm">9.00</height>
			</antiScatterSlit>
			<sollerSlit id="21020003" name="Large Soller slits 0.04 rad.">
				<opening unit="rad">0.0400</opening>
			</sollerSlit>
			<filter id="20030001" name="Large beta-filter Nickel">
				<material>Ni</material>
				<thickness unit="mm">0.020</thickness>
			</filter>
			<detector id="7010019" name="PIXcel1D-Medipix3 detector" xsi:type="rtmsDetectorType">
				<phd unit="keV">
					<lowerLevel>4.02</lowerLevel>
					<upperLevel>11.27</upperLevel>
				</phd>
				<mode>Scanning</mode>
				<activeLength unit="deg">5.542</activeLength>
			</detector>
		</diffractedBeamPath>
		<scan appendNumber="0" mode="Continuous" scanAxis="Gonio" status="Completed">
			<header>
				<startTimeStamp>2025-12-25T18:29:22-08:00</startTimeStamp>
				<endTimeStamp>2025-12-25T18:37:29-08:00</endTimeStamp>
				<author>
					<name>AutomatedUser</name>
				</author>
				<source>
					<applicationSoftware version="1.7b (136)">PANalytical Aeris Instrument Suite</applicationSoftware>
					<instrumentControlSoftware version="3.2.00000000 20240306">AERIS</instrumentControlSoftware>
					<instrumentID>950485</instrumentID>
				</source>
			</header>
			<dataPoints>
				<positions axis="2Theta" unit="deg">
					<startPosition>10.00943322</startPosition>
					<endPosition>99.99442286</endPosition>
				</positions>
				<positions axis="Omega" unit="deg">
					<startPosition>5.00471661</startPosition>
					<endPosition>49.99721143</endPosition>
				</positions>
				<commonCountingTime unit="seconds">12.495</commonCountingTime>
				<counts unit="counts">2808 2816 2868 2858 2996 2842 2774 2829 2701 2849 2798 2830 2856 2782 2820 2727 2796 2796 2801 2821 2832 2811 2794 2854 2856 2776 2858 2776 2834 2786 2828 2764 2749 2842 2858 2765 2770 2777 2910 2777 2823 2789 2861 2790 2805 2775 2838 2831 2813 2899 2924 2866 2901 2831 2851 2723 2953 2822 2829 2747 2774 2877 2788 2776 2729 2720 2842 2806 2870 2767 2923 2835 2823 2778 2791 2886 2830 2867 2897 2857 2774 2785 2859 2788 2876 2749 2795 2891 2891 2775 2922 2857 2866 2832 2911 2850 2894 2818 2805 2874 2873 2881 2847 2870 2827 2810 2857 2792 2889 2802 2934 2884 2983 2940 2782 2877 2892 2859 2933 2856 2912 2948 2942 2897 2980 2926 2913 2833 2874 2886 2816 2846 2877 2976 2968 2854 2930 2916 2893 2897 2939 3000 2883 2890 2882 2846 2811 2862 2938 2886 2845 2894 2931 2906 2794 2969 2907 2926 2891 2910 2820 2848 2977 2891 2918 2965 2870 2774 2841 2780 2937 2783 3087 2815 2884 2834 2861 2929 2860 2877 2926 2801 2878 2840 2829 2810 2827 2787 2899 2888 2952 2834 2950 2861 2864 2815 2782 2871 2828 2831 2784 2816 2791 2795 2785 2797 2879 2862 2895 2814 2845 2817 2792 2847 2818 2841 2796 2794 2762 2769 2700 2851 2729 2708 2753 2679 2764 2734 2718 2701 2707 2710 2734 2722 2761 2748 2756 2763 2876 2764 2721 2738 2623 2713 2702 2761 2714 2746 2677 2711 2689 2674 2640 2706 2721 2690 2718 2728 2662 2673 2686 2677 2641 2678 2662 2618 2643 2632 2636 2687 2670 2584 2624 2670 2658 2621 2734 2592 2517 2615 2540 2639 2527 2618 2607 2618 2677 2744 2629 2526 2630 2651 2594 2630 2676 2614 2630 2563 2630 2668 2687 2640 2702 2704 2693 2616 2625 2607 2741 2586 2634 2698 2671 2550 2656 2647 2630 2599 2687 2681 2654 2704 2602 2595 2613 2662 2675 2639 2583 2672 2600 2654 2621 2727 2665 2522 2659 2749 2702 2661 2599 2653 2667 2618 2648 2600 2630 2761 2566 2676 2652 2718 2672 2652 2752 2688 2756 2657 2745 2717 2762 2723 2632 2650 2644 2673 2675 2631 2766 2757 2759 2758 2785 2787 2668 2830 2748 2753 2680 2781 2769 2863 2722 2805 2774 2819 2735 2791 2762 2841 2804 2845 2711 2806 2710 2850 2778 2724 2831 2842 2819 2785 2865 2810 2810 2960 2862 2901 2924 2938 2954 2896 2995 2988 3033 2959 3120 3072 3253 3116 3094 3274 3246 3407 3303 3473 3408 3578 3604 3654 3465 3601 3468 3549 3408 3313 3350 3272 3197 3181 3244 3076 3177 3143 3106 3094 3015 3048 3146 3122 3021 3024 2994 3039 3052 2985 2963 3128 2946 2997 2985 2950 3126 2998 2983 2964 2921 2879 3027 2936 3010 2978 2903 2935 2941 2893 2897 2933 2986 2969 2808 2916 2919 3019 2876 2926 2911 3004 2982 3026 2960 2988 3114 2911 3026 2967 3039 3034 3059 3036 2982 3033 2993 2975 3145 2971 3035 2878 2939 3007 2949 2970 2991 2960 3049 2993 3013 2940 3000 3017 3072 3066 3073 2930 3050 3139 2942 3129 3044 3103 3072 2990 2894 2972 2963 2891 2899 2867 2999 2967 2923 2886 2883 2867 2858 2884 2910 2813 2761 2777 2908 2867 2750 2793 2784 2739 2784 2837 2789 2688 2773 2760 2751 2810 2766 2750 2821 2687 2684 2641 2740 2676 2752 2658 2659 2842 2584 2752 2646 2709 2701 2768 2564 2803 2666 2726 2757 2671 2706 2701 2586 2771 2667 2609 2655 2578 2682 2692 2672 2668 2633 2653 2764 2634 2662 2691 2611 2748 2672 2582 2650 2647 2570 2554 2664 2560 2477 2632 2680 2606 2539 2599 2596 2609 2514 2640 2487 2630 2573 2462 2662 2546 2531 2600 2518 2596 2596 2679 2587 2433 2511 2614 2561 2542 2447 2592 2463 2578 2580 2652 2607 2513 2544 2631 2538 2573 2542 2614 2515 2479 2516 2521 2609 2627 2555 2570 2490 2564 2607 2558 2477 2483 2451 2532 2558 2462 2571 2528 2500 2478 2513 2439 2479 2480 2487 2421 2573 2424 2473 2562 2483 2523 2508 2413 2492 2405 2520 2391 2464 2530 2512 2568 2448 2420 2567 2489 2450 2552 2498 2512 2483 2498 2523 2553 2489 2548 2502 2480 2486 2471 2393 2509 2414 2409 2538 2392 2498 2410 2392 2451 2450 2418 2398 2495 2467 2422 2512 2410 2439 2511 2330 2438 2501 2327 2515 2425 2417 2415 2475 2393 2399 2436 2422 2433 2489 2385 2474 2346 2421 2445 2367 2395 2400 2328 2488 2432 2462 2380 2524 2384 2472 2465 2307 2383 2378 2344 2359 2414 2403 2478 2368 2476 2440 2395 2394 2363 2272 2416 2350 2285 2431 2332 2399 2368 2386 2356 2367 2390 2259 2385 2313 2311 2250 2389 2365 2412 2397 2432 2371 2377 2429 2471 2319 2417 2423 2317 2356 2326 2423 2364 2374 2398 2364 2464 2310 2397 2383 2390 2250 2333 2372 2450 2273 2321 2412 2370 2339 2395 2312 2399 2391 2305 2355 2317 2288 2265 2273 2365 2263 2405 2357 2311 2299 2262 2294 2278 2294 2320 2370 2290 2322 2265 2298 2298 2369 2243 2281 2384 2354 2289 2294 2328 2295 2403 2283 2326 2320 2300 2279 2340 2327 2319 2320 2277 2264 2348 2319 2321 2196 2243 2270 2286 2275 2212 2310 2248 2191 2224 2285 2264 2361 2207 2300 2188 2255 2191 2258 2254 2212 2238 2278 2267 2277 2194 2266 2328 2231 2282 2309 2204 2357 2210 2147 2233 2163 2200 2227 2297 2257 2340 2354 2166 2198 2277 2317 2278 2198 2281 2234 2246 2202 2198 2316 2137 2241 2186 2254 2106 2298 2126 2214 2201 2194 2234 2193 2252 2228 2172 2235 2192 2243 2216 2199 2243 2206 2268 2190 2177 2188 2214 2175 2217 2184 2257 2211 2245 2128 2239 2160 2201 2268 2239 2207 2135 2152 2253 2251 2167 2181 2187 2221 2183 2108 2203 2192 2147 2111 2134 2227 2287 2170 2131 2291 2143 2159 2183 2224 2145 2159 2221 2168 2208 2137 2188 2096 2060 2225 2296 2083 2229 2225 2159 2197 2130 2175 2198 2156 2067 2183 2092 2127 2215 2164 2148 2242 2168 2107 2098 2105 2202 2158 2114 2103 2226 2147 2212 2190 2205 2197 2180 2181 2146 2192 2172 2185 2136 2120 2187 2108 2173 2182 2169 2143 2094 2181 2134 2110 2180 2158 2232 2270 2141 2085 2179 2209 2193 2172 2153 2135 2255 2186 2134 2085 2106 2174 2284 2215 2166 2168 2156 2137 2175 2146 2166 2216 2159 2207 2161 2154 2121 2062 2122 2244 2141 2215 2137 2194 2203 2180 2129 2208 2204 2193 2285 2236 2167 2181 2109 2114 2172 2156 2196 2146 2250 2215 2187 2203 2171 2134 2208 2188 2167 2185 2176 2184 2163 2140 2183 2133 2267 2217 2200 2072 2183 2134 2141 2191 2088 2171 2168 2122 2146 2166 2181 2215 2104 2120 2198 2174 2199 2224 2143 2084 2222 2111 2191 2197 2227 2140 2181 2188 2155 2101 2084 2124 2109 2170 2091 2143 2158 2085 2140 2149 2097 2138 2090 2046 2045 2170 2068 2156 2079 2124 2088 2074 2057 2159 2045 2036 2062 2133 2061 2018 2068 2111 2214 2006 2052 2050 2021 2039 1968 2018 2053 1975 2073 2003 2036 2044 1924 2074 2033 2059 2000 2081 2055 2011 2018 1949 2019 1985 2000 2021 2005 1954 1977 2000 2080 1974 2042 2017 1940 1946 1959 1958 1925 1917 1915 1856 1967 1858 1864 1896 1989 2014 1893 1929 1785 1885 1892 1870 1877 1928 1928 1870 1829 1926 1996 1910 1883 1822 1957 1848 1800 1886 1726 1811 1869 1847 1819 1832 1827 1880 1825 1795 1840 1808 1842 1814 1799 1796 1811 1805 1813 1763 1803 1811 1794 1730 1766 1802 1772 1799 1789 1793 1857 1762 1769 1760 1771 1808 1764 1802 1772 1794 1794 1753 1829 1794 1737 1723 1782 1806 1743 1821 1727 1800 1802 1840 1719 1799 1678 1680 1806 1756 1745 1682 1676 1712 1738 1717 1704 1690 1699 1738 1708 1738 1681 1694 1698 1683 1655 1624 1682 1676 1730 1672 1616 1604 1715 1647 1615 1669 1678 1741 1661 1634 1702 1664 1703 1690 1634 1695 1685 1749 1626 1665 1679 1641 1604 1600 1598 1658 1668 1666 1651 1670 1663 1687 1691 1640 1621 1632 1647 1667 1681 1632 1574 1635 1630 1654 1678 1631 1620 1678 1665 1660 1587 1607 1631 1630 1650 1604 1661 1663 1729 1613 1624 1677 1649 1699 1589 1628 1668 1667 1627 1626 1687 1652 1645 1637 1705 1608 1719 1624 1621 1622 1726 1645 1700 1606 1635 1642 1684 1635 1703 1676 1657 1669 1637 1588 1560 1712 1637 1620 1627 1618 1625 1710 1707 1595 1675 1709 1648 1731 1643 1577 1711 1634 1607 1579 1622 1659 1581 1671 1667 1690 1698 1585 1639 1611 1647 1611 1661 1611 1653 1639 1597 1695 1753 1654 1724 1745 1621 1619 1699 1604 1688 1621 1706 1683 1758 1730 1630 1675 1703 1706 1677 1703 1709 1665 1669 1703 1600 1634 1630 1747 1710 1614 1703 1740 1701 1675 1679 1715 1676 1794 1678 1683 1636 1672 1697 1653 1659 1715 1612 1654 1542 1623 1578 1536 1664 1671 1696 1738 1635 1641 1619 1620 1736 1693 1610 1666 1665 1661 1630 1665 1736 1662 1628 1629 1579 1579 1613 1635 1622 1632 1584 1636 1598 1594 1647 1614 1524 1660 1620 1553 1555 1641 1624 1621 1636 1579 1566 1601 1613 1537 1598 1577 1558 1524 1575 1578 1569 1617 1578 1601 1581 1537 1524 1572 1540 1528 1602 1551 1580 1557 1576 1523 1596 1524 1532 1549 1527 1525 1663 1505 1549 1545 1591 1523 1469 1570 1494 1492 1514 1516 1592 1559 1561 1587 1535 1534 1598 1557 1589 1604 1559 1586 1531 1496 1528 1530 1540 1571 1489 1492 1477 1495 1532 1560 1515 1535 1536 1452 1477 1431 1490 1436 1458 1432 1554 1513 1459 1485 1443 1507 1512 1527 1471 1559 1517 1513 1517 1522 1592 1641 1661 1645 1658 1711 1782 1822 1809 1799 1770 1805 1777 1858 1851 1862 1801 1758 1705 1755 1757 1684 1632 1656 1587 1572 1552 1526 1415 1464 1449 1454 1425 1393 1484 1506 1470 1549 1410 1379 1392 1425 1298 1402 1433 1399 1390 1424 1390 1363 1386 1331 1479 1336 1353 1439 1405 1398 1393 1324 1412 1351 1356 1324 1415 1328 1383 1305 1304 1404 1367 1363 1388 1365 1382 1334 1358 1348 1358 1342 1298 1322 1304 1344 1317 1347 1343 1345 1360 1386 1387 1345 1256 1337 1322 1359 1347 1342 1345 1335 1385 1252 1436 1346 1369 1346 1352 1396 1371 1375 1385 1413 1424 1498 1548 1537 1611 1616 1630 1676 1799 1847 1930 1918 2014 2096 2149 2138 2263 2295 2417 2405 2506 2439 2435 2456 2337 2450 2266 2207 2100 1925 1958 1877 1810 1737 1621 1693 1637 1484 1480 1500 1463 1437 1436 1465 1460 1451 1477 1453 1341 1372 1380 1368 1300 1331 1368 1363 1354 1253 1306 1308 1315 1279 1281 1333 1253 1199 1339 1261 1296 1288 1283 1264 1270 1234 1247 1195 1241 1211 1266 1247 1254 1309 1286 1221 1284 1203 1320 1237 1292 1315 1253 1267 1337 1297 1274 1308 1291 1305 1259 1279 1272 1261 1226 1236 1164 1272 1231 1157 1278 1196 1224 1266 1196 1134 1229 1214 1155 1208 1247 1206 1167 1221 1203 1223 1282 1218 1169 1170 1167 1184 1186 1181 1197 1186 1167 1238 1146 1207 1221 1239 1206 1199 1160 1247 1213 1226 1202 1181 1163 1224 1332 1256 1300 1366 1337 1298 1421 1426 1484 1446 1595 1561 1645 1782 1748 1843 1944 1945 2025 1948 1980 1995 1912 1971 1959 1795 1785 1727 1687 1612 1601 1570 1459 1428 1401 1367 1338 1345 1315 1279 1318 1232 1267 1253 1103 1197 1191 1141 1150 1143 1138 1165 1137 1190 1161 1159 1169 1194 1121 1137 1137 1232 1160 1177 1149 1197 1128 1226 1160 1183 1180 1164 1181 1204 1240 1155 1173 1196 1165 1211 1149 1176 1129 1187 1198 1143 1171 1135 1095 1042 1110 1166 1196 1111 1142 1160 1112 1135 1072 1138 1102 1143 1098 1122 1082 1115 1044 1058 1096 1084 1140 1131 1048 1096 1069 1021 1143 1148 1081 1069 1056 1103 1132 1065 1113 1103 1024 1090 1079 1095 1170 1103 1098 1035 1102 1090 1079 1078 1051 1100 1100 1159 1048 1077 1058 1082 1031 1033 1074 1078 1047 1086 994 1047 1085 1011 1060 1035 1051 1041 1079 1092 1069 1063 990 1084 1089 1081 1098 1048 1126 1017 1071 1050 1072 1017 1087 1110 1119 1065 1066 1068 1070 1076 1031 1063 1057 1091 1060 1047 1073 1074 1071 1034 1093 1055 1104 1042 1074 1016 1047 1075 1082 1151 1078 1071 1016 1084 1068 1034 1029 1104 1116 1066 1069 1055 1167 1086 1090 1090 1120 1128 1106 1163 1088 1078 1098 1123 1203 1110 1171 1222 1137 1248 1177 1188 1260 1228 1151 1202 1157 1194 1188 1190 1187 1171 1131 1124 1119 1138 1081 1199 1088 1106 1030 1088 1062 1128 1023 1081 1142 1163 1069 1113 1094 1072 1075 1104 1065 1159 1158 1101 1159 1138 1135 1154 1204 1082 1197 1220 1210 1192 1191 1288 1281 1359 1463 1475 1554 1697 1725 1898 2057 2299 2322 2697 2751 3042 3247 3652 3726 4098 4027 4155 4071 4187 3901 4082 3738 3875 3472 3415 3250 3048 2931 2697 2566 2392 2293 2172 2018 1842 1822 1674 1632 1568 1494 1534 1449 1471 1425 1366 1388 1332 1278 1256 1360 1285 1260 1281 1269 1332 1241 1268 1152 1205 1215 1179 1193 1125 1212 1093 1154 1170 1151 1172 1156 1069 1161 1102 1122 1138 1124 1180 1045 1066 1074 1070 1132 1149 1068 1074 1116 1098 1076 1148 1200 1107 1108 1128 1093 1150 1123 1109 1091 1102 1135 1057 1056 1083 1104 1082 1138 1097 1099 1142 1077 1091 1056 1044 1048 1073 1079 1102 1110 1154 1107 1073 1053 1055 1050 1080 1105 1121 1028 1050 1078 1051 1070 1039 1057 1057 1061 1059 1041 1066 1073 1022 1059 994 1000 1004 959 973 1037 1050 996 1011 1039 1050 1043 1051 950 982 981 981 1036 1006 953 1037 1018 1041 1021 1023 1071 989 973 1012 971 946 989 1036 1002 1062 1016 1058 1047 1001 1015 1094 1020 999 1013 1018 1016 1018 976 1015 1060 1029 970 1005 974 1025 1059 1026 966 977 1011 1022 940 977 1004 955 1019 1033 1040 1046 974 1022 1025 1028 999 1000 985 1096 984 1038 1020 983 976 977 984 942 1009 978 966 1027 931 974 995 898 990 995 987 1031 1021 950 996 921 923 1043 966 1000 937 909 918 947 944 949 942 942 981 911 956 927 1002 974 1010 919 965 986 979 1036 958 928 972 967 993 1014 1035 989 998 955 1016 1026 993 1007 938 952 965 1020 972 938 937 966 973 928 967 972 959 952 993 942 1070 978 1002 1015 967 990 987 980 999 1010 984 1005 973 1003 996 982 973 997 988 1006 1008 993 1039 957 1041 979 944 1032 913 1024 938 944 984 987 982 1005 915 993 977 947 911 916 966 954 917 964 961 934 938 931 967 950 1004 970 992 914 980 969 984 940 889 930 938 976 913 907 940 945 954 916 955 968 935 955 952 920 944 898 920 884 988 934 953 918 918 965 980 918 906 906 931 902 893 972 903 1039 977 936 956 955 1030 967 926 988 1006 905 964 928 961 904 892 919 910 946 970 965 950 923 916 927 987 961 934 968 901 998 924 941 938 930 948 906 927 908 972 938 904 921 839 949 928 993 850 956 965 925 966 942 941 927 929 931 927 898 924 943 958 942 896 941 880 957 937 899 920 952 925 898 929 935 917 925 956 880 895 1000 852 876 884 870 925 911 908 897 1006 908 937 929 959 1024 1021 933 902 975 914 971 919 897 878 916 860 874 969 885 981 904 876 902 885 919 874 896 893 914 954 897 894 962 874 992 892 913 962 883 916 966 888 926 925 961 911 883 927 961 844 884 872 881 829 929 899 890 869 901 934 913 853 915 912 909 925 882 892 930 907 860 879 880 954 931 916 984 941 915 925 923 923 922 960 894 928 892 916 921 920 940 878 906 902 938 919 933 867 951 933 976 984 976 974 1007 1029 1041 1062 1071 988 1065 1058 1053 1073 1139 1163 1110 1163 1185 1278 1221 1350 1327 1418 1386 1408 1369 1374 1357 1319 1384 1324 1326 1251 1253 1283 1129 1182 1186 1161 1126 1149 1044 1068 1049 1026 1006 1047 944 982 934 957 990 985 963 936 939 912 916 917 925 910 930 917 914 913 963 919 890 902 918 898 896 837 878 873 902 915 860 917 924 884 880 918 933 952 885 891 940 953 921 841 923 934 914 916 985 894 875 911 880 922 880 887 911 938 969 849 832 898 844 910 875 911 903 964 857 894 968 893 885 919 891 902 888 900 902 884 862 900 873 892 895 839 865 902 904 941 925 847 967 970 878 827 838 890 894 878 888 884 845 854 909 873 905 906 904 858 910 890 900 907 885 880 849 939 949 911 899 879 874 952 874 909 939 942 909 929 906 929 852 941 939 971 933 913 918 965 969 1018 942 970 971 998 958 1001 940 984 984 940 1004 961 916 960 982 930 891 939 967 914 894 907 867 904 931 859 872 942 897 926 892 894 887 868 935 879 946 864 923 919 889 863 875 840 868 885 917 889 913 883 888 894 845 892 837 906 875 893 895 924 874 929 885 912 883 879 876 866 886 923 965 898 874 926 918 865 846 852 886 893 874 865 872 840 874 844 880 865 867 872 948 862 884 948 909 857 884 917 841 894 897 874 970 905 871 908 852 885 850 871 875 908 885 863 925 878 868 861 820 877 907 892 895 916 937 825 905 943 910 925 910 922 972 966 939 900 928 890 909 941 948 929 857 933 910 920 927 877 886 891 873 879 893 903 921 896 909 844 875 941 870 925 895 918 913 892 928 893 912 907 877 858 955 913 859 881 926 965 898 895 956 853 865 883 886 929 873 922 859 893 916 868 900 856 857 908 874 905 894 920 929 881 899 885 887 904 842 914 869 862 876 882 865 938 893 937 867 905 888 906 921 928 974 945 912 988 1005 1023 1026 1043 1085 1128 1166 1152 1107 1189 1244 1233 1230 1301 1210 1250 1174 1199 1123 1153 1148 1221 1142 1065 1217 1072 1068 1012 1005 1042 1027 937 974 966 966 893 934 903 885 924 885 898 889 898 894 963 945 863 905 930 901 888 863 852 922 925 875 862 869 909 870 895 860 897 877 897 881 891 902 849 849 827 874 855 829 905 869 862 889 833 874 881 799 884 856 834 894 903 858 851 900 899 880 864 853 912 834 874 880 822 834 828 788 845 823 829 843 889 900 886 904 833 886 919 870 853 789 848 814 833 843 869 865 833 833 916 827 837 834 914 850 877 893 829 850 863 804 880 897 864 859 846 865 850 906 876 862 841 941 835 876 834 901 863 895 819 872 834 885 867 896 865 882 833 933 862 867 887 845 848 870 838 872 808 850 884 847 856 891 854 859 837 883 879 885 871 885 842 911 831 879 832 811 864 852 874 899 863 842 871 870 890 825 839 891 863 855 825 872 848 902 815 843 868 850 848 850 856 891 824 844 843 825 840 851 838 908 843 811 876 832 863 803 846 867 842 817 840 833 894 841 822 874 849 839 879 829 843 852 874 781 813 858 885 847 876 849 909 861 890 838 873 908 869 863 957 893 907 880 904 915 927 966 872 909 880 900 871 880 853 863 916 936 842 874 938 879 858 893 915 880 864 833 861 877 798 889 846 800 849 842 863 860 924 845 843 849 839 895 849 835 892 897 866 833 888 868 907 909 877 899 904 914 950 961 1013 993 1012 1070 988 1059 1035 1026 1045 1056 1050 1054 1116 1022 1137 1077 1107 1042 1024 1052 1039 1004 999 973 963 944 1010 951 946 952 1008 952 939 916 984 904 940 889 947 987 957 904 901 953 944 930 953 893 942 896 865 931 895 899 940 981 917 994 947 1015 990 976 1007 1056 1103 1127 1244 1194 1296 1418 1524 1595 1738 1784 1945 1935 1979 2048 2054 2004 2155 1991 2130 2010 2186 2056 2089 1900 1959 1873 1899 1900 1875 1733 1746 1603 1560 1522 1409 1426 1327 1337 1292 1287 1204 1181 1145 1077 1146 1132 1117 1056 1085 1045 1051 1010 977 975 964 972 915 911 916 927 921 916 895 940 952 960 941 888 887 897 936 896 931 897 920 829 944 960 908 940 922 904 903 931 928 882 922 880 928 948 891 899 876 870 893 869 857 865 861 857 897 857 854 879 813 866 835 841 877 880 844 859 815 852 899 837 925 818 954 871 846 824 886 861 834 876 853 827 848 858 887 826 849 880 800 819 817 822 862 852 906 831 833 829 910 846 839 874 828 787 838 874 806 833 855 810 854 841 804 845 795 838 862 843 829 819 797 874 914 807 828 859 826 823 824 821 844 838 844 841 838 853 793 839 874 797 836 845 857 821 827 842 878 916 801 757 819 844 826 835 824 844 827 826 825 834 838 860 838 895 868 831 812 860 852 774 853 826 851 911 848 898 918 931 888 923 881 932 1014 1034 989 1015 1020 991 1023 1032 1029 1010 969 1045 1110 1037 1066 1039 1067 1028 1008 1023 1038 990 964 958 926 943 923 962 939 954 923 927 912 961 901 905 822 906 904 903 874 884 856 880 892 849 811 907 876 839 870 803 858 839 855 830 879 851 885 834 870 826 843 862 793 837 813 867 774 861 825 831 874 872 876 890 872 820 876 858 826 903 808 931 839 867 861 816 882 895 882 854 884 844 815 880 840 817 831 802 840 859 808 855 868 836 842 869 838 791 828 781 798 795 843 834 854 846 828 872 831 862 845 822 804 840 866 798 809 768 793 826 819 798 832 829 876 837 832 843 776 771 813 835 791 832 837 850 838 819 867 858 817 906 835 856 843 874 814 928 861 900 932 945 868 885 905 870 913 905 904 863 908 904 847 895 893 842 845 860 834 850 818 842 803 759 843 815 762 829 795 834 751 813 778 818 865 843 812 822 793 782 796 854 832 791 782 757 760 799 834 805 839 772 769 767 777 794 812 785 812 770 778 778 785 755 829 767 815 778 781 782 831 805 808 855 814 819 806 922 791 821 818 783 829 814 853 790 799 819 775 785 809 790 815 792 808 834 856 791 783 755 802 801 850 765 763 792 794 784 782 765 775 833 855 811 775 768 819 775 778 791 811 839 771 747 792 786 766 805 770 759 772 818 835 751 776 780 782 799 813 868 766 858 774 847 748 818 757 781 781 804 777 791 785 770 812 775 746 794 724 802 773 725 765 757 761 738 853 788 787 762 798 754 779 833 784 823 826 805 803 771 816 820 758 776 797 765 761 839 803 808 747 815 764 825 805 777 786 784 776 818 770 742 771 781 756 791 768 807 762 783 842 745 809 812 755 777 773 755 821 836 803 757 813 810 790 751 795 786 795 765 797 776 783 807 758 792 782 765 752 732 793 822 829 787 743 786 801 765 760 805 790 806 749 767 745 768 743 822 816 774 767 772 706 826 797 752 816 802 744 759 755 778 757 738 772 765 806 791 761 787 808 826 810 825 808 722 776 825 773 768 825 830 749 783 820 761 757 790 799 829 775 814 778 793 771 789 786 803 769 784 797 765 799 796 756 745 775 827 803 824 773 776 786 798 776 813 806 787 716 777 776 793 821 787 734 805 782 816 756 733 818 760 769 786 750 773 774 730 767 815 793 804 781 780 803 772 784 757 758 812 765 834 767 784 759 798 753 777 805 768 814 769 738 803 743 783 758 782 776 725 747 760 785 804 744 788 801 758 798 778 773 756 738 753 789 743 790 780 762 788 767 806 767 862 786 831 817 795 841 757 862 794 862 830 873 840 821 814 799 840 849 795 750 797 804 833 806 812 781 870 779 814 785 821 795 779 763 783 748 788 795 770 767 823 829 761 767 800 740 794 777 776 746 788 769 762 838 759 809 820 800 766 860 775 836 805 798 838 755 823 841 875 837 895 900 819 871 919 866 908 953 884 853 936 965 877 961 903 943 908 930 932 939 902 894 881 905 913 888 907 873 873 895 911 915 920 908 887 789 848 885 874 860 845 835 835 893 887 829 825 850 846 800 795 778 835 785 824 848 825 860 804 828 793 816 813 842 820 801 794 809 841 825 868 834 829 747 812 798 821 789 771 801 780 816 722 812 789 814 818 744 772 812 831 771 838 776 765 771 843 750 800 791 801 791 775 758 794 728 794 779 796 781 792 792 818 810 792 764 743 801 789 792 760 761 784 730 788 803 798 732 781 735 848 815 808 802 767 810 765 779 823 775 788 777 806 769 779 775 765 783 772 802 762 788 765 757 772 773 762 762 785 778 782 743 725 766 741 781 781 718 763 733 722 772 743 762 818 768 812 768 833 764 725 712 731 754 737 792 737 804 768 736 773 771 752 830 768 797 764 794 767 736 736 790 728 768 813 744 759 739 758 777 771 794 715 707 754 762 798 800 748 772 818 792 779 772 794 763 748 818 765 819 778 832 801 709 776 789 867 769 832 810 811 828 818 757 822 719 886 757 830 842 859 801 803 814 852 871 824 820 834 904 822 932 952 1000 976 1013 948 1086 991 1042 1031 1054 1121 1153 1141 1165 1148 1211 1165 1159 1156 1218 1195 1161 1115 1161 1119 1090 1163 1162 1120 1038 1043 1041 1019 1028 1035 977 1017 944 1015 887 924 866 816 848 854 791 801 855 840 794 860 866 824 861 831 775 808 852 856 792 786 897 792 770 840 818 814 861 843 833 851 783 806 756 773 865 806 870 817 817 794 782 797 796 837 816 837 773 838 801 807 745 775 795 777 788 821 785 752 806 781 749 806 779 795 779 804 760 768 776 732 780 737 751 732 819 767 761 748 714 731 713 759 782 749 754 765 716 816 740 789 732 784 717 753 736 753 739 711 766 765 788 795 763 740 772 769 772 728 831 776 800 742 809 777 751 744 795 801 747 809 763 827 761 731 802 760 754 792 759 746 790 751 776 739 758 735 723 708 734 764 750 743 740 766 786 746 745 732 768 751 713 826 772 781 780 787 782 778 817 825 859 837 801 856 861 830 796 921 913 878 817 816 825 778 829 831 868 812 840 804 871 813 826 816 848 862 798 768 822 790 795 824 765 795 762 779 796 790 811 754 815 730 784 741 774 781 801 808 712 751 813 774 742 725 722 759 754 786 798 746 765 745 748 792 732 728 747 708 757 722 747 692 748 776 768 751 792 718 746 755 775 780 702 715 749 726 734 771 726 735 759 779 720 721 757 749 701 796 722 759 746 725 783 769 751 769 719 771 735 746 715 750 729 717 702 752 760 753 743 771 775 719 734 677 751 750 700 717 724 710 780 784 779 731 746 700 735 739 772 743 717 784 759 746 722 788 767 777 787 770 807 770 770 802 828 798 765 817 761 758 800 804 820 794 790 800 850 740 790 796 779 801 783 748 766 787 777 767 758 739 825 741 681 736 773 770 735 743 797 778 783 728 735 712 742 768 699 805 686 733 778 759 747 749 736 765 708 744 797 767 718 743 756 737 773 731 687 698 744 732 731 733 786 775 758 737 753 704 721 696 724 726 763 749 815 758 745 704 693 734 764 714 752 708 679 728 722 756 705 710 754 754 744 740 752 731 717 751 717 736 711 736 734 748 783 720 765 748 705 774 771 738 776 737 773 743 726 722 747 735 739 724 751 743 720 770 685 705 718 740 710 731 727 711 742 742 697 746 768 727 766 725 658 716 728 742 729 715 722 723 732 721 775 745 771 722 757 711 750 782 671 703 719 747 776 756 740 727 717 728 746 716 734 725 775 756 750 681 729 681 723 728 716 719 772 737 726 717 751 790 750 737 743 692 761 769 749 739 721 711 727 743 773 731 753 720 766 745 754 724 739 752 778 760 700 757 725 805 751 750 745 716 746 776 759 819 775 763 723 711 779 717 767 752 788 709 769 738 765 699 711 758 783 736 735 773 798 805 744 749 711 768 743 729 704 731 736 703 728 742 769 756 740 757 713 689 714 737 746 719 750 748 746 752 737 721 706 750 727 729 792 708 700 740 702 746 759 739 746 732 741 771 764 701 766 686 771 693 742 705 755 706 749 771 708 748 699 759 755 792 689 753 746 701 766 742 716 765 780 761 778 760 730 763 737 736 762 719 734 747 757 671 780 777 683 727 782 749 783 757 737 760 770 786 781 785 720 729 802 783 758 778 833 851 808 805 855 780 769 785 842 782 756 802 748 786 772 745 765 756 728 759 751 771 756 772 736 773 777 718 774 746 728 783 743 733 689 721 754 759 763 715 756 709 723 690 765 719 719 775 702 733 738 762 727 755 744 724 724 724 747 759 709 740 740 752 767 734 710 737 732 771 749 731 718 759 713 742 663 779 717 759 722 727 715 724 718 744 774 743 778 737 668 688 748 735 757 729 739 714 701 675 744 709 742 705 766 686 717 720 749 753 690 711 727 713 753 736 768 706 737 729 775 744 698 738 679 707 712 746 744 797 730 737 740 673 718 726 737 696 724 709 681 689 725 735 759 704 797 788 713 756 763 718 723 718 701 690 801 733 727 669 727 743 733 708 752 713 732 709 729 743 754 699 714 726 751 740 723 657 709 728 724 715 684 727 733 712 722 752 747 721 727 772 742 711 722 794 723 735 769 691 735 725 716 748 709 783 746 687 771 714 789 732 775 745 719 723 718 706 753 746 706 697 725 710 759 699 727 732 762 700 681 711 735 743 742 768 717 810 718 689 709 733 747 719 719 737 729 775 780 702 735 768 729 692 739 746 765 742 726 704 690 707 685 727 779 743 712 719 737 764 742 744 774 763 758 750 764 742 724 732 786 834 764 743 770 795 736 773 776 794 866 829 787 841 838 834 784 831 831 894 882 800 884 820 777 843 823 885 842 850 872 858 807 809 853 814 860 840 790 858 772 844 875 813 753 828 783 851 857 795 817 781 803 760 775 783 803 782 763 782 758 741 773 774 793 747 807 768 701 730 739 758 778 736 760 758 777 771 712 716 733 694 769 783 763 734 737 729 720 684 759 736 732 725 714 805 702 786 717 742 653 721 727 716 711 746 738 704 721 679 734 719 734 772 679 731 772 754 711 745 681 737 763 742 738 680 682 743 671 731 765 770 711 735 712 753 732 727 767 745 710 739 775 751 705 716 718 735 706 732 728 767 747 725 780 768 731 763 709 760 725 763 684 749 748 744 722 727 708 704 687 694 719 705 697 705 698 720 716 689 721 732 734 733 758 683 749 760 700 759 734 723 749 711 693 740 737 717 775 747 754 706 726 735 701 717 770 733 696 705 748 721 728 745 792 685 759 759 726 667 752 696 690 726 751 696 758 705 766 745 716 759 762 708 759 713 718 708 733 722 737 764 716 777 720 750 714 773 746 742 726 728 701 738 694 722 714 693 752 722 720 736 721 713 720 716 682 779 756 764 730 730 743 723 736 783 734 722 755 745 711 752 705 751 724 718 775 779 672 721 740 728 713 743 826 709 778 748 715 698 733 712 761 779 746 733 700 710 789 738 780 734 742 750 748 718 730 762 718 673 711 713 717 700 736 686 688 723 719 694 709 736 745 722 683 739 730 664 735 721 742 780 738 762 688 725 721 745 688 738 696 712 709 742 718 732 747 763 766 715 733 756 722 718 696 710 678 717 766 753 697 748 750 702 683 692 708 674 683 755 723 778 752 736 733 746 707 720 741 733 750 698 706 757 726 727 706 748 712 692 687 723 722 740 742 695 704 703 728 734 700 706 700 753 706 722 738 720 746 729 752 755 678 746 703 739 751 768 761 740 671 772 696 708 740 778 758 688 727 738 682 713 749 718 734 752 702 721 721 751 743 733 720 762 683 711 720 748 735 737 796 765 813 738 698 722 730 740 727 729 778 760 751 763 781 720 785 734 709 718 714 760 710 741 764 722 747 689 732 760 734 733 713 752 733 773 687 751 749 722 750 732 764 759 739 664 711 703 670 681 742 720 751 722 768 738 750 682 720 712 719 786 699 707 740 741 695 717 685 727 704 733 769 729 722 681 716 728 680 732 687 725 732 783 718 786 727 770 734 759 694 733 748 738 740 727 726 697 735 716 722 741 709 749 724 731 744 708 749 712 733 725 766 753 772 727 772 734 765 709 784 713 750 751 689 730 778 692 714 703 716 725 687 704 726 755 785 751 728 675 708 770 759 749 793 730 701 756 790 736 714 729 764 719 759 740 742 749 736 700 703 691 719 709 781 716 814 788 749 742 688 730 748 728 711 722 752 749 754 751 723 779 786 755 760 742 779 715 730 682 747 748 748 728 753 774 721 719 730 740 751 774 802 748 809 753 784 763 704 801 825 786 770 821 777 825 750 801 800 761 796 763 835 818 804 786 794 785 818 794 777 792 751 802 777 762 772 795 797 810 865 830 836 797 827 828 778 812 792 822 771 807 730 783 766 748 755 772 812 807 834 773 778 812 773 810 758 840 804 826 743 793 780 793 815 793 801 775 770 790 790 821 846 809 721 738 827 796 786 777 748 756 814 722 810 723 750 760 771 783 777 753 727 792 752 745 749 772 748 749 790 741 742 749 750 754 764 716 756 732 760 784 781 738 747 699 807 757 759 732 748 740 712 739 768 729 766 770 797 705 767 724 708 720 747 711 729 787 714 744 788 782 755 715 700 753 719 716 702 774 715 752 752 766 699 772 784 746 797 761 750 771 790 836 718 740 739 739 775 743 770 745 786 750 771 762 802 741 732 738 793 720 779 722 773 770 752 762 754 802 742 767 775 788 786 731 753 726 797 773 713 836 743 738 770 811 736 778 742 840 779 758 817 774 778 788 800 756 780 769 817 736 749 780 825 711 782 784 809 779 776 803 773 815 727 754 772 787 795 755 800 774 782 775 802 772 790 786 761 822 811 825 784 743 843 743 787 708 707 779 780 787 758 743 806 797 818 759 723 748 774 781 815 768 790 793 802 824 789 776 804 817 819 811 846 880 862 934 972 898 947 906 906 944 937 1005 1019 993 1024 989 1022 1024 1032 1036 1005 1011 997 1032 998 1003 1040 960 1037 1018 971 989 975 1034 984 976 951 967 946 1014 934 946 936 945 919 943 917 903 937 872 879 895 883 826 824 810 820 874 844 844 794 813 749 793 865 796 773 843 748 770 824 791 798 795 765 745 742 730 776 827 749 766 792 714 804 757 742 800 738 748 730 780 777 766 747 739 804 721 779 737 756 766 705 789 753 768 788 740 753 743 741 727 774 765 795 765 762 736 720 770 715 754 752 735 707 721 777 779 711 748 743 793 719 789 717 735 774 749 778 704 774 689 759 784 689 759 776 756 730 758 781 780 787 722 709 718 706 744 690 763 731 740 747 726 770 744 795 748 727 751 755 762 704 734 727 733 704 736 765 745 806 796 790 715 757 747 771 777 763 812 736 752 744 737 781 782 755 754 816 798 743 713 750 783 767 651 742 756 732 732 741 747 732 741 776 756 744 776 783 750 762 765 712 754 779 736 771 707 697 786 777 711 712 690 719 712 777 776 748 736 728 763 703 729 785 721 743 735 742 755 775 713 746 715 791 775 740 721 754 746 734 708 743 764 669 726 697 718 774 813 768 807 747 744 750 749 727 774 775 778 737 729 801 747 728 808 739 793 793 719 762 776 771 736 753 769 783 740 791 721 804 738 760 785 751 767 736 756 694 746 720 788 755 732 745 716 739 767 721 731 758 682 821 743 759 694 739 742 707 743 772 733 679 735 745 707 715 722 712 723 722 787 694 707 759 736 717 732 720 742 754 713 673 714 731 747 714 763 713 763 728 745 709 713 694 811 701 735 705 766 735 720 737 661 731 713 704 745 780 701 748 725 743 720 692 712 748 706 716 760 702 695 727 745 661 764 679 731 673 814 731 717 703 737 697 741 742 740 748 747 682 717 741 721 692 714 716 740 680 764 735 735 680 746 751 732 735 678 695 714 743 738 739 714 723 757 730 688 694 717 721 794 728 756 687 755 712 714 760 682 752 752 743 722 681 734 687 724 741 735 662 674 719 759 745 733 721 705 715 685 711 705 684 714 753 722 724 763 718 773 714 696 753 751 724 747 716 726 645 765 717 750 759 698 676 753 679 714 693 771 691 697 731 750 728 705 718 713 721 722 691 694 705 691 748 743 739 731 696 720 756 733 715 685 768 726 698 691 693 733 726 655 723 707 754 716 655 711 719 723 717 718 722 730 756 687 671 679 747 711 703 743 737 717 729 692 716 748 718 737 738 717 673 687 707 725 733 756 680 751 717 666 730 734 721 688 740 701 695 711 746 774 716 697 699 712 758 717 723 720 721 734 714 745 756 726 728 728 716 714 682 682 730 735 740 677 709 685 737 703 732 732 697 735 708 690 707 759 710 709 684 707 735 745 751 718 696 748 728 754 712 718 697 740 702 769 731 768 734 790 724 741 778 739 702 746 756 777 765 697 737 738 741 712 808 772 796 749 762 767 723 717 738 803 739 777 772 757 779 700 728 714 763 749 707 737 765 743 695 755 718 779 790 710 705 702 746 796 736 758 730 740 700 767 755 702 716 741 716 734 774 716 722 690 763 748 781 759 721 697 712 687 692 815 728 771 695 700 737 829 780 714 725 735 757 768 709 698 686 707 743 686 718 695 775 711 716 696 716 723 721 760 692 727 742 712 698 701 708 711 713 790 707 722 744 762 726 720 717 736 690 741 731 767 718 755 750 718 776 715 713 759 759 724 738 755 717 740 707 728 728 728 784 757 740 682 746 774 690 700 737 721 794 765 721 700 789 743 778 700 747 775 698 780 774 721 701 719 760 731 698 705 741 716 739 803 755 739 675 725 715 709 725 746 734 688 685 763 755 734 699 727 708 715 737 739 708 774 717 713 729 731 687 687 688 733 744 692 715 712 713 649 731 754 714 766 737 702 733 705 701 718 701 729 721 717 735 689 762 734 719 708 694 708 728 750 732 768 743 734 665 697 718 703 731 731 738 718 722 719 717 708 762 692 742 722 745 746 762 717 672 677 706 720 697 715 705 759 758 715 747 778 752 714 729 757 743 783 731 801 777 789 728 752 819 783 783 787 764 787 824 804 785 866 810 892 831 785 839 838 879 853 849 804 866 836 816 838 812 832 859 816 807 830 847 869 810 867 815 816 801 906 817 827 877 848 838 825 833 801 827 787 849 786 783 787 800 808 806 836 824 790 770 776 799 760 725 781 780 723 758 776 802 763 756 824 750 805 736 790 724 744 759 752 779 778 726 704 759 736 756 702 728 743 762 766 688 744 755 729 761 680 785 711 736 754 702 764 715 740 756 744 687 736 711 714 747 737 754 735 782 744 740 691 718 750 709 752 730 713 728 744 708 733 701 780 747 722 730 796 739 699 691 735 766 721 684 669 694 686 712 695 761 747 740 716 711 697 689 683 745 713 726 736 723 741 736 740 717 724 717 698 681 732 754 748 714 732 703 731 755 698 736 719 737 721 734 715 771 754 718 764 709 742 765 747 768 775 719 763 732 800 741 745 720 734 788 722 671 713 754 727 720 765 732 721 740 778 749 769 670 724 673 735 704 696 753 745 720 755 759 772 737 740 717 685 677 764 706 739 678 697 720 689 774 713 693 707 656 721 736 652 732 710 705 731 691 751 708 721 688 705 716 726 743 718 763 653 711 738 693 709 710 665 657 666 729 721 663 731 728 714 744 664 709 656 763 733 715 726 738 713 704 752 724 752 732 700 724 665 714 718 719 775 684 677 709 722 715 704 699 723 684 756 693 686 700 700 737 735 742 734 751 721 717 714 706 714 681 774 682 682 688 702 724 709 662 662 696 715 661 689 716 704 677 698 693 712 687 706 706 736 694 734 698 744 716 683 689 746 708 711 732 714 690 708 740 712 697 731 751 720 733 699 707 634 684 754 711 683 689 682 683 745 730 747 749 703 686 731 699 724 720 699 734 716 708 694 699 689 738 692 691 702 708 705 691 720 742 683 748 741 718 735 671 708 662 714 697 712 699 695 701 721 710 730 747 722 734 706 739 698 676 705 738 700 700 723 695 696 725 777 783 690 699 720 712 672 748 707 709 682 676 755 704 718 712 703 721 692 693 745 731 712 749 710 692 668 637 729 719 687 699 729 738 734 703 654 727 743 683 686 731 707 662 721 680 711 710 671 710 733 698 718 694 708 688 728 721 690 737 743 722 780 782 765 737 721 681 716 727 728 730 686 716 700 703 731 670 700 697 732 733 690 712 659 712 696 721 717 678 733 723 668 712 705 654 722 702 733 702 700 760 707 692 702 712 733 699 733 743 703 695 781 723 725 711 699 709 671 727 709 702 770 738 734 743 684 744 706 720 733 730 718 716 720 691 738 782 714 731 744 710 692 731 724 694 753 739 741 723 710 675 743 742 740 699 721 718 667 703 676 702 694 734 789 700 702 673 729 718 747 698 706 714 680 734 693 706 715 702 737 724 697 716 728 719 707 743 710 657 718 681 758 743 674 709 752 674 764 698 784 707 791 724 742 738 747 707 761 742 722 714 711 703 777 806 685 770 780 737 716 722 773 729 756 749 706 743 777 732 749 730 724 750 821 758 749 772</counts>
			</dataPoints>
		</scan>
	</xrdMeasurement>
</xrdMeasurements>
