<?xml version="1.0"?>
<xrdMeasurements xmlns="http://www.xrdml.com/XRDMeasurement/2.3" xmlns:xsi="http://www.w3.org/2001/XMLSchema-instance" xsi:schemaLocation="http://www.xrdml.com/XRDMeasurement/2.3 http://www.xrdml.com/XRDMeasurement/2.3/XRDMeasurement.xsd" status="Completed" recordIdentifier="{21552F52-A1EB-4476-914C-5B53887C13E3}">
	<comment>
		<entry/>
	</comment>
	<sample type="To be analyzed">
		<id>GPSS_Li1p6In0p2Mg0p6Sc0p2Cl4_102025_68f7253b028f64128e25d093</id>
		<name></name>
		<preparedBy></preparedBy>
	</sample>
	<xrdMeasurement measurementType="Scan" status="Completed" sampleMode="Reflection">
		<usedWavelength intended="K-Alpha 1">
			<kAlpha1 unit="Angstrom">1.5405980</kAlpha1>
			<kAlpha2 unit="Angstrom">1.5444260</kAlpha2>
			<kBeta unit="Angstrom">1.3922500</kBeta>
			<ratioKAlpha2KAlpha1>0.5000</ratioKAlpha2KAlpha1>
		</usedWavelength>
		<incidentBeamPath>
			<radius unit="mm">145.00</radius>
			<xRayTube id="1010048" name="Empyrean Cu LFF HR (9430 033 7310x)">
				<tension unit="kV">40.0</tension>
				<current unit="mA">15.0</current>
				<anodeMaterial>Cu</anodeMaterial>
				<focus type="Line">
					<length unit="mm">12.0</length>
					<width unit="mm">0.4</width>
					<takeOffAngle unit="deg">6.0</takeOffAngle>
				</focus>
			</xRayTube>
			<sollerSlit id="21010002" name="Soller slits 0.04 rad.">
				<opening unit="rad">0.0400</opening>
			</sollerSlit>
			<mask id="22031000" name="Fixed mask 13 mm">
				<width unit="mm">9.00</width>
			</mask>
			<divergenceSlit id="22120001" name="Divergence slit 1°" xsi:type="fixedDivergenceSlitType">
				<distanceToSample unit="mm">50.00</distanceToSample>
				<height unit="mm">1.52</height>
			</divergenceSlit>
		</incidentBeamPath>
		<sampleMovement xsi:type="spinningSampleMovementType">
			<spinnerRevolutionTime unit="seconds">1.0</spinnerRevolutionTime>
		</sampleMovement>
		<diffractedBeamPath>
			<radius unit="mm">145.00</radius>
			<antiScatterSlit id="22090040" name="AS slit 9 mm (PIXcel)" xsi:type="fixedAntiScatterSlitType">
				<height unit="mm">9.00</height>
			</antiScatterSlit>
			<sollerSlit id="21020003" name="Large Soller slits 0.04 rad.">
				<opening unit="rad">0.0400</opening>
			</sollerSlit>
			<filter id="20030001" name="Large beta-filter Nickel">
				<material>Ni</material>
				<thickness unit="mm">0.020</thickness>
			</filter>
			<detector id="7010019" name="PIXcel1D-Medipix3 detector" xsi:type="rtmsDetectorType">
				<phd unit="keV">
					<lowerLevel>4.02</lowerLevel>
					<upperLevel>11.27</upperLevel>
				</phd>
				<mode>Scanning</mode>
				<activeLength unit="deg">5.542</activeLength>
			</detector>
		</diffractedBeamPath>
		<scan appendNumber="0" mode="Continuous" scanAxis="Gonio" status="Completed">
			<header>
				<startTimeStamp>2025-10-26T16:45:46-07:00</startTimeStamp>
				<endTimeStamp>2025-10-26T16:53:54-07:00</endTimeStamp>
				<author>
					<name>AutomatedUser</name>
				</author>
				<source>
					<applicationSoftware version="1.7b (136)">PANalytical Aeris Instrument Suite</applicationSoftware>
					<instrumentControlSoftware version="3.2.00000000 20240306">AERIS</instrumentControlSoftware>
					<instrumentID>950485</instrumentID>
				</source>
			</header>
			<dataPoints>
				<positions axis="2Theta" unit="deg">
					<startPosition>10.00943322</startPosition>
					<endPosition>99.99442286</endPosition>
				</positions>
				<positions axis="Omega" unit="deg">
					<startPosition>5.00471661</startPosition>
					<endPosition>49.99721143</endPosition>
				</positions>
				<commonCountingTime unit="seconds">12.495</commonCountingTime>
				<counts unit="counts">2880 2934 2800 2881 2872 3013 2929 2918 2920 2922 2960 2988 2955 2897 2951 2941 2877 2922 2944 3011 2948 2992 2866 2910 2875 2919 2884 2955 2855 3007 2949 2991 3000 2893 2913 2963 2993 3012 2921 3076 2967 2953 3000 2934 2899 2932 3001 3048 2975 3127 2814 2996 2956 2969 2935 2999 3067 3067 2956 2962 3028 3034 2985 3024 2970 2948 3053 2978 3052 3063 2989 3013 3018 2926 2959 3034 3086 3039 3112 2985 3058 2999 3073 3099 3038 3055 3067 3053 3034 2985 3072 3023 3045 3042 3110 3125 3010 3118 3069 3210 3095 3116 3065 3145 3173 3189 3054 3149 3062 2990 3038 3126 3138 3171 3207 3139 3236 3089 3216 3096 3123 3136 3004 2978 2971 3080 3177 3012 3124 3064 3039 3006 3134 2994 3014 3060 3048 3166 3064 3048 3155 3083 3115 3038 2972 3050 3105 3055 3074 2963 3182 3104 3130 3009 3085 3046 3154 3058 3079 3100 3005 3124 3054 2998 3127 3064 3057 3087 3133 3070 3092 3027 3081 3017 3176 3008 3194 3086 3037 3102 2967 3102 3085 2966 3005 3052 3032 3116 3119 3008 2968 3143 3036 3066 3046 3056 2967 3048 3053 3019 3162 3037 3012 3081 3098 2895 2967 3015 2934 2972 2810 2969 3051 2969 3005 3115 2979 2992 2937 3002 3092 3045 2966 3008 3049 2911 2915 2856 3010 3019 2884 2983 2985 2909 2937 3034 2865 2978 2955 2915 2849 2932 2886 2967 3011 2852 2927 2843 2918 2878 2942 2875 2942 2910 3048 3010 2921 2863 2902 2925 2858 2917 2951 2862 2948 2853 2860 2865 2944 2881 2772 2928 2823 2900 2876 2910 2902 2960 2957 2907 2986 2932 2951 2854 2938 2828 2851 2911 2959 2910 2936 2870 2822 2849 2893 2908 2997 2947 2988 2983 2952 2889 2955 3049 2819 3033 2858 2831 3078 2901 2912 2946 2940 3008 2887 3038 3026 2980 2980 2990 2951 3047 3017 2973 3000 2897 2913 3048 2993 2952 2997 2949 3016 2962 3011 3031 2952 2990 3041 3005 2954 3100 2969 2932 3099 3102 3108 3054 3071 3010 3104 2987 3084 2990 3088 3076 3194 3134 3062 3065 3081 3061 3160 3119 3228 3207 3058 3213 3209 3123 3129 3030 3184 3122 3168 3132 3171 3269 3241 3177 3185 3302 3331 3228 3251 3284 3253 3225 3347 3195 3245 3348 3306 3289 3357 3300 3440 3441 3359 3324 3270 3308 3271 3368 3436 3401 3395 3392 3533 3437 3538 3378 3529 3528 3565 3666 3714 3712 3772 3682 3813 3803 3716 3742 3815 3749 3733 3730 3511 3548 3511 3642 3470 3510 3512 3532 3486 3525 3428 3492 3430 3453 3435 3499 3454 3501 3472 3490 3535 3496 3547 3697 3572 3712 3510 3655 3676 3612 3626 3799 3668 3652 3838 3775 3738 3682 3785 3710 3683 3669 3620 3711 3453 3541 3442 3401 3405 3331 3327 3361 3260 3256 3190 3255 3218 3160 3187 3226 3269 3292 3112 3198 3239 3293 3166 3261 3194 3151 3187 3136 3227 3125 3099 3151 3158 3097 3182 2991 3024 3187 3157 3112 3215 3142 3046 3108 2994 3019 3087 3194 3060 3094 3042 3038 3095 3089 3091 3109 3030 3053 3023 2976 3025 3003 2975 3002 3021 3072 2981 3134 2943 3044 2935 2932 2969 3065 3019 2960 2978 2963 3059 3110 2968 2950 3089 3010 3133 2963 2868 2962 2915 2929 2869 2868 2911 2903 2836 2882 2794 2870 2938 2808 2902 2840 2832 2881 2818 2826 2825 2823 2781 2934 2829 2811 2791 2867 2760 2912 2863 2780 2711 2840 2752 2819 2820 2712 2873 2831 2775 2780 2664 2738 2684 2737 2826 2802 2799 2756 2657 2712 2716 2701 2666 2705 2614 2717 2652 2802 2769 2654 2685 2637 2790 2681 2629 2724 2674 2737 2678 2670 2570 2645 2593 2576 2711 2609 2700 2678 2711 2676 2651 2661 2711 2619 2608 2704 2685 2767 2701 2639 2601 2588 2662 2626 2625 2520 2545 2630 2646 2683 2572 2606 2681 2632 2627 2674 2590 2680 2511 2572 2606 2625 2608 2533 2589 2595 2568 2648 2513 2569 2574 2591 2613 2513 2625 2543 2590 2603 2528 2478 2596 2592 2596 2637 2736 2563 2663 2549 2586 2556 2532 2663 2537 2544 2566 2581 2600 2551 2547 2588 2538 2454 2545 2558 2573 2615 2510 2619 2541 2627 2565 2553 2509 2537 2477 2548 2483 2675 2538 2515 2553 2512 2579 2568 2622 2545 2619 2518 2545 2510 2547 2547 2519 2509 2514 2509 2488 2474 2536 2572 2488 2556 2585 2468 2522 2447 2552 2410 2418 2533 2528 2505 2468 2432 2558 2463 2456 2556 2460 2453 2415 2489 2416 2444 2469 2540 2480 2450 2461 2457 2486 2457 2471 2471 2492 2476 2454 2486 2372 2532 2462 2504 2475 2450 2537 2514 2459 2453 2469 2517 2494 2393 2509 2449 2436 2434 2498 2411 2360 2419 2521 2407 2396 2407 2400 2378 2400 2463 2346 2385 2454 2398 2470 2498 2391 2413 2409 2427 2363 2435 2398 2352 2428 2365 2522 2460 2401 2331 2395 2475 2339 2332 2294 2314 2402 2430 2378 2354 2427 2334 2417 2368 2454 2417 2315 2332 2381 2338 2391 2323 2333 2378 2346 2341 2278 2350 2338 2329 2451 2326 2301 2316 2289 2422 2341 2363 2259 2370 2288 2297 2326 2253 2371 2321 2329 2326 2339 2262 2354 2323 2304 2343 2344 2346 2230 2255 2267 2364 2344 2270 2340 2385 2303 2345 2237 2334 2293 2255 2325 2221 2270 2283 2304 2237 2316 2283 2276 2228 2299 2263 2271 2256 2265 2251 2273 2361 2298 2289 2276 2189 2246 2325 2296 2358 2315 2201 2310 2238 2251 2233 2229 2187 2321 2213 2197 2198 2256 2205 2344 2192 2210 2268 2271 2163 2223 2155 2222 2264 2230 2334 2210 2215 2261 2170 2194 2215 2194 2197 2222 2175 2145 2218 2149 2213 2159 2200 2226 2194 2213 2238 2310 2215 2143 2183 2202 2258 2226 2185 2227 2245 2215 2210 2214 2263 2168 2323 2220 2240 2307 2145 2295 2216 2136 2146 2281 2202 2189 2084 2204 2121 2164 2178 2091 2142 2177 2262 2169 2255 2238 2185 2161 2249 2244 2183 2121 2171 2286 2283 2224 2232 2147 2176 2264 2298 2238 2191 2258 2255 2169 2236 2199 2231 2160 2215 2176 2257 2196 2099 2191 2172 2184 2290 2191 2185 2147 2158 2151 2149 2292 2287 2175 2222 2210 2285 2186 2192 2267 2115 2151 2157 2129 2271 2172 2187 2132 2207 2185 2196 2168 2213 2147 2177 2236 2153 2221 2205 2186 2188 2202 2123 2153 2175 2224 2190 2227 2188 2240 2227 2233 2284 2244 2212 2250 2161 2117 2279 2182 2172 2179 2137 2198 2175 2218 2251 2178 2181 2103 2137 2172 2170 2155 2163 2057 2165 2197 2119 2177 2089 2178 2237 2080 2251 2197 2210 2208 2166 2200 2204 2205 2189 2205 2151 2129 2130 2103 2088 2173 2148 2141 2084 2165 2154 2150 2143 2149 2191 2140 2085 2092 2127 2135 2148 2133 2109 2046 2086 2038 2120 2028 2006 2000 1973 2123 1981 2057 2055 2052 2034 2089 2091 2028 1965 1965 2013 1960 2004 1986 1959 2010 1957 2006 1936 1964 1981 2008 1898 1940 1891 1989 1951 2002 1949 1940 1931 1926 1997 1997 1908 1912 1886 1964 1968 1924 1845 1916 1939 1911 1861 1899 1931 1926 1796 1933 1827 1861 1881 1886 1854 1776 1866 1802 1876 1871 1891 1868 1736 1747 1790 1782 1713 1854 1738 1775 1817 1765 1717 1806 1818 1741 1741 1761 1716 1734 1801 1762 1731 1690 1700 1704 1733 1725 1632 1710 1681 1702 1683 1776 1717 1735 1643 1728 1657 1637 1717 1607 1654 1684 1672 1667 1669 1771 1654 1600 1698 1676 1680 1610 1664 1739 1659 1602 1687 1719 1632 1691 1649 1519 1620 1667 1590 1644 1676 1598 1627 1614 1627 1631 1652 1580 1616 1545 1613 1638 1615 1557 1643 1618 1592 1572 1593 1555 1501 1634 1470 1634 1540 1527 1551 1633 1555 1551 1555 1618 1631 1628 1513 1536 1532 1520 1531 1559 1513 1584 1590 1561 1613 1619 1519 1584 1519 1519 1467 1581 1516 1511 1654 1491 1558 1642 1638 1561 1646 1548 1564 1641 1573 1575 1551 1550 1644 1536 1635 1573 1553 1547 1537 1521 1559 1560 1624 1531 1475 1524 1512 1418 1572 1459 1465 1509 1529 1546 1572 1522 1487 1542 1552 1568 1527 1573 1594 1568 1512 1525 1545 1562 1572 1546 1493 1532 1563 1592 1581 1611 1564 1539 1478 1484 1551 1501 1483 1541 1547 1598 1526 1526 1565 1543 1532 1584 1474 1540 1458 1500 1492 1524 1510 1526 1547 1528 1501 1581 1482 1477 1504 1524 1552 1586 1501 1449 1539 1486 1521 1484 1511 1506 1433 1598 1457 1519 1513 1490 1527 1444 1475 1512 1543 1503 1454 1468 1560 1485 1503 1474 1456 1534 1508 1499 1507 1471 1533 1505 1499 1537 1515 1507 1539 1508 1463 1566 1476 1423 1577 1501 1468 1505 1534 1529 1544 1491 1502 1508 1499 1491 1523 1490 1570 1548 1489 1506 1460 1504 1492 1536 1464 1483 1511 1551 1541 1502 1492 1546 1554 1540 1490 1461 1591 1593 1497 1579 1524 1517 1500 1544 1407 1565 1409 1525 1426 1515 1437 1441 1400 1513 1420 1407 1554 1500 1399 1460 1494 1407 1403 1384 1427 1393 1447 1473 1411 1498 1441 1464 1490 1352 1390 1388 1435 1356 1396 1354 1386 1372 1383 1378 1334 1391 1348 1369 1296 1397 1331 1289 1339 1381 1339 1378 1315 1352 1323 1337 1350 1345 1305 1330 1274 1301 1337 1271 1291 1378 1315 1324 1242 1251 1253 1285 1280 1227 1298 1284 1271 1306 1291 1301 1206 1266 1245 1178 1285 1244 1283 1199 1286 1243 1223 1177 1180 1195 1196 1195 1200 1194 1258 1250 1226 1280 1243 1157 1289 1240 1253 1149 1225 1195 1207 1152 1207 1185 1228 1181 1196 1222 1191 1200 1208 1201 1172 1183 1128 1222 1164 1139 1144 1178 1251 1189 1182 1154 1213 1185 1244 1234 1238 1274 1324 1241 1247 1285 1329 1308 1256 1312 1252 1299 1289 1250 1245 1215 1151 1177 1156 1158 1149 1088 1088 1118 1120 1119 1130 1124 1183 1162 1171 1171 1143 1143 1149 1121 1077 1141 1135 1225 1217 1210 1142 1146 1205 1180 1130 1163 1204 1164 1175 1146 1117 1102 1194 1134 1101 1151 1085 1131 1087 1138 1030 1147 1106 1118 1105 1034 1086 1116 1078 1045 1079 1049 1056 1095 1030 1057 1048 1094 1066 1091 1090 1049 1097 1036 1057 1120 1010 1135 1070 1120 1107 1103 1190 1113 1126 1108 1129 1135 1174 1055 1159 1096 1142 1138 1238 1245 1239 1274 1315 1383 1413 1532 1628 1742 1783 2002 2203 2330 2573 2692 3051 3105 3203 3379 3328 3439 3229 3196 3042 2917 2709 2602 2438 2275 2304 1997 1888 1792 1686 1658 1645 1668 1656 1648 1563 1627 1595 1640 1637 1708 1760 1709 1796 1922 2087 2154 2229 2231 2318 2368 2497 2482 2521 2597 2622 2677 2673 2617 2554 2600 2410 2443 2262 2298 2240 2172 1965 1926 1842 1724 1681 1563 1502 1419 1429 1404 1304 1415 1243 1273 1191 1147 1208 1040 1086 1073 1063 1035 1022 1018 1053 989 983 989 971 964 1003 971 948 927 963 947 956 954 878 894 930 902 884 826 893 860 923 899 889 925 839 912 869 888 852 816 846 866 914 836 927 824 883 818 845 829 873 859 839 846 866 915 805 885 870 883 828 843 834 810 825 829 830 851 847 848 818 844 825 786 859 894 876 817 796 847 819 790 785 755 843 797 855 848 833 811 836 872 857 847 766 854 789 827 796 799 855 795 802 828 854 766 833 777 786 779 810 801 804 815 785 805 806 846 775 793 822 791 778 821 758 753 765 811 745 814 784 793 781 770 755 755 768 773 777 762 731 762 758 766 783 746 788 759 777 754 724 814 781 813 802 783 769 743 760 787 769 820 767 780 836 789 840 740 843 779 802 793 815 808 791 802 812 820 802 799 790 811 785 778 797 795 797 803 798 817 778 792 745 748 773 782 770 758 783 753 811 752 740 767 785 744 691 747 759 812 755 764 743 765 810 810 790 779 760 771 805 836 784 815 846 856 835 782 871 843 815 794 830 757 779 867 752 836 767 760 769 804 810 744 815 733 751 759 755 723 735 704 740 719 753 721 752 720 746 770 747 762 757 730 741 718 673 749 730 762 728 762 720 749 750 727 756 699 727 797 735 759 710 737 734 695 770 731 735 726 697 778 778 745 707 770 755 834 716 730 759 813 768 773 784 762 774 765 796 770 742 737 828 738 786 831 819 795 811 826 786 754 790 809 822 818 844 825 826 823 799 767 805 820 807 802 808 745 744 748 807 809 868 786 811 806 864 914 920 945 969 1018 1064 1108 1249 1310 1444 1541 1733 1923 2078 2447 2476 2875 2982 3188 3164 3242 3049 2981 2852 2754 2703 2543 2463 2293 2146 1951 1771 1638 1514 1447 1452 1374 1359 1298 1231 1265 1298 1257 1331 1214 1389 1395 1425 1500 1487 1599 1610 1880 1882 1835 1905 2090 2058 2131 2035 2161 2015 1948 1777 1818 1759 1668 1610 1490 1438 1402 1270 1210 1195 1166 1178 1011 989 943 1021 964 943 930 969 885 916 855 868 898 860 828 877 849 866 833 745 856 745 797 770 732 728 754 737 720 668 665 648 724 689 655 675 655 647 694 646 647 689 650 673 615 671 662 695 648 679 676 652 652 642 630 689 655 661 611 663 608 634 652 675 631 599 606 609 614 635 637 634 649 618 669 631 638 643 650 629 664 617 613 577 649 581 638 617 681 588 628 629 554 645 597 608 606 622 577 650 648 616 611 647 606 645 636 613 631 609 600 647 660 609 628 613 591 580 607 587 575 604 610 631 646 581 598 620 636 595 584 627 597 607 624 630 606 623 585 592 628 600 606 591 558 624 548 635 602 595 550 606 617 646 617 541 568 562 609 571 596 610 588 548 609 627 592 584 598 628 567 628 557 564 549 607 577 643 562 618 565 597 603 616 596 603 620 574 572 527 589 572 597 563 521 585 561 566 552 548 596 586 553 502 592 584 570 576 603 584 531 583 595 535 586 527 534 573 587 548 557 518 599 551 584 548 586 575 535 545 556 565 534 611 574 540 554 561 535 580 506 542 533 513 532 557 565 557 561 555 522 569 588 571 567 546 522 535 589 525 519 521 527 561 516 553 551 536 584 537 572 536 561 550 521 531 561 539 535 534 550 519 529 489 500 554 505 486 529 504 547 498 501 467 566 504 528 521 547 493 522 561 557 523 553 521 535 477 530 537 532 513 528 494 471 492 520 536 502 478 505 557 514 550 496 468 561 496 522 505 486 507 514 451 536 490 490 527 503 541 547 535 526 507 477 509 498 486 500 516 505 512 517 475 538 547 498 462 515 473 549 500 526 501 503 498 496 503 478 500 486 518 559 538 499 444 534 485 491 508 477 474 508 493 451 528 502 464 509 477 524 511 493 473 458 517 451 463 469 478 457 496 468 505 488 470 469 456 477 516 460 456 484 509 471 507 461 458 469 509 473 465 498 506 503 494 529 495 483 506 474 485 463 493 478 463 513 483 518 496 469 488 481 502 474 500 531 490 484 452 506 488 489 467 477 472 443 445 463 504 498 517 501 448 498 452 510 448 493 477 518 461 458 469 471 484 501 448 471 433 441 440 455 490 451 466 492 448 515 431 524 471 440 490 469 499 490 412 535 472 474 491 447 480 471 475 487 512 444 515 529 429 533 474 482 491 495 477 499 489 523 467 494 470 485 468 440 537 501 468 539 484 452 487 519 479 464 535 484 468 490 528 472 508 495 500 474 512 475 514 524 517 526 492 469 481 478 468 485 476 510 503 547 477 485 501 505 530 493 474 486 491 487 476 488 486 479 460 472 492 495 477 491 478 470 460 450 439 492 456 449 474 471 427 445 460 458 486 443 494 444 472 461 507 477 496 430 478 491 446 488 454 428 436 489 416 473 481 463 422 462 444 439 495 420 410 429 431 445 502 431 461 439 482 467 436 470 426 447 435 456 434 420 458 464 430 446 440 461 472 470 485 436 453 469 457 438 441 504 411 461 471 474 479 480 493 445 439 464 443 428 428 435 447 442 446 501 456 471 472 420 451 471 460 451 436 481 436 463 457 447 442 460 450 438 464 450 444 454 444 488 425 461 440 455 437 457 448 445 425 433 442 453 429 448 485 464 468 426 472 428 445 429 444 459 453 489 481 418 427 471 478 431 445 442 456 468 466 445 396 430 457 449 415 464 461 445 433 471 432 442 449 421 434 403 452 429 434 447 415 445 471 477 469 425 430 438 435 454 457 416 420 430 419 436 431 439 433 449 394 441 403 414 461 446 396 474 465 462 434 449 443 464 488 459 405 404 433 446 419 442 393 423 465 450 439 435 424 408 437 427 442 455 472 437 427 422 408 416 395 435 433 417 442 449 439 421 416 381 392 434 453 435 449 420 449 396 470 434 410 407 391 440 418 379 394 438 422 449 452 394 449 417 391 422 468 431 404 405 376 440 421 428 446 410 455 406 414 448 447 404 432 440 439 472 458 398 400 459 429 429 443 449 459 377 408 427 389 403 385 424 415 419 432 399 419 407 405 423 415 426 374 403 425 427 483 417 441 421 414 441 428 427 415 424 396 445 430 430 445 394 480 451 467 476 510 482 525 484 562 595 599 553 580 664 685 632 590 645 587 585 574 538 558 556 526 532 525 513 546 500 479 469 484 456 479 466 450 441 492 428 490 436 452 475 489 455 432 489 479 463 481 501 497 510 536 444 474 463 476 456 419 437 456 463 411 454 468 442 424 416 442 439 413 454 440 419 447 445 448 392 430 416 409 388 438 422 427 436 416 426 406 399 384 407 405 401 396 405 393 383 437 421 419 433 435 419 371 386 399 406 401 428 404 400 403 390 392 387 367 392 389 396 410 358 432 400 395 411 389 409 394 399 379 378 409 369 379 387 384 407 424 404 406 365 392 408 358 402 420 370 445 384 390 389 367 394 361 380 419 384 409 365 409 357 408 371 413 402 420 397 397 370 408 407 390 378 440 414 419 406 393 382 391 405 398 405 385 401 399 374 423 428 394 410 408 392 433 390 398 401 402 372 365 385 368 369 367 404 365 437 368 379 352 374 428 391 364 361 397 388 452 426 389 413 375 381 377 394 434 393 418 408 406 417 369 375 397 377 405 399 391 376 398 378 384 406 407 377 407 409 427 373 428 414 400 386 370 410 372 396 377 414 399 406 389 370 375 390 405 399 387 371 417 387 422 398 372 349 393 420 390 393 418 405 403 398 388 417 422 398 389 407 403 396 384 408 399 424 412 426 413 401 418 429 392 418 403 388 428 398 395 409 393 399 416 404 397 377 414 397 370 389 370 363 387 410 420 428 444 376 383 377 455 396 387 414 401 389 406 398 420 356 393 433 403 404 430 370 424 421 454 409 408 399 379 359 414 362 384 336 395 375 399 379 365 404 415 403 387 415 445 422 415 408 408 411 405 407 433 413 425 424 466 433 460 449 456 462 535 503 539 572 641 653 708 761 856 957 1075 1250 1399 1540 1561 1644 1726 1695 1755 1651 1601 1619 1548 1532 1451 1461 1409 1299 1374 1322 1288 1237 1189 1128 1077 1030 931 947 831 777 799 802 743 796 778 785 814 828 839 852 879 944 889 971 869 936 921 891 867 779 846 864 758 778 723 753 682 710 744 651 600 619 673 634 616 527 537 543 564 508 530 550 539 515 519 548 496 460 503 482 489 466 509 488 445 467 404 439 392 438 453 433 451 406 422 419 437 428 427 366 381 382 377 393 393 395 370 389 373 380 401 428 407 367 367 356 381 389 397 401 354 367 388 382 381 377 415 360 403 333 375 364 375 354 347 364 382 366 322 373 340 396 350 358 363 375 404 368 333 399 383 372 356 359 347 368 342 362 361 323 347 354 381 366 380 412 364 355 346 337 363 371 347 386 387 397 377 351 335 346 363 326 362 338 409 348 353 338 352 369 385 360 341 386 338 322 325 372 391 326 394 351 310 317 344 354 353 345 330 359 347 369 364 358 358 371 343 397 366 376 345 397 358 375 396 413 395 426 415 405 462 413 428 452 424 413 371 423 405 419 365 412 403 415 370 385 365 394 368 375 363 355 366 356 337 360 359 334 376 377 383 371 378 321 372 353 352 354 376 365 360 366 362 326 341 343 362 330 360 381 331 336 382 376 340 353 312 333 334 328 359 358 329 344 353 364 362 312 321 368 331 365 315 329 348 314 338 330 365 345 355 288 339 341 282 384 377 354 334 366 348 357 330 374 317 349 377 349 351 337 311 341 328 355 319 342 341 345 312 335 350 323 333 316 321 302 336 366 360 358 343 338 354 346 338 319 360 324 359 359 300 282 307 309 350 313 309 322 313 340 342 334 316 327 293 345 332 312 313 320 331 356 316 363 325 316 302 261 310 326 330 315 326 328 274 343 330 311 358 323 304 316 313 314 330 316 326 291 308 280 305 300 280 336 296 288 276 335 302 301 349 301 317 334 310 304 327 297 318 328 322 313 314 331 320 309 340 269 317 310 333 325 292 342 324 318 306 316 283 320 291 338 302 318 306 332 321 303 328 361 323 337 317 349 309 311 322 310 305 337 330 279 297 306 309 305 284 301 329 304 336 285 307 294 289 313 350 300 314 296 345 334 311 318 305 306 296 310 309 342 310 316 307 321 282 297 313 321 299 326 325 316 312 312 311 308 285 323 310 318 306 309 275 282 278 303 290 351 290 291 315 346 328 311 305 311 309 345 283 315 313 303 319 263 298 320 301 292 299 320 322 317 298 319 314 289 319 285 321 346 288 317 331 280 333 302 307 337 304 293 290 329 325 288 277 281 298 297 302 313 298 293 291 318 305 286 309 300 276 304 282 313 298 291 297 296 309 313 265 301 296 274 292 305 285 301 289 308 275 310 318 295 281 297 302 284 295 316 322 292 306 291 321 269 312 260 288 285 317 312 329 301 282 285 264 307 283 309 270 343 315 301 299 320 332 276 270 280 282 264 341 298 315 333 289 290 248 301 278 280 274 269 286 292 325 333 289 319 314 300 306 290 274 313 322 278 275 256 311 307 312 274 311 305 300 284 290 303 268 288 315 306 301 295 326 298 274 313 288 273 312 312 289 293 297 321 285 272 318 308 287 289 284 274 298 295 273 290 265 259 281 300 284 301 294 293 341 261 293 266 273 296 312 290 324 272 270 270 295 289 306 241 323 310 279 314 287 296 277 295 302 281 285 289 265 297 296 283 342 268 272 287 280 279 277 305 272 275 286 276 295 279 296 260 291 260 269 269 305 289 308 286 266 312 289 267 334 297 279 306 273 292 298 305 268 292 301 291 314 305 303 304 289 297 286 291 304 323 262 298 293 291 337 314 305 291 316 313 328 306 292 356 302 323 330 314 289 279 326 303 319 321 296 288 318 317 317 322 341 340 303 302 305 365 358 345 358 326 379 368 408 401 443 480 525 554 557 589 676 592 633 655 637 671 617 633 585 595 615 624 563 608 596 586 608 583 586 564 561 547 497 480 477 472 466 496 462 440 433 443 423 413 437 430 459 396 420 435 409 398 430 437 456 439 430 415 375 395 399 353 396 343 373 356 380 369 363 355 378 333 353 344 327 337 353 314 336 310 314 314 345 311 297 324 294 315 336 317 311 299 318 290 326 320 312 300 329 267 296 261 285 325 264 330 283 330 279 318 298 275 296 281 278 333 295 297 286 311 325 292 292 261 281 276 282 295 258 240 296 288 283 258 290 266 265 281 298 264 304 268 281 265 280 299 280 266 289 312 286 293 246 234 272 261 266 259 288 265 239 267 258 266 273 244 312 290 308 300 258 267 279 237 293 308 285 277 268 323 286 294 240 276 274 295 284 288 292 269 270 279 281 281 277 305 258 267 284 274 289 286 278 261 272 258 270 315 263 306 292 287 299 299 286 277 292 268 297 273 289 291 283 329 285 272 288 320 284 306 293 289 285 257 258 276 264 296 311 248 298 259 258 289 298 307 289 282 295 294 301 291 291 292 321 270 298 311 283 284 319 284 311 299 292 304 337 345 352 349 352 393 436 402 461 490 514 556 528 566 558 610 611 549 550 532 459 463 475 495 445 477 443 472 473 465 492 476 473 412 403 414 411 368 360 412 394 390 384 404 372 339 400 427 411 377 409 384 409 399 385 375 367 374 382 357 356 366 368 286 320 310 314 304 327 319 322 301 294 269 310 342 319 266 319 293 290 279 270 286 272 274 309 308 278 283 279 271 295 297 279 309 337 269 300 282 275 282 266 272 301 248 313 259 246 250 269 259 304 270 280 266 281 276 270 281 264 235 243 267 281 273 296 263 265 236 291 262 273 278 257 247 279 250 240 272 256 278 270 243 241 274 261 287 237 285 271 239 227 269 241 276 275 257 258 267 263 242 261 287 289 272 241 271 244 271 261 286 246 262 257 268 244 262 278 257 240 257 239 263 244 275 250 277 249 240 265 283 242 260 258 286 280 247 285 274 273 297 308 293 286 291 326 292 316 308 351 299 306 316 291 299 315 324 274 305 300 274 292 293 293 310 289 337 264 302 262 315 286 271 256 265 300 271 277 309 277 250 303 281 265 239 229 271 231 273 273 264 249 235 230 236 262 242 241 245 268 268 268 230 265 270 243 235 262 263 257 258 274 243 241 261 238 284 268 262 244 250 221 239 242 257 224 234 229 257 229 242 231 244 244 256 248 248 248 269 275 263 218 281 199 238 234 230 241 197 240 223 249 260 226 267 238 238 256 241 240 238 214 265 235 236 243 233 231 242 202 231 263 232 224 222 264 215 247 221 260 239 222 219 236 217 244 238 226 220 238 212 215 226 236 258 219 249 235 235 242 237 266 247 256 212 225 248 213 215 209 203 225 222 230 230 234 222 285 203 210 236 245 203 229 264 224 242 248 241 216 218 229 216 234 237 235 231 226 240 222 232 239 239 240 229 229 279 226 218 243 260 228 265 248 230 270 233 274 246 236 204 226 224 262 224 237 227 256 226 242 264 214 269 244 215 231 218 221 223 250 223 225 233 228 238 220 262 214 194 209 231 220 241 262 209 269 233 241 199 210 195 223 230 234 272 242 234 240 258 210 211 222 273 228 223 220 238 200 229 199 250 217 228 235 230 250 229 259 209 249 234 226 237 221 231 232 220 236 239 207 262 233 207 246 214 246 262 238 226 265 217 233 216 236 244 194 233 248 218 259 274 233 223 212 241 250 259 220 221 241 233 236 201 246 239 218 239 217 256 223 218 216 233 235 227 243 235 228 239 241 226 266 227 211 265 223 224 260 241 258 247 233 236 228 231 244 219 223 202 273 230 247 221 223 232 241 217 220 227 227 282 230 249 235 209 240 217 223 204 233 231 231 226 239 217 217 231 197 260 208 228 233 225 210 198 229 217 226 246 238 235 207 233 215 220 203 236 232 229 241 224 247 231 215 203 230 240 201 246 245 230 211 227 226 257 231 222 203 213 238 241 257 235 229 204 210 239 229 246 248 214 221 215 217 242 239 232 236 212 232 227 263 258 278 236 220 247 226 224 237 218 230 233 259 202 220 228 235 229 229 216 227 190 187 197 223 230 233 202 242 248 188 243 242 218 210 242 220 224 249 239 251 260 258 260 264 263 264 241 236 280 268 256 240 242 275 249 265 241 210 221 277 262 241 257 268 262 238 229 246 234 238 241 238 259 277 249 230 249 258 250 235 266 271 234 266 232 237 245 239 215 206 264 215 243 226 225 238 216 233 239 262 272 238 256 235 225 201 229 212 213 200 232 220 228 228 216 220 201 239 212 211 217 218 217 209 240 201 224 226 198 256 224 228 210 203 223 241 222 244 229 239 217 239 198 229 211 208 202 204 230 200 214 237 200 225 241 209 227 219 233 215 232 224 221 219 204 178 221 205 226 224 227 206 206 222 223 244 211 248 232 250 213 234 256 229 178 205 212 209 227 221 223 219 218 206 227 187 234 230 185 226 232 227 226 257 217 210 213 229 216 211 231 250 194 223 239 203 230 200 228 231 240 204 231 208 208 215 218 209 222 277 212 219 210 233 233 215 238 215 218 219 219 228 197 230 202 211 231 237 229 224 221 220 204 236 232 213 214 232 229 222 203 222 227 248 249 215 214 213 195 215 222 238 212 213 235 241 229 231 217 215 221 224 194 194 215 265 225 229 230 222 225 202 221 226 226 195 218 238 205 218 235 224 222 238 200 203 244 221 235 263 243 232 213 221 233 229 205 227 229 197 227 229 202 231 212 235 233 192 231 249 205 227 216 220 223 214 234 242 222 246 246 273 268 271 302 234 317 286 320 326 333 316 295 325 327 335 345 309 275 327 323 304 312 322 316 274 273 288 295 278 296 302 275 289 271 306 295 290 307 290 292 273 284 302 265 276 269 291 285 229 208 281 248 271 247 248 268 243 241 263 229 239 233 260 217 206 228 192 233 229 260 241 279 259 215 247 229 216 250 227 221 235 218 226 216 242 207 227 234 244 236 237 214 242 209 258 276 241 192 224 244 216 234 245 217 239 221 220 222 232 234 213 232 220 244 219 233 210 223 256 215 212 212 236 229 238 220 231 229 223 225 217 203 231 209 233 217 206 224 258 219 202 222 230 209 209 239 241 222 202 230 192 220 212 214 195 221 212 200 202 240 210 220 228 227 227 235 215 246 209 258 214 219 208 215 213 222 226 191 234 243 257 227 237 226 220 224 210 248 213 198 227 225 228 212 224 223 217 242 204 219 214 268 232 237 234 202 229 206 224 233 233 230 219 214 217 219 209 213 211 225 224 223 222 220 214 227 223 250 231 218 224 237 242 210 226 209 234 203 226 213 239 224 238 216 227 210 218 237 204 224 222 221 215 224 207 205 220 222 217 226 229 261 239 199 249 229 204 221 205 229 229 210 207 212 256 225 214 198 216 209 197 235 226 230 223 224 210 200 269 196 246 219 236 239 220 256 207 230 232 205 220 213 212 237 239 231 225 207 195 219 215 232 204 222 214 220 221 239 225 203 230 239 227 237 225 220 224 205 236 194 245 221 197 243 228 225 220 207 218 232 228 200 193 217 263 202 208 200 213 223 232 198 238 222 237 220 216 205 223 233 214 242 256 222 231 214 231 220 215 216 209 234 205 219 235 199 228 226 266 229 238 224 228 230 236 218 225 222 229 242 230 279 186 237 197 230 216 201 226 229 216 232 242 244 209 225 238 245 210 187 238 239 246 235 230 221 219 263 235 218 220 218 215 218 190 216 226 238 231 217 245 224 236 227 218 224 271 243 203 231 212 209 195 223 229 239 258 228 214 217 220 199 210 217 222 228 237 235 221 204 209 236 203 244 224 226 239 242 218 235 195 224 218 220 213 248 239 196 201 198 213 209 218 208 242 215 224 212 235 269 216 222 202 216 186 198 218 227 200 239 229 183 215 223 226 234 231 210 225 197 215 241 210 238 224 207 223 234 210 227 223 228 210 205 234 195 226 217 219 256 223 219 217 222 241 223 225 230 224 225 210 235 210 250 212 257 210 217 183 231 234 212 209 208 216 274 214 216 237 221 207 247 236 221 214 211 225 239 227 209 223 220 219 192 229 243 240 212 212 238 218 237 244 233 221 231 211 220 215 231 229 228 235 222 261 232 211 224 230 269 240 223 209 227 244 235 249 235 226 220 236 209 230 192 240 211 208 245 211 210 222 234 216 240 217 232 256 228 258 260 235 225 246 230 216 217 222 236 239 234 230 227 249 249 222 201 221 225 265 258 236 233 217 268 245 224 226 238 232 239 227 229 276 237 272 233 288 231 262 268 231 249 259 229 237 211 232 259 245 232 236 282 223 270 246 259 204 238 232 236 227 272 242 266 246 237 210 239 238 266 247 232 251 238 239 250 256 274 244 259 273 280 239 311 262 317 304 298 295 277 291 299 338 284 299 281 282 320 304 329 300 298 290 310 306 301 280 278 283 308 259 302 268 322 319 299 299 303 325 285 343 284 297 318 297 271 287 275 245 271 289 277 267 270 280 266 261 277 292 266 270 247 257 228 274 230 262 225 294 266 233 262 257 269 269 279 240 246 256 265 244 216 210 294 224 270 220 230 219 248 226 246 238 246 222 270 233 277 224 234 226 277 260 250 234 235 225 229 232 240 267 271 268 242 240 238 242 232 240 229 214 232 245 243 223 248 245 243 248 231 230 247 238 250 240 265 231 224 258 264 235 230 243 256 259 207 225 258 248 268 239 211 243 236 271 239 237 264 242 254 247 242 248 246 260 243 232 223 248 241 275 227 221 245 266 264 262 263 242 228 257 221 230 248 262 204 286 214 269 242 236 221 242 230 257 267 244 222 218 243 221 264 234 268 256 243 262 242 259 214 237 247 265 220 231 274 251 245 265 251 266 270 259 240 262 242 279 276 313 258 292 287 304 328 308 307 358 337 366 348 350 410 397 378 413 453 390 397 431 437 434 430 388 383 392 392 421 394 361 370 366 367 407 366 370 376 398 369 394 367 391 405 429 380 360 375 390 376 396 356 347 328 326 350 301 291 272 329 300 309 316 319 321 304 274 284 245 302 242 290 271 280 241 326 269 300 243 275 257 283 275 310 258 274 265 238 224 261 274 283 231 267 261 241 278 247 270 276 244 256 247 261 224 279 237 232 229 238 225 250 228 264 243 257 241 231 211 228 234 228 266 235 259 250 208 265 234 257 237 231 227 265 238 247 237 265 233 268 236 238 214 246 244 233 231 265 265 245 232 201 224 263 244 242 275 234 233 257 264 245 269 250 240 243 241 244 202 253 230 242 236 225 220 225 209 226 246 244 235 202 219 225 206 232 232 230 244 271 223 257 250 221 231 246 222 227 250 232 224 229 228 216 238 223 212 278 260 221 244 235 233 249 239 244 256 269 275 234 258 232 211 233 226 204 242 206 231 239 234 237 228 224 231 233 216 209 243 236 211 221 210 232 246 232 240 271 216 263 225 229 211 211 235 221 205 209 244 228 239 223 237 232 229 220 216 232 227 220 228 213 229 220 197 228 214 243 225 236 216 246 215 248 239 217 210 209 204 199 232 214 207 196 225 203 224 218 201 246 218 201 224 216 240 219 211 256 219 229 238 224 231 212 216 218 210 209 216 230 242 208 196 232 196 203 195 230 215 185 199 207 194 220 204 210 220 218 232 202 210 202 207 214 190 205 215 189 228 219 210 219 176 222 212 217 187 239 234 234 212 232 217 203 215 233 196 207 218 213 187 228 235 212 225 218 221 216 199 190 178 220 216 224 209 230 214 213 220 216 220 211 207 213 226 223 198 219 229 198 208 193 219 188 208 214 227 201 209 213 225 233 217 219 241 236 233 230 207 195 259 206 232 202 236 220 209 206 221 211 199 221 202 237 193 239 202 213 174 224 201 230 184 207 242 205 209 229 214 218 219 209 224 236 219 209 237 200 231 234 207 207 223 211 222 204 227 202 220 211 197 225 235 211 193 215 186 224 248 200 232 196 199 230 225 215 227 217 219 231 205 212 171 210 201 212 221 213 210 204 195 230 226 193 218 194 213 205 206 197 198 224 229 215 199 203 193 230 225 217 196 215 230 220 217 210 220 222 215 235 213 213 190 208 203 209 215 237 202 186 210 202 220 224 193 245 170 214 199 199 209 228 221 222 228 210 209 227 190 199 210 212 237 211 264 212 203 192 212 214 200 201 200 194 228 187 193 208 216 209 214 201 200 189 215 228 183 228 189 183 194 211 210 221 209 221 205 213 200 205 199 221 226 220 215 233 211 231 212 208 212 207 214 211 198 205 213 210 219 203 191 190 200 206 211 200 187 207 209 206 219 222 206 201 209 218 196 225 214 198 204 187 193 212 226 229 233 208 250 231 228 220 210 227 225 235 208 228 228 217 230 234 229 211 213 224 230 256 204 227 221 238 234 220 259 209 195 234 204 213 221 225 200 217 185 213 208 223 208 189 205 212 236 201 228 202 226 201 210 188 231 202 184 236 195 198 195 194 206 204 190 190 197 220 192 202 210 199 221 202 213 167 216 190 219 189 212 221 192 228 184 189 180 209 193 184 229 190 220 235 203 195 222 191 238 213 197 222 205 211 212 175 164 183 202 203 225 229 203 198 195 201 232 191 236 224 202 228 209 210 197 205 208 221 227 218 201 235 190 217 227 212 215 213 222 202 208 215 226 194 183 181 204 195 198 174 202 211 204 200 202 180 184 204 219 217 224 193 184 198 212 189 216 193 203 239 229 196 227 215 200 185 207 207 224 182 211 200 169 196 199 192 207 217 175 202 219 216 207 226 190 202 203 209 218 210 166 206 196 199 211 200 228 206 191 188 214 206 199 205 210 197 207 208 209 202 195 215 214 174 226 208 209 190 223 194 197 183 175 194 214 221 215 223 186 196 205 181 208 209 208 219 176 177 205 204 213 223 223 216 195 231 206 234 206 215 202 193 224 211 257 220 220 221 215 212 217 231 218 228 210 230 248 261 245 288 267 242 275 298 302 285 318 307 314 301 355 326 327 313 380 298 382 303 334 336 332 329 272 327 331 299 310 310 350 312 308 296 321 335 297 320 316 322 309 326 329 309 306 304 320 284 328 289 327 283 308 293 269 283 290 267 244 275 232 266 261 236 240 208 240 235 245 259 232 229 212 256 229 281 228 241 216 239 240 232 222 230 212 236 214 240 225 232 240 221 241 212 220 222 211 202 231 190 234 211 213 201 212 225 233 244 192 235 228 232 208 202 189 188 230 221 221 225 218 210 221 206 215 222 213 217 215 188 218 234 209 204 189 214 204 226 218 201 198 221 210 196 222 206 195 200 224 211 230 187 225 199 213 211 212 232 203 205 192 191 185 214 217 202 208 218 209 182 227 220 199 207 213 194 231 223 207 218 212 202 213 217 198 216 183 210 233 224 203 227 201 232 209 205 213 220 212 204 186 196 228 212 223 214 211 218 214 211 204 207 201 221 222 216 216 203 201 212 204 205 187 206 203 220 183 213 219 222 212 231 218 201 193 181 176 208 207 192 231 215 206 222 199 216 177 223 178 187 206 217 211 214 174 228 173 201 193 182 231 225 198 209 199 244 220 216 191 218 203 203 203 196 204 195 181 182 194 202 217 205 234 195 182 158 196 201 208 189 191 204 202 212 184 188 198 206 177 229 218 186 228 212 203 217 179 210 201 219 225 221 192 198 190 175 184 202 181 222 209 208 211 179 217 194 191 197 182 191 222 236 200 202 185 195 212 183 192 200 190 227 202 236 192 195 193 195 201 192 222 204 198 202 185 207 195 210 194 189 191 188 188 175 208 188 189 202 226 207 220 214 172 185 202 156 173 184 201 183 207 199 233 202 200 172 215 182 203 196 210 225 189 185 221 207 215 196 176 212 179 207 188 184 212 200 195 197 198 197 196 169 196 200 216 190 198 198 174 208 204 195 208 219 189 208 180 202 180 197 191 197 189 210 218 191 185 225 183 189 213 184 216 181 181 199 210 213 180 194 185 196 216 197 195 208 175 196 182 234 193 209 209 212 209 195 188 187 204 215 218 199 174 204 236 218 208 201 217 216 209 201 221 207 209 175 216 198 184 198 195 189 193 196 176 200 185 194 175 206 189 176 187 182 226 199 206 198 187 188 183 170 185 198 223 205 194 216 221 192 176 210 186 222 177 177 182 171 202 171 189 185 201 205 204 170 200 172 197 198 191 211 199 183 176 203 177 184 181 181 197 216 208 206 186 204 191 202 203 201 198 200 186 216 196 205 173 193 189 223 201 215 204 182 196 192 205 205 196 186 162 185 190 208 193 175 187 206 211 210 185 210 213 188 209 189 198 183 198 214 188 162 191 214 179 214 170 210 206 212 199 202 196 202 210 193 190 197 241 220 200 200 204 191 216 200 188 212 196 233 197 214 213 220 170 208 206 202 210 204 216 196 196 215 226 212 232 207 199 205 240 248 225 211 199 219 203 245 228 202 197 200 240 219 197 231 219 241 234 207 259 210 219 203 220 208 219 205 216 194 223 222 222 256 205 221 222 227 222 235 232 213 222 209 216</counts>
			</dataPoints>
		</scan>
	</xrdMeasurement>
</xrdMeasurements>
