<?xml version="1.0"?>
<xrdMeasurements xmlns="http://www.xrdml.com/XRDMeasurement/2.3" xmlns:xsi="http://www.w3.org/2001/XMLSchema-instance" xsi:schemaLocation="http://www.xrdml.com/XRDMeasurement/2.3 http://www.xrdml.com/XRDMeasurement/2.3/XRDMeasurement.xsd" status="Completed" recordIdentifier="{114032CE-5BA8-4420-9600-05A6C4B74017}">
	<comment>
		<entry/>
	</comment>
	<sample type="To be analyzed">
		<id>GPSS_Li1p5Co0p7V0p2Nb0p1Cl4_111825_691cd5d8f3837ac4a0a99fd9</id>
		<name></name>
		<preparedBy></preparedBy>
	</sample>
	<xrdMeasurement measurementType="Scan" status="Completed" sampleMode="Reflection">
		<usedWavelength intended="K-Alpha 1">
			<kAlpha1 unit="Angstrom">1.5405980</kAlpha1>
			<kAlpha2 unit="Angstrom">1.5444260</kAlpha2>
			<kBeta unit="Angstrom">1.3922500</kBeta>
			<ratioKAlpha2KAlpha1>0.5000</ratioKAlpha2KAlpha1>
		</usedWavelength>
		<incidentBeamPath>
			<radius unit="mm">145.00</radius>
			<xRayTube id="1010048" name="Empyrean Cu LFF HR (9430 033 7310x)">
				<tension unit="kV">40.0</tension>
				<current unit="mA">15.0</current>
				<anodeMaterial>Cu</anodeMaterial>
				<focus type="Line">
					<length unit="mm">12.0</length>
					<width unit="mm">0.4</width>
					<takeOffAngle unit="deg">6.0</takeOffAngle>
				</focus>
			</xRayTube>
			<sollerSlit id="21010002" name="Soller slits 0.04 rad.">
				<opening unit="rad">0.0400</opening>
			</sollerSlit>
			<mask id="22031000" name="Fixed mask 13 mm">
				<width unit="mm">9.00</width>
			</mask>
			<divergenceSlit id="22120001" name="Divergence slit 1°" xsi:type="fixedDivergenceSlitType">
				<distanceToSample unit="mm">50.00</distanceToSample>
				<height unit="mm">1.52</height>
			</divergenceSlit>
		</incidentBeamPath>
		<sampleMovement xsi:type="spinningSampleMovementType">
			<spinnerRevolutionTime unit="seconds">1.0</spinnerRevolutionTime>
		</sampleMovement>
		<diffractedBeamPath>
			<radius unit="mm">145.00</radius>
			<antiScatterSlit id="22090040" name="AS slit 9 mm (PIXcel)" xsi:type="fixedAntiScatterSlitType">
				<height unit="mm">9.00</height>
			</antiScatterSlit>
			<sollerSlit id="21020003" name="Large Soller slits 0.04 rad.">
				<opening unit="rad">0.0400</opening>
			</sollerSlit>
			<filter id="20030001" name="Large beta-filter Nickel">
				<material>Ni</material>
				<thickness unit="mm">0.020</thickness>
			</filter>
			<detector id="7010019" name="PIXcel1D-Medipix3 detector" xsi:type="rtmsDetectorType">
				<phd unit="keV">
					<lowerLevel>4.02</lowerLevel>
					<upperLevel>11.27</upperLevel>
				</phd>
				<mode>Scanning</mode>
				<activeLength unit="deg">5.542</activeLength>
			</detector>
		</diffractedBeamPath>
		<scan appendNumber="0" mode="Continuous" scanAxis="Gonio" status="Completed">
			<header>
				<startTimeStamp>2025-11-21T20:18:33-08:00</startTimeStamp>
				<endTimeStamp>2025-11-21T20:26:41-08:00</endTimeStamp>
				<author>
					<name>AutomatedUser</name>
				</author>
				<source>
					<applicationSoftware version="1.7b (136)">PANalytical Aeris Instrument Suite</applicationSoftware>
					<instrumentControlSoftware version="3.2.00000000 20240306">AERIS</instrumentControlSoftware>
					<instrumentID>950485</instrumentID>
				</source>
			</header>
			<dataPoints>
				<positions axis="2Theta" unit="deg">
					<startPosition>10.00943322</startPosition>
					<endPosition>99.99442286</endPosition>
				</positions>
				<positions axis="Omega" unit="deg">
					<startPosition>5.00471661</startPosition>
					<endPosition>49.99721143</endPosition>
				</positions>
				<commonCountingTime unit="seconds">12.495</commonCountingTime>
				<counts unit="counts">3351 3373 3473 3378 3346 3407 3418 3399 3358 3408 3394 3356 3440 3319 3386 3349 3288 3380 3474 3461 3446 3307 3512 3371 3381 3316 3399 3303 3473 3424 3301 3485 3392 3392 3489 3452 3429 3426 3455 3435 3496 3418 3518 3503 3424 3390 3472 3488 3528 3540 3484 3458 3563 3439 3451 3493 3489 3577 3514 3566 3546 3481 3631 3628 3567 3605 3540 3560 3664 3696 3671 3523 3622 3676 3598 3661 3556 3621 3509 3596 3601 3600 3666 3636 3545 3662 3488 3570 3624 3631 3582 3654 3543 3554 3526 3627 3713 3649 3640 3586 3654 3562 3598 3646 3698 3630 3676 3580 3606 3595 3727 3621 3611 3596 3579 3589 3643 3623 3625 3678 3703 3700 3608 3600 3682 3546 3645 3611 3662 3802 3625 3682 3579 3631 3608 3652 3671 3693 3709 3635 3678 3614 3622 3680 3630 3697 3615 3699 3622 3647 3656 3601 3614 3746 3648 3518 3625 3621 3673 3686 3640 3640 3589 3716 3608 3719 3654 3648 3696 3619 3663 3445 3675 3614 3674 3726 3577 3664 3619 3588 3678 3689 3562 3677 3610 3655 3650 3732 3645 3603 3682 3588 3698 3640 3554 3624 3576 3605 3625 3629 3720 3567 3705 3632 3572 3561 3623 3632 3632 3691 3572 3657 3612 3785 3584 3626 3606 3567 3581 3607 3597 3600 3525 3537 3661 3690 3584 3666 3674 3570 3561 3608 3514 3628 3591 3532 3650 3497 3560 3447 3617 3573 3739 3565 3639 3702 3667 3546 3579 3610 3605 3544 3538 3647 3465 3555 3539 3615 3594 3571 3441 3570 3636 3629 3571 3574 3736 3542 3544 3523 3529 3568 3701 3515 3571 3514 3592 3467 3575 3576 3691 3547 3517 3514 3682 3539 3500 3569 3597 3643 3463 3595 3467 3661 3513 3739 3543 3658 3604 3633 3413 3672 3659 3666 3600 3597 3609 3654 3539 3655 3653 3597 3666 3787 3542 3674 3730 3654 3586 3615 3699 3648 3751 3615 3719 3723 3679 3704 3610 3734 3771 3638 3682 3711 3688 3711 3621 3758 3711 3718 3798 3751 3700 3737 3749 3767 3683 3768 3733 3693 3667 3870 3714 3804 3760 3727 3750 3772 3763 3788 3781 3786 3960 3908 3829 3842 3752 3999 3933 3965 3794 3777 3992 3889 3896 3916 3851 4021 3761 3928 3813 3987 3904 3901 3943 3906 3912 3943 4169 3934 4027 4043 4006 4036 4012 4026 4052 4078 4029 4034 4086 4015 4125 3989 4073 4121 4000 4150 4129 4096 4070 4114 4104 4119 4191 4193 4268 4228 4180 4313 4212 4269 4180 4242 4195 4209 4299 4228 4267 4294 4327 4515 4342 4501 4552 4383 4565 4503 4511 4491 4560 4612 4637 4574 4718 4592 4565 4437 4694 4532 4533 4657 4622 4602 4619 4535 4701 4782 4930 4612 4725 4885 4989 4826 4871 4870 4825 4766 4800 4879 4959 4836 4924 4777 4683 4702 4853 4810 4547 4817 4707 4667 4679 4755 4462 4476 4653 4653 4686 4490 4422 4392 4402 4500 4413 4357 4535 4429 4281 4367 4248 4325 4294 4196 4170 4166 4175 4133 4261 4196 4113 4098 4055 4190 3976 4116 4064 4179 4028 4011 3981 4035 4001 4097 3958 4080 3977 4095 4111 3916 3988 3967 3957 3945 4049 3876 4032 3977 4060 3914 4008 3940 4046 3874 3977 3915 3931 3941 3739 3879 3880 3900 4017 3831 3885 3747 3938 3840 3782 3887 4020 3868 3905 3966 3966 3944 3830 3757 3926 3804 3897 3752 3854 3871 3903 3821 3852 3808 3878 3786 3764 3713 3773 3742 3810 3761 3841 3835 3826 3815 3758 3817 3735 3757 3819 3752 3840 3729 3819 3733 3775 3695 3715 3793 3695 3782 3742 3752 3783 3654 3758 3826 3657 3786 3751 3784 3795 3649 3882 3897 3819 3830 3662 3884 3784 3823 3779 3830 3676 3791 3739 3771 3712 3654 3718 3739 3859 3749 3668 3718 3829 3819 3743 3812 3767 3868 3758 3820 3795 3807 3816 3827 3864 3776 3878 3830 3769 3799 3691 3865 3816 3802 3894 3835 3840 3776 3717 3796 3882 3718 3788 3764 3729 3747 3834 3716 3787 3749 3817 3846 3764 3939 3717 3841 3786 3796 3702 3738 3768 3652 3729 3758 3772 3736 3690 3711 3661 3646 3818 3792 3606 3770 3647 3694 3653 3665 3678 3781 3671 3581 3629 3636 3736 3686 3684 3637 3760 3599 3542 3622 3710 3636 3695 3634 3607 3575 3761 3618 3694 3736 3551 3536 3531 3624 3582 3636 3586 3594 3523 3795 3603 3640 3718 3657 3633 3641 3640 3618 3591 3673 3649 3618 3650 3615 3517 3730 3577 3633 3645 3543 3556 3683 3543 3643 3549 3636 3540 3535 3689 3594 3650 3540 3634 3548 3553 3685 3531 3561 3641 3593 3535 3599 3556 3627 3581 3704 3796 3516 3499 3561 3533 3578 3573 3614 3609 3513 3559 3459 3491 3525 3623 3550 3485 3544 3492 3551 3635 3600 3460 3478 3587 3529 3528 3691 3583 3584 3611 3572 3561 3692 3560 3569 3550 3459 3510 3520 3547 3598 3537 3521 3691 3437 3527 3598 3558 3604 3604 3534 3646 3475 3679 3543 3530 3582 3562 3506 3581 3594 3525 3523 3535 3551 3505 3472 3605 3594 3521 3509 3608 3573 3570 3603 3366 3639 3487 3512 3570 3500 3460 3433 3523 3535 3408 3542 3580 3453 3534 3643 3526 3478 3571 3481 3474 3531 3498 3461 3406 3553 3484 3439 3484 3424 3441 3500 3371 3549 3468 3549 3482 3609 3437 3481 3457 3535 3545 3579 3568 3367 3484 3525 3275 3415 3476 3505 3433 3499 3509 3539 3507 3423 3511 3430 3335 3503 3520 3407 3469 3483 3464 3398 3378 3324 3542 3443 3356 3512 3440 3492 3409 3329 3476 3501 3458 3468 3421 3380 3485 3513 3289 3478 3348 3393 3425 3374 3388 3328 3445 3426 3396 3426 3453 3386 3402 3353 3386 3374 3419 3391 3352 3314 3467 3401 3435 3337 3478 3464 3418 3534 3382 3501 3408 3518 3452 3362 3301 3379 3399 3479 3461 3418 3432 3529 3372 3471 3310 3479 3409 3421 3317 3371 3408 3406 3377 3474 3553 3434 3415 3391 3268 3356 3399 3425 3470 3449 3329 3429 3539 3330 3376 3325 3342 3412 3438 3495 3335 3495 3363 3434 3444 3362 3449 3433 3383 3462 3346 3548 3420 3428 3325 3350 3442 3446 3388 3387 3366 3341 3483 3361 3369 3365 3437 3348 3340 3476 3457 3404 3474 3384 3483 3320 3397 3435 3368 3387 3377 3454 3495 3405 3473 3588 3336 3456 3354 3485 3410 3332 3374 3478 3419 3295 3396 3479 3475 3396 3405 3403 3402 3497 3352 3507 3523 3409 3452 3456 3431 3434 3384 3544 3466 3493 3440 3420 3423 3327 3339 3418 3521 3348 3411 3425 3425 3428 3361 3299 3463 3479 3537 3434 3301 3397 3434 3480 3553 3454 3423 3388 3325 3405 3354 3296 3279 3399 3358 3322 3278 3415 3320 3404 3350 3469 3466 3350 3447 3320 3379 3447 3459 3315 3290 3360 3371 3324 3296 3248 3321 3368 3367 3244 3272 3322 3266 3324 3428 3386 3256 3245 3287 3319 3265 3239 3245 3315 3323 3388 3303 3258 3280 3161 3247 3162 3213 3212 3388 3214 3226 3212 3293 3248 3275 3218 3260 3225 3172 3240 3268 3182 3139 3242 3076 3104 3181 3316 3204 3176 3246 3105 3163 3191 3209 3130 3108 3168 3209 3064 3084 3213 3150 3167 3147 3153 3089 3015 3189 3214 3000 3073 3113 3069 3236 3040 3098 3054 3085 3102 3058 3035 3077 3080 3069 3046 3051 3039 2984 2979 3022 2966 3068 3008 3084 3097 2962 2944 2992 2989 3099 2978 3026 2971 3000 2978 2956 2939 2971 2917 3081 2890 2934 2970 2935 2954 2923 2863 2950 2921 2946 2988 2958 2930 2864 2863 2907 2880 2967 2897 2895 2951 2954 3048 2899 3001 2922 2924 2880 2912 2899 2878 2861 2933 2888 2853 2795 2908 2879 2885 2932 2768 2849 2967 2819 2901 2800 3006 2883 2867 2916 2896 3004 2849 2827 2983 2914 2936 2849 2931 2832 2818 2872 2871 2857 2971 2921 2912 2892 2875 2964 2919 2920 3053 2966 2841 2870 2976 3016 2975 2895 2959 2997 3056 3079 2988 2975 2941 3002 2897 2964 3052 3123 2933 2943 2995 2914 2925 2930 2889 2936 2946 2976 2840 2833 2845 2906 2802 2910 2919 2925 2914 2880 2787 2882 2758 2894 2826 2857 2838 2870 2876 2781 2772 2860 2833 2817 2857 2845 2789 2879 2925 2800 2871 2774 2708 2829 2838 2855 2792 2858 2787 2847 2839 2881 2871 2829 2795 2881 2851 2817 2809 2753 2776 2758 2834 2796 2846 2782 2734 2822 2934 2807 2896 2891 2787 2873 2731 2807 2713 2781 2783 2828 2711 2818 2828 2738 2892 2779 2894 2855 2878 2851 2812 2696 2814 2868 2818 2791 2823 2737 2734 2774 2760 2750 2780 2808 2811 2817 2781 2809 2794 2854 2893 2798 2843 2796 2826 2796 2920 2835 2847 2775 2732 2836 2904 2839 2868 2907 2867 2846 2923 2786 2873 2838 2799 2710 2723 2753 2876 2804 2822 2803 2769 2755 2794 2771 2850 2748 2767 2796 2690 2755 2794 2774 2752 2774 2750 2835 2802 2726 2778 2755 2767 2820 2812 2791 2802 2650 2751 2813 2807 2743 2903 2766 2835 2817 2779 2818 2832 2719 2771 2835 2794 2791 2774 2802 2766 2700 2701 2787 2736 2815 2853 2726 2691 2805 2632 2736 2755 2659 2692 2755 2706 2770 2588 2779 2638 2772 2656 2828 2747 2707 2783 2707 2733 2723 2653 2697 2699 2586 2614 2671 2734 2701 2724 2620 2631 2668 2685 2655 2651 2658 2624 2588 2570 2684 2566 2561 2588 2601 2644 2576 2585 2636 2753 2544 2591 2604 2625 2518 2566 2622 2626 2634 2647 2666 2703 2665 2603 2703 2507 2632 2507 2625 2538 2650 2624 2633 2621 2504 2598 2617 2542 2608 2524 2542 2538 2487 2555 2518 2575 2519 2508 2519 2611 2472 2471 2480 2511 2485 2408 2518 2503 2463 2542 2460 2578 2356 2504 2573 2475 2526 2550 2550 2481 2502 2400 2576 2455 2463 2483 2484 2450 2466 2410 2572 2485 2554 2491 2524 2436 2448 2507 2522 2454 2483 2369 2401 2475 2481 2458 2445 2455 2496 2484 2483 2528 2457 2558 2540 2447 2549 2492 2406 2497 2554 2495 2493 2540 2522 2461 2435 2485 2496 2550 2426 2422 2592 2531 2585 2610 2561 2565 2538 2563 2619 2577 2565 2557 2648 2596 2577 2634 2585 2627 2659 2601 2731 2726 2757 2816 2689 2842 2850 2854 2822 2805 2748 2761 2813 2777 2706 2790 2708 2732 2674 2654 2697 2775 2755 2616 2725 2780 2725 2717 2706 2667 2655 2678 2718 2738 2723 2612 2592 2649 2653 2627 2557 2584 2692 2585 2540 2569 2579 2506 2607 2493 2550 2526 2395 2515 2450 2461 2504 2468 2464 2498 2481 2483 2474 2432 2406 2411 2369 2521 2426 2454 2437 2371 2454 2430 2388 2368 2371 2297 2399 2371 2399 2372 2369 2372 2317 2313 2389 2334 2363 2356 2363 2355 2467 2388 2479 2470 2487 2449 2467 2425 2441 2389 2479 2530 2487 2550 2640 2610 2593 2647 2653 2685 2674 2664 2712 2702 2708 2691 2815 2672 2774 2789 2792 2749 2876 2873 2819 3014 2867 2801 2815 2868 2883 2889 2846 2832 2818 2807 2731 2772 2755 2724 2805 2650 2708 2749 2706 2654 2703 2653 2582 2699 2625 2608 2565 2594 2543 2544 2537 2575 2439 2555 2456 2380 2429 2462 2407 2416 2356 2359 2452 2409 2291 2309 2295 2376 2342 2328 2240 2317 2292 2300 2299 2363 2241 2326 2205 2267 2262 2218 2210 2258 2297 2264 2180 2296 2267 2235 2190 2249 2162 2230 2167 2177 2227 2240 2197 2185 2234 2130 2150 2207 2151 2107 2218 2177 2184 2173 2265 2234 2276 2188 2252 2195 2248 2127 2178 2208 2128 2197 2154 2191 2081 2182 2182 2181 2197 2204 2183 2098 2169 2176 2225 2135 2119 2198 2105 2121 2127 2198 2059 2218 2117 2236 2177 2117 2265 2183 2130 2097 2164 2181 2171 2134 2175 2175 2071 2121 2095 2208 2177 2140 2128 2101 2211 2165 2096 2181 2139 2134 2193 2164 2091 2161 2155 2139 2196 2187 2242 2122 2201 2167 2204 2123 2087 2135 2089 2144 2156 2095 2171 2159 2083 2114 2145 2206 2177 2104 2178 2222 2139 2132 2206 2142 2247 2103 2085 2162 2133 2113 2145 2106 2090 2146 2101 2120 2206 2144 2197 2072 2169 2224 2098 2136 2218 2119 2119 2143 2192 2086 2168 2049 2196 2121 2179 2191 2087 2149 2176 2156 2233 2160 2145 2207 2269 2175 2223 2222 2215 2247 2215 2138 2192 2176 2235 2140 2260 2234 2295 2215 2372 2321 2260 2199 2266 2257 2263 2303 2253 2291 2398 2344 2320 2290 2326 2250 2213 2242 2270 2229 2247 2203 2217 2188 2115 2137 2138 2255 2077 2151 2169 2184 2190 2128 2289 2135 2225 2210 2199 2262 2221 2161 2198 2260 2174 2213 2116 2246 2227 2208 2229 2073 2212 2101 2165 2127 2267 2177 2156 2214 2114 2151 2118 2077 2222 2098 2228 2116 2181 2076 2117 2187 2187 2130 2106 2129 2159 2137 2086 2120 2155 2174 2181 2165 2069 2204 2188 2094 2186 2240 2243 2161 2162 2213 2126 2174 2120 2197 2130 2224 2181 2074 2242 2224 2233 2186 2182 2138 2147 2143 2239 2172 2194 2204 2132 2142 2129 2174 2124 2164 2164 2223 2171 2138 2217 2149 2202 2162 2244 2180 2235 2210 2136 2152 2332 2184 2224 2316 2238 2256 2218 2294 2214 2413 2323 2267 2376 2332 2399 2362 2323 2325 2401 2408 2402 2435 2465 2518 2560 2615 2517 2685 2659 2621 2657 2739 2698 2826 2991 2921 2929 2897 3026 3104 2986 3058 3067 3110 3028 3086 3026 3088 3159 3124 3182 3112 3345 3193 3378 3372 3305 3413 3480 3514 3593 3630 3683 3761 3879 3878 3856 3855 3790 3701 3737 3528 3739 3724 3680 3600 3565 3437 3437 3424 3503 3517 3457 3482 3388 3355 3501 3391 3388 3443 3459 3292 3362 3303 3181 3320 3101 2975 3109 2928 2822 2873 2762 2706 2675 2668 2580 2653 2579 2562 2468 2678 2510 2436 2554 2477 2509 2392 2460 2397 2398 2200 2412 2435 2224 2251 2214 2172 2250 2173 2119 2176 2167 2193 2198 2186 2158 2174 2110 2222 2165 2110 2097 2085 2043 2064 2100 2179 2029 2098 2132 2095 1992 2071 2035 2026 2105 2094 2081 2132 2066 2019 2028 2061 2130 2151 2031 2135 2138 2057 2062 2088 2032 2140 2070 2021 2073 2009 1954 2078 2010 2014 1963 2010 2009 2072 1953 2011 2024 2031 2060 2001 1969 2037 2003 2066 2062 2017 2046 2056 1936 1997 2035 2061 2055 2046 2021 2046 1982 2069 2087 2040 1950 1955 2025 2038 2000 2034 1996 1991 1975 1969 2075 1899 2010 2058 1976 2079 1998 2066 1974 1974 2156 2004 2083 2036 1919 1952 2020 1912 2057 2009 2051 2050 2032 2015 1971 1926 2018 1997 2016 1962 1987 2018 1940 1971 1984 1993 1935 2054 1993 1915 2015 1951 1969 2047 1892 1978 1963 1988 2018 1981 1945 1958 1965 1965 1945 1944 1981 1981 1979 1946 2010 2023 1922 1885 2008 1922 1863 1964 2003 1969 1974 2010 1953 2016 1995 1918 1939 1883 2030 1976 1966 1868 1992 1869 2036 1979 1935 1896 1933 1984 2013 2057 2017 1968 1936 1963 1969 1989 1992 1929 1990 1970 1918 1955 1987 1921 1918 1955 1846 1977 2062 1951 1985 1932 1934 2011 1959 1983 1948 2001 2036 1985 1901 1943 1970 2009 1994 1972 1997 1991 2008 2015 2038 2032 1977 1998 1990 2090 1939 1910 1990 1961 1933 1987 1966 2035 2006 2032 2026 2054 1961 1981 2064 1995 2052 1980 2002 2067 2019 2072 1952 1973 1985 2086 1979 2009 2058 1990 1923 1985 1937 1910 1919 1961 1879 1898 1894 1940 1948 2020 1938 2028 1948 1952 2032 1896 1917 1908 1892 1865 1902 1840 1982 1865 1997 1916 1949 1940 1911 1973 1900 1983 1942 1992 1896 1913 1902 1958 1909 1941 1972 1884 1943 1916 1946 2035 1969 1969 1971 1887 1983 1919 1929 1947 2032 1876 1983 1858 1956 1926 1926 1890 1966 1957 1944 1927 1958 1918 2072 1982 1965 1987 1957 1930 1994 1986 2092 1938 2011 1940 1999 1896 1946 2001 1924 1885 2031 2010 1990 1954 1972 1971 1900 1974 1898 1944 2007 1877 1911 1967 1991 1956 1921 1938 1814 1951 1910 2025 1990 1903 1967 1896 1997 1900 1904 1833 1859 1906 1866 1847 1882 1917 1902 1957 1954 1916 1895 1877 1844 1838 1865 1856 1801 1846 1922 1906 1867 1895 1847 1848 1925 1791 1861 1908 1852 1856 1894 1842 1869 1919 1924 1891 1897 1870 1917 1888 1895 1900 1896 1911 1793 1858 1764 1915 1898 1844 1948 1885 1957 1867 1899 1849 1889 1925 1857 1878 1916 1901 1768 1879 1933 1848 1889 1898 1921 1884 1868 1882 1901 1910 1863 1882 1800 1948 1811 1941 1871 1953 1865 1822 1880 1794 1802 1878 1790 1780 1856 1826 1850 1794 1886 1889 1882 1893 1842 1894 1835 1823 1940 1854 1939 1813 1835 1856 1828 1941 1874 1904 1859 1811 1862 1805 1807 1808 1804 1851 1872 1814 1817 1869 1840 1907 1856 1847 1856 1918 1868 1912 1760 1917 1849 1828 1835 1862 1911 1844 1857 1840 1855 1917 1845 1892 1867 1825 1887 1873 1883 1873 1821 1890 1875 1876 1844 1864 1811 1868 1815 1812 1896 1899 1930 1830 1937 1916 1904 1851 1921 1834 1771 1882 1867 1850 1874 1964 1842 1814 1865 1840 1864 1836 1911 1806 1879 1895 1846 1798 1792 1809 1846 1889 1870 1853 1880 1793 1814 1848 1910 1795 1804 1856 1804 1870 1798 1853 1825 1832 1785 1786 1933 1853 1931 1773 1839 1781 1860 1870 1887 1828 1851 1848 1772 1801 1860 1810 1875 1816 1919 1865 1800 1856 1781 1827 1778 1859 1862 1880 1836 1831 1802 1762 1903 1887 1792 1829 1824 1866 1875 1875 1791 1838 1809 1894 1818 1791 1857 1862 1793 1903 1849 1845 1853 1811 1826 1859 1842 1809 1870 1809 1798 1857 1892 1795 1785 1863 1837 1908 1779 1783 1786 1835 1843 1890 1908 1797 1849 1828 1865 1897 1833 1859 1857 1841 1936 1855 1854 1942 1923 1876 1810 1826 1983 1882 1859 1920 1859 1906 1925 1948 1921 1895 1841 1820 1825 1754 1879 1845 1802 1853 1838 1844 1855 1847 1894 1839 1948 1825 1845 1833 1845 1884 1857 1824 1844 1892 1801 1803 1927 1851 1807 1851 1866 1767 1863 1868 1849 1823 1920 1815 1873 1779 1860 1834 1852 1872 1866 1787 1907 1855 1773 1826 1831 1742 1833 1865 1849 1807 1851 1815 1807 1809 1789 1795 1866 1849 1853 1890 1757 1745 1884 1832 1778 1834 1779 1741 1782 1823 1822 1777 1807 1841 1755 1850 1847 1817 1804 1841 1845 1895 1861 1754 1845 1821 1809 1835 1782 1845 1876 1790 1795 1883 1833 1878 1841 1808 1861 1826 1916 1804 1813 1906 1832 1859 1846 1827 1777 1831 1892 1815 1792 1900 1805 1789 1826 1779 1772 1741 1774 1780 1860 1795 1821 1856 1779 1855 1780 1868 1820 1816 1740 1767 1853 1897 1754 1830 1801 1841 1818 1951 1848 1773 1841 1876 1762 1823 1768 1733 1776 1810 1745 1779 1874 1775 1842 1750 1795 1789 1829 1798 1785 1740 1812 1781 1794 1754 1799 1819 1756 1834 1820 1842 1750 1818 1798 1816 1911 1747 1832 1905 1855 1802 1824 1821 1755 1835 1802 1733 1769 1809 1839 1835 1802 1809 1835 1937 1872 1883 1842 1818 1834 1901 1836 1835 1885 1806 1898 1864 1811 1896 1940 1890 1972 1935 1941 1959 1876 1889 1922 1936 1931 1811 1917 1877 1905 1892 1891 1931 1958 2064 1836 1960 1839 1888 2005 1992 1910 2016 1959 1918 1926 2002 1939 1995 1926 1976 1938 1944 1968 1931 1889 2008 1979 2108 2043 2037 1944 1929 1857 2050 1933 1859 1961 1957 1919 1931 1941 1887 1906 1881 1899 1968 1911 1856 1930 1920 1829 1889 1907 1840 1913 1885 1835 1876 1790 1800 1848 1844 1808 1802 1886 1869 1868 1724 1838 1824 1807 1786 1752 1922 1791 1732 1767 1854 1806 1770 1791 1788 1782 1814 1799 1789 1838 1780 1817 1724 1822 1825 1800 1746 1779 1769 1808 1820 1723 1745 1780 1764 1803 1802 1818 1788 1802 1787 1742 1849 1715 1746 1767 1760 1828 1798 1759 1789 1731 1730 1821 1754 1735 1755 1728 1732 1806 1727 1756 1736 1746 1742 1774 1785 1702 1788 1735 1793 1841 1805 1815 1736 1742 1843 1842 1820 1783 1778 1730 1828 1716 1770 1722 1743 1742 1754 1838 1752 1788 1813 1736 1735 1792 1776 1766 1714 1699 1786 1766 1744 1762 1763 1831 1678 1785 1803 1765 1819 1729 1756 1756 1743 1728 1685 1778 1723 1702 1739 1699 1762 1769 1708 1806 1740 1795 1839 1741 1800 1761 1706 1705 1697 1746 1740 1790 1817 1697 1769 1687 1739 1717 1799 1753 1734 1788 1784 1751 1698 1719 1783 1664 1690 1735 1679 1786 1799 1704 1802 1717 1714 1817 1800 1711 1804 1635 1759 1713 1747 1758 1765 1702 1775 1755 1838 1727 1859 1749 1793 1773 1806 1763 1727 1657 1715 1751 1797 1816 1790 1723 1730 1747 1684 1743 1722 1772 1693 1705 1689 1762 1654 1740 1693 1729 1764 1690 1795 1681 1806 1744 1724 1723 1678 1777 1764 1715 1734 1696 1753 1715 1765 1775 1732 1717 1793 1827 1796 1819 1717 1739 1752 1789 1701 1798 1815 1770 1760 1713 1800 1707 1740 1761 1747 1753 1741 1771 1802 1759 1658 1674 1759 1731 1738 1694 1776 1772 1732 1805 1751 1722 1698 1680 1835 1761 1716 1783 1797 1702 1700 1797 1702 1735 1704 1767 1775 1769 1775 1737 1743 1740 1820 1736 1824 1691 1694 1868 1778 1758 1797 1768 1826 1735 1776 1742 1823 1778 1819 1831 1779 1893 1795 1870 1904 1867 1749 1861 1815 1869 1800 1760 1847 1799 1830 1868 1856 1913 1911 2004 2072 2003 2019 2010 1993 2046 2029 2026 2162 2144 2126 2214 2324 2276 2388 2378 2494 2538 2510 2556 2474 2588 2549 2589 2655 2648 2632 2616 2567 2638 2589 2685 2568 2758 2734 2656 2626 2667 2709 2530 2599 2534 2515 2606 2508 2503 2431 2382 2371 2409 2296 2365 2280 2326 2400 2323 2234 2206 2375 2328 2193 2265 2175 2175 2209 2261 2199 2244 2163 2128 2133 2133 2107 2115 2116 2027 2067 2028 2057 2011 2042 1915 2036 1931 1948 1905 1939 1950 1845 1948 1875 1908 1827 1864 1851 1819 1802 1887 1827 1859 1833 1813 1824 1812 1844 1764 1764 1775 1781 1761 1836 1792 1824 1821 1827 1758 1861 1828 1844 1782 1794 1810 1807 1841 1811 1760 1782 1729 1824 1808 1813 1750 1766 1717 1777 1741 1730 1714 1767 1714 1733 1745 1781 1724 1893 1794 1734 1737 1745 1779 1752 1729 1791 1750 1679 1749 1771 1767 1768 1770 1717 1711 1755 1716 1742 1712 1744 1745 1738 1715 1797 1764 1769 1749 1761 1723 1761 1643 1676 1737 1678 1771 1677 1726 1731 1716 1686 1672 1725 1754 1725 1698 1752 1705 1773 1697 1697 1758 1722 1716 1736 1683 1719 1730 1734 1753 1674 1654 1758 1715 1677 1677 1684 1667 1736 1679 1656 1682 1674 1777 1775 1753 1684 1708 1721 1706 1719 1631 1747 1783 1720 1788 1706 1679 1807 1780 1767 1779 1795 1777 1770 1828 1825 1848 1849 1758 1823 1810 1759 1755 1822 1826 1724 1823 1835 1807 1833 1822 1788 1859 1772 1728 1698 1754 1828 1804 1759 1808 1803 1792 1831 1779 1828 1826 1763 1759 1761 1666 1882 1753 1794 1752 1744 1781 1866 1787 1740 1742 1747 1790 1761 1843 1821 1752 1755 1849 1726 1756 1782 1824 1729 1783 1746 1684 1722 1780 1720 1676 1747 1727 1717 1755 1778 1777 1696 1774 1771 1777 1654 1748 1739 1709 1714 1822 1776 1665 1704 1779 1704 1714 1755 1700 1654 1712 1621 1707 1681 1662 1757 1732 1657 1685 1675 1641 1783 1629 1814 1711 1717 1707 1670 1641 1773 1633 1757 1653 1704 1679 1617 1753 1743 1682 1714 1715 1731 1655 1696 1721 1637 1717 1697 1685 1705 1670 1660 1704 1705 1673 1623 1706 1623 1678 1666 1658 1652 1607 1687 1632 1742 1779 1694 1613 1686 1688 1691 1708 1711 1688 1717 1649 1603 1671 1609 1639 1699 1647 1627 1690 1647 1624 1628 1645 1671 1621 1672 1663 1650 1670 1651 1629 1696 1693 1696 1705 1648 1592 1649 1659 1649 1610 1664 1650 1665 1589 1640 1617 1616 1614 1611 1628 1663 1634 1664 1673 1626 1657 1689 1614 1628 1594 1624 1639 1602 1615 1646 1616 1638 1678 1612 1703 1613 1625 1605 1637 1669 1582 1609 1613 1594 1562 1657 1638 1615 1720 1620 1601 1577 1646 1681 1698 1612 1632 1663 1650 1647 1625 1626 1654 1621 1649 1646 1611 1666 1685 1687 1615 1556 1630 1667 1623 1599 1630 1636 1687 1669 1679 1587 1661 1587 1651 1500 1638 1584 1654 1597 1628 1614 1648 1587 1586 1610 1625 1612 1623 1573 1656 1522 1690 1623 1570 1644 1542 1610 1587 1631 1644 1670 1676 1593 1585 1670 1567 1612 1577 1588 1609 1621 1621 1559 1616 1642 1678 1616 1551 1628 1579 1628 1648 1656 1547 1580 1597 1593 1596 1609 1576 1699 1640 1611 1622 1580 1643 1622 1621 1572 1625 1618 1645 1589 1593 1585 1639 1565 1580 1657 1598 1594 1593 1647 1588 1636 1652 1664 1652 1594 1579 1544 1616 1644 1567 1640 1651 1635 1559 1643 1721 1524 1590 1633 1596 1563 1580 1623 1644 1629 1639 1622 1615 1630 1631 1593 1646 1620 1644 1655 1606 1613 1615 1563 1677 1681 1595 1611 1664 1630 1632 1627 1612 1610 1637 1651 1649 1653 1614 1640 1641 1672 1617 1643 1633 1660 1603 1645 1675 1647 1648 1627 1702 1603 1666 1616 1712 1610 1586 1629 1549 1601 1685 1619 1699 1547 1671 1703 1642 1649 1617 1605 1644 1569 1698 1615 1619 1678 1666 1550 1600 1609 1615 1680 1603 1680 1555 1617 1594 1489 1610 1613 1579 1536 1592 1522 1668 1591 1622 1636 1665 1587 1647 1619 1625 1626 1586 1573 1570 1653 1658 1598 1603 1668 1635 1611 1626 1575 1545 1534 1649 1542 1683 1539 1620 1665 1660 1564 1631 1613 1588 1593 1605 1575 1601 1564 1601 1593 1558 1585 1485 1532 1542 1654 1605 1569 1607 1659 1616 1637 1574 1578 1601 1692 1560 1553 1615 1547 1630 1675 1618 1583 1629 1556 1603 1565 1615 1629 1534 1566 1650 1635 1637 1523 1602 1648 1550 1538 1542 1569 1600 1632 1568 1587 1569 1655 1588 1576 1571 1623 1563 1564 1603 1564 1607 1646 1611 1645 1661 1642 1660 1562 1590 1539 1612 1622 1588 1625 1591 1584 1628 1581 1678 1640 1617 1589 1611 1561 1656 1659 1673 1609 1533 1660 1612 1598 1579 1588 1613 1687 1635 1636 1561 1650 1598 1641 1567 1621 1540 1641 1594 1651 1599 1657 1618 1627 1511 1600 1552 1606 1671 1651 1648 1629 1626 1560 1591 1664 1587 1651 1682 1623 1629 1671 1602 1605 1628 1675 1652 1696 1558 1660 1625 1684 1697 1645 1652 1619 1593 1640 1652 1664 1620 1615 1610 1710 1665 1689 1652 1605 1696 1673 1635 1697 1648 1726 1682 1736 1674 1700 1587 1772 1725 1694 1668 1748 1700 1646 1678 1615 1697 1657 1601 1636 1656 1641 1653 1700 1672 1638 1671 1730 1664 1669 1627 1750 1572 1628 1669 1671 1580 1695 1649 1696 1673 1623 1608 1619 1684 1651 1686 1650 1637 1639 1685 1681 1629 1645 1577 1593 1670 1625 1657 1607 1548 1565 1591 1667 1692 1558 1612 1671 1555 1567 1541 1569 1611 1571 1618 1608 1570 1604 1611 1708 1537 1620 1518 1582 1570 1502 1554 1539 1541 1586 1539 1582 1632 1603 1572 1582 1566 1579 1506 1565 1548 1579 1547 1523 1545 1553 1603 1605 1512 1607 1535 1515 1529 1531 1548 1564 1535 1583 1607 1582 1597 1481 1599 1607 1623 1567 1555 1604 1535 1568 1560 1533 1528 1553 1479 1505 1527 1629 1537 1546 1578 1563 1593 1591 1526 1610 1569 1540 1544 1558 1533 1572 1605 1649 1556 1598 1629 1534 1586 1539 1548 1597 1588 1590 1669 1640 1586 1565 1584 1604 1602 1560 1544 1609 1501 1604 1620 1553 1533 1579 1641 1618 1581 1562 1561 1594 1496 1490 1527 1567 1540 1556 1583 1519 1565 1560 1553 1553 1563 1610 1523 1600 1644 1542 1562 1575 1588 1535 1624 1489 1607 1542 1577 1585 1596 1556 1516 1553 1606 1637 1553 1521 1587 1561 1548 1499 1555 1573 1577 1565 1532 1622 1586 1527 1603 1679 1577 1627 1568 1649 1627 1565 1513 1642 1591 1522 1631 1639 1661 1627 1680 1641 1673 1586 1573 1702 1639 1713 1717 1659 1655 1666 1644 1737 1629 1684 1660 1665 1657 1736 1661 1755 1728 1758 1683 1769 1729 1692 1715 1672 1714 1673 1694 1833 1619 1629 1696 1688 1754 1780 1737 1758 1772 1799 1852 1737 1776 1698 1715 1831 1771 1789 1709 1642 1818 1683 1757 1801 1591 1758 1683 1688 1720 1639 1622 1654 1622 1721 1649 1603 1681 1588 1632 1683 1590 1644 1603 1630 1573 1644 1604 1570 1593 1607 1578 1595 1686 1587 1632 1626 1583 1572 1618 1526 1562 1615 1543 1558 1578 1579 1577 1627 1703 1535 1586 1630 1534 1541 1573 1563 1629 1567 1532 1573 1551 1578 1512 1590 1563 1542 1564 1544 1523 1435 1518 1535 1531 1545 1565 1540 1580 1569 1432 1493 1559 1593 1501 1602 1476 1563 1569 1579 1456 1562 1518 1605 1498 1482 1581 1613 1588 1588 1527 1539 1516 1611 1551 1663 1500 1539 1611 1555 1497 1607 1559 1530 1526 1495 1531 1545 1592 1500 1539 1551 1555 1581 1492 1501 1555 1496 1523 1622 1563 1530 1586 1551 1591 1613 1538 1543 1559 1590 1540 1567 1535 1484 1517 1540 1587 1630 1533 1558 1592 1624 1532 1616 1513 1568 1628 1618 1575 1605 1579 1587 1521 1572 1621 1613 1618 1627 1540 1655 1660 1582 1621 1620 1654 1622 1552 1641 1612 1627 1601 1582 1594 1630 1577 1588 1562 1584 1601 1545 1627 1517 1605 1554 1583 1545 1558 1633 1523 1523 1620 1530 1597 1556 1546 1601 1528 1561 1544 1569 1530 1561 1547 1540 1543 1555 1587 1589 1543 1567 1509 1519 1564 1624 1593 1561 1517 1563 1577 1625 1537 1549 1525 1544 1500 1542 1577 1464 1543 1533 1499 1422 1546 1555 1531 1518 1527 1559 1572 1581 1548 1510 1483 1599 1489 1605 1503 1503 1603 1498 1493 1501 1482 1521 1498 1524 1515 1519 1535 1475 1597 1502 1553 1528 1420 1564 1530 1510 1519 1562 1577 1441 1547 1573 1488 1523 1533 1485 1517 1493 1499 1527 1524 1529 1564 1499 1521 1459 1447 1524 1478 1487 1502 1581 1511 1474 1492 1526 1472 1487 1550 1488 1510 1495 1482 1581 1521 1540 1515 1501 1455 1497 1482 1514 1550 1565 1555 1436 1506 1521 1547 1529 1526 1441 1458 1469 1404 1508 1491 1596 1451 1490 1465 1519 1513 1563 1504 1511 1563 1506 1511 1511 1555 1493 1500 1545 1533 1519 1558 1553 1571 1537 1470 1450 1443 1526 1476 1510 1534 1545 1579 1455 1480 1546 1476 1549 1562 1504 1505 1496 1500 1489 1475 1503 1551 1543 1483 1532 1459 1565 1547 1621 1505 1571 1524 1555 1528 1516 1536 1483 1502 1491 1525 1498 1544 1484 1519 1527 1524 1509 1535 1579 1493 1482 1457 1501 1485 1558 1527 1537 1453 1522 1484 1434 1431 1449 1469 1505 1478 1528 1504 1507 1537 1540 1629 1453 1515 1494 1459 1464 1480 1524 1404 1511 1568 1543 1526 1485 1552 1543 1562 1455 1506 1484 1518 1466 1580 1519 1507 1531 1523 1481 1471 1565 1520 1522 1461 1489 1539 1469 1539 1570 1486 1456 1471 1574 1500 1466 1489 1499 1514 1552 1450 1518 1494 1522 1615 1472 1511 1496 1505 1561 1538 1601 1522 1554 1541 1522 1508 1475 1503 1537 1565 1484 1459 1448 1565 1449 1536 1535 1534 1462 1511 1494 1551 1542 1500 1598 1492 1450 1441 1500 1545 1459 1495 1490 1527 1510 1514 1501 1588 1543 1463 1503 1512 1464 1461 1491 1563 1505 1489 1506 1574 1491 1455 1410 1563 1468 1545 1519 1519 1510 1502 1466 1560 1473 1510 1478 1553 1461 1482 1451 1515 1531 1507 1488 1581 1504 1436 1530 1485 1543 1492 1525 1477 1566 1490 1447 1488 1484 1493 1456 1570 1493 1451 1514 1474 1508 1544 1531 1425 1399 1504 1467 1504 1517 1482 1488 1518 1467 1483 1476 1442 1504 1544 1448 1535 1480 1606 1470 1495 1513 1463 1476 1576 1529 1490 1505 1478 1497 1579 1532 1473 1466 1474 1528 1533 1459 1449 1527 1523 1541 1475 1454 1491 1460 1427 1440 1491 1465 1467 1539 1492 1542 1565 1506 1505 1478 1533 1499 1447 1492 1484 1460 1489 1531 1416 1475 1476 1478 1489 1493 1493 1489 1497 1514 1445 1455 1570 1474 1517 1526 1505 1513 1500 1446 1474 1522 1544 1479 1497 1502 1450 1493 1471 1528 1554 1513 1539 1486 1471 1581 1497 1520 1536 1543 1504 1488 1532 1462 1481 1491 1478 1524 1514 1518 1475 1528 1494 1506 1539 1539 1515 1533 1503 1498 1452 1517 1478 1517 1530 1494 1471 1489 1574 1537 1535 1559 1523 1529 1476 1496 1477 1484 1523 1548 1558 1446 1491 1554 1513 1527 1517 1520 1524 1536 1510 1489 1425 1493 1470 1462 1422 1489 1489 1463 1523 1487 1465 1542 1540 1452 1533 1516 1478 1442 1486 1507 1509 1487 1459 1480 1502 1486 1470 1497 1434 1468 1408 1476 1479 1455 1463 1430 1518 1500 1516 1452 1516 1491 1456 1478 1525 1542 1490 1436 1473 1454 1432 1507 1500 1526 1458 1485 1493 1474 1548 1477 1515 1505 1462 1468 1408 1521 1451 1529 1514 1503 1482 1467 1449 1424 1471 1478 1459 1407 1440 1506 1453 1496 1548 1495 1430 1498 1538 1466 1534 1535 1495 1493 1455 1567 1488 1449 1478 1456 1451 1462 1424 1470 1438 1469 1400 1507 1536 1420 1508 1446 1456 1503 1437 1496 1537 1479 1498 1456 1468 1516 1420 1449 1486 1578 1471 1494 1452 1449 1503 1467 1518 1412 1469 1467 1514 1532 1447 1529 1538 1489 1502 1443 1478 1465 1470 1518 1407 1460 1524 1476 1479 1472 1554 1507 1507 1517 1504 1522 1498 1472 1415 1430 1451 1504 1487 1449 1447 1481 1435 1536 1434 1524 1440 1474 1472 1524 1521 1504 1499 1407 1509 1526 1514 1529 1422 1440 1451 1396 1490 1463 1471 1479 1445 1549 1512 1490 1465 1458 1419 1588 1495 1505 1484 1509 1500 1514 1547 1405 1490 1471 1426 1612 1537 1521 1499 1470 1417 1586 1478 1477 1475 1510 1430 1509 1505 1513 1455 1560 1504 1458 1525 1471 1478 1478 1557 1438 1482 1494 1463 1494 1596 1448 1537 1431 1534 1511 1514 1514 1512 1447 1472 1456 1441 1452 1466 1435 1498 1501 1510 1476 1480 1483 1505 1570 1556 1583 1508 1534 1533 1519 1480 1485 1541 1558 1556 1494 1541 1584 1472 1458 1548 1476 1551 1459 1519 1508 1531 1399 1580 1579 1554 1480 1600 1537 1511 1556 1496 1603 1518 1519 1512 1487 1599 1439 1527 1572 1495 1521 1492 1526 1494 1531 1487 1569 1476 1534 1546 1531 1532 1460 1522 1504 1460 1535 1527 1532 1489 1478 1468 1474 1449 1473 1456 1380 1452 1501 1475 1454 1419 1395 1461 1521 1454 1453 1461 1421 1400 1457 1440 1445 1447 1424 1488 1510 1481 1456 1410 1423 1471 1485 1472 1393 1495 1461 1437 1517 1482 1502 1474 1468 1477 1411 1445 1424 1450 1429 1488 1474 1423 1433 1434 1470 1530 1421 1492 1476 1409 1495 1490 1413 1473 1491 1542 1475 1492 1524 1495 1455 1466 1468 1458 1548 1462 1521 1390 1502 1453 1555 1452 1467 1508 1488 1477 1494 1443 1463 1486 1502 1440 1522 1442 1426 1495 1472 1436 1426 1442 1495 1474 1459 1524 1544 1520 1464 1449 1477 1496 1422 1448 1488 1462 1457 1473 1482 1463 1446 1488 1442 1396 1469 1437 1475 1469 1506 1393 1519 1487 1533 1408 1439 1563 1423 1391 1439 1396 1430 1504 1558 1449 1475 1457 1469 1466 1451 1425 1530 1453 1446 1452 1419 1431 1486 1450 1430 1379 1477 1412 1477 1474 1467 1462 1423 1383 1462 1463 1432 1471 1437 1468 1446 1516 1476 1466 1416 1418 1395 1436 1421 1528 1417 1465 1512 1440 1432 1520 1420 1497 1510 1483 1394 1552 1444 1468 1486 1478 1567 1411 1535 1462 1447 1493 1495 1432 1432 1489 1454 1529 1519 1385 1444 1487 1479 1512 1473 1444 1414 1473 1423 1481 1453 1446 1525 1497 1424 1398 1445 1456 1481 1429 1478 1386 1476 1432 1424 1419 1469 1468 1449 1406 1472 1475 1447 1458 1459 1510 1447 1404 1383 1461 1479 1516 1437 1464 1443 1463 1399 1460 1384 1466 1432 1426 1423 1503 1403 1401 1511 1494 1507 1484 1423 1480 1459 1472 1453 1473 1433 1449 1437 1498 1455 1477 1489 1421 1474 1420 1470 1494 1422 1498 1477 1424 1477 1430 1490 1445 1495 1396 1437 1485 1478 1433 1486 1493 1430 1470 1469 1421 1450 1457 1437 1427 1468 1432 1525 1529 1421 1489 1481 1441 1486 1437 1444 1438 1413 1496 1461 1457 1517 1457 1440 1394 1425 1442 1409 1455 1505 1414 1406 1460 1433 1544 1501 1419 1460 1439 1489 1416 1471 1506 1471 1424 1456 1426 1479 1469 1444 1431 1455 1471 1490 1460 1452 1403 1459 1498 1426 1491 1427 1454 1557 1455 1428 1405 1468 1439 1451 1420 1541 1376 1481 1480 1396 1517 1402 1480 1523 1526 1451 1432 1373 1478 1452 1451 1493 1454 1448 1480 1421 1491 1469 1459 1504 1414 1432 1489 1463 1422 1463 1483 1474 1439 1449 1460 1482 1434 1483 1508 1457 1455 1465 1435 1498 1476 1499 1394 1437 1403 1443 1479 1429 1464 1431 1464 1461 1447 1441 1498 1538 1423 1407 1392 1493 1444 1444 1464 1492 1492 1501 1414 1381 1469 1476 1459 1518 1478 1523 1471 1433 1486 1465 1407 1449 1475 1448 1537 1442 1427 1486 1434 1453 1466 1495 1466 1453 1465 1421 1416 1449 1452 1475 1486 1451 1509 1503 1452 1491 1474 1444 1481 1358 1511 1497 1376 1435 1449 1454 1441 1441 1494 1414 1360 1423 1411 1481 1431 1370 1469 1461 1403 1414 1462 1549 1457 1431 1441 1425 1432 1393 1445 1410 1470 1428 1413 1461 1484 1448 1484 1467 1443 1472 1457 1450 1448 1441 1463 1396 1394 1408 1504 1494 1457 1493 1450 1449 1391 1419 1413 1453 1436 1416 1406 1462 1529 1462 1522 1407 1462 1450 1492 1438 1426 1478 1437 1526 1460 1467 1472 1409 1454 1413 1427 1439 1520 1523 1481 1503 1431 1470 1496 1505 1422 1552 1427 1494 1499 1505 1464 1509 1546 1474 1391 1446 1477 1478 1450 1558 1484 1477 1477 1440 1482 1454 1502 1471 1517 1492 1467 1429 1488 1533 1442 1506 1571 1451 1528 1466 1486 1522 1500 1509 1545 1518 1489 1524 1493 1523 1525 1504 1537 1421 1463 1505 1461 1547 1410 1454 1500 1462 1517 1474 1496 1467 1439 1453 1446 1444 1439 1443 1468 1409 1469 1541 1472 1519 1490 1462 1528 1486 1520 1512 1451 1473 1515 1457 1481 1479 1442 1439 1529 1489 1505 1550 1452 1442 1488 1467 1558 1455 1421 1472 1538 1479 1493 1462 1496 1458 1518 1500 1419 1516 1524 1464 1460 1481 1436 1491 1458 1475 1483 1470 1454 1475 1481 1465 1487 1511 1465 1403 1437 1443 1455 1434 1441 1484 1466 1545 1421 1484 1489 1491 1493 1462 1466 1472 1526 1513 1468 1487 1462 1506 1493 1400 1440 1481 1420 1495 1544 1479 1472 1440 1505 1484 1467 1482 1463 1417 1470 1444 1412 1468 1462 1476 1480 1427 1457 1463 1423 1426 1501 1466 1497 1507 1412 1392 1502 1413 1398 1489 1396 1526 1457 1473 1497 1411 1459 1480 1508 1483 1396 1458 1426 1507 1423 1426 1445 1537 1505 1423 1478 1453 1495 1429 1494 1478 1483 1446 1436 1465 1441 1454 1511 1440 1418 1379 1506 1491 1492 1449 1441 1478 1491 1496 1470 1520 1490 1506 1452 1448 1514 1425 1451 1466 1464 1459 1485 1489 1466 1442 1476 1433 1458 1489 1516 1543 1496 1458 1426 1517 1545 1499 1435 1472 1467 1505 1521 1465 1418 1432 1491 1521 1485 1546 1507 1477 1496 1556 1569 1548 1567 1605 1457 1577 1581 1551 1449 1483 1554 1571 1447 1557 1572 1541 1495 1533 1550 1573 1547 1572 1547 1478 1542 1588 1524 1613 1453 1556 1550 1585 1491 1559 1510 1590 1532 1529 1506 1594 1580 1541 1579 1574 1471 1513 1560 1538 1496 1590 1577 1541 1554 1540 1637 1578 1544 1550 1492 1539 1516 1569 1522 1520 1582 1534 1584 1573 1623 1530 1555 1521 1562 1575 1548 1537 1588 1536 1533 1515 1592 1536 1525 1528 1551 1576 1535 1455 1498 1514 1505 1542 1524 1549 1501 1541 1488 1454 1529 1508 1469 1572 1622 1559 1527 1580 1551 1553 1437 1499 1513 1518 1513 1556 1469 1570 1490 1536 1503 1468 1526 1497 1530 1506 1479 1452 1531 1454 1470 1440 1489 1514 1489 1487 1492 1508 1491 1511 1365 1528 1481 1486 1438 1444 1483 1429 1407 1413 1549 1463 1432 1441 1456 1361 1479 1452 1533 1473 1457 1426 1462 1415 1430 1445 1478 1450 1485 1430 1464 1407 1436 1538 1454 1508 1429 1557 1429 1448 1465 1481 1532 1483 1433 1382 1435 1455 1446 1418 1442 1444 1404 1406 1446 1400 1425 1419 1383 1449 1394 1536 1449 1470 1487 1428 1498 1458 1442 1442 1395 1401 1463 1371 1433 1429 1452 1441 1442 1440 1463 1420 1418 1431 1440 1492 1453 1386 1425 1414 1440 1459 1479 1486 1447 1442 1451 1506 1480 1549 1415 1425 1442 1455 1441 1537 1467 1428 1405 1428 1454 1333 1446 1391 1445 1502 1414 1422 1452 1402 1417 1464 1462 1561 1478 1466 1480 1449 1456 1455 1374 1428 1434 1416 1449 1475 1355 1442 1365 1427 1430 1471 1420 1514 1451 1450 1418 1433 1435 1400 1496 1422 1406 1433 1455 1524 1403 1425 1455 1392 1467 1478 1388 1379 1459 1435 1429 1454 1391 1386 1449 1439 1445 1352 1460 1387 1440 1432 1451 1444 1415 1438 1436 1430 1481 1440 1402 1498 1415 1448 1417 1417 1438 1441 1378 1446 1404 1470 1328 1447 1388 1511 1394 1396 1390 1414 1470 1363 1413 1428 1409 1446 1382 1414 1425 1462 1470 1396 1540 1431 1371 1387 1401 1400 1541 1446 1480 1388 1417 1360 1364 1406 1409 1436 1400 1513 1416 1414 1366 1336 1370 1418 1399 1445 1389 1455 1405 1450 1460 1403 1388 1432 1435 1417 1416 1431 1383 1494 1401 1373 1415 1436 1431 1381 1411 1403 1407 1476 1431 1420 1446 1387 1405 1434 1369 1423 1385 1402 1436 1423 1414 1397 1408 1394 1372 1401 1407 1444 1440 1406 1425 1433 1382 1288 1477 1428 1441 1341 1396 1414 1352 1426 1381 1414 1429 1464 1435 1446 1417 1458 1379 1390 1427 1413 1374 1457 1401 1473 1400 1421 1382 1432 1402 1472 1325 1454 1457 1454 1432 1406 1374 1377 1416 1456 1362 1461 1454 1389 1420 1415 1431 1367 1404 1421 1350 1430 1391 1363 1445 1477 1426 1381 1401 1455 1476 1442 1376 1425 1375 1428 1340 1400 1408 1412 1458 1385 1425 1453 1408 1423 1463 1400 1423 1381 1372 1338 1399 1438 1459 1421 1388 1416 1394 1409 1447 1402 1438 1459 1443 1422 1435 1383 1382 1433 1403 1347 1396 1370 1375 1420 1468 1389 1420 1341 1451 1394 1366 1486 1413 1425 1408 1405 1353 1423 1381 1401 1376 1367 1399 1419 1426 1425 1430 1382 1345 1386 1361 1502 1428 1405 1405 1424 1414 1435 1454 1379 1392 1396 1386 1414 1416 1371 1462 1398 1327 1450 1435 1429 1432 1368 1461 1363 1439 1420 1365 1350 1408 1469 1384 1477 1466 1418 1427 1437 1443 1461 1348 1376 1470 1435 1440 1405 1371 1445 1418 1489 1459 1438 1382 1435 1427 1472 1367 1358 1491 1442 1367 1408 1418 1360 1386 1349 1385 1412 1412 1408 1406 1362 1386 1351 1328 1404 1433 1362 1381 1401 1435 1418 1468 1436 1429 1354 1417 1372 1484 1458 1454 1442 1337 1416 1493 1385 1408 1366 1404 1429 1475 1400 1433 1407 1386 1342 1404 1425 1435 1454 1355 1432 1415 1412 1452 1390 1492 1498 1350 1374 1430 1419 1353 1376 1422 1448 1429 1458 1494 1341 1442 1345 1467 1405 1424 1453 1401 1420 1369 1421 1393 1387 1406 1378 1393 1438 1366 1431 1490 1457 1411 1440 1422 1371 1387 1438 1453 1394 1455 1450 1396 1399 1431 1440 1446 1440 1378 1344 1319 1413 1394 1350 1358 1493 1442 1446 1421 1365 1432 1361 1386 1360 1389 1433 1382 1440 1400 1409 1403 1396 1398 1362 1398 1424 1379 1386 1456 1397 1481 1406 1427 1355 1402 1333 1400 1347 1443 1345 1416 1387 1434 1404 1392 1368 1445 1388 1400 1421 1372 1324 1323 1383 1385 1396 1332 1308 1397 1353 1463 1373 1397 1371 1468 1401 1441 1425 1375 1354 1419 1365 1374 1400 1347 1402 1481 1461 1289 1423 1384 1435 1390 1403 1396 1421 1338 1346 1423 1380 1374 1405 1495 1353 1361 1394 1337 1398 1426 1428 1352 1398 1392 1289 1345 1424 1404 1376 1333 1394 1374 1392 1467 1399 1375 1379 1416 1414 1329 1356 1422 1410 1382 1446 1408 1395 1372 1358 1376 1395 1405 1295 1364 1445 1441 1355 1342 1398 1368 1493 1405 1389 1383 1376 1391 1503 1430 1468 1407 1409 1331 1467 1384 1412 1380 1377 1392 1325 1403 1421 1332 1425 1425 1430 1432 1392 1377 1369 1375 1419 1356 1392 1464 1380 1384 1428 1353 1377 1413 1350 1431 1452 1393 1470 1421 1361 1421 1411 1386 1433 1381 1426 1359 1336 1345 1374 1355 1442 1428 1372 1374 1403 1432 1401 1338 1483 1377 1377 1445 1468 1426 1442 1439 1369 1439 1509 1372 1422 1418 1425 1503 1421 1397 1391 1445 1385 1492 1403 1430 1408 1443 1506 1481 1468 1401 1444 1434 1448 1463 1464 1519 1501 1454 1527 1490 1458 1444 1451 1434 1448 1424 1478 1462 1510 1503 1499 1463 1476 1468 1441 1550 1460 1514 1526 1479 1507 1456 1479 1499 1434 1423 1440 1447 1428 1471 1446 1444 1502 1496 1520 1482 1403 1542 1462 1432 1462 1426 1488 1455 1449 1404 1454 1438 1419 1415 1476 1450 1402 1455 1520 1444 1459 1428 1436 1462 1390 1456 1442 1518 1480 1471 1448 1445 1479 1475 1440 1429 1408 1540 1488 1472 1475 1508 1450 1453 1442 1425 1443 1485 1415 1514 1436 1472 1473 1425 1502 1401 1462 1349 1478 1421 1446 1478 1451 1466 1429 1411 1421 1392 1430 1385 1433 1427 1376 1420 1405 1425 1437 1446 1415 1361 1367 1456 1473 1358 1414 1401 1436 1412 1413 1406 1389 1379 1408 1442 1382 1425 1379 1336 1402 1402 1343 1437 1383 1460 1438 1391 1372 1401 1407 1422 1427 1434 1392 1389 1416 1394 1361 1362 1407 1417 1409 1385 1382 1422 1381 1460 1330 1412 1509 1376 1474 1428 1331 1363 1410 1419 1351 1407 1492 1435 1398 1438 1444 1380 1440 1443 1374 1359 1397 1398 1376 1442 1384 1420 1381 1423 1389 1448 1347 1391 1396 1457 1354 1425 1417 1397 1392 1388 1392 1323 1381 1436 1431 1433 1398 1411 1369 1359 1384 1360 1349 1436 1342 1334 1353 1413 1433 1390 1379 1371 1375 1354 1387 1336 1359 1362 1366 1375 1425 1420 1399 1399 1376 1373 1433 1360 1385 1344 1444 1404 1423 1341 1440 1402 1415 1390 1482 1413 1456 1394 1375 1380 1396 1399 1393 1403 1422 1425 1405 1361 1425 1427 1345 1367 1395 1427 1394 1429 1386 1428 1341 1367 1397 1431 1364 1388 1360 1364 1475 1374 1434 1387 1436 1414 1363 1390 1372 1449 1403 1321 1346 1377 1304 1401 1426 1407 1382 1373 1438 1420 1374 1333 1310 1381 1410 1408 1316 1432 1406 1394 1368 1324 1413 1379 1398 1397 1336 1343 1406 1403 1399 1389 1456 1416 1357 1445 1417 1358 1356 1429 1466 1405 1393 1393 1435 1400 1353 1291 1384 1286 1365 1410 1374 1422 1434 1402 1315 1397 1383 1390 1434 1346 1397 1380 1306 1357 1404 1423 1373 1370 1317 1400 1412 1368 1359 1307 1359 1356 1392 1472 1425 1383 1345 1372 1378 1431 1363 1349 1418 1371 1357 1358 1383 1386 1319 1411 1424 1348 1319 1433 1449 1372 1430 1380 1351 1358 1352 1375 1380 1400 1426 1402 1353 1442 1325 1392 1407 1358 1424 1433 1427 1368 1379 1376 1391 1350 1369 1375 1350 1329 1387 1366 1365 1374 1415 1369 1349 1375 1433 1373 1401 1359 1367 1357 1396 1369 1361 1345 1421 1384 1395 1274 1352 1399 1422 1402 1369 1385 1375 1335 1385 1323 1354 1382 1379 1405 1376 1357 1413 1348 1413 1347 1387 1335 1395 1377 1414 1368 1343 1402 1395 1337 1419 1375 1394 1446 1369 1372 1338 1326 1319 1388 1317 1393 1379</counts>
			</dataPoints>
		</scan>
	</xrdMeasurement>
</xrdMeasurements>
