<?xml version="1.0"?>
<xrdMeasurements xmlns="http://www.xrdml.com/XRDMeasurement/2.3" xmlns:xsi="http://www.w3.org/2001/XMLSchema-instance" xsi:schemaLocation="http://www.xrdml.com/XRDMeasurement/2.3 http://www.xrdml.com/XRDMeasurement/2.3/XRDMeasurement.xsd" status="Completed" recordIdentifier="{785CACF4-A51B-4C09-B6B5-4802107C9EFD}">
	<comment>
		<entry/>
	</comment>
	<sample type="To be analyzed">
		<id>GPSS_Li2Cr0p5Mn0p5Cl4_122325_694ae824ae15af25ac372779</id>
		<name></name>
		<preparedBy></preparedBy>
	</sample>
	<xrdMeasurement measurementType="Scan" status="Completed" sampleMode="Reflection">
		<usedWavelength intended="K-Alpha 1">
			<kAlpha1 unit="Angstrom">1.5405980</kAlpha1>
			<kAlpha2 unit="Angstrom">1.5444260</kAlpha2>
			<kBeta unit="Angstrom">1.3922500</kBeta>
			<ratioKAlpha2KAlpha1>0.5000</ratioKAlpha2KAlpha1>
		</usedWavelength>
		<incidentBeamPath>
			<radius unit="mm">145.00</radius>
			<xRayTube id="1010048" name="Empyrean Cu LFF HR (9430 033 7310x)">
				<tension unit="kV">40.0</tension>
				<current unit="mA">15.0</current>
				<anodeMaterial>Cu</anodeMaterial>
				<focus type="Line">
					<length unit="mm">12.0</length>
					<width unit="mm">0.4</width>
					<takeOffAngle unit="deg">6.0</takeOffAngle>
				</focus>
			</xRayTube>
			<sollerSlit id="21010002" name="Soller slits 0.04 rad.">
				<opening unit="rad">0.0400</opening>
			</sollerSlit>
			<mask id="22031000" name="Fixed mask 13 mm">
				<width unit="mm">9.00</width>
			</mask>
			<divergenceSlit id="22120001" name="Divergence slit 1°" xsi:type="fixedDivergenceSlitType">
				<distanceToSample unit="mm">50.00</distanceToSample>
				<height unit="mm">1.52</height>
			</divergenceSlit>
		</incidentBeamPath>
		<sampleMovement xsi:type="spinningSampleMovementType">
			<spinnerRevolutionTime unit="seconds">1.0</spinnerRevolutionTime>
		</sampleMovement>
		<diffractedBeamPath>
			<radius unit="mm">145.00</radius>
			<antiScatterSlit id="22090040" name="AS slit 9 mm (PIXcel)" xsi:type="fixedAntiScatterSlitType">
				<height unit="mm">9.00</height>
			</antiScatterSlit>
			<sollerSlit id="21020003" name="Large Soller slits 0.04 rad.">
				<opening unit="rad">0.0400</opening>
			</sollerSlit>
			<filter id="20030001" name="Large beta-filter Nickel">
				<material>Ni</material>
				<thickness unit="mm">0.020</thickness>
			</filter>
			<detector id="7010019" name="PIXcel1D-Medipix3 detector" xsi:type="rtmsDetectorType">
				<phd unit="keV">
					<lowerLevel>4.02</lowerLevel>
					<upperLevel>11.27</upperLevel>
				</phd>
				<mode>Scanning</mode>
				<activeLength unit="deg">5.542</activeLength>
			</detector>
		</diffractedBeamPath>
		<scan appendNumber="0" mode="Continuous" scanAxis="Gonio" status="Completed">
			<header>
				<startTimeStamp>2025-12-25T13:49:55-08:00</startTimeStamp>
				<endTimeStamp>2025-12-25T13:58:02-08:00</endTimeStamp>
				<author>
					<name>AutomatedUser</name>
				</author>
				<source>
					<applicationSoftware version="1.7b (136)">PANalytical Aeris Instrument Suite</applicationSoftware>
					<instrumentControlSoftware version="3.2.00000000 20240306">AERIS</instrumentControlSoftware>
					<instrumentID>950485</instrumentID>
				</source>
			</header>
			<dataPoints>
				<positions axis="2Theta" unit="deg">
					<startPosition>10.00943322</startPosition>
					<endPosition>99.99442286</endPosition>
				</positions>
				<positions axis="Omega" unit="deg">
					<startPosition>5.00471661</startPosition>
					<endPosition>49.99721143</endPosition>
				</positions>
				<commonCountingTime unit="seconds">12.495</commonCountingTime>
				<counts unit="counts">2891 2882 2816 2874 2911 2839 2779 2908 2842 2916 2830 2824 2894 2889 2820 2904 2890 2978 2919 2818 2868 2877 2849 2823 2859 2992 2990 2962 2923 2873 2933 2960 2856 2885 2916 2932 2906 2853 2932 2770 2926 2873 2837 2989 2942 2867 2872 2884 2881 2994 2940 2917 2905 2938 2960 2880 2866 2913 2928 2985 2978 2957 2943 2978 2898 2931 2903 2823 2907 2874 2894 2951 2862 2864 2888 2953 3052 2962 2985 2918 3061 2941 2939 2917 2932 2955 3014 2989 2895 3053 3028 2935 3129 2995 2977 2983 2969 2964 3031 3035 3002 2900 3053 2930 2851 3144 2918 2983 3048 2962 3007 2965 2995 3086 3057 3078 2990 3059 2965 3059 3055 3149 3050 2931 3203 2996 3026 3020 3048 3037 3006 3012 2997 3067 3095 2994 3009 3065 3040 2978 3018 3006 3047 3066 3030 3020 3043 3010 3051 3107 3063 3026 3041 3016 3063 3020 3128 3002 2992 2997 3035 2974 2956 2984 3027 3005 3049 3003 3041 3017 3022 2969 3072 2996 2947 3050 3080 2991 2973 3014 3008 2975 2986 2888 2996 3012 3027 3004 3047 3042 3021 3016 2914 2921 2962 3004 3006 3016 3039 3031 3061 2962 2889 3003 2930 2966 2936 2972 2964 2950 2996 2891 2992 2906 3010 2892 2882 2945 2940 2886 2882 2907 2995 2973 2971 2957 2981 2867 2908 2878 2952 2822 2944 2939 2930 2938 2915 2907 2849 2940 2869 2857 2850 2908 2800 2937 2863 2949 2766 2852 2869 2896 2852 2829 2934 2917 2849 2925 2817 2874 2775 2810 2866 2858 2809 2804 2879 2787 2773 2808 2841 2761 2786 2817 2778 2780 2824 2894 2863 2812 2677 2887 2701 2732 2815 2702 2793 2828 2855 2793 2880 2753 2770 2870 2809 2916 2752 2812 2722 2776 2877 2762 2888 2714 2808 2818 2651 2806 2804 2771 2810 2748 2846 2683 2780 2868 2813 2766 2799 2797 2826 2792 2753 2783 2871 2817 2789 2829 2828 2789 2779 2815 2795 2818 2803 2840 2817 2768 2806 2884 2838 2865 2816 2821 2866 2809 2827 2881 2905 2915 2830 2930 2847 2911 2828 2856 2887 2844 3016 2847 2833 2946 2988 2934 2865 2826 2885 2781 2924 2919 2906 2906 2997 2901 2880 2928 3054 2944 2970 2962 2933 2970 2958 2925 2971 3053 2915 3010 2988 3013 3041 3030 3014 3029 3005 2983 3090 2953 3004 3078 3039 3108 3122 3105 3124 3021 3110 3054 3108 3148 3162 3101 3007 3119 3188 3227 3060 3273 3179 3163 3222 3225 3268 3393 3301 3380 3298 3392 3358 3439 3403 3259 3441 3439 3365 3362 3565 3442 3403 3472 3479 3511 3535 3510 3622 3548 3541 3374 3599 3607 3591 3552 3628 3570 3550 3519 3592 3705 3644 3564 3508 3501 3575 3574 3633 3636 3598 3685 3583 3665 3559 3513 3630 3480 3546 3591 3565 3562 3438 3514 3378 3474 3325 3421 3204 3320 3106 3186 3012 3151 3219 3089 3202 3108 3089 3029 3136 3106 3003 3029 3010 2991 3059 3058 3001 3035 3078 3028 2987 3007 3023 2937 3004 2938 2967 2899 2994 2929 2859 3057 2942 2823 2877 2946 2967 2882 2944 2866 2850 2890 2850 2970 2930 2795 2850 2911 2858 2770 2808 2766 2892 2848 2895 2882 2811 2768 2863 2829 2759 2798 2813 2853 2801 2781 2810 2882 2837 2697 2900 2704 2817 2839 2710 2753 2752 2730 2844 2799 2798 2755 2712 2751 2655 2808 2702 2654 2709 2738 2710 2731 2671 2780 2830 2849 2651 2710 2728 2708 2660 2684 2660 2752 2759 2676 2563 2690 2618 2637 2681 2597 2611 2593 2584 2556 2554 2658 2670 2578 2651 2609 2648 2585 2675 2576 2684 2649 2577 2623 2573 2569 2568 2521 2522 2612 2614 2590 2573 2510 2577 2551 2591 2563 2672 2601 2493 2541 2642 2512 2535 2567 2396 2578 2489 2519 2635 2536 2512 2642 2471 2581 2466 2439 2509 2446 2486 2509 2447 2494 2564 2533 2448 2565 2514 2622 2466 2511 2432 2585 2509 2483 2526 2499 2534 2464 2601 2466 2495 2475 2499 2500 2520 2477 2496 2439 2522 2523 2386 2467 2398 2510 2453 2524 2508 2500 2528 2437 2511 2476 2504 2405 2488 2416 2409 2471 2484 2489 2508 2452 2423 2375 2425 2318 2430 2394 2531 2412 2426 2470 2419 2388 2504 2405 2541 2428 2498 2426 2463 2459 2457 2493 2446 2414 2397 2432 2309 2459 2506 2463 2454 2524 2415 2396 2347 2502 2333 2416 2447 2428 2490 2339 2420 2344 2380 2389 2437 2399 2387 2460 2381 2399 2408 2384 2416 2385 2364 2465 2412 2368 2428 2391 2347 2403 2420 2358 2369 2473 2464 2388 2498 2344 2380 2403 2318 2413 2324 2351 2327 2379 2409 2340 2346 2337 2372 2367 2360 2376 2358 2402 2398 2431 2391 2346 2246 2429 2295 2390 2346 2441 2479 2451 2300 2280 2287 2333 2311 2335 2314 2486 2335 2273 2347 2270 2345 2347 2341 2292 2320 2312 2305 2303 2319 2362 2320 2423 2334 2328 2343 2299 2341 2310 2324 2311 2294 2358 2306 2315 2318 2228 2266 2232 2283 2248 2337 2314 2292 2316 2299 2363 2286 2340 2215 2281 2228 2274 2344 2302 2258 2364 2194 2307 2252 2248 2266 2318 2263 2256 2226 2298 2252 2257 2279 2349 2226 2286 2239 2299 2312 2225 2228 2234 2200 2305 2259 2267 2218 2310 2258 2272 2243 2230 2228 2188 2245 2160 2137 2160 2195 2275 2179 2259 2197 2187 2181 2192 2177 2177 2222 2122 2221 2272 2195 2171 2208 2206 2252 2245 2216 2163 2214 2156 2214 2196 2090 2062 2164 2210 2200 2084 2150 2169 2136 2115 2171 2141 2118 2119 2170 2167 2131 2070 2163 2080 2166 2128 2111 2186 2158 2106 2133 2159 2162 2135 2100 2216 2070 2154 2122 2151 2157 2133 2129 2102 2188 2156 2185 2116 2092 2098 2088 2144 2048 2054 2145 2157 2030 2095 2054 2133 2129 2119 2146 2081 2024 2029 2088 2077 2150 2042 2143 2097 2089 2092 2078 2106 2109 2152 2051 2200 2174 2064 2054 2136 2061 2112 2079 2088 2125 2231 2122 2070 2035 2119 2090 2085 2009 2106 2052 2084 2110 2080 2071 2006 2042 2114 2057 2032 2030 2076 2172 2077 2047 2104 2090 2067 1968 2185 2029 2007 2033 2129 2125 2035 2073 2098 2075 2151 2067 2102 2079 2114 2163 2148 2180 2022 2121 2188 2129 2102 2056 2119 2117 2089 2100 2048 2118 2055 2120 2123 2099 2110 2104 2135 2109 2112 2142 2152 1988 2115 2129 2094 2153 2094 2028 2153 2085 2115 2121 2075 2037 2097 2083 2211 2169 2094 2173 2167 2156 2184 2112 2143 2031 2197 2143 2089 2164 2163 2039 2080 2120 2111 2067 2141 2119 2089 2111 2133 2048 2046 2117 2104 2111 2066 2009 2080 2091 2052 2065 2124 1995 2024 2052 2070 1999 2073 2062 2011 1986 2097 2159 2017 2055 2040 1972 2131 2093 2005 1972 2096 2121 2105 2082 2023 2046 2019 2038 2068 2085 2046 2042 2133 1926 2040 2030 1935 1967 1978 1887 1959 1992 2030 1975 1908 2024 1989 2004 1904 1886 2045 1917 1926 1886 1978 1931 1950 1862 1920 1981 1910 1932 1971 1844 2011 1915 1917 1886 1891 1911 1863 1830 1892 1864 1905 1855 1817 1884 1810 1797 1875 1871 1892 1867 1795 1881 1871 1861 1759 1830 1841 1836 1820 1869 1787 1781 1765 1741 1806 1772 1764 1876 1690 1737 1771 1817 1723 1773 1797 1803 1724 1718 1770 1695 1731 1720 1696 1761 1703 1731 1683 1693 1683 1698 1638 1745 1685 1720 1715 1630 1751 1672 1656 1638 1707 1740 1659 1762 1728 1680 1717 1622 1677 1758 1602 1670 1702 1564 1560 1612 1619 1664 1629 1604 1667 1728 1626 1731 1659 1636 1673 1609 1613 1605 1661 1624 1716 1612 1572 1568 1612 1620 1656 1539 1588 1581 1605 1634 1564 1620 1597 1649 1601 1589 1568 1636 1607 1545 1557 1561 1602 1538 1573 1628 1526 1612 1547 1515 1566 1557 1562 1513 1532 1510 1588 1573 1562 1535 1528 1462 1611 1513 1503 1513 1579 1546 1490 1477 1567 1571 1532 1549 1497 1595 1529 1530 1608 1563 1558 1508 1468 1494 1482 1504 1497 1625 1541 1535 1461 1499 1478 1448 1573 1532 1556 1498 1532 1511 1563 1424 1502 1504 1439 1405 1541 1553 1502 1517 1579 1551 1511 1463 1559 1517 1554 1457 1496 1486 1491 1522 1468 1479 1497 1566 1539 1418 1546 1498 1503 1485 1466 1474 1501 1546 1488 1522 1451 1440 1426 1550 1424 1483 1523 1499 1501 1513 1487 1427 1498 1510 1531 1438 1507 1418 1420 1524 1532 1513 1487 1455 1437 1480 1518 1511 1536 1523 1486 1488 1456 1575 1469 1476 1451 1446 1489 1469 1397 1467 1515 1460 1517 1504 1614 1452 1480 1559 1517 1527 1412 1504 1546 1589 1537 1553 1444 1477 1539 1487 1511 1501 1494 1459 1574 1534 1531 1484 1472 1512 1544 1513 1474 1495 1425 1506 1492 1473 1546 1506 1522 1525 1485 1445 1493 1501 1545 1526 1514 1515 1573 1448 1491 1435 1458 1468 1493 1459 1497 1410 1487 1487 1526 1464 1425 1514 1540 1519 1441 1563 1463 1463 1518 1434 1530 1472 1446 1476 1429 1455 1443 1467 1535 1451 1504 1446 1522 1498 1456 1503 1487 1506 1424 1473 1522 1409 1531 1443 1415 1491 1389 1401 1426 1441 1486 1420 1434 1434 1392 1406 1427 1460 1428 1438 1392 1392 1381 1405 1355 1443 1436 1415 1384 1378 1371 1404 1341 1397 1348 1362 1356 1396 1369 1332 1371 1313 1392 1344 1403 1371 1356 1341 1307 1356 1346 1317 1305 1323 1328 1348 1351 1355 1384 1320 1274 1303 1297 1302 1376 1246 1258 1362 1326 1260 1335 1358 1287 1269 1273 1204 1392 1271 1289 1297 1286 1253 1256 1305 1273 1306 1330 1255 1279 1345 1267 1378 1313 1271 1314 1205 1234 1314 1295 1249 1259 1276 1264 1225 1312 1280 1306 1346 1343 1365 1343 1295 1339 1348 1410 1383 1404 1356 1411 1410 1433 1392 1394 1476 1379 1457 1435 1596 1496 1424 1499 1417 1473 1526 1557 1435 1490 1591 1532 1497 1543 1524 1526 1501 1484 1523 1549 1565 1551 1599 1606 1574 1512 1505 1541 1530 1538 1459 1552 1459 1424 1435 1419 1457 1396 1415 1451 1431 1432 1408 1419 1384 1321 1273 1311 1313 1273 1342 1134 1221 1220 1172 1287 1224 1107 1163 1209 1136 1056 1120 1192 1121 1139 1152 1116 1137 1146 1116 1120 1159 1067 1081 1101 1113 1059 1140 1110 1058 1142 1207 1129 1148 1113 1083 1159 1184 1151 1171 1114 1220 1203 1195 1299 1268 1280 1270 1285 1330 1294 1316 1347 1375 1395 1372 1432 1415 1446 1526 1517 1566 1597 1674 1743 1730 1829 1674 1756 1793 1783 1850 1844 1765 1791 1820 1875 1820 1888 1826 1815 1899 1916 1948 1865 1880 1842 1843 1940 1950 1797 1862 1867 1845 1920 1904 1817 1871 1782 1799 1825 1816 1753 1763 1780 1679 1732 1683 1672 1604 1660 1543 1459 1434 1461 1432 1391 1418 1355 1344 1247 1294 1251 1261 1197 1196 1125 1141 1139 1160 1086 1152 1169 1207 1137 1235 1117 1092 1117 1134 1142 1151 1117 1165 1130 1126 1068 1136 1088 1136 1142 1117 1096 1105 1113 1048 1051 1068 1153 1089 1046 1098 1021 1109 1017 1024 998 1057 998 984 1015 910 919 913 950 965 985 1010 966 934 931 968 967 954 941 914 877 925 937 957 932 990 914 924 967 928 997 997 905 956 978 954 914 864 888 914 885 900 902 913 885 965 869 990 880 847 904 918 915 916 943 887 992 979 911 938 921 863 943 894 914 935 875 909 870 883 883 932 875 969 906 908 876 835 897 933 887 874 871 886 877 931 907 871 856 914 877 910 856 927 867 874 887 813 850 838 914 844 903 916 863 856 916 824 836 886 839 849 874 887 861 889 907 909 892 875 867 806 885 850 884 854 872 887 873 902 932 905 891 873 887 846 816 894 838 843 893 849 837 853 906 797 853 859 824 849 832 868 862 881 855 887 859 846 832 865 910 814 872 827 931 848 856 840 813 851 866 863 823 854 857 825 846 816 780 855 858 845 841 886 839 854 819 810 794 822 803 836 893 833 812 852 829 850 835 857 849 840 829 846 887 870 866 866 855 883 837 791 858 814 846 844 778 915 820 838 826 804 855 821 852 862 888 870 884 836 870 871 889 877 828 882 835 817 840 825 876 858 846 860 894 864 871 843 881 876 815 857 844 859 845 881 866 880 854 850 906 855 911 839 932 869 873 915 899 933 876 888 845 939 879 948 944 942 970 891 904 922 950 922 1002 988 987 981 975 977 985 942 1040 1032 1067 1024 1033 1029 1054 1011 1121 1103 1166 1191 1158 1174 1267 1329 1312 1404 1353 1433 1473 1491 1571 1623 1598 1676 1689 1766 1913 1879 2002 2089 2140 2174 2293 2306 2412 2471 2521 2629 2682 2616 2723 2828 2807 2726 2841 2885 2837 2907 3061 2964 3070 3026 2955 3127 3079 3199 3026 3109 3209 3118 3188 3136 3067 2949 3106 3064 3006 3055 2838 2926 2894 2878 2830 2720 2702 2629 2616 2659 2607 2481 2417 2306 2220 2174 2099 1991 1914 1876 1806 1713 1677 1559 1580 1502 1476 1341 1413 1239 1282 1172 1234 1160 1148 1168 1108 1159 1109 1072 1088 999 1066 1050 974 1101 1025 1038 1068 1022 1064 1093 963 988 973 949 995 953 954 992 1001 919 971 930 935 983 922 887 936 881 901 944 926 929 923 921 913 902 860 807 864 865 876 846 839 843 871 848 879 797 811 835 799 778 816 827 821 789 798 819 798 803 761 761 786 791 787 793 755 772 755 771 784 787 708 737 763 739 767 787 733 757 754 757 762 773 802 751 824 750 786 785 806 772 788 801 768 772 757 777 751 787 763 759 734 765 749 789 791 793 770 816 763 758 837 792 760 857 789 814 802 850 754 825 792 749 767 815 797 812 783 784 736 778 771 767 773 779 760 797 737 831 801 846 825 732 753 742 774 787 791 800 763 747 745 776 794 755 796 817 774 753 796 768 755 787 795 758 810 724 748 711 742 810 758 767 772 718 764 728 750 734 755 737 750 688 721 745 734 718 783 770 770 717 749 728 767 768 769 791 706 776 776 701 815 735 771 730 755 778 746 748 756 764 728 733 710 762 768 732 761 795 818 772 769 744 799 780 774 737 818 743 766 741 775 747 746 713 783 680 758 754 780 778 784 757 721 804 735 750 730 724 751 788 756 720 759 676 741 759 773 712 711 720 716 761 688 704 757 703 768 720 698 718 725 718 661 752 687 756 759 737 695 673 674 703 692 728 669 682 726 744 664 731 730 697 714 711 703 748 666 726 679 658 701 692 660 677 684 701 688 688 711 703 698 720 686 690 708 639 705 650 679 684 703 738 712 665 693 705 707 688 686 675 650 741 680 700 693 666 676 707 653 713 695 679 718 699 702 684 641 669 672 693 671 684 647 707 685 706 693 689 710 668 705 696 687 646 705 703 688 709 655 685 707 677 665 670 628 683 689 701 662 672 689 663 681 724 709 697 701 635 685 633 697 646 719 661 666 663 688 748 691 651 692 672 694 623 735 652 674 712 652 679 675 657 688 684 652 665 666 681 690 625 631 682 659 712 646 704 658 620 706 654 648 668 726 676 673 677 699 710 672 714 666 662 650 655 667 664 699 637 694 683 614 657 698 663 655 665 700 642 653 672 654 695 661 698 667 640 662 671 675 644 651 726 645 694 666 658 676 640 677 686 696 662 611 616 693 681 653 664 671 668 705 682 666 680 661 656 700 706 678 664 694 657 674 685 680 701 642 681 690 654 676 686 679 672 691 641 711 640 625 702 673 679 657 672 690 647 653 650 631 676 647 690 634 684 641 671 637 679 632 676 662 639 683 660 678 672 662 652 664 638 669 714 673 715 719 701 686 649 658 680 639 642 668 655 640 685 665 636 635 629 640 651 728 683 669 653 655 664 659 620 665 721 702 649 651 644 675 624 674 644 701 679 669 667 631 646 651 679 657 618 672 679 684 692 643 693 598 659 678 660 647 643 703 643 644 667 681 663 655 680 664 684 567 634 677 682 640 669 690 669 697 722 714 628 635 659 655 679 697 667 647 640 654 620 758 685 643 643 637 640 625 673 661 684 651 636 641 648 634 658 646 615 654 628 687 649 652 661 610 688 669 651 664 650 666 644 657 665 634 674 641 686 688 658 668 641 625 702 721 651 669 652 623 629 652 665 632 650 655 668 690 637 639 690 643 643 623 656 665 664 662 653 639 650 622 635 673 609 678 631 607 678 656 647 628 632 706 610 657 670 635 652 624 675 647 672 631 657 618 608 611 628 656 631 637 664 633 611 642 629 637 627 640 628 623 629 620 597 647 675 624 650 616 633 645 631 710 639 616 632 692 659 632 665 608 618 665 634 633 656 683 607 630 619 635 664 622 652 694 668 613 618 593 625 696 623 597 662 693 672 648 680 636 679 632 677 649 657 655 643 598 664 666 621 674 627 639 630 664 626 671 655 637 615 617 654 619 660 637 639 662 646 613 673 588 596 653 669 642 658 643 629 644 620 628 672 628 680 650 640 671 679 618 637 705 623 647 668 604 634 666 682 664 661 696 665 683 621 627 723 684 636 637 691 705 661 686 687 693 672 694 669 698 707 705 688 707 710 688 738 708 708 729 764 748 725 759 794 777 859 752 805 811 836 813 882 786 820 901 846 902 917 934 919 866 903 894 950 997 910 941 954 906 928 947 950 925 975 895 900 978 956 893 996 935 926 988 948 919 884 899 879 943 874 933 902 857 796 844 857 856 850 817 821 819 805 761 773 787 806 738 781 750 756 748 692 727 707 699 687 719 668 698 667 661 656 690 724 620 691 645 627 649 677 611 663 636 625 660 702 608 660 597 619 645 617 648 652 621 634 627 646 629 661 681 609 630 606 627 647 651 636 667 672 649 679 608 620 665 613 632 621 636 654 667 600 671 621 624 612 664 617 618 609 592 650 620 646 639 664 633 641 658 656 659 694 622 628 646 640 618 610 631 613 609 661 625 649 650 609 674 675 637 669 600 652 572 583 603 633 585 648 615 651 605 602 637 668 681 629 644 656 707 604 641 623 655 610 614 635 602 599 606 628 609 639 618 652 640 646 635 632 629 660 615 616 637 638 603 608 611 646 638 624 593 611 602 591 623 621 641 638 658 613 602 587 588 642 632 631 599 606 611 650 606 627 628 606 655 624 644 608 610 609 579 620 638 664 660 634 630 646 684 621 637 650 677 635 688 645 668 598 652 660 606 663 611 635 631 729 616 648 664 679 667 646 592 612 616 631 656 668 651 643 656 655 671 616 651 657 657 649 652 644 645 631 664 630 646 628 599 626 621 685 660 675 618 644 628 655 627 656 648 703 711 637 675 676 655 630 663 627 619 670 631 643 625 629 643 652 641 653 628 671 660 677 663 667 629 642 627 702 697 624 681 685 694 661 687 665 707 728 681 714 660 700 692 719 730 753 750 721 766 803 783 764 754 796 826 801 829 806 869 867 894 962 910 985 984 1019 1131 1173 1186 1236 1271 1255 1419 1477 1521 1539 1569 1669 1616 1822 1894 1923 1938 2066 2080 2124 2114 2206 2238 2181 2151 2225 2305 2364 2332 2340 2257 2464 2395 2408 2348 2442 2462 2374 2344 2380 2301 2431 2275 2213 2201 2232 2175 2205 2162 2110 2089 2061 1953 1963 1888 1978 1766 1837 1690 1655 1607 1612 1571 1478 1432 1461 1382 1378 1197 1275 1214 1171 1126 1085 1070 1081 1008 949 917 905 916 848 907 798 839 809 827 805 827 786 772 784 777 739 722 785 730 763 724 766 719 723 794 756 744 763 764 786 790 749 763 744 813 769 760 749 736 807 804 738 735 713 723 808 771 761 780 795 800 733 757 757 717 801 743 687 750 749 756 715 780 729 706 699 673 768 731 705 713 651 670 667 753 695 711 707 702 722 688 659 710 679 646 640 655 633 713 731 657 648 654 653 594 662 620 651 621 612 690 638 649 626 623 654 604 674 634 618 663 644 591 664 648 572 672 639 640 592 607 637 604 639 607 610 613 657 647 600 669 607 598 595 627 629 634 584 631 620 626 663 692 641 650 668 687 670 656 708 653 660 692 689 735 699 667 770 746 756 739 718 699 765 728 704 797 816 775 846 799 791 774 795 820 776 798 799 784 843 839 732 748 776 787 748 786 725 792 759 785 777 713 737 769 805 725 702 772 721 751 673 686 720 685 710 644 654 687 699 630 649 742 658 626 589 663 638 634 608 587 617 638 618 610 647 657 598 643 606 645 632 622 599 593 613 598 597 639 620 590 588 600 594 630 588 559 609 587 566 616 594 574 569 592 632 593 595 587 641 597 609 582 577 559 610 602 626 576 579 547 566 593 575 608 595 620 602 598 595 613 613 637 603 601 603 568 593 548 600 590 567 600 568 596 567 565 565 533 624 620 572 614 595 593 612 592 581 643 659 606 565 607 546 550 587 556 612 571 562 574 556 559 560 578 560 594 585 586 642 564 574 591 539 585 602 610 557 559 576 554 561 603 579 599 581 594 572 583 539 545 590 616 547 585 589 564 601 601 549 556 609 589 602 615 619 576 569 580 600 609 620 562 541 586 540 596 568 560 553 559 595 549 592 580 575 587 636 608 595 586 621 604 587 594 582 527 605 559 606 545 606 584 593 594 595 580 595 551 568 583 559 534 585 573 549 597 588 565 557 583 542 580 555 595 590 552 582 597 562 567 571 618 592 568 556 541 567 591 564 560 581 551 587 595 586 596 595 571 513 576 570 590 592 590 589 565 573 597 627 560 649 570 571 597 561 648 605 617 599 599 625 627 631 608 601 569 605 598 618 621 628 595 614 622 582 603 553 609 588 570 564 600 591 568 600 629 594 566 583 597 566 591 617 596 560 616 628 550 585 590 588 552 563 585 561 588 580 577 577 607 582 578 578 554 580 593 571 550 521 578 587 537 528 571 526 570 534 566 566 561 565 539 576 552 616 555 567 581 540 588 576 570 577 582 528 525 548 593 549 566 551 540 521 577 558 567 581 531 573 553 562 557 594 605 566 554 590 561 590 548 529 594 592 534 558 504 586 553 540 554 569 535 544 560 558 578 596 550 526 606 557 570 548 584 566 584 512 578 528 516 554 592 535 547 598 521 573 553 541 554 518 543 539 565 571 560 618 522 585 559 563 580 562 551 564 530 513 564 567 555 609 573 599 570 591 581 571 559 578 530 557 620 547 553 560 572 588 596 557 586 541 549 540 557 561 550 554 573 551 590 569 548 558 547 559 545 537 585 618 570 565 540 573 578 573 551 547 519 570 560 590 579 537 596 546 552 581 572 564 607 564 573 619 560 571 598 576 564 558 569 532 594 570 605 561 586 614 595 598 629 616 613 589 583 571 608 575 561 568 609 602 605 601 618 640 598 659 597 633 634 616 618 593 613 637 616 625 583 628 571 621 601 603 611 631 568 672 646 663 632 632 622 629 629 598 621 609 650 652 626 633 685 645 636 655 654 661 657 694 704 681 728 712 721 680 723 732 751 749 764 707 742 707 734 828 765 789 750 789 783 770 805 750 730 813 759 800 766 766 787 725 725 717 747 720 718 688 723 739 760 714 749 678 698 706 694 698 721 701 672 634 661 632 645 648 667 660 634 647 677 617 606 624 644 643 653 570 611 600 583 574 592 561 621 563 588 553 606 607 592 586 568 545 570 531 547 540 574 571 565 598 610 540 556 621 592 537 583 560 537 574 587 563 568 604 636 535 609 606 617 600 620 578 589 604 585 588 579 638 625 608 594 631 652 612 631 604 593 606 608 579 617 670 631 623 586 623 630 630 635 591 619 604 591 650 584 626 626 577 557 569 628 611 577 606 621 573 598 587 570 571 580 581 591 539 585 577 584 638 570 547 552 580 552 552 576 569 548 488 603 540 588 510 560 567 523 588 515 544 578 572 568 533 553 545 566 573 527 562 526 540 585 553 601 533 551 494 594 509 539 555 554 540 490 599 587 580 545 566 562 493 557 579 566 567 587 558 533 572 547 543 553 537 495 569 554 529 515 574 598 586 562 571 589 607 603 583 594 593 624 636 647 657 643 674 708 723 727 689 780 755 832 786 827 853 856 866 937 927 995 989 946 996 997 990 985 996 995 978 1032 1002 1042 1084 1046 1086 1086 1068 1016 1062 1116 1131 1085 1119 1003 1029 990 970 948 933 988 913 882 899 952 854 865 849 856 858 840 837 817 799 705 694 762 734 643 724 719 686 658 686 652 684 650 661 628 631 617 645 636 617 590 600 626 545 569 605 563 580 575 584 565 581 551 558 561 559 565 539 561 528 550 560 555 577 557 503 566 570 583 606 507 517 563 533 586 571 563 566 526 593 557 577 530 585 584 554 553 553 597 586 577 608 608 611 611 567 570 585 586 583 601 577 606 531 588 610 568 577 568 597 600 594 574 574 597 570 600 585 592 576 581 571 563 613 593 578 583 569 555 587 526 577 553 604 555 518 630 538 581 570 603 571 585 552 582 588 572 594 560 579 538 602 526 575 583 597 599 582 597 615 638 625 587 603 612 615 599 664 610 650 652 639 672 670 654 633 632 628 696 650 667 666 665 644 694 730 707 705 609 681 660 681 685 644 653 681 665 641 662 621 656 653 651 628 606 650 656 655 607 663 623 625 614 603 568 633 623 565 569 609 566 536 629 558 546 555 597 553 567 566 542 567 571 574 557 582 583 542 587 525 561 523 580 540 558 541 516 613 579 519 543 559 539 491 580 506 513 597 547 575 514 589 544 580 535 539 504 521 536 526 545 561 529 549 561 537 514 526 533 557 514 543 537 482 536 513 526 542 583 588 559 575 536 504 546 572 520 557 527 552 582 513 557 512 521 566 532 576 569 529 523 545 554 554 546 559 548 522 552 556 545 495 543 497 534 569 504 525 569 561 575 548 532 582 550 529 529 543 536 551 499 487 518 559 518 552 565 567 533 554 561 520 528 554 559 538 513 510 540 531 532 517 531 529 549 507 551 532 562 497 537 553 524 509 537 526 521 580 537 556 525 552 530 556 545 510 519 529 548 504 534 489 544 529 522 487 532 534 530 563 512 506 540 498 527 561 501 546 511 501 522 518 525 535 518 542 540 529 519 517 546 506 518 535 509 511 538 515 529 557 524 522 500 528 517 529 559 548 496 559 527 503 571 540 519 503 512 537 529 520 516 513 510 537 515 522 493 529 537 559 549 534 503 555 544 552 519 507 548 556 542 531 554 474 572 474 510 532 509 561 548 521 547 544 517 550 535 523 551 596 517 553 514 536 533 532 523 546 509 570 507 541 541 574 485 522 514 526 542 522 510 485 526 531 510 502 513 496 530 528 555 499 528 521 511 523 518 512 503 547 518 484 532 586 519 538 499 506 532 508 518 521 581 535 461 503 495 506 524 494 546 521 483 522 480 496 498 540 525 528 498 508 512 519 536 481 499 527 512 539 531 487 539 446 486 476 497 512 536 535 512 543 545 529 535 516 548 494 537 524 504 487 517 510 558 549 545 493 533 500 482 512 495 518 501 516 504 544 529 539 483 521 553 514 542 509 531 516 541 524 463 522 503 547 539 532 542 547 507 526 576 495 529 537 546 547 504 475 518 504 533 496 494 536 575 516 487 532 578 573 556 553 597 561 581 536 570 552 611 557 550 568 579 576 612 633 602 561 591 575 586 559 631 591 621 597 587 568 604 616 607 590 578 566 637 570 575 636 581 592 583 643 573 638 610 593 571 602 517 594 538 585 558 597 558 537 581 545 607 598 599 526 591 528 582 547 539 558 570 506 550 531 510 501 503 562 534 554 529 527 535 508 499 557 514 485 472 558 491 501 516 508 538 520 511 554 498 476 540 527 511 493 527 510 506 547 526 498 502 507 511 543 504 547 517 531 571 554 566 519 522 505 539 556 538 499 551 598 490 501 488 492 488 526 494 539 545 529 524 542 511 528 538 503 509 520 526 546 498 535 523 495 563 498 509 532 516 558 504 545 546 544 499 532 527 537 525 520 472 514 519 502 489 580 514 494 518 511 471 476 537 515 508 548 554 554 521 531 542 508 521 562 487 523 511 534 523 536 478 515 527 516 530 515 545 508 513 523 535 554 538 517 472 497 528 533 508 523 497 487 502 530 545 452 494 544 556 492 542 508 559 541 532 566 493 541 528 522 478 528 528 541 580 522 507 563 530 545 502 542 514 533 535 517 569 533 532 561 502 527 536 548 518 544 509 533 581 549 568 531 535 535 512 545 509 543 571 504 562 566 509 523 508 575 516 555 534 579 550 546 582 530 522 575 551 612 578 575 609 545 554 530 565 570 537 567 564 612 558 591 597 608 633 660 646 632 668 601 628 628 639 617 648 616 658 644 677 618 649 701 676 627 624 641 687 688 652 648 680 653 661 691 661 606 670 704 724 666 670 611 663 662 676 651 709 670 611 647 647 654 606 636 610 617 631 605 606 577 620 602 601 642 605 610 624 542 641 572 564 578 595 581 542 527 546 564 569 511 542 603 539 534 556 579 561 513 517 546 574 539 561 529 505 514 569 530 541 519 574 514 551 608 511 574 565 529 537 553 536 520 516 509 530 522 565 563 515 517 545 557 534 514 571 506 523 561 504 520 532 521 515 519 565 529 525 526 542 501 489 501 529 526 547 524 550 527 523 526 563 576 525 522 528 500 508 517 519 531 527 514 518 572 569 537 535 535 531 525 545 497 539 556 551 530 525 554 579 512 546 516 519 567 513 521 536 499 551 499 497 520 551 575 554 516 512 463 543 501 549 553 538 494 545 540 524 525 501 508 489 502 531 544 535 512 537 493 506 523 511 598 499 573 537 505 498 509 566 505 475 525 486 512 522 528 527 480 494 538 506 524 507 504 531 496 492 565 530 535 535 521 494 509 534 526 524 500 490 518 499 498 551 528 538 522 537 530 501 505 506 526 534 508 502 535 539 511 548 503 490 510 509 554 550 498 533 467 480 502 518 517 515 536 542 531 511 492 545 499 527 522 552 506 506 529 489 538 569 506 537 513 532 531 532 483 512 555 549 546 503 508 493 557 516 507 514 529 486 498 536 496 514 515 483 505 450 529 501 506 505 510 484 558 496 562 487 505 549 492 510 490 494 528 534 531 507 499 546 512 526 503 566 537 554 536 541 504 525 531 558 514 497 529 529 507 518 537 510 501 461 491 530 499 515 550 511 565 525 557 527 499 495 519 536 514 517 533 534 538 551 523 531 520 521 536 567 566 519 508 529 502 501 539 526 529 495 541 523 517 513 538 543 502 524 545 521 536 545 531 548 507 513 527 539 588 521 536 553 518 522 495 536 524 518 503 522 514 491 574 524 492 535 543 492 544 579 516 544 558 509 524 557 505 574 501 526 522 546 502 511 543 531 539 519 586 522 538 538 531 530 555 513 579 516 513 486 512 512 502 551 510 515 547 531 536 504 538 558 504 495 531 506 563 527 520 576 528 560 514 553 562 535 516 549 537 572 548 492 516 534 515 548 554 532 539 542 517 526 530 565 536 502 520 500 536 520 493 524 572 541 512 484 588 549 475 519 528 546 518 548 553 512 519 524 503 568 503 519 513 504 517 565 533 534 547 537 502 514 536 515 499 573 550 542 518 574 486 543 503 494 524 529 556 524 532 545 567 539 524 461 482 505 514 498 525 547 507 542 559 546 555 554 506 510 534 571 530 523 492 552 560 549 504 480 514 528 555 557 535 559 500 545 520 543 531 549 524 568 531 536 517 541 581 582 580 572 529 531 589 525 517 546 528 537 549 573 523 538 569 537 559 521 598 590 633 571 593 618 568 568 573 598 646 585 601 597 608 577 576 582 640 584 645 602 579 620 551 556 628 608 602 606 586 579 577 636 565 529 581 552 578 584 643 607 598 571 563 581 581 620 629 615 598 579 606 609 603 578 595 580 601 596 560 583 596 615 648 626 604 579 595 615 563 624 632 565 562 596 610 629 609 597 588 551 618 646 585 627 619 624 629 603 623 607 581 636 647 595 627 587 569 595 608 571 579 559 631 607 571 545 568 564 581 543 533 553 549 552 572 549 583 564 573 575 595 544 570 551 568 556 534 583 548 543 560 584 549 580 547 565 589 553 563 533 526 547 554 532 563 585 575 544 542 576 593 545 536 571 522 561 519 557 508 532 532 524 603 536 548 590 542 520 570 545 546 541 549 533 534 540 560 503 514 537 542 539 596 565 514 528 560 569 600 552 556 621 548 531 537 564 588 543 559 545 545 540 547 557 569 575 582 530 573 531 562 577 528 559 495 552 558 575 596 541 572 556 583 579 566 636 587 577 590 593 593 642 571 617 602 624 615 577 573 625 592 637 602 630 557 617 577 630 634 572 613 627 630 623 576 649 627 606 618 642 626 630 620 628 598 633 671 659 633 662 655 642 608 691 673 666 709 701 675 680 761 742 788 759 769 748 769 819 842 833 882 831 858 876 867 874 867 877 887 853 876 938 925 850 910 945 888 976 924 925 957 915 933 923 934 948 903 895 841 882 840 859 884 859 857 748 805 826 850 849 795 807 785 749 748 725 788 733 713 711 743 685 701 694 694 707 725 731 651 685 636 644 660 614 615 658 622 656 625 585 635 643 652 591 632 620 569 620 584 575 565 608 598 602 614 596 566 560 591 555 594 621 536 550 597 549 578 552 608 596 574 521 560 563 570 579 552 623 568 539 535 525 601 600 594 565 559 574 520 536 557 551 546 586 537 567 561 587 573 525 578 582 559 553 594 590 547 494 557 525 622 532 535 514 596 538 596 550 569 574 575 570 549 559 533 577 612 514 571 626 561 598 576 561 595 580 572 588 569 555 626 618 598 593 574 595 595 594 634 618 586 592 602 612 579 646 628 565 622 593 594 626 615 613 591 614 623 558 654 594 611 673 601 582 631 604 601 524 591 599 579 601 615 546 580 582 581 600 601 570 573 553 568 587 570 571 593 542 531 573 552 555 563 582 552 538 578 584 527 555 584 625 561 524 533 513 561 570 551 597 509 554 533 550 519 548 514 562 534 512 564 525 510 557 593 507 546 570 580 550 512 519 554 530 539 593 518 533 545 558 530 549 563 532 520 574 537 534 573 519 522 553 544 548 495 540 512 545 524 531 547 543 544 596 561 510 512 541 538 500 518 552 528 559 521 517 542 508 507 530 510 525 527 531 507 526 543 561 560 525 560 585 519 566 515 535 529 507 521 547 503 500 539 493 537 510 561 554 552 548 513 569 534 504 518 527 556 516 552 527 506 509 532 543 495 511 486 556 557 566 558 561 527 514 527 528 522 499 538 530 516 545 614 580 542 550 501 550 517 484 543 538 557 529 520 517 481 544 509 524 583 542 612 492 544 544 549 550 567 519 534 549 567 536 524 538 530 540 527 535 528 556 497 543 532 536 510 517 520 494 565 546 522 507 513 532 543 558 540 551 563 475 558 520 541 507 581 524 520 572 540 529 481 523 556 576 554 562 505 545 518 577 517 530 532 572 530 532 547 521 536 550 524 549 516 548 538 494 551 516 558 497 517 546 529 552 491 545 511 560 539 553 491 537 558 550 533 537 489 527 565 524 521 553 528 578 489 517 541 548 512 522 542 520 553 565 552 526 521 526 526 541 556 505 535 504 567 561 528 547 555 542 531 547 493 540 601 552 513 492 538 574 474 549 577 544 504 571 581 503 504 539 533 512 495 548 532 526 568 495 513 536 527 563 500 565 541 528 552 562 495 542 542 571 552 495 503 579 564 520 533 534 520 536 533 538 539 569 548 528 530 550 512 541 580 500 566 570 599 535 545 523 563 563 577 522 562 550 581 534 576 547 586 565 565 544 534 524 547 574 538 515 588 547 572 537 632 541 572 608 597 594 550 584 572 569 586 550 574 586 547 598 578 592 578 613 580 592 580 535 570 566 581 556 606 607 576 550 534 578 578 597 612 544 524 539 546 546 557 592 579 570 530 613 522 547 575 541 507 537 557 529 532 535 538 599 569 556 529 593 549 544 525 491 536 556 551 515 578 560 547 556 545 571 583 565 538 549 516 592 538 576 527 574 559 540 509 609 525 562 513 570 555 547 553 532 551 552 518 528 580 529 527 515 548 543 513 571 516 578 513 537 528 559 536 551 621 540 550 580 548 512 572 570 502 540 534 609 565 501 541 564 568 566 560 559 540 535 569 544 502 538 535 546 539 539 568 590 552 540 557 558 564 531 536 543 520 555 554 526 556 554 547 548 549 526 513 608 549 541 574 562 563 510 599 551 540 515 560 549 551 533 544 494 547 556 506 556 582 558 539 536 552 613 539 561 516 513 525 564 566 534 535 523 558 553 536 545 584 587 525 580 526 546 524 553 584 560 552 584 533 544 593 549 570 573 552 560 562 582 563 574 612 592 584 595 524 579 636 552 557 587 544 567 582 585 567 583 574 610 599 560 587 584 592 615 582 570 608 621 605 621 618 595 579 657 633 576 606 636 637 690 608 662 677 677 711 727 739 786 717 713 754 758 771 766 784 735 771 749 813 776 774 799 777 830 783 866 779 837 803 831 798 809 775 794 808 824 803 791 828 774 782 738 757 825 802 764 761 714 838 777 711 753 727 700 720 743 711 710 715 687 676 712 744 673 647 652 674 642 634 615 648 601 642 569 589 648 609 668 618 591 649 616 606 579 609 591 601 607 591 606 593 574 596 593 544 552 579 580 633 575 560 560 582 556 549 536 603 590 568 584 548 518 553 580 567 539 552 544 562 501 599 573 595 540 575 531 577 528 539 584 557 543 573 567 566 561 537 566 541 520 564 524 587 533 559 550 517 552 558 570 510 557 576 531 502 581 533 531 537 572 549 554 519 563 573 563 522 544 553 565 558 533 589 505 589 563 539 509 544 570 505 609 573 548 549 546 593 540 591 534 575 530 587 582 596 575 561 581 553 516 569 568 591 517 555 575 563 509 580 577 583 584 588 567 592 565 519 560 583 584 619 569 572 539 564 568 572 609 553 580 572 588 618 579 554 588 597 561 590 598 585 593 577 564 595 601 565 573 586 551 613 574 558 544 559 564 570 553 593 568 578 586 531 528 551 578 551 607 551 602 547 533 499 585 576 540 544 542 540 588 573 587 577 546 541 552 520 517 539 547 536 526 538 580 544 596 535 511 549 534 546 574 548 508 530 559 553 562 541 502 560 518 549 534 609 532 562 549 574 560 512 546 504 544 539 537 540 554 531 524 531 539 544 563 542 513 534 509 548 542 501 522 531 509 542 550 506 522 550 562 558 517 515 574 512 515 494 507 510 532 533 514 537 529 535 529 524 511 509 539 543 570 521 547 529 577 549 511 545 493 554 530 552 592 548 513 535 500 507 530 559 511 569 518 561 574 547 526 513 587 590 539 529 539 518 550 530 566 577 570 533 578 513 553 523 568 550 492 539 515 535 563 499 538 521 523 559 531 538 525 540 513 504 529 507 550 511 535 535 521 549 534 564 550 531 563 515 520 543 492 533 550 515 474 538 534 557 541 484 510 542 568 540 592 535 543 556 531 515 528 561 534 559 571 531 521 559 527 542 542 598 542 549 587 524 525 503 542 562 539 553 521 523 536 538 556 534 500 532 513 511 532 568 528 565 561 541 523 506 538 552 572 558 495 574 529 505 567 481 509 558 522 562 513 535 508 525 532 498 490 567 539 520 504 517 477 568 553 526 578 542 545 575 528 534 524 572 533 512 523 531 576 535 545 514 538 535 551 519 532 533 523 566 535 568 557 547 558 521 532 581 546 560 521 505 552 510 547 533 545 574 529 553 562 569 552 545 561 541 580 544 542 587 571 551 525 538 570 515 579 555 537 571 506 568 522 631 551 563 550 571 519 532 573 500 601 557 605 517 581 527 594 613 526 582 566 594 547 575 574 574 541 569 553 588 566 569 560 596 583 594 614 610 619 555 589 579 569 630 600 605 614 632 562 617 596 591 582 596 611 649 570 621 551 589 585 577 626 606 584 607 567 619 598 618 563 579 581 620 640 566 583 569 596 564 578 560 615 591 540 557 630 577 652 610 589 612 620 613 599 638 602 627 612 564 549 562 575 554 593 569 609 595 611 571 582 583 544 585 600 542 603 557 577 547 617 591 565 563 577 598 563 596 582 583 579</counts>
			</dataPoints>
		</scan>
	</xrdMeasurement>
</xrdMeasurements>
