<?xml version="1.0"?>
<xrdMeasurements xmlns="http://www.xrdml.com/XRDMeasurement/2.3" xmlns:xsi="http://www.w3.org/2001/XMLSchema-instance" xsi:schemaLocation="http://www.xrdml.com/XRDMeasurement/2.3 http://www.xrdml.com/XRDMeasurement/2.3/XRDMeasurement.xsd" status="Completed" recordIdentifier="{D4CADDCE-EB2B-45DD-9282-09FAE54E25D0}">
	<comment>
		<entry/>
	</comment>
	<sample type="To be analyzed">
		<id>GPSS_Li1p6Mg0p1Cu0p1Co0p2Ni0p2Fe0p6Cl4_122625_694e531dae15af25ac37461b</id>
		<name></name>
		<preparedBy></preparedBy>
	</sample>
	<xrdMeasurement measurementType="Scan" status="Completed" sampleMode="Reflection">
		<usedWavelength intended="K-Alpha 1">
			<kAlpha1 unit="Angstrom">1.5405980</kAlpha1>
			<kAlpha2 unit="Angstrom">1.5444260</kAlpha2>
			<kBeta unit="Angstrom">1.3922500</kBeta>
			<ratioKAlpha2KAlpha1>0.5000</ratioKAlpha2KAlpha1>
		</usedWavelength>
		<incidentBeamPath>
			<radius unit="mm">145.00</radius>
			<xRayTube id="1010048" name="Empyrean Cu LFF HR (9430 033 7310x)">
				<tension unit="kV">40.0</tension>
				<current unit="mA">15.0</current>
				<anodeMaterial>Cu</anodeMaterial>
				<focus type="Line">
					<length unit="mm">12.0</length>
					<width unit="mm">0.4</width>
					<takeOffAngle unit="deg">6.0</takeOffAngle>
				</focus>
			</xRayTube>
			<sollerSlit id="21010002" name="Soller slits 0.04 rad.">
				<opening unit="rad">0.0400</opening>
			</sollerSlit>
			<mask id="22031000" name="Fixed mask 13 mm">
				<width unit="mm">9.00</width>
			</mask>
			<divergenceSlit id="22120001" name="Divergence slit 1°" xsi:type="fixedDivergenceSlitType">
				<distanceToSample unit="mm">50.00</distanceToSample>
				<height unit="mm">1.52</height>
			</divergenceSlit>
		</incidentBeamPath>
		<sampleMovement xsi:type="spinningSampleMovementType">
			<spinnerRevolutionTime unit="seconds">1.0</spinnerRevolutionTime>
		</sampleMovement>
		<diffractedBeamPath>
			<radius unit="mm">145.00</radius>
			<antiScatterSlit id="22090040" name="AS slit 9 mm (PIXcel)" xsi:type="fixedAntiScatterSlitType">
				<height unit="mm">9.00</height>
			</antiScatterSlit>
			<sollerSlit id="21020003" name="Large Soller slits 0.04 rad.">
				<opening unit="rad">0.0400</opening>
			</sollerSlit>
			<filter id="20030001" name="Large beta-filter Nickel">
				<material>Ni</material>
				<thickness unit="mm">0.020</thickness>
			</filter>
			<detector id="7010019" name="PIXcel1D-Medipix3 detector" xsi:type="rtmsDetectorType">
				<phd unit="keV">
					<lowerLevel>4.02</lowerLevel>
					<upperLevel>11.27</upperLevel>
				</phd>
				<mode>Scanning</mode>
				<activeLength unit="deg">5.542</activeLength>
			</detector>
		</diffractedBeamPath>
		<scan appendNumber="0" mode="Continuous" scanAxis="Gonio" status="Completed">
			<header>
				<startTimeStamp>2025-12-27T13:39:32-08:00</startTimeStamp>
				<endTimeStamp>2025-12-27T13:47:40-08:00</endTimeStamp>
				<author>
					<name>AutomatedUser</name>
				</author>
				<source>
					<applicationSoftware version="1.7b (136)">PANalytical Aeris Instrument Suite</applicationSoftware>
					<instrumentControlSoftware version="3.2.00000000 20240306">AERIS</instrumentControlSoftware>
					<instrumentID>950485</instrumentID>
				</source>
			</header>
			<dataPoints>
				<positions axis="2Theta" unit="deg">
					<startPosition>10.00943322</startPosition>
					<endPosition>99.99442286</endPosition>
				</positions>
				<positions axis="Omega" unit="deg">
					<startPosition>5.00471661</startPosition>
					<endPosition>49.99721143</endPosition>
				</positions>
				<commonCountingTime unit="seconds">12.495</commonCountingTime>
				<counts unit="counts">3316 3193 3246 3214 3226 3255 3319 3365 3261 3349 3226 3383 3426 3314 3252 3249 3304 3276 3388 3396 3385 3336 3286 3358 3252 3155 3362 3341 3307 3269 3360 3357 3331 3264 3242 3374 3355 3235 3266 3405 3281 3311 3223 3397 3364 3415 3390 3447 3308 3440 3470 3419 3390 3418 3383 3462 3469 3488 3437 3530 3406 3463 3594 3381 3570 3361 3511 3492 3411 3442 3505 3387 3410 3488 3455 3508 3471 3536 3592 3480 3532 3506 3584 3674 3557 3614 3617 3537 3649 3562 3614 3601 3544 3596 3745 3707 3655 3604 3568 3696 3676 3670 3605 3703 3636 3741 3643 3642 3503 3621 3799 3660 3617 3736 3557 3713 3613 3782 3700 3874 3725 3701 3738 3697 3665 3778 3653 3794 3775 3799 3712 3729 3641 3797 3804 3808 3816 3820 3804 3828 3746 3836 3761 3786 3729 3749 3849 3701 3889 3803 3835 3903 3886 3695 3785 3722 3787 3855 3764 3892 3854 3792 3887 3788 3713 3680 3683 3819 3866 3928 3698 3837 3830 3862 3932 3765 3874 3853 3919 3774 3739 3938 3727 3667 3761 3721 3816 3819 3859 3813 3829 3864 3745 3812 3889 3711 3711 3732 3839 3737 3757 3787 3820 3787 3804 3826 3709 3785 3716 3810 3799 3697 3633 3804 3766 3744 3860 3785 3935 3785 3708 3806 3661 3782 3765 3730 3738 3809 3733 3637 3767 3685 3748 3637 3717 3700 3723 3687 3751 3660 3784 3730 3747 3671 3688 3684 3583 3742 3668 3788 3621 3694 3748 3673 3697 3643 3679 3575 3774 3751 3696 3751 3756 3662 3795 3578 3548 3570 3616 3675 3633 3600 3630 3711 3817 3640 3699 3661 3635 3674 3605 3668 3656 3693 3550 3603 3739 3699 3650 3512 3676 3612 3665 3710 3623 3693 3543 3637 3615 3626 3683 3629 3572 3730 3626 3547 3608 3636 3694 3676 3595 3667 3676 3769 3675 3668 3686 3708 3656 3776 3616 3743 3741 3569 3770 3705 3644 3747 3617 3707 3655 3659 3877 3801 3706 3698 3720 3827 3705 3640 3755 3740 3662 3792 3714 3807 3769 3625 3659 3741 3635 3923 3759 3768 3890 3695 3770 3618 3915 3794 3777 3752 3904 3831 3952 3818 3794 3728 3801 3730 3751 3671 3852 3746 3828 3948 3858 3805 3866 3867 3980 4025 3799 3857 3969 3848 3804 3871 3887 3905 3971 3869 3922 3903 3808 3815 3972 3969 3976 3886 3981 3856 3931 3962 3919 3847 4035 3880 3888 4007 4029 4018 3832 3920 3991 3876 4034 3898 3950 3974 4027 3998 3893 4088 4110 3936 3941 3897 3982 3964 3897 4009 3969 4017 3997 4062 4009 4022 4155 4182 4097 4101 4119 3996 4126 4108 4098 4076 4035 4126 4086 4042 4259 4014 4119 4211 4126 4163 4234 4091 4215 4167 4352 4279 4221 4392 4234 4464 4438 4362 4542 4582 4557 4565 4641 4624 4675 4687 4609 4535 4464 4508 4520 4438 4328 4272 4356 4279 4240 4159 4081 4058 4128 4086 4045 4204 3992 3946 4043 4078 3986 3995 4080 4110 4038 3931 4142 4243 4178 4101 4211 4251 4096 4211 4229 4156 4065 4105 4021 4126 4101 4017 3909 3857 3860 3816 3862 3894 3893 3860 3832 3925 3764 3676 3760 3670 3762 3743 3836 3712 3678 3625 3577 3652 3720 3538 3749 3614 3655 3592 3480 3581 3556 3497 3651 3607 3537 3501 3609 3588 3561 3720 3582 3640 3629 3560 3521 3541 3588 3520 3356 3651 3607 3528 3534 3499 3614 3508 3549 3533 3547 3525 3614 3445 3443 3524 3510 3665 3625 3582 3409 3656 3534 3516 3569 3495 3551 3445 3545 3424 3508 3445 3500 3426 3490 3465 3484 3510 3430 3421 3372 3467 3279 3411 3495 3446 3400 3423 3265 3418 3400 3391 3338 3425 3293 3350 3411 3471 3426 3511 3389 3352 3401 3379 3404 3442 3461 3348 3380 3302 3470 3443 3357 3395 3447 3461 3451 3375 3369 3410 3415 3468 3431 3385 3376 3373 3421 3363 3364 3267 3356 3327 3319 3380 3326 3320 3363 3387 3364 3401 3393 3410 3485 3362 3302 3414 3230 3456 3351 3368 3360 3375 3300 3367 3324 3319 3284 3306 3335 3353 3371 3255 3347 3418 3332 3273 3290 3448 3431 3337 3361 3351 3348 3282 3287 3351 3282 3366 3250 3424 3255 3290 3341 3245 3376 3419 3401 3287 3331 3234 3208 3164 3229 3377 3342 3294 3251 3225 3278 3286 3322 3264 3248 3279 3194 3304 3210 3250 3277 3286 3253 3316 3259 3285 3280 3282 3271 3267 3173 3233 3298 3361 3330 3369 3266 3241 3254 3291 3333 3232 3272 3173 3281 3255 3263 3256 3294 3351 3332 3318 3292 3094 3167 3122 3256 3193 3220 3235 3270 3268 3248 3264 3236 3371 3182 3177 3319 3145 3219 3199 3190 3236 3225 3359 3320 3230 3247 3258 3275 3299 3254 3258 3330 3184 3189 3157 3214 3245 3161 3250 3225 3249 3225 3268 3233 3246 3161 3130 3245 3189 3260 3231 3231 3069 3049 3245 3131 3227 3242 3257 3286 3130 3221 3276 3273 3239 3212 3250 3168 3184 3209 3307 3088 3270 3167 3196 3244 3205 3210 3186 3105 3159 3207 3108 3297 3170 3205 3308 3173 3126 3052 3141 3143 3140 3121 3100 3151 3134 3080 3045 3234 3140 3196 3009 3212 3183 3114 3131 3189 3118 3139 3124 3106 3190 3041 3276 3114 3101 3176 3117 3080 3141 3198 3131 3154 2956 3037 3039 3050 3086 3028 3130 3077 3166 3089 3026 3008 3237 3098 3151 3107 3045 3127 3132 3124 3132 2982 3165 3150 3083 3144 3023 3130 3145 3119 3081 3101 3216 3242 3095 2977 3073 3038 3076 3017 3052 3077 3051 3032 3047 2945 3130 3118 3052 3160 3062 3059 3127 3014 3051 3104 2994 2944 3130 3126 3048 3081 3058 2963 3053 3048 3059 3053 3058 3034 2914 3039 3137 3053 3083 3032 3044 3088 3078 3034 3118 2996 2970 3030 3077 2988 3048 3038 2954 3001 3088 3043 3077 3052 3013 3093 3082 3088 3072 3088 3063 3044 3032 3010 3115 2950 3048 2978 3028 3089 3152 2940 3110 2919 3053 3042 2946 2913 2991 2935 3071 2881 3060 3129 3023 3059 3049 3051 2944 3123 3008 3023 3006 2988 3021 3052 3117 3050 3089 3045 3097 2944 3021 3108 3055 2991 3117 3002 3087 3025 3027 3040 2995 3072 2972 3023 3029 3111 2995 3068 3075 3028 3099 3017 3125 3095 3050 3026 3036 3067 3009 2975 3058 3005 3106 2942 2965 2979 3035 3107 3045 3001 3011 2997 3086 3020 3023 3065 3026 3005 2933 3105 3028 3007 2971 2993 3092 2973 3041 2927 3003 3019 3014 3091 3032 2985 2994 3086 3138 2960 2940 3039 3052 3033 3070 3012 2926 3098 3051 2980 3003 2981 2956 2999 3002 2940 2955 3049 2921 2976 2952 2970 3058 3060 3017 3054 3021 2998 2975 3064 3020 2939 3012 2957 2972 2929 2922 3007 2952 2988 2909 2976 3043 2970 2997 2935 2877 2970 2929 2895 2946 2974 2949 2816 2894 2820 2865 2908 2939 2829 2828 2810 2727 2892 2970 2862 2977 2911 2939 2918 2871 2740 2940 2820 2845 2894 2742 2781 2859 2841 2903 2749 2860 2967 2712 2764 2766 2732 2717 2756 2812 2686 2805 2768 2795 2786 2820 2793 2750 2743 2753 2846 2803 2802 2774 2782 2727 2845 2683 2688 2775 2686 2719 2740 2698 2701 2806 2648 2720 2684 2798 2817 2719 2691 2717 2661 2667 2634 2738 2748 2702 2711 2609 2674 2631 2678 2638 2620 2596 2703 2691 2715 2630 2577 2649 2640 2716 2585 2626 2643 2527 2697 2583 2591 2592 2561 2534 2611 2655 2533 2600 2608 2523 2520 2696 2566 2599 2561 2555 2627 2670 2548 2602 2662 2547 2489 2490 2558 2497 2564 2607 2586 2498 2471 2566 2456 2430 2530 2546 2606 2531 2573 2484 2475 2473 2592 2430 2450 2499 2507 2608 2505 2580 2575 2566 2511 2503 2489 2487 2529 2573 2514 2528 2464 2415 2523 2418 2519 2512 2502 2516 2499 2526 2564 2607 2509 2552 2558 2545 2580 2422 2511 2538 2474 2518 2579 2581 2527 2499 2562 2542 2536 2574 2596 2533 2561 2522 2487 2512 2528 2469 2537 2542 2550 2578 2513 2536 2379 2421 2536 2513 2524 2504 2514 2459 2457 2427 2374 2442 2442 2390 2510 2483 2419 2413 2399 2529 2436 2424 2558 2513 2316 2393 2448 2432 2464 2422 2446 2424 2505 2360 2363 2399 2396 2527 2437 2478 2429 2499 2446 2465 2460 2524 2434 2417 2379 2433 2468 2442 2562 2412 2390 2517 2465 2486 2504 2426 2459 2430 2431 2436 2431 2446 2458 2369 2424 2354 2367 2401 2484 2482 2499 2451 2526 2403 2480 2492 2422 2395 2472 2486 2410 2420 2433 2497 2453 2469 2431 2323 2445 2456 2543 2472 2558 2468 2410 2429 2366 2509 2486 2565 2619 2477 2452 2454 2326 2529 2335 2370 2481 2471 2516 2332 2472 2522 2473 2517 2427 2443 2446 2381 2343 2522 2466 2397 2450 2393 2417 2476 2470 2529 2443 2412 2444 2490 2587 2373 2439 2478 2457 2443 2483 2469 2423 2433 2446 2494 2467 2500 2482 2460 2433 2490 2357 2403 2430 2380 2407 2334 2441 2439 2471 2454 2432 2458 2352 2349 2470 2466 2421 2428 2442 2449 2469 2456 2452 2410 2446 2347 2457 2478 2424 2343 2519 2288 2390 2401 2385 2365 2310 2375 2411 2443 2346 2350 2447 2305 2402 2310 2433 2415 2341 2420 2274 2392 2329 2350 2422 2292 2442 2385 2297 2311 2363 2319 2281 2341 2340 2269 2386 2309 2345 2291 2312 2252 2292 2339 2318 2273 2278 2252 2294 2339 2276 2344 2388 2315 2195 2298 2277 2329 2170 2335 2318 2247 2251 2267 2204 2265 2242 2327 2255 2291 2258 2286 2336 2223 2299 2334 2199 2160 2202 2339 2263 2193 2193 2193 2149 2219 2216 2168 2220 2167 2186 2221 2230 2234 2252 2177 2215 2117 2188 2131 2242 2107 2216 2131 2154 2156 2112 2101 2119 2176 2245 2175 2108 2208 2204 2201 2119 2178 2151 2184 2176 2131 2074 2152 2208 2207 2173 2127 2250 2118 2180 2256 2184 2154 2133 2146 2211 2047 2140 2127 2146 2108 2169 2174 2169 2090 2218 2046 2160 2322 2234 2244 2137 2195 2184 2192 2248 2246 2245 2217 2165 2208 2078 2163 2204 2216 2290 2221 2291 2188 2204 2269 2294 2187 2344 2336 2340 2426 2444 2335 2492 2461 2396 2515 2409 2510 2667 2557 2659 2622 2631 2616 2695 2699 2717 2714 2745 2728 2676 2586 2596 2701 2521 2606 2480 2449 2489 2358 2310 2420 2384 2281 2231 2226 2224 2253 2184 2200 2223 2189 2157 2172 2101 2212 2136 2137 2158 2134 2085 2227 2165 2075 2105 2136 2139 2098 2196 2199 2098 2100 2031 2093 2075 2137 2076 2135 2052 2043 2071 2125 2087 2086 2056 2106 2071 2109 2121 2126 2118 2100 2092 2132 2166 2088 2190 2178 2080 2124 2047 2176 2136 2088 2219 2160 2110 2197 2230 2153 2209 2233 2249 2260 2324 2236 2350 2341 2390 2315 2355 2290 2325 2443 2430 2409 2400 2452 2438 2490 2526 2524 2600 2678 2688 2680 2768 2750 2864 2969 2976 2889 2966 3063 3065 3043 3046 3137 3093 3065 3037 2990 3134 2892 2976 2931 2762 2805 2701 2718 2616 2575 2479 2495 2355 2430 2364 2269 2201 2348 2137 2049 2191 2156 2072 2194 2100 2031 1969 2067 1985 1991 1921 2035 1990 2027 2013 1991 2013 2019 1948 1952 2036 2020 1906 1959 1949 1955 1997 1999 1957 1950 2055 1957 2009 1898 1969 1959 1924 1955 2000 1881 2017 2019 1948 1901 1966 1954 1978 1961 1964 1925 1950 1986 1989 1921 1932 2000 1948 1844 1953 1957 1991 1960 1877 1956 1959 1898 1940 2001 1984 1907 1945 1939 1897 2006 1975 1980 1922 1910 1842 1967 1947 1867 1885 1854 1903 1962 1992 1909 1871 1937 2000 2003 1925 1820 2001 1876 1894 1900 1969 1902 1898 1836 1954 1948 1902 1887 2076 1877 1803 1908 1932 1919 1843 1931 1838 1951 1885 1912 1880 1908 1903 1767 1927 1858 1824 1917 1884 1890 1908 1866 1873 1888 1881 1903 1934 1912 1895 1816 1880 1806 1981 1966 1878 1818 1848 1928 1893 1938 1980 1985 1811 1893 1867 1836 1923 1866 1891 1936 1948 1933 1831 1841 1827 1959 1901 1879 1955 1867 1847 1933 1886 1923 1902 1834 1878 1847 1858 1905 1865 1910 1898 2018 1981 1939 1938 1963 1902 1917 1878 1940 1917 1944 1972 1954 1957 1957 1896 1955 1886 1942 1900 1827 1985 1977 1988 1936 2013 1986 1974 1936 1995 1963 1924 1913 1972 1943 1935 1964 1970 1977 2028 1976 2062 1985 1962 2059 2031 2049 2031 2066 2039 1981 1990 2106 2026 1994 1936 2125 2076 2025 2034 2047 2014 1981 1977 2046 2082 2033 2038 2036 1973 2015 1995 2017 2008 2058 1993 2065 2030 1980 2041 2058 2002 2042 1945 1976 1992 2011 2029 2080 1985 2023 1983 1989 2055 2033 1954 2036 2038 1965 1947 2023 1938 1955 1996 2055 2016 1881 1883 1907 1920 1889 1899 2007 1934 1837 1795 1961 1880 1947 1887 1871 1971 1855 1862 1916 1871 1948 1907 1988 1928 1923 1827 1929 1887 1950 1942 1877 1891 1947 1883 1903 1880 1952 1895 1968 1948 1881 1880 1885 1841 1884 1849 1881 1891 1882 1858 1835 1878 1902 1873 1886 1876 1879 1904 1779 1912 1945 1949 1830 1871 1872 1906 1911 1927 1926 1874 2022 1954 1959 1861 1962 2002 1929 1957 1955 1960 2011 2039 2152 2075 2062 2109 2124 2208 2215 2137 2202 2253 2343 2270 2263 2327 2304 2360 2555 2315 2494 2497 2525 2562 2594 2735 2823 2860 3019 2981 3198 3257 3303 3306 3587 3591 3676 3953 3954 4085 4092 4071 4198 4285 4408 4367 4601 4488 4486 4424 4335 4244 4227 4131 3951 3981 3769 3739 3602 3530 3411 3289 3334 3083 3025 2835 2981 2753 2852 2730 2616 2599 2506 2434 2427 2464 2258 2373 2326 2151 2267 2226 2294 2310 2331 2191 2208 2252 2123 2225 2202 2125 2159 2172 2088 2146 2077 2201 2083 2017 2128 2051 2049 1972 2006 2131 2070 2012 2054 2021 2124 2051 2066 2118 2024 2036 2037 2093 2013 2093 2092 2034 2061 2117 2123 2102 2153 2136 2135 2175 2180 2134 2168 2206 2213 2228 2183 2182 2089 2153 2160 2170 2186 2161 2120 2073 2114 2179 2026 2150 2170 2176 2105 2165 2274 2236 2070 2104 2117 2181 2087 2185 2169 2055 2114 2018 2072 2076 2017 1993 1985 2007 2075 2029 1993 2007 2023 1934 1914 1912 1991 2000 1956 1856 1981 1950 1901 1883 1920 1942 1897 1869 1910 1870 1883 1886 1837 1929 1778 1833 1927 1905 1840 1855 1931 1870 1897 1873 1851 1895 1801 1843 1825 1880 1838 1926 1803 1831 1818 1832 1886 1804 1810 1828 1924 1827 1883 1836 1928 1730 1827 1845 1835 1796 1863 1840 1828 1818 1844 1824 1817 1803 1835 1829 1740 1783 1861 1764 1855 1823 1816 1842 1853 1797 1841 1895 1840 1824 1834 1826 1852 1778 1877 1873 1851 1804 1797 1881 1845 1761 1800 1760 1832 1843 1910 1835 1848 1877 1842 1855 1875 1891 1817 1837 1869 1766 1879 1846 1794 1871 1826 1774 1768 1912 1781 1874 1768 1909 1864 1866 1781 1813 1785 1817 1883 1855 1905 1855 1843 1878 1941 1804 1865 1742 1841 1904 1751 1929 1748 1801 1769 1854 1798 1845 1814 1806 1906 1795 1852 1789 1780 1869 1820 1895 1817 1857 1812 1877 1846 1824 1787 1891 1757 1924 1857 1918 1844 1907 1860 1837 1785 1828 1767 1830 1766 1858 1897 1858 1866 1820 1742 1769 1792 1866 1858 1890 1774 1931 1806 1887 1860 1844 1889 1858 1847 1849 1791 1820 1748 1821 1884 1887 1713 1811 1843 1914 1737 1806 1897 1877 1792 1806 1898 1871 1906 1846 1857 1740 1816 1869 1811 1868 1786 1824 1885 1865 1824 1825 1816 1779 1840 1869 1908 1765 1832 1856 1727 1880 1777 1820 1864 1818 1821 1767 1833 1860 1783 1774 1873 1906 1807 1828 1747 1880 1849 1900 1864 1844 1812 1862 1775 1799 1841 1901 1761 1784 1852 1781 1779 1844 1844 1838 1799 1828 1830 1870 1867 1878 1794 1922 1817 1868 1902 1898 1787 1837 1785 1924 1850 1891 1809 1855 1798 1899 1831 1746 1746 1792 1806 1814 1774 1848 1871 1807 1842 1850 1789 1801 1795 1772 1748 1858 1754 1835 1782 1772 1775 1902 1768 1959 1738 1862 1807 1771 1801 1874 1715 1809 1825 1834 1891 1759 1805 1790 1767 1860 1836 1917 1818 1777 1839 1858 1842 1855 1794 1819 1822 1837 1951 1774 1779 1802 1802 1778 1854 1766 1776 1776 1783 1807 1900 1790 1768 1738 1919 1739 1808 1780 1868 1751 1758 1823 1821 1820 1728 1816 1827 1815 1766 1825 1773 1826 1734 1824 1736 1803 1802 1770 1785 1770 1779 1790 1887 1791 1894 1761 1778 1831 1777 1812 1886 1834 1887 1713 1863 1798 1780 1874 1877 1848 1794 1805 1814 1871 1835 1823 1810 1794 1826 1827 1766 1796 1856 1788 1772 1807 1745 1792 1772 1810 1870 1806 1863 1829 1869 1838 1779 1836 1813 1789 1815 1833 1868 1832 1735 1849 1784 1788 1826 1775 1881 1890 1790 1798 1786 1794 1756 1797 1821 1733 1761 1733 1816 1802 1792 1829 1808 1849 1877 1814 1826 1749 1814 1809 1779 1790 1822 1804 1808 1855 1805 1800 1783 1854 1773 1783 1824 1824 1747 1740 1817 1856 1759 1767 1746 1847 1802 1776 1805 1730 1805 1835 1797 1756 1798 1713 1835 1812 1900 1831 1788 1850 1784 1814 1775 1777 1774 1763 1843 1776 1843 1784 1733 1758 1766 1790 1836 1787 1816 1831 1860 1755 1811 1880 1844 1842 1841 1830 1766 1748 1801 1760 1778 1802 1854 1798 1780 1754 1802 1845 1922 1817 1854 1883 1737 1853 1764 1765 1809 1826 1807 1790 1881 1803 1826 1843 1762 1841 1888 1747 1817 1854 1762 1810 1804 1800 1843 1730 1808 1830 1863 1859 1805 1803 1772 1809 1821 1795 1772 1768 1812 1797 1777 1762 1837 1811 1833 1847 1809 1787 1844 1833 1905 1854 1789 1860 1822 1889 1878 1839 1899 1847 1828 1844 1881 1914 1920 1862 1851 1807 1817 1806 1875 1865 1863 1896 1891 1847 1876 1861 1851 1815 1815 1860 1872 1794 1829 1787 1737 1923 1766 1813 1829 1821 1828 1900 1781 1833 1868 1811 1848 1857 1831 1804 1887 1816 1803 1876 1890 1858 1768 1834 1815 1902 1862 1787 1894 1812 1776 1892 1761 1772 1794 1828 1778 1822 1811 1830 1783 1786 1819 1874 1861 1745 1793 1767 1786 1814 1802 1889 1813 1845 1843 1767 1843 1880 1842 1774 1888 1759 1800 1867 1806 1825 1819 1862 1722 1858 1857 1801 1821 1774 1901 1794 1842 1780 1870 1800 1887 1874 1898 1885 1848 1895 1821 1844 1851 1854 1770 1802 1888 1848 1789 1823 1819 1757 1855 1813 1763 1877 1802 1892 1806 1830 1749 1851 1815 1893 1792 1781 1750 1862 1775 1874 1855 1831 1822 1837 1831 1859 1759 1885 1810 1950 1779 1912 1809 1892 1910 1905 1826 1811 1905 1864 1858 1816 1775 1816 1877 1836 1835 1853 1862 1802 1808 1764 1818 1788 1905 1854 1908 1766 1859 1870 1743 1845 1895 1765 1878 1903 1802 1808 1849 1807 1825 1797 1816 1861 1803 1886 1841 1855 1823 1784 1790 1849 1814 1830 1871 1760 1837 1816 1874 1888 1745 1937 1946 1790 1800 1875 1908 1910 1793 1891 1936 1900 1924 1813 1928 1840 1984 1898 2035 2022 2018 1989 2071 1987 2064 2036 2150 2125 2079 2191 2081 2173 2144 2138 2257 2220 2225 2284 2248 2237 2311 2233 2263 2311 2219 2253 2273 2305 2260 2203 2214 2224 2021 2090 2083 2070 2038 2086 1968 2086 2142 2120 2021 2014 1882 2014 1948 1952 1894 1996 1908 1948 1983 1925 1867 1835 1877 1904 1873 1891 1841 1955 1896 1894 1917 1878 1912 1899 1824 1853 1873 1941 1906 1822 1747 1812 1806 1859 1851 1922 1871 1843 1799 1815 1854 1735 1858 1920 1842 1855 1841 1839 1841 1776 1910 1824 1824 1861 1845 1826 1859 1876 1859 1820 1847 1847 1842 1834 1841 1875 1969 1847 1885 1866 1889 1811 1786 1848 1820 1824 1847 1817 1899 1833 1875 1798 1829 1874 1886 1912 1912 1776 1871 1853 1867 1877 1893 1975 1940 1950 1867 1865 1829 1902 1843 1876 1876 1858 1825 1800 1830 1871 1875 1835 1925 1864 1871 1803 1777 1842 1805 1825 1964 1884 1927 1868 1862 1911 1884 1844 1848 1888 1847 1802 1832 1854 1888 1813 1916 1880 1894 1838 1892 1810 1882 1903 1853 1878 1820 1858 1772 1840 1807 1897 1915 1909 1843 1840 1847 1822 1814 1793 1895 1841 1854 1813 1857 1864 1818 1756 1797 1881 1821 1884 1847 1844 1838 1825 1859 1907 1813 1939 1830 1860 1737 1804 1850 1837 1821 1860 1834 1856 1821 1809 1856 1825 1828 1886 1882 1856 1821 1872 1821 1879 1726 1862 1866 1879 1846 1825 1811 1845 1838 1852 1904 1773 1829 1875 1816 1865 1903 1845 1807 1846 1815 1843 1947 1830 1805 1807 1903 1785 1804 1849 1789 1817 1887 1797 1795 1859 1851 1898 1787 1800 1825 1807 1847 1806 1830 1943 1902 1992 1907 1805 1850 1894 1818 1810 1853 1815 1966 1834 1920 1820 1847 1856 1868 1778 1878 1872 1806 1946 1809 1842 1895 1858 1906 1878 1797 1788 1837 1831 1856 1841 1910 1905 1907 1797 1712 1842 1789 1891 1801 1920 1902 1902 1831 1878 1874 1905 1861 1871 1952 1848 1914 1892 1809 1893 1834 1862 1900 1903 1848 1799 1872 1865 1879 1838 1952 1929 1922 1927 1938 1945 2001 1906 1929 1989 2016 1992 2020 2038 2054 2047 2122 2110 2173 2049 2069 2148 2181 2243 2185 2192 2208 2285 2398 2362 2368 2412 2381 2536 2506 2509 2581 2631 2785 2691 2785 2712 2851 2906 3110 3143 3212 3186 3345 3395 3515 3484 3617 3516 3699 3672 3593 3670 3674 3588 3781 3640 3607 3704 3601 3685 3511 3469 3460 3382 3375 3169 3237 3019 3147 3022 3038 2938 2852 2916 2776 2719 2694 2663 2635 2631 2496 2497 2399 2353 2370 2302 2291 2285 2192 2287 2215 2132 2231 2173 2169 2163 2123 2116 2184 2152 2083 2072 2069 2071 1999 2119 2107 1992 1957 1969 2024 2051 1946 1972 1924 1961 1957 1978 1944 1995 1952 2041 2010 1993 2027 2028 2026 1985 1998 2016 1961 2003 2021 2051 1908 1937 2020 1970 2003 2014 1939 1959 1896 2023 1966 1877 1943 1873 1987 2013 1974 1933 2022 1983 2017 2012 1889 1985 1993 1986 1994 1988 2014 1986 1955 1905 1977 1978 1922 1972 2000 1853 1962 1970 2005 1953 1965 1835 1902 1964 1926 1882 1923 2043 1978 2026 1976 1950 1934 1930 1979 1959 1976 1916 1973 2061 2007 1956 1928 1899 1951 2020 1948 2017 1991 1977 1996 1970 2072 1975 2032 1967 1920 1983 1934 1948 1948 1999 1919 1989 1975 1964 2001 1920 1975 1969 2029 1996 1944 1896 2001 2014 1954 1985 1959 1927 1875 1987 2019 1929 1962 1943 1983 1940 1970 2006 1924 2023 1954 1926 1914 1950 1993 2096 2019 1980 2012 1982 1936 2042 2131 2047 2026 2050 2018 2090 1970 2083 1968 2036 2071 1999 2043 2063 1990 1998 2007 1964 2030 2008 2045 2060 1989 2015 1924 1896 2013 1937 2025 1907 2007 1914 1958 1867 1954 1992 1978 1984 1909 1947 1991 1943 1995 1985 1944 1889 1930 1896 1889 1956 1933 1948 1912 1834 1848 1897 1957 1992 1908 1865 1902 1872 1852 1871 1899 1833 1903 1886 1900 1958 1879 1915 1895 1926 1820 1886 1775 1900 1890 1945 1923 1919 1800 1860 1879 1864 1909 1884 1861 1942 1966 1915 1910 1854 1856 1829 1873 1889 1872 1874 1877 1845 1977 1848 1887 1847 1906 1837 1884 1875 1840 1840 1753 1869 1909 1915 1847 1899 1762 1898 1910 1893 1846 1831 1929 1894 1926 1846 1920 1925 1851 1875 1969 1788 1892 1897 1848 1878 1888 1837 1830 1872 1847 1802 1942 1904 1864 1872 1886 1796 1906 1854 1873 1864 1820 1895 1864 1825 1934 2001 1902 1861 1983 1919 1908 1856 1895 1941 1896 1858 1909 1827 1968 1923 1840 1893 1981 1879 1909 1959 1877 1902 1889 1876 1940 1887 1891 1953 1979 1855 2007 1925 2030 1930 1817 1959 1868 1949 1861 1831 1896 1917 1910 1955 1880 1926 1823 1872 1905 1949 1869 1895 1850 1955 1868 1873 1843 1926 1850 1846 1839 1864 1894 1935 1882 1894 1842 1867 1886 1799 1939 1933 1876 1925 1839 1823 1835 1859 1896 1888 1926 1869 1889 1864 1909 1906 1860 1910 1920 1881 1798 1881 1842 1932 1844 1832 1904 1911 1901 1833 1861 1886 1823 1820 1784 1776 1882 1836 1915 1944 1868 1870 1773 1839 1832 1894 1836 1807 1878 1800 1828 1870 1816 1853 1800 1784 1889 1842 1866 1808 1830 1810 1845 1771 1764 1903 1831 1910 1806 1875 1780 1830 1817 1889 1862 1867 1917 1768 1865 1916 1842 1760 1796 1861 1826 1887 1894 1842 1852 1800 1770 1836 1847 1931 1861 1833 1846 1841 1863 1885 1857 1842 1797 1760 1862 1751 1785 1857 1873 1840 1899 1875 1883 1879 1840 1874 1825 1833 1859 1793 1802 1914 1885 1870 1814 1930 1852 1866 1911 1885 1861 1764 1789 1764 1899 1862 1849 1945 1809 1816 1820 1789 1924 1884 1806 1888 1825 1975 1907 1871 1822 1850 1863 1875 1824 1780 1824 1900 1844 1870 1843 1872 1779 1832 1893 1854 1837 1846 1824 1913 1857 1831 1833 1806 1796 1845 1786 1849 1797 1905 1841 1803 1919 1820 1784 1920 1853 1863 1844 1873 1813 1935 1819 1888 1812 1703 1801 1737 1806 1896 1942 1831 1824 1725 1895 1880 1766 1868 1846 1839 1778 1896 1827 1778 1832 1862 1848 1796 1827 1761 1827 1850 1817 1817 1808 1831 1804 1781 1786 1903 1878 1868 1796 1841 1785 1780 1902 1786 1830 1859 1860 1798 1814 1806 1846 1904 1888 1923 1911 1745 1874 1796 1775 1812 1899 1809 1914 1743 1855 1899 1753 1924 1854 1808 1811 1826 1840 1804 1828 1772 1873 1823 1749 1904 1866 1857 1818 1849 1810 1810 1856 1844 1922 1935 1829 1833 1808 1868 1849 1876 1897 1884 1840 1873 1928 1820 1798 1838 1828 1881 1884 1836 1839 1844 1860 1845 1831 1827 1799 1842 1840 1876 1877 1870 1808 1829 1915 1869 1851 1850 1801 1840 1843 1878 1816 1748 1887 1931 1895 1992 1874 1909 1920 1869 1868 1862 1852 1899 1850 1876 1865 1830 1918 1885 1833 1900 2010 1837 1873 1893 1906 1944 1965 1848 1927 1983 1999 1979 1958 1873 1972 1894 1805 1863 1870 1932 1975 1932 1963 1849 1878 1863 1882 1805 1880 1934 1899 1926 1939 1900 1905 1885 1889 1891 1897 1978 1869 1926 1964 1935 1884 1923 1847 1880 1936 1902 1894 1911 1917 1964 1893 1982 1984 2002 1938 1967 2023 1995 1967 2037 2051 1976 1977 2105 2100 1951 1988 2051 2043 2080 2106 2036 2122 2072 2143 1989 2124 2021 1999 2057 2056 2063 2000 1992 1986 2058 2130 2041 2059 2073 2062 2085 2094 2155 2130 2128 2231 2033 2088 2128 2146 2064 2025 2011 2030 2028 1984 1950 2023 1906 2026 2009 1852 1962 1944 1985 1954 1949 1971 1942 2031 1837 1925 1841 1980 1920 1870 1868 1962 1895 1939 1916 1916 1826 1945 1853 1835 1776 1868 1841 1883 1915 1858 1839 1819 1948 1860 1925 1848 1826 1827 1826 1856 1827 1925 1879 1909 1859 1850 1826 1864 1906 1828 1818 1870 1850 1822 1854 1905 1808 1907 1767 1934 1817 1826 1852 1891 1866 1837 1826 1911 1836 1877 1897 1851 1827 1896 1877 1892 1912 1816 1862 1823 1965 1813 1913 1859 1922 1830 1873 1895 1875 1837 1800 1839 1896 1828 1829 1880 1796 1913 1878 1887 1882 1822 1888 1899 1942 1903 1882 1864 1838 1884 1947 1851 1857 1799 1821 1748 1844 1897 1959 1924 1832 1903 1921 1898 1874 1900 1816 1830 1895 1832 1851 1812 1911 1790 1894 1944 1967 1856 1848 1777 1846 1834 1813 1847 1891 1921 1838 1831 1839 1873 1861 1909 1839 1836 1840 1849 1868 1872 1857 1912 1894 1864 1851 1899 1893 1916 1869 1808 1833 1920 1880 1907 1910 1902 1826 1929 1905 1877 1870 1948 1848 1866 1891 1844 1876 1922 1870 1899 1962 1944 1897 1890 1887 1910 1951 1990 1914 1877 1968 1918 1875 1975 1950 1954 1981 1985 2072 2050 2085 2076 2001 2030 2182 2062 2090 2145 2219 2198 2122 2286 2217 2263 2165 2311 2236 2272 2233 2133 2247 2314 2240 2280 2156 2241 2251 2199 2160 2247 2188 2174 2165 2199 2164 2256 2238 2106 2152 2152 2152 2128 2074 2089 2056 2136 2114 2066 2049 2001 2116 1986 2126 2082 2032 2051 2028 2015 2061 2071 1925 2032 1942 1957 1924 2038 2019 1994 1910 1955 1891 1928 1894 1919 2036 1927 1918 1975 1946 1911 1821 1934 1962 1933 1862 1886 1924 1901 1935 1891 1957 1855 1851 1862 1849 1918 1906 1932 1909 1853 1863 1940 1965 1882 1908 1936 1974 1901 1985 1946 1903 1863 1978 1981 1835 1999 1904 1886 1889 1848 1882 1833 1889 1827 1911 1853 1888 1846 1880 1894 1914 1893 1868 1827 1934 1853 1882 1852 1870 1881 1804 1931 1917 1849 1808 1864 2013 1926 1844 1878 1811 1896 1919 1892 1903 1921 1880 1930 1920 1932 1879 1870 1849 1870 1842 1929 1885 1896 1893 1905 1953 1957 1842 1896 1901 1991 1930 1805 1975 1927 1909 1867 1804 1935 1903 2004 1946 1947 1838 1954 1991 1921 1918 1947 1935 1981 1931 1946 1959 1925 1970 2003 2007 1942 1987 1927 1998 1967 1917 2114 1977 2020 2040 1916 2017 2086 1933 2082 1924 2032 1985 2020 1958 1961 2027 1921 1972 2033 1989 2018 2003 2035 1975 2001 1994 2058 1969 1973 2029 1985 2000 1997 1899 1990 1917 1974 2014 1889 1930 1984 1940 1916 2025 2023 1963 1973 1843 1923 1930 1930 1973 1893 2027 1960 1908 1913 1878 1969 2000 1791 1837 2003 1919 1929 1886 1894 1893 1870 1890 1896 1829 1899 2017 1847 1886 1902 1893 1898 1852 1840 1943 1888 1849 1930 2000 1783 1918 1937 1862 1928 1861 1860 1923 1919 1871 1845 1836 1917 1917 1883 1877 1843 1825 1929 1890 1842 1893 1869 1921 1889 1902 1889 1911 1877 1893 1782 1854 1866 1906 1919 1971 1906 1936 1916 1894 1845 1775 1872 1800 1914 1870 1839 1858 1879 1850 1850 1917 1878 1824 1895 1848 1818 1926 1873 2008 1909 2002 1901 1928 1861 1933 1856 1889 1879 1889 1852 1827 1814 1944 1916 1865 1800 1915 1906 1831 1929 1807 1870 1881 1826 1931 1857 1883 1866 1834 1818 1916 1901 1911 1821 1882 1813 1893 1949 1910 1848 1861 1898 1853 1858 1790 1868 1833 1918 1880 1912 1859 1864 1885 1941 1947 1916 1876 1889 1899 1818 1896 1850 1818 1824 1850 1926 1863 1877 1802 1858 1870 1817 1819 1856 1839 1955 1874 1912 1864 1899 1893 1882 1944 1852 1905 1938 1904 1825 1888 1890 1811 1804 1858 1848 1860 1846 1821 1868 1872 1869 1830 1770 1918 1860 1843 1891 1848 1852 1824 1880 1861 1829 1834 1881 1879 1826 1877 1885 1802 1890 1887 1952 1807 1915 1933 1891 1864 1898 1900 1829 1868 1921 1835 1801 1855 1810 1921 1871 1857 1854 1838 1820 1873 1820 1848 1880 1832 1898 1895 1827 1946 1856 1839 1812 1887 1848 1895 1824 1869 1850 1897 1940 1856 1879 1932 1820 1830 1946 1843 1883 1839 1925 1894 1788 1902 1937 1791 1946 1836 1818 1882 1903 1887 1818 1845 1894 1844 1879 1951 1864 1800 1872 1877 1890 1839 1856 1825 1899 2005 1767 1880 1881 1891 1883 1812 1954 1878 1810 1925 1864 1924 1820 1862 1851 1905 1867 1862 1841 1859 1812 1898 1884 1760 1852 1912 1891 1752 1801 1922 1870 1857 1948 1870 1947 1966 1856 1808 1905 1858 1943 1865 1867 1872 1880 1911 1880 1841 1842 1916 1922 1930 1954 1959 1880 1926 1896 1865 1904 1873 1844 1852 1862 1885 1902 1851 1898 1877 1904 1859 1806 1837 1802 1805 1846 1882 1853 1876 1832 1859 1854 1861 1962 1842 1820 1883 1877 1863 1871 1854 1873 1900 1810 1882 1804 1932 1865 1835 1851 1935 1870 1797 1880 1837 1915 1949 1939 1856 1859 2003 1895 1836 1853 1873 1775 1838 1813 1954 1943 1833 1867 1865 1888 1879 1980 1823 1894 1935 1836 1818 1846 1861 1845 1918 1894 1894 1964 1941 1845 1851 1897 1906 1884 1932 1824 1893 1834 1943 1882 1870 1822 1907 1870 1891 1933 1930 1995 1858 2049 1965 2011 1842 2015 1913 1982 1941 2015 1932 1944 1894 1888 1932 1956 1894 2027 1943 1832 1977 1885 1931 2042 1958 1985 2002 1937 1880 1952 1960 1984 1922 1980 1927 1945 1963 1876 1861 1904 1955 1925 1901 1959 1860 1983 1898 1871 1859 1887 1870 1869 1851 1929 1883 1958 1932 1868 1952 1882 1823 1903 1851 1900 1872 1883 1942 1848 1842 1885 1941 1870 1869 1908 1807 1856 1937 1845 1845 1921 1844 1851 1944 1812 1919 1847 1932 1872 1959 1940 1919 1885 1838 1834 1924 1869 1818 1878 1882 1840 1869 1847 1834 1843 1944 1813 1904 1866 1826 1836 1852 1892 1922 1969 1874 1925 1810 1831 1800 1911 1866 1939 1813 1836 1918 1865 1875 1897 1923 1818 1907 1805 1800 1894 1854 1883 1922 1794 1813 1930 1881 1904 1888 1785 1825 1867 1893 1883 1799 1870 1855 1957 1850 1802 1892 1917 1888 1800 1828 1906 1881 1779 1908 1882 1791 1816 1895 1948 1928 1805 1841 1840 1817 1923 1877 1873 1892 1879 1896 1872 1939 1850 1912 1923 1948 1845 1912 1851 1849 1820 1896 1892 1902 1847 1873 1955 1897 1887 1879 1802 1888 1917 1816 1861 1913 1828 1806 1876 1963 1917 1859 1859 1952 1893 1903 1858 1931 1844 1909 1869 1861 1889 1913 1892 1874 1897 1873 1915 1864 1948 1944 1787 1894 1880 1878 1935 1844 1848 1883 1887 1886 1912 1902 1832 1917 1869 1827 1882 1927 1873 1860 1923 1885 1855 1908 1803 1883 1850 1847 1896 1810 1938 1862 1889 1835 1957 1995 1926 1918 1994 1945 1866 1909 1953 1831 1943 1987 1945 1855 1970 1895 1886 1916 1967 1932 1907 1942 1915 1911 1949 1893 1943 1924 1981 1938 1963 1937 2009 1968 1866 2030 1959 1983 2002 1955 1991 1963 1926 2010 1982 2018 2029 2052 2017 2045 2072 2043 2022 2014 2001 2039 2058 1939 2052 1936 2040 2032 1965 1981 1989 2144 2072 2056 2057 1987 2026 1958 2047 1977 1995 2009 1990 2015 1991 1946 2052 2012 1988 2024 1924 1990 1948 1918 2019 1959 1924 1981 2006 1972 1959 1971 1944 2029 1919 1921 1926 1903 1918 1963 1836 1946 1872 1873 1903 1913 2031 1947 1935 1911 1891 1925 1841 1919 1986 1876 1916 1824 1844 1936 1951 1820 1920 1936 1862 1926 1875 1866 1857 1940 1836 1961 1973 1917 1923 1840 1897 1958 1836 1938 1896 1923 1903 1912 1922 1849 1911 1978 1911 1839 1924 1843 1967 1924 1823 1891 1920 1938 1972 1935 1858 1911 1888 1937 1975 1835 1888 1883 1893 1956 1923 1917 1874 1833 1949 1871 1903 1935 1885 1967 1905 1998 1877 1996 1951 1964 1928 1958 1901 1907 1863 1952 1941 1902 1824 1883 1848 1923 1891 1787 1950 1888 1793 1953 1830 1892 1893 1883 1858 1869 1847 1929 1907 1917 1910 1873 1910 1817 1890 1838 1860 2003 1886 1887 1892 1952 1878 1870 1910 1875 1856 1858 1964 1895 1909 1929 1959 1863 1870 1962 1945 1919 1877 1978 1930 1902 1783 1890 1900 1931 1892 1864 1817 1933 1948 1869 1985 1870 1946 1979 1860 1876 1885 1914 1917 1878 1913 1977 1912 1860 1917 1876 1868 1921 1869 1930 1896 1892 1788 1897 1797 1892 1843 1902 1917 1945 1909 1873 1911 1922 1915 1893 1907 1860 1873 1867 1891 1880 1939 1873 1858 1887 1950 1899 1912 1879 1955 1897 1966 1849 1911 1910 1878 1819 1900 1854 1952 1894 1937 1932 1913 1897 1992 1926 1892 1947 1912 1861 1893 1931 1927 1866 1832 1954 1906 1882 1972 1936 1977 1952 1885 1934 1905 1992 1913 1881 1970 1916 1907 1926 1929 1886 1962 1882 2013 1847 1900 1839 1862 1933 1887 1966 1856 1906 1826 1892 1835 1898 1922 1922 1881 1946 1897 1953 1950 1985 1853 1833 1841 1908 1897 1930 1900 1891 1876 1933 1839 1827 1946 1917 1883 1902 1948 1822 1878 1885 1906 1901 1892 1862 1889 1990 1970 1860 1985 1905 1885 1862 1998 1887 1862 1902 1890 1838 1883 1897 1860 1885 1828 1882 1921 1911 1893 1925 1922 1911 1939 1876 1893 1858 1955 1870 1895 1983 1920 1884 1928 1867 1870 1907 1879 1855 1948 1893 1936 1797 1889 1938 1831 1871 1924 1902 1914 1927 1941 1888 1934 1945 1934 1950 1921 1888 1950 1904 1965 1895 1869 1870 1828 1861 1896 1962 1872 1941 1929 1949 1906 1956 1856 1858 1931 1903 1858 1910 1858 1863 1908 1926 1937 1808 1831 1792 1947 1853 1880 1880 1910 1945 1916 1825 1823 1852 1884 1816 1834 1895 1873 1861 1879 1868 1922 1926 1919 1842 1891 1862 1871 1911 1868 1865 1912 1834 1860 1935 1923 1924 1855 1875 1936 1821 1914 1842 1875 1957 1847 1822 1900 1961 1930 1954 1916 1885 1917 1913 1889 1881 1860 1962 1851 1946 1890 1868 1953 1939 1874 1897 1888 1855 1962 1876 1991 1866 1963 1947 1875 1833 1962 1880 1921 1990 1935 1832 1941 1926 1884 1853 1889 1886 1898 1900 1930 1936 1908 1894 1909 1923 1876 1953 1882 1791 1865 1934 1906 1959 1967 1930 1908 1858 1912 1903 1923 1981 1901 1868 1899 1989 1876 1933 1847 2005 1874 1887 1823 1942 1882 1879 1928 1975 1943 1870 1881 1920 1948 1936 1933 1940 1929 1896 1920 1807 1933 1932 1879 1850 1886 1951 1882 1854 1913 1896 1896 1955 1882 1975 1818 1853 1957 1947 1888 1879 1949 1930 1886 1847 1883 1915 1972 1886 1985 1939 1902 1939 1858 1922 1985 1870 1919 1898 1930 1910 1852 1928 1861 1952 1942 1918 1951 1980 1932 1974 1922 2019 1872 1887 1927 1976 1901 1990 1902 1977 2029 2005 1979 1984 1966 2029 1938 1967 1876 1994 1857 1891 1952 1948 1890 1929 1952 1920 1947 1957 2036 1905 1863 1987 2023 1890 1942 1926 1963 1888 1976 1929 1898 1966 1978 1968 1942 1871 1920 1992 1974 1986 1964 2016 1977 2012 1969 2032 1980 1975 1909 1844 2046 1868 1941 1954 2033 1964 1951 2014 2019 1924 1930 2014 1938 1965 2016 1972 1975 1988 2015 1942 1987 1931 1954 1857 1996 1878 1985 1996 1994 2033 1967 1958 1929 1945 2096 2009 1999 1915 1965 2035 1932 2014 2016 1978 1955 1995 2049 1899 1998 2003 1976 2006 1976 1985 1962 1872 2133 1940 1934 1941 1952 1913 1948 2004 1869 1941 2055 1928 1894 2024 1987 2037 1955 1946 1985 1979 1913 1892 1855 1911 1841 2009 1979 2043 1942 1980 2014 1948 1931 2034 1907 1829 1891 2012 1932 1880 1907 1964 1890 1875 2021 1950 2009 1933 1903 1961 1974 1884 1870 1905 1962 1907 1870 1896 1909 1895 1940 1912 2009 1922 1937 1934 1951 1910 1914 2032 1957 1902 1864 1963 1867 1915 1940 1960 1881 1952 1765 1932 1884 1897 2022 1924 1912 1967 1996 1899 1968 1943 1958 1910 1894 1928 1875 1962 1956 1954 1868 1964 1960 1907 1935 1965 1891 1923 1968 1977 1970 1938 1962 1987 1933 1984 1901 1936 1978 1981 1922 1883 1994 1946 1992 1881 1899 1910 1935 1903 1982 1978 1955 1952 1921 1898 1955 2010 1925 1980 1936 1947 1891 1998 1943 1943 1968 1912 1981 1916 1978 1905 2015 2019 2001 1986 2021 1949 1921 2029 2046 1953 2006 2024 1956 1912 1984 1978 1965 1992 1982 2005 2065 2122 2085 2037 2016 2018 2049 2005 2112 2055 2097 2134 2011 2117 2043 2042 2087 2130 2145 2148 2179 2170 2135 2139 2138 2239 2120 2129 2127 2185 2207 2281 2169 2208 2221 2200 2127 2310 2209 2213 2195 2266 2158 2293 2224 2193 2252 2268 2232 2177 2200 2249 2174 2261 2209 2182 2174 2107 2130 2118 2212 2185 2096 2136 2131 2126 2121 2211 2124 2162 2214 2137 2098 2138 2135 2183 2099 2119 2136 2126 2085 2106 2024 2112 2124 2076 2036 2066 2062 2028 2078 1980 2092 2063 1999 2026 1964 1976 1985 2015 2056 2052 2010 1992 1985 2026 2018 2016 1992 1993 2048 1976 2058 2055 2082 2011 2028 1981 1991 2033 1994 2032 2079 1894 2023 1925 1931 1986 1925 2017 2017 1945 2000 1976 1960 1960 1990 1968 1936 1976 1934 2024 2020 2006 1937 2055 1938 1918 2001 1934 1979 2089 2040 2046 2055 1987 2043 2059 2010 2063 2051 1876 1962 1992 1932 1949 1941 1980 1933 2021 1963 2046 2008 1965 1980 1940 1976 1974 1997 2071 2089 1932 1988 1912 1973 2032 1965 1943 1951 1954 2013 1899 1957 1969 1982 1958 2014 1909 1933 1999 1962 1941 1960 1895 1974 2015 1981 1963 1941 2038 1960 2013 1959 1930 1983 1990 1960 1964 1912 1914 2066 2008 1993 1937 1933 2040 2034 2073 2016 1961 1973 1977 1946 2049 1959 1944 1922 1957 1925 1994 2003 1991 1941 1874 1887 1963 1953 1946 1903 1949 1864 1961 1949 1956 2022 1923 1999 1969 2003 1948 1994 2005 2038 2031 2073 1908 1986 1986 1956 1990 1970 2005 1913 1982 1946 2047 1865 1991 1916 1943 1993 1988 1951 1934 1968 1852 1905 1999 1955 1950 1966 1997 1952 1906 1916 1993 1970 1963 1887 1951 1983 1990 1955 1928 1958 1979 1938 1940 1938 2001 1899 1986 1929 2054 1995 1961 1993 1957 1982 1974 1918 1984 1914 1953 1952 1992 1902 1908 1937 1961 2014 1977 1943 1957 1968 2093 2059 1949 2003 1954 2002 1895 1922 1933 1999 1910 2051 2031 1958 2027 2021 1959 1908 1946 1996 2011 1987 2043 2010 2029 2014 1896 2003 2033 2050 1898 1953 2040 1960 1907 1979 1908 1994 1984 2025 2036 1949 1993 1978 1997 1975 1983 1960 1937 2031 1986 1926 2038 1973 1983 1983 1961 1998 1928 2012 1933 2062 2026 1985 1967 1951 2052 2039 1959 1930 1996 1891 1974 1920 1878 1955 1931 1961 1909 1882 1958 1965 1923 1889 1905 1990 1994 1980 1917 1991 1931 1916 1887 2001 2023 1970 1979 2013 1963 1975 1992 1941 1991 2021 1977 1948 1948 1931 1951 1952 1936 1838 1911 1889 1991 1980 1937 1948 1981 1903 1951 2014 1956 1967 1830 1988 1923 1913 1937 1965 1971 1999 1900 1946 1972 1955 1948 2015 1899 1958 1944 1924 1932 1982 1958 1939 1992 1945 1966 1957 1925 2016 1960 1917 2025 2058 1989 1846 2054 2114 1982 1953 1954 1948 1961 1962 1912 1993 2042 1896 1963 1935 1891 1947 1919 2037 1874 1934 1906 1929 1905 1926 2023 1947 1954 1934 2003 1945 1991 1988 1911 1879 2011 1882 1978 1958 1935 1898 1993 1931 2034 2002 1895 1972 1883 1968 1912 1968 1955 1973 1930 1926 1884 2004 2056 1959 1872 1955 1941 1979 1982 1866 1904 1937 1961 1946 1940 1981 1944 1994 1979 1959 1946 1923 2009 1983 1999 1943 1951 1896 1961 1976 1895 1985 1930 1966 2006 1956 1869 1989 1956 1954 1952 1916 1940 1951 1893 1938 1928 2023 1944 1990 1946 1906 1963 1911 1986 1926 1872 1951 1893 1935 1920 1932 1926 1933 2054 1932 1933 1909 1920 1987 2000 1921 1985 1917 1968 1981 2004 1953 1993 1846 1951 1976 1964 1940 1980 1956 1891 1932 1963 1937 1915 1877 1970 1919 2070 1901 1961 2023 1944 1953 1875 1981 1968 2040 1968 1972 1935 1945 2062 1952 1966 2031 1916 1937 1890 1938 1869 2010 1978 1962 1930 1919 2030 1992 2023 2072 1983 2047 1964 2010 2094 1980 2016 2009 2066 1990 1930 2015 1986 2002 1982 2065 1964 2013 2037 1961 2053 2029 1957 1978 1939 1927 1972 2033 2025 2024 2012 1955 1900 2021 1898 1968 1899 1990 2074 1978 2037 1993 1971 1955 1966 1984 2050 2025 1929 1963 1932 1933 1928 1987 1999 1952 1884 1943 1942 1917 1895 1961 1958 1950 1988 1994 2008 1968 2022 1933 1954 1981 1965 1983 1883 1911 1885 1859 1991 1972 1965 1916 1994 1977 1959 1933 1995 1985 1906 1929 1948 1894 1999 1972 1991 1914 2008 1955 1933 1963 1967 1964 2008 1966 1963 1978 1865 1948 1977 1968 1924 1917 1912 1961 1941 1998 1915 2007 1943 1993 1972 1961 1946 2043 1862 1913 1981 1890 1996 2002 1990 1963 1959 1953 1952 2079 1976 1979 1992 1982 1926 2039 2035 1941 2028 1962 1944 1921 2014 1975 1994 1890 1971 1908 1956 1993 1966 1974 1961 1895 1992 2014 1916 1908 1962 2041 1978 1986 1933 2010 1976 2083 1987 1993 1852 1994 1901 1984 1951 1979 1881 1947 1966 1921 1961 2042 1969 1929 1985 1895 1925 1916 1961 1952 1941 1938 1989 1965 1922 1951 1945 1918 1844 1875 1957 1960 1921 1960 1979 2035 1955 2023 1899 1910 1928 1996 1976 2006 1944 2010 1992 1994 1886 1968 1930 1930 2083 2009 2030 2053 1944 2034 2043 1916 2032 1976 1978 1874 2015 1943 1993 1996 2001 1949 1982 1951 2038 2043 1995 2091 1985 1977 1950 2007 1964 2031 1975 2018 2010 2051 2047 1988 2026 2056 1984 2040 2099 2123 2039 2158 2142 2143 2115 2194 2150 2192 2181 2135 2200 2156 2152 2104 2202 2223 2190 2130 2124 2140 2092 2199 2158 2137 2068 2114 2126 2111 2101 2104 2210 2186 2176 2248 2170 2180 2166 2156 2115 2267 2117 2156 2117 2169 2157 2237 2090 2141 2193 2125 2127 2126 2167 2121 2174 2133 2164 2197 2116 2149 2178 2102 2157 2257 2166 2185 2111 2081 2139 2106 2075 2078 2133 2076 2090 2085 2059 2149 2151 2118 2083 2153 2111 2101 2077 2072 2036 2004 2004 2014 2071 2073 2081 2151 2070 2029 2010 2106 2100 2002 1887 1997 1964 2050 2037 2025 2078 2105 1950 2005 1965 1955 2029 2066 1964 2090 2006 2004 2072 2006 1968 2005 2014 1999 1917 1991 1995 2012 1995 1986 2065 2070 1976 1932 2000 2013 2019 2062 1966 1946 2020 1940 2030 1994 1963 1971 1997 1974 2041 2008 2006 1899 2025 1965 2060 1950 2038 2044 1980 1935 1999 2019 1993 1991 1933 1941 1962 1958 2051 1989 1898 1961 1970 1955 1954 1902 2103 2002 1982 2009 1926 1918 1973 1985 1947 1936 1955 2015 2034 2024 2012 2035 2048 2023 2054 1948 1960 1933 2021 1986 2040 2065 2038 1998 2085 1980 2047 2050 2031 1966 1958 2057 1927 2032 1967 2019 2066 1972 1927 2024 1986 2020 1997 2012 1911 1964 1931 1972 2046 2020 1993 2004 1981 1970 1896 1980 1926 1990 1967 1939 1993 1999 2027 1990 1933 2008 1933 2005 2037 2024 1937 2083 1943 1953 1979 1979 1970 1989 2006 1970 1992 1973 2005 1995 1956 2100 1939 1998 2047 2059 1914 1936 1949 1929 1931 2026 1950 1974 1936 1920 1917 1982 2013 1961 1955 1913 1884 1934 1948 2021 1927 1958 2040 2028 1985 1929 1949 2046 1899 1999 1998 1992 1962 1987 1963 2028 1992 1928 2030 1995 1921 2010 2052 1990 2023 2031 1986 2009 2000 2024 1964 1969 2079 1928 1934 1997 2070 1956 1932 1988 1991 1954 2069 1975 1995 1970 2079 1958 2007 2038 2010 1950 1970 1887 1975 1957 1965 1967 1997 1954 1992 2009 2049 1934 2073 1977 1892 2059 1957 1967 1921 1913 2053 1906 2004 1982 1950 1953 1945 1977 2059 2010 2002 1994 1946 2063 2014 1904 1955 2012 2066 1996 1975 2002 1977 1990 1987 1942 1998 1915 1906 2036 1958 1972 1907 1957 1928 1936 1979 1915 1976 1908 1972 1909 2018 1950 1975 1977 1971 1941 2090 2036 1938 2020 1885 2024 1966 1914 1981 2004 2011 1969 2010 1911 1936 1975 1982 1982 2023 1987 1880 2022 2042 1969 2032 2038 2022 1929 2044 1913 1979 1922 1932 2041 1977 1962 2005 2044 1962 1921 1993 1918 1970 1982 2038 2015 2056 2000 1956 1977 2032 1956 1999 1984 1994 2057 1970 2091 2005 1896 1951 1958 2040 2022 1907 1925 2010 1959 1911 1981 1966 1948 1925 1984 1998 1952 1970 1914 2017 2031 2022 1920 1993 1945 1927 1970 1978 2040 1920 1953 1959 1972 1934 1972 1889 2064 2024 2031 2059 1938 1986 2019 1969 1936 2029 1961 1993 1980 1990 1980 2051 2035 2015 1935 1946 2002 1970 2036 2006 2087 1991 1929 1822 1983 1989 1964 1992 1979 1933 2053 1999 2014 1954 2038 1943 2027 2025 1965 1930 1965 1970 1940 2037 1866 1968 1994 1951 2025 1881 1955 1995 2005 1941 1854 1964 1971 2005 2008 1938 1934 1938 2066 1968 1940 2066 1987 1961 1979 2022 2004 1928 1965 2013 1883 2012 2019</counts>
			</dataPoints>
		</scan>
	</xrdMeasurement>
</xrdMeasurements>
