<?xml version="1.0"?>
<xrdMeasurements xmlns="http://www.xrdml.com/XRDMeasurement/2.3" xmlns:xsi="http://www.w3.org/2001/XMLSchema-instance" xsi:schemaLocation="http://www.xrdml.com/XRDMeasurement/2.3 http://www.xrdml.com/XRDMeasurement/2.3/XRDMeasurement.xsd" status="Completed" recordIdentifier="{F75866C1-DFA3-4EEE-A258-F394CD16B6DE}">
	<comment>
		<entry/>
	</comment>
	<sample type="To be analyzed">
		<id>GPSS_Li1p75Ni0p75Sc0p25Cl4_110825_690fcd71f040177efa2b8c50</id>
		<name></name>
		<preparedBy></preparedBy>
	</sample>
	<xrdMeasurement measurementType="Scan" status="Completed" sampleMode="Reflection">
		<usedWavelength intended="K-Alpha 1">
			<kAlpha1 unit="Angstrom">1.5405980</kAlpha1>
			<kAlpha2 unit="Angstrom">1.5444260</kAlpha2>
			<kBeta unit="Angstrom">1.3922500</kBeta>
			<ratioKAlpha2KAlpha1>0.5000</ratioKAlpha2KAlpha1>
		</usedWavelength>
		<incidentBeamPath>
			<radius unit="mm">145.00</radius>
			<xRayTube id="1010048" name="Empyrean Cu LFF HR (9430 033 7310x)">
				<tension unit="kV">40.0</tension>
				<current unit="mA">15.0</current>
				<anodeMaterial>Cu</anodeMaterial>
				<focus type="Line">
					<length unit="mm">12.0</length>
					<width unit="mm">0.4</width>
					<takeOffAngle unit="deg">6.0</takeOffAngle>
				</focus>
			</xRayTube>
			<sollerSlit id="21010002" name="Soller slits 0.04 rad.">
				<opening unit="rad">0.0400</opening>
			</sollerSlit>
			<mask id="22031000" name="Fixed mask 13 mm">
				<width unit="mm">9.00</width>
			</mask>
			<divergenceSlit id="22120001" name="Divergence slit 1°" xsi:type="fixedDivergenceSlitType">
				<distanceToSample unit="mm">50.00</distanceToSample>
				<height unit="mm">1.52</height>
			</divergenceSlit>
		</incidentBeamPath>
		<sampleMovement xsi:type="spinningSampleMovementType">
			<spinnerRevolutionTime unit="seconds">1.0</spinnerRevolutionTime>
		</sampleMovement>
		<diffractedBeamPath>
			<radius unit="mm">145.00</radius>
			<antiScatterSlit id="22090040" name="AS slit 9 mm (PIXcel)" xsi:type="fixedAntiScatterSlitType">
				<height unit="mm">9.00</height>
			</antiScatterSlit>
			<sollerSlit id="21020003" name="Large Soller slits 0.04 rad.">
				<opening unit="rad">0.0400</opening>
			</sollerSlit>
			<filter id="20030001" name="Large beta-filter Nickel">
				<material>Ni</material>
				<thickness unit="mm">0.020</thickness>
			</filter>
			<detector id="7010019" name="PIXcel1D-Medipix3 detector" xsi:type="rtmsDetectorType">
				<phd unit="keV">
					<lowerLevel>4.02</lowerLevel>
					<upperLevel>11.27</upperLevel>
				</phd>
				<mode>Scanning</mode>
				<activeLength unit="deg">5.542</activeLength>
			</detector>
		</diffractedBeamPath>
		<scan appendNumber="0" mode="Continuous" scanAxis="Gonio" status="Completed">
			<header>
				<startTimeStamp>2025-11-11T15:41:18-08:00</startTimeStamp>
				<endTimeStamp>2025-11-11T15:49:26-08:00</endTimeStamp>
				<author>
					<name>AutomatedUser</name>
				</author>
				<source>
					<applicationSoftware version="1.7b (136)">PANalytical Aeris Instrument Suite</applicationSoftware>
					<instrumentControlSoftware version="3.2.00000000 20240306">AERIS</instrumentControlSoftware>
					<instrumentID>950485</instrumentID>
				</source>
			</header>
			<dataPoints>
				<positions axis="2Theta" unit="deg">
					<startPosition>10.00943322</startPosition>
					<endPosition>99.99442286</endPosition>
				</positions>
				<positions axis="Omega" unit="deg">
					<startPosition>5.00471661</startPosition>
					<endPosition>49.99721143</endPosition>
				</positions>
				<commonCountingTime unit="seconds">12.495</commonCountingTime>
				<counts unit="counts">3209 3112 3180 3220 3287 3310 3213 3252 3233 3209 3255 3232 3215 3249 3119 3150 3266 3285 3415 3373 3307 3331 3381 3406 3404 3371 3385 3484 3420 3468 3446 3380 3408 3315 3540 3519 3522 3520 3478 3545 3579 3667 3670 3647 3739 3692 3752 3697 3726 3828 3720 3865 3793 3824 3963 3893 3962 3999 3953 3958 3957 4016 3934 3873 3997 3920 3954 3835 3767 3909 3947 3990 3928 3939 3974 3951 4039 3906 3922 3929 3838 3745 3871 3877 3831 3675 3865 3766 3772 3622 3726 3624 3682 3657 3544 3609 3531 3527 3533 3449 3538 3481 3463 3470 3416 3324 3417 3378 3346 3330 3347 3283 3368 3374 3336 3503 3295 3381 3270 3296 3243 3364 3237 3252 3322 3354 3332 3219 3210 3282 3182 3260 3181 3258 3237 3191 3218 3233 3318 3262 3264 3279 3259 3237 3223 3172 3171 3276 3218 3306 3327 3277 3269 3309 3212 3254 3217 3225 3173 3272 3222 3196 3161 3256 3291 3284 3255 3212 3237 3203 3282 3077 3270 3206 3167 3188 3211 3153 3182 3296 3331 3195 3238 3293 3275 3160 3275 3232 3206 3251 3223 3226 3337 3211 3218 3164 3193 3334 3240 3249 3179 3188 3220 3227 3122 3231 3182 3112 3228 3160 3147 3213 3138 3182 3246 3192 3173 3251 3157 3011 3174 3193 3240 3282 3217 3169 3245 3134 3250 3171 3192 3234 3127 3176 3150 3059 3177 3261 3134 3149 3348 3147 3145 3222 3220 3088 3150 3093 3160 3196 3138 3171 3126 3164 3211 3304 3179 3259 3098 3099 3224 3176 3202 3272 3200 3200 3178 3142 3221 3208 3206 3267 3161 3221 3188 3216 3233 3229 3291 3181 3157 3214 3216 3229 3208 3199 3171 3206 3301 3230 3156 3284 3233 3224 3273 3262 3379 3286 3352 3237 3205 3243 3220 3273 3277 3328 3238 3299 3188 3283 3255 3351 3319 3340 3317 3175 3368 3232 3470 3414 3362 3312 3337 3326 3348 3292 3421 3370 3411 3354 3462 3419 3425 3386 3546 3305 3493 3526 3480 3482 3513 3392 3533 3504 3555 3474 3430 3396 3514 3525 3462 3457 3468 3482 3497 3484 3608 3597 3641 3512 3585 3494 3532 3559 3584 3632 3495 3617 3631 3686 3653 3601 3564 3689 3659 3662 3700 3706 3637 3652 3799 3751 3666 3549 3575 3658 3724 3746 3780 3770 3704 3691 3720 3764 3756 3797 3665 3844 3659 3800 3665 3770 3869 3785 3895 3816 3817 3839 3974 3883 3909 3936 3932 4020 4037 3948 3978 3985 4047 4061 4089 4212 4083 4079 4209 4192 4279 4334 4341 4390 4444 4649 4823 4888 5003 5056 5265 5307 5601 5704 5707 5896 5830 5721 5738 5701 5560 5572 5258 5317 5341 5221 5389 5278 5440 5191 5446 5427 5456 5623 5724 5849 5808 6266 6265 6347 6426 6624 6902 6961 7194 7387 7710 8004 8331 8427 8912 9102 9390 9583 9293 9255 8814 8762 8374 8164 7859 7588 7586 7297 7382 7427 7395 7622 7710 7759 8033 8208 8301 8575 8718 8861 8912 8989 8472 8578 8518 8271 7909 7795 7361 7084 6769 6548 6558 5998 5861 5948 5588 5481 5386 5129 5028 4961 4795 4738 4667 4384 4383 4325 4324 4253 4196 4072 4224 4098 4002 3928 4036 3819 3879 3719 3720 3729 3717 3742 3641 3587 3660 3715 3599 3915 3503 3665 3580 3573 3573 3437 3659 3413 3532 3599 3482 3342 3432 3592 3430 3466 3397 3465 3394 3423 3492 3436 3466 3521 3388 3490 3455 3506 3475 3376 3426 3553 3424 3464 3468 3412 3501 3323 3372 3458 3457 3354 3426 3399 3343 3471 3379 3313 3324 3382 3424 3347 3333 3395 3437 3414 3326 3428 3450 3396 3305 3375 3372 3352 3309 3386 3416 3366 3391 3306 3332 3443 3387 3265 3302 3410 3305 3322 3437 3339 3347 3241 3370 3350 3313 3493 3272 3484 3506 3525 3485 3486 3465 3433 3528 3588 3621 3600 3745 3732 3660 3633 3787 3682 3768 3777 3781 3805 3653 3664 3633 3641 3633 3572 3535 3564 3560 3551 3465 3478 3422 3562 3518 3494 3494 3512 3332 3573 3542 3471 3518 3492 3405 3328 3368 3521 3337 3334 3424 3275 3482 3300 3358 3302 3300 3213 3314 3325 3185 3382 3132 3236 3286 3327 3279 3325 3246 3398 3270 3233 3224 3191 3319 3148 3265 3252 3213 3285 3345 3317 3243 3202 3253 3248 3245 3268 3275 3254 3331 3295 3384 3212 3170 3208 3171 3209 3130 3176 3172 3236 3186 3219 3280 3136 3193 3327 3154 3255 3147 3230 3236 3088 3216 3165 3227 3116 3148 3193 3090 3034 3186 3282 3187 3085 3169 3094 3214 3165 3132 3119 3214 3082 3116 3195 3153 3129 3172 3131 3069 3131 3122 3166 3091 3036 3225 3203 3250 3225 3132 3204 3083 3046 3170 3112 3206 3167 3124 3141 3088 3153 3071 3063 3138 3066 3142 3082 3213 3057 3158 3152 3125 3133 3157 3244 3149 3074 3074 3125 3164 3093 3124 3095 3167 3140 3060 3211 3102 3199 3115 3075 3101 3146 3044 3155 3059 3071 2995 3075 3121 3174 3018 3038 3192 3021 3132 3064 3129 2979 3005 3058 2958 3128 3010 3123 2976 3013 2946 3044 3086 3050 3050 3067 3002 3037 3200 3042 3137 3099 3052 2971 2954 2947 2962 3048 3009 2999 3040 2994 3051 2993 2950 2971 3017 3125 2943 2914 3065 2949 3044 3083 3109 2997 3076 2984 3012 3011 2988 2961 2997 2925 2971 2982 3100 2966 3020 3033 3022 2974 2995 3018 2949 3009 2975 3034 3022 2895 2998 2925 2928 2948 2973 2976 2950 3017 2931 2945 2885 2894 2852 2865 2896 2886 2847 2873 2939 2897 2971 2842 3036 2945 2993 2927 2888 2981 2917 2935 2904 2937 2947 2848 2899 2865 2927 2933 2973 2832 2955 2962 2864 2940 2975 2840 2833 2857 2920 2934 2876 2829 2947 2885 2862 2893 2842 2868 2877 2944 2897 2868 2890 2920 2938 2763 2790 2764 2866 2847 2928 2776 2844 2928 2887 2885 2903 2958 2960 2959 2963 2768 2923 2985 2961 2852 2884 2878 3027 2879 2919 2797 2942 2874 2985 2898 2924 2866 2877 2838 2868 2883 2857 2855 2943 2931 2956 3018 3005 2918 2836 2938 3008 2995 2820 2991 2845 3011 2913 2881 2917 2886 2846 2873 2848 2945 2971 2901 2832 3091 2932 2981 2940 2788 2925 2980 2920 2951 2938 2845 2923 2938 2960 2906 2892 2921 2966 2954 2877 2910 2879 2988 2926 2812 2915 2979 2874 2898 2899 2862 2948 2834 2961 2965 2878 3042 2929 2943 2911 2860 2970 2911 2829 2907 2920 2891 2920 2849 2965 2841 2868 2877 2858 2940 2878 2860 2877 2894 2868 2971 2862 2953 2975 2836 2812 2840 2854 2660 2836 2787 2853 2861 2941 2887 2857 2775 2906 2945 2834 2786 2860 2747 2925 2895 2853 2782 2797 2853 2746 2867 2790 2756 2805 2759 2707 2704 2827 2749 2756 2824 2782 2751 2777 2715 2771 2736 2759 2683 2752 2742 2769 2765 2885 2686 2767 2849 2789 2697 2704 2745 2792 2876 2621 2689 2710 2652 2677 2601 2670 2696 2668 2756 2712 2671 2724 2643 2634 2658 2638 2661 2707 2655 2629 2574 2589 2809 2589 2670 2690 2582 2611 2570 2617 2599 2572 2587 2536 2603 2602 2536 2586 2568 2474 2568 2563 2504 2599 2553 2541 2416 2481 2551 2439 2583 2506 2520 2483 2515 2582 2487 2517 2442 2469 2528 2462 2440 2544 2422 2424 2448 2468 2381 2433 2353 2417 2496 2407 2417 2494 2326 2382 2460 2445 2470 2431 2312 2469 2476 2454 2396 2347 2374 2344 2395 2340 2469 2385 2405 2400 2279 2303 2353 2337 2394 2363 2417 2284 2339 2365 2422 2343 2374 2369 2261 2318 2386 2334 2370 2448 2334 2386 2427 2235 2373 2371 2302 2306 2311 2331 2462 2296 2365 2273 2380 2327 2329 2305 2382 2286 2351 2424 2376 2359 2383 2476 2494 2498 2521 2548 2620 2655 2643 2622 2587 2583 2662 2633 2631 2676 2627 2559 2489 2566 2555 2485 2510 2518 2479 2373 2491 2395 2426 2338 2455 2493 2509 2503 2383 2473 2394 2525 2456 2416 2330 2415 2368 2399 2385 2406 2379 2446 2342 2448 2383 2358 2338 2376 2390 2291 2423 2324 2348 2382 2320 2248 2288 2358 2303 2261 2335 2262 2226 2285 2367 2308 2283 2305 2426 2286 2298 2379 2338 2309 2361 2334 2352 2297 2352 2309 2317 2285 2257 2227 2336 2332 2278 2246 2339 2225 2221 2300 2301 2265 2322 2340 2272 2302 2292 2333 2203 2302 2316 2283 2187 2333 2256 2308 2203 2271 2274 2304 2264 2377 2298 2288 2278 2290 2286 2313 2358 2315 2300 2327 2318 2268 2243 2238 2275 2277 2357 2197 2340 2263 2289 2190 2354 2380 2206 2368 2335 2276 2299 2132 2263 2261 2308 2333 2237 2288 2288 2259 2199 2280 2284 2257 2285 2140 2261 2325 2232 2136 2234 2156 2211 2222 2148 2252 2280 2171 2301 2209 2173 2239 2210 2210 2235 2181 2202 2245 2207 2181 2162 2129 2208 2263 2122 2191 2109 2212 2210 2138 2163 2302 2277 2183 2229 2330 2164 2219 2089 2281 2247 2141 2111 2228 2072 2099 2133 2218 2149 2192 2148 2162 2128 2222 2221 2047 2136 2120 2169 2175 2148 2177 2104 2157 2201 2030 2181 2096 2073 2114 1996 2093 2056 2056 2044 2176 2181 2140 2058 2112 2051 2067 2086 2102 2028 2114 2084 2002 2143 2064 2144 2113 1992 2116 2005 1981 2073 2048 1994 2090 2008 2034 2115 2130 2049 1975 1989 2049 2050 1928 1973 1994 1979 2083 2016 2027 2003 1978 2050 2013 1991 1995 1981 1943 2018 1878 1971 1846 1958 1861 2040 1962 1930 2000 1938 1892 1952 1951 1988 1957 1900 1904 1934 1982 1998 1962 1971 1910 1995 1929 1966 1786 1911 1868 1918 1936 1898 1882 1884 1895 1883 1929 1849 1852 1848 1820 1849 1954 1843 1834 1899 1917 1848 1888 1940 1871 1821 1861 1830 1864 1819 1904 1801 1799 1761 1787 1800 1881 1793 1850 1847 1851 1868 1954 1773 1840 1867 1820 1864 1849 1771 1804 1826 1852 1762 1790 1732 1834 1808 1842 1813 1833 1929 1806 1764 1836 1837 1845 1792 1893 1868 1945 1839 1850 1913 1920 1947 1901 1843 1976 2003 2135 2158 2194 2165 2248 2287 2283 2269 2213 2494 2366 2296 2175 2210 2110 2297 2155 2180 2090 2007 2055 1970 1912 1967 1894 2005 1892 1948 1955 1939 1876 1864 1954 1873 1940 1848 1816 1957 1881 1933 1796 1870 1810 1828 1909 1768 1886 1806 1816 1800 1822 1804 1760 1679 1823 1800 1779 1760 1762 1850 1778 1747 1773 1736 1686 1806 1655 1690 1802 1764 1677 1744 1818 1766 1682 1800 1728 1729 1751 1847 1701 1765 1731 1826 1757 1761 1824 1831 1798 1845 1791 1827 1905 1839 1852 1909 1825 1846 1920 1827 1818 1937 1942 1994 1954 1929 2010 1972 2137 2023 2118 2207 2246 2388 2536 2641 2585 2857 3041 3342 3525 3818 4125 4452 4632 4815 5173 5454 5453 5444 5511 5383 5264 5215 4955 4846 4619 4212 4139 3846 3607 3542 3364 3176 3157 3069 3190 3091 3000 3058 3074 3027 3110 3069 2905 2848 2810 2663 2761 2702 2599 2557 2521 2448 2353 2366 2191 2209 2172 2114 2125 1958 1947 1927 1993 1917 1826 1858 1871 1784 1775 1852 1770 1798 1825 1770 1829 1780 1736 1700 1782 1799 1729 1722 1745 1748 1739 1714 1724 1757 1736 1792 1741 1759 1866 1714 1754 1713 1759 1712 1737 1767 1763 1617 1722 1625 1654 1686 1709 1696 1698 1703 1621 1719 1741 1725 1666 1794 1640 1809 1718 1716 1632 1769 1670 1689 1774 1646 1696 1695 1714 1683 1798 1731 1841 1786 1716 1795 1781 1719 1780 1856 1745 1839 1907 1777 1821 1826 1848 1789 1779 1823 1858 1863 1853 1845 1780 1828 1888 1739 1834 1776 1830 1844 1731 1747 1700 1725 1795 1716 1787 1740 1655 1690 1639 1738 1654 1649 1695 1596 1671 1702 1653 1713 1826 1684 1616 1666 1668 1604 1654 1657 1581 1658 1659 1572 1620 1582 1572 1608 1573 1649 1538 1578 1606 1548 1551 1567 1490 1597 1573 1591 1592 1646 1592 1528 1630 1479 1599 1490 1649 1668 1525 1563 1562 1567 1613 1605 1543 1676 1594 1611 1638 1657 1714 1651 1641 1625 1619 1640 1653 1709 1658 1683 1634 1679 1714 1633 1702 1626 1691 1660 1720 1724 1802 1839 1776 1776 1855 1719 1750 1768 1821 1779 1856 1832 1870 1840 1746 1761 1881 1866 1813 1768 1799 1734 1790 1811 1786 1782 1787 1762 1793 1797 1654 1661 1721 1680 1715 1668 1714 1720 1696 1670 1719 1672 1635 1691 1678 1673 1694 1651 1727 1638 1672 1633 1681 1635 1695 1583 1664 1671 1608 1714 1628 1662 1638 1554 1659 1670 1602 1703 1665 1621 1704 1707 1629 1693 1619 1665 1625 1695 1653 1752 1661 1562 1681 1512 1690 1567 1594 1608 1640 1673 1584 1609 1711 1614 1621 1654 1659 1665 1659 1666 1667 1689 1748 1657 1645 1742 1639 1652 1712 1693 1682 1653 1741 1671 1698 1733 1579 1677 1633 1663 1637 1738 1700 1675 1665 1644 1655 1698 1740 1674 1721 1683 1720 1720 1750 1653 1705 1728 1691 1618 1747 1740 1599 1660 1685 1690 1659 1672 1694 1657 1699 1717 1695 1577 1609 1818 1695 1723 1712 1729 1680 1664 1742 1748 1719 1713 1677 1735 1727 1698 1725 1687 1723 1793 1833 1785 1838 1775 1882 1819 1916 1846 1977 1994 2020 2089 2157 2235 2228 2395 2486 2682 2807 3046 3334 3552 3744 4043 4444 4731 5224 5487 5949 6308 6332 6595 6909 7112 6973 7076 6937 6925 6623 6498 6004 5842 5451 5246 4879 4649 4389 4387 4081 3939 3744 3664 3597 3444 3348 3371 3247 3166 3239 3001 3073 2962 2905 2774 2799 2704 2645 2488 2426 2436 2268 2174 2104 2078 2034 2047 1992 1957 1884 1869 1832 1797 1702 1708 1704 1706 1696 1608 1633 1655 1615 1654 1566 1687 1641 1565 1598 1524 1605 1575 1545 1533 1481 1558 1607 1601 1530 1609 1546 1499 1547 1527 1551 1564 1564 1523 1513 1617 1535 1555 1489 1539 1587 1631 1554 1501 1507 1592 1573 1525 1500 1618 1606 1631 1676 1603 1623 1563 1601 1670 1573 1659 1722 1625 1719 1719 1797 1707 1768 1731 1880 1877 1789 1859 1870 1942 2008 1952 1950 2069 2002 2094 2079 2165 2081 2119 2029 2080 2064 1959 2021 2016 1972 1876 1888 1896 1907 1939 1834 1788 1766 1689 1773 1683 1723 1735 1726 1656 1668 1695 1631 1639 1595 1666 1628 1619 1630 1626 1609 1567 1601 1513 1543 1502 1541 1482 1530 1529 1376 1485 1429 1423 1489 1515 1490 1560 1493 1389 1535 1423 1471 1566 1488 1445 1507 1450 1504 1499 1387 1448 1498 1424 1426 1384 1481 1485 1464 1465 1409 1403 1464 1431 1495 1452 1469 1405 1448 1502 1505 1453 1356 1425 1374 1449 1410 1419 1453 1367 1458 1374 1442 1439 1372 1432 1414 1461 1365 1403 1464 1431 1394 1392 1428 1380 1439 1425 1475 1308 1408 1418 1391 1386 1373 1441 1401 1428 1444 1440 1422 1467 1391 1403 1480 1409 1314 1405 1328 1396 1438 1390 1490 1354 1376 1333 1369 1488 1423 1335 1395 1410 1307 1380 1375 1404 1407 1365 1351 1356 1453 1393 1356 1428 1397 1475 1384 1423 1349 1423 1399 1429 1431 1409 1435 1424 1386 1387 1357 1453 1410 1428 1404 1430 1348 1400 1474 1356 1389 1381 1404 1319 1362 1380 1367 1352 1335 1347 1326 1366 1316 1365 1403 1329 1345 1397 1370 1382 1320 1333 1405 1363 1293 1343 1289 1288 1378 1348 1353 1376 1321 1433 1339 1247 1323 1367 1389 1337 1326 1325 1303 1339 1349 1301 1337 1279 1332 1286 1298 1341 1308 1322 1324 1358 1355 1327 1319 1298 1232 1279 1336 1271 1318 1328 1379 1269 1307 1292 1373 1389 1369 1392 1401 1340 1326 1377 1372 1379 1365 1416 1386 1409 1406 1414 1406 1375 1438 1388 1417 1346 1372 1391 1356 1303 1365 1409 1221 1320 1340 1317 1343 1245 1331 1271 1295 1273 1345 1329 1288 1285 1344 1269 1321 1282 1331 1286 1297 1258 1276 1292 1236 1331 1334 1307 1259 1205 1229 1257 1276 1221 1292 1282 1293 1285 1243 1261 1230 1212 1307 1188 1249 1245 1257 1193 1198 1270 1258 1257 1295 1258 1207 1220 1280 1226 1253 1162 1240 1241 1226 1240 1214 1225 1203 1143 1204 1183 1168 1136 1188 1122 1150 1163 1222 1161 1183 1178 1173 1164 1161 1167 1187 1160 1134 1188 1207 1217 1215 1196 1252 1265 1169 1194 1227 1173 1191 1176 1191 1247 1144 1186 1204 1190 1202 1197 1197 1212 1230 1175 1170 1187 1213 1101 1165 1200 1203 1145 1125 1175 1132 1177 1225 1201 1189 1189 1172 1169 1215 1228 1224 1188 1201 1136 1211 1165 1179 1174 1204 1180 1180 1188 1175 1229 1177 1226 1134 1178 1203 1176 1141 1162 1187 1133 1139 1188 1151 1192 1175 1176 1101 1149 1175 1195 1192 1134 1220 1231 1215 1124 1175 1145 1205 1167 1198 1184 1141 1165 1205 1155 1255 1135 1153 1129 1255 1168 1140 1162 1143 1177 1168 1215 1235 1181 1181 1137 1163 1135 1197 1225 1105 1122 1159 1193 1157 1166 1143 1133 1140 1157 1144 1149 1163 1155 1050 1139 1090 1145 1128 1183 1145 1087 1153 1096 1121 1199 1163 1096 1129 1093 1147 1129 1150 1097 1147 1127 1179 1098 1169 1148 1136 1163 1144 1120 1143 1148 1133 1152 1106 1139 1053 1187 1124 1070 1125 1120 1181 1109 1140 1147 1152 1118 1104 1086 1174 1141 1150 1151 1182 1162 1147 1083 1111 1105 1138 1068 1149 1096 1124 1127 1180 1150 1157 1132 1132 1175 1124 1162 1149 1062 1135 1090 1085 1115 1123 1080 1139 1101 1106 1152 1085 1197 1115 1178 1116 1195 1152 1161 1095 1123 1090 1157 1145 1170 1128 1092 1078 1124 1136 1073 1104 1125 1103 1140 1111 1078 1179 1075 1110 1099 1132 1143 1163 1126 1178 1159 1197 1161 1158 1177 1217 1159 1177 1191 1208 1200 1193 1201 1202 1145 1216 1167 1128 1198 1195 1164 1165 1181 1186 1186 1210 1200 1163 1165 1140 1109 1123 1177 1103 1204 1101 1186 1111 1106 1234 1154 1171 1078 1139 1107 1098 1127 1100 1071 1138 1101 1124 1120 1095 1126 1143 1084 1138 1020 1080 1075 1065 1115 1151 1055 1038 1086 1082 1157 1077 1110 1114 1046 1112 1080 1135 1105 1101 1108 1133 1088 1065 1049 1056 1109 1100 1121 1033 1151 1028 1095 1065 1049 1079 1103 1053 1021 1081 1213 1100 1066 1108 1091 1124 1056 1098 1086 1105 1126 1159 1095 1094 1098 1133 1105 1030 1096 1051 1076 1116 1093 1093 1125 1119 1076 1119 1065 1080 1170 973 1085 1130 1084 1086 1092 1071 1063 1079 1079 1002 1040 1020 1072 1013 1059 1017 1060 1042 1108 1123 1108 1111 1069 1090 1008 1084 1125 997 1036 1147 1027 1083 1067 1103 1076 1085 1022 1043 1085 1034 1125 1014 1080 1114 1123 1055 1067 1048 1032 1080 1024 1041 1043 1127 1039 1026 1091 1022 1101 1101 1105 1052 1081 1013 1036 1049 1118 1068 1086 1098 1057 1084 1128 1108 1104 1121 1079 1075 1055 1063 1033 1074 1030 1031 1107 1122 1055 1018 1051 1018 1069 1048 1051 1104 1043 1087 1132 1114 1011 1104 1062 1102 1123 1157 1046 1038 1107 1094 1128 1060 1092 1121 1125 1156 1122 1131 1229 1210 1171 1253 1276 1288 1387 1359 1354 1374 1423 1508 1401 1425 1454 1482 1439 1466 1456 1395 1430 1547 1455 1388 1422 1394 1334 1367 1329 1323 1352 1296 1196 1280 1237 1231 1247 1242 1228 1216 1254 1223 1179 1183 1238 1124 1119 1135 1114 1070 1134 1108 1084 1113 1150 1083 1042 1108 1065 1006 1199 1079 1068 1024 1081 1041 1086 1077 1099 1113 1076 1068 1104 1086 1048 1080 1035 1067 1057 1022 1081 1052 1088 1075 1126 1077 1066 1061 1032 1123 991 1119 1050 1043 1085 1049 1045 1079 1069 1100 1085 1075 1068 1027 1047 1079 1113 1059 1044 1048 1107 1037 1052 1036 1063 1093 1035 1103 1066 1124 1061 1136 1116 1071 1126 1059 1060 1088 1047 1151 1118 1137 1118 1067 1086 1159 1124 1105 1076 1147 1085 1124 1230 1100 1098 1078 1162 1099 1105 1104 1180 1134 1089 1169 1092 1127 1191 1085 1077 1133 1150 1103 1161 1136 1174 1189 1208 1176 1137 1111 1179 1120 1106 1112 1032 1137 1087 1120 1052 1115 1095 1144 1145 1124 1072 1089 1093 1091 1049 1184 1089 1102 1100 1071 1097 1078 1103 1084 1131 1115 1064 1057 1127 1069 1059 1042 1091 1038 1066 1090 1046 981 1106 1069 1071 1175 1067 995 1077 1028 1127 1126 1081 1116 1110 1061 1093 1005 1059 1068 1065 1057 1024 1103 1139 996 1097 1041 1090 1048 1070 1084 1099 1052 1052 1094 1071 1011 1093 1106 1082 1076 1125 1057 1093 1065 1110 1060 1108 1047 1120 1006 1086 1043 1091 1109 1123 1102 1107 1090 1074 1124 1053 1128 1084 1132 1048 1114 1063 1023 1119 1087 1073 1080 1136 1088 1096 1151 1130 1113 1117 1045 1146 1163 1059 1092 1066 1165 1104 1066 1071 1125 1110 1116 1091 1093 1101 1098 1052 1079 1071 1075 1043 1059 1027 1043 1058 1026 1061 1058 1029 1076 1055 1111 1009 1116 1054 1082 1092 1086 1084 1071 1087 998 1034 1062 1022 1080 1054 1073 1068 1062 1124 1047 1083 1138 1043 1055 1049 1029 1092 1133 1078 1095 1044 1073 1071 1042 1147 1066 1070 1087 1033 1040 1072 1025 1077 1038 1105 1079 1085 1076 1083 1086 1165 1062 1120 1119 1129 1110 1155 1124 1060 1117 1147 1145 1148 1235 1180 1221 1223 1164 1219 1358 1311 1380 1415 1396 1422 1575 1665 1723 1757 1885 2001 2128 2131 2357 2253 2431 2509 2609 2424 2536 2592 2587 2572 2523 2551 2521 2513 2462 2420 2330 2313 2158 2157 2054 2132 2079 1982 1911 1863 1861 1774 1766 1643 1707 1565 1577 1559 1513 1541 1469 1342 1507 1385 1418 1314 1344 1276 1289 1171 1242 1170 1235 1159 1123 1144 1149 1063 1131 1081 1109 1093 1104 1105 1078 1052 1062 1079 1108 1070 1033 1005 1077 1064 1021 1084 995 1009 994 1026 1019 995 1010 998 987 1027 1027 1017 993 1088 1007 1044 974 1055 1014 1043 1006 1090 977 1030 1064 964 1016 987 987 1020 1035 988 1023 1051 1077 1056 1024 1001 968 1035 1000 997 1036 994 1042 1042 964 981 1023 991 955 1004 1019 1035 1034 976 936 972 961 995 1031 1010 979 947 1005 962 951 1022 989 998 1023 1046 988 1001 971 974 981 1012 974 1016 969 979 1058 1016 979 1105 1011 965 974 1029 1062 1078 1053 1120 1086 1084 1130 1111 1151 1120 1115 1076 1102 1128 1092 1134 1120 1133 1097 1128 1111 1087 1111 1090 1074 1085 1098 1072 1098 1055 1093 1101 1089 1116 1046 1068 1108 1093 1070 1042 957 1074 1068 1074 1051 1076 1082 1097 1084 1089 1087 1123 1144 1111 1176 1088 1184 1233 1212 1331 1337 1392 1468 1473 1610 1704 1743 1768 1834 1858 1807 1859 1815 1767 1800 1731 1773 1649 1665 1681 1663 1747 1587 1632 1550 1489 1478 1502 1482 1424 1385 1387 1332 1283 1263 1312 1252 1354 1226 1212 1175 1226 1172 1123 1128 1214 1042 1113 1103 1063 1141 1062 1082 999 1044 1036 1040 996 992 955 971 978 1000 969 941 947 962 978 904 1041 950 1014 1001 1000 1002 992 949 1010 952 964 980 991 1015 960 958 932 982 1048 993 977 1000 947 983 972 990 992 984 975 953 967 909 942 975 916 984 951 954 933 974 927 929 927 978 953 910 947 910 920 952 951 919 915 926 940 927 918 992 941 980 868 931 886 878 922 860 929 870 901 924 872 980 904 926 940 871 948 861 964 939 955 947 906 938 909 931 1005 913 910 925 876 967 932 858 919 961 864 941 907 907 893 918 985 888 879 891 903 913 913 885 922 919 889 898 914 972 958 904 888 872 894 914 911 892 954 957 913 881 925 899 959 906 946 891 980 862 959 957 945 951 844 930 942 912 953 947 940 930 865 973 943 964 958 915 978 1022 959 959 951 957 1005 1049 1000 1030 1037 1099 1076 1139 1154 1188 1108 1121 1159 1122 1155 1174 1093 1084 1149 1136 1146 1128 1137 1118 1131 1072 1094 1157 1079 1108 1051 1084 1006 1039 1101 1067 1009 1026 960 985 997 960 970 959 947 967 901 910 969 966 975 944 957 956 989 887 940 866 904 953 924 908 915 818 874 875 890 909 950 878 907 928 904 864 846 890 860 913 841 892 867 920 870 862 896 900 896 862 852 866 902 800 881 870 906 851 874 838 855 885 923 852 903 886 863 912 891 872 850 849 844 867 853 863 860 891 884 878 835 892 872 875 862 862 907 862 865 845 863 911 856 942 878 846 819 935 865 904 821 927 905 968 874 901 898 919 932 897 925 916 977 893 923 879 924 930 857 869 887 880 825 894 907 919 883 889 885 859 865 892 883 893 886 873 892 801 901 847 858 848 916 855 849 858 846 870 861 890 837 860 886 890 850 888 895 868 849 845 806 881 833 824 817 892 821 848 921 877 812 859 839 927 894 864 870 812 796 804 881 843 842 856 865 856 892 847 906 802 822 837 882 906 876 867 890 869 888 860 860 828 847 835 882 895 809 867 823 800 886 845 851 871 882 834 858 877 830 844 832 847 852 863 841 886 878 863 886 892 825 907 795 861 795 828 827 793 872 851 834 897 856 913 837 868 800 815 884 858 869 812 821 897 854 915 842 887 883 851 879 856 890 868 915 838 876 915 791 912 871 860 899 872 841 898 900 876 873 898 907 881 914 925 876 851 864 869 811 890 856 914 833 891 807 861 826 891 870 919 916 883 866 844 834 886 903 897 877 848 897 848 847 800 937 916 876 890 883 876 915 869 883 894 913 839 824 887 903 928 843 871 816 906 892 917 877 914 855 902 818 886 856 855 891 873 922 908 878 874 895 856 882 888 858 874 869 822 872 866 891 870 937 881 880 855 902 904 940 918 969 1017 948 990 1057 1050 1034 1096 1151 1046 1118 1131 1107 1175 1160 1237 1249 1170 1170 1120 1193 1237 1193 1106 1185 1178 1169 1181 1179 1165 1201 1096 1137 1148 1168 1051 1111 1061 1083 1005 1042 1026 964 976 933 999 902 962 930 947 896 905 856 881 910 882 901 920 920 862 823 875 869 856 862 850 853 833 848 805 821 885 834 893 873 867 817 815 837 825 803 814 827 809 832 772 776 798 865 866 816 809 809 810 800 842 821 865 825 841 824 830 811 829 800 804 792 770 743 845 827 767 802 792 817 838 785 807 838 825 801 795 785 843 842 843 789 832 798 877 822 788 833 837 847 793 812 841 820 867 838 812 844 804 777 840 839 822 823 829 843 806 818 830 824 855 825 778 837 788 766 782 845 822 797 797 760 824 821 805 804 801 834 799 809 798 802 787 824 823 782 794 779 820 787 771 797 850 794 830 760 806 834 801 827 822 788 809 828 767 808 790 820 804 804 798 814 787 832 829 837 756 800 817 835 826 866 832 791 856 805 806 764 815 826 815 796 817 876 819 824 850 838 806 831 846 848 820 834 839 858 808 852 858 814 844 831 820 815 827 849 839 875 880 825 858 811 896 879 777 838 848 828 849 937 920 867 861 901 883 882 897 940 913 898 958 983 1035 1036 1032 1095 1092 1127 1046 1159 1150 1148 1162 1087 1151 1147 1089 1153 1124 1097 1103 1153 1108 1170 1099 1146 1124 1097 1085 1123 1121 1069 1063 994 1067 1043 1007 1010 957 996 942 953 949 908 948 891 902 896 872 931 869 845 860 866 874 858 828 906 879 878 915 820 838 861 879 837 810 808 827 810 815 789 872 822 803 803 816 826 804 844 787 867 820 823 826 775 840 779 784 790 797 830 808 815 781 782 821 825 794 862 809 832 775 777 829 844 776 776 767 826 789 832 809 831 795 807 770 800 822 808 780 831 785 799 863 759 803 791 837 781 802 813 801 747 817 811 822 801 800 834 785 783 757 805 813 852 792 816 836 837 792 818 861 834 798 871 780 796 800 792 810 786 789 804 839 821 800 849 787 788 803 826 829 834 859 836 843 918 829 923 941 895 936 949 945 930 950 1009 921 971 955 925 860 935 862 911 923 898 1003 978 973 908 994 976 957 1008 963 960 970 943 914 965 936 993 956 930 936 933 923 916 933 881 880 866 920 906 922 917 852 886 844 831 876 875 863 864 815 877 842 819 872 871 802 830 830 846 810 841 794 785 793 829 787 819 799 808 812 754 812 765 796 811 817 752 818 846 815 836 818 840 729 778 768 796 750 802 807 797 784 784 749 826 824 850 804 801 842 840 817 834 810 811 854 773 798 861 836 797 823 793 865 835 817 824 842 898 802 818 775 852 838 801 834 838 781 826 709 762 816 832 781 760 801 787 803 762 786 756 818 787 777 850 765 757 772 803 798 750 776 790 757 768 785 843 755 761 752 768 807 804 764 756 774 807 746 800 803 769 752 752 826 784 799 806 774 749 789 701 751 764 787 763 771 756 803 688 784 764 751 800 826 805 734 851 774 834 774 777 754 806 805 751 750 774 739 755 770 774 768 815 775 752 750 752 847 743 774 769 773 756 751 797 766 745 775 764 796 754 787 734 753 752 783 732 757 782 792 794 760 743 775 786 783 762 747 836 765 785 744 792 746 736 779 716 740 781 803 764 782 778 734 749 782 719 755 735 778 761 751 729 770 755 727 706 735 762 767 765 690 684 715 689 765 700 738 759 769 725 696 749 747 728 759 794 773 722 668 740 795 736 714 775 764 762 760 770 724 826 758 727 706 766 729 722 734 742 731 763 738 780 734 710 747 740 765 754 713 744 745 725 747 707 793 814 764 726 750 707 770 708 735 781 745 780 758 769 771 741 704 778 758 760 757 748 760 789 729 760 726 707 831 744 726 745 750 768 762 707 733 760 799 814 780 713 723 690 714 751 751 753 703 705 785 813 740 813 716 776 714 725 725 754 759 689 722 761 725 739 739 725 714 723 722 740 720 670 722 720 736 776 770 683 718 743 693 739 768 711 777 764 724 755 766 755 744 733 758 732 700 732 776 686 696 742 752 703 674 726 691 755 739 736 742 723 716 739 703 737 726 721 753 741 733 727 719 677 689 752 715 712 733 719 665 743 753 747 757 676 690 683 794 727 684 731 757 760 720 720 722 758 720 713 694 706 747 701 704 733 671 714 746 695 709 751 689 694 713 675 760 718 763 709 730 713 711 751 749 725 721 673 677 779 708 776 696 742 685 717 734 727 734 753 716 751 707 718 721 712 725 716 787 794 718 726 752 818 712 718 727 755 717 797 780 725 752 715 758 732 742 732 707 765 764 760 720 702 738 757 723 713 718 765 722 724 770 755 679 706 722 726 772 668 755 711 784 741 700 695 743 683 764 711 710 683 717 745 728 696 745 704 691 672 696 746 701 731 703 742 747 648 694 697 679 666 707 737 731 687 669 666 679 688 665 704 741 728 706 699 693 670 730 666 718 676 727 720 671 729 664 722 737 692 707 707 760 692 735 728 722 669 753 711 735 649 689 717 725 702 701 677 733 752 655 769 713 683 685 724 707 666 728 734 694 705 746 716 682 709 704 667 667 735 750 699 696 666 676 663 730 731 702 732 695 731 738 693 684 667 703 725 783 702 688 768 722 721 729 694 688 755 712 767 729 672 702 668 650 741 727 732 721 704 751 739 693 673 688 707 658 702 701 649 693 720 701 710 721 727 797 711 742 687 693 701 644 684 747 671 693 713 756 732 683 715 665 675 701 751 671 741 723 763 740 713 746 747 748 716 708 746 674 705 664 686 732 681 726 722 672 714 666 729 756 654 704 760 676 676 668 718 710 708 703 725 749 740 747 700 709 732 672 737 689 753 673 735 709 728 727 699 726 742 716 718 816 692 741 702 684 743 734 763 777 768 735 733 753 666 737 743 757 769 811 772 753 743 738 797 779 764 812 834 786 766 850 755 777 734 791 794 882 790 888 848 812 808 805 842 814 823 880 891 875 820 875 920 823 845 842 837 820 801 868 848 856 843 811 806 848 798 738 738 809 807 770 851 756 754 763 790 773 756 794 771 761 758 738 734 721 691 703 637 691 688 732 689 727 703 750 729 701 716 729 738 707 731 698 704 684 715 698 719 719 657 673 682 681 714 741 680 677 695 683 705 747 706 731 677 692 676 701 638 698 722 700 717 695 689 699 700 721 689 704 716 696 733 698 730 661 707 697 715 724 702 699 703 720 729 685 669 727 725 661 712 664 755 727 697 666 672 682 750 713 703 681 658 696 656 664 729 709 660 716 683 710 717 724 705 718 718 709 709 729 683 677 741 696 734 696 690 752 714 738 703 718 719 685 701 702 693 682 731 712 702 690 667 693 673 652 703 676 661 686 685 717 683 659 690 659 732 664 737 711 715 690 715 703 641 707 724 688 657 707 675 722 658 695 727 715 689 680 728 674 704 708 680 727 706 700 709 722 686 689 678 720 661 727 672 684 718 689 688 670 696 725 667 697 716 686 670 649 682 745 689 744 713 676 713 703 676 704 719 658 697 732 714 723 731 736 707 733 672 737 729 743 729 719 710 718 695 727 755 718 724 689 726 665 670 694 668 680 717 739 711 630 698 730 670 704 678 744 718 653 724 685 671 667 737 700 730 700 700 690 701 703 730 713 711 673 659 718 649 705 691 687 711 736 660 714 709 750 771 715 676 708 646 670 698 711 707 695 706 757 717 673 685 752 705 679 694 719 734 709 731 684 728 691 719 683 699 703 719 696 703 679 668 705 696 689 678 690 674 670 751 710 666 690 700 679 697 684 672 710 715 711 714 678 641 715 699 638 696 667 706 679 713 670 722 700 693 671 733 688 684 670 694 702 682 705 718 671 668 670 677 682 679 658 715 717 728 684 714 740 662 713 668 679 742 679 680 698 724 668 672 732 676 702 691 697 669 687 669 685 697 681 701 712 683 742 668 676 667 654 670 631 693 691 693 663 685 671 629 671 707 704 688 667 653 670 679 711 646 697 647 671 668 686 657 690 702 704 663 684 685 690 746 634 717 694 680 708 691 700 736 718 698 686 754 696 705 728 662 722 670 731 696 688 678 701 700 689 712 686 644 689 720 702 690 730 699 693 663 715 695 727 690 672 675 722 656 670 678 684 655 700 751 663 665 626 689 628 698 676 632 656 671 773 720 691 655 664 672 677 697 698 705 742 731 682 668 666 681 676 683 709 671 679 742 706 655 674 710 684 727 747 687 680 685 710 692 695 731 708 677 688 665 674 688 708 664 635 722 716 685 666 671 683 676 682 710 685 706 671 720 677 709 718 672 719 676 685 672 694 681 703 699 728 653 725 698 703 657 713 660 727 676 734 676 715 673 670 665 694 695 646 715 610 726 706 677 711 713 689 698 706 683 716 653 665 646 704 672 667 690 682 667 654 684 744 674 715 674 743 663 709 673 751 703 702 691 713 656 624 695 709 669 696 679 694 698 714 666 704 718 711 686 721 701 749 745 694 735 713 720 654 727 670 736 663 707 689 751 738 729 731 682 689 731 734 771 706 756 707 732 740 765 697 743 713 709 733 701 740 732 712 688 682 724 680 753 710 716 709 740 755 748 766 791 763 728 709 755 787 772 810 752 774 776 720 766 815 837 762 720 742 758 711 769 789 758 755 811 708 762 753 733 724 714 664 721 698 690 689 775 733 710 696 754 668 762 712 701 727 729 750 736 717 761 737 673 714 684 693 663 726 695 725 708 675 678 686 684 654 683 682 728 696 699 697 633 731 718 719 702 684 670 650 674 681 723 700 675 673 701 677 690 670 644 674 635 679 699 643 644 673 641 648 716 666 677 722 664 619 690 687 659 675 656 665 668 643 637 667 707 656 700 667 675 694 730 672 669 711 697 682 651 723 680 678 697 723 678 734 687 695 691 665 674 685 727 715 689 701 683 664 636 679 673 708 684 694 658 629 676 671 708 662 677 670 697 635 671 675 670 681 687 699 679 717 712 683 694 686 740 680 661 718 668 672 651 720 704 734 699 732 693 728 710 776 691 713 758 732 713 710 734 711 753 692 702 671 700 716 743 709 689 698 727 739 731 731 736 729 708 766 782 783 715 747 738 781 722 749 699 785 744 730 755 786 828 773 777 848 837 880 826 856 846 857 850 895 875 832 814 880 861 879 904 904 832 878 838 813 888 836 890 905 936 884 907 864 851 862 912 812 842 871 884 813 853 782 843 869 805 829 822 803 769 855 795 795 778 781 787 771 808 782 691 741 697 695 686 733 734 667 723 708 716 724 777 758 735 716 679 679 665 693 668 732 677 696 697 659 677 676 704 652 683 670 708 613 749 653 737 685 704 673 713 660 660 701 705 668 659 713 637 659 665 718 718 633 639 644 686 670 653 640 687 688 680 726 690 675 769 682 680 693 705 674 716 681 647 700 691 687 665 679 631 693 641 695 662 675 642 678 695 686 648 711 764 659 653 693 712 677 654 697 619 684 668 673 693 670 710 656 679 715 634 665 667 696 713 705 693 672 722 715 700 664 699 666 675 698 676 656 738 719 674 685 669 686 752 637 733 703 669 670 705 709 713 700 709 682 686 698 665 744 713 670 753 694 699 718 652 671 703 704 696 686 692 639 716 669 713 658 664 678 649 688 639 667 676 648 676 693 679 691 675 671 727 707 688 693 693 671 697 671 707 693 680 632 673 636 691 678 666 668 688 670 656 627 697 698 664 638 700 665 664 657 672 675 635 708 657 709 651 626 656 702 640 664 695 664 665 682 698 688 650 731 623 661 695 678 689 682 647 699 685 723 701 699 666 659 682 680 690 713 657 732 699 672 675 696 661 648 688 722 671 684 720 686 666 639 706 706 774 699 666 696 713 701 701 720 703 696 750 744 753 700 762 751 718 712 737 739 710 760 778 758 753 731 774 752 727 763 760 691 737 711 741 763 701 737 734 717 733 728 751 701 726 784 744 696 772 723 678 700 693 688 709 676 671 745 724 741 661 697 732 691 702 739 695 714 693 683 726 707 727 685 666 664 753 670 696 676 734 716 732 654 662 683 726 688 671 664 711 631 668 665 634 703 724 679 631 623 692 633 636 661 668 687 673 690 706 670 671 663 688 718 665 696 689 684 704 699 697 695 650 678 674 667 700 719 734 703 683 691 675 674 695 659 678 676 670 679 673 707 674 661 650 659 664 678 636 685 648 682 639 704 677 683 680 703 656 636 628 669 613 643 632 655 656 605 658 607 676 607 623 684 672 648 699 644 632 615 715 671 654 656 625 621 651 681 673 667 649 683 653 691 675 641 662 666 654 645 644 672 684 665 632 654 644 615 654 647 657 657 623 645 637 693 664 668 637 681 618 688 669 655 659 614 658 681 656 646 664 623 652 657 651 681 667 642 647 672 683 603 675 626 647 628 626 650 666 631 601 633 635 652 609 645 615 690 623 644 686 669 688 644 690 618 661 638 685 630 683 606 638 627 643 629 663 658 632 665 596 626 672 640 648 611 625 590 651 624 596 659 660 683 632 661 658 654 645 646 635 626 626 686 606 576 641 605 597 688 646 638 617 626 662 636 617 643 637 650 656 651 624 632 620 644 644 663 630 712 641 642 657 603 679 620 652 651 633 614 655 632 607 628 683 658 633 649 612 634 669 653 611 677 618 654 632 608 624 630 663 645 659 631 651 605 644 614 663 671 644 640 641 614 677 628 584 644 657 601 674 679 705 623 631 677 648 667 614 619 610 629 662 661 681 625 628 609 642 658 677 589 628 655 620 643 641 641 625 663 642 642 568 616 632 659 613 590 652 600 650 632 654 647 608 632 669 672 615 646 646 683 600 646 578 689 678 611 628 651 648 655 600 614 617 624 631 629 629 674 620 607 675 600 646 633 612 634 609 633 659 619 643 638 570 651 626 646 650 590 658 637 649 617 652 618 600 561 651 608 654 607 601 625 592 656 632 619 611 632 599 584 637 611 633 604 649 633 575 604 619 633 628 673 644 641 595 604 651 637 655 699 577 625 629 609 651 646 642 620 642 624 651 638 647 609 590 599 633 632 653 646 617 659 645 641 659 616 578 629 606 630 610 612 619 618 668 610 582 635 701 581 657 649 632 643 585 643 635 642 642 614 642 618 626 638 639 642 600 627 671 637 650 611 628 689 635 636 632 670 618 656 642 595 626 618 588 572 627 616 680 623 659 654 628 677 608 682 644 599 625 675 604 641 591 632 619 666 682 642 698 611 700 611 620 649 648 692 609 675 665 669 679 650 664 721 697 704 710 702 670 735 675 695 727 698 721 743 728 719 815 713 706 774 713 774 787 755 745 760 754 753 695 747 717 730 733 781 707 742 733 763 708 716 665 725 680 685 725 738 665 691 725 680 751 633 688 705 725 677 676 626 681 668 698 659 699 676 671 655 667 653 631 654 613 712 634 644 607 657 657 588 657 623 604 630 623 661 662 611 617 644 616 634 636 645 647 645 636 638 632 612 599 626 638 669 660 651 636 619 635 666 679 648 625 607 605 626 622 634 626 643 652 660 679 630 619 610 639 599 648 649 600 590 586 659 615 635 593 643 596 659 602 613 639 613 613 629 609 638 594 600 651 662 596 645 655 612 641 640 649 683 600 583 588 658 635 622 642 675 625 668 601 638 623 718 616 597 615 656 591 595 593 626 650 651 636 655 611 653 598 625 680 640 640 658 621 611 599 661 650 581 593 650 642 636 631 551 637 624 632 628 634 625 661 617 647 564 609 624 644 635 673 591 600 637 609 624 630 642 591 578 634 614 617 632 623 660 653 638 653 619 637 652 637 599 613 615 582 616 646 594 639 673 629 654 633 650 613 613 627 657 590 584 640 647 569 626 580 567 680 646 597 622 589 599 572 644 657 634 645 621 608 609 573 620 572 635 612 623 598 628 567 665 641 608 666 616 633 577 666 588 573 615 618 619 591 600 606 622 581 594 584 650 611 614 596 630 616 605 628 595 654 616 640 598 572 643 615 614 605 598 632 639 600 646 648 619 605 627 612 607 587 638 643 671 611 604 636 649 604 616 638 629 653 665 616 637 624 647 619 608 604 627 673 615 590 634 623 623 620 614 630 582 650 642 645 640 573 610 594 666 651 619 616 620 629 590 628 574 624 596 609 603 644 644 681 649 628 606 670 612 655 649 650 607 575 602 616 595 605 605 576 631 578 582 573 590 643 591 620 631 620 584 623 636 597 657 585 596 653 567 643 606 629 630 600 576 587 662 645 636 601 602 592 604 620 590 606 639 653 627 622 605 629 619 632 579 590 594 576 591 623 616 566 646 638 640 594 657 616 600 603 604 571 606 599 668 615 611 647 635 616 647 600 618 606 660 591 560 646 622 654 642 633 606 624 635 612 604 667 591 623 612 675 631 610 575 560 585 608 621 612 561 604 640 626 635 637 632 640 608 598 639 577 590 626 639 618 585 576</counts>
			</dataPoints>
		</scan>
	</xrdMeasurement>
</xrdMeasurements>
