<?xml version="1.0"?>
<xrdMeasurements xmlns="http://www.xrdml.com/XRDMeasurement/2.3" xmlns:xsi="http://www.w3.org/2001/XMLSchema-instance" xsi:schemaLocation="http://www.xrdml.com/XRDMeasurement/2.3 http://www.xrdml.com/XRDMeasurement/2.3/XRDMeasurement.xsd" status="Completed" recordIdentifier="{1DF4E135-3909-4A40-8FE9-943B62F75E84}">
	<comment>
		<entry/>
	</comment>
	<sample type="To be analyzed">
		<id>GPSS_Li1p6Fe0p8Mg0p4Cl4_102325_68fa7650028f64128e25ed7f</id>
		<name></name>
		<preparedBy></preparedBy>
	</sample>
	<xrdMeasurement measurementType="Scan" status="Completed" sampleMode="Reflection">
		<usedWavelength intended="K-Alpha 1">
			<kAlpha1 unit="Angstrom">1.5405980</kAlpha1>
			<kAlpha2 unit="Angstrom">1.5444260</kAlpha2>
			<kBeta unit="Angstrom">1.3922500</kBeta>
			<ratioKAlpha2KAlpha1>0.5000</ratioKAlpha2KAlpha1>
		</usedWavelength>
		<incidentBeamPath>
			<radius unit="mm">145.00</radius>
			<xRayTube id="1010048" name="Empyrean Cu LFF HR (9430 033 7310x)">
				<tension unit="kV">40.0</tension>
				<current unit="mA">15.0</current>
				<anodeMaterial>Cu</anodeMaterial>
				<focus type="Line">
					<length unit="mm">12.0</length>
					<width unit="mm">0.4</width>
					<takeOffAngle unit="deg">6.0</takeOffAngle>
				</focus>
			</xRayTube>
			<sollerSlit id="21010002" name="Soller slits 0.04 rad.">
				<opening unit="rad">0.0400</opening>
			</sollerSlit>
			<mask id="22031000" name="Fixed mask 13 mm">
				<width unit="mm">9.00</width>
			</mask>
			<divergenceSlit id="22120001" name="Divergence slit 1°" xsi:type="fixedDivergenceSlitType">
				<distanceToSample unit="mm">50.00</distanceToSample>
				<height unit="mm">1.52</height>
			</divergenceSlit>
		</incidentBeamPath>
		<sampleMovement xsi:type="spinningSampleMovementType">
			<spinnerRevolutionTime unit="seconds">1.0</spinnerRevolutionTime>
		</sampleMovement>
		<diffractedBeamPath>
			<radius unit="mm">145.00</radius>
			<antiScatterSlit id="22090040" name="AS slit 9 mm (PIXcel)" xsi:type="fixedAntiScatterSlitType">
				<height unit="mm">9.00</height>
			</antiScatterSlit>
			<sollerSlit id="21020003" name="Large Soller slits 0.04 rad.">
				<opening unit="rad">0.0400</opening>
			</sollerSlit>
			<filter id="20030001" name="Large beta-filter Nickel">
				<material>Ni</material>
				<thickness unit="mm">0.020</thickness>
			</filter>
			<detector id="7010019" name="PIXcel1D-Medipix3 detector" xsi:type="rtmsDetectorType">
				<phd unit="keV">
					<lowerLevel>4.02</lowerLevel>
					<upperLevel>11.27</upperLevel>
				</phd>
				<mode>Scanning</mode>
				<activeLength unit="deg">5.542</activeLength>
			</detector>
		</diffractedBeamPath>
		<scan appendNumber="0" mode="Continuous" scanAxis="Gonio" status="Completed">
			<header>
				<startTimeStamp>2025-10-30T17:51:55-07:00</startTimeStamp>
				<endTimeStamp>2025-10-30T18:00:02-07:00</endTimeStamp>
				<author>
					<name>AutomatedUser</name>
				</author>
				<source>
					<applicationSoftware version="1.7b (136)">PANalytical Aeris Instrument Suite</applicationSoftware>
					<instrumentControlSoftware version="3.2.00000000 20240306">AERIS</instrumentControlSoftware>
					<instrumentID>950485</instrumentID>
				</source>
			</header>
			<dataPoints>
				<positions axis="2Theta" unit="deg">
					<startPosition>10.00943322</startPosition>
					<endPosition>99.99442286</endPosition>
				</positions>
				<positions axis="Omega" unit="deg">
					<startPosition>5.00471661</startPosition>
					<endPosition>49.99721143</endPosition>
				</positions>
				<commonCountingTime unit="seconds">12.495</commonCountingTime>
				<counts unit="counts">2468 2352 2388 2366 2395 2349 2347 2342 2374 2451 2490 2348 2338 2540 2367 2439 2379 2354 2416 2363 2393 2438 2436 2356 2529 2272 2413 2450 2431 2313 2519 2521 2509 2399 2476 2496 2544 2354 2470 2373 2399 2433 2466 2404 2500 2433 2448 2507 2371 2348 2490 2442 2365 2355 2408 2429 2449 2462 2456 2459 2380 2399 2459 2460 2450 2459 2408 2412 2485 2406 2382 2425 2470 2426 2502 2394 2372 2410 2400 2468 2419 2388 2433 2487 2424 2442 2355 2417 2480 2385 2577 2449 2447 2405 2441 2413 2419 2509 2390 2421 2386 2396 2400 2382 2449 2486 2514 2435 2406 2449 2409 2456 2509 2461 2386 2431 2413 2474 2404 2401 2504 2436 2507 2452 2470 2372 2411 2448 2488 2403 2459 2414 2390 2368 2409 2466 2427 2341 2382 2395 2329 2385 2415 2411 2446 2413 2507 2388 2533 2384 2370 2530 2362 2506 2365 2389 2412 2419 2417 2406 2494 2374 2397 2426 2373 2445 2420 2288 2397 2447 2394 2390 2365 2444 2477 2371 2467 2415 2488 2402 2381 2431 2478 2448 2382 2477 2397 2343 2488 2409 2415 2356 2445 2323 2398 2472 2419 2478 2417 2406 2404 2457 2367 2482 2409 2372 2417 2385 2368 2423 2464 2422 2408 2374 2512 2320 2426 2299 2258 2315 2371 2389 2456 2292 2341 2372 2341 2358 2342 2428 2425 2430 2420 2335 2372 2435 2387 2380 2316 2384 2376 2407 2399 2337 2367 2339 2357 2312 2409 2298 2334 2338 2308 2278 2360 2358 2372 2337 2374 2458 2314 2404 2414 2374 2384 2403 2360 2400 2404 2283 2306 2351 2397 2348 2328 2309 2308 2317 2321 2354 2345 2393 2310 2256 2365 2342 2437 2327 2318 2342 2360 2342 2371 2292 2406 2382 2318 2348 2391 2363 2387 2470 2281 2290 2396 2305 2306 2369 2362 2348 2283 2382 2360 2309 2364 2259 2416 2317 2423 2271 2309 2388 2340 2366 2366 2379 2353 2400 2318 2229 2370 2327 2408 2231 2282 2284 2335 2329 2452 2316 2386 2280 2271 2416 2370 2393 2437 2308 2363 2369 2276 2409 2379 2331 2546 2346 2387 2369 2299 2272 2286 2263 2399 2358 2416 2437 2436 2396 2373 2345 2414 2302 2307 2386 2376 2278 2387 2355 2333 2411 2455 2363 2419 2342 2451 2410 2334 2437 2402 2366 2373 2433 2339 2335 2481 2399 2477 2466 2324 2497 2447 2482 2445 2491 2430 2437 2498 2400 2344 2435 2402 2485 2460 2440 2545 2427 2454 2491 2531 2534 2546 2580 2592 2663 2677 2618 2628 2696 2730 2683 2643 2881 2770 2819 2923 2769 2922 3042 3075 3090 3044 3173 3121 3122 3288 3212 3253 3313 3219 3342 3299 3372 3374 3423 3497 3458 3536 3429 3772 3711 3707 3715 3864 3926 3873 4009 4021 4064 4203 4221 4293 4306 4374 4211 4389 4348 4355 4268 4293 4183 4217 4102 3888 3893 3881 3779 3688 3695 3618 3552 3474 3466 3368 3245 3318 3141 3074 2948 3108 3139 3024 3116 2921 3048 2977 2939 2915 2936 2939 2968 2920 2852 3004 3033 2871 2840 2824 2851 2891 2773 2926 2710 2753 2648 2690 2666 2635 2657 2633 2617 2570 2648 2712 2676 2642 2610 2660 2676 2670 2780 2806 2709 2746 2738 2678 2637 2672 2751 2772 2759 2704 2779 2725 2710 2829 2755 2747 2705 2652 2767 2727 2625 2662 2646 2649 2654 2653 2746 2696 2748 2835 2636 2768 2577 2664 2549 2651 2646 2539 2540 2606 2648 2557 2609 2485 2583 2607 2614 2558 2564 2533 2544 2554 2709 2658 2644 2522 2574 2539 2581 2636 2578 2618 2523 2536 2572 2519 2497 2532 2482 2586 2438 2471 2471 2564 2524 2496 2375 2370 2435 2458 2353 2512 2339 2439 2380 2430 2375 2533 2345 2362 2357 2445 2364 2295 2363 2322 2390 2343 2375 2412 2272 2366 2357 2440 2372 2332 2343 2361 2324 2410 2231 2315 2302 2295 2323 2275 2385 2309 2335 2307 2305 2234 2392 2370 2309 2300 2330 2306 2324 2338 2375 2311 2305 2287 2243 2293 2301 2362 2335 2358 2279 2296 2241 2228 2235 2214 2350 2402 2296 2285 2251 2317 2232 2219 2257 2209 2270 2326 2394 2364 2310 2322 2343 2261 2275 2257 2273 2298 2352 2315 2248 2357 2353 2286 2292 2386 2442 2356 2293 2292 2310 2279 2306 2313 2273 2318 2344 2275 2351 2226 2257 2213 2313 2234 2203 2318 2299 2273 2382 2201 2302 2287 2322 2315 2250 2251 2263 2266 2187 2354 2281 2328 2328 2234 2378 2305 2298 2196 2245 2368 2322 2262 2247 2249 2259 2277 2303 2269 2269 2211 2288 2195 2240 2291 2172 2183 2282 2305 2231 2165 2182 2251 2257 2325 2263 2233 2256 2341 2243 2242 2294 2229 2155 2289 2263 2311 2254 2197 2261 2231 2291 2237 2364 2227 2300 2301 2131 2268 2314 2207 2233 2247 2199 2169 2153 2266 2243 2262 2283 2159 2292 2280 2216 2220 2179 2106 2220 2179 2226 2217 2205 2200 2296 2294 2230 2168 2227 2136 2162 2260 2217 2205 2183 2200 2318 2231 2256 2266 2212 2137 2097 2185 2200 2271 2233 2204 2168 2143 2173 2213 2219 2239 2136 2252 2193 2197 2225 2189 2147 2160 2269 2269 2124 2153 2254 2234 2146 2180 2246 2174 2225 2105 2258 2205 2164 2248 2185 2174 2198 2199 2190 2124 2125 2080 2084 2197 2155 2156 2191 2215 2130 2239 2125 2124 2127 2103 2157 2101 2171 2142 2139 2190 2140 2202 2079 2199 2107 2137 2114 2147 2079 2028 2182 2164 2172 2081 2114 2224 2164 2168 2159 2129 2181 2155 2127 2127 2134 2111 2126 2192 2040 2128 2164 2099 2172 2089 2185 2189 2136 2205 2196 2146 2144 2132 2166 2066 2154 2110 2166 2069 2170 2100 2148 2206 2126 2181 2180 2209 2217 2198 2218 2183 2235 2266 2207 2269 2109 2200 2183 2193 2252 2267 2253 2390 2154 2209 2276 2308 2253 2319 2215 2236 2354 2248 2270 2246 2302 2327 2265 2309 2317 2384 2294 2286 2318 2322 2308 2339 2241 2274 2345 2316 2353 2289 2307 2340 2255 2294 2219 2253 2280 2307 2192 2323 2331 2266 2273 2280 2292 2176 2306 2244 2306 2239 2258 2371 2300 2319 2189 2320 2276 2270 2298 2386 2251 2312 2289 2260 2320 2250 2297 2212 2183 2220 2235 2210 2230 2191 2269 2168 2210 2203 2189 2184 2263 2201 2305 2238 2146 2139 2182 2187 2179 2186 2217 2253 2102 2141 2137 2126 2147 2165 2158 2237 2124 2175 2170 2136 2154 2159 2137 2133 2141 2135 2115 2207 2140 2196 2172 2123 2158 2217 2138 2146 2086 2120 2119 2101 2098 2161 2120 2182 2207 2203 2184 2080 2104 2184 2076 2091 2155 2071 2082 2081 2172 2059 2145 2055 2048 2090 2168 2116 2088 2103 2121 2143 2062 2055 2123 2143 2064 2040 2027 2020 2030 2110 2104 2059 2072 2055 2058 2126 2111 2075 2065 2060 2097 2071 2049 2080 2069 2123 2070 2121 2127 2201 2100 2136 2053 2147 2074 2090 2040 2073 1991 2072 2077 2090 2063 2040 2080 2094 2045 1993 2080 2059 1984 2084 2033 2107 2074 2085 2125 2033 2083 2147 2059 2094 1993 2174 2112 2093 2117 2023 2091 2102 2096 2154 2052 2113 2058 2100 2043 2109 2041 2087 2068 2044 2151 2083 2093 2036 2088 2063 2138 2042 2128 2085 2140 2130 2059 2032 2073 1970 2123 2098 2099 2118 2029 2080 2072 2088 2098 2025 1978 2056 2061 2029 2014 2061 2014 2108 2077 2168 2008 2035 2000 2037 2019 2096 2037 2073 2071 2005 1960 2008 2047 1968 2024 2059 2074 2024 2023 1984 1974 1992 1915 1985 1969 2026 1915 1999 1963 1951 1947 2030 1995 1956 1965 1929 1894 1942 1983 2030 1968 1965 1948 1977 1987 1951 1901 1892 2032 1934 2031 1903 1971 2037 1945 1930 1989 1840 1969 1983 1975 1928 1957 1964 1939 1931 1945 1950 1872 1912 1828 1966 1937 1958 1816 1884 1915 1934 1890 1911 1896 1909 1904 1940 1911 1901 1923 1921 2009 1956 1859 1845 1879 1865 1944 1969 1863 1892 1879 1928 1939 1959 1863 1930 1899 1853 1896 1892 1952 1897 1922 1931 1909 1871 1870 1902 1927 1921 1908 1868 1855 1872 1926 1859 1899 1911 1891 1840 1834 1945 1842 1825 1933 1871 1870 1983 1878 1924 1939 1828 1854 1836 1807 1916 1900 1838 1817 1831 1895 1936 1868 1917 1884 1976 1806 1868 1840 1951 1866 1877 1862 1892 1851 1909 1937 1953 1929 1807 1845 1912 1919 1807 1890 1899 1983 1868 1950 1901 1906 1937 1838 1869 1838 1946 1863 1910 1819 1907 1792 1876 1913 1899 1818 1820 1842 1874 1924 1872 1864 1890 1888 1860 1915 1952 1864 1880 1871 1947 1839 1920 1873 1947 1840 1877 1886 1974 1896 1950 1971 1811 1904 1919 1944 1860 1892 1936 1895 1978 1847 1949 1870 1922 1904 1876 1891 1906 1906 1982 1928 1966 1878 1837 1947 1894 1941 1900 1952 1945 1950 1865 1921 1985 1873 1925 1851 1944 1919 1933 1905 1975 1893 1915 1902 1934 1905 1873 1884 1869 2014 1894 1886 1914 1857 2042 1880 1902 1920 2006 1864 1977 1898 1907 1934 1907 1845 1989 1873 1910 1875 1985 1967 1952 1917 2028 1921 2015 2030 1916 1941 1926 1925 1909 1959 1949 1921 1983 1921 1985 1934 1948 1970 1939 1822 1936 1936 1894 1886 1856 1928 1923 1898 1943 1927 1855 1869 1874 1866 1910 1859 1877 1869 1868 1914 1879 1930 1947 1893 1845 1872 1914 1847 1820 1831 1794 1848 1905 1841 1885 1835 1849 1824 1849 1877 1848 1840 1845 1814 1715 1803 1850 1811 1823 1812 1829 1808 1774 1800 1836 1797 1765 1841 1802 1859 1805 1771 1871 1802 1756 1796 1677 1756 1810 1747 1810 1780 1718 1788 1776 1832 1778 1829 1834 1764 1765 1807 1742 1736 1789 1791 1786 1769 1715 1756 1733 1797 1778 1799 1750 1819 1741 1815 1753 1759 1833 1767 1750 1858 1720 1798 1679 1737 1786 1788 1855 1803 1803 1800 1807 1757 1839 1747 1798 1834 1798 1728 1823 1897 1872 1883 1848 1885 1833 1934 1912 1951 1955 1894 1967 1971 1989 1884 1897 1877 1864 1933 1885 1832 1911 1775 1863 1817 1834 1815 1827 1832 1862 1807 1811 1856 1858 1917 1832 1907 1815 1840 1834 1879 1844 1849 1850 1877 1897 1836 1817 1913 1854 1859 1869 1840 1820 1931 1836 1866 1763 1796 1887 1833 1816 1858 1796 1857 1830 1746 1795 1826 1824 1752 1747 1711 1788 1804 1792 1716 1732 1776 1696 1747 1709 1735 1756 1703 1769 1680 1710 1720 1725 1752 1813 1740 1713 1692 1748 1754 1786 1722 1830 1689 1732 1770 1758 1768 1767 1864 1799 1823 1894 1937 1905 1927 1975 1979 1997 1990 1981 2108 2183 2322 2289 2281 2278 2397 2421 2491 2536 2580 2569 2577 2613 2587 2582 2565 2468 2537 2482 2498 2464 2421 2359 2401 2403 2392 2402 2448 2414 2323 2267 2413 2326 2450 2463 2309 2468 2328 2444 2389 2361 2414 2375 2399 2287 2283 2347 2383 2415 2397 2409 2382 2331 2293 2329 2333 2357 2344 2349 2272 2306 2357 2275 2260 2144 2274 2178 2125 2123 2057 2113 2081 2072 2004 1965 2031 1993 1939 1990 1926 1933 1946 1881 1930 1852 1909 1903 1788 1807 1795 1808 1796 1817 1730 1727 1739 1684 1713 1667 1716 1679 1714 1724 1708 1693 1724 1661 1598 1694 1696 1699 1643 1669 1639 1604 1714 1586 1620 1603 1593 1596 1623 1597 1645 1542 1631 1622 1604 1552 1588 1570 1585 1544 1579 1595 1602 1612 1595 1550 1532 1582 1552 1564 1558 1616 1614 1628 1608 1569 1575 1627 1628 1559 1651 1613 1555 1577 1621 1526 1603 1566 1546 1548 1534 1495 1600 1637 1608 1558 1533 1569 1572 1638 1553 1569 1462 1493 1541 1573 1479 1514 1600 1497 1587 1495 1532 1548 1501 1472 1547 1554 1583 1495 1489 1523 1459 1560 1523 1525 1424 1475 1540 1452 1544 1509 1546 1560 1538 1535 1517 1428 1481 1442 1469 1519 1501 1534 1444 1505 1585 1499 1445 1456 1412 1528 1489 1498 1472 1496 1567 1541 1587 1513 1516 1550 1465 1487 1500 1573 1542 1551 1565 1541 1551 1492 1521 1581 1546 1556 1546 1558 1670 1521 1561 1597 1539 1660 1637 1626 1653 1675 1716 1631 1701 1670 1636 1701 1698 1737 1734 1687 1729 1735 1758 1703 1688 1782 1660 1708 1815 1763 1758 1814 1794 1820 1801 1900 1800 1812 1829 1884 1863 1884 1920 1890 1974 1876 1952 1936 1969 1928 1929 1975 1969 1987 2021 1959 2032 2014 1986 2042 1958 2018 1994 2011 2112 2079 2120 2059 2019 2024 2136 2086 2008 2112 2112 2035 2091 2046 2057 2030 2020 2006 1998 2018 2059 2027 2006 1911 1927 1999 1932 1954 1843 1914 1867 1877 1836 1860 1781 1836 1732 1812 1726 1744 1664 1665 1633 1514 1641 1642 1556 1577 1622 1548 1561 1569 1515 1461 1497 1532 1511 1484 1526 1512 1467 1548 1488 1501 1480 1515 1433 1498 1474 1408 1496 1475 1456 1490 1476 1425 1444 1495 1486 1477 1439 1474 1443 1518 1559 1495 1507 1521 1477 1444 1452 1444 1463 1400 1505 1496 1488 1501 1451 1413 1428 1394 1447 1514 1573 1520 1551 1590 1573 1593 1643 1616 1716 1704 1732 1807 1884 1894 1957 2040 2123 2114 2196 2259 2296 2414 2443 2405 2572 2514 2706 2641 2698 2684 2683 2732 2621 2590 2590 2678 2542 2582 2607 2537 2500 2586 2508 2475 2564 2502 2549 2505 2566 2565 2664 2655 2800 2746 2826 2806 2731 2742 2865 2834 2793 2752 2755 2779 2692 2793 2689 2717 2653 2633 2601 2638 2711 2716 2612 2633 2539 2562 2610 2509 2495 2446 2428 2393 2437 2379 2411 2358 2416 2414 2379 2316 2334 2324 2236 2321 2253 2212 2244 2274 2150 2175 2127 2093 2051 2056 1990 1994 2049 2038 2011 1934 1889 1857 1823 1895 1758 1777 1680 1727 1725 1616 1698 1691 1633 1513 1562 1574 1533 1515 1470 1438 1528 1399 1412 1395 1489 1421 1405 1346 1398 1359 1418 1366 1352 1311 1305 1370 1315 1319 1299 1330 1323 1262 1229 1259 1260 1326 1309 1319 1313 1295 1349 1261 1281 1269 1278 1334 1257 1375 1289 1308 1260 1265 1318 1212 1265 1276 1223 1274 1289 1321 1256 1263 1292 1281 1297 1295 1281 1300 1284 1306 1247 1278 1284 1283 1311 1251 1286 1312 1275 1297 1304 1298 1211 1261 1298 1236 1276 1264 1315 1311 1312 1246 1330 1291 1317 1340 1251 1299 1321 1312 1221 1278 1341 1256 1302 1332 1258 1293 1312 1320 1262 1240 1306 1283 1257 1241 1321 1270 1246 1311 1308 1257 1297 1225 1209 1331 1262 1256 1247 1281 1232 1359 1313 1188 1326 1330 1258 1350 1290 1275 1270 1279 1325 1282 1246 1342 1255 1266 1296 1258 1299 1260 1258 1262 1217 1275 1213 1315 1326 1336 1267 1266 1315 1202 1287 1363 1368 1296 1294 1333 1350 1317 1305 1327 1332 1337 1270 1334 1339 1386 1326 1311 1358 1306 1350 1336 1350 1390 1316 1342 1367 1362 1428 1356 1364 1417 1334 1331 1357 1337 1364 1308 1425 1456 1353 1385 1401 1410 1446 1364 1420 1363 1362 1381 1360 1385 1360 1367 1318 1357 1366 1335 1331 1380 1348 1311 1311 1320 1310 1290 1341 1318 1339 1309 1336 1239 1254 1280 1333 1306 1331 1427 1269 1334 1281 1333 1342 1267 1312 1297 1309 1296 1321 1318 1258 1270 1325 1353 1281 1321 1325 1314 1288 1309 1280 1315 1292 1308 1240 1366 1327 1314 1292 1325 1282 1250 1305 1300 1314 1350 1323 1339 1327 1284 1334 1361 1278 1298 1290 1342 1304 1275 1319 1278 1274 1295 1394 1266 1350 1295 1350 1310 1302 1306 1348 1304 1284 1272 1281 1287 1303 1262 1347 1310 1316 1375 1266 1305 1408 1335 1302 1314 1335 1328 1357 1289 1317 1367 1287 1362 1299 1310 1339 1357 1347 1246 1278 1312 1322 1290 1333 1247 1242 1356 1292 1336 1296 1308 1288 1306 1302 1295 1221 1353 1319 1263 1340 1338 1288 1330 1276 1310 1310 1261 1293 1319 1265 1247 1336 1283 1281 1254 1264 1299 1295 1235 1313 1298 1306 1206 1268 1253 1326 1264 1356 1244 1305 1284 1276 1270 1329 1245 1237 1254 1287 1291 1288 1274 1284 1267 1281 1269 1275 1252 1264 1226 1247 1226 1254 1236 1239 1287 1257 1282 1167 1248 1281 1232 1217 1271 1255 1219 1232 1276 1251 1243 1218 1237 1264 1246 1287 1290 1315 1208 1213 1241 1226 1253 1230 1255 1254 1197 1211 1240 1249 1230 1232 1274 1246 1328 1276 1318 1153 1249 1251 1249 1276 1259 1254 1290 1219 1196 1196 1281 1281 1283 1273 1269 1193 1343 1207 1296 1253 1211 1346 1240 1187 1237 1239 1249 1242 1257 1377 1235 1339 1242 1345 1340 1313 1247 1284 1230 1335 1283 1311 1288 1393 1398 1249 1353 1223 1301 1289 1311 1391 1238 1229 1349 1247 1264 1209 1331 1287 1347 1314 1332 1231 1257 1204 1285 1271 1264 1240 1238 1297 1290 1333 1233 1316 1207 1231 1215 1178 1265 1282 1232 1322 1297 1215 1244 1290 1228 1257 1296 1236 1270 1285 1323 1267 1297 1325 1288 1272 1231 1276 1287 1246 1217 1302 1275 1242 1266 1236 1281 1205 1181 1244 1242 1189 1316 1286 1275 1245 1249 1270 1209 1284 1241 1231 1261 1242 1202 1270 1208 1279 1201 1278 1209 1260 1248 1195 1273 1307 1196 1313 1170 1248 1300 1250 1220 1219 1264 1221 1265 1262 1289 1330 1318 1236 1252 1289 1302 1219 1288 1284 1260 1264 1270 1390 1235 1287 1281 1223 1233 1226 1359 1316 1308 1293 1268 1353 1345 1309 1312 1307 1371 1367 1367 1344 1341 1363 1377 1295 1409 1306 1273 1377 1332 1285 1329 1370 1362 1376 1361 1301 1446 1333 1444 1351 1349 1335 1358 1389 1370 1306 1427 1235 1346 1312 1326 1350 1372 1332 1336 1376 1263 1297 1310 1315 1342 1310 1295 1329 1314 1315 1267 1337 1254 1306 1321 1361 1362 1291 1325 1311 1348 1334 1234 1360 1323 1306 1323 1334 1296 1283 1360 1345 1290 1284 1359 1320 1346 1399 1391 1317 1289 1384 1257 1312 1325 1402 1304 1421 1346 1306 1355 1390 1300 1352 1369 1317 1379 1314 1382 1362 1412 1385 1334 1409 1427 1402 1405 1358 1422 1367 1349 1348 1336 1374 1360 1388 1315 1342 1353 1359 1302 1369 1320 1328 1366 1395 1375 1411 1347 1403 1317 1368 1333 1325 1277 1270 1331 1257 1288 1286 1278 1303 1301 1322 1240 1339 1361 1236 1268 1331 1308 1290 1272 1262 1282 1314 1277 1248 1342 1330 1270 1263 1359 1272 1293 1315 1351 1297 1304 1310 1265 1303 1272 1299 1340 1260 1300 1340 1286 1290 1297 1264 1278 1230 1314 1255 1315 1237 1309 1302 1308 1246 1251 1297 1342 1296 1369 1243 1310 1274 1307 1273 1317 1346 1251 1315 1299 1389 1279 1259 1344 1282 1228 1274 1227 1321 1236 1325 1272 1355 1286 1231 1317 1261 1253 1290 1257 1284 1223 1339 1282 1288 1247 1368 1234 1313 1215 1317 1372 1305 1228 1272 1313 1278 1256 1309 1314 1255 1301 1336 1283 1303 1348 1259 1400 1351 1315 1360 1395 1297 1342 1324 1325 1353 1401 1361 1314 1438 1414 1352 1381 1361 1372 1387 1430 1401 1420 1369 1404 1413 1402 1406 1372 1503 1383 1398 1407 1316 1303 1416 1372 1398 1403 1411 1365 1419 1397 1374 1376 1379 1386 1413 1406 1426 1294 1402 1360 1393 1381 1333 1284 1367 1384 1389 1381 1333 1315 1338 1335 1426 1379 1295 1314 1362 1289 1282 1324 1353 1326 1325 1365 1340 1274 1318 1395 1355 1334 1336 1348 1353 1424 1319 1314 1300 1288 1304 1355 1327 1324 1315 1344 1318 1298 1336 1324 1405 1298 1348 1351 1393 1434 1458 1342 1342 1350 1372 1430 1389 1418 1329 1401 1373 1357 1313 1370 1361 1360 1379 1376 1414 1422 1360 1378 1370 1316 1365 1367 1369 1348 1385 1402 1359 1317 1300 1363 1325 1323 1324 1400 1288 1343 1339 1329 1356 1416 1339 1364 1271 1315 1324 1327 1316 1339 1341 1313 1337 1285 1390 1358 1337 1263 1292 1328 1329 1340 1373 1344 1339 1272 1344 1328 1359 1339 1379 1308 1394 1311 1295 1437 1337 1368 1322 1349 1381 1309 1222 1342 1331 1334 1367 1342 1427 1384 1328 1406 1355 1334 1371 1336 1312 1386 1288 1465 1367 1325 1353 1351 1351 1411 1406 1362 1397 1304 1332 1365 1456 1359 1445 1384 1334 1349 1361 1367 1393 1281 1393 1365 1400 1352 1396 1361 1396 1389 1387 1348 1404 1407 1405 1273 1357 1333 1391 1383 1338 1407 1427 1370 1407 1435 1394 1302 1367 1405 1384 1340 1393 1369 1415 1369 1352 1373 1368 1345 1337 1362 1430 1336 1378 1324 1374 1370 1325 1416 1324 1335 1356 1347 1336 1360 1308 1362 1388 1381 1326 1309 1364 1406 1306 1352 1339 1410 1423 1368 1380 1423 1361 1470 1333 1381 1348 1359 1337 1426 1394 1306 1391 1416 1376 1411 1387 1378 1386 1340 1336 1345 1398 1453 1378 1433 1409 1400 1412 1423 1396 1370 1379 1404 1421 1396 1389 1449 1381 1463 1423 1350 1423 1419 1458 1434 1390 1502 1364 1420 1374 1344 1414 1314 1370 1337 1452 1437 1430 1408 1447 1444 1449 1428 1514 1444 1431 1468 1415 1445 1454 1403 1478 1463 1448 1473 1425 1478 1417 1534 1512 1537 1524 1532 1526 1535 1551 1571 1570 1576 1658 1588 1672 1636 1788 1743 1814 1840 1866 1869 1932 1907 2009 2059 2044 2097 2118 2140 2116 2152 2104 2172 2144 2232 2175 2180 2214 2288 2198 2238 2159 2194 2158 2141 2204 2121 2088 2123 2008 2034 2009 2066 2023 2030 2072 2084 2071 2052 2134 2086 2073 2176 2112 2114 2144 2117 2216 2149 2215 2133 2041 2272 2185 2223 2262 2229 2284 2282 2258 2195 2239 2212 2180 2157 2171 2162 2193 2121 2094 2190 2260 2165 2140 2128 2082 2143 2092 2027 2069 2029 2073 2011 2099 1979 2079 2067 2085 2038 2057 2134 2059 2070 2129 2094 2120 1997 2025 2117 1995 2144 1983 1998 1985 2031 2062 2009 2017 2000 1910 1978 1858 2006 2010 1878 1945 1884 1974 1924 1941 1974 1953 2002 1955 1942 1878 2000 1925 1900 1983 1897 1937 1841 1854 1825 1842 1872 1861 1873 1883 1843 1824 1767 1785 1797 1773 1754 1825 1804 1879 1858 1743 1748 1800 1749 1631 1637 1726 1719 1747 1731 1677 1692 1682 1695 1639 1725 1678 1682 1602 1690 1643 1662 1698 1629 1605 1628 1650 1662 1537 1602 1616 1519 1569 1600 1596 1584 1606 1577 1596 1598 1632 1653 1560 1545 1638 1548 1588 1536 1588 1598 1600 1596 1540 1594 1565 1528 1604 1590 1612 1563 1583 1568 1630 1493 1581 1552 1471 1593 1623 1607 1649 1587 1637 1566 1622 1673 1638 1602 1601 1627 1593 1661 1689 1631 1617 1697 1642 1642 1660 1608 1599 1649 1642 1609 1604 1709 1589 1622 1572 1604 1607 1581 1602 1611 1619 1590 1546 1575 1617 1607 1583 1652 1617 1551 1625 1634 1557 1603 1516 1556 1560 1648 1539 1626 1576 1618 1621 1583 1523 1574 1607 1621 1614 1634 1655 1534 1564 1573 1637 1647 1566 1602 1564 1552 1639 1622 1580 1559 1544 1497 1633 1570 1542 1636 1570 1535 1553 1513 1646 1635 1575 1595 1608 1576 1606 1593 1628 1572 1593 1602 1671 1573 1561 1589 1527 1623 1589 1613 1660 1577 1640 1599 1651 1605 1571 1570 1590 1569 1651 1564 1611 1631 1534 1593 1578 1590 1609 1648 1603 1527 1606 1536 1553 1563 1584 1643 1592 1645 1613 1570 1576 1586 1604 1562 1576 1548 1544 1604 1629 1612 1552 1556 1506 1577 1536 1605 1505 1527 1547 1547 1562 1545 1597 1666 1624 1582 1562 1580 1604 1600 1578 1568 1649 1511 1499 1546 1605 1568 1529 1491 1576 1502 1537 1599 1587 1578 1620 1485 1526 1511 1533 1542 1542 1585 1573 1597 1570 1523 1506 1550 1498 1521 1488 1545 1536 1494 1595 1471 1534 1553 1501 1472 1473 1543 1446 1609 1561 1541 1541 1557 1484 1609 1541 1466 1499 1559 1472 1463 1571 1553 1477 1542 1535 1567 1595 1605 1539 1616 1548 1539 1545 1619 1532 1516 1609 1609 1586 1574 1534 1611 1550 1567 1594 1508 1627 1589 1561 1705 1557 1471 1582 1562 1643 1559 1544 1611 1588 1485 1507 1600 1612 1532 1512 1557 1595 1543 1570 1509 1561 1562 1626 1544 1529 1523 1494 1599 1500 1567 1550 1554 1553 1529 1585 1618 1625 1497 1534 1504 1489 1585 1578 1562 1526 1540 1589 1536 1622 1534 1449 1582 1462 1619 1544 1538 1584 1480 1447 1558 1636 1554 1553 1517 1544 1530 1528 1495 1567 1539 1578 1500 1564 1613 1509 1465 1497 1510 1539 1605 1512 1522 1553 1542 1530 1550 1590 1479 1564 1518 1574 1546 1511 1475 1486 1484 1486 1503 1525 1496 1573 1539 1496 1536 1487 1588 1515 1552 1548 1472 1586 1519 1496 1561 1499 1552 1535 1503 1509 1544 1567 1569 1525 1511 1598 1437 1482 1435 1533 1518 1452 1524 1517 1505 1523 1521 1535 1493 1554 1413 1538 1504 1568 1569 1507 1550 1516 1565 1499 1580 1519 1525 1602 1464 1533 1514 1531 1587 1512 1549 1487 1581 1579 1459 1504 1542 1478 1450 1500 1505 1544 1454 1552 1543 1496 1500 1506 1561 1494 1510 1485 1532 1473 1501 1449 1461 1463 1566 1496 1564 1485 1474 1466 1480 1518 1525 1505 1507 1479 1493 1542 1484 1500 1462 1533 1549 1528 1540 1557 1543 1499 1511 1506 1554 1536 1502 1472 1474 1562 1530 1543 1499 1507 1488 1510 1475 1483 1497 1490 1539 1511 1453 1517 1456 1495 1495 1515 1575 1442 1481 1523 1516 1563 1491 1510 1495 1591 1552 1521 1579 1567 1561 1441 1442 1541 1580 1492 1565 1538 1559 1546 1463 1525 1551 1554 1502 1512 1494 1497 1567 1554 1474 1477 1567 1576 1523 1454 1618 1512 1515 1481 1520 1573 1540 1532 1549 1565 1578 1533 1596 1541 1536 1577 1618 1523 1669 1558 1526 1576 1622 1497 1603 1641 1544 1622 1591 1573 1530 1623 1651 1560 1583 1547 1539 1632 1605 1674 1546 1550 1625 1610 1641 1618 1626 1616 1575 1630 1631 1546 1585 1496 1549 1631 1602 1628 1579 1581 1593 1551 1514 1576 1632 1534 1597 1592 1567 1643 1595 1577 1651 1577 1576 1624 1561 1558 1638 1531 1616 1587 1697 1651 1609 1664 1701 1625 1660 1605 1587 1669 1690 1686 1703 1688 1638 1673 1660 1714 1686 1685 1731 1702 1702 1675 1677 1702 1809 1776 1743 1756 1759 1797 1666 1712 1729 1793 1767 1717 1712 1711 1779 1846 1809 1778 1813 1804 1741 1753 1792 1761 1767 1813 1739 1805 1834 1799 1703 1820 1817 1776 1876 1734 1712 1720 1730 1718 1776 1690 1759 1791 1758 1773 1756 1808 1786 1763 1826 1773 1716 1797 1738 1745 1717 1820 1755 1767 1822 1810 1811 1772 1788 1729 1792 1637 1767 1775 1762 1730 1704 1823 1787 1711 1682 1808 1782 1761 1716 1778 1756 1793 1779 1768 1765 1764 1835 1785 1788 1662 1767 1797 1741 1744 1726 1749 1740 1688 1757 1674 1659 1615 1693 1667 1641 1691 1618 1695 1645 1707 1636 1651 1600 1676 1618 1659 1610 1617 1548 1666 1653 1616 1601 1547 1587 1575 1506 1608 1600 1582 1563 1556 1551 1579 1569 1589 1588 1548 1525 1504 1561 1597 1524 1562 1540 1610 1614 1594 1566 1583 1500 1529 1624 1561 1577 1528 1567 1615 1609 1581 1572 1549 1537 1578 1527 1534 1590 1565 1578 1540 1629 1552 1549 1589 1551 1602 1608 1553 1614 1580 1618 1555 1539 1571 1611 1641 1654 1611 1570 1597 1566 1539 1575 1583 1549 1619 1564 1603 1514 1563 1577 1601 1609 1638 1601 1559 1612 1562 1598 1546 1607 1679 1627 1569 1630 1553 1596 1577 1593 1620 1558 1616 1547 1582 1556 1506 1480 1605 1591 1528 1541 1623 1567 1605 1616 1554 1607 1619 1575 1553 1538 1550 1590 1586 1580 1566 1553 1566 1583 1597 1664 1615 1611 1564 1668 1655 1629 1717 1630 1722 1686 1639 1663 1644 1686 1682 1627 1676 1709 1742 1681 1738 1687 1711 1735 1716 1778 1786 1713 1745 1771 1661 1793 1725 1743 1779 1722 1771 1705 1742 1734 1707 1752 1720 1678 1802 1814 1732 1667 1737 1733 1737 1765 1601 1810 1737 1709 1703 1725 1705 1738 1695 1708 1694 1665 1663 1735 1738 1710 1709 1685 1692 1761 1708 1741 1688 1665 1690 1761 1737 1651 1699 1658 1644 1708 1719 1714 1719 1757 1714 1747 1824 1646 1665 1746 1722 1727 1619 1770 1726 1723 1700 1686 1733 1695 1817 1718 1674 1752 1733 1691 1663 1748 1683 1737 1666 1713 1722 1755 1709 1753 1645 1688 1700 1692 1711 1686 1680 1642 1662 1673 1670 1660 1687 1633 1614 1656 1614 1634 1691 1636 1651 1721 1660 1699 1578 1573 1664 1756 1726 1667 1702 1643 1729 1622 1603 1618 1616 1635 1595 1627 1592 1721 1680 1682 1636 1715 1758 1710 1627 1691 1710 1759 1761 1703 1740 1632 1698 1686 1638 1685 1834 1622 1741 1654 1617 1708 1693 1665 1712 1686 1682 1726 1690 1662 1728 1774 1690 1686 1656 1716 1676 1677 1713 1705 1656 1775 1657 1602 1731 1704 1673 1623 1827 1657 1633 1649 1661 1644 1703 1642 1659 1705 1686 1634 1577 1602 1626 1662 1650 1695 1657 1573 1557 1613 1654 1650 1625 1524 1567 1499 1604 1622 1614 1554 1586 1641 1529 1591 1598 1526 1630 1536 1648 1546 1593 1529 1600 1540 1543 1575 1621 1529 1610 1560 1576 1547 1569 1552 1532 1616 1578 1564 1511 1544 1522 1571 1522 1566 1516 1482 1552 1534 1581 1553 1485 1533 1507 1499 1520 1564 1540 1519 1604 1468 1497 1518 1541 1516 1545 1548 1597 1576 1524 1489 1481 1617 1535 1568 1490 1441 1574 1526 1571 1535 1564 1564 1525 1576 1574 1571 1572 1552 1624 1540 1553 1522 1559 1556 1519 1571 1589 1565 1579 1538 1613 1485 1526 1557 1582 1609 1553 1612 1539 1542 1520 1620 1598 1555 1606 1589 1625 1570 1581 1568 1584 1529 1637 1567 1657 1602 1613 1608 1599 1640 1647 1599 1570 1579 1554 1636 1578 1601 1593 1663 1571 1611 1582 1586 1585 1627 1572 1579 1569 1604 1653 1579 1561 1540 1602 1591 1597 1562 1597 1547 1574 1524 1568 1566 1543 1536 1556 1576 1594 1602 1536 1560 1579 1591 1571 1540 1558 1543 1524 1462 1595 1593 1609 1554 1525 1483 1539 1539 1551 1601 1545 1516 1572 1562 1538 1555 1466 1533 1509 1488 1520 1497 1561 1636 1531 1536 1522 1526 1525 1549 1482 1563 1548 1633 1506 1466 1571 1479 1534 1512 1548 1518 1458 1599 1553 1619 1563 1545 1593 1519 1509 1544 1495 1520 1531 1464 1528 1524 1467 1539 1510 1479 1537 1526 1551 1457 1508 1534 1497 1541 1542 1562 1507 1541 1474 1492 1551 1564 1540 1514 1551 1517 1519 1550 1483 1548 1528 1475 1513 1509 1522 1472 1534 1527 1541 1521 1478 1570 1523 1578 1601 1561 1508 1557 1519 1556 1579 1551 1497 1592 1481 1552 1482 1553 1552 1562 1485 1523 1527 1523 1576 1525 1521 1548 1572 1541 1576 1490 1560 1536 1537 1493 1627 1503 1595 1554 1542 1585 1501 1547 1549 1544 1573 1528 1581 1579 1631 1567 1503 1568 1490 1565 1554 1589 1541 1521 1585 1538 1571 1640 1579 1560 1537 1555 1570 1561 1555 1547 1530 1535 1532 1536 1549 1575 1595 1578 1601 1533 1615 1602 1592 1580 1518 1518 1582 1604 1524 1560 1540 1604 1507 1516 1558 1544 1465 1577 1569 1588 1518 1548 1597 1494 1603 1563 1605 1603 1593 1503 1566 1503 1530 1506 1592 1621 1618 1537 1575 1492 1554 1494 1545 1601 1487 1498 1551 1559 1471 1625 1566 1502 1541 1565 1486 1653 1565 1460 1557 1552 1618 1594 1530 1513 1481 1566 1606 1605 1545 1567 1578 1559 1577 1525 1543 1538 1524 1507 1547 1449 1487 1597 1647 1500 1486 1605 1549 1527 1494 1517 1511 1554 1580 1529 1520 1579 1463 1619 1516 1521 1554 1651 1666 1631 1580 1582 1541 1540 1510 1626 1579 1548 1520 1573 1579 1607 1626 1590 1579 1542 1588 1592 1554 1549 1504 1554 1623 1573 1615 1533 1588 1641 1593 1579 1641 1556 1638 1575 1648 1555 1528 1502 1558 1612 1578 1599 1539 1577 1577 1600 1485 1581 1508 1557 1552 1510 1641 1591 1591 1595 1581 1535 1584 1551 1557 1599 1506 1556 1532 1518 1551 1527 1525 1542 1609 1584 1509 1536 1650 1512 1651 1590 1516 1526 1534 1584 1550 1576 1525 1570 1553 1559 1588 1591 1514 1518 1497 1601 1567 1532 1606 1559 1596 1538 1593 1567 1592 1583 1544 1617 1513 1555 1519 1606 1593 1570 1529 1563 1540 1551 1559 1605 1539 1544 1548 1538 1591 1526 1586 1575 1586 1595 1633 1556 1543 1567 1573 1523 1525 1617 1549 1548 1536 1554 1553 1565 1531 1527 1577 1572 1590 1524 1536 1524 1563 1585 1504 1497 1568 1509 1562 1457 1531 1520 1481 1633 1597 1565 1617 1458 1526 1560 1539 1527 1566 1521 1495 1551 1561 1536 1494 1532 1510 1553 1597 1554 1495 1621 1491 1533 1471 1505 1550 1590 1582 1457 1532 1534 1551 1539 1532 1563 1478 1552 1502 1566 1546 1576 1473 1555 1516 1526 1471 1512 1579 1478 1552 1539 1550 1493 1486 1497 1468 1523 1557 1488 1493 1502 1501 1543 1471 1471 1501 1535 1537 1514 1497 1475 1527 1493 1555 1555 1503 1555 1491 1466 1555 1518 1559 1439 1575 1549 1574 1556 1504 1491 1506 1556 1564 1559 1532 1553 1574 1511 1479 1584 1583 1587 1569 1532 1458 1469 1512 1482 1559 1422 1503 1566 1511 1518 1465 1536 1514 1495 1549 1627 1517 1558 1524 1556 1566 1540 1540 1539 1593 1561 1507 1454 1477 1523 1500 1520 1538 1454 1573 1643 1566 1470 1522 1611 1519 1593 1541 1500 1559 1540 1506 1571 1647 1581 1557 1558 1537 1459 1604 1569 1536 1640 1518 1590 1562 1580 1519 1602 1566 1589 1553 1490 1502 1553 1524 1516 1596 1474 1517 1559 1588 1524 1571 1563 1532 1607 1519 1655 1591 1562 1561 1560 1567 1563 1466 1526 1534 1583 1573 1596 1573 1588 1627 1621 1556 1613 1525 1535 1616 1491 1610 1558 1560 1548 1539 1508 1499 1564 1535 1566 1490 1610 1556 1563 1499 1595 1553 1543 1594 1499 1555 1548 1634 1536 1569 1587 1552 1590 1580 1561 1619 1549 1479 1623 1545 1609 1579 1581 1542 1614 1595 1562 1549 1630 1574 1510 1558 1615 1644 1541 1622 1615 1615 1589 1555 1565 1597 1600 1540 1573 1602 1579 1583 1507 1593 1654 1624 1626 1638 1581 1637 1562 1549 1563 1575 1573 1597 1730 1600 1579 1606 1676 1548 1607 1554 1542 1542 1601 1587 1600 1502 1554 1581 1649 1518 1626 1587 1571 1540 1532 1623 1573 1578 1580 1576 1581 1635 1562 1511 1556 1494 1525 1567 1533 1545 1689 1595 1510 1501 1507 1534 1631 1524 1522 1602 1586 1498 1525 1505 1570 1543 1529 1604 1527 1529 1587 1545 1606 1535 1565 1562 1492 1516 1582 1578 1560 1558 1479 1624 1553 1521 1552 1544 1544 1566 1526 1562 1526 1512 1448 1521 1541 1554 1561 1575 1533 1542 1468 1463 1587 1511 1557 1451 1584 1571 1519 1538 1504 1465 1487 1546 1500 1512 1522 1554 1483 1449 1560 1514 1559 1515 1564 1543 1515 1515 1468 1453 1482 1518 1529 1540 1565 1531 1426 1545 1558 1494 1544 1548 1568 1530 1593 1527 1500 1480 1561 1550 1486 1558 1461 1544 1510 1473 1518 1510 1531 1561 1578 1529 1529 1534 1643 1567 1477 1526 1518 1532 1489 1538 1500 1584 1532 1563 1509 1569 1506 1489 1573 1517 1478 1539 1538 1472 1562 1519 1539 1485 1544 1501 1550 1482 1588 1502 1527 1529 1536 1535 1535 1508 1479 1597 1539 1456 1554 1502 1493 1493 1556 1495 1519 1590 1558 1508 1544 1481 1535 1549 1579 1512 1454 1528 1498 1534 1513 1515 1520 1562 1595 1513 1625 1566 1475 1558 1526 1498 1559 1492 1538 1513 1508 1530 1539 1544 1516 1461 1605 1536 1504 1566 1526 1534 1525 1587 1547 1493 1649 1482 1549 1510 1573 1570 1500 1527 1564 1538 1610 1461 1509 1502 1526 1512 1549 1501 1583 1488 1585 1584 1487 1481 1573 1554 1548 1541 1541 1516 1577 1593 1518 1469 1510 1500 1492 1523 1507 1489 1480 1515 1502 1509 1535 1489 1581 1528 1492 1577 1506 1563 1543 1490 1543 1567 1560 1541 1518 1545 1504 1502 1472 1549 1527 1521 1499 1534 1557 1492 1458 1488 1508 1560 1564 1589 1513 1476 1497 1600 1543 1516 1523 1554 1483 1464 1495 1486 1516 1509 1576 1563 1519 1505 1623 1522 1513 1574 1466 1458 1486 1462 1500 1529 1531 1526 1514 1509 1556 1530 1541 1472 1505 1517 1477 1508 1545 1484 1551 1514 1530 1534 1489 1511 1513 1516 1531 1480 1593 1495 1561 1526 1511 1573 1554 1527 1559 1549 1573 1565 1593 1593 1484 1587 1637 1547 1588 1538 1484 1507 1598 1585 1547 1555 1536 1569 1505 1467 1555 1583 1547 1585 1516 1570 1445 1570 1549 1536 1608 1623 1606 1556 1553 1491 1535 1551 1532 1533 1573 1549 1512 1541 1548 1493 1515 1493 1518 1562 1573 1563 1525 1510 1528 1550 1516 1581 1587 1573 1569 1527 1528 1493 1501 1565 1540 1498 1598 1571 1543 1549 1533 1561 1646 1563 1494 1491 1563 1588 1585 1584 1572 1598 1592 1578 1595 1611 1582 1575 1572 1453 1559 1528 1522 1538 1495 1508 1486 1550 1576 1565 1581 1566 1529 1471 1576 1527 1592 1654 1545 1580 1515 1528 1513 1520 1590 1550 1525 1546 1551 1609 1594 1534 1535 1636 1509 1563 1542 1575 1496 1553 1549 1505 1628 1507 1598 1580 1562 1612 1518 1592 1539 1523 1487 1587 1517 1561 1525 1508 1591 1595 1504 1514 1544 1509 1573 1655 1590 1617 1634 1566 1598 1600 1531 1538 1524 1597 1612 1606 1595 1582 1511 1535 1557 1593 1563 1557 1585 1532 1628 1517 1585 1546 1615 1563 1548 1533 1574 1544 1588 1567 1564 1563 1602 1570 1621 1586 1634 1580 1595 1593 1608 1561 1604 1582 1593 1529 1568 1653 1589 1653 1540 1640 1612 1542 1542 1558 1541 1577 1540 1524 1583 1574 1551 1566 1551 1630 1611 1636 1568 1563 1580 1524 1575 1603 1598 1639 1590 1558 1627 1615 1601 1620 1501 1639 1556 1534 1575 1546 1615 1588 1610 1609 1594 1573 1650 1618 1586 1558 1621 1680 1638 1599 1553 1621 1553 1582 1557 1635 1640 1622 1637 1627 1610 1631 1594 1629 1628 1633 1592 1615 1510 1614 1671 1619 1589 1571 1552 1591 1576 1549 1546 1608 1537 1624 1518 1608 1610 1552 1637 1622 1596 1639 1663 1634 1632 1604 1662 1651 1540 1607 1651 1631 1638 1634 1603 1660 1702 1658 1686 1634 1655 1628 1648 1643 1639 1690 1624 1598 1625 1642 1621 1647 1613 1640 1594 1612 1640 1612 1651 1641 1689 1653 1609 1632 1574 1624 1581 1574 1643 1604 1655 1618 1669 1691 1663 1669 1634 1642 1608 1708 1673 1600 1511 1622 1565 1642 1561 1616 1527 1624 1599 1647 1578 1527 1604 1611 1567 1654 1604 1629 1589 1618 1549 1623 1569 1565 1644 1635 1609 1579 1537 1624 1601 1620 1653 1658 1592 1663 1641 1698 1677 1617 1589 1612 1602 1717 1622 1579 1591 1598 1599 1662 1635 1655 1620 1572 1578 1643 1616 1528 1650 1709 1638 1585 1617 1694 1577 1670 1635 1659 1654 1698 1605 1685 1694 1635 1660 1656 1662 1669 1718 1641 1692 1634 1748 1691 1653 1735 1656 1725 1657 1652 1691 1630 1681 1591 1694 1699 1636 1704 1689 1659 1706 1654 1642 1760 1732 1738 1652 1724 1725 1723 1710 1714 1691 1696 1684 1689 1741 1701 1688 1644 1712 1658 1682 1640 1694 1685 1690 1667 1586 1686 1627 1673 1665 1579 1656 1700 1609 1609 1630 1643 1637 1635 1654 1534 1673 1643 1575 1680 1670 1613 1643 1615 1649 1643 1602 1717 1620 1680 1691 1626 1729 1701 1683 1692 1715 1685 1612 1686 1735 1654 1645 1729 1696 1685 1700 1634 1786 1686 1684 1669 1632 1748 1534 1689 1693 1734 1589 1706 1788 1715 1731 1724 1714 1710 1727 1677 1698 1657 1731 1621 1688 1717 1686 1720 1750 1654 1812 1678 1651 1717 1661 1663 1677 1743 1681 1675 1731 1651 1696 1720 1665 1654 1703 1647 1638 1679 1681 1726 1649 1565 1674 1658 1633 1620 1664 1606 1636 1654 1672 1702 1638 1686 1688 1633 1661 1657 1571 1640 1613 1602 1653 1650 1653 1607 1564 1608 1624 1606 1624 1610 1650 1601 1599 1679 1601 1597 1626 1559 1619 1619 1665 1585 1683 1655 1627 1638 1660 1620 1688 1631 1650 1699 1643 1602 1657 1638 1610 1582 1649 1663 1576 1731 1674 1658 1584 1560 1697 1633 1587 1575 1689 1626 1634 1602 1617 1632 1644 1537 1727 1632 1659 1660 1714 1615 1669 1645 1598 1549 1640 1607 1609 1670 1660 1665 1547 1689 1613 1691 1629 1623 1669 1610 1619 1592 1596 1651 1508 1631 1634 1638 1600 1592 1521 1621 1656 1597 1617 1554 1572 1620 1605 1649 1695 1600 1567 1617 1575 1607 1539 1528 1566 1578 1573 1599 1608 1597 1613 1604 1508 1597 1599 1613 1568 1653 1579 1578 1640 1573 1570 1557 1531 1572 1624 1603 1628 1601 1591 1568 1570 1506 1540 1518 1601 1492 1621 1581 1501 1581 1592 1520 1609 1585 1588 1608 1587 1627 1588 1552 1601 1573 1511 1590 1610 1582 1583 1556 1578 1506 1606 1553 1602 1613 1538 1611 1555 1525 1598 1597 1603 1526 1592 1504 1534 1543 1636 1565 1541 1514 1646 1552 1548 1551 1667 1583 1536 1578 1604 1612 1559 1604 1583 1557 1594 1544 1571 1606 1591 1589 1589 1579 1659 1593 1599 1583 1628 1549 1577 1543 1501 1544 1549 1579 1580 1588 1553 1519 1568 1598 1591 1608 1532 1521 1590 1596 1602 1619 1619 1554 1507 1593 1643 1620 1573 1483 1499 1538 1595 1542 1601 1560 1525 1607 1567 1593 1520 1597 1585 1567 1549 1557 1555 1591 1516 1566 1575 1643 1520 1568 1681 1519 1607 1563 1551 1520 1605 1549 1621 1563 1630 1595 1591 1531 1632 1597 1577 1568 1605 1528 1549 1573 1637 1581 1635 1641 1571 1678 1602 1593 1600 1637 1642 1524 1543 1606 1521 1566 1566 1527 1596 1565 1548 1531 1555 1612 1562 1572 1591 1591 1558 1643 1516 1598 1560 1576 1579 1571 1561 1546 1556 1545 1531 1536 1534 1542 1583 1570 1641 1584 1557 1555 1574 1594 1554 1582 1607 1592 1588 1623 1563 1497 1560 1618 1509 1581 1619 1577 1519 1617 1637 1575 1488 1545 1560 1513 1614 1543 1500 1576 1529 1561 1512 1570 1606 1647 1529 1583 1556 1613 1593 1513 1577 1626 1557 1595 1609 1521 1494 1532 1572 1626 1527 1577 1523 1603 1592 1543 1591 1575 1610 1616 1554 1556 1633 1594 1585 1575 1605 1619 1596 1580 1573 1587 1679 1576 1597 1594 1655 1601 1566 1602 1567 1603 1599 1549 1602 1644 1572 1528 1585 1575 1567 1658 1569 1504 1564 1568 1563 1564 1501 1618 1644 1680 1646 1611 1616 1598 1638 1577 1534 1584 1527 1586 1550 1581 1630 1599 1571 1597 1578 1621 1645 1562 1588 1560 1517 1579 1608 1650 1585 1650 1586 1531 1593 1692 1569 1596 1570 1616 1516 1611 1665 1587 1617 1616 1609 1575 1623 1617 1605 1584 1658 1575 1574 1632 1561 1650 1556 1584 1611 1548 1606 1580 1601 1608 1626 1612 1619 1659 1503 1601 1582 1603 1604 1590 1498 1571 1606 1607 1608 1583 1613 1595 1577 1588 1694 1633 1616 1595 1556 1581 1603 1616 1556 1558 1547 1605 1596 1525 1606 1570 1568 1603 1541 1600 1575 1552 1566 1519 1612 1583 1613 1562 1572 1643 1624 1545 1492 1557 1574 1607 1524 1570 1651 1487 1611 1639 1579 1618 1612 1496 1616 1567 1593 1487 1596 1582 1563 1700 1546 1609 1620 1603 1579 1587 1607 1553 1566 1587 1548 1577 1547 1598 1574 1604 1577 1619 1632 1554 1577 1575 1650 1560 1569 1559 1660 1586 1547 1564 1527 1567 1557 1517 1616 1588 1556 1586 1644 1618 1606 1683 1597 1558 1585 1598 1503 1624 1596 1646 1641 1555 1636 1537 1503 1561 1559 1587 1547 1588 1514 1583 1619 1598 1510 1646 1574 1532 1613 1518 1607 1600 1607 1643 1623 1657 1544 1581 1619 1517 1514 1536 1581 1572 1590 1551 1672 1581 1557 1685 1532 1636 1559 1632 1547 1532 1652 1607 1635 1600 1543 1561 1558 1597 1674 1605 1533 1595 1585 1653 1607 1527 1588 1531 1576 1621 1594 1596 1616 1638 1544 1578 1596 1552 1587 1588 1578 1564 1597 1628 1554 1549 1579 1531 1572 1586 1598 1576 1561 1592 1614 1570 1618 1660 1614 1605 1619 1609 1574 1697 1573 1598 1630 1587 1612 1564 1580 1606 1673 1631 1606 1665 1575 1589 1578 1580 1583 1611 1596 1613 1614 1645 1608 1651 1628 1611 1621 1584 1655 1628 1662 1660 1643 1654 1593 1633 1609 1642 1639 1697 1688 1709 1674 1649 1650 1636 1719 1677 1701 1634 1706 1777 1614 1627 1644 1685 1696 1668 1629 1765 1609 1621 1643 1715 1631 1720 1696 1624 1718 1607 1598 1626 1558 1598 1628 1709 1668 1567 1660 1596 1639 1594 1612 1590 1564 1648 1702 1544 1647 1597 1637 1573 1623 1620 1692 1592 1607 1625 1630 1687 1662 1630 1638 1584 1704 1658 1636 1590 1716 1599 1633 1618 1622 1616 1629 1649 1581 1602 1613 1700 1613 1607 1633 1639 1596 1687 1654 1655 1718 1588 1692 1665 1575 1693 1677 1661 1622 1756 1710 1763 1675 1675 1616 1625 1725 1607 1667 1696 1587 1608 1738 1657 1646 1590 1645 1664 1723 1691 1669 1730 1712 1688 1761 1662 1664 1657 1662 1733 1680 1715 1675 1629 1629 1733 1679 1670 1720 1612 1788 1616 1706 1600 1629 1744 1645 1586 1647 1614 1630 1625 1664 1638 1659 1695 1739 1633 1678 1652 1639 1677 1581 1625 1658 1606 1602 1703 1670 1679 1731 1633 1653 1586 1617 1617 1688 1573 1632 1618 1601 1594 1610 1569 1599 1611 1576 1686 1657 1632 1698 1602 1655 1692 1629 1529 1737 1589 1632 1682 1516 1719 1589 1629 1664 1605 1589 1612 1664 1579 1647 1637 1671 1602 1662 1623 1659 1576 1622 1593 1622 1617 1568 1680 1586 1642 1656 1631 1651 1608 1651 1678 1644 1645 1649 1594 1660 1661 1652 1551 1628 1626 1635 1749 1674 1688 1638 1615 1598 1667 1666 1617 1648 1606 1656 1639 1706 1626 1603 1603 1657 1619 1591 1574 1728 1585 1629 1643 1692 1655 1662 1642 1620 1587 1663 1580 1588 1662 1633 1616 1658 1598 1528 1675 1664 1679 1674 1636 1680 1602 1556 1608 1588 1621 1713 1646 1647 1703 1597 1625 1590 1607 1605 1664 1564 1583 1699 1602 1616 1661 1574 1692 1601 1614 1576 1543 1680 1619 1665 1576 1567 1526 1572 1649 1630 1673 1542 1608 1627 1624 1614 1566 1650 1623 1542 1679 1605 1615 1687 1574 1583 1574 1611 1593 1594 1717 1577 1600 1598 1636 1587 1554 1614 1612 1548 1635 1611 1614 1650 1616 1651 1597 1602 1575 1588 1636 1512 1618 1687 1664 1596 1598 1633 1612 1694 1603 1583 1529 1593 1573 1615 1608 1669 1586 1574 1612 1606 1608 1681 1633 1544 1555 1646 1627 1587 1657 1638 1547 1607 1643 1623 1553 1644 1607 1692 1650 1705 1603 1660 1572 1631 1610 1489 1659 1571 1651 1669 1722 1588 1580 1602 1598 1595 1620 1605 1647 1606 1638 1578 1606 1633 1603 1616 1589 1631 1571 1653 1544 1635 1552 1672 1645 1595 1572 1616 1643 1629 1620 1626 1603 1656 1621 1566 1665 1598 1648 1608 1584 1587 1548 1649 1556 1560 1581 1478 1691 1563 1570 1551 1608 1624 1558 1589 1544 1642 1637 1580 1635 1622 1585 1536 1632 1561 1593 1573 1579 1595 1546 1646 1595 1574 1599 1647 1667 1564 1586 1645 1541 1556 1653 1625 1569 1551 1610 1620 1521 1651 1624 1604 1591 1555 1645 1675 1623 1666 1637 1635 1696 1576 1632 1614 1598 1663 1636 1617 1538 1646 1587 1639 1616 1575 1579 1640 1591 1603 1547 1517 1573 1648 1663 1655 1568 1724 1585 1634 1640 1622 1546 1578 1592 1629 1615 1544 1621 1596 1622 1593 1591 1588 1540 1588 1561 1562 1567 1587 1631 1598 1671 1598 1620 1623 1626 1608 1604 1573 1566 1556 1525 1519 1618 1559 1612 1595 1635 1647 1585 1586 1621 1609 1561 1577 1603 1626 1561 1584 1601 1556 1623 1585 1566 1533 1660 1567 1571 1610 1602 1619 1559 1621 1588 1627 1592 1572 1618 1632 1602</counts>
			</dataPoints>
		</scan>
	</xrdMeasurement>
</xrdMeasurements>
