<?xml version="1.0"?>
<xrdMeasurements xmlns="http://www.xrdml.com/XRDMeasurement/2.3" xmlns:xsi="http://www.w3.org/2001/XMLSchema-instance" xsi:schemaLocation="http://www.xrdml.com/XRDMeasurement/2.3 http://www.xrdml.com/XRDMeasurement/2.3/XRDMeasurement.xsd" status="Completed" recordIdentifier="{9B368DEB-FDD0-48AE-9DFD-149BF6E20D46}">
	<comment>
		<entry/>
	</comment>
	<sample type="To be analyzed">
		<id>GPSS_Li2Ca0p2Mg0p6Sn0p2Cl4_102025_68f72594028f64128e25d0d1</id>
		<name></name>
		<preparedBy></preparedBy>
	</sample>
	<xrdMeasurement measurementType="Scan" status="Completed" sampleMode="Reflection">
		<usedWavelength intended="K-Alpha 1">
			<kAlpha1 unit="Angstrom">1.5405980</kAlpha1>
			<kAlpha2 unit="Angstrom">1.5444260</kAlpha2>
			<kBeta unit="Angstrom">1.3922500</kBeta>
			<ratioKAlpha2KAlpha1>0.5000</ratioKAlpha2KAlpha1>
		</usedWavelength>
		<incidentBeamPath>
			<radius unit="mm">145.00</radius>
			<xRayTube id="1010048" name="Empyrean Cu LFF HR (9430 033 7310x)">
				<tension unit="kV">40.0</tension>
				<current unit="mA">15.0</current>
				<anodeMaterial>Cu</anodeMaterial>
				<focus type="Line">
					<length unit="mm">12.0</length>
					<width unit="mm">0.4</width>
					<takeOffAngle unit="deg">6.0</takeOffAngle>
				</focus>
			</xRayTube>
			<sollerSlit id="21010002" name="Soller slits 0.04 rad.">
				<opening unit="rad">0.0400</opening>
			</sollerSlit>
			<mask id="22031000" name="Fixed mask 13 mm">
				<width unit="mm">9.00</width>
			</mask>
			<divergenceSlit id="22120001" name="Divergence slit 1°" xsi:type="fixedDivergenceSlitType">
				<distanceToSample unit="mm">50.00</distanceToSample>
				<height unit="mm">1.52</height>
			</divergenceSlit>
		</incidentBeamPath>
		<sampleMovement xsi:type="spinningSampleMovementType">
			<spinnerRevolutionTime unit="seconds">1.0</spinnerRevolutionTime>
		</sampleMovement>
		<diffractedBeamPath>
			<radius unit="mm">145.00</radius>
			<antiScatterSlit id="22090040" name="AS slit 9 mm (PIXcel)" xsi:type="fixedAntiScatterSlitType">
				<height unit="mm">9.00</height>
			</antiScatterSlit>
			<sollerSlit id="21020003" name="Large Soller slits 0.04 rad.">
				<opening unit="rad">0.0400</opening>
			</sollerSlit>
			<filter id="20030001" name="Large beta-filter Nickel">
				<material>Ni</material>
				<thickness unit="mm">0.020</thickness>
			</filter>
			<detector id="7010019" name="PIXcel1D-Medipix3 detector" xsi:type="rtmsDetectorType">
				<phd unit="keV">
					<lowerLevel>4.02</lowerLevel>
					<upperLevel>11.27</upperLevel>
				</phd>
				<mode>Scanning</mode>
				<activeLength unit="deg">5.542</activeLength>
			</detector>
		</diffractedBeamPath>
		<scan appendNumber="0" mode="Continuous" scanAxis="Gonio" status="Completed">
			<header>
				<startTimeStamp>2025-10-26T16:19:15-07:00</startTimeStamp>
				<endTimeStamp>2025-10-26T16:27:22-07:00</endTimeStamp>
				<author>
					<name>AutomatedUser</name>
				</author>
				<source>
					<applicationSoftware version="1.7b (136)">PANalytical Aeris Instrument Suite</applicationSoftware>
					<instrumentControlSoftware version="3.2.00000000 20240306">AERIS</instrumentControlSoftware>
					<instrumentID>950485</instrumentID>
				</source>
			</header>
			<dataPoints>
				<positions axis="2Theta" unit="deg">
					<startPosition>10.00943322</startPosition>
					<endPosition>99.99442286</endPosition>
				</positions>
				<positions axis="Omega" unit="deg">
					<startPosition>5.00471661</startPosition>
					<endPosition>49.99721143</endPosition>
				</positions>
				<commonCountingTime unit="seconds">12.495</commonCountingTime>
				<counts unit="counts">2617 2699 2571 2588 2654 2742 2816 2684 2652 2564 2593 2589 2713 2618 2708 2684 2643 2649 2688 2664 2646 2586 2742 2693 2666 2701 2702 2627 2671 2676 2635 2611 2607 2556 2710 2725 2622 2717 2655 2571 2690 2613 2702 2572 2559 2724 2693 2625 2658 2673 2642 2716 2671 2744 2617 2646 2636 2620 2691 2751 2585 2668 2742 2710 2692 2661 2704 2790 2730 2791 2574 2742 2607 2645 2688 2690 2618 2687 2740 2675 2724 2666 2684 2659 2682 2670 2664 2589 2548 2773 2638 2639 2675 2679 2635 2564 2673 2628 2625 2644 2676 2725 2657 2703 2729 2635 2728 2668 2592 2802 2722 2612 2690 2743 2742 2695 2697 2654 2675 2654 2665 2667 2718 2594 2699 2623 2709 2642 2659 2667 2661 2687 2635 2660 2620 2654 2688 2567 2720 2652 2555 2668 2708 2741 2677 2720 2652 2666 2593 2697 2655 2559 2660 2603 2644 2730 2625 2622 2637 2630 2582 2666 2585 2587 2649 2759 2709 2682 2555 2664 2616 2599 2582 2732 2581 2673 2665 2637 2664 2545 2597 2687 2658 2583 2684 2574 2659 2589 2659 2590 2709 2635 2596 2659 2596 2553 2671 2615 2673 2609 2606 2607 2650 2578 2633 2569 2572 2620 2552 2583 2593 2551 2551 2525 2493 2576 2437 2526 2476 2651 2599 2600 2550 2519 2562 2583 2559 2581 2488 2436 2506 2528 2485 2628 2469 2547 2622 2581 2548 2450 2568 2462 2477 2580 2437 2520 2498 2483 2493 2455 2530 2511 2502 2491 2482 2478 2503 2561 2477 2510 2490 2538 2478 2522 2433 2524 2462 2376 2492 2494 2475 2522 2454 2448 2611 2504 2496 2356 2502 2463 2416 2410 2427 2516 2506 2421 2467 2451 2453 2472 2496 2559 2449 2502 2558 2506 2531 2462 2516 2489 2524 2543 2491 2479 2442 2552 2533 2533 2504 2486 2458 2499 2453 2502 2553 2426 2592 2497 2502 2486 2425 2531 2464 2525 2503 2478 2541 2544 2482 2542 2417 2482 2578 2466 2535 2531 2643 2590 2484 2542 2532 2537 2620 2534 2650 2520 2537 2571 2571 2532 2624 2484 2442 2600 2489 2550 2646 2578 2604 2559 2620 2620 2627 2506 2636 2690 2685 2677 2563 2692 2611 2584 2744 2638 2604 2685 2527 2723 2634 2631 2634 2631 2658 2784 2744 2655 2692 2692 2715 2719 2708 2608 2720 2775 2629 2702 2771 2766 2697 2657 2599 2705 2765 2706 2739 2669 2757 2810 2757 2874 2849 2833 2772 2822 2842 2914 2830 2861 2938 2969 2994 2947 2887 2935 2936 2987 3082 2977 2935 3001 3000 3070 3061 3134 2996 3131 3016 3093 2996 2979 3072 3028 3220 3065 3170 3116 3106 3065 3070 3074 2995 3070 2923 2955 3077 2915 3044 2937 2903 2862 2798 2823 2874 2821 2994 2698 2819 2865 2876 2834 2932 2894 2832 2869 2897 2844 2862 2840 2864 2845 2885 2791 2789 2811 2810 2804 2827 2765 2810 2804 2804 2862 2814 2822 2755 2713 2781 2777 2757 2747 2646 2694 2678 2759 2736 2785 2780 2648 2782 2662 2775 2694 2749 2738 2659 2662 2713 2791 2677 2614 2669 2669 2580 2681 2634 2724 2697 2683 2629 2597 2690 2641 2568 2512 2642 2627 2613 2653 2542 2685 2612 2606 2660 2609 2661 2544 2596 2688 2646 2544 2643 2589 2643 2570 2591 2472 2466 2543 2612 2564 2606 2604 2507 2544 2558 2579 2530 2600 2659 2582 2505 2457 2451 2607 2520 2446 2460 2508 2470 2501 2502 2406 2450 2462 2380 2416 2478 2413 2486 2481 2465 2363 2470 2430 2440 2496 2445 2411 2508 2453 2453 2366 2469 2319 2460 2392 2435 2465 2323 2327 2487 2334 2309 2404 2349 2442 2471 2395 2321 2355 2453 2443 2390 2326 2385 2285 2362 2299 2350 2249 2384 2317 2314 2195 2318 2267 2281 2356 2289 2266 2374 2265 2334 2379 2286 2235 2395 2357 2309 2390 2328 2383 2341 2372 2345 2259 2326 2335 2346 2246 2257 2373 2355 2246 2356 2271 2179 2321 2205 2228 2277 2325 2239 2282 2275 2337 2275 2313 2241 2310 2289 2318 2212 2303 2209 2267 2179 2248 2234 2223 2176 2208 2133 2218 2197 2276 2204 2164 2201 2230 2247 2216 2241 2324 2303 2168 2221 2192 2185 2253 2251 2130 2262 2236 2327 2143 2264 2167 2158 2146 2226 2261 2175 2283 2163 2187 2271 2211 2133 2194 2197 2106 2221 2240 2222 2152 2146 2232 2184 2243 2206 2229 2246 2140 2229 2151 2302 2119 2222 2151 2160 2179 2129 2204 2251 2268 2136 2180 2271 2197 2169 2168 2115 2171 2187 2148 2138 2153 2215 2020 2053 2161 2210 2093 2060 2121 2230 2165 2159 2216 2009 2177 2166 2137 2097 2129 2134 2230 2119 2108 2071 2166 2128 1985 2107 2162 2150 2154 2063 2125 2130 2116 2066 2118 2133 2072 2074 2138 2131 1971 2106 2061 2101 2094 2088 2017 2080 2116 2015 2166 2160 2130 2126 2091 2109 2108 2038 2093 2148 2033 2120 2052 2059 2110 2000 2104 2056 2104 2070 2001 2054 2066 2103 2029 2057 2117 2098 2062 2029 2057 2078 2105 2032 2047 2040 2037 2104 2007 2041 1988 2076 2035 2051 2012 2083 2074 1944 2017 2038 2015 2020 2070 2101 2053 2041 2093 1972 2123 1986 2053 2083 2028 2042 2089 1979 2041 1976 2089 2099 2033 2045 2170 2068 2112 2054 2149 2227 2114 2193 2189 2242 2194 2245 2239 2151 2221 2226 2237 2205 2321 2287 2208 2264 2298 2306 2309 2223 2330 2191 2272 2158 2190 2148 2076 2119 2115 2049 2126 2015 2065 1983 2011 2004 2003 1933 2021 1870 1927 1884 1990 1990 1935 1924 1906 1954 1975 1968 1907 1961 1927 1938 1984 1907 2014 1983 1922 1896 1867 1889 1912 2014 1978 1934 1950 1877 1962 1888 2028 1860 1904 1986 1906 1914 1900 1878 1965 1818 1941 2012 1953 1908 1899 1904 1956 1932 1922 1841 1894 1886 1847 1920 1821 1888 1870 1844 1880 1917 1957 1799 1974 1868 1901 1883 1885 1914 1815 1807 1840 1783 1839 1923 1949 1956 1842 1872 1901 1843 1911 1898 1858 1847 1835 1812 1876 1813 1876 1920 1791 1887 1872 1881 1876 1847 1847 1943 1810 1935 1819 1826 1836 1885 1933 1825 1877 1847 1841 1807 1827 1817 1866 1835 1784 1847 1836 1824 1838 1771 1883 1831 1845 1848 1882 1808 1868 1922 1808 1915 1828 1831 1857 1838 1816 1816 1919 1803 1915 1845 1821 1751 1760 1875 1945 1823 1802 1805 1697 1805 1834 1891 1763 1779 1736 1852 1931 1805 1831 1831 1863 1948 1895 1862 1842 1834 1834 1893 1801 1828 1892 1865 1783 1884 1759 1769 1887 1780 1892 1907 1876 1843 1823 1814 1826 1861 1865 1758 1806 1871 1919 1835 1761 1861 1799 1831 1804 1825 1789 1739 1815 1804 1860 1780 1755 1849 1788 1836 1902 1689 1785 1793 1757 1772 1742 1751 1785 1761 1770 1788 1760 1792 1833 1709 1849 1922 1824 1784 1778 1793 1739 1852 1711 1792 1748 1729 1820 1803 1851 1678 1764 1719 1670 1866 1683 1764 1738 1754 1768 1820 1721 1777 1725 1800 1791 1797 1714 1687 1673 1711 1745 1712 1713 1747 1740 1659 1781 1753 1713 1614 1687 1689 1691 1709 1762 1645 1711 1626 1600 1655 1733 1752 1759 1669 1581 1724 1495 1644 1649 1654 1629 1597 1658 1669 1542 1642 1603 1494 1622 1644 1648 1623 1630 1563 1623 1617 1535 1574 1575 1615 1567 1481 1530 1476 1553 1538 1536 1510 1552 1567 1547 1574 1521 1574 1587 1541 1560 1487 1564 1450 1501 1473 1507 1418 1455 1456 1507 1518 1567 1439 1506 1480 1480 1495 1525 1412 1492 1455 1463 1499 1461 1518 1487 1380 1456 1447 1456 1473 1410 1427 1421 1369 1448 1462 1397 1453 1486 1391 1471 1424 1432 1424 1360 1432 1487 1361 1452 1436 1458 1391 1429 1384 1431 1429 1449 1379 1452 1372 1406 1369 1398 1366 1327 1370 1349 1370 1426 1349 1372 1343 1295 1346 1350 1351 1401 1340 1352 1330 1371 1346 1315 1367 1294 1341 1343 1356 1312 1364 1341 1351 1308 1347 1272 1395 1353 1326 1367 1261 1334 1366 1305 1332 1310 1326 1338 1345 1270 1324 1298 1332 1378 1267 1293 1396 1309 1205 1261 1313 1262 1304 1321 1289 1321 1353 1339 1257 1313 1312 1302 1339 1303 1212 1273 1285 1316 1310 1278 1342 1285 1347 1338 1362 1254 1249 1315 1286 1357 1256 1347 1402 1337 1284 1311 1354 1294 1290 1321 1323 1329 1342 1329 1327 1381 1341 1385 1331 1352 1266 1315 1299 1271 1351 1322 1330 1370 1366 1370 1379 1368 1332 1417 1469 1379 1434 1421 1324 1385 1347 1422 1369 1357 1330 1444 1400 1383 1326 1363 1404 1291 1326 1442 1358 1349 1347 1307 1323 1404 1374 1356 1327 1386 1359 1459 1378 1378 1336 1369 1348 1394 1294 1273 1333 1357 1374 1330 1361 1316 1297 1268 1389 1332 1394 1284 1318 1387 1380 1296 1317 1317 1324 1405 1383 1346 1372 1390 1359 1297 1358 1324 1333 1354 1347 1315 1340 1357 1424 1372 1385 1354 1373 1283 1349 1374 1324 1373 1346 1454 1357 1363 1412 1365 1375 1341 1351 1346 1341 1435 1323 1347 1233 1295 1390 1352 1345 1341 1295 1341 1384 1313 1298 1408 1360 1362 1354 1265 1336 1272 1376 1209 1277 1315 1261 1292 1272 1252 1309 1230 1288 1278 1308 1285 1335 1315 1303 1294 1321 1265 1294 1259 1275 1208 1267 1253 1243 1241 1262 1233 1168 1265 1227 1126 1206 1161 1218 1204 1141 1196 1155 1255 1246 1183 1187 1172 1152 1185 1236 1205 1170 1188 1211 1117 1171 1206 1178 1123 1193 1163 1126 1176 1153 1155 1179 1086 1126 1136 1142 1126 1109 1152 1143 1112 1099 1108 1112 1052 1084 1124 1100 1123 1120 1067 1047 1052 1154 1105 1084 1119 1089 1133 1031 1089 1013 1093 1135 1075 1097 1123 1098 1087 1122 1067 1077 1033 1032 1158 1093 1189 1052 1115 1065 1189 1148 1144 1146 1183 1113 1146 1105 1181 1134 1145 1121 1199 1154 1241 1243 1158 1210 1217 1214 1184 1178 1176 1194 1086 1197 1174 1235 1188 1055 1210 1114 1200 1117 1124 1133 1098 1081 1094 1077 1088 1059 1069 1047 1028 1035 1070 1063 1049 986 1000 1001 999 1046 1027 1041 1040 1026 950 1045 1002 1014 997 984 956 1027 993 991 1051 1033 1033 990 975 1019 999 1020 1051 1095 1064 1045 1026 1140 1062 1103 1156 1137 1155 1203 1193 1213 1223 1258 1377 1275 1399 1387 1453 1434 1434 1434 1448 1496 1578 1508 1530 1549 1622 1543 1661 1685 1683 1769 1674 1724 1741 1852 1773 1893 1869 2014 2061 2248 2247 2439 2473 2566 2560 2781 2854 2924 3091 3176 3131 3329 3331 3502 3448 3636 3496 3747 3474 3565 3594 3597 3440 3452 3321 3237 2892 2956 2661 2807 2492 2602 2431 2541 2212 2369 2276 2256 2263 2435 2393 2493 2415 2519 2486 2610 2662 2686 2710 3000 2847 2853 2790 3027 2913 3183 3040 3021 2835 2970 2700 2769 2450 2470 2323 2317 2088 1985 1889 1795 1575 1561 1463 1377 1282 1295 1264 1163 1145 1080 1103 1033 1026 1055 980 1017 887 931 909 967 934 940 969 921 923 959 976 933 973 900 909 962 933 844 916 900 855 855 841 856 910 855 822 865 795 822 741 822 793 800 786 783 806 777 778 823 788 832 808 801 766 769 813 795 802 821 798 778 767 800 788 810 799 793 818 801 803 796 844 803 873 846 877 868 937 961 915 924 969 855 942 943 979 925 952 922 922 893 932 912 992 896 890 867 889 913 883 815 827 793 851 862 809 777 789 782 804 717 715 725 772 729 719 724 753 755 777 759 748 750 799 774 804 738 757 777 739 743 776 812 770 786 769 823 806 838 848 815 844 790 847 834 858 819 815 830 810 842 805 784 791 735 816 732 741 723 766 705 759 699 732 748 771 735 724 701 756 772 766 735 717 689 815 736 669 691 708 724 732 710 741 732 706 725 713 680 705 743 757 700 760 701 723 681 694 688 675 701 669 693 720 688 719 640 684 721 694 745 669 699 683 687 686 695 731 676 678 741 719 714 730 749 715 704 717 715 724 715 761 707 717 702 715 718 729 730 747 720 713 661 682 666 717 689 710 663 663 724 716 733 724 671 694 711 687 682 710 743 690 732 710 694 692 658 726 702 720 698 640 640 680 635 699 783 696 682 684 648 699 648 729 688 683 666 716 677 721 656 682 705 673 720 707 709 698 694 655 781 721 747 721 755 704 744 739 712 738 723 731 679 734 741 750 783 778 749 804 751 716 758 752 826 792 821 835 794 805 802 798 787 834 817 882 865 855 857 838 843 918 926 949 1022 1064 1128 1126 1184 1233 1360 1412 1459 1592 1713 1771 1938 2114 2258 2328 2548 2768 2827 2942 3197 3362 3427 3538 3685 3676 3735 3757 3771 3636 3452 3307 3406 3096 2942 2759 2732 2582 2496 2360 2244 2087 2000 1956 1812 1754 1634 1682 1615 1657 1555 1635 1636 1615 1572 1753 1700 1828 1821 1968 2021 2271 2247 2492 2421 2658 2610 2694 2650 2724 2712 2793 2568 2584 2463 2501 2283 2387 2241 2108 2026 1992 1790 1728 1635 1494 1452 1373 1308 1234 1111 1226 1024 1000 885 955 824 899 834 749 791 760 793 750 703 798 679 715 721 667 674 705 655 740 618 670 681 648 676 689 671 653 632 629 647 663 661 593 659 621 637 611 605 590 593 601 656 576 607 620 566 619 589 575 584 580 543 566 558 579 607 591 568 590 551 576 588 589 563 582 589 588 558 544 559 608 612 591 561 536 600 568 565 616 570 566 565 619 560 585 595 590 500 608 581 573 622 553 592 584 546 590 597 611 589 555 541 549 582 536 577 590 555 583 557 629 591 579 559 558 540 528 580 577 566 522 569 523 517 513 514 565 584 568 510 537 506 545 535 553 550 535 551 591 551 525 584 562 556 571 554 540 562 563 549 512 539 563 558 521 517 571 508 517 558 570 576 522 564 562 563 546 524 536 538 511 567 532 589 561 557 560 525 529 522 535 509 542 531 535 517 486 567 546 532 535 585 544 560 550 506 522 540 499 540 506 528 540 511 535 565 510 575 524 519 527 514 563 499 505 504 510 528 540 550 554 541 539 536 554 563 531 481 517 497 534 505 563 560 577 554 464 522 565 525 502 554 501 476 516 523 500 534 548 519 522 503 550 485 544 549 541 504 536 526 515 521 534 498 525 551 597 582 557 503 575 574 577 631 636 642 678 668 621 703 687 657 731 670 698 732 639 632 696 668 636 659 678 586 594 620 615 594 570 568 622 617 598 584 590 578 607 603 595 623 598 614 636 682 645 654 713 699 701 723 739 766 789 796 763 851 795 841 814 783 831 776 760 780 746 717 731 689 707 658 678 650 653 604 606 579 594 634 550 555 494 565 526 536 514 568 533 498 502 521 528 519 486 514 503 496 495 477 525 466 495 493 485 515 458 456 476 462 489 477 462 450 470 469 487 528 473 457 484 475 487 461 459 463 450 453 487 425 459 483 458 452 500 448 470 475 466 472 489 474 454 455 471 458 452 468 481 514 455 470 441 435 473 473 506 455 465 477 453 516 499 485 490 454 467 501 435 449 488 478 485 427 448 428 519 431 467 466 515 501 504 456 480 504 495 459 549 565 591 555 576 575 549 608 598 626 591 550 566 636 573 585 594 598 568 607 592 628 596 597 565 606 573 587 567 526 572 548 491 514 514 494 508 494 494 468 476 479 449 489 464 459 426 445 462 430 458 430 444 439 446 440 460 472 453 473 491 464 465 463 416 448 439 440 427 468 484 495 444 476 472 476 473 493 423 437 471 474 502 433 457 449 470 466 503 430 467 472 480 455 474 484 456 469 486 493 445 455 458 471 431 508 422 478 463 385 476 431 448 458 442 408 424 436 474 404 431 454 450 410 479 459 437 459 474 443 433 460 451 449 451 452 428 449 471 488 437 425 399 452 486 442 459 453 457 453 426 437 437 514 435 445 439 465 451 466 424 469 462 435 428 433 460 446 434 458 431 423 431 448 455 409 419 411 492 424 442 428 448 448 455 433 435 447 390 403 389 449 413 425 409 449 426 418 385 430 397 445 437 425 423 433 466 391 401 420 402 410 440 407 429 479 449 424 432 433 417 438 425 463 416 426 426 469 444 450 477 438 469 422 490 454 490 488 404 444 450 453 468 439 472 479 464 454 466 470 460 518 472 470 508 486 477 492 488 457 478 450 466 489 490 481 454 448 460 431 444 465 438 436 412 465 448 456 436 459 417 416 418 400 423 410 420 416 393 443 451 435 429 433 443 432 433 468 447 461 478 456 464 444 430 489 516 554 481 527 482 518 483 565 530 578 524 520 532 516 521 516 526 527 531 478 509 495 535 510 480 514 534 473 475 446 461 433 443 427 489 421 415 407 445 423 396 440 396 412 385 411 431 427 453 418 357 429 379 409 394 399 379 433 375 391 427 359 386 368 428 381 399 399 381 374 388 409 398 366 383 388 395 373 382 383 414 386 436 363 399 356 401 384 367 402 390 422 422 418 379 375 386 356 388 452 390 406 413 380 421 409 429 398 404 389 401 413 365 421 416 444 404 381 388 422 397 415 378 418 386 391 439 434 386 450 393 442 364 406 445 418 426 455 420 442 424 431 471 479 457 508 504 545 568 618 572 566 620 599 600 569 636 621 691 637 691 677 677 683 668 661 607 693 638 646 612 607 607 594 645 587 575 538 494 506 521 486 517 464 449 488 465 443 458 494 464 406 395 413 419 433 392 401 406 446 367 444 398 406 430 431 407 430 401 378 360 423 412 436 398 388 376 389 423 401 440 395 422 391 425 419 424 380 353 421 437 399 419 403 409 422 388 376 379 397 391 418 374 394 352 380 402 378 353 379 372 366 386 397 379 377 380 384 356 363 362 364 372 358 341 414 377 382 354 360 356 384 390 383 365 367 380 379 381 372 384 377 361 356 374 390 312 363 357 401 392 381 369 372 350 391 393 369 373 401 376 309 356 370 363 328 354 372 378 340 381 360 374 357 373 333 327 340 359 355 347 376 362 385 361 365 345 359 359 372 353 348 358 361 355 385 368 383 354 371 353 378 349 369 363 382 392 387 380 395 384 388 396 352 364 384 370 352 402 414 384 388 358 420 396 380 398 364 389 341 365 378 371 379 406 354 409 415 419 433 419 430 453 473 457 486 505 485 518 500 551 522 557 574 545 559 546 554 511 538 530 550 519 522 509 531 535 505 545 556 508 482 428 469 470 448 439 432 443 453 491 401 386 413 401 423 412 402 429 430 409 436 423 439 426 473 402 443 441 425 469 380 466 438 425 449 433 451 451 449 446 427 432 465 371 437 441 494 465 424 433 422 441 384 420 393 390 401 436 347 412 378 450 387 406 389 371 409 416 376 406 373 402 391 406 430 426 416 431 444 431 430 392 446 410 429 449 448 425 441 439 460 445 481 484 529 480 536 462 517 521 533 475 443 518 486 497 542 500 555 477 510 527 567 534 560 545 593 619 666 687 707 814 871 958 976 1066 1215 1281 1377 1550 1663 1873 1894 2030 2134 2120 2252 2314 2305 2428 2498 2507 2509 2688 2648 2715 2639 2580 2524 2542 2424 2465 2411 2292 2364 2137 2051 1846 1726 1681 1594 1489 1331 1300 1272 1249 1212 1139 1075 1002 902 921 802 753 745 734 743 728 682 780 721 757 711 742 709 763 806 854 823 850 921 940 1014 1036 1153 1158 1193 1257 1301 1365 1308 1491 1468 1549 1652 1618 1652 1643 1646 1736 1666 1707 1609 1627 1656 1552 1518 1395 1455 1418 1327 1332 1263 1174 1113 1119 1079 923 920 905 853 830 800 704 671 659 621 604 585 542 548 519 571 511 487 463 434 439 425 442 401 444 420 452 432 372 429 398 387 406 406 393 357 368 381 370 424 399 401 433 385 387 406 399 364 446 387 357 398 392 411 354 360 408 367 416 445 421 432 397 413 434 413 429 414 438 388 358 426 427 439 399 412 404 403 415 399 447 394 441 347 378 392 392 406 387 450 402 390 394 402 402 412 368 385 378 386 384 417 375 391 382 373 391 378 391 406 380 407 418 419 430 430 434 421 403 447 408 399 439 418 441 432 424 437 470 444 450 443 449 460 479 484 475 456 494 471 441 510 448 454 470 468 410 436 427 427 438 419 460 396 422 421 423 446 396 421 424 411 372 430 428 368 386 365 376 388 374 383 384 361 376 361 374 396 388 369 407 375 383 369 406 352 382 382 403 355 364 371 356 391 359 367 327 339 354 383 346 343 341 356 332 322 360 343 358 340 335 320 341 339 302 347 330 314 349 321 320 330 327 296 342 315 317 337 368 344 342 315 318 321 347 337 342 320 318 343 320 324 329 323 305 353 340 328 336 325 354 325 346 313 329 306 314 332 291 317 287 317 353 339 344 341 309 300 328 301 316 323 363 332 342 335 337 321 309 290 326 328 317 350 333 345 296 330 372 321 318 319 312 310 337 355 299 329 327 300 310 295 278 304 362 330 335 293 321 292 318 308 318 301 297 317 267 320 301 304 307 321 344 322 343 301 332 314 291 308 315 313 303 298 288 296 327 307 285 293 307 279 335 294 305 298 280 322 306 283 349 301 309 294 305 284 330 288 298 288 315 335 285 335 332 308 349 325 316 290 330 316 328 351 298 314 341 312 327 335 312 340 359 398 334 354 367 341 362 352 373 323 357 361 366 348 345 332 343 374 350 340 329 384 321 337 328 343 351 340 316 323 358 285 312 318 359 326 334 316 311 344 294 356 331 330 302 338 286 315 313 320 332 283 305 350 309 335 307 290 317 271 291 333 295 285 305 325 304 300 298 317 296 304 286 264 302 333 309 269 277 302 299 272 301 293 302 311 287 298 293 302 259 307 264 284 277 286 273 297 313 270 319 280 305 286 286 299 277 295 299 284 285 275 286 340 302 305 304 298 294 286 268 295 276 285 276 307 274 269 272 271 237 331 242 307 290 299 288 242 295 267 293 297 272 231 285 262 246 264 292 290 249 303 248 293 258 262 257 321 274 291 268 279 291 259 266 302 294 306 284 291 296 283 264 297 297 263 261 308 270 279 281 335 293 305 276 300 282 312 293 270 302 284 273 282 260 277 264 272 286 303 289 290 277 285 267 308 278 295 310 302 307 271 269 294 281 293 302 280 298 247 263 289 280 291 283 271 281 271 289 241 276 262 280 293 256 283 286 275 267 244 293 288 306 263 291 313 249 279 296 289 305 276 275 314 295 291 306 318 284 302 287 279 262 266 280 268 287 281 302 275 288 248 289 288 275 262 286 281 304 295 262 274 301 282 297 280 305 298 256 291 263 289 269 310 284 269 299 274 284 322 278 294 295 326 287 313 301 311 290 337 304 334 304 307 286 306 311 327 332 306 322 295 315 315 325 325 308 334 335 320 313 288 302 306 294 297 269 311 328 299 327 331 309 325 326 294 329 293 316 341 309 337 322 320 321 315 313 355 351 388 388 414 445 456 468 461 542 524 526 537 564 609 584 647 670 763 733 780 740 760 778 868 904 835 863 907 927 890 928 945 912 985 939 956 882 935 925 916 883 910 819 841 742 777 800 726 676 685 635 611 611 594 527 534 477 563 455 473 456 475 464 422 454 435 435 417 403 433 409 411 444 412 417 422 411 431 407 413 459 452 452 450 471 513 525 464 496 564 551 574 555 595 626 598 656 640 660 680 709 739 727 733 751 776 820 830 798 844 834 867 860 853 777 812 816 776 718 773 744 689 688 697 711 696 661 665 619 584 609 558 553 566 482 528 501 470 506 478 397 401 403 393 387 392 377 366 385 327 309 308 358 355 310 327 304 284 312 313 283 285 279 315 289 282 328 287 276 322 300 266 308 293 290 275 242 279 274 287 260 292 262 259 245 279 296 277 319 286 268 288 320 276 302 316 295 318 274 320 320 302 335 312 326 305 296 277 347 318 320 339 348 343 334 350 339 317 342 349 363 332 363 350 349 346 349 324 340 318 306 343 333 313 329 331 352 321 338 311 337 313 327 316 299 274 311 317 296 308 318 293 280 280 314 310 293 291 293 316 310 303 292 275 296 302 322 329 337 350 339 398 387 383 383 426 394 449 464 517 534 509 581 552 608 622 679 655 732 656 719 681 708 718 727 712 717 703 722 710 700 707 692 665 609 599 636 559 573 577 566 566 528 488 505 477 476 425 440 406 397 413 364 369 378 373 404 371 400 336 380 338 382 370 307 353 325 320 347 353 353 324 332 353 359 342 332 339 367 360 331 351 310 343 340 341 378 382 401 382 414 333 394 402 430 441 436 397 479 458 457 522 499 529 500 563 571 496 529 551 526 535 553 553 520 507 525 477 475 457 510 472 508 436 456 437 402 419 428 386 354 429 395 376 375 351 348 352 335 338 326 298 268 297 305 278 292 281 305 270 290 272 267 272 230 277 273 245 277 281 260 250 236 241 306 249 286 263 267 260 258 264 239 261 224 250 260 244 239 266 266 233 243 257 261 234 266 249 244 268 245 235 244 259 310 249 275 217 293 262 277 300 290 277 300 301 339 314 343 319 337 347 351 341 350 342 335 345 357 349 340 309 366 313 309 329 326 363 309 359 309 321 307 318 277 282 308 306 290 299 312 299 304 261 311 293 296 289 238 302 221 291 237 267 259 280 275 270 274 261 264 284 268 264 258 261 271 239 225 247 246 280 251 264 238 266 268 237 256 279 236 231 231 212 235 242 265 238 232 240 216 245 226 263 227 260 250 239 243 208 232 266 267 246 237 243 202 250 263 288 256 229 271 264 238 265 228 271 263 261 235 275 263 272 257 270 266 265 246 246 267 269 292 245 272 256 231 270 267 270 256 238 303 242 269 224 249 239 237 250 261 235 290 273 293 298 282 238 257 288 280 283 231 242 239 248 266 216 275 250 278 261 233 297 300 259 264 258 249 236 249 245 276 237 243 249 247 256 247 233 248 240 229 211 235 265 232 216 222 225 207 206 222 226 243 243 234 217 248 236 238 210 231 244 258 233 240 275 222 244 203 243 231 250 257 231 231 257 201 244 214 216 242 237 234 243 258 227 275 236 199 215 235 213 207 203 231 206 276 232 241 205 220 219 239 207 242 214 216 257 225 233 216 247 244 235 221 225 235 201 244 217 226 244 225 232 219 204 214 222 201 224 223 231 241 204 230 185 233 203 231 224 199 230 217 195 238 220 225 214 240 203 243 205 206 219 214 208 227 237 257 213 205 234 231 196 182 204 211 222 193 204 201 228 241 193 195 201 236 210 209 225 209 215 200 200 211 220 233 213 226 225 211 237 230 217 225 223 219 207 221 214 217 213 217 197 223 207 231 215 188 220 215 214 209 210 193 210 220 222 224 207 219 189 208 191 243 220 227 194 240 201 213 196 202 190 195 155 219 197 203 228 214 184 186 191 207 192 203 179 220 231 234 208 202 217 221 207 195 219 221 195 215 203 204 210 209 183 179 219 222 200 202 222 185 220 198 212 210 196 226 198 193 209 198 209 201 205 217 221 208 190 188 234 194 195 193 208 213 203 213 196 200 211 211 194 210 192 207 214 202 212 205 231 173 205 227 221 230 203 192 209 202 177 212 187 208 180 190 214 172 249 221 208 208 194 218 194 211 196 198 211 219 232 234 197 215 215 198 218 230 240 301 230 230 233 267 217 251 262 263 261 233 276 259 274 274 256 256 262 276 274 215 269 225 249 298 216 278 265 245 274 232 281 228 248 278 231 250 237 207 259 244 262 264 261 239 216 209 225 226 206 220 211 264 211 256 210 243 179 187 178 245 228 203 206 195 192 191 185 206 177 220 220 182 190 215 230 224 199 193 183 184 196 196 200 200 211 188 212 217 185 222 193 216 194 184 195 193 194 186 186 208 200 219 200 236 202 187 204 210 213 196 173 184 195 213 208 215 192 193 219 200 192 208 235 209 268 205 207 244 236 246 204 226 216 215 212 207 194 202 219 208 215 237 221 201 229 230 226 222 207 229 223 206 232 223 204 226 187 183 174 220 208 215 198 230 203 199 193 207 228 200 171 234 229 192 219 214 225 203 212 217 208 210 197 205 202 200 230 217 213 220 189 221 214 227 211 217 211 235 232 231 215 204 237 229 234 208 216 257 215 232 249 236 242 241 263 215 208 225 209 208 237 201 231 249 224 217 244 263 237 217 229 236 230 212 220 184 236 219 218 182 234 200 214 211 223 220 208 208 217 197 243 193 211 214 220 202 179 210 181 238 235 206 214 208 184 200 221 221 184 196 211 193 205 211 231 220 229 221 214 235 228 214 205 236 215 220 206 188 213 226 237 258 228 241 223 273 256 273 270 297 281 286 302 348 317 328 371 372 395 358 360 395 434 385 366 373 363 399 404 375 377 442 433 400 403 411 387 371 405 355 340 347 372 356 352 327 341 278 334 338 309 289 283 287 297 281 271 245 269 277 277 257 213 243 256 233 235 268 270 264 256 238 223 228 213 232 211 257 221 226 217 220 215 208 230 226 190 217 218 191 177 213 192 227 213 202 199 209 220 225 232 220 210 224 223 233 241 225 214 248 212 236 239 235 235 263 259 266 269 261 263 282 285 278 285 278 331 316 321 289 299 301 297 296 284 355 305 292 298 292 319 322 319 296 278 311 312 285 312 322 258 307 302 297 262 290 230 280 237 234 261 266 261 244 239 233 238 228 266 192 232 209 231 208 233 227 217 207 213 227 212 219 207 221 233 209 179 215 192 212 177 213 239 224 203 187 208 184 210 210 229 216 218 205 238 231 211 228 216 196 212 223 205 209 205 229 208 219 200 192 233 203 227 201 224 204 203 238 216 229 213 180 216 192 185 170 211 191 227 192 203 202 188 190 210 194 210 204 189 228 224 225 219 210 236 188 195 216 196 194 197 193 207 200 204 212 190 210 183 194 174 180 219 200 201 213 214 205 217 180 213 186 199 182 191 221 208 200 201 225 202 193 218 187 197 189 209 205 188 204 221 196 198 178 210 215 189 212 204 185 198 195 191 195 196 173 186 173 179 206 205 192 188 207 218 202 180 197 201 184 208 196 222 206 192 174 200 193 187 202 200 190 179 158 202 199 186 199 214 196 197 170 182 234 203 218 206 202 226 226 207 214 192 222 215 202 208 182 220 241 203 202 231 231 240 213 210 226 220 226 260 278 243 235 229 210 241 262 227 274 231 242 233 263 217 248 267 236 257 246 221 224 240 214 224 227 250 233 239 218 230 226 245 230 288 219 244 257 238 249 228 213 223 222 204 240 214 225 228 215 196 220 217 206 217 207 222 227 223 238 204 213 200 201 199 206 209 217 183 197 209 191 184 189 199 193 175 190 205 207 203 211 200 199 182 189 189 190 202 167 176 193 160 183 200 202 183 203 192 209 201 207 176 193 198 171 199 190 186 189 201 207 189 221 185 195 193 198 216 188 229 207 222 175 197 193 192 183 200 203 188 198 199 203 200 229 220 211 196 221 195 198 194 212 225 202 206 196 183 215 195 187 190 198 177 230 228 213 182 209 189 202 214 210 169 221 182 246 199 191 240 192 217 235 215 227 187 220 225 217 203 199 224 181 204 214 189 186 205 218 222 214 210 216 212 202 220 187 217 203 228 206 220 202 256 210 216 223 230 217 236 199 206 224 202 242 223 216 211 213 202 192 205 234 227 227 245 226 277 242 236 232 235 226 224 259 257 193 239 256 263 220 245 232 244 245 217 234 229 206 250 240 230 214 226 224 232 229 226 227 203 218 267 219 245 257 241 229 224 244 244 216 216 258 236 263 248 276 290 256 242 238 263 265 275 236 246 244 212 268 289 272 243 270 282 269 277 266 279 271 276 246 261 256 281 270 274 237 226 257 238 288 263 234 242 196 272 250 237 261 218 237 222 273 242 262 235 259 231 275 240 232 268 231 266 242 269 235 262 296 269 284 304 281 302 312 325 337 308 317 358 367 358 365 366 388 406 356 380 392 358 394 362 374 371 365 363 349 385 363 375 354 364 347 348 339 391 329 357 370 345 336 331 351 342 354 329 300 318 286 308 303 294 286 278 288 243 241 243 291 242 263 246 262 284 244 240 246 229 235 261 238 226 247 213 236 226 229 229 221 229 212 225 228 236 238 256 262 209 227 188 206 219 218 230 225 226 205 211 223 212 194 223 230 249 261 200 211 247 224 229 223 271 264 215 245 236 223 285 256 299 256 271 285 285 331 293 295 297 338 326 353 326 339 361 370 358 379 361 372 425 393 393 394 407 395 385 417 445 370 369 408 392 395 409 372 389 396 376 370 348 365 369 347 342 351 320 334 346 320 305 301 312 312 324 314 308 322 266 305 299 301 276 286 264 225 288 264 265 273 231 226 259 223 241 216 245 273 237 231 256 276 250 259 220 225 240 217 234 209 218 273 228 240 256 244 248 248 264 242 245 275 267 270 292 287 276 305 345 354 351 349 350 370 414 473 430 470 439 504 492 551 510 534 543 604 552 624 607 611 587 612 593 615 600 642 574 592 567 591 529 551 553 591 573 484 536 511 535 535 547 498 510 463 501 523 477 471 475 440 393 418 407 379 406 382 397 345 335 347 375 310 367 315 304 292 332 286 283 289 286 321 287 248 292 295 257 264 256 259 283 261 282 260 271 226 215 267 237 247 258 228 233 221 244 237 231 271 229 257 243 242 274 266 271 242 269 263 295 241 234 263 256 288 259 300 275 295 246 288 307 335 312 309 310 324 339 330 322 344 352 348 366 353 366 406 399 409 402 409 401 401 433 433 419 456 418 450 438 483 457 480 450 443 481 449 460 466 484 436 432 434 464 439 445 431 449 448 442 402 384 409 427 406 374 400 374 374 337 396 351 376 393 337 359 337 339 329 371 317 319 345 353 321 326 338 330 313 338 319 305 299 297 320 302 264 312 316 275 277 280 300 265 265 207 246 261 257 235 205 261 262 228 264 232 227 219 275 225 236 240 191 206 203 201 237 233 236 237 225 217 218 224 228 205 211 209 193 219 213 196 189 214 213 203 230 202 221 221 199 193 205 232 208 182 217 209 181 210 217 212 221 212 245 237 213 206 223 206 217 207 225 218 192 207 199 237 208 202 162 212 201 204 174 187 189 203 192 214 188 189 202 218 172 200 184 199 186 198 188 203 203 193 206 183 203 205 152 173 206 196 212 200 178 165 207 194 195 178 180 172 183 236 192 194 179 192 190 191 184 179 204 181 175 176 204 202 181 185 186 181 188 177 194 186 185 199 206 174 172 192 200 183 167 188 190 185 199 187 188 182 185 176 183 149 179 196 183 207 182 172 193 201 212 191 176 210 185 190 185 222 197 218 208 202 208 217 196 168 191 224 199 226 226 205 185 214 203 224 181 219 188 204 182 195 193 210 192 205 217 199 195 217 197 220 179 209 186 181 183 175 184 184 188 212 164 197 170 181 183 184 169 159 214 187 201 176 196 177 179 189 179 210 162 191 214 183 168 188 190 183 169 178 215 179 176 182 191 181 175 175 211 182 178 175 180 194 190 200 177 178 186 174 185 193 168 182 187 208 191 181 199 201 203 167 168 164 174 210 170 176 198 197 190 203 186 199 165 189 195 170 196 207 193 179 201 208 178 216 192 197 195 192 198 194 159 187 148 187 187 207 181 182 189 197 165 162 207 167 201 182 186 192 184 179 192 159 175 211 191 214 207 203 195 195 183 177 204 181 173 161 168 176 194 187 159 181 184 187 175 184 170 189 199 171 198 194 194 180 211 174 173 193 193 187 184 189 174 154 187 186 216 191 171 164 169 199 176 183 181 191 192 156 191 210 178 169 195 174 207 202 220 203 184 193 225 197 177 201 199 208 200 197 199 173 206 187 193 197 203 197 224 208 211 206 220 216 188 204 203 201 202 236 219 235 215 233 228 237 242 236 242 234 223 234 206 220 225 198 219 221 240 203 194 205 214 228 204 228 233 223 210 238 231 200 262 209 239 217 223 238 241 226 217 219 209 204 247 229 206 227 260 199 217 212 207 201 193 206 168 212 185 171 205 211 209 205 205 185 193 185 210 190 191 228 200 203 194 217 222 229 214 227 187 206 214 215 225 198 199 211 174 237 201 211 189 181 170 218 180 208 189 197 190 182 187 206 194 200 169 203 223 197 213 187 212 227 193 209 215 217 199 206 214 215 200 192 185 201 206 195 197 180 202 209 200 218 189 227 189 207 219 198 175 206 171 177 196 223 207 214 218 198 184 220 210 234 189 217 203 216 202 194 206 201 196 203 182 197 200 182 220 203 209 194 203 206 223 205 182 222 192 212 210 203 208 192 181 164 185 208 226 209 171 181 194 176 227 193 201 208 179 193 211 194 200 202 199 165 195 210 202 198 209 178 211 217 206 213 180 195 203 221 177 230 209 203 192 221 226 182 197 183 223 192 177 197 205 193 211 178 226 223 205 223 188 231 194 199 227 193 191 221 197 199 208 183 242 236 247 258 236 215 208 217 216 230 225 236 228 228 232 221 230 222 269 276 240 264 275 261 295 307 321 348 362 331 401 398 372 386 402 460 479 520 490 459 488 476 496 486 516 475 487 503 521 465 503 467 460 415 481 430 462 444 459 495 419 401 408 464 462 443 448 426 440 449 384 419 351 407 365 379 341 349 375 364 336 341 313 329 323 313 300 296 291 316 289 281 313 267 245 287 286 272 264 267 237 226 257 256 215 232 228 262 209 211 241 208 242 246 259 236 230 231 248 232 227 258 246 220 225 225 230 215 242 215 256 218 216 206 219 233 221 196 230 229 209 229 213 221 241 228 216 262 196 233 217 247 238 231 229 243 215 259 216 233 267 262 277 266 258 259 320 211 270 271 257 308 283 310 306 290 285 293 328 344 314 350 353 353 396 364 385 441 401 388 422 422 414 434 463 422 441 465 451 467 437 464 421 474 410 449 461 405 425 460 441 444 450 447 394 453 404 398 411 419 403 443 411 430 399 356 409 333 349 406 348 330 341 332 331 330 347 308 318 305 306 351 274 319 274 281 276 282 242 247 217 272 229 243 217 242 237 217 236 238 231 212 197 219 228 198 183 206 218 196 203 187 202 189 199 208 192 232 192 171 189 193 187 184 207 190 200 210 222 180 202 212 196 215 201 173 169 208 187 192 202 215 192 233 215 221 182 204 205 186 196 186 197 173 203 212 173 201 188 196 167 184 187 185 227 217 192 205 189 204 183 215 188 199 206 176 223 195 200 193 193 194 191 176 199 185 181 180 185 187 217 200 187 199 187 230 195 185 178 196 170 219 188 209 211 202 192 191 177 163 172 183 184 163 192 201 200 188 178 178 190 200 184 165 202 173 176 205 177 192 167 193 193 182 181 205 190 196 216 197 189 198 167 181 170 190 181 198 208 198 204 192 183 174 194 181 163 179 180 209 198 207 184 219 204 202 191 190 195 181 209 196 206 203 163 217 168 154 175 206 183 198 180 185 177 174 220 168 182 171 185 174 177 185 178 208 186 173 195 183 203 185 178 194 171 204 181 156 185 201 188 218 186 178 180 215 193 198 163 201 196 169 186 169 189 178 207 209 187 191 187 198 223 206 214 186 185 212 182 165 178 183 213 185 204 205 176 204 177 174 188 170 183 182 168 191 174 179 199 184 214 178 231 177 177 194 196 193 169 168 191 174 208 205 195 189 180 194 165 187 161 199 191 192 202 198 207 198 198 185 204 182 184 175 189 175 186 183 190 178 168 175 155 182 170 166 167 180 201 185 185 193 170 155 181 207 181 197 169 198 198 188 189 193 174 182 186 183 197 205 189 211 186 194 167 176 200 167 191 199 181 180 190 162 178 194 161 213 171 198 202 185 168 196 188 167 215 192 216 177 203 208 180 206 169 211 151 172 199 197 183 199 202 182 170 197 203 186 199 199 179 161 185 197 194 202 206 172 222 200 230 200 178 188 183 210 200 209 208 199 246 214 224 240 284 238 242 270 248 246 242 262 279 241 283 227 261 230 299 241 257 316 236 284 279 302 273 248 272 262 261 250 259 245 248 244 290 277 267 273 276 249 231 268 263 270 237 249 304 248 281 264 267 263 303 273 267</counts>
			</dataPoints>
		</scan>
	</xrdMeasurement>
</xrdMeasurements>
