<?xml version="1.0"?>
<xrdMeasurements xmlns="http://www.xrdml.com/XRDMeasurement/2.3" xmlns:xsi="http://www.w3.org/2001/XMLSchema-instance" xsi:schemaLocation="http://www.xrdml.com/XRDMeasurement/2.3 http://www.xrdml.com/XRDMeasurement/2.3/XRDMeasurement.xsd" status="Completed" recordIdentifier="{C8825B02-2623-48B9-9665-3F5F9DD61FA7}">
	<comment>
		<entry/>
	</comment>
	<sample type="To be analyzed">
		<id>GPSS_Li2Fe0p5Zn0p5Cl4_111725_691b7e20f3837ac4a0a99370</id>
		<name></name>
		<preparedBy></preparedBy>
	</sample>
	<xrdMeasurement measurementType="Scan" status="Completed" sampleMode="Reflection">
		<usedWavelength intended="K-Alpha 1">
			<kAlpha1 unit="Angstrom">1.5405980</kAlpha1>
			<kAlpha2 unit="Angstrom">1.5444260</kAlpha2>
			<kBeta unit="Angstrom">1.3922500</kBeta>
			<ratioKAlpha2KAlpha1>0.5000</ratioKAlpha2KAlpha1>
		</usedWavelength>
		<incidentBeamPath>
			<radius unit="mm">145.00</radius>
			<xRayTube id="1010048" name="Empyrean Cu LFF HR (9430 033 7310x)">
				<tension unit="kV">40.0</tension>
				<current unit="mA">15.0</current>
				<anodeMaterial>Cu</anodeMaterial>
				<focus type="Line">
					<length unit="mm">12.0</length>
					<width unit="mm">0.4</width>
					<takeOffAngle unit="deg">6.0</takeOffAngle>
				</focus>
			</xRayTube>
			<sollerSlit id="21010002" name="Soller slits 0.04 rad.">
				<opening unit="rad">0.0400</opening>
			</sollerSlit>
			<mask id="22031000" name="Fixed mask 13 mm">
				<width unit="mm">9.00</width>
			</mask>
			<divergenceSlit id="22120001" name="Divergence slit 1°" xsi:type="fixedDivergenceSlitType">
				<distanceToSample unit="mm">50.00</distanceToSample>
				<height unit="mm">1.52</height>
			</divergenceSlit>
		</incidentBeamPath>
		<sampleMovement xsi:type="spinningSampleMovementType">
			<spinnerRevolutionTime unit="seconds">1.0</spinnerRevolutionTime>
		</sampleMovement>
		<diffractedBeamPath>
			<radius unit="mm">145.00</radius>
			<antiScatterSlit id="22090040" name="AS slit 9 mm (PIXcel)" xsi:type="fixedAntiScatterSlitType">
				<height unit="mm">9.00</height>
			</antiScatterSlit>
			<sollerSlit id="21020003" name="Large Soller slits 0.04 rad.">
				<opening unit="rad">0.0400</opening>
			</sollerSlit>
			<filter id="20030001" name="Large beta-filter Nickel">
				<material>Ni</material>
				<thickness unit="mm">0.020</thickness>
			</filter>
			<detector id="7010019" name="PIXcel1D-Medipix3 detector" xsi:type="rtmsDetectorType">
				<phd unit="keV">
					<lowerLevel>4.02</lowerLevel>
					<upperLevel>11.27</upperLevel>
				</phd>
				<mode>Scanning</mode>
				<activeLength unit="deg">5.542</activeLength>
			</detector>
		</diffractedBeamPath>
		<scan appendNumber="0" mode="Continuous" scanAxis="Gonio" status="Completed">
			<header>
				<startTimeStamp>2025-11-19T12:11:28-08:00</startTimeStamp>
				<endTimeStamp>2025-11-19T12:19:35-08:00</endTimeStamp>
				<author>
					<name>AutomatedUser</name>
				</author>
				<source>
					<applicationSoftware version="1.7b (136)">PANalytical Aeris Instrument Suite</applicationSoftware>
					<instrumentControlSoftware version="3.2.00000000 20240306">AERIS</instrumentControlSoftware>
					<instrumentID>950485</instrumentID>
				</source>
			</header>
			<dataPoints>
				<positions axis="2Theta" unit="deg">
					<startPosition>10.00943322</startPosition>
					<endPosition>99.99442286</endPosition>
				</positions>
				<positions axis="Omega" unit="deg">
					<startPosition>5.00471661</startPosition>
					<endPosition>49.99721143</endPosition>
				</positions>
				<commonCountingTime unit="seconds">12.495</commonCountingTime>
				<counts unit="counts">3104 3134 3140 3218 3115 3137 3133 3082 3117 3008 3143 3184 3058 3200 3219 3177 3169 3211 3071 3085 3183 3137 3163 3165 3145 3119 3157 3084 3225 3231 3137 3188 3185 3153 3068 3177 3090 3206 3246 3076 3222 3154 3186 3141 3255 3169 3106 3237 3166 3171 3211 3208 3211 3271 3137 3159 3268 3314 3256 3124 3233 3212 3233 3263 3282 3360 3327 3230 3345 3390 3330 3310 3233 3307 3220 3300 3354 3300 3243 3352 3325 3344 3283 3418 3270 3522 3356 3319 3387 3401 3403 3470 3503 3542 3465 3385 3558 3449 3517 3360 3283 3464 3362 3486 3438 3384 3435 3397 3323 3347 3400 3454 3439 3422 3438 3378 3413 3417 3389 3423 3407 3440 3428 3446 3410 3464 3462 3443 3446 3427 3479 3445 3383 3490 3437 3352 3290 3427 3326 3523 3384 3553 3454 3441 3414 3379 3408 3417 3438 3528 3421 3384 3457 3440 3405 3470 3448 3529 3482 3436 3437 3449 3347 3373 3396 3384 3402 3460 3462 3478 3494 3460 3499 3580 3456 3407 3359 3529 3392 3418 3422 3379 3460 3407 3383 3478 3371 3464 3550 3478 3469 3388 3379 3437 3345 3374 3442 3397 3344 3412 3344 3497 3301 3409 3427 3322 3436 3243 3372 3365 3387 3415 3308 3401 3460 3321 3318 3368 3281 3319 3403 3350 3284 3232 3469 3343 3375 3407 3421 3312 3291 3310 3328 3299 3278 3321 3234 3323 3318 3335 3402 3262 3395 3349 3314 3275 3270 3230 3316 3356 3270 3372 3248 3330 3335 3245 3365 3318 3318 3217 3297 3323 3353 3246 3348 3315 3244 3325 3243 3175 3316 3196 3290 3206 3354 3211 3455 3267 3271 3262 3261 3164 3322 3277 3324 3351 3234 3214 3367 3225 3306 3238 3352 3258 3377 3316 3258 3265 3274 3237 3238 3263 3334 3275 3259 3313 3282 3241 3208 3333 3347 3307 3252 3360 3354 3357 3338 3338 3374 3271 3414 3376 3320 3325 3341 3258 3307 3307 3484 3371 3306 3398 3377 3324 3328 3475 3420 3459 3425 3334 3354 3360 3381 3425 3410 3545 3456 3451 3405 3406 3369 3451 3506 3392 3366 3475 3485 3583 3440 3600 3620 3551 3488 3581 3462 3538 3696 3683 3633 3617 3521 3628 3685 3619 3693 3653 3721 3671 3629 3743 3686 3732 3695 3634 3687 3706 3702 3692 3783 3694 3744 3712 3780 3697 3578 3701 3691 3857 3741 3776 3741 3635 3700 3734 3682 3734 3746 3853 3821 3708 3724 3816 3747 3661 3799 3777 3788 3706 3778 3777 3684 3843 3965 3846 3725 3877 3791 3977 3894 3949 3958 3923 4003 4160 4027 4076 3945 4131 4049 4041 4049 4053 4002 3975 3870 3937 3853 3957 3896 4132 3915 3970 3843 3864 3872 3908 3821 3887 3827 3910 3826 3935 3918 3793 3705 3687 3801 3745 3767 3714 3725 3642 3661 3644 3516 3732 3671 3586 3623 3607 3527 3579 3465 3528 3565 3549 3550 3633 3550 3385 3539 3481 3574 3512 3523 3331 3429 3504 3397 3408 3533 3407 3536 3365 3358 3342 3400 3430 3497 3353 3365 3462 3389 3447 3370 3337 3269 3410 3381 3340 3383 3498 3289 3342 3329 3284 3458 3339 3393 3328 3402 3363 3252 3290 3314 3268 3435 3322 3252 3335 3279 3361 3281 3364 3249 3300 3379 3403 3379 3340 3240 3385 3256 3366 3359 3297 3285 3155 3267 3371 3437 3353 3336 3284 3285 3308 3308 3298 3247 3284 3181 3215 3335 3323 3265 3318 3343 3076 3244 3228 3195 3111 3187 3191 3144 3289 3154 3187 3160 3102 3232 3147 3028 3139 3179 3111 3138 3132 3150 3169 3029 3167 2982 3046 3159 3015 3025 3081 3063 3053 3041 2964 3103 3039 3036 3148 3146 3117 3028 3095 3075 3020 3034 2939 3040 3035 3064 3056 2995 3021 3065 3098 2968 3075 3007 2977 2996 2993 2918 3048 3057 2991 3104 3078 3071 2967 3096 2982 3121 3076 3054 3101 3132 3023 3000 3094 3097 3164 3180 3087 3006 3064 3208 3141 3026 3199 3160 3186 3060 3050 3112 3142 3037 3003 3105 2919 3017 3048 3048 3114 2966 2991 3046 2860 3095 2934 3000 2897 3056 2904 2899 3005 2999 2977 2986 2896 2896 2887 2908 3007 2963 2947 2922 2918 2874 2920 2918 3046 2959 2898 2962 2804 2926 2819 2846 2897 2998 2864 3024 2926 2880 2867 2992 2927 2900 2901 2968 2843 2964 3010 2961 2861 2850 2944 2978 2986 2929 2909 2934 3004 2866 2944 3044 2862 2990 2990 3035 3043 2971 2930 2980 2928 3057 2992 3043 2920 2974 2891 2933 2970 2859 2916 2936 2966 2927 2941 2927 2899 2911 2979 3104 2908 2952 2919 2944 2920 3017 2944 2906 2954 3023 3070 2930 3006 3002 3043 3102 3046 2992 3123 3154 3114 3197 3192 3105 3131 3217 3212 3244 3281 3064 3098 3070 3051 3145 2961 3075 3139 2937 2913 3003 2962 2976 3001 3082 3009 2977 2930 3013 2936 2921 2980 3012 2938 2966 2922 2895 2825 2766 2857 2802 2781 2762 2704 2774 2832 2803 2783 2799 2781 2793 2795 2786 2747 2733 2791 2668 2762 2721 2752 2717 2865 2772 2724 2739 2730 2862 2638 2649 2713 2715 2814 2723 2697 2601 2739 2639 2709 2711 2759 2805 2662 2721 2690 2625 2677 2748 2716 2739 2681 2826 2692 2670 2689 2642 2792 2687 2664 2608 2752 2641 2648 2709 2624 2636 2641 2687 2626 2742 2612 2673 2634 2739 2652 2719 2624 2633 2715 2788 2646 2585 2765 2650 2675 2648 2720 2647 2614 2676 2677 2514 2661 2714 2599 2596 2722 2558 2617 2685 2606 2668 2643 2603 2693 2649 2606 2618 2582 2564 2591 2661 2548 2680 2543 2550 2577 2561 2595 2594 2581 2601 2608 2573 2613 2625 2595 2574 2630 2604 2632 2720 2533 2608 2622 2528 2545 2623 2635 2573 2529 2649 2587 2529 2530 2569 2596 2600 2576 2588 2682 2551 2579 2546 2592 2504 2608 2647 2580 2588 2609 2514 2566 2548 2513 2563 2689 2571 2533 2515 2520 2536 2595 2452 2461 2602 2543 2530 2595 2605 2599 2597 2613 2604 2692 2598 2543 2624 2337 2555 2557 2586 2576 2487 2508 2637 2585 2643 2580 2586 2534 2562 2513 2651 2579 2530 2514 2583 2502 2612 2512 2591 2606 2503 2587 2624 2552 2508 2536 2618 2521 2496 2555 2607 2544 2582 2678 2647 2564 2527 2560 2591 2554 2566 2588 2558 2512 2553 2545 2591 2562 2588 2541 2529 2562 2548 2494 2592 2589 2514 2517 2621 2498 2559 2547 2519 2567 2532 2572 2536 2560 2631 2451 2501 2544 2514 2608 2563 2488 2512 2632 2637 2517 2598 2617 2666 2598 2591 2568 2620 2572 2548 2488 2584 2648 2504 2515 2617 2716 2528 2504 2588 2504 2523 2502 2567 2516 2508 2590 2490 2565 2427 2471 2519 2487 2492 2483 2439 2406 2489 2421 2493 2510 2464 2391 2477 2323 2412 2378 2457 2359 2323 2376 2333 2421 2438 2281 2393 2357 2475 2370 2365 2267 2326 2384 2370 2377 2280 2345 2349 2354 2318 2390 2299 2325 2289 2277 2327 2328 2317 2269 2338 2438 2309 2351 2327 2313 2245 2351 2247 2230 2214 2267 2319 2225 2327 2274 2224 2213 2278 2235 2353 2217 2203 2272 2213 2209 2202 2291 2148 2198 2115 2203 2200 2194 2173 2164 2101 2085 2221 2231 2192 2100 2183 2118 2197 2216 2195 2100 2169 2077 2087 1996 2102 2026 2084 2182 2132 2101 2001 2153 2017 2067 2124 2052 2057 2035 2030 1997 2034 2014 2064 1939 1976 1980 2058 2028 2019 2000 1992 1948 1934 2046 2016 1988 2017 2048 1984 1972 1999 2084 2036 2023 2013 1944 1945 1958 2017 2005 1911 1983 2031 1894 2004 1967 1898 1870 1986 1936 1876 1989 1969 2031 1973 1970 2147 2056 2034 2037 2056 2075 2076 2065 2152 2138 2238 2184 2325 2254 2242 2190 2327 2177 2277 2255 2218 2168 2089 2122 2069 2122 2021 2038 2068 2009 2036 2029 1956 1977 1953 2024 2037 1938 2007 1961 1983 1897 1910 1916 1899 1861 1896 1872 1899 1820 1890 1799 1910 1839 1836 1889 1786 1797 1831 1815 1803 1882 1836 1822 1766 1839 1825 1915 1793 1853 1833 1972 1874 1906 1846 1855 1895 1794 1840 1854 1803 1842 1851 1796 1821 1853 1769 1835 1815 1774 1709 1895 1794 1904 1819 1837 1852 1869 1802 1803 1853 1798 1820 1802 1871 1849 1757 1789 1871 1781 1867 1853 1828 1890 1832 1874 1869 1863 1812 1905 1828 1872 1813 1853 1922 1885 1767 1849 1808 1909 1849 1829 1897 1837 1833 1860 1798 1916 1851 1771 1860 1752 1843 1884 1802 1783 1827 1910 1772 1855 1741 1811 1869 1808 1852 1863 1803 1749 1834 1781 1841 1830 1898 1849 1875 1877 1845 1858 1837 1861 1836 1841 1854 1770 1826 1867 1886 1723 1865 1748 1804 1804 1839 1801 1801 1806 1772 1841 1812 1805 1819 1793 1818 1793 1867 1781 1778 1768 1683 1794 1698 1811 1762 1787 1785 1848 1794 1802 1748 1824 1752 1794 1747 1748 1753 1752 1729 1859 1750 1804 1796 1736 1763 1758 1745 1722 1738 1785 1817 1696 1815 1729 1706 1756 1763 1855 1747 1775 1661 1726 1823 1791 1730 1792 1755 1710 1713 1773 1667 1738 1759 1766 1706 1673 1658 1709 1640 1683 1680 1689 1697 1684 1718 1655 1714 1691 1688 1646 1678 1762 1671 1702 1720 1681 1647 1638 1650 1675 1668 1601 1668 1600 1646 1675 1580 1601 1655 1632 1603 1643 1593 1649 1649 1626 1608 1562 1606 1582 1553 1595 1556 1584 1616 1600 1563 1602 1537 1640 1498 1536 1621 1592 1586 1564 1524 1579 1522 1588 1594 1594 1624 1598 1654 1607 1623 1675 1662 1697 1605 1610 1669 1614 1673 1654 1561 1578 1622 1597 1605 1583 1622 1575 1572 1612 1463 1537 1606 1612 1591 1531 1479 1480 1495 1562 1539 1482 1505 1580 1521 1500 1564 1493 1536 1572 1538 1548 1558 1598 1510 1490 1558 1545 1637 1589 1587 1588 1675 1626 1652 1587 1589 1631 1643 1655 1526 1632 1638 1681 1640 1648 1659 1614 1661 1658 1722 1649 1810 1685 1913 1846 1964 1926 1979 2157 2209 2076 2274 2239 2297 2266 2351 2348 2309 2238 2331 2215 2108 2236 2116 2086 1963 2032 1909 2000 1936 1911 1868 1860 1775 1942 1772 1856 1774 1798 1713 1709 1682 1604 1597 1690 1657 1588 1699 1562 1540 1506 1514 1492 1419 1446 1486 1534 1427 1454 1381 1425 1410 1373 1428 1414 1485 1496 1411 1386 1439 1403 1397 1428 1466 1472 1454 1496 1487 1434 1493 1461 1437 1409 1420 1504 1369 1383 1349 1386 1399 1321 1342 1359 1258 1364 1347 1369 1347 1298 1305 1360 1323 1350 1279 1366 1327 1350 1383 1271 1322 1411 1378 1394 1371 1429 1430 1517 1564 1733 1617 1683 1835 1819 1994 1994 2078 2101 2268 2391 2522 2633 2805 2756 2824 2665 2745 2568 2631 2569 2562 2507 2499 2365 2413 2275 2216 2172 2214 2168 2032 2165 2088 1967 1990 1818 1823 1785 1794 1694 1683 1662 1681 1769 1737 1680 1688 1606 1675 1538 1556 1499 1397 1440 1402 1386 1296 1320 1390 1245 1343 1232 1285 1256 1230 1185 1255 1284 1264 1233 1234 1257 1203 1237 1227 1190 1176 1225 1232 1213 1219 1220 1200 1207 1243 1254 1229 1184 1135 1267 1241 1190 1295 1221 1292 1307 1343 1301 1347 1402 1367 1419 1407 1437 1510 1451 1441 1416 1441 1439 1427 1427 1413 1455 1310 1328 1360 1307 1343 1320 1304 1353 1309 1280 1288 1283 1325 1217 1311 1252 1350 1335 1269 1234 1275 1315 1273 1240 1177 1298 1313 1241 1349 1229 1235 1228 1295 1311 1302 1321 1325 1336 1284 1330 1351 1307 1367 1332 1277 1312 1308 1279 1275 1184 1308 1313 1260 1242 1151 1210 1225 1233 1254 1303 1219 1294 1211 1170 1169 1211 1217 1193 1184 1169 1190 1134 1120 1129 1149 1128 1050 1139 1119 1128 1056 1039 1126 1132 1144 1083 1080 1096 1063 1131 1115 1037 1070 1035 1171 1021 1118 1058 1049 1033 1039 1019 1068 1084 1076 1037 1052 1106 1019 1065 1081 1061 1051 1033 1053 1042 1091 1088 1053 1095 1079 1096 1091 1161 1153 1125 1141 1194 1177 1242 1218 1221 1237 1147 1172 1194 1161 1156 1117 1152 1106 1139 1111 1113 1102 1029 1110 1051 1110 1089 1077 1002 1081 1121 1087 1073 1103 1121 1061 1105 1052 1115 1149 1023 1053 1088 1120 1056 1134 1139 1116 1160 1069 1131 1045 1088 1084 1099 1105 1045 1098 1109 1103 1141 1099 1067 1099 1082 1042 1028 1051 1041 1101 1002 1038 1105 1094 1043 1130 1089 1056 1105 1037 1175 1155 1028 1022 1135 1112 1117 1108 1100 1112 1100 1072 1100 1139 1105 1061 1092 994 1091 1164 1062 1133 1043 1054 1056 1017 1086 1065 1056 1059 1088 989 1083 1086 1063 1090 1048 1026 1020 959 1053 1090 1070 1078 1066 1051 1054 1015 1067 988 1127 1117 996 1137 1072 1127 1055 1073 1021 1026 1059 1092 1079 1031 1112 1004 1079 1033 1050 1026 1080 1036 1116 1045 1066 1131 1050 1098 1004 1044 1052 1016 1075 1039 1079 1017 1070 1039 1091 1046 1031 1098 1032 1174 1116 1163 1105 1131 1103 1130 1214 1212 1171 1175 1204 1278 1338 1223 1281 1306 1342 1438 1474 1561 1618 1603 1831 1857 2094 2171 2400 2436 2695 2811 2969 3038 3320 3354 3574 3624 3813 3822 3985 4095 4085 4154 4425 4226 4128 4103 4108 3973 3840 3749 3729 3773 3483 3484 3339 3372 3199 3130 2966 3000 2701 2837 2731 2595 2429 2367 2136 2061 1942 1910 1871 1841 1627 1629 1487 1476 1347 1391 1365 1279 1211 1213 1196 1205 1149 1152 1060 1168 1034 1141 1048 1083 1047 1087 1022 1039 1037 1046 1018 1091 1082 1064 1052 981 1038 1021 984 1005 991 1029 988 1025 959 998 1016 951 1007 897 965 1014 941 992 943 950 974 1026 946 1047 1012 1004 959 969 957 993 987 962 980 999 960 957 935 989 987 991 979 988 1002 1013 929 942 969 1028 969 932 955 933 907 1019 988 1003 1013 993 974 1007 957 969 950 996 1000 996 984 991 971 972 1012 1019 1026 986 1019 989 948 1001 962 946 1008 996 966 886 955 946 915 983 954 924 873 967 913 928 941 923 940 966 996 946 901 946 872 909 899 923 925 887 919 919 919 928 940 909 887 932 889 915 936 882 908 910 870 945 986 932 944 921 954 904 917 981 976 938 913 923 928 891 936 926 951 925 916 914 951 924 954 930 958 905 940 886 895 938 907 926 920 932 901 1001 842 947 903 960 920 944 843 931 869 899 953 847 871 913 907 964 864 927 955 972 849 893 893 965 919 989 931 916 872 967 907 852 869 974 916 915 933 899 977 930 940 939 910 930 965 947 954 976 922 900 1001 921 961 927 877 984 927 880 928 948 915 949 969 934 913 990 927 973 935 979 1033 989 1001 1017 955 1014 1036 989 1034 991 973 996 1001 964 962 970 1060 986 996 1019 1010 1014 995 979 969 989 953 942 945 943 946 988 961 933 971 937 900 932 964 962 896 970 865 904 889 877 846 902 924 868 877 952 865 894 852 848 847 882 892 833 874 878 850 879 872 866 874 891 857 878 862 900 889 869 871 909 893 857 873 810 819 835 845 850 942 875 919 863 899 843 900 871 870 932 816 873 848 864 871 881 870 885 830 855 885 957 893 905 915 911 877 906 870 879 892 855 858 891 884 839 863 879 830 824 829 917 814 800 877 868 898 857 830 855 869 892 844 834 835 820 847 901 847 840 766 816 858 843 874 838 881 874 861 883 837 856 902 874 839 888 906 970 910 913 982 1075 982 961 1005 947 964 961 1045 1075 981 974 1000 1034 982 991 1097 1024 996 1030 1044 980 958 929 938 911 867 944 989 951 945 920 915 872 908 892 938 945 880 832 914 946 831 885 817 868 806 860 854 814 893 840 825 807 833 825 860 838 776 781 852 838 828 835 855 769 836 837 800 824 811 831 817 911 831 815 812 855 772 828 757 892 825 820 867 824 861 820 854 862 855 854 834 878 795 920 841 911 804 918 862 888 874 829 839 815 850 788 881 829 855 846 839 836 827 864 830 796 810 841 798 755 827 803 810 811 810 822 851 814 818 787 853 811 866 823 800 846 809 862 829 777 842 836 764 806 786 807 821 759 766 828 799 797 889 767 829 777 807 875 843 786 836 824 789 792 836 842 791 804 795 777 822 761 805 843 814 835 837 804 827 820 833 839 833 809 774 770 811 792 818 771 802 750 831 767 822 788 768 805 857 789 818 778 784 817 825 866 821 814 764 793 809 812 805 877 788 770 792 844 790 813 820 754 822 778 781 781 795 783 803 824 769 787 829 772 787 862 792 802 838 820 845 781 828 807 807 764 769 803 796 841 814 812 845 818 783 774 820 785 810 797 828 831 756 827 836 809 834 795 841 808 829 812 749 811 828 858 792 814 812 813 878 871 869 890 923 932 961 934 960 916 935 917 881 926 891 874 995 945 959 902 967 946 882 920 977 901 921 868 835 857 874 888 865 901 864 857 874 877 843 839 823 818 804 753 789 810 809 842 787 813 824 797 789 784 728 848 798 777 773 757 768 796 793 798 811 760 771 734 804 807 786 842 830 773 829 768 812 828 822 789 804 867 790 828 796 767 840 787 824 743 782 832 805 793 791 807 906 786 801 793 843 847 834 805 774 786 826 815 787 789 772 838 853 771 771 774 787 758 858 809 809 779 754 738 762 762 785 756 776 775 769 732 771 739 774 762 747 744 757 764 784 774 773 747 769 791 817 758 809 842 759 799 775 789 753 789 771 760 737 779 761 777 722 769 790 752 744 756 727 742 802 758 790 745 794 713 776 738 800 782 810 811 773 793 759 801 807 843 802 799 767 755 794 782 802 829 727 836 819 809 782 750 762 800 817 807 761 824 787 793 780 789 785 823 752 756 783 758 827 786 806 800 783 798 805 742 819 737 748 810 779 758 837 801 825 803 824 813 816 838 916 895 903 844 984 876 914 941 1037 1007 1096 985 1078 1156 1045 1138 1199 1084 1269 1143 1187 1172 1186 1264 1203 1184 1185 1191 1217 1125 1218 1104 1194 1063 1131 1038 1106 1042 1033 1077 964 1022 1006 1014 987 901 976 950 894 883 914 881 852 857 903 785 845 814 836 822 785 797 786 778 794 856 765 737 772 784 765 770 806 726 744 750 773 757 773 781 744 766 757 791 750 786 780 791 811 769 717 761 758 742 724 803 761 780 758 759 847 755 748 779 708 733 738 738 790 765 733 737 783 803 755 779 736 774 720 721 737 743 792 747 741 736 786 790 758 758 766 750 735 767 735 731 771 741 729 813 753 806 740 782 727 793 757 781 758 776 746 758 734 736 744 732 728 754 749 757 746 750 769 800 785 754 781 800 735 787 825 799 791 767 772 786 805 753 798 811 778 811 756 794 778 775 764 794 754 698 737 778 733 776 743 721 717 735 737 727 731 727 760 753 719 751 721 720 776 735 731 739 707 675 726 693 784 733 760 808 710 709 758 711 738 723 722 797 753 757 797 759 728 756 717 739 773 798 829 774 750 706 755 748 733 780 777 747 749 736 808 762 748 734 754 739 752 756 711 765 702 753 708 783 772 746 748 776 759 750 715 746 731 752 765 734 735 723 791 756 776 762 799 758 763 734 744 816 738 737 795 713 796 795 692 742 747 742 727 735 760 782 754 735 720 816 744 793 779 767 780 778 746 780 752 738 774 743 757 780 749 753 801 804 753 759 751 808 794 754 768 739 792 777 758 802 802 774 757 789 792 804 788 778 795 778 765 786 821 785 831 809 814 817 851 795 842 785 810 822 840 787 811 825 790 796 838 815 880 784 822 810 761 846 807 728 839 787 811 814 883 805 866 826 824 892 884 897 937 929 963 1032 1049 1033 1089 1056 1075 1138 1247 1247 1292 1334 1383 1500 1450 1604 1664 1654 1672 1921 1939 2015 2115 2124 2113 2185 2045 2051 1950 1956 1941 1934 1844 1899 1978 1998 1970 2079 2079 2054 1981 1910 1859 1785 1755 1632 1661 1509 1501 1532 1522 1445 1457 1397 1417 1300 1311 1327 1213 1194 1069 1070 1074 995 1027 991 910 970 918 857 893 902 896 832 882 821 773 886 803 792 825 764 803 772 766 838 732 758 697 776 741 761 780 771 717 742 761 701 743 712 716 766 779 723 740 794 738 706 733 742 735 745 716 722 782 661 744 749 742 744 758 718 754 748 761 722 707 721 781 721 731 696 731 727 701 719 747 666 725 664 742 717 703 714 781 746 707 729 681 730 723 729 718 704 745 740 688 719 671 703 744 708 749 721 733 727 697 748 730 741 716 756 745 734 692 732 724 734 716 744 732 703 696 718 690 738 684 736 738 711 709 685 721 716 713 729 648 695 709 701 687 714 671 696 734 640 703 701 703 682 715 692 688 719 719 745 742 717 715 731 671 734 711 749 733 705 752 756 752 793 792 791 786 767 764 717 827 760 734 746 782 761 845 821 818 807 788 783 818 823 742 857 819 848 815 802 751 781 791 824 773 829 771 771 796 771 814 802 718 732 704 787 736 796 719 745 762 700 717 759 754 675 753 702 690 699 723 714 739 673 702 664 668 679 716 737 700 698 687 700 714 728 697 730 716 682 703 735 669 685 717 754 709 718 723 747 688 693 699 692 714 714 714 760 742 733 776 718 775 810 809 805 763 765 812 786 779 809 825 928 875 887 957 959 953 1009 985 1007 912 831 865 874 769 799 815 769 855 818 853 789 812 834 737 703 727 755 733 691 707 661 738 750 728 725 675 702 734 756 723 706 761 697 707 700 708 709 723 748 746 733 775 713 775 752 697 728 734 750 717 699 712 658 717 705 718 728 631 685 661 683 696 684 648 669 696 665 709 656 665 705 650 669 671 667 672 695 649 687 649 663 619 679 626 678 723 664 722 660 652 718 688 658 701 685 617 689 682 640 620 678 681 680 708 635 665 686 631 645 670 672 650 648 691 692 666 641 666 619 657 633 658 683 700 664 691 630 653 666 636 687 704 668 712 721 670 654 653 705 691 696 599 688 670 661 688 695 668 663 714 680 653 724 627 658 653 639 644 666 707 672 700 644 635 631 641 667 663 665 662 654 661 627 720 646 660 675 640 712 684 631 632 663 644 666 609 591 653 658 675 606 612 607 703 688 639 704 670 659 734 658 635 655 682 673 682 655 594 682 659 701 624 680 604 660 662 699 725 696 612 656 681 620 663 633 655 679 668 684 672 676 681 707 630 673 668 687 642 662 663 642 620 654 661 681 663 652 680 681 640 693 696 620 718 631 642 661 698 673 710 679 709 664 727 699 714 703 727 732 745 746 708 716 740 725 719 754 729 740 684 750 729 766 736 701 731 729 663 730 731 673 711 733 689 733 712 690 703 691 673 702 635 694 664 664 669 668 637 677 671 645 719 644 586 625 672 666 630 648 653 670 675 655 618 683 654 664 653 622 635 640 627 651 629 624 628 651 652 685 634 568 644 640 667 649 653 656 615 676 658 621 661 650 613 618 659 606 692 605 661 647 619 659 638 633 608 679 672 653 613 644 635 641 642 609 679 654 643 605 638 626 626 621 601 595 639 646 643 634 658 632 687 633 630 705 584 643 601 657 638 685 645 680 651 680 646 619 576 623 669 627 662 608 641 604 636 625 698 621 579 662 637 615 597 691 610 567 674 624 635 668 587 639 650 632 698 623 651 627 620 635 610 633 653 689 693 645 678 621 681 680 708 674 692 686 653 721 672 637 703 684 657 651 734 754 686 710 716 668 716 766 764 744 730 719 731 710 737 725 726 737 694 742 721 737 751 751 694 763 682 683 712 696 669 665 711 702 686 634 693 704 707 716 710 717 679 702 644 698 711 644 676 707 705 690 692 704 715 708 736 746 716 738 753 757 755 760 797 805 791 788 863 805 901 926 946 975 1075 1038 1035 1063 1105 1058 1069 1129 1033 1062 1050 1069 1052 1118 1004 1083 1061 1030 1073 1069 1089 1141 1025 1091 1044 1024 1040 1007 937 992 952 893 928 882 913 833 852 858 806 761 803 808 804 751 765 677 728 676 747 754 694 727 770 755 698 665 691 792 684 629 676 729 709 679 671 625 654 655 646 685 660 690 638 718 713 654 640 687 670 659 650 654 675 710 617 671 705 642 633 678 687 660 667 648 610 618 654 705 643 631 686 610 655 596 642 615 624 629 622 612 644 620 605 608 609 593 597 646 597 586 636 652 646 609 655 644 593 631 634 631 665 648 643 644 628 641 617 577 616 613 597 592 580 639 597 609 623 602 597 576 642 562 618 563 575 608 621 600 615 575 563 638 617 618 587 622 641 623 663 606 638 603 612 590 618 606 586 607 615 609 571 569 574 630 594 600 616 624 643 663 641 632 599 632 610 608 623 620 591 643 572 631 638 637 569 626 620 566 621 659 632 574 617 643 649 583 619 622 594 654 622 571 624 590 602 612 610 561 581 614 620 619 628 605 613 687 603 628 610 631 602 644 651 660 631 716 664 677 657 695 657 659 686 667 721 665 705 743 677 732 667 700 705 717 697 719 654 702 761 731 800 779 708 734 725 748 794 777 703 725 741 705 759 716 771 637 750 724 634 642 663 666 692 628 712 717 699 662 643 688 687 671 621 625 661 638 624 650 646 621 658 672 637 643 609 611 642 612 620 638 644 681 596 619 655 602 629 638 608 655 598 618 605 601 613 641 608 604 600 588 630 647 590 662 579 594 545 573 609 626 602 590 610 585 594 566 600 618 585 618 570 602 571 590 607 546 611 585 598 572 635 591 571 614 594 615 579 571 586 560 573 596 619 619 603 619 609 611 618 619 570 581 622 581 592 598 569 574 631 620 579 604 570 628 606 601 600 594 621 586 644 632 618 611 609 605 614 611 621 611 601 623 609 615 589 652 593 601 598 628 595 597 612 605 578 698 576 639 599 639 648 590 615 599 666 629 637 631 635 653 691 625 617 658 665 634 648 613 707 628 671 674 672 709 630 683 688 659 675 672 684 709 700 688 650 625 687 657 725 600 633 655 638 689 637 610 665 651 657 637 704 602 643 676 662 654 612 623 606 596 572 594 636 648 666 583 601 565 632 587 554 603 564 653 562 592 618 589 579 576 615 574 605 606 593 564 563 630 567 582 574 590 565 581 555 591 598 576 622 618 585 556 606 582 568 568 596 565 597 619 588 619 610 627 571 586 610 608 621 587 581 586 554 570 618 571 611 563 622 614 552 572 540 604 552 597 613 603 623 618 613 599 624 595 600 582 568 642 575 593 625 565 614 561 610 581 616 567 563 603 573 604 571 562 560 581 609 591 574 566 588 587 587 570 592 592 570 588 556 563 612 556 564 598 607 596 585 587 568 645 552 576 563 572 560 594 582 605 586 572 524 529 582 607 546 588 566 569 564 569 565 551 521 581 542 576 524 618 578 571 597 540 587 515 522 544 570 578 548 554 600 589 551 560 541 563 558 595 576 571 573 583 555 557 577 590 558 571 579 557 585 571 570 596 608 600 540 579 585 557 570 571 599 552 544 563 549 655 509 542 538 569 541 583 545 579 529 580 526 573 559 569 507 533 588 574 602 550 549 598 548 560 584 593 563 549 578 538 532 534 563 567 542 510 549 568 557 583 558 555 555 534 542 556 569 611 548 532 598 590 566 598 542 512 597 539 604 560 611 514 567 570 581 556 560 572 531 564 529 582 601 620 577 598 581 536 606 625 589 605 603 615 637 581 565 599 598 611 617 614 642 596 626 581 587 646 577 604 631 630 617 578 593 587 577 611 613 611 601 589 567 585 559 618 590 552 627 572 542 581 565 547 597 577 504 567 524 561 576 575 530 562 561 629 530 539 544 524 546 572 573 555 592 536 607 543 552 555 524 565 561 588 577 546 543 553 588 579 568 585 547 555 538 571 559 536 582 583 540 590 565 581 604 612 573 554 559 543 539 540 517 544 584 579 588 545 570 592 562 585 560 500 554 558 560 531 575 558 612 582 546 541 583 586 568 579 534 541 561 587 541 558 549 580 558 567 573 572 559 536 551 559 544 598 564 570 557 571 618 587 584 558 551 590 566 500 540 603 597 582 611 554 572 592 545 578 568 579 570 606 615 533 526 582 575 592 623 622 641 631 557 584 641 623 600 652 623 675 627 657 603 637 585 608 644 620 585 618 604 627 650 652 649 577 648 655 642 652 631 617 574 582 586 630 586 579 613 621 576 627 615 615 614 619 573 573 575 606 607 608 627 555 579 605 584 610 539 613 559 586 535 542 533 550 559 552 562 554 579 571 561 543 618 518 584 568 567 583 551 506 506 534 566 607 565 565 596 543 520 558 568 526 551 569 548 548 539 518 543 587 541 544 552 576 581 577 531 536 560 544 548 562 571 562 552 545 563 607 567 585 564 572 576 540 568 583 538 583 609 585 545 610 624 596 579 598 608 558 578 582 568 558 560 623 591 593 563 578 562 584 589 523 555 607 571 595 551 569 581 567 604 547 526 533 547 547 544 600 579 549 565 547 569 558 574 559 569 525 586 543 559 587 515 587 500 535 539 537 562 526 615 519 555 595 544 586 546 535 547 528 554 585 570 565 495 581 577 562 543 518 530 548 545 569 579 552 521 531 539 559 557 566 526 555 568 575 590 548 531 535 534 546 528 560 536 551 571 590 529 555 555 573 553 578 528 579 523 579 558 578 536 556 556 577 540 556 547 561 568 552 561 571 578 566 562 519 548 598 591 570 603 561 547 535 557 596 643 604 583 584 561 615 594 586 611 609 610 617 573 613 623 632 583 641 604 656 656 657 625 619 583 657 581 593 682 655 644 646 685 681 705 747 694 710 689 725 709 697 714 714 771 714 776 778 724 770 770 719 739 760 736 729 761 707 773 734 679 764 727 697 688 662 718 699 691 692 661 730 632 669 669 621 605 651 635 635 625 616 651 641 626 599 606 606 619 602 598 568 595 576 598 552 635 601 581 542 569 562 552 563 557 559 536 541 563 589 566 568 563 526 587 532 585 574 558 595 560 511 546 537 515 550 508 553 570 552 536 519 553 561 525 545 563 515 562 579 612 575 559 532 566 547 566 538 540 504 571 511 529 539 551 564 527 563 538 543 507 567 550 537 565 530 542 552 562 550 521 589 528 553 571 547 569 514 550 521 539 550 568 571 534 546 534 561 540 527 597 527 560 546 570 554 600 533 601 542 560 555 574 581 521 535 526 567 547 519 556 591 545 568 543 565 564 571 634 536 603 570 558 576 575 542 551 568 601 606 545 596 570 589 613 579 577 562 564 581 551 561 541 555 590 549 590 567 571 622 537 574 578 567 553 549 553 587 563 522 545 543 530 575 559 598 593 561 603 582 526 608 519 569 543 552 553 544 542 522 535 583 528 562 563 545 574 557 521 513 581 523 530 557 554 518 533 525 530 545 533 540 512 543 518 556 571 525 562 552 566 548 606 557 527 622 547 537 604 554 562 556 564 575 563 614 558 518 580 541 578 568 584 573 569 561 543 593 587 546 567 567 558 564 538 502 568 565 492 578 544 539 535 568 522 550 586 577 534 556 600 563 562 488 525 559 569 521 575 586 602 563 516 556 604 544 561 558 585 541 542 532 561 527 562 480 530 542 544 558 543 503 565 552 525 512 539 550 548 549 577 550 508 527 563 554 532 578 564 553 496 509 555 539 567 559 573 542 537 545 599 544 537 584 563 494 565 516 567 568 567 547 499 531 535 552 520 560 498 542 530 568 546 553 539 530 550 577 503 547 560 554 516 562 594 536 548 554 556 518 578 545 530 575 526 517 523 570 542 553 562 526 549 559 561 555 563 569 558 543 546 523 575 539 556 552 554 550 549 563 567 559 545 514 520 538 558 515 543 544 535 556 566 547 545 565 517 569 561 560 567 581 545 548 577 584 558 586 524 564 568 544 592 565 543 547 616 517 564 554 593 532 580 576 561 539 594 561 523 595 591 554 586 561 606 605 540 602 586 559 533 602 520 505 563 564 565 552 545 564 525 567 575 533 546 540 547 593 567 572 613 537 558 557 551 574 540 554 540 577 543 558 560 536 569 571 579 512 553 550 571 561 557 532 557 548 590 549 565 546 563 549 500 540 552 572 565 565 543 575 542 575 581 559 587 545 554 540 535 520 539 589 572 570 563 570 595 544 564 573 561 498 532 545 555 532 575 569 557 516 543 563 587 553 554 580 537 535 583 582 523 560 556 572 548 622 588 563 529 568 531 508 588 539 578 588 552 582 545 582 568 558 572 573 544 566 579 584 571 546 582 587 540 569 569 578 595 562 591 628 552 602 611 579 578 644 590 611 606 568 602 586 589 615 579 613 599 556 570 551 591 568 601 552 582 555 628 608 580 600 568 637 593 553 575 619 615 599 617 579 602 552 560 585 586 581 572 577 606 603 599 568 596 569 566 612 591 598 580 627 616 635 547 609 643 646 628 621 613 619 628 658 610 618 629 582 655 606 662 617 610 655 636 603 594 616 664 646 606 604 642 602 625 621 615 594 612 642 633 625 610 638 611 585 656 624 609 616 607 632 665 649 605 621 627 639 571 602 583 627 572 581 615 614 613 609 604 558 607 620 607 605 606 616 600 582 562 562 581 520 550 574 577 561 525 584 544 608 590 539 594 559 567 570 564 553 556 583 543 563 540 567 536 526 531 556 535 573 508 571 505 621 574 583 558 542 553 539 529 552 540 547 517 515 539 525 563 540 528 504 533 569 585 554 602 540 579 561 544 539 538 554 569 544 568 577 535 546 522 530 572 540 591 551 546 524 565 553 554 549 626 599 581 539 530 558 538 538 552 582 561 555 527 547 545 565 532 551 531 584 583 578 556 582 584 575 577 556 621 571 579 551 550 572 553 557 572 571 560 568 602 553 609 608 597 613 594 597 592 621 605 604 672 597 642 637 622 662 712 617 654 655 676 662 652 658 693 655 689 685 694 716 762 748 675 705 668 694 740 713 782 750 786 752 738 737 766 772 760 767 720 787 672 703 719 731 710 691 729 738 713 706 735 715 716 746 763 676 731 699 682 697 690 757 670 671 656 734 686 709 604 656 643 624 613 601 622 633 682 615 620 646 590 610 636 607 572 638 574 595 580 558 599 634 578 586 565 615 619 578 590 549 586 577 522 592 586 594 534 537 580 507 557 558 557 603 539 567 573 574 550 550 502 565 569 587 576 560 582 541 576 547 545 532 598 572 558 536 543 559 551 548 558 570 553 536 574 577 546 539 494 540 589 550 586 542 547 572 500 567 556 575 544 544 536 548 579 556 523 594 586 596 577 554 563 549 567 567 545 524 520 592 580 559 543 511 590 586 500 652 572 571 636 538 567 603 572 572 537 581 592 584 555 564 523 532 550 552 601 552 553 571 577 544 564 602 577 545 563 566 533 578 560 539 586 588 558 529 559 555 560 582 562 544 533 542 575 561 525 558 576 585 611 528 548 542 557 518 542 569 558 522 563 539 506 524 549 574 554 565 530 588 522 552 564 546 540 541 584 543 575 527 559 540 527 552 541 512 596 534 539 528 574 578 540 543 517 576 524 533 550 573 502 526 527 569 500 570 555 591 535 536 544 523 532 578 581 543 529 619 544 526 541 543 537 530 544 525 561 520 514 577 546 580 547 586 556 576 549 505 593 533 527 555 550 566 581 566 540 540 525 561 536 490 537 544 567 554 518 572 530 523 527 530 497 515 557 562 542 549 531 547 525 546 540 513 544 531 529 546 540 544 517 515 537 551 580 536 475 570 521 565 514 531 542 559 523 553 498 544 517 544 549 548 525 551 524 550 498 521 536 521 561 523 556 565 540 538 553 523 552 524 540 529 515 548 540 554 543 580 528 543 576 583 530 563 558 482 531 496 542 545 491 498 574 539 565 499 536 511 539 497 540 523 506 481 512 515 514 578 544 542 538 518 546 529 530 552 516 549 550 539 514 514 540 518 518 503 554 564 531 570 515 526 531 539 567 530 517 514 511 576 495 522 540 524 541 508 541 577 537 546 558 523 507 556 515 530 549 523 521 502 535 502 522 506 529 534 581 543 576 515 541 520 563 565 486 528 523 540 545 524 496 513 526 538 572 529 544 552 542 507 561 534 513 539 524 525 521 526 535 560 505 538 496 527 535 551 538 513 561 517 486 525 514 525 532 541 553 492 529 562 566 525 503 494 517 533 488 513 528 550 533 485 513 487 538 574 529 543 504 552 522 516 532 538 545 516 555 561 534 491 523 506 487 534 545 499 528 575 519 564 556 536 543 490 533 515 541 529 496 537 543 547 580 525 546 493 518 550 508 555 496 537 559 532 529 563 537 560 492 508 543 546 526 549 561 496 519 545 536 481 496 534 526 560 553 525 525 549 530 540 508 542 556 513 596 578 555 557 529 544 549 529 556 565 554 576 521 557 543 589 545 534 537 534 573 570 591 531 522 586 512 535 561 559 541 539 542 554 566 548 528 558 623 548 542 517 574 564 541 575 542 563 531 523 520 532 497 557 548 525 558 504 578 555 559 522 550 552 575 551 533 493 527 565 546 551 564 543 545 571 557 517 554 549 545 525 551 553 535 496 527 549 543 506 511 482 576 546 567 501 502 505 540 534 517 522 512 565 530 538 502 507 522 530 515 543 483 524 499 536 551 546 567 540 573 555 544 543 527 502 548 538 520 482 546 494 568 530 536 541 475 534 540 546 519 567 543 495 532 538 566 537 523 506 517 499 505 494 549 526 497 545 517 548 508 565 555 524 528 550 554 511 523 554 568 545 535 569 556 528 533 537 536 516 533 524 549 568 562 515 549 520 524 559 550 545 581 562 531 550 527 504 512 541 505 506 542 508 532 570 532 522 511 533 507 536 511 510 504 540 515 575 525 553 513 532 552 518 528 541 560 497 533 497 549 504 489 506 518 544 563 539 503 494 569 500 540 500 540 540 529 523 518 562 507 529 537 539 576 540 547 527 525 507 498 580 555 575 531 583 560 558 555 560 546 578 602 555 598 585 568 552 608 542 530 559 570 574 542 551 594 548 602 582 609 621 565 531 541 543 618 586 619 617 665 606 596 615 606 613 631 624 626 608 655 649 632 671 669 643 665 690 689 626 651 637 631 645 661 633 666 596 629 682 586 666 618 606 638 615 604 632 616 646 655 591 648 541 614 623 626 625 674 573 607 648 613 614 582 604 612 571 595 633 585 606 592 605 601 576 638 545 598 601 573 568 518 586 545 540 501 563 559 565 560 575 581 551 572 527 565 577 539 558 566 562 545 562 528 508 548 509 484 577 566 549 606 576 523 534 535 528 550 544 564 537 526 533 511 536 566 512 542 477 519 554 569 546 541 553 559 533 483 538 502 527 530 546 578 555 539 516 514 544 541 531 482 512 548 526 518 540 569 498 555 554 490 545 514 550 494 527 512 527 537 499 535 538 540 545 502 508 523 539 506 510 548 530 594 548 547 529 541 539 517 503 575 557 505 537 558 520 525 501 510 550 553 570 554 487 531 537 559 518 518 546 503 508 570 525 539 522 561 526 523 533 548 523 522 514 590 482 542 545 516 507 504 481 525 553 543 513 494 541 517 532 578 488 546 546 503 561 525 551 486 500 497 496 510 506 498 509 506 542 513 545 527 527 517 548 524 544 518 524 534 557 528 550 500 517 479 547 496 523 541 508 516 512 545 492 471 573 482 564 550 529 544 518 538 520 511 508 560 509 538 500 480 527 453 506 527 523 494 522 514 510 489 537 503 565 524 558 552 495 546 557 520 546 505 508 518 537 492 510 549 528 583 537 537 505 510 479 560 516 489 511 515 519 528 496 444 515 557 490 507 500 503 539 520 538 541 511 556 556 526 508 513 504 490 496 545 517 499 536 468 557 503 498 505 574 523 533 498 496 542 498 546 530 491 522 500 521 514 495 513 506 537 535 517 483 540 495 502 502 519 548 494 522 477 492 507 516 512 516 489 497 522 512 538 554 536 533 496 522 563 518 533 510 487 511 514 514 508 572 491 562 501 507 509 519 485 525 531 562 522 536 488 504 465 542 498 515 496 498 483 518 513 492 459 484 501 502 517 498 533 491 552 522 495 494 494 517 490 522 509 485 532 518 497 519 546 545 533 513 490 532 534 502 523 536 541 536 510 505 577 534 481 533 538 507 549 528 515 490 534 510 484 526 508 524 513 516 529 566 505 510 500 523 516 494 507 517 503 540 512 564 536 510 531 558 498 529 514 509 491 511 532 493 523 510 543 515 515 531 532 517 524 507 522 468 501 494 522 507 527 536 521 491 486 516 542 498 481 506 524 524 521 528 508 518 550 548 504 512 511 517 528 519 529 481 516 545 555 535 523 504 511 543 524 504 548 519 477 530 516 492 465 550 541 539 506 502 521 497 542 513 524 524 514 521 548 498 513 508 480 528 525 490 531</counts>
			</dataPoints>
		</scan>
	</xrdMeasurement>
</xrdMeasurements>
