<?xml version="1.0"?>
<xrdMeasurements xmlns="http://www.xrdml.com/XRDMeasurement/2.3" xmlns:xsi="http://www.w3.org/2001/XMLSchema-instance" xsi:schemaLocation="http://www.xrdml.com/XRDMeasurement/2.3 http://www.xrdml.com/XRDMeasurement/2.3/XRDMeasurement.xsd" status="Completed" recordIdentifier="{5554FB00-F478-4F9B-A0F8-18E2A0B43C2F}">
	<comment>
		<entry/>
	</comment>
	<sample type="To be analyzed">
		<id>GPSS_Li1p95Co0p475Fe0p475Sc0p05Cl4_111225_691549b847a6a0fd7c6580c9</id>
		<name></name>
		<preparedBy></preparedBy>
	</sample>
	<xrdMeasurement measurementType="Scan" status="Completed" sampleMode="Reflection">
		<usedWavelength intended="K-Alpha 1">
			<kAlpha1 unit="Angstrom">1.5405980</kAlpha1>
			<kAlpha2 unit="Angstrom">1.5444260</kAlpha2>
			<kBeta unit="Angstrom">1.3922500</kBeta>
			<ratioKAlpha2KAlpha1>0.5000</ratioKAlpha2KAlpha1>
		</usedWavelength>
		<incidentBeamPath>
			<radius unit="mm">145.00</radius>
			<xRayTube id="1010048" name="Empyrean Cu LFF HR (9430 033 7310x)">
				<tension unit="kV">40.0</tension>
				<current unit="mA">15.0</current>
				<anodeMaterial>Cu</anodeMaterial>
				<focus type="Line">
					<length unit="mm">12.0</length>
					<width unit="mm">0.4</width>
					<takeOffAngle unit="deg">6.0</takeOffAngle>
				</focus>
			</xRayTube>
			<sollerSlit id="21010002" name="Soller slits 0.04 rad.">
				<opening unit="rad">0.0400</opening>
			</sollerSlit>
			<mask id="22031000" name="Fixed mask 13 mm">
				<width unit="mm">9.00</width>
			</mask>
			<divergenceSlit id="22120001" name="Divergence slit 1°" xsi:type="fixedDivergenceSlitType">
				<distanceToSample unit="mm">50.00</distanceToSample>
				<height unit="mm">1.52</height>
			</divergenceSlit>
		</incidentBeamPath>
		<sampleMovement xsi:type="spinningSampleMovementType">
			<spinnerRevolutionTime unit="seconds">1.0</spinnerRevolutionTime>
		</sampleMovement>
		<diffractedBeamPath>
			<radius unit="mm">145.00</radius>
			<antiScatterSlit id="22090040" name="AS slit 9 mm (PIXcel)" xsi:type="fixedAntiScatterSlitType">
				<height unit="mm">9.00</height>
			</antiScatterSlit>
			<sollerSlit id="21020003" name="Large Soller slits 0.04 rad.">
				<opening unit="rad">0.0400</opening>
			</sollerSlit>
			<filter id="20030001" name="Large beta-filter Nickel">
				<material>Ni</material>
				<thickness unit="mm">0.020</thickness>
			</filter>
			<detector id="7010019" name="PIXcel1D-Medipix3 detector" xsi:type="rtmsDetectorType">
				<phd unit="keV">
					<lowerLevel>4.02</lowerLevel>
					<upperLevel>11.27</upperLevel>
				</phd>
				<mode>Scanning</mode>
				<activeLength unit="deg">5.542</activeLength>
			</detector>
		</diffractedBeamPath>
		<scan appendNumber="0" mode="Continuous" scanAxis="Gonio" status="Completed">
			<header>
				<startTimeStamp>2025-11-16T14:48:07-08:00</startTimeStamp>
				<endTimeStamp>2025-11-16T14:56:15-08:00</endTimeStamp>
				<author>
					<name>AutomatedUser</name>
				</author>
				<source>
					<applicationSoftware version="1.7b (136)">PANalytical Aeris Instrument Suite</applicationSoftware>
					<instrumentControlSoftware version="3.2.00000000 20240306">AERIS</instrumentControlSoftware>
					<instrumentID>950485</instrumentID>
				</source>
			</header>
			<dataPoints>
				<positions axis="2Theta" unit="deg">
					<startPosition>10.00943322</startPosition>
					<endPosition>99.99442286</endPosition>
				</positions>
				<positions axis="Omega" unit="deg">
					<startPosition>5.00471661</startPosition>
					<endPosition>49.99721143</endPosition>
				</positions>
				<commonCountingTime unit="seconds">12.495</commonCountingTime>
				<counts unit="counts">3300 3170 3302 3285 3219 3212 3209 3285 3277 3274 3258 3227 3217 3259 3276 3186 3228 3319 3241 3225 3364 3213 3279 3336 3298 3278 3404 3270 3368 3376 3374 3274 3267 3350 3429 3329 3393 3302 3350 3395 3358 3348 3378 3307 3420 3352 3288 3352 3391 3437 3470 3378 3485 3454 3418 3456 3342 3415 3495 3470 3452 3550 3538 3582 3470 3528 3442 3318 3616 3537 3550 3573 3699 3506 3615 3671 3590 3651 3603 3556 3620 3467 3617 3654 3556 3678 3525 3638 3635 3656 3465 3457 3602 3576 3688 3617 3492 3532 3530 3501 3640 3567 3522 3607 3609 3588 3616 3523 3652 3615 3535 3680 3539 3571 3620 3670 3629 3569 3605 3615 3681 3607 3591 3637 3659 3613 3611 3523 3575 3524 3517 3588 3717 3525 3651 3649 3672 3691 3615 3723 3547 3629 3476 3604 3597 3570 3591 3718 3628 3555 3609 3597 3632 3600 3618 3636 3567 3682 3632 3588 3659 3758 3563 3542 3591 3542 3664 3631 3646 3570 3547 3555 3437 3452 3565 3497 3643 3649 3608 3563 3676 3590 3625 3678 3603 3628 3588 3669 3695 3748 3628 3631 3594 3676 3642 3546 3545 3572 3642 3509 3639 3632 3662 3607 3579 3617 3548 3663 3646 3578 3570 3599 3571 3593 3470 3507 3595 3523 3700 3633 3681 3516 3622 3506 3619 3532 3556 3502 3654 3647 3466 3500 3535 3587 3614 3533 3604 3549 3372 3490 3540 3621 3600 3518 3555 3478 3615 3541 3536 3456 3566 3578 3474 3523 3416 3492 3480 3402 3519 3568 3497 3518 3584 3428 3589 3375 3504 3483 3586 3565 3452 3537 3550 3459 3510 3561 3464 3581 3574 3498 3456 3506 3529 3585 3554 3527 3523 3564 3398 3546 3567 3511 3544 3541 3522 3541 3533 3559 3538 3480 3507 3648 3527 3524 3499 3599 3511 3589 3520 3533 3399 3633 3657 3575 3454 3547 3549 3612 3665 3578 3590 3635 3540 3525 3528 3584 3627 3679 3531 3667 3549 3569 3651 3601 3549 3606 3598 3676 3577 3727 3682 3803 3682 3638 3725 3635 3707 3616 3801 3629 3648 3730 3693 3800 3571 3747 3766 3780 3701 3754 3812 3758 3792 3718 3814 3822 3675 3674 3778 3654 3832 3858 3814 3827 3977 3737 3832 3863 3872 3888 3901 3885 3929 3980 3950 3970 3899 3942 3935 3882 3917 3935 4017 4025 3944 4016 3890 4027 3998 3947 4044 3940 3994 4073 4056 4119 4098 3882 4067 3895 4011 3956 4002 4054 3979 4083 4054 4051 4108 4169 4183 4119 4150 4090 4143 4185 4195 4180 4199 4189 4347 4351 4420 4446 4262 4411 4432 4513 4463 4526 4434 4580 4503 4386 4407 4451 4280 4375 4377 4271 4425 4283 4395 4234 4357 4393 4266 4362 4312 4362 4346 4279 4295 4299 4267 4188 4211 4187 4212 4256 4219 4186 4225 4101 4158 4085 4161 4082 4116 4072 4061 4096 3959 4103 4011 4030 4136 4099 4009 3988 4020 3870 4070 3921 3945 3972 3916 3865 3770 3859 3815 3863 3903 3889 3878 3791 3691 3861 3806 3847 3851 3854 3651 3711 3729 3817 3832 3703 3749 3758 3851 3599 3742 3776 3710 3736 3718 3648 3757 3632 3772 3701 3615 3643 3643 3704 3647 3626 3643 3708 3643 3606 3721 3498 3691 3601 3547 3732 3489 3702 3656 3622 3606 3681 3634 3679 3555 3617 3573 3713 3594 3609 3556 3683 3639 3642 3563 3638 3594 3650 3519 3582 3594 3499 3620 3497 3522 3518 3470 3613 3486 3592 3612 3581 3654 3537 3564 3454 3423 3426 3556 3511 3437 3481 3404 3469 3521 3538 3601 3399 3580 3492 3443 3518 3531 3499 3446 3452 3452 3392 3424 3564 3387 3396 3464 3414 3444 3520 3528 3486 3518 3520 3426 3466 3488 3529 3405 3432 3387 3542 3538 3467 3464 3497 3465 3466 3467 3487 3521 3494 3456 3459 3390 3402 3454 3514 3507 3548 3470 3383 3498 3473 3482 3425 3553 3481 3496 3402 3489 3520 3554 3544 3405 3380 3538 3600 3508 3570 3485 3543 3506 3439 3424 3512 3580 3436 3373 3457 3468 3391 3452 3355 3568 3461 3476 3418 3420 3415 3495 3524 3472 3351 3384 3328 3437 3346 3252 3443 3361 3344 3377 3307 3349 3296 3339 3405 3413 3400 3364 3312 3299 3287 3207 3236 3339 3234 3295 3338 3393 3383 3350 3370 3394 3289 3233 3381 3348 3353 3273 3274 3369 3223 3382 3395 3316 3303 3374 3444 3310 3306 3290 3407 3286 3315 3310 3369 3274 3311 3309 3251 3385 3281 3246 3231 3281 3404 3219 3304 3327 3303 3410 3315 3306 3366 3353 3361 3312 3287 3335 3304 3306 3279 3295 3407 3306 3237 3358 3321 3327 3329 3363 3190 3278 3144 3257 3271 3192 3316 3283 3325 3306 3271 3282 3264 3264 3246 3168 3220 3224 3351 3260 3350 3299 3230 3263 3181 3254 3201 3310 3267 3246 3181 3296 3214 3266 3212 3309 3232 3166 3193 3196 3366 3237 3304 3273 3277 3264 3205 3250 3330 3165 3287 3116 3150 3143 3165 3185 3196 3252 3126 3220 3250 3241 3257 3236 3242 3257 3178 3220 3228 3198 3238 3229 3091 3161 3139 3231 3153 3107 3224 3231 3290 3223 3289 3232 3234 3171 3280 3207 3133 3141 3224 3242 3155 3215 3154 3101 3279 3114 3161 3154 3152 3228 3076 3184 3165 3208 3338 3088 3170 3122 3102 3084 3174 3099 3164 3163 3094 3217 3104 3071 3048 3123 3115 3132 3317 3169 3165 3259 3192 3156 3258 3265 3092 3103 3156 3231 3108 3239 3104 3191 3120 3097 3111 3088 3122 2972 3167 3135 3202 3154 3105 3094 3219 3154 3056 3119 3099 3125 3108 3065 3123 3140 3109 3080 3056 3038 3184 3109 3158 3081 3059 3053 3071 3146 3106 3044 3002 3082 3187 3100 3059 3088 3101 3040 3039 3203 3015 3030 2961 3059 3093 3079 3132 3027 3100 3046 2982 3117 3116 3115 3074 3146 3129 3191 3062 3152 2987 3052 3144 3029 3048 3039 3144 3059 3091 3060 3032 3067 3019 3168 3008 3102 3044 3100 3125 3142 3101 3108 3169 3113 3070 3046 3044 3066 3179 3117 3079 2982 3101 3005 3126 3160 3207 3074 3113 3092 3183 3026 3176 3136 3078 3105 3061 3061 3157 3040 3101 2966 3062 3193 3154 3086 3089 3112 2999 3077 3128 3064 3154 3081 3003 3015 3152 3227 3106 3077 3099 3148 3077 3111 3058 3084 3044 3104 3121 3067 3037 3143 3096 3069 3129 3107 3103 3065 3026 3123 3089 3149 3137 3163 3090 3185 3042 3150 3226 3121 3167 3016 3150 3148 3232 3142 3062 3208 3102 3046 3054 3054 3164 3085 3055 3039 3053 3206 3169 3234 3095 3021 3005 3085 3102 3107 3096 3063 3108 3085 3154 3007 3091 3044 3022 3097 3094 3004 2992 2998 3077 3059 3154 3062 3091 3087 3056 2957 2896 2937 3035 3067 3077 3129 3098 3087 3058 2990 3042 2967 2943 2961 3055 3075 2973 3070 3039 3017 3021 2962 3019 3025 2914 2931 2995 2874 2917 2853 2968 2991 2995 2922 2926 2961 2920 2963 2946 2876 2963 2980 2919 2920 2916 2871 2958 2963 2908 2888 2835 2962 2888 2843 2921 2940 2809 2966 2869 2805 2845 2871 2902 2824 2880 2869 3001 2941 2813 2818 2868 2816 2798 2829 2824 2737 2818 2735 2784 2828 2757 2753 2814 2861 2786 2845 2729 2778 2789 2810 2671 2618 2702 2755 2760 2748 2703 2677 2710 2787 2782 2804 2766 2691 2696 2664 2608 2750 2654 2694 2681 2693 2808 2716 2728 2665 2783 2698 2681 2660 2645 2679 2682 2763 2546 2688 2603 2649 2685 2701 2552 2648 2664 2559 2608 2688 2704 2650 2594 2691 2669 2639 2587 2630 2652 2574 2619 2570 2705 2563 2518 2593 2582 2524 2633 2538 2602 2605 2593 2575 2652 2571 2603 2531 2712 2666 2632 2562 2660 2562 2536 2714 2752 2561 2614 2619 2600 2561 2625 2546 2678 2630 2615 2656 2660 2545 2711 2640 2632 2703 2650 2548 2734 2708 2674 2724 2645 2765 2616 2846 2659 2748 2721 2714 2732 2753 2623 2700 2598 2697 2661 2675 2638 2660 2645 2660 2519 2657 2567 2654 2474 2577 2638 2610 2543 2502 2600 2576 2630 2522 2562 2522 2574 2642 2583 2539 2503 2665 2562 2475 2470 2531 2616 2554 2546 2500 2482 2582 2588 2432 2544 2495 2591 2614 2604 2575 2503 2579 2489 2526 2533 2478 2520 2543 2593 2521 2541 2573 2508 2508 2528 2537 2513 2512 2573 2524 2599 2495 2381 2491 2575 2489 2579 2553 2543 2577 2560 2489 2398 2621 2613 2595 2525 2570 2587 2664 2581 2519 2518 2501 2481 2485 2588 2470 2443 2461 2566 2551 2570 2536 2493 2453 2529 2562 2486 2513 2569 2503 2466 2619 2537 2540 2469 2548 2491 2571 2560 2589 2608 2578 2436 2494 2496 2490 2519 2497 2666 2518 2573 2572 2496 2532 2494 2556 2574 2494 2503 2510 2559 2679 2424 2501 2431 2529 2453 2525 2583 2478 2521 2538 2508 2642 2543 2509 2476 2500 2492 2506 2550 2557 2485 2572 2491 2465 2536 2436 2425 2583 2503 2546 2528 2566 2565 2517 2447 2415 2461 2422 2472 2512 2466 2430 2486 2392 2543 2504 2441 2497 2541 2470 2528 2405 2454 2463 2397 2459 2488 2507 2390 2448 2557 2407 2487 2450 2385 2444 2319 2405 2428 2521 2380 2409 2525 2371 2396 2395 2483 2352 2462 2366 2404 2386 2349 2381 2450 2511 2398 2400 2433 2423 2278 2329 2483 2442 2368 2392 2336 2358 2356 2315 2308 2244 2391 2429 2403 2417 2378 2285 2398 2403 2346 2361 2192 2413 2357 2262 2319 2359 2366 2232 2340 2243 2414 2260 2421 2357 2240 2308 2388 2297 2322 2303 2258 2318 2276 2362 2325 2206 2230 2267 2318 2247 2316 2245 2324 2309 2246 2400 2230 2186 2268 2260 2299 2295 2352 2160 2219 2287 2228 2307 2184 2262 2238 2180 2230 2274 2284 2249 2177 2164 2273 2212 2167 2245 2231 2244 2172 2232 2214 2288 2212 2219 2278 2308 2333 2236 2271 2255 2252 2173 2214 2235 2259 2295 2239 2241 2306 2197 2310 2096 2217 2259 2248 2221 2250 2248 2238 2153 2232 2258 2275 2318 2323 2257 2381 2306 2205 2263 2275 2324 2345 2319 2345 2387 2422 2477 2418 2429 2469 2379 2424 2419 2489 2374 2424 2479 2479 2547 2498 2513 2511 2463 2543 2560 2566 2584 2591 2491 2566 2535 2634 2526 2598 2518 2432 2560 2407 2434 2387 2426 2455 2353 2418 2429 2365 2325 2297 2253 2301 2376 2396 2296 2427 2284 2261 2327 2332 2272 2230 2298 2148 2224 2163 2080 2329 2302 2208 2175 2180 2156 2218 2184 2133 2136 2161 2101 2182 2139 2159 2137 2228 2077 2061 2092 2177 2053 2072 2102 2085 2105 2151 2133 2118 2016 2108 2075 2158 2108 2097 2190 2052 2090 2079 2141 2167 2115 2117 2149 2112 2120 2101 2106 2101 2106 2145 2123 2246 2216 2125 2265 2271 2352 2242 2255 2339 2296 2423 2383 2400 2464 2436 2373 2497 2493 2542 2528 2481 2589 2586 2546 2542 2450 2584 2565 2571 2511 2541 2501 2412 2478 2440 2413 2455 2399 2452 2462 2459 2315 2259 2227 2184 2196 2346 2256 2237 2196 2280 2159 2124 2289 2226 2181 2183 2046 2128 2077 2174 2016 2041 2121 2182 2032 2082 2001 2082 2062 1960 2085 2062 2009 2018 1973 2039 2019 2047 2011 1981 1967 1963 2014 1990 1983 1974 2014 2070 2062 1988 1950 1928 1963 1982 1936 1979 1926 1959 1947 1963 1965 1871 1963 1803 1859 1954 1947 1966 2014 1972 1946 2022 2027 1962 1984 1998 1888 1964 1896 1939 1955 2007 1829 1949 1968 1849 1944 2019 1907 1908 1880 1892 1916 1875 1955 1851 1884 1899 1883 1827 1951 1814 1878 1971 1908 1938 1906 1951 1891 1844 1929 1953 1934 1904 1866 1928 1878 1957 1900 1890 1861 1877 1909 1915 1891 1942 1944 1870 1886 1879 1914 1961 1848 1827 1882 1852 1851 1919 1886 1910 1864 1931 1927 1951 1936 1834 1910 1933 1906 1914 1875 1972 1946 1823 1934 1837 1916 1892 1887 1827 1898 1913 1861 1909 1867 1817 1888 1788 1850 1854 1935 1845 1900 1914 1839 1861 1844 1945 1836 1875 1829 1919 1921 1873 1878 1924 1885 1870 1865 1858 1894 1813 1849 1926 1851 1909 1872 1925 1892 1848 1864 1857 1873 1904 1743 1824 1817 1753 1922 1860 1880 1824 1933 1884 1885 1876 1976 1883 1845 1920 1931 1954 1974 1891 1933 1958 1998 1925 2004 2057 2026 2083 2031 2004 2055 1958 2082 1999 1988 1993 2026 2060 1967 1934 2005 1952 1878 2037 2014 1890 1908 1985 1961 1937 1879 2009 1930 1852 1883 1793 1902 1896 1945 1925 1896 1866 2008 1989 1857 1852 1914 1934 1900 1887 1800 1958 1909 1806 1886 1979 1946 1915 1923 1972 1874 1966 1954 1904 1969 1884 1981 1926 1921 1933 1920 1960 1876 1932 1910 1826 1963 1937 1937 1910 1851 1957 1865 1976 1937 1915 1946 1946 1923 2013 1965 2034 1965 1993 2069 2039 2014 2054 2046 1999 2066 2071 2143 2067 2022 2100 2009 2092 2070 2091 1970 2106 2035 2057 2135 2102 2042 1955 2017 2168 2140 2017 2091 1981 2130 2128 1963 2108 2078 2058 2107 2094 2093 2050 2116 2119 2099 2233 2073 2090 2165 2225 2118 2036 2198 2074 2250 2244 2241 2166 2265 2206 2274 2322 2251 2254 2279 2423 2273 2324 2443 2419 2477 2460 2528 2531 2538 2656 2601 2649 2677 2759 2783 2756 2844 2942 2963 3140 3065 3108 3164 3275 3242 3353 3277 3317 3357 3448 3251 3370 3353 3421 3359 3428 3353 3372 3422 3348 3495 3483 3499 3395 3478 3447 3452 3296 3383 3363 3402 3431 3210 3136 3117 3052 3038 3016 2924 2910 2741 2666 2676 2630 2568 2505 2463 2457 2389 2322 2317 2329 2286 2157 2123 2059 2110 2018 2107 2095 2088 1989 2065 1934 1996 1896 1917 1947 1890 1941 1874 1907 1891 1944 1820 1826 1864 1827 1874 1868 1869 1906 1764 1860 1784 1861 1764 1782 1710 1792 1783 1904 1832 1776 1817 1733 1787 1828 1774 1732 1722 1707 1754 1753 1685 1797 1726 1698 1754 1708 1733 1819 1751 1775 1745 1715 1658 1778 1702 1729 1726 1743 1753 1791 1688 1717 1784 1778 1814 1783 1756 1778 1749 1699 1700 1706 1683 1810 1663 1701 1664 1794 1774 1699 1682 1725 1723 1698 1742 1746 1765 1706 1718 1721 1716 1673 1715 1754 1708 1690 1708 1661 1699 1692 1677 1758 1663 1628 1731 1753 1661 1703 1646 1656 1656 1742 1724 1769 1704 1771 1687 1689 1641 1732 1707 1759 1620 1673 1743 1652 1619 1699 1585 1636 1662 1676 1692 1708 1655 1606 1661 1716 1707 1654 1656 1677 1680 1696 1662 1629 1622 1647 1681 1723 1753 1719 1664 1650 1742 1658 1651 1660 1635 1706 1643 1636 1586 1628 1624 1659 1643 1674 1677 1649 1692 1651 1649 1663 1694 1531 1649 1686 1633 1681 1671 1699 1656 1676 1632 1575 1717 1606 1654 1704 1646 1542 1706 1671 1562 1605 1621 1623 1677 1713 1669 1654 1678 1603 1650 1661 1708 1670 1680 1657 1681 1636 1684 1551 1595 1630 1665 1611 1599 1666 1603 1680 1659 1559 1630 1643 1583 1681 1707 1632 1720 1605 1642 1656 1667 1580 1642 1611 1682 1668 1636 1658 1618 1690 1637 1636 1731 1617 1768 1713 1683 1744 1742 1770 1692 1712 1719 1710 1734 1703 1716 1693 1676 1647 1709 1740 1743 1683 1683 1720 1723 1709 1679 1711 1608 1642 1589 1720 1677 1586 1613 1629 1638 1689 1740 1651 1672 1632 1676 1716 1631 1666 1587 1616 1605 1661 1654 1645 1681 1590 1637 1624 1681 1585 1636 1637 1727 1639 1572 1608 1626 1562 1600 1629 1616 1604 1586 1651 1618 1561 1564 1609 1548 1622 1597 1580 1587 1647 1557 1557 1626 1607 1624 1658 1674 1675 1584 1655 1580 1645 1606 1636 1652 1702 1682 1613 1587 1634 1656 1688 1704 1672 1644 1662 1664 1648 1674 1706 1680 1644 1657 1631 1662 1674 1719 1675 1667 1671 1644 1642 1659 1648 1580 1573 1629 1548 1602 1625 1535 1635 1617 1588 1543 1584 1567 1537 1657 1617 1542 1669 1597 1643 1573 1537 1538 1583 1579 1512 1568 1542 1544 1606 1589 1602 1536 1466 1592 1557 1580 1550 1504 1590 1544 1570 1544 1623 1555 1561 1531 1539 1558 1568 1609 1542 1577 1578 1544 1543 1551 1511 1543 1469 1580 1567 1566 1614 1541 1581 1539 1620 1564 1546 1564 1510 1580 1583 1551 1607 1577 1540 1534 1552 1571 1462 1569 1606 1606 1592 1587 1552 1533 1531 1478 1599 1567 1584 1486 1547 1594 1546 1579 1568 1539 1503 1584 1530 1576 1614 1575 1474 1548 1504 1578 1531 1560 1509 1558 1590 1531 1522 1510 1505 1568 1558 1521 1522 1563 1563 1505 1607 1576 1606 1636 1553 1564 1550 1534 1582 1481 1509 1576 1490 1550 1503 1535 1533 1553 1542 1599 1485 1553 1549 1570 1605 1567 1579 1579 1591 1505 1603 1540 1623 1586 1519 1603 1538 1532 1481 1561 1517 1538 1532 1496 1596 1668 1602 1587 1556 1559 1545 1529 1556 1592 1624 1541 1507 1627 1509 1525 1562 1475 1575 1571 1557 1590 1648 1598 1542 1543 1493 1561 1519 1621 1528 1533 1555 1510 1566 1515 1595 1441 1569 1524 1504 1466 1523 1555 1547 1535 1570 1484 1485 1529 1518 1556 1513 1564 1535 1506 1525 1487 1539 1545 1515 1554 1519 1451 1528 1500 1564 1567 1513 1464 1577 1559 1590 1487 1451 1433 1527 1536 1521 1484 1564 1537 1481 1524 1538 1481 1480 1530 1574 1441 1541 1501 1513 1593 1507 1522 1521 1530 1471 1514 1416 1481 1522 1535 1473 1484 1558 1541 1465 1521 1550 1497 1521 1478 1574 1488 1509 1528 1538 1442 1578 1514 1514 1516 1518 1537 1545 1552 1558 1540 1463 1511 1503 1512 1578 1524 1549 1578 1606 1564 1495 1524 1443 1509 1552 1571 1473 1532 1555 1524 1540 1528 1556 1600 1546 1511 1526 1529 1609 1533 1572 1529 1580 1655 1494 1564 1502 1551 1615 1591 1597 1510 1560 1527 1516 1469 1464 1551 1542 1589 1567 1512 1468 1548 1507 1521 1546 1541 1480 1524 1517 1454 1615 1533 1494 1518 1568 1509 1440 1542 1495 1526 1518 1534 1514 1558 1495 1528 1571 1471 1546 1492 1469 1508 1454 1561 1474 1545 1479 1507 1493 1552 1448 1532 1485 1527 1471 1472 1462 1515 1498 1467 1484 1538 1465 1587 1548 1527 1544 1522 1477 1572 1486 1494 1477 1465 1489 1500 1515 1528 1514 1473 1596 1546 1490 1469 1469 1445 1465 1512 1550 1439 1465 1513 1470 1483 1546 1517 1508 1472 1431 1439 1490 1532 1481 1492 1427 1480 1480 1456 1500 1561 1416 1436 1513 1469 1533 1450 1450 1478 1479 1521 1417 1572 1571 1505 1524 1458 1489 1448 1493 1454 1431 1518 1454 1440 1517 1390 1450 1462 1476 1475 1447 1471 1422 1413 1455 1517 1476 1472 1439 1461 1448 1514 1454 1486 1524 1478 1469 1506 1502 1456 1483 1432 1529 1470 1469 1446 1486 1473 1481 1481 1478 1509 1440 1443 1500 1541 1486 1451 1451 1465 1458 1504 1506 1420 1488 1449 1500 1523 1477 1448 1450 1447 1484 1484 1494 1458 1447 1442 1487 1448 1475 1487 1482 1478 1534 1453 1422 1503 1521 1524 1519 1468 1543 1513 1531 1481 1505 1534 1471 1522 1491 1549 1486 1531 1619 1550 1570 1520 1587 1579 1572 1601 1536 1516 1539 1544 1635 1507 1540 1589 1519 1674 1627 1635 1585 1575 1591 1638 1682 1637 1552 1548 1582 1647 1564 1533 1594 1585 1550 1626 1545 1681 1648 1579 1651 1620 1568 1534 1523 1550 1572 1625 1546 1547 1477 1600 1468 1493 1481 1548 1443 1552 1440 1561 1569 1495 1526 1522 1461 1512 1541 1435 1463 1482 1449 1515 1483 1458 1474 1453 1465 1442 1467 1461 1429 1455 1469 1473 1395 1410 1372 1444 1405 1497 1385 1423 1478 1429 1437 1385 1448 1414 1452 1460 1467 1324 1521 1400 1440 1427 1415 1491 1382 1456 1434 1337 1428 1451 1453 1495 1486 1424 1445 1499 1428 1457 1459 1406 1401 1490 1369 1455 1450 1438 1394 1415 1487 1389 1420 1355 1411 1383 1378 1448 1372 1394 1413 1442 1411 1397 1400 1495 1383 1416 1428 1425 1483 1452 1442 1434 1357 1456 1418 1396 1361 1406 1430 1485 1438 1378 1446 1414 1439 1464 1415 1472 1406 1393 1432 1540 1451 1347 1477 1379 1431 1386 1492 1384 1459 1454 1424 1502 1403 1436 1444 1452 1476 1400 1481 1453 1528 1468 1428 1377 1418 1424 1453 1434 1491 1476 1358 1463 1440 1411 1459 1442 1398 1451 1418 1408 1437 1440 1454 1385 1438 1449 1436 1508 1492 1433 1443 1439 1525 1404 1403 1489 1466 1425 1484 1448 1389 1383 1457 1444 1379 1398 1412 1431 1442 1414 1456 1433 1377 1382 1420 1460 1447 1468 1462 1490 1419 1455 1408 1507 1410 1433 1445 1352 1458 1448 1431 1491 1349 1490 1456 1406 1409 1442 1382 1451 1430 1442 1498 1421 1421 1404 1432 1371 1414 1452 1413 1412 1433 1436 1416 1413 1469 1436 1364 1367 1444 1421 1416 1415 1396 1401 1428 1421 1379 1411 1433 1368 1391 1337 1439 1408 1382 1456 1426 1408 1467 1472 1439 1400 1514 1401 1396 1424 1418 1412 1469 1448 1430 1432 1425 1452 1447 1452 1470 1421 1444 1460 1452 1472 1413 1431 1458 1411 1445 1467 1416 1501 1446 1481 1472 1424 1492 1519 1348 1481 1399 1454 1412 1518 1415 1542 1496 1418 1453 1491 1464 1496 1480 1546 1461 1521 1520 1481 1476 1478 1558 1526 1522 1561 1543 1496 1438 1558 1624 1560 1494 1557 1583 1663 1630 1628 1621 1593 1677 1675 1745 1800 1764 1734 1767 1781 1809 1770 1879 1889 1878 1958 1981 1951 2089 2060 2135 2170 2245 2191 2200 2247 2231 2274 2253 2352 2267 2217 2315 2241 2343 2286 2137 2250 2089 2148 2153 2095 2224 2057 2104 1975 2020 1943 1994 1951 2013 1928 1993 1878 1837 1886 1852 1866 1794 1780 1859 1815 1905 1760 1774 1735 1717 1610 1710 1720 1681 1589 1660 1587 1614 1546 1584 1678 1605 1584 1569 1540 1558 1519 1483 1569 1509 1593 1505 1500 1440 1394 1482 1405 1445 1443 1403 1393 1356 1440 1436 1438 1419 1525 1398 1426 1461 1416 1411 1472 1408 1445 1413 1457 1367 1391 1389 1391 1416 1453 1473 1389 1416 1455 1425 1368 1421 1357 1406 1395 1451 1488 1448 1347 1456 1380 1368 1381 1378 1434 1443 1416 1425 1478 1411 1406 1447 1448 1401 1381 1419 1423 1371 1451 1380 1425 1414 1510 1414 1470 1358 1392 1365 1374 1409 1412 1344 1408 1322 1451 1392 1367 1385 1364 1422 1390 1460 1460 1355 1315 1349 1391 1373 1397 1408 1404 1379 1412 1448 1373 1383 1348 1363 1432 1375 1374 1412 1405 1411 1418 1344 1319 1383 1354 1422 1351 1323 1393 1379 1391 1442 1390 1434 1400 1373 1371 1352 1418 1318 1340 1351 1435 1435 1484 1363 1396 1380 1341 1398 1356 1441 1414 1384 1411 1381 1365 1313 1383 1375 1432 1441 1454 1448 1477 1464 1545 1488 1420 1416 1434 1460 1469 1461 1453 1427 1526 1450 1549 1446 1495 1497 1486 1482 1479 1482 1465 1446 1511 1441 1464 1461 1410 1436 1408 1474 1466 1418 1497 1473 1446 1488 1389 1404 1417 1406 1432 1411 1492 1470 1436 1450 1510 1354 1442 1429 1492 1432 1385 1476 1366 1474 1450 1393 1376 1423 1360 1439 1343 1425 1406 1329 1442 1379 1354 1330 1379 1456 1392 1349 1344 1377 1363 1306 1339 1349 1335 1350 1362 1379 1319 1409 1344 1342 1400 1356 1391 1375 1315 1322 1357 1407 1282 1313 1340 1366 1364 1318 1321 1339 1340 1356 1312 1375 1336 1319 1323 1334 1353 1303 1319 1393 1353 1321 1371 1317 1319 1357 1351 1342 1377 1324 1379 1307 1278 1274 1215 1346 1336 1294 1298 1416 1281 1372 1286 1281 1326 1367 1321 1308 1274 1287 1261 1344 1357 1333 1303 1284 1318 1339 1336 1283 1360 1364 1285 1279 1307 1276 1322 1334 1341 1268 1311 1284 1321 1385 1260 1353 1333 1264 1287 1268 1267 1286 1297 1307 1326 1339 1333 1343 1291 1283 1293 1274 1370 1227 1264 1314 1260 1294 1310 1259 1286 1249 1301 1276 1239 1243 1301 1273 1331 1278 1320 1213 1344 1272 1307 1312 1331 1349 1315 1265 1301 1278 1290 1300 1214 1294 1293 1290 1346 1351 1357 1290 1351 1299 1333 1344 1359 1303 1272 1303 1262 1300 1284 1278 1292 1314 1333 1292 1337 1285 1316 1289 1260 1328 1248 1256 1286 1285 1193 1308 1304 1345 1302 1269 1319 1299 1260 1312 1257 1339 1258 1325 1267 1352 1319 1258 1216 1259 1284 1295 1288 1290 1249 1207 1280 1265 1300 1311 1270 1290 1297 1300 1330 1325 1273 1304 1310 1279 1266 1380 1293 1330 1335 1250 1303 1248 1304 1188 1302 1299 1294 1262 1267 1281 1255 1332 1284 1341 1276 1223 1268 1237 1282 1289 1273 1271 1247 1269 1241 1286 1281 1294 1283 1299 1381 1266 1334 1267 1289 1319 1310 1292 1309 1272 1353 1314 1300 1330 1296 1327 1226 1265 1248 1251 1308 1253 1246 1310 1323 1325 1271 1232 1290 1217 1239 1274 1238 1236 1307 1292 1321 1302 1275 1318 1255 1296 1260 1244 1285 1303 1335 1265 1293 1205 1266 1280 1255 1286 1318 1361 1296 1264 1232 1309 1298 1358 1352 1236 1299 1247 1282 1281 1263 1275 1292 1320 1226 1315 1312 1321 1286 1302 1299 1254 1276 1254 1257 1246 1307 1248 1349 1308 1289 1195 1304 1284 1307 1273 1298 1284 1273 1309 1282 1260 1270 1219 1270 1285 1320 1268 1234 1278 1397 1287 1313 1217 1382 1247 1271 1206 1254 1250 1331 1298 1298 1255 1275 1272 1304 1261 1281 1340 1279 1251 1335 1297 1281 1338 1346 1317 1317 1285 1257 1245 1228 1251 1290 1229 1258 1289 1278 1253 1258 1277 1263 1293 1253 1301 1227 1297 1275 1299 1222 1219 1268 1258 1269 1229 1344 1293 1308 1249 1241 1262 1262 1298 1219 1219 1291 1223 1291 1261 1293 1258 1205 1240 1279 1206 1309 1277 1219 1273 1286 1287 1251 1267 1275 1221 1244 1239 1311 1205 1305 1236 1271 1200 1190 1258 1298 1250 1310 1265 1257 1257 1166 1237 1326 1233 1274 1247 1287 1204 1280 1265 1264 1270 1244 1226 1263 1235 1287 1252 1293 1251 1281 1273 1218 1245 1291 1207 1278 1237 1240 1268 1265 1285 1251 1272 1278 1228 1293 1281 1272 1277 1332 1261 1291 1232 1265 1266 1216 1368 1241 1297 1326 1321 1344 1295 1253 1254 1281 1306 1328 1300 1293 1319 1312 1353 1341 1229 1298 1335 1304 1270 1296 1203 1268 1308 1325 1273 1309 1311 1329 1319 1302 1279 1351 1285 1286 1307 1251 1271 1359 1332 1281 1237 1261 1288 1332 1269 1322 1350 1287 1342 1322 1264 1303 1369 1343 1286 1303 1334 1262 1295 1343 1311 1281 1329 1314 1329 1310 1290 1324 1323 1358 1381 1348 1285 1333 1359 1341 1299 1357 1289 1355 1279 1354 1343 1270 1302 1327 1309 1282 1338 1337 1285 1286 1230 1281 1313 1303 1301 1286 1319 1269 1289 1266 1295 1262 1305 1271 1308 1337 1314 1223 1269 1255 1246 1290 1260 1238 1311 1246 1238 1293 1236 1239 1342 1219 1244 1291 1204 1297 1316 1227 1195 1293 1216 1276 1320 1234 1141 1201 1234 1234 1230 1231 1284 1220 1226 1288 1199 1206 1250 1213 1246 1176 1229 1254 1216 1222 1243 1221 1183 1249 1217 1159 1191 1232 1197 1205 1227 1263 1185 1180 1174 1255 1303 1201 1350 1280 1274 1213 1262 1262 1257 1242 1240 1205 1264 1247 1254 1296 1230 1199 1274 1200 1253 1234 1287 1206 1229 1270 1254 1222 1223 1173 1271 1218 1300 1250 1253 1263 1300 1157 1248 1272 1235 1297 1231 1207 1275 1265 1212 1243 1232 1276 1293 1170 1247 1275 1235 1246 1276 1291 1247 1276 1244 1269 1234 1268 1230 1250 1214 1229 1183 1175 1302 1214 1240 1188 1244 1194 1225 1285 1232 1230 1212 1255 1250 1243 1234 1232 1238 1218 1237 1192 1220 1209 1296 1263 1285 1248 1239 1248 1280 1287 1238 1300 1273 1276 1259 1236 1260 1245 1292 1308 1335 1217 1231 1219 1238 1331 1231 1281 1255 1262 1236 1211 1254 1191 1289 1210 1278 1230 1358 1327 1314 1267 1272 1224 1281 1234 1297 1256 1316 1254 1319 1300 1283 1301 1311 1315 1361 1308 1384 1280 1305 1367 1338 1392 1309 1339 1436 1326 1417 1377 1372 1333 1390 1379 1393 1368 1349 1325 1379 1418 1323 1386 1316 1337 1387 1408 1363 1352 1386 1339 1386 1422 1423 1390 1358 1338 1332 1312 1281 1352 1323 1299 1324 1336 1286 1303 1370 1359 1324 1278 1310 1316 1279 1265 1292 1315 1205 1221 1262 1257 1287 1251 1253 1216 1289 1233 1297 1212 1259 1222 1185 1199 1279 1219 1204 1220 1227 1219 1203 1212 1304 1183 1213 1216 1190 1241 1215 1182 1205 1201 1185 1328 1232 1266 1195 1212 1234 1151 1217 1198 1193 1175 1239 1227 1187 1140 1226 1172 1259 1202 1255 1210 1191 1218 1203 1214 1172 1274 1173 1183 1228 1202 1188 1219 1233 1147 1235 1153 1151 1203 1221 1232 1198 1223 1224 1193 1291 1246 1246 1145 1175 1215 1160 1285 1156 1194 1192 1236 1170 1171 1168 1205 1190 1105 1141 1192 1214 1226 1203 1170 1177 1212 1175 1196 1162 1182 1183 1279 1263 1224 1194 1134 1173 1218 1205 1194 1221 1222 1211 1294 1152 1236 1151 1286 1244 1151 1214 1135 1217 1182 1226 1235 1216 1264 1252 1205 1193 1249 1206 1265 1225 1163 1191 1239 1192 1325 1287 1239 1195 1217 1270 1268 1260 1271 1248 1250 1230 1224 1268 1254 1267 1152 1257 1241 1239 1222 1192 1200 1200 1262 1215 1249 1155 1167 1243 1195 1253 1216 1306 1246 1242 1248 1238 1220 1207 1243 1209 1163 1209 1237 1160 1178 1236 1209 1250 1198 1190 1228 1199 1187 1243 1141 1254 1160 1172 1213 1308 1205 1210 1235 1175 1163 1301 1186 1188 1151 1201 1215 1201 1209 1158 1203 1206 1155 1200 1189 1190 1214 1180 1196 1165 1152 1146 1190 1189 1148 1259 1190 1172 1140 1179 1158 1198 1196 1173 1190 1191 1172 1104 1154 1226 1154 1160 1168 1145 1108 1213 1096 1190 1220 1217 1206 1105 1198 1162 1161 1211 1215 1185 1154 1162 1220 1204 1214 1169 1127 1158 1130 1187 1219 1175 1208 1195 1139 1217 1086 1170 1193 1132 1216 1148 1133 1245 1142 1162 1143 1197 1178 1182 1253 1208 1175 1154 1201 1143 1165 1213 1117 1130 1121 1154 1122 1134 1172 1160 1211 1191 1168 1170 1179 1141 1144 1151 1161 1219 1183 1189 1124 1142 1181 1162 1160 1163 1183 1155 1115 1159 1229 1168 1142 1181 1153 1215 1207 1151 1262 1199 1210 1152 1176 1143 1203 1191 1119 1214 1165 1122 1167 1077 1224 1143 1126 1133 1170 1234 1156 1176 1167 1146 1137 1198 1142 1172 1169 1151 1154 1211 1184 1206 1166 1171 1204 1145 1208 1191 1099 1136 1165 1183 1122 1054 1128 1143 1100 1167 1185 1223 1132 1163 1149 1218 1187 1140 1088 1157 1114 1210 1163 1149 1179 1135 1153 1202 1177 1253 1154 1193 1166 1204 1184 1137 1175 1154 1163 1101 1173 1074 1121 1150 1136 1106 1103 1148 1131 1206 1146 1178 1141 1164 1120 1172 1161 1201 1189 1151 1224 1126 1105 1145 1166 1238 1178 1142 1164 1139 1170 1168 1208 1166 1218 1176 1124 1200 1134 1132 1167 1193 1143 1111 1146 1167 1241 1175 1183 1203 1134 1161 1138 1170 1131 1159 1170 1215 1184 1139 1223 1186 1196 1122 1217 1155 1202 1180 1166 1101 1134 1119 1138 1127 1133 1125 1169 1144 1116 1158 1101 1156 1148 1130 1121 1133 1166 1060 1101 1132 1164 1213 1122 1116 1121 1148 1168 1193 1115 1129 1143 1128 1147 1132 1140 1134 1189 1156 1210 1175 1178 1127 1216 1097 1148 1138 1196 1156 1151 1151 1205 1123 1243 1150 1150 1171 1209 1150 1145 1167 1150 1179 1166 1165 1125 1195 1063 1182 1174 1108 1197 1161 1207 1176 1196 1149 1176 1136 1145 1203 1126 1147 1138 1198 1134 1168 1211 1138 1204 1149 1162 1151 1175 1176 1122 1173 1157 1164 1179 1179 1114 1159 1143 1120 1103 1156 1161 1139 1125 1171 1163 1153 1172 1205 1100 1139 1154 1124 1181 1126 1104 1146 1237 1181 1152 1193 1185 1122 1164 1158 1200 1131 1148 1231 1163 1158 1203 1164 1127 1155 1152 1178 1137 1092 1117 1190 1214 1166 1222 1184 1174 1150 1226 1158 1105 1140 1142 1161 1262 1121 1140 1133 1207 1179 1151 1207 1241 1189 1119 1122 1103 1126 1129 1145 1098 1169 1240 1180 1120 1176 1111 1111 1173 1188 1165 1176 1199 1151 1187 1164 1188 1103 1157 1143 1175 1151 1099 1173 1155 1175 1141 1152 1180 1211 1258 1169 1221 1108 1173 1115 1142 1159 1150 1134 1205 1168 1160 1144 1158 1105 1186 1125 1144 1126 1134 1143 1155 1124 1161 1126 1137 1200 1170 1132 1159 1151 1188 1173 1160 1067 1196 1148 1105 1154 1140 1221 1174 1182 1167 1107 1160 1142 1098 1130 1152 1164 1118 1172 1124 1168 1115 1129 1151 1176 1092 1043 1162 1124 1053 1133 1089 1130 1106 1181 1144 1183 1139 1126 1153 1098 1175 1111 1146 1110 1119 1167 1127 1136 1156 1148 1105 1139 1168 1142 1123 1055 1150 1107 1135 1155 1128 1122 1107 1213 1123 1185 1101 1080 1161 1122 1144 1095 1178 1150 1111 1137 1203 1109 1163 1146 1198 1101 1168 1218 1168 1129 1135 1132 1125 1168 1118 1147 1142 1112 1149 1070 1128 1190 1145 1157 1111 1087 1186 1038 1110 1080 1130 1138 1092 1119 1105 1161 1101 1115 1073 1091 1114 1132 1165 1093 1112 1105 1197 1097 1136 1171 1120 1126 1134 1171 1113 1142 1018 1146 1189 1137 1097 1142 1112 1144 1115 1105 1124 1091 1125 1141 1140 1159 1107 1180 1120 1177 1160 1136 1130 1144 1170 1119 1119 1124 1095 1191 1156 1117 1170 1150 1155 1129 1175 1160 1191 1142 1106 1218 1138 1169 1126 1104 1212 1170 1153 1143 1123 1054 1114 1108 1115 1154 1093 1099 1186 1130 1094 1174 1074 1085 1133 1097 1133 1081 1159 1117 1160 1144 1134 1216 1144 1104 1174 1081 1142 1193 1124 1186 1161 1142 1128 1149 1114 1124 1097 1108 1121 1161 1227 1192 1143 1123 1128 1141 1142 1198 1161 1184 1189 1126 1162 1152 1164 1162 1198 1150 1120 1189 1116 1167 1179 1215 1171 1149 1130 1162 1116 1089 1132 1151 1174 1199 1146 1118 1149 1176 1132 1202 1150 1122 1175 1146 1184 1214 1213 1181 1192 1140 1158 1136 1162 1147 1183 1126 1131 1177 1132 1133 1154 1140 1121 1164 1103 1106 1127 1110 1131 1113 1083 1172 1171 1116 1112 1125 1111 1124 1128 1179 1144 1153 1137 1081 1126 1123 1081 1127 1140 1062 1064 1071 1109 1126 1135 1166 1172 1126 1147 1112 1183 1102 1132 1093 1088 1118 1054 1132 1115 1148 1126 1164 1103 1126 1115 1164 1185 1089 1095 1140 1075 1110 1118 1105 1127 1117 1105 1078 1157 1138 1128 1168 1141 1070 1052 1091 1127 1066 1104 1087 1116 1114 1104 1137 1112 1098 1122 1107 1089 1080 1127 1083 1113 1142 1103 1182 1115 1115 1106 1066 1116 1085 1155 1143 1102 1049 1073 1122 1109 1066 1169 1075 1127 1161 1152 1097 1114 1101 1116 1117 1165 1123 1111 1163 1076 1131 1144 1105 1121 1151 1042 1133 1116 1132 1148 1128 1145 1099 1102 1061 1090 1087 1087 1100 1108 1122 1108 1131 1135 1113 1074 1131 1112 1114 1120 1144 1149 1109 1098 1122 1091 1081 1121 1117 1148 1150 1074 1075 1142 1166 1091 1066 1090 1151 1120 1041 1111 1128 1112 1120 1117 1107 1160 1134 1127 1221 1112 1163 1127 1087 1166 1112 1094 1119 1125 1095 1025 1201 1118 1128 1151 1166 1129 1065 1114 1137 1086 1133 1088 1084 1104 1082 1060 1127 1097 1153 1144 1142 1092 1097 1057 1068 1076 1155 1111 1140 1049 1178 1146 1105 1085 1095 1106 1148 1131 1163 1095 1148 1088 1059 1087 1184 1115 1056 1149 1154 1128 1177 1137 1132 1082 1112 1096 1132 1120 1114 1132 1057 1084 1060 1096 1146 1113 1094 1077 1095 1145 1123 1106 1107 1080 1160 1120 1121 1035 1117 1083 1167 1102 1074 1097 1033 1058 1063 1089 1098 1097 1091 1071 1053 1099 1144 1135 1108 1106 1131 1114 1186 1092 1143 1086 1130 1126 1096 1098 1093 1076 1145 1141 1133 1075 1106 1127 1120 1153 1110 1137 1079 1095 1151 1094 1125 1056 1106 1100 1093 1121 1096 1093 1124 1116 1093 1153 1129 1145 1196 1121 1130 1076 1085 1150 1092 1060 1130 1148 1188 1071 1081 1126 1139 1230 1058 1105 1097 1093 1146 1137 1124 1103 1102 1087 1160 1077 1127 1061 1163 1091 1097 1096 1121 1135 1156 1117 1102 1067 1078 1133 1104 1159 1091 1117 1091 1085 1081 1147 1087 1158 1129 1089 1146 1137 1085 1077 1060 1092 1067 1036 1166 1136 1039 1086 1089 1062 1140 1115 1131 1155 1118 1053 1118 1052 1095 1186 1098 1144 1111 1080 1083 1108 1148 1097 1114 1128 1105 1192 1125 1126 1148 1094 1093 1052 1134 1141 1128 1159 1109 1090 1112 1097 1143 1124 1148 1070 1144 1112 1045 1093 1084 1066 1121 1095 1121 1103 1144 1150 1107 1154 1064 1130 1204 1060 1082 1106 1172 1145 1107 1098 1088 1097 1108 1133 1077 1094 1075 1119 1067 1098 1073 1100 1118 1132 1126 1161 1145 1149 1106 1066 1150 1123 1168 1155 1108 1118 1074 1128 1086 1078 1150 1144 1121 1127 1109 1043 1122 1052 1116 1103 1079 1155 1128 1134 1090 1139 1133 1159 1104 1110 1121 1069 1091 1114 1125 1133 1131 1091 1158 1110 1121 1077 1138 1141 1081 1088 1135 1106 1084 1142 1116 1151 1097 1089 1099 1105 1071 1129 1050 1092 1027 1063 1147 1172 1161 1143 1103 1116 1158 1092 1124 1085 1036 1127 1117 1165 1134 1168 1073 1105 1183 1110 1094 1068 1099 1120 1092 1148 1078 1075 1077 1086 1126 1142 1170 1131 1160 1115 1079 1076 1106 1099 1118 1141 1116 1112 1111 1162 1192 1141 1111 1126 1203 1102 1158 1091 1108 1136 1110 1088 1105 1077 1101 1131 1160 1112 1129 1134 1107 1097 1109 1091 1076 1156 1088 1091 1176 1090 1153 1126 1102 1198 1103 1190 1075 1093 1102 1087 1114 1104 1132 1106 1120 1160 1128 1111 1173 1180 1115 1129 1131 1179 1082 1175 1156 1167 1157 1110 1118 1105 1047 1185 1151 1136 1124 1125 1095 1151 1120 1190 1131 1109 1101 1193 1104 1180 1090 1134 1123 1159 1069 1169 1168 1089 1107 1189 1099 1137 1177 1142 1181 1200 1195 1149 1154 1115 1149 1101 1061 1098 1188 1134 1149 1167 1221 1195 1167 1157 1113 1132 1120 1133 1182 1098 1120 1117 1127 1122 1190 1143 1131 1165 1101 1115 1172 1152 1065 1136 1079 1119 1063 1114 1126 1091 1110 1099 1084 1115 1103 1166 1092 1055 1165 1064 1147 1063 1180 1110 1182 1116 1052 1158 1161 1090 1111 1139 1092 1123 1135 1065 1130 1105 1157 1077 1130 1073 1103 1134 1121 1133 1057 1132 1084 1126 1168 1117 1113 1092 1117 1076 1168 1149 1116 1106 1116 1077 1052 1090 1119 1055 1032 1150 1118 1141 1123 1067 1051 1164 1085 1149 1081 1123 1068 1129 1116 1103 1147 1137 1105 1123 1127 1137 1188 1119 1071 1086 1091 1181 1064 1120 1140 1077 1083 1147 1129 1128 1151 1138 1078 1101 1085 1071 1061 1081 1150 1032 1049 1129 1041 1159 1116 1098 1170 1047 1125 1179 1150 1111 1161 1135 1027 1102 1120 1145 1163 1199 1126 1140 1081 1135 1119 1147 1150 1143 1055 1135 1139 1085 1191 1124 1149 1128 1084 1179 1141 1112 1094 1164 1088 1099 1177 1170 1160 1150 1195 1107 1132 1106 1182 1112 1162 1154 1194 1182 1136 1158 1148 1133 1206 1198 1181 1114 1144 1185 1139 1172 1164 1176 1136 1190 1161 1197 1161 1202 1128 1159 1205 1166 1184 1156 1140 1187 1166 1132 1178 1214 1250 1245 1183 1227 1187 1171 1169 1193 1146 1161 1170 1248 1175 1191 1246 1183 1236 1196 1185 1166 1171 1124 1163 1195 1174 1137 1208 1163 1203 1272 1195 1207 1231 1194 1174 1192 1186 1184 1223 1180 1169 1170 1179 1156 1155 1140 1187 1141 1117 1153 1178 1156 1130 1157 1124 1147 1113 1182 1120 1077 1151 1101 1160 1153 1117 1174 1128 1165 1145 1118 1137 1088 1144 1133 1185 1116 1168 1150 1173 1091 1119 1150 1137 1171 1131 1109 1071 1106 1148 1099 1128 1090 1097 1114 1049 1111 1101 1094 1096 1097 1131 1112 1107 1113 1077 1058 1105 1095 1110 1098 1075 1021 1094 1099 1061 1107 1048 1121 1097 1083 1114 1081 1131 1035 1066 1113 1124 1199 1055 1131 1072 1158 1071 1107 1096 1136 1079 1084 1114 1082 1110 1070 1087 1116 1095 1135 1092 1065 1016 1064 1073 1096 1127 1110 1145 1053 1101 1111 1046 1068 1087 1065 1074 1095 1114 1060 1141 1003 1167 1119 1090 1098 1102 1076 1116 1127 1138 1069 1095 1110 1124 1108 1145 1119 1130 1007 1120 1072 1159 1159 1102 1138 1122 1119 1058 1055 1068 1098 1143 1104 1102 1099 1070 1015 1065 1102 1134 1132 1085 1137 1082 1066 1120 1051 1085 1126 1093 1122 1051 1069 1058 1043 1124 1079 1082 1098 1121 1121 1113 1080 1105 1060 1096 1049 1064 1131 1054 1080 1069 1092 1075 1042 1068 1042 1063 1091 1044 1047 1099 1060 1043 1081 1059 1025 1151 1045 1145 1106 1086 1087 1059 1080 1082 1116 1064 1060 1066 1112 1105 1043 1036 1068 1056 1099 1038 1035 1025 1002 1035 1068 1057 1004 1079 1075 1078 1051 1089 1095 1074 1059 1156 1115 1050 1057 1085 1114 1073 1077 1057 1120 1018 1047 1123 1072 1095 1039 1037 1083 1063 1104 1121 1014 1140 1021 1066 1105 1076 1096 1059 1013 1033 1063 1041 1071 1063 1031 1049 1043 1092 1102 1068 1092 1081 1005 1085 1119 1085 1113 1074 1118 1022 1013 1069 1063 1066 1117 1088 1068 1043 1054 1063 1057 1100 1075 1090 1067 1109 1096 1125 1033 1088 1036 1067 1081 1092 1053 1003 1011 1053 1065 1058 1047 1073 1002 1056 1056 1040 1100 1030 1008 1060 1073 1085 1040 1050 1039 1134 1102 1049 1088 1078 1048 1097 1059 1077 1071 997 1105 1028 1059 1071 1043 1061 1057 1050 1049 1069 1102 1075 1049 1066 1020 1075 1043 1044 1052 1068 1065 1030 1045 1078 1020 1083 1086 1048 1046 1081 1076 1083 1066 1093 1062 1026 1077 1036 1033 1023 1092 1074 1030 1084 1083 1067 1037 1094 1008 1038 1089 1043 1037 1089 1098 1034 1086 1053 1040 1086 1002 1096 1043 1115 1080 1067 1061 1062 1065 1081 1062 1045 1051 1024 962 1000 1108 1115 1078 1072 1062 1117 1014 1014 1097 1049 1087 1018 1052 1037 1041 1039 1043 1087 1058 1089 1094 1066 1131 1072 1042 1090 1110 1098 1115 1056 1083 1022 1076 1073 1060 1065 1040 1023 1050 1007 1117 1077 1070 1083 1033 1053 1036 1038 1060 1060 1116 1070 1046 1025 1048 1114 1121 1037 1027 982 1037 1115 1064 1059 1097 1034 1068 1045 1131 1092 1044 1053 1123 991 1025 1103 1057 1075 1058 1049 1075 1024 1034 1027 1027 1063 1068 1036 1055 1120 1054 1013 1106 1044 1031 1075 1052 1044 1073 1076 1067 1083 1074 1048 1061 1038 1048 1051 1033 1054 1109 1083 1104 1051 1068 1037 1039 1069 1025 1083 1017 1085 1034 1009 1048 1036 1067 1037 1030 1093 1069 1049 1042 1027 1001 1092 1053 1074 1078 1045 1067 1086 1072 1016 1023 1045 1096 1059 1043 1074 1008 1013 1051 1062 1062 1044 1051 1052 1095 1071 1027 1096 1073 1080 1066 1102 1062 1016 1040 1032 1072 1102 1051 1046 1098 1030 1017 1080 1017 1113 1027 1067 1015 1087 1093 1105 1079 1009 1061 1074 1076 1051 1083 1060 1054 1079 1018 1075 1010 1051 1079 1069 975 984 1095 1048 1042 1022 1015 1031 1142 1049 1082 1078 1066 1051 1032 1003 1037 1056 1058 1054 1066 1045 1062 1037 1101 1100 1097 1051 1092 1028 1041 1067 1044 995 1083 1078 1060 1091 1054 1098 1062 1057 989 1021 1108 990 1078 1088 1024 1090 1078 1084 984 1070 1048 1042 1089 1056 1037 1084 1130 1115 1041 968 1161 1015 991 1051 1047 1088 1096 1041 1039 1099 1027 1049 1051 975 1119 1060 1091 1063 1038 1050 1029 1090 1037 1018 1040 1038 1073 1106 1021 992 1042 1106 1028 1047 1058 1053 1009 978 1054 1042 1055 1028 1038 1016 1067 1055 1045 1062 986 1076 1062 1077 1065 1014 1064 1043 1038 1035 1017 1034 1010 1031 1061 1056 1017 1051 1082 1065 1059 1046 1021 1042 1064 1058 1090 1109 1060 1049 1037 1110 965 1098 1036 1033 1033 1038 1051 1046 1039 1031 1088 1021 998 1032 1076 1027 1032 1006 1022 1004 1059 1010 1060 1022 1126 1023 1057 1022 1066 1029 1030 1029 1039 1056 1055 1024 1046 1052 1024 1028 1038 1076 1035 1088 1038 1033 1073 1110 1092 1136 1057 1050 1072 1060 1045 1034 1052 1033 1078 1066 1063 1018 1076 1020 1029 1051 1061 1038 1024 1044 1019 1086 1074 1053 1046 1061 1028 1051 1075 1103 1035 1070 1056 1090 1086 1037 1048 1089 1048 1085 1075 1067 1074 1126 1062 1090 1090 1060 1107 1043 1044 1058 1053 1075 1083 1105 1103 1129 1049 1097 1035 1070 1073 1060 1121 1133 1107 1095 1088 1100 1091 1041 1089 1127 1105 1042 1093 1133 1141 1099 1072 1068 1038 1083 1100 1074 1041 1067 1090 1135 1099 1113 1157 1130 1010 1072 1125 1088 1066 1091 1053 1110 1049 1066 1093 1112 1064 1114 1106 1115 1115 1054 1105 1108 1137 1048 1094 1181 1030 1101 1089 1064 1068 1084 1094 1083 1115 1086 1078 1088 1039 1130 1168 1129 1100 1060 1110 1071 1056 1072 1043 1078 1096 1121 1084 1083 1073 1057 1042 1036 1103 1081 1099 1029 1054 1017 1039 1052 1083 1031 1074 1094 1058 1072 1095 1042 1063 1094 1103 1100 1032 1074 1055 1098 1067 1061 1034 1029 1040 1046 990 988 1090 1042 1011 1066 1099 1032 1102 1083 1038 1042 1046 1100 1010 1074 1048 1039 1035 1013 1027 1042 1033 1118 1078 1056 1075 1068 1078 1055 1086 1031 1027 1028 1010 1075 1046 1085 1060 1018 1043 1092 1037 1029 1064 1068 1061 1070 1046 994 1079 1032 1117 1018 1019 1013 1007 1064 1034 1020 1072 1030 1078 1040 1058 993 1062 1044 1034 1059 1009 1077 1078 1022 1022 1078 1047 993 1124 1057 1014 1013 1004 1101 1046 1053 988 1011 1065 1004 988 1043 1048 997 1047 1059 1069 1038 1068 1050 1047 1044 1086 1003 1027 1104 1048 995 1002 983 996 1078 979 1010 1094 1040 974 1021 1060 1066 1012 1025 1067 981 1031 1063 1054 1045 1108 1021 1040 980 1110 1018 1053 1036 984 1056 1058 1014 1035 1036 1061 1100 1038 1012 1041 1035 1043 1022 1088 1093 1055 1012 1015 1058 1101 1040 966 1069 1064 1024 1011 1026 1065 984 1005 1010 986 1041 1096 1062 1076 1009 1009 1063 1001 1095 1030 1068 1027 1031 1009 1012 1031 1039 1059 1002 1048 1009 1041 1013 1059 1013 982 1024 1013 991 996 1002 982 1030 1047 1100 1006 1021 1024 1089 1024 993 989 1077 968 973 1035 943 988 1086 958 1023 1028 1023 1055 1075 1035 1109 1015 1050 1044 1037 1013 1014 1009 1053 1010 974 1064 995 954 962 1035 966 1017 989 1023 977 971 1029 1001 1092 1039 1033 1015 1034 1031 1010 1035 1008 1099 980 1080 979 1088 1000 1044 1023 1032 1032 992 1078 1025 1050 1037 966 975 955 1010 1016 1009 1014 1035 989 1056 980 1021 1002 992 1062 1075 1073 1003 983 1024 1052 1065 1035 1026 1088 1028 1069 1040 987 995 1006 1031 1072 1024 1038 1037 1041 1037 1083 977 991 1011 1001 1024 1030 1057 1038 987 1044 1068 1056 1019 984 1023 1053 1048 1016 1067 1022 1077 1035 954 1094 1018 1071 1008 1039 1069 988 1041 1119 1058 986 979 1029 1018 987 1037 1084 989 1011 1014 1048 1009 984 1033 981 1085 991 1047 1014 1021 1053 1053 1004 1024 1024 1041 1077 1053 1020 1037 993 1018 1044 1043 988 1078 993 1077 1069 958 1014 981 1011 1064 1044 992 971 1051 1022 1046 1040 996 1025 1057 1014 1031 961 1071 982 1014 976 1056 1085 1049 1058 1087 1009 1001 976</counts>
			</dataPoints>
		</scan>
	</xrdMeasurement>
</xrdMeasurements>
