<?xml version="1.0"?>
<xrdMeasurements xmlns="http://www.xrdml.com/XRDMeasurement/2.3" xmlns:xsi="http://www.w3.org/2001/XMLSchema-instance" xsi:schemaLocation="http://www.xrdml.com/XRDMeasurement/2.3 http://www.xrdml.com/XRDMeasurement/2.3/XRDMeasurement.xsd" status="Completed" recordIdentifier="{3BD87B44-C662-43BA-838B-80C1155E1E47}">
	<comment>
		<entry/>
	</comment>
	<sample type="To be analyzed">
		<id>GPSS_Li1p4Mg0p65Cu0p15Nb0p2Cl4_121325_693cb366f4d05ae3d69752b8</id>
		<name></name>
		<preparedBy></preparedBy>
	</sample>
	<xrdMeasurement measurementType="Scan" status="Completed" sampleMode="Reflection">
		<usedWavelength intended="K-Alpha 1">
			<kAlpha1 unit="Angstrom">1.5405980</kAlpha1>
			<kAlpha2 unit="Angstrom">1.5444260</kAlpha2>
			<kBeta unit="Angstrom">1.3922500</kBeta>
			<ratioKAlpha2KAlpha1>0.5000</ratioKAlpha2KAlpha1>
		</usedWavelength>
		<incidentBeamPath>
			<radius unit="mm">145.00</radius>
			<xRayTube id="1010048" name="Empyrean Cu LFF HR (9430 033 7310x)">
				<tension unit="kV">40.0</tension>
				<current unit="mA">15.0</current>
				<anodeMaterial>Cu</anodeMaterial>
				<focus type="Line">
					<length unit="mm">12.0</length>
					<width unit="mm">0.4</width>
					<takeOffAngle unit="deg">6.0</takeOffAngle>
				</focus>
			</xRayTube>
			<sollerSlit id="21010002" name="Soller slits 0.04 rad.">
				<opening unit="rad">0.0400</opening>
			</sollerSlit>
			<mask id="22031000" name="Fixed mask 13 mm">
				<width unit="mm">9.00</width>
			</mask>
			<divergenceSlit id="22120001" name="Divergence slit 1°" xsi:type="fixedDivergenceSlitType">
				<distanceToSample unit="mm">50.00</distanceToSample>
				<height unit="mm">1.52</height>
			</divergenceSlit>
		</incidentBeamPath>
		<sampleMovement xsi:type="spinningSampleMovementType">
			<spinnerRevolutionTime unit="seconds">1.0</spinnerRevolutionTime>
		</sampleMovement>
		<diffractedBeamPath>
			<radius unit="mm">145.00</radius>
			<antiScatterSlit id="22090040" name="AS slit 9 mm (PIXcel)" xsi:type="fixedAntiScatterSlitType">
				<height unit="mm">9.00</height>
			</antiScatterSlit>
			<sollerSlit id="21020003" name="Large Soller slits 0.04 rad.">
				<opening unit="rad">0.0400</opening>
			</sollerSlit>
			<filter id="20030001" name="Large beta-filter Nickel">
				<material>Ni</material>
				<thickness unit="mm">0.020</thickness>
			</filter>
			<detector id="7010019" name="PIXcel1D-Medipix3 detector" xsi:type="rtmsDetectorType">
				<phd unit="keV">
					<lowerLevel>4.02</lowerLevel>
					<upperLevel>11.27</upperLevel>
				</phd>
				<mode>Scanning</mode>
				<activeLength unit="deg">5.542</activeLength>
			</detector>
		</diffractedBeamPath>
		<scan appendNumber="0" mode="Continuous" scanAxis="Gonio" status="Completed">
			<header>
				<startTimeStamp>2025-12-17T11:54:44-08:00</startTimeStamp>
				<endTimeStamp>2025-12-17T12:02:51-08:00</endTimeStamp>
				<author>
					<name>AutomatedUser</name>
				</author>
				<source>
					<applicationSoftware version="1.7b (136)">PANalytical Aeris Instrument Suite</applicationSoftware>
					<instrumentControlSoftware version="3.2.00000000 20240306">AERIS</instrumentControlSoftware>
					<instrumentID>950485</instrumentID>
				</source>
			</header>
			<dataPoints>
				<positions axis="2Theta" unit="deg">
					<startPosition>10.00943322</startPosition>
					<endPosition>99.99442286</endPosition>
				</positions>
				<positions axis="Omega" unit="deg">
					<startPosition>5.00471661</startPosition>
					<endPosition>49.99721143</endPosition>
				</positions>
				<commonCountingTime unit="seconds">12.495</commonCountingTime>
				<counts unit="counts">2792 2920 2852 2919 2789 2882 2979 2813 2848 2745 2896 2831 2782 2836 2859 2797 2809 2833 2857 2863 2906 2794 2753 2967 2849 2813 2894 2801 2880 2766 2872 2865 2888 2951 2798 2926 2785 2969 2911 2805 2878 2890 2956 2896 2911 2860 2864 2874 2814 2924 2897 2970 2898 2820 2896 2949 2837 2941 2880 2923 2910 2787 2833 2879 2842 2904 2947 2837 2797 2843 2862 2880 2852 2938 2883 2849 2850 2859 2823 2861 2911 2864 2955 2852 2910 2877 2963 2833 2881 2935 2904 2934 2791 3009 2918 2849 2829 2869 2895 2839 2936 2853 2915 2803 2834 2944 2914 2920 2863 2902 2826 2853 2877 3064 2816 2858 2905 2970 2901 2903 2956 2870 2853 2889 2871 2896 2851 2865 2953 2972 2872 2809 2838 2917 2956 2834 2877 2883 2923 2891 2955 2869 2951 2903 2910 2867 2838 2752 2877 2914 2939 2933 2995 2854 2858 2909 2861 2828 2954 2946 2931 2944 2868 2997 2932 2797 2744 2980 2933 2951 3075 2930 2860 2964 2888 2910 2958 2799 2811 2867 2811 2908 2874 2884 2876 2907 2966 2866 2822 2893 2897 3000 2851 2878 2918 2996 2826 2869 2887 2783 2988 2903 2953 2908 2909 2782 2933 2934 2899 2963 2891 2963 2894 2836 3034 2889 2885 2934 2854 2935 2930 2927 2904 2858 2891 2871 2799 2924 2817 2891 2863 2875 2817 2885 2861 2991 2773 2859 2904 2795 2807 2870 2853 2878 2906 2802 2849 2776 2765 2829 2820 2965 2844 2925 2905 2824 2948 2776 2926 2910 2874 2851 2894 2858 2914 2816 2867 2828 2865 2906 2915 2889 2869 2879 2860 2831 2873 2978 2859 2917 2865 2930 2927 2809 2918 2905 2948 2824 2941 2901 2909 2900 2857 2891 2913 2878 2910 2931 2743 2823 2964 2907 2938 2926 2916 2960 2929 3036 2918 3111 2974 2966 2909 2926 2999 2983 2916 2999 3039 3029 2979 3060 2985 2920 3017 3055 3003 3052 3059 3036 2939 2978 3038 3019 3011 2969 3092 3077 2975 3013 2957 3051 3005 3154 3118 3101 3052 2994 3101 3208 3105 3000 3105 3108 3201 3082 3198 3201 3225 3161 3168 3221 3174 3081 3264 3183 3261 3225 3221 3216 3184 3195 3239 3218 3125 3213 3289 3198 3301 3265 3244 3305 3320 3157 3153 3248 3356 3315 3243 3353 3351 3451 3385 3297 3287 3345 3354 3302 3407 3357 3385 3285 3400 3421 3377 3505 3374 3476 3372 3383 3493 3340 3406 3434 3557 3497 3401 3552 3480 3480 3525 3604 3742 3578 3633 3651 3719 3628 3776 3750 3840 3884 3859 3813 4032 3859 3942 3884 3915 4018 4000 3952 3938 3999 3983 4013 4058 3865 3700 3912 3891 3887 3856 3849 3844 3925 3834 3746 3878 3988 3869 3861 3896 3966 3939 4002 3819 3903 3933 3965 3797 3899 3937 3860 3893 3851 3810 3787 3935 3820 3835 3812 3722 3790 3521 3663 3607 3656 3465 3519 3533 3645 3542 3501 3474 3377 3393 3496 3429 3471 3574 3477 3477 3283 3530 3557 3445 3366 3439 3463 3509 3487 3465 3471 3413 3301 3470 3467 3389 3430 3403 3432 3262 3357 3312 3314 3327 3262 3422 3364 3211 3257 3229 3377 3242 3260 3375 3376 3146 3257 3274 3172 3266 3109 3218 3181 3200 3135 3238 3185 3165 3165 3228 3193 3197 3209 3084 3080 3122 3219 3127 3206 3094 3044 2969 3159 3072 3142 3080 3064 3134 2992 3061 3044 3192 3109 3046 3128 2942 3089 3089 3069 3099 2868 3078 3077 3075 3132 3126 3061 3022 3006 2931 3016 3100 2966 2996 3029 2978 3048 2946 2915 2917 2967 2954 2896 2957 2978 2925 2929 2922 2978 2891 2889 2978 2970 2953 2963 2832 2907 2969 2935 2937 2967 2984 2877 2829 2976 2874 2869 2931 2883 2869 2976 2831 2886 2916 2896 2995 2876 2892 2930 2938 2870 2929 2907 2896 2861 2912 2840 2884 2862 2958 2836 2786 2776 2886 2919 2790 2896 2874 2784 2949 2792 2825 2862 2900 2851 2872 2907 2812 2800 2840 2944 2803 2779 2808 2753 2870 2949 2752 2926 2840 2810 2796 2868 2744 2846 2793 2912 2919 2832 2876 2733 2856 2702 2796 2660 2831 2825 2879 2780 2864 2810 2825 2832 2701 2796 2760 2733 2880 2778 2713 2864 2766 2851 2744 2865 2785 2817 2792 2718 2722 2835 2719 2852 2723 2813 2831 2840 2819 2785 2795 2760 2761 2744 2770 2798 2724 2773 2711 2800 2769 2802 2773 2822 2785 2800 2692 2771 2758 2808 2837 2666 2727 2753 2663 2707 2780 2734 2743 2766 2775 2727 2680 2722 2807 2706 2835 2799 2729 2749 2725 2740 2736 2786 2728 2699 2687 2710 2739 2739 2752 2670 2699 2701 2743 2731 2783 2628 2719 2735 2733 2698 2711 2619 2656 2755 2709 2598 2733 2661 2748 2749 2581 2625 2636 2725 2598 2684 2736 2685 2660 2615 2764 2613 2775 2719 2665 2786 2748 2671 2647 2685 2648 2602 2695 2729 2644 2687 2716 2671 2550 2690 2651 2672 2580 2628 2634 2723 2624 2611 2617 2616 2749 2636 2651 2667 2602 2689 2541 2649 2620 2597 2675 2626 2539 2637 2539 2580 2654 2598 2592 2606 2694 2665 2565 2500 2586 2693 2565 2569 2634 2596 2450 2597 2659 2529 2548 2661 2590 2543 2461 2518 2573 2554 2529 2688 2543 2535 2533 2552 2567 2463 2605 2587 2537 2535 2543 2644 2585 2452 2661 2610 2561 2553 2452 2516 2481 2449 2530 2537 2533 2674 2493 2532 2549 2501 2567 2458 2544 2622 2492 2513 2488 2630 2500 2499 2451 2522 2429 2437 2450 2493 2466 2576 2476 2562 2418 2521 2537 2444 2513 2438 2335 2418 2470 2503 2470 2436 2552 2426 2550 2453 2434 2473 2466 2438 2440 2487 2421 2528 2466 2452 2349 2391 2397 2397 2487 2472 2469 2445 2344 2463 2470 2429 2459 2503 2480 2393 2411 2520 2431 2432 2419 2404 2351 2347 2382 2360 2451 2560 2417 2429 2525 2481 2442 2400 2443 2357 2357 2432 2388 2422 2457 2543 2335 2418 2518 2483 2361 2413 2390 2456 2463 2389 2418 2424 2360 2494 2395 2332 2450 2322 2404 2391 2378 2395 2378 2396 2452 2388 2412 2447 2415 2331 2392 2469 2422 2344 2402 2427 2376 2367 2409 2412 2486 2359 2429 2403 2396 2397 2421 2469 2391 2366 2425 2538 2409 2386 2400 2405 2487 2481 2449 2365 2487 2437 2438 2438 2387 2388 2351 2355 2384 2412 2481 2445 2477 2361 2469 2479 2436 2333 2445 2416 2444 2438 2437 2363 2393 2415 2473 2413 2505 2411 2379 2504 2453 2416 2338 2387 2459 2317 2377 2410 2410 2350 2326 2389 2449 2416 2400 2393 2369 2374 2402 2442 2324 2342 2414 2474 2391 2335 2429 2374 2329 2342 2325 2374 2429 2462 2354 2443 2463 2407 2322 2346 2374 2343 2442 2379 2337 2300 2396 2346 2433 2368 2284 2294 2320 2318 2346 2365 2241 2376 2282 2238 2329 2296 2292 2253 2311 2325 2286 2322 2288 2329 2337 2277 2295 2183 2267 2271 2292 2239 2292 2392 2275 2309 2262 2238 2273 2182 2170 2246 2210 2189 2247 2362 2216 2239 2260 2214 2215 2198 2248 2192 2165 2234 2230 2237 2234 2168 2197 2149 2223 2165 2139 2085 2202 2151 2239 2144 2130 2171 2123 2003 2105 2060 2203 2174 2071 2101 2051 2073 2118 2086 2134 2085 2050 2046 2064 2093 2087 2067 2147 1963 2049 2080 2117 2095 2088 2038 2008 2086 2107 2009 1911 1998 2013 2070 2067 2027 2054 2008 2079 1976 2042 1932 1966 1992 2044 1996 1967 2001 2006 1950 2012 1994 1995 2011 1969 1973 1903 2004 1997 1898 1927 1952 1987 2000 1876 1952 1933 1936 2006 1992 1928 1887 2098 2032 2117 2046 2053 2058 2088 2191 2167 2305 2113 2292 2170 2268 2329 2275 2377 2361 2324 2420 2296 2280 2307 2328 2261 2246 2251 2182 2097 2145 2145 2051 2094 2078 2069 2130 2086 2066 2099 2137 2089 2072 2133 2206 2190 2172 2105 2260 2201 2126 2099 2129 2127 2165 2189 2084 2059 2057 1931 1994 1974 1921 1830 1773 1884 1882 1869 1765 1814 1767 1795 1862 1810 1792 1820 1781 1856 1808 1777 1843 1823 1634 1737 1719 1792 1818 1779 1781 1769 1774 1780 1822 1737 1724 1866 1767 1715 1806 1764 1695 1769 1809 1755 1752 1740 1778 1708 1773 1738 1770 1727 1816 1675 1820 1689 1727 1766 1795 1753 1788 1768 1768 1740 1800 1736 1765 1715 1742 1765 1783 1741 1799 1813 1836 1806 1759 1841 1727 1763 1677 1752 1776 1698 1740 1773 1785 1760 1754 1818 1831 1783 1798 1752 1714 1799 1737 1736 1795 1739 1709 1723 1727 1717 1792 1788 1866 1833 1813 1720 1719 1767 1792 1779 1762 1728 1840 1905 1778 1843 1778 1819 1833 1806 1758 1837 1788 1850 1780 1769 1734 1799 1745 1807 1836 1783 1768 1827 1818 1791 1765 1767 1728 1809 1770 1816 1806 1782 1854 1804 1771 1796 1828 1745 1800 1685 1739 1759 1674 1820 1751 1703 1694 1733 1811 1784 1718 1769 1795 1850 1800 1850 1812 1822 1699 1758 1726 1792 1726 1818 1740 1749 1695 1791 1756 1803 1736 1789 1777 1806 1792 1669 1725 1824 1755 1751 1764 1707 1680 1711 1664 1798 1745 1768 1690 1790 1788 1700 1710 1699 1679 1762 1643 1647 1734 1685 1743 1762 1705 1627 1690 1662 1579 1691 1626 1675 1695 1769 1619 1719 1714 1696 1702 1674 1706 1649 1669 1705 1680 1669 1653 1572 1632 1604 1620 1683 1561 1598 1605 1568 1611 1699 1527 1633 1620 1638 1547 1698 1584 1636 1615 1590 1550 1520 1637 1566 1568 1551 1603 1526 1612 1619 1572 1588 1599 1634 1495 1552 1525 1632 1562 1563 1569 1520 1574 1476 1502 1560 1524 1489 1619 1481 1531 1442 1626 1519 1526 1635 1576 1517 1555 1486 1514 1588 1503 1563 1592 1489 1498 1524 1568 1514 1555 1476 1545 1516 1536 1546 1475 1516 1545 1517 1529 1495 1498 1505 1525 1564 1619 1570 1671 1644 1713 1774 1803 1788 1795 1925 1992 1989 2086 2194 2364 2307 2417 2478 2452 2604 2674 2714 2699 2671 2680 2712 2584 2544 2496 2405 2376 2284 2127 2178 2112 2168 1995 2056 2086 2023 2062 2150 2077 2092 2107 2070 2208 2288 2228 2239 2259 2308 2244 2320 2176 2179 2166 2165 2012 1903 2002 1920 1926 1794 1782 1742 1600 1662 1603 1609 1523 1561 1520 1509 1507 1456 1466 1456 1505 1510 1469 1520 1463 1545 1480 1574 1421 1497 1548 1503 1481 1472 1522 1558 1567 1531 1446 1438 1562 1605 1525 1591 1491 1534 1572 1557 1557 1615 1592 1630 1708 1686 1678 1753 1745 1859 1909 1997 2114 2202 2344 2458 2720 2923 3274 3460 3926 4199 4705 5214 5762 6305 6880 7422 7950 8318 8670 9302 9739 10351 10733 11000 11156 10918 10614 10012 9594 9002 8353 8093 7755 7085 6795 6325 6158 5878 6019 5966 5861 6371 6578 6771 7310 7733 7902 8376 8618 8661 8962 9063 9205 9179 9275 9168 9328 9022 8625 8170 7565 6810 6265 5909 5504 4943 4545 4174 3797 3303 3007 2867 2773 2596 2609 2440 2485 2375 2400 2399 2350 2268 2366 2344 2269 2253 2257 2214 2167 2215 2022 1934 1952 1930 1793 1751 1694 1675 1664 1520 1601 1501 1440 1449 1338 1406 1386 1397 1324 1324 1318 1357 1289 1322 1353 1267 1280 1345 1330 1315 1249 1373 1273 1336 1209 1233 1227 1277 1195 1279 1189 1244 1256 1268 1240 1276 1260 1274 1253 1254 1349 1226 1202 1235 1267 1203 1202 1242 1295 1298 1210 1274 1270 1223 1226 1202 1212 1236 1177 1231 1228 1219 1243 1209 1222 1219 1202 1246 1182 1191 1227 1231 1232 1181 1150 1186 1185 1192 1201 1223 1159 1182 1234 1187 1249 1168 1125 1198 1161 1141 1195 1219 1147 1151 1173 1130 1127 1152 1219 1151 1104 1175 1151 1149 1130 1113 1141 1138 1160 1181 1138 1140 1185 1126 1153 1164 1145 1170 1119 1215 1152 1119 1172 1063 1164 1139 1156 1187 1103 1138 1208 1211 1180 1181 1106 1146 1139 1154 1158 1132 1191 1090 1126 1139 1165 1101 1115 1100 1068 1193 1081 1123 1110 1101 1103 1120 1061 1114 1122 1080 1119 1085 1162 1137 1076 1066 1122 1171 1124 1078 1062 1130 1147 1109 1081 1172 1143 1106 1106 1071 1082 1068 1094 1065 1078 1082 1061 1050 1070 1026 1122 1114 1079 1080 1062 1096 1090 1055 1033 1046 1120 1083 1057 1081 1025 1080 1045 1050 991 1029 1122 1121 1186 1038 1104 1074 1077 1066 1079 1070 1020 1062 1074 1132 1048 1122 1026 1089 1105 1025 1109 1064 1096 1084 1116 1082 1086 1148 1082 1100 1106 1118 1139 1114 1061 1064 1093 1134 1075 1090 1133 1015 1045 1166 1100 1129 1074 1094 1049 1078 1099 1063 1086 1091 1131 1093 1076 1138 1089 1105 1058 1107 1117 1118 1094 1090 1133 1081 1116 1041 1125 1154 1105 1147 1132 1130 1157 1118 1173 1186 1119 1129 1128 1117 1161 1132 1134 1153 1128 1150 1171 1152 1133 1170 1156 1174 1208 1138 1151 1208 1183 1293 1145 1188 1240 1172 1219 1214 1216 1263 1210 1257 1274 1242 1302 1381 1272 1293 1332 1402 1363 1457 1494 1616 1568 1737 1804 1921 2019 2147 2356 2589 2663 2994 3319 3535 3909 4239 4753 5136 5643 6033 6530 7306 7591 8261 8816 9406 9507 9754 9602 9729 9065 8642 8394 8033 7686 7336 6957 6609 6292 5981 5591 5440 5337 5259 5159 5352 5379 5545 5797 5921 5849 6206 6079 6244 6305 6513 6480 6648 6559 6484 6411 6275 6103 5764 5558 5491 5280 4984 4859 4481 4267 3870 3658 3492 3227 3050 2813 2615 2499 2345 2297 2225 2185 2131 1989 1976 1918 1901 1891 1959 1898 1849 1836 1797 1738 1826 1672 1630 1682 1662 1557 1504 1563 1421 1362 1358 1343 1335 1255 1269 1251 1211 1224 1206 1223 1162 1100 1133 1132 1136 1120 1108 1090 1061 1085 1047 1031 1088 1114 1000 1074 1070 983 1034 1108 1057 1077 1074 1067 1004 1018 1040 1097 1004 1034 1020 1002 1043 1029 1037 1039 1054 1043 1006 1059 980 1009 956 1095 1034 1052 965 1044 1033 1048 1038 1078 1013 1072 1007 1036 1063 997 1042 1076 1125 1032 1010 1044 1044 1039 946 1033 1017 998 1057 971 980 993 1072 1027 1032 1013 999 1025 1043 1009 1017 1030 993 958 1002 951 960 1031 1036 990 1051 975 1082 956 1046 1017 1008 1001 980 979 1032 977 961 1041 993 1056 988 1078 1041 1023 1012 967 976 969 993 945 976 984 950 923 976 938 965 979 983 1042 1001 931 998 944 992 966 915 977 956 924 978 971 951 924 985 967 1015 966 947 956 1002 971 983 1011 989 929 1051 959 961 947 1030 935 1001 968 981 933 946 988 991 925 947 966 943 1032 978 916 970 891 957 903 973 933 953 941 934 888 1002 951 984 1005 962 946 976 1054 1046 969 960 1037 1024 979 1051 1062 1090 1030 1027 1070 1147 1126 1168 1146 1069 1073 1085 1063 1074 1014 1057 1029 1041 990 985 1020 1005 978 999 997 992 1053 1025 1073 1033 994 1070 981 1013 939 1037 945 1029 1033 1000 989 1000 968 986 953 921 993 944 893 957 958 963 967 911 904 955 932 903 866 932 920 855 945 860 948 877 880 916 894 925 927 888 883 877 911 881 912 913 944 922 908 961 895 902 887 883 937 905 935 918 914 883 895 858 933 860 885 860 873 926 832 913 823 870 857 907 835 894 915 845 868 853 965 839 882 867 907 885 879 864 878 868 925 886 898 857 903 840 893 847 920 901 891 924 878 872 858 834 891 876 838 858 890 930 883 878 825 901 927 892 869 874 897 878 864 914 927 863 846 870 878 819 852 816 853 887 894 873 878 865 876 842 905 860 826 858 864 858 800 831 906 812 880 939 882 842 848 862 900 783 836 819 850 890 870 852 851 826 843 892 833 876 848 825 859 856 825 840 895 845 847 808 843 878 837 824 860 838 856 836 790 828 824 814 854 848 880 830 846 796 876 884 897 796 840 848 863 834 859 813 922 831 803 873 896 824 904 801 862 869 785 811 831 832 846 869 848 865 838 884 824 864 830 866 841 829 866 830 811 845 753 887 847 813 882 804 806 857 799 831 793 850 818 840 834 923 820 831 806 817 823 773 851 806 798 836 837 870 855 872 870 918 824 851 855 858 801 834 839 872 869 821 871 852 849 867 844 824 802 808 789 850 869 879 833 791 851 840 809 842 813 860 853 794 827 876 830 868 832 808 804 790 844 832 816 828 798 773 847 904 783 826 825 845 832 784 808 801 817 836 864 821 805 923 856 744 874 842 823 826 868 823 859 796 813 786 817 827 794 807 825 786 815 762 822 805 801 791 834 881 852 869 790 843 778 816 820 819 807 867 830 813 830 794 810 806 788 824 835 867 771 789 797 804 864 819 843 787 767 838 827 833 820 858 822 761 823 791 777 785 830 842 816 795 794 867 827 837 807 855 850 873 832 900 837 829 868 925 915 939 938 932 980 915 954 1030 949 1040 968 958 979 975 935 895 913 962 922 927 917 972 892 892 932 980 879 855 930 926 865 921 873 908 901 889 888 937 885 917 881 917 923 888 852 883 844 910 882 879 865 871 808 786 793 856 843 843 820 823 772 851 786 862 838 838 797 832 751 819 823 807 788 793 855 810 812 799 823 805 762 832 804 874 825 814 757 809 769 839 799 787 836 808 822 795 801 801 789 737 823 768 808 740 793 835 846 784 786 801 795 782 808 814 804 869 820 825 752 760 777 808 815 782 787 753 817 753 796 792 801 805 780 767 776 878 817 805 817 803 814 776 785 810 784 827 841 840 804 820 839 804 844 763 819 823 803 780 765 755 771 798 796 772 742 833 761 745 795 779 847 789 813 800 742 785 785 782 786 846 850 839 808 788 808 831 822 825 793 811 813 828 808 848 826 804 841 781 784 755 806 819 800 775 804 806 825 831 806 814 817 813 858 842 840 895 791 851 830 820 823 794 824 845 883 814 810 814 898 796 835 854 849 902 826 894 951 906 892 967 927 996 1080 1024 1191 1179 1201 1309 1393 1463 1524 1554 1644 1754 1770 1949 2002 2024 2070 1946 1973 1982 1861 1827 1782 1733 1757 1797 1677 1721 1770 1644 1602 1547 1543 1476 1509 1590 1437 1489 1425 1496 1447 1455 1337 1426 1374 1402 1316 1361 1300 1208 1309 1317 1242 1129 1120 1054 1047 1036 995 999 1015 977 999 943 906 877 923 846 933 881 872 841 850 832 896 837 820 856 827 815 824 769 831 737 807 800 799 818 782 793 762 797 767 785 767 827 799 801 784 808 745 733 746 809 789 773 783 780 757 805 787 806 761 788 805 783 775 697 765 760 772 736 744 786 782 813 792 797 747 770 746 733 762 790 786 820 771 761 772 756 768 750 845 794 755 771 786 767 736 749 762 757 786 793 793 732 787 712 760 792 744 759 748 726 787 760 807 796 752 789 774 771 790 753 793 726 745 756 781 774 831 773 705 785 718 750 759 768 773 806 777 777 734 766 722 770 756 802 768 824 748 765 767 807 772 747 731 766 783 739 741 741 811 726 744 820 716 781 789 836 801 821 742 759 736 728 789 754 739 763 746 747 781 790 782 734 752 783 811 813 794 776 786 786 809 775 773 785 817 810 858 777 837 780 799 787 811 840 809 850 818 779 814 811 792 819 768 795 754 821 829 791 779 826 780 782 793 791 811 809 799 806 844 776 793 801 820 798 805 803 812 804 847 782 790 769 851 831 763 773 825 807 810 753 804 808 790 871 781 806 824 785 842 816 805 837 828 761 787 824 814 803 742 775 771 822 881 836 798 836 826 804 789 828 776 821 804 848 796 823 754 826 812 818 790 821 883 797 783 819 736 826 808 839 893 858 882 810 863 865 861 851 846 888 907 887 907 880 941 948 902 878 969 937 1015 947 975 1013 1032 1014 1004 1101 1076 1149 1189 1176 1249 1301 1374 1527 1570 1752 1870 2006 2323 2558 2825 3120 3583 3905 4380 4799 5238 5654 6219 6707 6987 7157 7297 7217 7228 6967 6793 6491 6342 6063 5872 5987 6018 5839 5890 5836 5698 5499 5489 5330 5179 4860 4742 4849 4751 4711 4479 4443 4416 4254 4157 4041 3974 3752 3694 3702 3520 3380 3190 3158 2950 2775 2762 2527 2457 2330 2252 2171 2140 1862 1903 1799 1887 1883 1834 1822 1683 1668 1661 1638 1682 1628 1616 1614 1623 1612 1558 1599 1522 1495 1470 1490 1423 1478 1377 1382 1329 1273 1347 1267 1294 1306 1227 1234 1226 1237 1191 1205 1183 1162 1112 1176 1084 1068 1058 1048 1053 1033 1026 989 1003 951 937 923 919 907 864 888 888 850 850 840 847 815 806 834 812 837 797 783 784 809 845 795 820 771 765 800 812 809 738 782 757 816 769 752 834 760 740 766 806 772 816 821 770 762 787 726 788 773 765 790 758 803 741 726 767 774 771 800 730 747 732 809 740 787 735 783 768 815 742 761 759 748 807 796 760 794 768 761 781 799 779 750 719 803 758 755 710 747 770 745 700 762 782 749 784 764 821 766 778 801 750 745 775 806 759 756 756 807 759 768 810 800 788 832 776 782 830 816 863 799 852 840 861 813 890 830 831 877 859 887 887 871 899 848 893 812 854 869 930 835 846 797 815 766 805 790 831 806 788 795 787 808 789 800 783 795 789 811 770 820 777 839 789 819 783 725 770 740 771 770 733 740 788 794 780 768 825 760 791 734 727 738 712 754 744 755 727 708 788 752 724 763 760 702 759 746 747 702 787 730 704 751 740 764 693 710 702 712 739 704 796 714 783 737 702 723 804 698 717 698 725 731 684 739 711 739 731 715 756 752 677 720 691 753 744 720 700 711 721 726 732 655 690 795 726 751 644 740 709 711 657 677 715 715 692 716 691 708 702 658 700 735 707 709 668 697 744 717 713 681 693 706 673 715 655 736 703 749 721 724 725 712 734 696 682 712 729 721 710 712 726 738 670 681 697 710 758 700 728 690 678 705 726 629 698 686 744 723 713 734 712 690 715 717 735 672 665 727 694 735 648 669 626 737 669 693 661 717 714 754 654 683 701 683 700 698 643 674 705 705 710 711 693 662 669 681 723 713 688 738 698 695 693 720 710 654 670 701 668 652 697 704 671 696 715 620 683 676 679 666 684 738 695 664 686 700 700 697 691 729 649 683 714 676 721 707 665 683 704 694 673 623 674 696 716 744 714 698 675 712 702 701 701 719 677 728 650 715 667 662 682 697 682 651 650 650 689 664 747 681 677 657 680 692 670 737 650 693 682 689 680 664 677 649 734 677 682 741 690 653 685 700 600 703 708 678 676 756 635 662 668 716 692 679 723 687 690 658 726 642 661 703 647 672 680 659 655 684 680 711 746 689 743 688 699 675 746 692 729 710 728 710 717 710 723 717 661 759 706 663 675 715 705 735 661 712 698 737 712 727 711 719 739 777 708 692 694 733 697 652 681 676 743 727 746 701 730 709 663 669 742 695 621 691 723 645 639 695 665 663 668 654 710 676 683 695 617 691 642 666 737 706 660 661 668 690 676 668 666 695 642 674 705 683 645 683 660 651 623 676 620 633 693 676 691 666 687 703 683 682 696 658 697 669 680 648 661 678 694 692 636 661 642 666 675 687 671 679 683 665 729 695 689 652 602 658 651 644 655 649 676 728 687 666 709 724 723 657 706 706 630 687 653 674 652 671 691 688 739 681 696 659 615 675 665 683 695 684 644 658 686 692 641 699 654 682 688 702 662 759 645 691 639 733 678 669 667 673 671 670 660 700 664 671 677 647 699 676 652 687 670 661 661 705 738 681 679 718 657 679 704 724 707 710 768 703 726 754 740 760 758 820 764 790 803 879 828 798 786 794 790 809 850 829 784 764 783 782 804 803 758 806 781 778 785 836 758 814 833 764 854 821 779 852 782 788 771 771 796 831 805 816 782 794 831 790 816 848 829 804 790 878 782 802 851 835 882 911 1048 1028 1081 1121 1165 1339 1437 1504 1479 1671 1891 1934 2138 2269 2372 2504 2582 2689 2652 2693 2439 2441 2348 2327 2219 2271 2207 2190 2258 2194 2316 2320 2319 2285 2363 2210 2122 1967 2028 1916 1969 1896 1798 1761 1644 1729 1601 1515 1531 1440 1407 1410 1394 1364 1293 1314 1239 1203 1211 1196 1172 1099 1049 1005 1023 1002 990 1018 954 937 1004 961 937 894 960 866 922 895 902 912 987 947 976 1061 1033 1008 1033 982 1038 1130 1045 1052 1008 1031 1027 954 921 1007 998 1006 1000 986 1017 1015 1041 963 992 983 877 956 920 867 909 863 890 833 830 829 817 830 841 835 811 822 799 795 759 746 752 734 783 718 686 677 723 655 704 678 752 694 666 709 649 659 686 666 672 694 683 669 656 688 658 672 646 663 643 700 687 658 580 670 681 603 663 666 667 637 645 675 623 645 656 640 686 585 608 694 611 667 657 667 653 649 655 665 646 664 686 669 681 678 643 639 650 657 651 666 628 663 659 678 650 624 683 679 606 706 656 660 679 642 663 675 708 658 634 670 716 661 657 640 663 670 644 679 683 664 665 660 649 705 696 687 699 706 639 673 675 643 699 691 659 663 686 747 700 679 645 696 705 687 677 711 727 716 719 722 738 761 757 756 720 784 792 846 817 837 848 868 933 1000 1113 1110 1212 1308 1396 1527 1605 1726 1864 1923 2029 1961 2031 1949 1865 1861 1742 1707 1697 1673 1608 1656 1704 1778 1727 1829 1828 1760 1818 1792 1735 1723 1695 1635 1518 1508 1436 1512 1372 1340 1321 1338 1270 1244 1236 1213 1219 1236 1192 1081 1100 1076 1077 1051 982 903 964 924 851 877 847 853 787 749 808 771 817 865 828 755 734 737 715 723 775 791 775 809 802 794 838 815 846 781 847 877 840 859 818 833 813 822 828 839 793 824 835 797 834 820 825 722 802 801 758 794 768 764 776 755 777 754 718 725 750 764 740 677 700 688 716 682 687 712 671 733 707 709 703 678 653 685 667 707 714 683 682 710 627 669 655 635 664 644 661 634 635 640 669 642 677 670 621 651 639 612 615 623 618 628 628 658 602 691 648 648 642 605 631 609 642 605 628 659 637 642 631 633 636 607 656 618 592 645 650 670 677 696 646 661 655 670 684 622 680 671 689 737 810 775 770 756 808 816 829 879 862 815 825 838 782 749 779 798 821 791 822 797 787 790 838 802 813 779 775 812 761 781 791 726 760 720 715 713 719 675 723 677 726 701 689 672 666 688 702 666 651 658 697 662 680 645 694 648 650 610 655 631 636 607 646 637 584 641 625 644 649 599 602 592 595 593 579 598 634 650 630 611 634 636 653 587 605 628 630 624 617 598 634 625 605 577 612 623 609 608 596 601 581 573 624 634 646 596 655 608 599 602 651 637 598 609 636 627 599 626 622 588 588 608 572 630 561 585 614 608 633 627 646 595 594 597 565 592 588 595 626 563 585 624 593 608 629 618 627 595 631 593 616 596 628 626 599 553 601 633 594 585 566 578 581 584 596 598 588 589 622 602 554 617 565 607 599 562 606 598 646 600 566 617 540 601 595 648 640 609 589 651 599 646 618 604 614 640 532 554 573 578 581 591 580 580 582 586 557 542 588 588 624 578 603 623 614 580 635 593 624 619 564 568 642 648 621 576 560 592 609 579 575 595 563 585 588 605 566 566 608 600 570 567 600 557 604 602 598 593 591 605 553 583 611 604 605 539 556 596 595 601 576 608 618 584 626 585 564 565 617 623 611 599 571 574 606 551 595 601 598 630 559 577 593 593 590 594 621 553 565 585 559 585 548 588 588 597 644 564 588 610 618 564 514 548 563 611 577 614 552 583 572 609 612 602 609 598 616 610 609 635 668 637 619 661 658 637 646 675 661 669 684 636 635 636 689 633 644 611 620 609 629 601 625 614 681 648 661 645 661 614 686 605 604 573 604 561 622 584 594 577 619 591 623 632 607 623 588 580 583 575 605 581 547 608 574 609 535 588 611 584 585 567 591 639 581 566 596 559 597 637 562 613 613 622 555 601 590 583 539 606 591 555 546 590 530 608 539 619 551 582 556 559 610 571 564 574 546 605 568 581 554 626 601 579 587 563 547 541 575 612 549 584 570 603 548 588 559 555 569 582 547 579 581 551 588 564 564 567 559 579 552 560 591 559 570 575 576 544 559 572 625 652 622 583 577 543 598 578 610 548 550 570 635 572 575 574 584 589 602 615 594 603 556 594 619 552 613 581 593 590 600 617 602 609 563 593 594 630 655 667 605 680 661 719 704 695 742 801 770 814 801 783 804 821 772 830 761 853 783 784 817 738 723 754 757 725 753 790 759 842 777 775 754 762 769 744 777 689 726 715 700 699 713 728 658 662 660 679 679 640 661 655 654 686 655 660 620 618 609 561 619 601 566 582 595 577 587 620 577 597 584 560 547 540 566 562 581 537 611 564 607 564 567 602 599 578 573 594 616 594 599 569 582 536 608 603 567 575 553 559 624 547 588 570 553 609 535 606 584 577 564 570 582 572 520 549 586 583 566 583 556 541 573 563 590 615 550 589 590 552 584 545 597 627 539 571 566 544 558 598 549 539 588 572 579 597 563 564 565 575 583 570 561 554 535 539 564 552 551 564 590 562 549 617 537 592 606 571 591 559 541 597 544 574 558 612 542 549 546 590 520 600 549 588 552 574 579 551 548 532 571 540 594 619 554 541 561 551 547 584 601 612 540 607 527 541 547 594 568 596 523 551 599 582 617 539 588 532 591 548 628 597 521 557 546 554 573 553 566 527 574 556 572 597 550 540 618 595 568 577 581 566 574 563 602 559 568 602 641 576 544 540 645 634 587 599 519 574 643 564 601 569 559 535 540 545 603 546 626 584 604 562 580 537 607 570 592 620 603 616 619 580 653 620 611 613 643 593 639 592 604 631 642 691 666 622 676 642 688 641 735 709 696 753 808 817 891 901 967 1006 1052 1122 1159 1153 1247 1239 1393 1299 1283 1324 1296 1333 1185 1145 1185 1155 1123 1198 1221 1240 1204 1162 1239 1228 1202 1252 1226 1212 1163 1186 1101 1067 1050 1038 1031 991 1002 892 944 902 865 862 889 828 779 814 786 824 755 711 698 709 686 692 725 690 706 677 652 642 636 636 643 585 645 625 648 621 606 626 625 653 649 608 653 573 609 640 638 653 641 571 643 649 636 649 633 636 695 644 644 677 678 706 702 674 705 679 673 714 645 721 698 717 711 695 660 695 687 637 675 645 668 596 639 651 675 667 659 652 682 663 656 661 620 654 631 643 630 619 654 646 631 624 654 606 623 618 541 551 595 589 572 562 551 569 582 554 546 552 598 594 558 591 573 543 639 561 619 572 597 564 557 588 548 581 573 575 586 619 612 624 586 567 581 543 606 653 620 636 571 657 600 658 614 626 675 680 645 650 618 620 632 614 630 592 609 611 594 652 591 591 670 654 638 622 646 660 635 610 652 594 634 618 617 617 620 614 579 593 566 604 590 576 652 579 597 603 628 606 549 599 556 574 579 556 547 550 575 572 600 578 562 534 591 578 589 542 557 531 585 579 544 586 517 569 571 568 580 609 582 543 547 516 534 523 543 530 600 579 555 584 571 558 601 535 561 548 572 572 558 566 558 538 544 559 555 564 562 526 586 558 538 564 525 526 559 545 548 544 544 573 574 552 539 536 585 564 573 557 548 518 529 577 544 561 554 507 565 524 586 561 553 554 593 522 595 539 538 570 538 581 555 538 542 570 552 562 557 510 520 555 552 536 557 555 546 594 564 559 586 539 537 614 589 569 567 569 596 502 568 554 552 536 538 543 539 537 572 572 576 538 550 590 574 563 575 562 527 562 492 550 500 497 612 571 565 532 566 583 563 541 546 578 497 567 589 549 568 579 566 561 559 584 550 594 539 583 532 545 572 562 519 525 574 540 549 575 540 549 547 550 573 536 591 507 568 579 497 540 629 526 548 589 540 593 521 518 551 560 590 582 573 558 565 545 581 560 560 571 579 587 575 542 565 515 511 522 548 593 547 535 552 568 540 538 554 538 561 580 533 587 534 595 548 579 578 524 581 546 572 601 602 593 585 571 555 575 580 594 540 613 620 587 546 566 549 539 543 538 575 580 560 586 573 561 547 605 561 559 605 584 602 602 596 558 569 554 609 564 592 514 629 573 587 537 569 561 555 578 556 577 565 537 558 577 564 557 545 557 524 546 577 566 546 556 577 539 634 581 594 543 545 537 554 549 585 562 538 572 601 602 563 580 584 578 562 538 563 579 597 553 517 586 534 547 530 520 550 614 560 547 553 561 518 593 532 558 588 594 591 555 569 576 574 591 531 525 582 595 608 562 561 550 558 564 537 579 533 589 546 578 550 570 582 556 571 584 591 538 604 580 550 602 617 648 546 551 567 574 558 547 546 591 590 585 547 598 546 593 579 577 601 626 589 568 575 583 608 549 616 628 641 669 678 679 699 668 798 775 738 717 774 696 716 696 738 726 707 686 738 696 744 698 738 766 721 752 695 759 764 699 794 686 752 707 709 750 736 708 656 667 695 705 691 721 719 710 660 672 704 707 684 686 714 754 778 775 834 808 871 898 925 932 1032 1057 1135 1182 1175 1154 1134 1172 1116 1100 1098 1123 1026 995 1037 1000 1077 1004 997 1006 1030 1075 1015 1061 1044 1141 1088 1073 1040 1049 986 1035 983 962 936 886 884 876 850 863 856 806 801 754 759 762 774 711 775 694 705 741 708 700 729 679 628 682 688 659 645 666 656 633 689 700 645 572 621 564 586 647 598 619 600 652 594 592 596 597 587 610 573 584 631 623 614 577 552 574 630 591 568 616 615 642 628 668 629 644 642 655 628 686 621 649 684 701 714 664 666 712 685 682 722 717 697 697 705 664 681 686 663 691 702 707 672 675 618 739 673 679 658 686 634 651 743 703 695 659 602 651 649 622 680 570 621 656 659 650 609 675 634 573 608 608 614 619 600 627 621 609 596 623 609 586 592 613 581 652 543 606 601 606 573 608 581 609 563 599 606 647 578 587 590 595 600 616 597 608 625 609 573 624 612 610 643 637 644 562 628 631 646 660 638 627 621 715 612 651 683 683 658 684 627 697 668 675 706 728 740 732 758 798 866 890 944 887 1055 1016 1146 1215 1316 1409 1458 1484 1626 1594 1736 1664 1634 1536 1582 1531 1454 1448 1435 1325 1425 1418 1375 1430 1335 1430 1437 1504 1406 1512 1470 1518 1426 1443 1483 1428 1346 1356 1316 1215 1233 1187 1202 1093 1069 1008 1017 1009 957 957 926 899 966 889 852 865 859 758 820 775 784 769 735 755 683 717 767 657 713 701 647 630 698 664 622 677 644 575 623 629 651 667 618 587 665 654 650 643 621 604 645 606 596 610 639 628 672 648 618 623 622 614 641 659 656 597 672 666 642 652 678 713 704 721 695 690 723 715 738 695 739 683 735 753 777 713 737 749 711 761 731 711 728 717 729 741 759 730 705 700 706 714 702 727 685 682 644 708 698 699 727 670 692 668 683 667 679 694 643 628 633 651 617 671 575 674 669 705 656 629 599 619 636 630 662 631 617 619 629 678 659 624 668 667 701 625 644 668 643 621 636 667 670 613 678 623 667 624 637 617 637 602 608 625 617 660 636 627 645 601 635 627 608 667 622 627 611 612 652 614 579 585 572 591 562 607 610 602 494 565 555 637 617 595 569 570 585 581 567 577 524 628 578 592 576 535 556 624 576 567 594 561 574 592 540 543 592 555 592 555 547 512 590 518 615 571 547 563 566 584 575 557 577 581 509 571 590 614 576 589 521 554 577 598 570 582 536 520 515 592 532 569 518 534 575 545 559 547 593 573 557 570 575 537 576 590 577 566 580 538 585 510 577 519 558 560 554 584 564 553 607 542 575 553 566 586 579 555 531 559 547 574 590 540 599 536 562 595 583 547 556 523 579 546 577 567 578 544 520 553 598 526 546 537 573 553 602 582 584 539 571 577 563 584 548 588 558 588 559 573 598 534 539 543 569 553 583 522 572 531 533 552 550 541 540 533 578 534 542 595 519 586 583 582 533 555 561 533 536 550 574 598 567 521 540 530 593 552 559 580 526 581 578 547 526 520 566 562 572 575 566 539 606 538 578 542 560 576 595 547 554 563 560 599 578 547 563 546 541 524 573 560 594 550 604 609 558 589 539 547 543 520 597 572 504 559 522 509 554 519 566 567 559 527 497 577 588 528 601 515 568 593 550 576 535 577 557 556 514 554 557 584 553 556 569 604 594 572 555 533 574 550 540 555 589 578 544 563 537 576 551 550 560 568 567 612 538 551 546 564 546 536 592 517 599 530 552 586 504 555 532 554 563 529 569 553 588 558 598 595 520 568 553 572 580 572 581 557 552 549 557 547 527 580 571 563 589 597 563 544 585 591 474 535 579 575 588 527 550 543 557 560 556 535 570 559 540 501 545 572 553 569 576 581 531 547 505 550 533 547 519 546 547 522 568 585 533 577 550 564 582 541 543 549 561 589 542 582 576 527 530 532 566 562 553 535 572 560 567 553 561 559 551 602 575 509 650 570 575 553 616 598 549 575 590 528 601 577 585 605 603 557 587 584 632 597 639 665 666 642 628 691 639 694 740 727 715 737 697 690 725 763 709 663 690 663 648 659 679 675 637 611 682 668 641 674 666 610 666 646 693 717 666 689 696 593 647 663 652 655 644 647 645 612 634 640 602 667 610 596 600 580 592 578 580 569 572 593 601 608 548 582 528 574 603 595 647 575 630 576 528 554 590 531 554 529 577 572 536 583 565 539 544 582 550 561 549 562 595 516 553 570 548 554 527 568 559 550 551 522 575 539 569 537 545 570 556 527 548 550 576 537 597 583 561 596 554 559 520 559 549 572 529 556 602 545 563 578 557 577 567 577 541 578 561 538 568 537 555 570 572 515 585 575 573 579 543 568 562 581 549 522 531 564 584 550 593 534 584 619 584 559 577 547 542 585 551 567 603 540 571 535 599 582 602 585 602 580 557 579 554 612 565 580 596 564 579 601 550 544 549 567 569 602 542 544 539 524 511 547 565 550 541 567 537 566 581 561 560 556 579 624 599 618 526 560 579 551 575 585 579 610 573 528 573 609 561 590 500 593 599 614 573 595 533 548 566 572 592 587 560 561 578 591 587 603 594 614 625 601 632 636 551 607 624 596 604 628 570 600 652 618 591 598 598 630 611 570 673 632 612 699 638 658 704 689 711 695 751 762 799 795 829 918 970 1004 1034 1139 1247 1338 1396 1409 1494 1611 1668 1657 1665 1708 1665 1567 1543 1510 1439 1371 1394 1376 1418 1328 1365 1246 1270 1297 1315 1275 1270 1290 1311 1343 1377 1412 1378 1469 1402 1373 1340 1370 1270 1264 1201 1192 1083 1057 1099 1057 1030 987 925 905 904 909 951 903 870 850 828 798 725 790 792 745 777 734 747 722 717 652 664 714 688 639 684 618 657 641 658 678 589 669 623 598 587 603 577 586 578 594 542 551 587 585 614 558 593 561 625 609 609 615 594 607 595 585 600 586 632 594 586 569 571 602 594 623 619 571 576 681 624 633 619 643 645 612 645 616 631 627 628 643 634 622 666 689 632 687 637 674 691 650 694 707 672 710 722 678 675 700 707 721 649 703 647 649 649 714 700 673 624 651 626 651 676 713 641 660 612 662 679 621 684 669 683 698 658 687 658 685 646 659 665 651 704 675 668 647 613 617 648 677 649 619 618 615 645 612 612 614 641 673 630 647 588 644 582 627 598 646 598 670 632 625 625 666 593 600 538 614 563 582 584 560 595 550 621 622 591 571 606 546 578 579 546 571 590 585 561 560 608 589 548 537 527 548 598 589 551 572 553 572 577 572 495 535 562 553 531 557 574 578 549 570 583 525 576 603 549 564 592 532 582 552 577 575 496 591 509 538 561 527 587 565 580 559 585 577 540 592 540 530 576 570 523 537 548 552 533 571 572 516 557 523 538 550 583 556 557 606 573 502 593 535 581 550 597 546 551 524 573 518 567 533 581 576 546 584 531 557 515 595 535 583 571 571 554 568 525 554 519 556 549 554 513 579 509 575 553 541 581 553 564 529 568 566 569 577 571 567 542 546 570 529 540 541 546 588 534 560 592 582 529 527 524 568 577 540 568 548 587 573 544 545 537 582 556 514 546 572 546 578 533 575 521 579 583 563 537 564 509 560 577 524 532 552 535 557 571 555 543 587 542 592 545 582 532 576 562 567 563 556 528 508 540 577 543 535 596 568 576 552 570 540 526 546 599 570 558 540 554 551 577 539 561 542 544 576 506 563 585 528 534 562 530 500 543 558 587 586 580 557 567 562 569 557 555 530 558 562 581 569 536 542 570 582 586 573 585 580 573 555 547 530 547 548 576 542 594 526 597 512 577 581 570 544 560 554 551 552 578 564 552 551 497 556 555 546 589 558 560 562 539 537 553 531 517 567 562 527 565 561 571 573 547 557 555 575 536 530 591 550 606 547 581 509 544 543 534 535 585 511 551 537 560 580 560 532 543 547 588 565 585 573 533 535 563 539 574 528 578 520 608 561 524 551 550 571 581 528 476 566 570 566 545 562 548 575 557 540 565 529 555 584 539 556 512 615 492 606 563 589 551 540 577 583 588 528 562 601 562 573 523 570 570 576 574 596 581 551 569 564 560 588 603 582 513 550 555 539 567 568 584 599 579 567 567 603 593 607 599 633 619 645 618 669 689 664 698 760 701 705 763 757 802 811 788 849 908 772 884 888 897 856 849 828 848</counts>
			</dataPoints>
		</scan>
	</xrdMeasurement>
</xrdMeasurements>
