<?xml version="1.0"?>
<xrdMeasurements xmlns="http://www.xrdml.com/XRDMeasurement/2.3" xmlns:xsi="http://www.w3.org/2001/XMLSchema-instance" xsi:schemaLocation="http://www.xrdml.com/XRDMeasurement/2.3 http://www.xrdml.com/XRDMeasurement/2.3/XRDMeasurement.xsd" status="Completed" recordIdentifier="{B876070E-EF56-46E5-A17C-072856868190}">
	<comment>
		<entry/>
	</comment>
	<sample type="To be analyzed">
		<id>GPSS_Li1p80Mn0p90In0p05Ta0p05Cl4_111225_691549b847a6a0fd7c6580cc</id>
		<name></name>
		<preparedBy></preparedBy>
	</sample>
	<xrdMeasurement measurementType="Scan" status="Completed" sampleMode="Reflection">
		<usedWavelength intended="K-Alpha 1">
			<kAlpha1 unit="Angstrom">1.5405980</kAlpha1>
			<kAlpha2 unit="Angstrom">1.5444260</kAlpha2>
			<kBeta unit="Angstrom">1.3922500</kBeta>
			<ratioKAlpha2KAlpha1>0.5000</ratioKAlpha2KAlpha1>
		</usedWavelength>
		<incidentBeamPath>
			<radius unit="mm">145.00</radius>
			<xRayTube id="1010048" name="Empyrean Cu LFF HR (9430 033 7310x)">
				<tension unit="kV">40.0</tension>
				<current unit="mA">15.0</current>
				<anodeMaterial>Cu</anodeMaterial>
				<focus type="Line">
					<length unit="mm">12.0</length>
					<width unit="mm">0.4</width>
					<takeOffAngle unit="deg">6.0</takeOffAngle>
				</focus>
			</xRayTube>
			<sollerSlit id="21010002" name="Soller slits 0.04 rad.">
				<opening unit="rad">0.0400</opening>
			</sollerSlit>
			<mask id="22031000" name="Fixed mask 13 mm">
				<width unit="mm">9.00</width>
			</mask>
			<divergenceSlit id="22120001" name="Divergence slit 1°" xsi:type="fixedDivergenceSlitType">
				<distanceToSample unit="mm">50.00</distanceToSample>
				<height unit="mm">1.52</height>
			</divergenceSlit>
		</incidentBeamPath>
		<sampleMovement xsi:type="spinningSampleMovementType">
			<spinnerRevolutionTime unit="seconds">1.0</spinnerRevolutionTime>
		</sampleMovement>
		<diffractedBeamPath>
			<radius unit="mm">145.00</radius>
			<antiScatterSlit id="22090040" name="AS slit 9 mm (PIXcel)" xsi:type="fixedAntiScatterSlitType">
				<height unit="mm">9.00</height>
			</antiScatterSlit>
			<sollerSlit id="21020003" name="Large Soller slits 0.04 rad.">
				<opening unit="rad">0.0400</opening>
			</sollerSlit>
			<filter id="20030001" name="Large beta-filter Nickel">
				<material>Ni</material>
				<thickness unit="mm">0.020</thickness>
			</filter>
			<detector id="7010019" name="PIXcel1D-Medipix3 detector" xsi:type="rtmsDetectorType">
				<phd unit="keV">
					<lowerLevel>4.02</lowerLevel>
					<upperLevel>11.27</upperLevel>
				</phd>
				<mode>Scanning</mode>
				<activeLength unit="deg">5.542</activeLength>
			</detector>
		</diffractedBeamPath>
		<scan appendNumber="0" mode="Continuous" scanAxis="Gonio" status="Completed">
			<header>
				<startTimeStamp>2025-11-16T16:02:00-08:00</startTimeStamp>
				<endTimeStamp>2025-11-16T16:10:07-08:00</endTimeStamp>
				<author>
					<name>AutomatedUser</name>
				</author>
				<source>
					<applicationSoftware version="1.7b (136)">PANalytical Aeris Instrument Suite</applicationSoftware>
					<instrumentControlSoftware version="3.2.00000000 20240306">AERIS</instrumentControlSoftware>
					<instrumentID>950485</instrumentID>
				</source>
			</header>
			<dataPoints>
				<positions axis="2Theta" unit="deg">
					<startPosition>10.00943322</startPosition>
					<endPosition>99.99442286</endPosition>
				</positions>
				<positions axis="Omega" unit="deg">
					<startPosition>5.00471661</startPosition>
					<endPosition>49.99721143</endPosition>
				</positions>
				<commonCountingTime unit="seconds">12.495</commonCountingTime>
				<counts unit="counts">3065 2996 3003 3095 3005 2956 2981 3077 3087 3025 2996 3065 2998 3083 3020 3050 3054 3111 3000 3071 3088 3058 3002 3069 3003 3089 3125 3073 3086 3081 3044 2933 3062 2925 3102 3043 2936 3065 3086 3014 3047 3053 3029 2988 3054 3008 3087 3003 3002 3078 3097 3087 3147 3150 3160 3007 3058 3142 3041 3126 3021 3049 3121 3155 3156 3037 3098 3084 3215 3127 3095 3117 3164 3115 3171 3136 3246 3179 3242 3191 3137 3087 3144 3166 3156 3103 3170 3237 3153 3205 3132 3163 3223 3168 3269 3251 3209 3191 3276 3306 3253 3185 3276 3302 3186 3389 3220 3208 3172 3228 3164 3313 3170 3287 3287 3179 3315 3284 3227 3250 3275 3278 3155 3241 3294 3239 3162 3256 3310 3333 3233 3262 3256 3245 3279 3183 3338 3186 3293 3244 3257 3191 3253 3188 3267 3212 3214 3134 3272 3263 3227 3169 3210 3224 3264 3216 3299 3198 3096 3255 3355 3202 3202 3314 3305 3264 3232 3344 3239 3244 3323 3241 3262 3168 3266 3219 3264 3115 3219 3208 3276 3178 3220 3266 3265 3368 3312 3243 3226 3189 3329 3281 3230 3253 3250 3214 3319 3240 3148 3276 3253 3203 3352 3212 3348 3191 3259 3184 3254 3187 3218 3209 3226 3271 3369 3193 3195 3146 3311 3199 3210 3203 3195 3262 3168 3219 3171 3213 3141 3255 3193 3191 3207 3189 3372 3249 3203 3089 3077 3260 3193 3220 3231 3126 3067 3163 3282 3125 3189 3180 3163 3240 3123 3147 3124 3106 3063 3179 3154 3144 3143 3189 3181 3239 3043 3272 3116 3209 3296 3211 3211 3166 3163 3244 3237 3139 3185 3273 3161 3264 3136 3117 3115 3251 3077 3152 3069 3146 3190 3083 3278 3120 3100 3198 3145 3147 3266 3146 3226 3171 3235 3179 3196 3180 3241 3120 3177 3199 3290 3243 3211 3125 3305 3210 3321 3219 3246 3303 3315 3290 3307 3166 3339 3238 3274 3203 3251 3238 3197 3171 3321 3264 3423 3337 3352 3371 3358 3254 3271 3340 3352 3421 3231 3387 3376 3446 3414 3238 3284 3405 3345 3319 3326 3345 3361 3474 3394 3398 3420 3343 3384 3368 3464 3421 3447 3406 3476 3457 3490 3467 3493 3488 3472 3428 3443 3467 3402 3493 3472 3498 3538 3483 3582 3617 3567 3598 3591 3622 3603 3621 3618 3548 3647 3526 3727 3672 3590 3697 3656 3700 3791 3724 3640 3762 3672 3758 3780 3820 3807 3807 3790 3803 3839 3962 3836 4059 3971 4001 4047 4144 4203 4314 4165 4312 4345 4304 4337 4365 4561 4398 4614 4546 4489 4705 4729 4750 4728 4932 4949 4889 5032 4975 4906 4972 5179 5167 5273 5260 5454 5427 5483 5374 5585 5422 5576 5570 5376 5192 5021 5001 4801 4570 4558 4398 4288 4253 4099 4099 4097 4147 3937 4062 3870 3884 3956 3986 3966 3966 3965 3951 3967 3907 3970 4048 3978 3989 3829 4045 4060 4084 3978 3930 3913 4041 3998 3989 3953 4027 3981 4011 4015 3949 4047 3801 3951 3951 3781 3699 3797 3701 3608 3591 3622 3459 3578 3562 3567 3548 3596 3627 3440 3478 3625 3514 3552 3386 3545 3420 3429 3450 3401 3415 3481 3409 3365 3362 3420 3425 3372 3422 3288 3371 3387 3403 3350 3341 3323 3394 3359 3367 3339 3311 3319 3283 3321 3332 3395 3321 3299 3329 3359 3281 3362 3254 3317 3278 3255 3269 3333 3347 3273 3275 3310 3241 3284 3222 3184 3294 3332 3230 3218 3302 3214 3192 3295 3155 3174 3123 3301 3153 3207 3210 3218 3196 3343 3166 3223 3152 3197 3091 3145 3278 3262 3166 3153 3216 3195 3119 3186 3160 3161 3177 3108 3121 3190 3158 3188 3143 3163 3155 3196 3104 3221 3120 3167 3099 3127 3085 3109 3041 3218 3132 3077 3125 3124 3080 3108 3066 3058 3153 3044 3118 3061 3062 3065 3130 3068 3101 3058 3016 2950 3051 3144 3122 3042 3116 3026 3112 2998 3072 3108 3056 3132 3049 3062 3054 3157 3039 2983 3141 3077 3213 3028 3155 3020 2975 3026 3175 2982 3083 3047 3084 3139 3056 3086 2975 2991 3037 3056 3089 2913 3027 2991 3029 2984 2934 2990 2928 2944 3056 3041 2983 2970 3087 3030 2977 3004 3072 3030 2961 2977 3039 2991 3053 2943 2963 3004 3027 2997 2932 3052 3035 2897 2911 2953 3071 2908 2994 2963 2915 3026 3014 3023 3005 3017 3044 2922 2991 3003 3022 2987 2968 2964 2959 2991 2971 2882 2978 2919 3058 2907 2943 2925 2884 2926 2894 2985 2909 2876 2926 2876 2923 3011 2919 2891 2926 2926 2872 3047 2845 2951 2912 2965 2899 3002 2940 2888 2933 2952 2924 2968 2981 2897 2992 2982 2921 2891 2921 2928 2926 2924 2855 2984 2893 2912 2915 2839 2948 2952 2865 2885 2923 2916 2852 2913 2778 2941 2782 2834 2925 2867 2907 2982 2918 2931 2815 2830 2944 2964 2872 3004 2831 2924 2935 2860 2769 2878 2941 2956 2770 2778 2821 2865 2817 2859 2770 2919 2810 2951 2956 2786 2867 2745 2794 2853 2872 2802 2803 2828 2901 2780 2860 2865 2926 2785 2856 2785 2814 2763 2842 2802 2775 2888 2777 2811 2754 2794 2755 2798 2869 2814 2819 2750 2891 2821 2788 2854 2791 2860 2769 2781 2785 2740 2652 2761 2734 2838 2750 2821 2942 2793 2901 2786 2804 2790 2738 2785 2824 2743 2687 2779 2717 2702 2686 2794 2900 2732 2736 2743 2820 2696 2709 2878 2825 2727 2798 2797 2698 2748 2727 2799 2743 2765 2765 2722 2762 2764 2708 2734 2690 2713 2706 2731 2708 2836 2691 2656 2732 2657 2652 2673 2677 2583 2720 2704 2641 2694 2698 2673 2730 2669 2724 2740 2776 2762 2688 2699 2619 2675 2741 2739 2731 2645 2669 2696 2689 2633 2574 2774 2608 2586 2654 2651 2677 2721 2677 2680 2575 2683 2631 2723 2719 2562 2531 2772 2642 2676 2704 2702 2742 2759 2681 2664 2658 2681 2638 2710 2536 2620 2691 2701 2798 2563 2664 2571 2710 2690 2621 2559 2737 2640 2690 2637 2660 2694 2651 2747 2696 2719 2601 2654 2607 2730 2795 2649 2725 2637 2667 2634 2699 2679 2652 2690 2568 2632 2559 2599 2649 2664 2580 2607 2706 2652 2681 2589 2624 2630 2752 2694 2553 2675 2687 2600 2642 2590 2589 2714 2697 2649 2621 2640 2625 2719 2667 2735 2621 2715 2718 2730 2651 2670 2624 2677 2655 2684 2664 2698 2715 2644 2707 2620 2644 2697 2718 2694 2650 2731 2611 2688 2634 2656 2612 2630 2582 2735 2655 2608 2683 2684 2714 2720 2736 2718 2649 2602 2677 2598 2693 2661 2634 2582 2765 2675 2669 2612 2635 2671 2631 2653 2611 2759 2566 2662 2627 2673 2599 2632 2725 2582 2535 2664 2553 2623 2727 2637 2645 2617 2595 2642 2577 2655 2577 2526 2599 2635 2621 2646 2459 2632 2603 2637 2622 2580 2572 2596 2523 2582 2610 2523 2562 2601 2520 2585 2500 2565 2615 2533 2476 2604 2459 2602 2492 2559 2584 2520 2458 2556 2507 2590 2463 2613 2512 2531 2521 2418 2394 2384 2385 2485 2454 2507 2449 2371 2459 2456 2408 2445 2508 2359 2320 2553 2469 2390 2479 2367 2443 2384 2357 2463 2362 2389 2446 2339 2370 2366 2365 2320 2339 2345 2319 2410 2355 2404 2325 2353 2289 2214 2302 2422 2273 2274 2287 2263 2336 2271 2387 2297 2313 2420 2233 2236 2329 2257 2297 2305 2266 2288 2244 2238 2217 2272 2257 2289 2182 2235 2193 2291 2191 2255 2234 2254 2200 2195 2161 2154 2265 2274 2171 2224 2225 2202 2215 2302 2259 2161 2184 2169 2135 2090 2219 2115 2207 2167 2194 2143 2073 2047 2164 2141 2120 2213 2197 2160 2097 2131 2100 2062 2087 2149 2056 2160 2086 2113 2092 2164 2220 2057 2031 2124 1963 2159 2061 2104 2037 2101 2076 2048 2127 2052 2096 2033 2024 2067 2072 2043 1992 2023 2065 2029 2087 2038 2122 2053 2031 2078 1967 2046 2048 2059 2082 2043 1988 2084 2094 2064 1996 2019 2013 2067 2047 1986 2090 1983 2049 1947 1998 2047 1971 2029 2068 1994 2072 2075 2016 1935 2112 2013 2033 2040 2075 1984 2006 2061 1979 2060 1994 2045 2033 2002 1980 2046 1937 1995 1929 1978 2028 1963 2069 2041 1998 2126 2063 2038 1956 2006 2074 1947 2017 2000 1911 1921 2064 1946 2003 1999 1933 1986 1926 2050 2076 1988 2009 2029 1981 2018 1971 2029 1982 2048 2068 2044 2034 2050 1989 2055 2001 2083 2039 1958 2041 1862 2047 2044 1949 2056 2050 2006 1965 2013 2054 2007 2062 2060 2055 2003 2027 2033 2043 2009 2011 1997 2007 2036 1955 1987 2106 2076 2063 2048 2048 1952 2021 2032 2066 2009 1999 2045 2078 1969 2028 1982 1979 1977 2035 1960 2009 2007 1991 2019 1970 2025 2093 1987 1978 1950 1997 2044 1937 2057 2003 2003 2021 1997 2039 1982 2072 2004 2135 1893 2044 1993 2105 2052 2018 1950 1966 2025 1990 1963 1995 2005 2024 1934 1960 2025 2038 1936 2025 2007 2053 2086 2033 1984 1944 1907 1931 1957 2036 1930 1938 1927 1995 1942 2017 1962 1968 1972 1963 1926 1975 2017 1977 1994 1989 1966 1967 1978 1971 2009 1972 1985 1927 2009 1940 1884 1911 2005 1914 1891 1910 1958 1934 1971 1906 1899 1954 1920 1799 1948 1908 1903 1906 1845 1845 1876 1964 1907 1877 1907 1831 1911 1885 1848 1877 1894 1878 1836 1850 1879 1904 1836 1823 1840 1839 1821 1846 1817 1849 1811 1870 1825 1827 1818 1771 1851 1808 1818 1845 1801 1715 1783 1835 1693 1907 1770 1839 1838 1784 1735 1804 1715 1787 1832 1772 1841 1819 1704 1782 1729 1773 1798 1789 1848 1761 1691 1779 1781 1801 1794 1753 1790 1735 1769 1766 1774 1674 1712 1708 1815 1773 1805 1775 1810 1769 1731 1758 1716 1776 1787 1750 1700 1748 1816 1828 1774 1783 1740 1868 1839 1838 1807 1899 1863 1932 1910 1944 1994 2043 2094 2119 2105 2149 2217 2301 2396 2374 2542 2530 2633 2662 2842 2732 2780 2977 3011 3090 3107 3204 3335 3277 3329 3293 3458 3200 3127 3206 2837 2855 2641 2593 2546 2416 2220 2200 1994 2039 1986 1862 1879 1876 1800 1825 1750 1765 1746 1743 1734 1652 1737 1671 1654 1647 1627 1684 1711 1630 1669 1647 1710 1694 1675 1616 1671 1600 1620 1603 1668 1690 1564 1545 1586 1526 1710 1577 1622 1642 1492 1606 1536 1592 1702 1591 1613 1608 1529 1571 1618 1574 1546 1581 1653 1621 1675 1599 1705 1590 1693 1598 1618 1745 1645 1661 1701 1632 1640 1693 1728 1740 1763 1768 1838 1987 1881 1948 2040 2095 2115 2244 2319 2379 2554 2514 2537 2746 2759 2876 3077 3302 3322 3574 3481 3580 3907 3995 4080 4126 4304 4343 4385 4382 4398 4423 4289 4005 3588 3625 3354 3109 2909 2801 2482 2335 2262 2033 1920 2001 1868 1792 1777 1751 1720 1682 1644 1617 1669 1632 1694 1710 1748 1667 1665 1714 1752 1769 1735 1826 1745 1843 1795 1869 1753 1870 1874 1830 1923 1873 1925 2058 2002 2075 2167 2160 2222 2164 2187 2192 2156 2159 2135 1999 1894 1857 1838 1790 1705 1628 1646 1623 1572 1586 1519 1557 1505 1465 1486 1484 1473 1517 1478 1441 1411 1387 1397 1472 1572 1513 1454 1473 1481 1450 1394 1463 1532 1414 1452 1457 1486 1445 1488 1484 1479 1409 1510 1511 1450 1480 1541 1420 1507 1353 1473 1491 1422 1468 1424 1512 1413 1463 1454 1433 1440 1393 1422 1486 1413 1448 1360 1442 1408 1365 1365 1392 1332 1361 1443 1386 1394 1359 1443 1404 1316 1415 1391 1425 1375 1376 1374 1390 1387 1366 1381 1365 1437 1407 1422 1365 1343 1414 1421 1351 1383 1394 1407 1431 1349 1320 1377 1386 1354 1422 1436 1372 1325 1351 1339 1442 1394 1409 1364 1387 1321 1345 1489 1388 1388 1343 1348 1331 1390 1380 1406 1381 1330 1395 1361 1319 1380 1377 1315 1341 1372 1408 1318 1352 1268 1371 1369 1337 1355 1323 1299 1339 1361 1357 1425 1483 1412 1372 1324 1316 1357 1368 1326 1354 1395 1390 1361 1343 1294 1345 1420 1369 1378 1439 1387 1365 1327 1369 1272 1346 1339 1324 1319 1294 1376 1382 1330 1343 1344 1301 1419 1307 1435 1281 1348 1327 1396 1318 1360 1434 1378 1452 1308 1434 1350 1362 1269 1384 1353 1410 1318 1321 1376 1295 1409 1355 1338 1339 1294 1311 1361 1302 1332 1294 1305 1370 1314 1342 1301 1399 1328 1341 1366 1338 1310 1399 1301 1303 1328 1292 1403 1393 1423 1355 1332 1299 1383 1320 1343 1377 1405 1341 1353 1379 1344 1358 1322 1368 1383 1340 1399 1376 1429 1457 1411 1264 1334 1310 1436 1383 1358 1404 1346 1333 1361 1385 1273 1351 1334 1408 1275 1364 1398 1373 1399 1411 1416 1412 1379 1410 1366 1390 1348 1470 1344 1408 1413 1403 1324 1400 1464 1387 1368 1393 1518 1399 1441 1418 1426 1425 1449 1439 1452 1433 1487 1416 1488 1496 1415 1410 1502 1492 1551 1561 1515 1525 1585 1570 1663 1609 1602 1752 1657 1742 1851 1868 1818 1975 1911 2115 2084 2217 2400 2404 2533 2681 2841 2996 3284 3422 3657 3919 4314 4573 4859 5394 5732 6109 6480 7006 7408 7783 8166 8955 9426 9713 9982 10494 10949 11030 11324 10995 10488 9993 9124 8497 8137 7474 6992 6543 5938 5255 4545 4141 3899 3454 3237 2919 2835 2748 2730 2485 2486 2538 2387 2358 2478 2438 2454 2441 2431 2486 2380 2497 2573 2417 2483 2436 2405 2419 2352 2295 2286 2300 2223 2203 2073 2080 2100 2173 2104 2168 2077 2124 2113 2107 2185 2206 2288 2379 2386 2326 2464 2343 2354 2318 2385 2355 2317 2339 2143 2075 2005 1933 1913 1913 1784 1717 1703 1632 1553 1496 1604 1463 1471 1432 1414 1380 1417 1366 1413 1333 1322 1376 1446 1368 1392 1345 1331 1350 1313 1407 1312 1354 1340 1378 1314 1248 1282 1386 1317 1366 1322 1208 1341 1309 1284 1315 1256 1336 1307 1324 1224 1356 1267 1251 1300 1281 1225 1355 1301 1258 1265 1324 1235 1283 1286 1345 1279 1292 1265 1279 1220 1295 1244 1277 1303 1285 1291 1266 1283 1212 1258 1273 1318 1286 1208 1252 1305 1256 1240 1297 1276 1257 1305 1274 1281 1294 1235 1286 1248 1246 1226 1331 1221 1305 1203 1210 1266 1293 1310 1289 1298 1264 1284 1217 1241 1293 1227 1225 1275 1259 1244 1200 1290 1259 1296 1190 1243 1204 1280 1202 1263 1214 1244 1255 1246 1234 1298 1286 1213 1279 1219 1232 1240 1224 1253 1246 1284 1246 1242 1205 1231 1226 1223 1208 1242 1279 1199 1207 1244 1254 1166 1204 1274 1234 1259 1220 1213 1288 1194 1299 1233 1175 1162 1211 1238 1230 1237 1292 1289 1252 1218 1241 1275 1291 1245 1298 1178 1202 1216 1180 1226 1190 1253 1284 1231 1161 1195 1307 1212 1203 1241 1268 1274 1303 1254 1279 1301 1235 1285 1290 1289 1307 1290 1295 1313 1325 1381 1410 1395 1384 1377 1373 1395 1374 1357 1307 1318 1312 1286 1309 1306 1205 1224 1224 1223 1215 1183 1231 1256 1311 1195 1257 1211 1215 1254 1253 1315 1245 1171 1282 1157 1245 1215 1272 1228 1194 1287 1238 1218 1247 1222 1241 1244 1209 1207 1198 1241 1264 1213 1321 1304 1286 1268 1257 1269 1266 1265 1223 1267 1237 1224 1225 1261 1209 1285 1270 1195 1188 1253 1259 1246 1212 1179 1181 1190 1205 1183 1172 1182 1252 1179 1195 1168 1167 1180 1163 1201 1180 1139 1225 1207 1210 1144 1177 1169 1112 1230 1171 1181 1158 1204 1215 1217 1226 1118 1140 1129 1174 1180 1147 1097 1205 1178 1134 1217 1189 1146 1168 1162 1113 1192 1150 1141 1137 1159 1168 1132 1193 1134 1173 1123 1130 1156 1106 1193 1142 1130 1159 1147 1172 1131 1192 1183 1198 1167 1263 1128 1154 1181 1172 1194 1175 1128 1155 1171 1128 1159 1161 1171 1151 1104 1143 1079 1161 1119 1171 1181 1179 1134 1128 1143 1142 1108 1148 1155 1067 1103 1069 1170 1147 1230 1159 1118 1098 1167 1211 1155 1150 1158 1117 1148 1126 1171 1168 1119 1128 1103 1091 1102 1161 1189 1137 1133 1098 1094 1134 1117 1145 1114 1180 1169 1171 1173 1126 1102 1107 1123 1101 1154 1136 1212 1136 1159 1154 1169 1154 1117 1159 1142 1117 1139 1154 1165 1091 1070 1204 1073 1151 1146 1097 1220 1160 1106 1165 1119 1166 1167 1189 1111 1225 1151 1206 1143 1112 1176 1123 1132 1124 1132 1165 1202 1096 1224 1118 1185 1138 1126 1098 1127 1131 1166 1116 1037 1143 1119 1169 1116 1127 1099 1151 1098 1168 1126 1117 1118 1096 1099 1160 1146 1114 1158 1136 1122 1138 1122 1100 1161 1110 1133 1129 1145 1133 1167 1092 1080 1109 1094 1156 1144 1098 1105 1078 1097 1147 1164 1138 1098 1070 1134 1117 1098 1153 1084 1089 1081 1076 1109 1115 1126 1087 1103 1101 1139 1205 1149 1146 1098 1128 1097 1100 1163 1163 1108 1131 1224 1133 1076 1133 1104 1085 1111 1137 1193 1089 1163 1181 1071 1142 1128 1073 1114 1131 1174 1093 1119 1116 1120 1163 1115 1206 1071 1148 1122 1163 1105 1116 1091 1139 1124 1128 1083 1097 1095 1115 1123 1084 1139 1121 1077 1096 1130 1134 1127 1178 1111 1094 1146 1094 1123 1104 1101 1138 1102 1119 1125 1120 1135 1125 1113 1129 1090 1110 1135 1145 1098 1150 1168 1147 1108 1108 1132 1121 1101 1093 1110 1187 1169 1196 1135 1054 1143 1121 1169 1149 1123 1066 1148 1132 1087 1169 1115 1139 1105 1132 1149 1150 1105 1129 1144 1160 1142 1163 1094 1085 1078 1100 1091 1115 1156 1118 1173 1112 1119 1085 1125 1159 1111 1156 1159 1088 1140 1105 1100 1205 1147 1167 1087 1133 1111 1163 1044 1197 1139 1168 1112 1145 1182 1149 1156 1102 1114 1121 1170 1133 1131 1141 1111 1063 1144 1089 1111 1073 1104 1060 1147 1152 1180 1076 1098 1120 1135 1094 1022 1085 1109 1116 1073 1109 1146 1109 1150 1081 1103 1152 1147 1184 1186 1104 1057 1039 1122 1155 1182 1143 1113 1110 1074 1156 1138 1099 1141 1126 1083 1090 1118 1099 1133 1100 1141 1205 1099 1119 1126 1152 1138 1096 1093 1079 1154 1164 1105 1132 1119 1140 1152 1135 1095 1134 1136 1107 1104 1164 1120 1129 1101 1054 1123 1087 1129 1114 1132 1157 1090 1073 1124 1132 1122 1069 1155 1154 1057 1101 1127 1134 1133 1095 1097 1108 1167 1075 1133 1100 1155 1062 1122 1098 1086 1072 1077 1096 1168 1091 1098 1041 1106 1135 1129 1110 1086 1186 1129 1135 1201 1148 1158 1090 1135 1109 1149 1069 1136 1149 1147 1192 1132 1131 1151 1178 1106 1120 1157 1078 1094 1099 1140 1142 1132 1078 1164 1147 1153 1099 1168 1139 1202 1177 1089 1164 1171 1204 1169 1133 1190 1240 1215 1214 1228 1264 1301 1193 1284 1348 1366 1395 1368 1418 1523 1607 1616 1672 1685 1832 1838 1853 1946 2006 2132 2087 2102 2189 2228 2324 2214 2129 2050 2043 1997 1950 1865 1810 1785 1697 1591 1612 1608 1498 1462 1404 1384 1348 1311 1235 1255 1195 1219 1212 1223 1163 1168 1217 1162 1151 1089 1175 1084 1136 1172 1153 1080 1103 1092 1130 1149 1149 1116 1132 1132 1032 1120 1156 1141 1095 1125 1133 1077 1106 1091 1089 1102 1157 1167 1159 1136 1142 1135 1149 1162 1107 1102 1142 1166 1158 1175 1138 1166 1142 1193 1189 1159 1149 1150 1178 1137 1208 1212 1249 1231 1166 1166 1140 1246 1189 1181 1197 1180 1196 1187 1176 1152 1174 1088 1135 1122 1175 1151 1157 1117 1175 1148 1115 1142 1139 1132 1062 1120 1124 1114 1066 1128 1083 1126 1150 1113 1118 1105 1070 1056 1114 1102 1057 1063 1131 1127 1096 1128 1057 1091 1083 1146 1120 1125 1132 1134 1145 1095 1064 1095 1108 1034 1123 1112 1054 1117 1097 1110 1133 1084 1139 1091 1151 1114 1085 1061 1103 1112 1098 1076 1089 1099 1005 1112 1113 1085 1089 1044 1089 1087 1128 1092 1095 1081 1024 1131 1117 1100 1102 1089 1059 1126 1129 1028 1071 1104 1042 1082 1112 1044 1069 1066 1102 1052 1119 1106 1159 1110 1122 1079 1097 1097 1090 983 1109 1068 1102 1134 1113 1127 1145 1114 1181 1115 1143 1115 1118 1126 1065 1079 1058 1140 1158 1088 1119 1074 1135 1190 1124 1122 1075 1123 1197 1040 1062 1096 1122 1122 1141 1106 1151 1164 1111 1090 1142 1112 1094 1146 1147 1217 1106 1103 1134 1153 1144 1139 1080 1176 1081 1147 1090 1137 1101 1137 1061 1180 1149 1087 1181 1105 1117 1138 1133 1130 1059 1117 1106 1191 1126 1146 1080 1191 1116 1133 1097 1121 1018 1084 1108 1162 1118 1111 1101 1081 1199 1182 1096 1168 1090 1096 1126 1137 1103 1089 1080 1078 1127 1144 1167 1162 1156 1110 1082 1181 1140 1125 1135 1111 1212 1133 1157 1146 1188 1188 1181 1176 1217 1155 1198 1194 1264 1204 1203 1187 1259 1169 1278 1245 1277 1264 1254 1208 1281 1335 1265 1277 1286 1320 1364 1302 1407 1411 1461 1457 1494 1543 1586 1677 1689 1850 1950 1975 2186 2225 2424 2521 2727 2978 3271 3500 3684 4046 4321 4643 5161 5477 5937 6183 6554 6963 7110 7234 7150 6869 6921 6422 6067 5724 5383 5218 4916 4717 4598 4314 4143 3864 3692 3375 3054 2782 2546 2240 2166 1938 1719 1688 1556 1585 1489 1390 1407 1427 1389 1411 1354 1256 1330 1296 1300 1215 1252 1264 1275 1250 1237 1237 1208 1223 1201 1251 1189 1197 1188 1151 1196 1198 1206 1238 1175 1218 1227 1206 1219 1208 1187 1200 1182 1216 1134 1183 1147 1217 1197 1199 1213 1238 1296 1250 1249 1287 1284 1287 1339 1400 1292 1391 1347 1466 1416 1537 1448 1602 1560 1603 1535 1565 1588 1587 1651 1689 1583 1558 1653 1581 1600 1613 1598 1564 1563 1530 1594 1484 1474 1453 1485 1372 1412 1321 1395 1342 1310 1296 1245 1257 1294 1271 1177 1192 1203 1222 1229 1201 1179 1181 1178 1122 1211 1115 1182 1186 1177 1135 1128 1146 1196 1042 1165 1076 1112 1149 1094 1182 1101 1108 1107 1115 1115 1104 1081 1152 1031 1071 1137 1145 1109 1112 1098 1150 1107 1091 1085 1084 1066 1113 1105 1106 1094 1091 1071 1101 1111 1058 1141 1127 1124 1134 1170 1053 1113 1084 1119 1149 1115 1155 1182 1087 1132 1152 1152 1208 1156 1189 1076 1141 1154 1135 1172 1214 1252 1300 1335 1359 1274 1414 1412 1424 1517 1541 1608 1670 1720 1686 1758 1818 1830 1733 1812 1682 1647 1622 1598 1604 1560 1550 1562 1496 1597 1508 1492 1511 1474 1375 1318 1314 1234 1191 1236 1189 1212 1231 1219 1180 1176 1161 1170 1201 1137 1096 1094 1097 1075 1108 1140 1089 1077 1041 1053 1118 1081 1079 1091 1098 1105 975 1075 1069 1002 1021 1059 1051 1054 1018 1071 1004 1073 1048 1004 1015 1022 1036 1032 1055 1047 1081 1055 1028 994 1027 1038 1029 1039 1046 1055 1053 1010 1117 1039 1038 1082 1078 1066 1047 1021 1014 1039 1045 1060 1070 977 1026 1072 1100 1074 1025 1030 1073 984 1036 1061 1013 1065 1102 1006 1042 978 986 1058 1054 1044 1090 1084 1038 1017 1069 1086 1031 989 1002 1017 1037 1058 974 1075 1052 965 1120 1011 1087 1001 1001 1001 1091 1009 1043 1043 996 1026 1015 987 1050 991 1014 1006 1011 1024 1028 981 1057 1038 1036 1030 1045 1059 1001 993 1060 1004 1063 1029 963 1084 1018 1004 1028 1003 1019 970 1043 995 1030 1016 1016 1034 1008 991 1025 1023 1049 1020 1077 983 1047 1028 1026 1009 1041 1035 1052 998 997 1069 1010 1028 1048 1043 992 1014 1034 1020 1113 1039 1069 1017 1012 1036 1056 1022 1089 1039 973 1055 1077 1015 1045 1027 1040 1062 1011 1048 984 1009 1044 1020 1053 1062 1004 969 1028 1003 971 983 1063 1038 1077 1013 1010 995 992 984 1036 1003 1040 1030 1012 969 1035 1019 1025 965 1033 940 979 1042 1041 1036 983 996 946 1021 1013 968 1007 990 1011 1005 1024 985 1014 1010 1046 992 1020 992 1052 1030 1008 1042 986 1064 1029 1043 1032 1004 995 1016 945 1093 1005 1067 993 1032 977 1023 968 1030 1012 1007 1004 1046 1028 1038 1046 1030 978 1017 1004 1005 1021 1018 1032 1027 1035 1009 1008 1023 994 1065 1044 997 977 984 1013 1012 1040 1068 1037 1006 1031 1017 958 972 975 1067 1050 1040 1017 1060 1028 998 1016 1005 1012 965 962 1006 1004 1018 1037 978 1002 1078 1008 993 963 983 1074 997 1007 1010 1020 979 1022 1003 987 1033 995 1039 1005 1085 1006 1009 1010 1037 1075 1020 981 1003 1044 1059 1056 1010 1023 999 990 998 1019 980 1001 1028 1022 969 950 1032 1000 944 952 941 980 1046 1018 1048 1054 1010 952 1020 970 1049 992 991 1021 954 961 979 1011 972 978 1089 991 986 1020 996 975 956 1021 959 996 998 1037 954 1033 1003 962 979 991 982 979 1003 988 993 987 988 997 1062 1020 951 1007 1021 1015 1020 1019 978 1060 1005 974 995 1075 1046 1023 946 1028 1013 1006 970 1006 971 1059 993 1022 994 976 963 993 971 967 1022 1001 1018 972 979 1046 1007 993 1035 1012 950 993 981 984 1051 969 1015 982 1014 1035 977 978 910 1067 1004 970 968 994 961 1020 1016 956 948 974 986 968 988 1006 961 968 992 992 958 947 1020 971 1002 1038 982 958 1022 1063 1000 1047 1058 1117 1060 1043 1076 1019 989 1078 1098 1036 1108 1049 1057 1089 1136 1174 1114 1128 1202 1184 1160 1226 1147 1153 1177 1184 1145 1192 1180 1067 1152 1156 1141 1170 1071 1141 1088 1081 1090 1085 1083 1037 1054 1024 1009 1030 1014 1025 1044 1058 989 1060 1005 1035 982 1068 1061 1063 1042 1041 1024 1044 1033 1073 1043 1088 1082 1095 993 1098 1136 1091 1095 1116 1107 1145 1139 1244 1224 1271 1340 1453 1482 1517 1519 1541 1602 1608 1640 1654 1697 1617 1602 1533 1579 1531 1463 1492 1368 1340 1294 1373 1405 1335 1264 1374 1291 1246 1236 1212 1187 1161 1042 1089 1035 1074 1034 1030 1065 1048 1005 1027 1033 1038 1010 1042 1005 995 1025 981 1053 1004 998 923 983 1030 1009 1032 1018 1023 1041 1047 960 1012 1038 1050 1044 1031 983 1003 1065 1055 958 995 953 1057 1001 1010 956 996 1023 1025 1006 1020 1026 996 1001 1022 1014 974 966 980 1010 942 1002 1048 1005 1003 993 1006 1043 1020 1032 1057 1054 1034 1050 994 1027 1069 1047 1034 1075 1042 1070 1069 1064 1094 1086 1123 1138 1127 1087 1128 1198 1160 1170 1151 1181 1230 1162 1145 1225 1221 1103 1198 1172 1208 1114 1089 1087 1161 1088 1148 1123 1118 1100 1072 1115 1065 1072 1085 1022 1030 1063 1069 962 992 962 964 1050 997 1066 986 1077 1037 1005 978 1009 998 992 996 1037 1040 983 974 959 985 969 1032 929 979 912 980 927 990 993 981 1055 986 980 1013 1032 1014 992 898 963 964 983 1034 982 979 993 935 984 939 1005 957 1004 957 1039 992 956 994 956 984 1028 999 960 1004 978 960 1066 1002 1060 1044 1000 1029 981 1081 1018 1076 1008 1056 995 1100 1013 1044 961 1028 1063 1036 1089 1057 1074 1106 1109 1056 1161 1066 1101 1087 1169 1207 1164 1264 1311 1305 1336 1425 1437 1573 1638 1761 1777 1908 1991 2200 2268 2296 2500 2551 2585 2472 2522 2388 2252 2177 2097 1988 1963 1829 1842 1859 1871 1848 1845 1829 1837 1808 1887 1803 1695 1604 1490 1473 1301 1352 1351 1301 1202 1215 1177 1188 1212 1177 1160 1155 1151 1072 1131 1122 1058 1039 1087 1054 1043 1037 1043 1048 1038 1040 1001 1158 1059 1038 974 1020 1034 1025 990 1028 996 1057 921 975 1005 994 1036 1011 1001 980 1026 1001 1015 1053 1013 1014 952 1035 1027 1014 1018 993 1018 1034 1007 989 955 1008 977 1031 1020 985 993 1043 962 979 981 966 1070 999 1019 991 1006 1099 1005 1022 1007 1062 980 1000 1011 988 1005 1065 1033 1049 1024 1008 1082 1090 1032 1057 1084 1109 1124 1145 1096 1113 1088 1085 1088 1150 1060 1089 1037 1012 1072 1050 1033 981 1015 1088 1012 1083 1031 1037 968 987 1063 1025 969 951 1025 1034 1025 989 975 1028 1036 946 1011 993 935 1054 992 1039 1044 972 990 997 1031 1041 1006 1016 1026 1067 1053 1089 1024 1047 1144 1128 1078 1138 1179 1132 1191 1204 1279 1302 1279 1345 1294 1266 1305 1329 1256 1230 1257 1193 1185 1165 1140 1193 1181 1240 1206 1202 1220 1176 1202 1217 1242 1130 1171 1095 1081 1075 1101 1043 1074 1018 1069 1015 1080 1050 1045 1008 979 1045 1025 971 1005 932 967 970 1010 970 989 977 969 1019 989 970 996 1006 940 960 1018 957 949 1033 908 959 961 953 963 1005 1009 883 952 977 974 985 952 964 974 994 1016 1019 963 960 955 959 965 1015 960 974 994 920 962 1015 951 981 932 987 928 969 923 978 965 972 990 961 966 970 993 918 1021 1018 969 941 960 990 978 966 974 958 996 999 970 939 919 912 948 902 999 938 951 932 961 963 974 957 940 955 946 951 977 925 941 980 972 967 995 919 929 934 937 921 980 1009 922 978 965 968 919 944 964 908 938 962 960 958 956 1011 940 992 1014 916 961 987 995 978 1008 911 1003 987 975 981 957 967 969 976 989 928 1013 925 1020 1001 958 1025 1001 1028 994 954 959 973 900 1007 894 947 954 983 945 947 945 950 932 937 975 983 949 985 963 942 925 946 938 914 1021 942 983 945 999 908 962 927 988 911 931 979 972 971 968 977 980 996 971 931 931 954 938 918 948 948 970 955 950 967 949 921 973 928 910 940 941 937 970 912 920 917 891 949 987 972 918 932 895 1001 939 934 919 931 888 928 970 963 933 959 980 966 942 990 983 936 946 940 930 966 961 984 984 940 966 918 951 920 954 940 973 911 965 937 996 958 907 955 894 955 934 908 934 966 953 987 928 962 913 967 979 928 975 929 971 930 956 917 942 1012 965 971 930 964 933 934 932 995 916 937 898 882 969 900 963 927 983 975 969 952 924 924 990 961 992 910 927 917 954 835 934 914 985 969 890 923 938 955 911 979 965 901 946 973 951 861 950 905 951 949 915 935 975 988 882 936 934 988 968 914 932 917 915 896 875 930 896 942 954 966 985 898 940 874 937 970 931 926 919 916 959 920 881 954 919 918 925 940 976 936 902 926 918 928 893 973 924 1001 899 959 984 921 943 916 954 918 925 974 898 946 978 932 974 898 915 955 932 955 905 927 880 950 908 904 963 959 893 881 885 897 905 951 939 960 931 904 894 965 1003 917 967 1026 973 908 974 948 914 925 951 918 949 942 950 928 996 1026 991 967 1064 981 1083 1061 1073 1116 1115 1139 1122 1109 1195 1162 1173 1177 1092 1144 1153 1149 1082 1075 962 1070 1008 1061 1018 1115 1021 1067 1024 1064 1031 1069 1048 991 1055 1001 978 978 1047 1031 971 971 951 925 937 979 917 977 908 987 949 954 933 926 923 967 930 1006 962 954 951 988 917 914 913 928 1007 974 991 1002 947 953 995 956 926 982 924 930 943 946 984 977 1003 915 916 897 977 989 960 933 950 1020 963 970 907 1016 962 935 939 894 945 937 981 969 976 1002 928 928 951 979 922 940 942 921 875 922 936 938 891 934 991 961 948 924 992 949 992 978 921 932 1006 908 936 930 928 1026 946 906 993 928 935 918 913 900 880 962 982 996 881 966 953 933 973 942 884 928 960 961 865 968 942 928 959 928 944 912 974 948 943 965 1010 949 943 909 915 940 952 943 935 952 964 919 1010 910 876 900 896 938 987 915 973 977 942 948 913 945 979 914 934 901 923 903 967 940 931 965 937 933 914 900 945 928 930 950 959 927 1007 917 932 892 919 900 939 851 906 889 969 975 910 934 931 890 968 899 924 895 932 906 889 954 916 924 925 984 877 941 995 944 906 952 910 946 902 892 944 917 923 910 931 976 934 855 906 924 923 905 977 946 883 938 965 967 933 961 952 982 909 948 952 997 946 962 1032 988 947 1007 988 973 992 1054 993 1040 994 1044 985 1079 1083 1048 1123 1078 1123 1139 1158 1267 1228 1266 1342 1384 1414 1515 1612 1537 1569 1646 1644 1491 1591 1512 1391 1389 1350 1241 1237 1282 1267 1287 1219 1349 1270 1287 1268 1347 1255 1297 1274 1202 1192 1162 1111 1173 1066 1051 1054 1061 998 1064 977 946 987 950 902 1003 1009 942 973 936 962 978 947 990 921 933 1004 969 978 878 960 917 971 929 994 1011 968 951 929 981 938 954 920 943 977 974 991 974 963 985 947 1020 946 913 1021 1002 1009 975 1002 971 968 955 1030 992 1013 915 1011 939 978 946 954 978 953 1025 1068 970 959 939 962 1038 1016 948 973 951 952 982 942 989 935 985 962 910 959 941 912 979 989 890 929 952 959 980 918 920 926 977 953 960 1037 961 934 934 956 969 986 993 951 1012 967 939 1014 1007 1004 1041 990 1020 1010 1000 966 972 1001 988 992 986 969 1001 1005 967 972 1022 950 967 961 1041 941 963 1000 999 1013 949 983 1006 949 926 941 975 985 950 989 927 944 994 975 967 908 925 902 934 957 914 945 945 940 954 955 938 883 923 898 943 968 951 905 912 916 939 960 906 920 990 915 960 942 1001 933 958 960 936 956 956 977 930 934 894 905 891 886 944 927 963 880 949 869 929 882 908 943 922 939 944 903 916 844 928 932 943 943 932 949 899 920 902 915 873 906 912 901 916 905 964 940 904 919 942 983 894 935 938 980 956 923 915 932 906 920 939 890 929 890 856 893 953 966 956 921 935 937 923 872 898 918 927 905 976 878 991 920 954 915 910 889 911 949 885 968 949 928 937 888 942 983 899 923 929 887 950 958 979 868 918 891 888 910 917 913 874 991 919 876 924 939 934 908 986 941 957 884 919 927 998 950 979 940 992 920 958 945 929 945 945 914 935 932 912 991 946 946 882 901 878 981 946 894 887 950 869 912 913 903 945 895 1005 911 910 918 924 887 932 945 937 926 905 960 962 947 850 904 878 917 918 896 946 940 958 851 935 887 913 974 954 907 927 904 872 937 948 916 951 917 891 941 924 894 950 913 958 1009 961 916 939 930 955 911 1002 895 937 898 931 906 929 941 987 960 941 933 1000 900 912 910 929 984 936 940 969 959 988 967 930 940 930 952 931 953 913 942 904 889 909 966 931 959 933 891 931 968 940 893 910 914 963 978 933 891 876 955 899 981 877 938 890 928 943 911 937 987 970 993 963 960 909 972 950 883 914 889 922 959 972 1020 937 922 915 912 972 906 949 867 892 892 916 955 934 962 946 985 930 941 892 929 930 897 900 922 946 961 971 931 898 919 893 979 884 932 945 935 917 989 954 953 932 884 928 887 949 923 949 940 967 902 965 958 881 986 949 869 953 959 993 875 893 917 890 891 986 970 943 925 929 873 988 892 951 931 980 975 920 917 923 929 892 953 934 953 970 982 935 955 947 903 941 907 943 984 982 926 911 965 945 909 931 932 925 942 912 990 974 897 965 953 941 999 971 911 909 964 891 926 928 972 1017 945 963 918 955 912 1037 1014 1004 986 998 951 1024 981 973 1073 1000 1105 1042 1067 1144 1110 1092 1194 1067 1041 1126 1091 1059 1074 1053 1016 1062 936 974 1080 1029 1002 1055 998 1028 978 1075 1100 1051 1032 1030 1037 1008 1011 1007 1010 932 980 940 944 979 955 939 968 1017 955 958 1002 974 992 944 949 1013 1002 1054 1030 1012 1011 1090 1048 1080 1117 1129 1190 1191 1139 1128 1066 1135 1079 1112 1015 1009 1021 994 1066 998 1003 1048 1048 1011 1035 1023 1083 1062 1087 1075 1047 1033 1073 1027 1013 1022 976 939 986 969 933 1012 934 996 910 946 939 998 911 977 913 925 934 966 964 958 943 930 915 935 950 992 963 976 945 1027 957 1006 936 935 905 930 875 959 955 949 922 983 953 913 937 942 889 925 896 1004 917 922 936 928 965 959 952 960 946 913 900 936 918 896 911 903 982 939 945 951 946 984 968 893 988 945 987 955 909 937 956 973 922 929 972 993 955 971 964 916 923 863 956 970 1001 968 1003 999 928 946 957 938 931 932 895 972 942 977 957 1002 941 985 955 993 952 976 970 1033 977 961 993 927 982 945 995 941 910 952 952 975 997 968 976 1049 942 1004 932 1033 974 1069 968 1025 980 1065 1037 1076 998 1034 985 1027 1020 981 1033 1009 994 963 1059 1053 1053 1018 1048 1002 1061 1075 1058 1023 1029 1081 1074 1049 1028 1079 1077 1049 1086 993 1033 1097 1113 1156 1138 1168 1205 1164 1230 1247 1260 1327 1352 1387 1426 1580 1580 1684 1779 1913 1841 2060 2112 2174 2316 2291 2292 2133 2085 2032 1848 1761 1624 1638 1545 1505 1504 1520 1491 1492 1534 1581 1579 1661 1703 1689 1659 1722 1676 1668 1657 1598 1559 1504 1415 1383 1275 1255 1242 1214 1208 1188 1134 1093 1048 1138 1089 1074 1094 1098 1012 1069 1078 1058 1041 1017 1007 994 979 1004 1048 969 976 983 982 986 985 1056 970 949 961 938 959 1028 1026 935 935 939 927 1012 1070 995 924 915 957 957 996 992 1005 917 955 968 934 969 996 956 963 958 980 945 919 901 950 936 917 994 912 981 1014 976 1036 927 944 944 1045 965 934 921 946 958 942 943 941 972 931 956 867 973 953 945 950 940 991 1026 1013 934 975 962 979 938 994 937 987 950 944 893 1019 947 948 964 923 995 1007 955 989 979 943 958 1008 1033 1066 993 991 961 1010 1015 1015 1119 1004 1080 1077 1077 1096 1083 1114 1207 1120 1166 1158 1147 1174 1118 1132 1127 1130 1143 1074 1104 1147 1170 1170 1125 1078 1116 1213 1164 1173 1185 1190 1119 1181 1108 1182 1062 1066 1085 1060 1064 1075 1055 1081 1090 1133 1045 1034 1057 1079 1109 1004 1002 1043 1038 1059 1033 950 964 1013 1000 1017 984 1019 957 1036 979 988 1008 974 956 998 895 953 936 1006 928 1010 958 926 910 923 956 927 921 911 947 923 928 958 931 933 930 915 975 930 942 929 923 941 961 957 961 980 974 932 937 939 959 950 877 909 938 927 978 938 924 945 991 933 933 903 946 951 957 924 918 872 869 923 929 930 967 963 941 959 904 923 950 885 905 908 899 898 844 929 983 973 905 950 983 967 952 959 962 919 940 910 956 932 943 864 927 879 925 1017 933 923 897 941 911 896 958 908 900 898 932 958 918 978 939 843 985 914 916 1007 951 914 858 938 912 891 946 964 945 868 904 953 892 922 923 943 895 898 904 946 966 925 910 987 947 927 895 913 924 934 889 915 929 947 942 926 884 963 908 909 899 914 929 893 942 894 934 956 881 861 922 932 971 934 931 897 890 943 889 997 855 942 919 922 973 920 873 898 963 933 923 915 943 947 971 967 950 922 891 976 944 1001 957 942 891 860 927 903 883 883 942 884 913 913 921 954 969 949 942 919 944 927 870 925 970 957 887 913 914 921 991 955 900 956 937 906 956 918 920 922 900 1005 962 927 967 937 890 932 952 919 935 940 905 920 888 938 931 948 909 878 895 935 904 902 918 903 912 939 896 925 953 913 885 947 986 950 877 911 947 907 956 941 965 930 949 908 932 945 930 986 878 936 892 928 953 1000 943 945 922 940 926 916 926 987 956 894 952 944 912 967 957 875 917 952 909 888 941 901 945 943 913 827 895 937 946 929 977 948 868 922 949 950 954 869 983 913 1002 903 948 901 949 933 957 989 897 941 943 947 980 914 949 905 977 975 988 973 915 923 955 905 918 866 991 898 930 970 941 978 968 959 876 927 888 925 960 931 935 948 970 1008 957 970 980 968 977 1006 974 983 987 1001 1070 1002 1008 1059 1064 1065 1048 1096 1032 1017 1047 1005 1047 1014 1005 1010 1009 1009 960 988 1005 1039 986 999 981 992 1002 1016 1010 1023 980 1016 1018 1011 981 957 1019 974 921 983 971 955 983 985 982 914 988 957 904 980 955 970 926 905 953 930 978 1026 929 962 938 937 984 943 1000 981 936 939 918 956 939 1001 920 925 947 880 903 958 928 964 924 975 969 971 965 985 949 907 898 938 947 920 943 948 915 964 920 943 1012 934 987 943 910 968 947 946 926 932 1019 909 918 918 943 950 880 945 939 977 959 952 882 908 853 879 899 922 931 970 929 948 906 980 930 998 900 930 895 960 921 980 905 894 914 901 908 909 930 987 894 939 896 949 918 910 934 936 955 957 928 942 909 878 942 898 943 958 959 874 907 963 940 945 932 969 915 900 921 931 938 916 891 907 964 975 941 928 953 898 913 968 976 935 962 965 971 941 951 923 911 909 972 953 945 993 909 927 927 980 991 904 1007 924 933 946 979 966 894 1014 913 939 892 995 917 933 920 906 935 916 909 964 953 935 895 942 970 1005 983 957 929 946 962 993 952 933 970 978 1042 952 957 965 932 945 961 986 976 919 979 952 986 993 1023 1005 986 975 1012 1025 971 991 1050 1073 1041 1062 1126 1065 1123 1161 1236 1254 1223 1215 1310 1326 1410 1462 1571 1614 1696 1716 1721 1863 1880 1865 1896 1850 1761 1651 1593 1567 1495 1443 1320 1262 1211 1291 1245 1201 1247 1263 1234 1246 1230 1296 1332 1403 1375 1430 1395 1503 1372 1491 1372 1355 1335 1291 1232 1218 1186 1120 1095 1017 1069 1034 1069 1052 1008 1024 1057 1054 939 1044 976 959 947 991 971 1032 982 1015 1005 996 992 1029 974 958 929 1024 983 1016 986 1024 992 998 1046 926 984 899 977 1055 1004 966 997 969 1038 983 1050 1120 988 961 973 1002 1004 1007 982 1006 1005 963 944 995 923 998 950 979 968 918 927 970 973 951 963 973 965 994 988 988 933 943 968 964 978 964 948 951 967 941 919 918 968 892 967 992 959 927 938 939 972 915 971 980 987 947 941 903 935 946 951 926 923 978 1014 904 956 949 918 949 964 969 931 961 985 926 943 967 998 877 956 973 955 1068 957 973 967 1006 1043 1001 997 1022 1001 1041 971 964 970 997 1003 952 937 925 992 981 921 1020 947 940 962 967 919 939 1039 1002 956 966 1009 1011 944 1079 1012 994 1039 983 974 941 944 996 938 960 976 1016 1006 980 959 1022 1021 994 1024 996 983 1024 1000 1025 1000 986 996 1000 955 981 965 978 959 1000 986 940 962 1008 1024 959 978 974 1009 1000 955 1005 943 953 955 976 923 937 998 966 982 956 974 939 935 986 899 986 969 935 918 907 931 941 885 933 912 939 922 930 922 916 935 936 906 914 998 903 941 914 992 903 963 959 925 934 894 927 969 930 970 908 957 927 932 896 963 927 893 915 904 925 962 995 910 923 924 963 900 935 977 910 948 949 928 954 929 957 926 951 940 950 930 922 919 894 896 924 935 922 953 939 970 954 974 949 1011 966 944 948 952 962 934 955 924 932 926 933 919 953 862 924 923 941 975 938 893 911 958 906 1001 927 907 948 963 862 939 930 929 947 883 939 940 908 915 1004 953 877 910 969 865 903 936 932 940 974 926 938 926 889 946 903 942 976 909 933 895 892 904 933 929 926 924 920 920 939 916 958 947 936 944 881 928 930 931 945 940 889 887 951 926 841 947 947 912 976 945 960 951 938 917 893 957 908 954 942 925 914 910 922 903 996 965 882 956 950 981 976 967 989 944 917 861 949 954 939 935 926 962 889 917 917 899 962 944 918 897 957 911 941 897 940 899 926 910 924 923 921 926 938 903 971 939 917 952 951 875 874 936 922 919 931 916 937 956 921 912 891 953 920 874 933 920 936 879 896 915 929 940 931 920 907 952 916 979 984 897 958 857 910 889 924 963 901 953 908 866 881 952 906 871 876 909 951 901 943 956 894 926 971 901 864 977 945 888 977 878 915 935 885 935 904 899 930 946 918 943 954 964 891 912 991 966 894 930 903 875 929 946 924 941 978 975 894 887 922 965 899 949 899 990 962 927 978 935 985 899 910 909 918 984 922 902 940 919 956 955 959 922 966 936 981 1018 960 915 964 985 1000 955 963 1025 1052 1064 1018 1084 1102 1071 1158 1120 1145 1154 1106 1086 1151 1077 1094 1059 995 930 927 988 965 969 962 1000 989 967 1046 1037 983 930 957 1059 1014 1027 1034 977 1038 976 995 1015 1032 1045 999 1077 985 1016 1042 1012 1016 1005 976 1025 964 965 1000 1039 980 1020 1038 991 1024 1035 993 1117 1038 1031 1097 1009 1079 1081 1039 1027 1058 1012 989 961 983 921 1003 912 894 977 918 957 977 998 978 969 958 940 971 983 903 985 1012 1004 1016 1041 1046 1007 971 991 913</counts>
			</dataPoints>
		</scan>
	</xrdMeasurement>
</xrdMeasurements>
