<?xml version="1.0"?>
<xrdMeasurements xmlns="http://www.xrdml.com/XRDMeasurement/2.3" xmlns:xsi="http://www.w3.org/2001/XMLSchema-instance" xsi:schemaLocation="http://www.xrdml.com/XRDMeasurement/2.3 http://www.xrdml.com/XRDMeasurement/2.3/XRDMeasurement.xsd" status="Completed" recordIdentifier="{CB70290E-FC08-4774-900F-DEF5A29E5C58}">
	<comment>
		<entry/>
	</comment>
	<sample type="To be analyzed">
		<id>GPSS_Li2Zn0p5Mg0p5Cl4_100725_68e5a91e07cf888582f93608</id>
		<name></name>
		<preparedBy></preparedBy>
	</sample>
	<xrdMeasurement measurementType="Scan" status="Completed" sampleMode="Reflection">
		<usedWavelength intended="K-Alpha 1">
			<kAlpha1 unit="Angstrom">1.5405980</kAlpha1>
			<kAlpha2 unit="Angstrom">1.5444260</kAlpha2>
			<kBeta unit="Angstrom">1.3922500</kBeta>
			<ratioKAlpha2KAlpha1>0.5000</ratioKAlpha2KAlpha1>
		</usedWavelength>
		<incidentBeamPath>
			<radius unit="mm">145.00</radius>
			<xRayTube id="1010048" name="Empyrean Cu LFF HR (9430 033 7310x)">
				<tension unit="kV">40.0</tension>
				<current unit="mA">15.0</current>
				<anodeMaterial>Cu</anodeMaterial>
				<focus type="Line">
					<length unit="mm">12.0</length>
					<width unit="mm">0.4</width>
					<takeOffAngle unit="deg">6.0</takeOffAngle>
				</focus>
			</xRayTube>
			<sollerSlit id="21010002" name="Soller slits 0.04 rad.">
				<opening unit="rad">0.0400</opening>
			</sollerSlit>
			<mask id="22031000" name="Fixed mask 13 mm">
				<width unit="mm">9.00</width>
			</mask>
			<divergenceSlit id="22120001" name="Divergence slit 1°" xsi:type="fixedDivergenceSlitType">
				<distanceToSample unit="mm">50.00</distanceToSample>
				<height unit="mm">1.52</height>
			</divergenceSlit>
		</incidentBeamPath>
		<sampleMovement xsi:type="spinningSampleMovementType">
			<spinnerRevolutionTime unit="seconds">1.0</spinnerRevolutionTime>
		</sampleMovement>
		<diffractedBeamPath>
			<radius unit="mm">145.00</radius>
			<antiScatterSlit id="22090040" name="AS slit 9 mm (PIXcel)" xsi:type="fixedAntiScatterSlitType">
				<height unit="mm">9.00</height>
			</antiScatterSlit>
			<sollerSlit id="21020003" name="Large Soller slits 0.04 rad.">
				<opening unit="rad">0.0400</opening>
			</sollerSlit>
			<filter id="20030001" name="Large beta-filter Nickel">
				<material>Ni</material>
				<thickness unit="mm">0.020</thickness>
			</filter>
			<detector id="7010019" name="PIXcel1D-Medipix3 detector" xsi:type="rtmsDetectorType">
				<phd unit="keV">
					<lowerLevel>4.02</lowerLevel>
					<upperLevel>11.27</upperLevel>
				</phd>
				<mode>Scanning</mode>
				<activeLength unit="deg">5.542</activeLength>
			</detector>
		</diffractedBeamPath>
		<scan appendNumber="0" mode="Continuous" scanAxis="Gonio" status="Completed">
			<header>
				<startTimeStamp>2025-10-09T13:00:50-07:00</startTimeStamp>
				<endTimeStamp>2025-10-09T13:08:57-07:00</endTimeStamp>
				<author>
					<name>AutomatedUser</name>
				</author>
				<source>
					<applicationSoftware version="1.7b (136)">PANalytical Aeris Instrument Suite</applicationSoftware>
					<instrumentControlSoftware version="3.2.00000000 20240306">AERIS</instrumentControlSoftware>
					<instrumentID>950485</instrumentID>
				</source>
			</header>
			<dataPoints>
				<positions axis="2Theta" unit="deg">
					<startPosition>10.00943322</startPosition>
					<endPosition>99.99442286</endPosition>
				</positions>
				<positions axis="Omega" unit="deg">
					<startPosition>5.00471661</startPosition>
					<endPosition>49.99721143</endPosition>
				</positions>
				<commonCountingTime unit="seconds">12.495</commonCountingTime>
				<counts unit="counts">2223 2199 2083 2260 2203 2186 2176 2238 2185 2220 2173 2085 2134 2155 2073 2208 2109 2065 2197 2045 2139 2143 2141 2153 2103 2132 2175 2185 2158 2156 2072 2009 2073 2066 2143 2100 2139 2106 2196 2063 2084 2147 2074 2087 2225 2224 2091 2136 2055 2136 2111 2180 2057 2183 2070 2071 2042 2044 2053 2098 2131 2124 2120 2176 2117 2106 2035 2147 2120 2000 2070 2163 2132 2084 2143 2124 2101 2106 2085 2088 2035 2038 2092 2090 2186 2118 2088 2101 2050 2104 2154 2137 2056 2093 2108 2077 2039 2087 2053 2098 2032 2138 2086 2044 2007 2062 2043 2082 2078 2086 2108 2073 2091 2005 2080 2048 2051 2075 2066 2019 2070 2080 1996 2072 2033 2035 2081 2070 2035 2028 2007 2057 2078 2058 2072 2114 1997 2100 2099 2070 2062 2085 2093 2098 2015 1933 2080 1947 2042 2129 2064 2008 2051 2116 1998 2167 1944 2051 2091 2162 2065 2047 2046 2112 2160 2085 2075 1949 2035 1967 2090 2057 2082 2099 2050 2081 2069 2042 2043 2071 2005 2061 2089 2092 2116 2097 2048 2030 2016 1992 2002 2038 2094 2017 2108 2037 2044 1978 2011 2046 2042 2056 2033 2073 2006 1973 2029 2087 2020 2003 2022 2005 1997 1954 1992 1997 1981 1984 1989 2033 2038 2001 2074 1997 1998 1928 2002 1912 2061 2085 2064 1988 1965 2019 1991 1968 1986 1968 2039 1984 2059 1984 1987 1886 1963 1927 1986 1929 2016 1957 1888 1861 1956 1981 1980 2023 2048 2076 1958 1979 1846 2062 2015 1922 1932 1920 2012 1919 2027 2002 2053 1953 1921 1919 1980 2000 1944 1969 1984 1933 1930 1901 2026 1926 1983 1965 2032 1982 1992 2025 1973 1885 1997 2025 1968 1944 1869 2032 2014 1953 2021 1930 1938 1949 1961 1961 1951 1971 1864 1920 1944 1968 1933 1983 2027 1965 1950 1999 1891 1964 1991 2018 1973 1960 1959 1934 1970 1945 1932 1959 1901 1968 2054 2037 2040 1974 2034 1944 1976 1997 1923 1997 1993 2006 2020 1992 1973 1941 1943 1944 1964 1944 2081 2035 2017 2023 2056 2064 2068 2116 2046 2066 2006 2024 2025 2089 2072 2079 2053 2081 2026 2021 2183 2097 2112 2110 2117 2022 2055 2070 2233 2120 2155 2125 2186 2096 2237 2131 2136 2086 2082 2138 2118 2126 2214 2151 2151 2111 2146 2085 2188 2170 2216 2160 2253 2174 2122 2291 2222 2118 2200 2241 2179 2317 2278 2243 2172 2255 2333 2406 2407 2304 2245 2353 2278 2336 2308 2284 2331 2321 2359 2345 2302 2383 2270 2453 2401 2413 2510 2490 2465 2477 2515 2441 2625 2567 2568 2581 2632 2754 2673 2797 2760 2803 2782 2877 2892 2932 2877 3019 2885 3065 3033 3102 3041 3146 3131 3124 3175 3121 3177 3103 3193 3215 3153 3313 3220 3326 3193 3393 3284 3340 3312 3354 3523 3493 3697 3769 3757 3924 3956 3954 4217 3987 4225 4185 4247 4109 4175 4112 4095 4152 4226 4013 4071 3866 3983 3808 3640 3666 3567 3547 3422 3591 3582 3661 3426 3469 3411 3462 3431 3408 3156 3212 3229 3174 3091 3180 3040 3068 3054 3049 3037 3111 3126 3033 3118 3018 2928 3000 2989 3038 3111 3110 3093 3111 3113 3086 3116 3177 3049 3046 3138 3176 3238 3227 3064 2985 3024 3170 3036 3098 3021 3025 3028 3046 2928 2827 2813 2723 2724 2721 2621 2661 2500 2546 2487 2444 2479 2419 2355 2409 2347 2389 2377 2364 2316 2342 2277 2356 2343 2332 2267 2312 2236 2318 2226 2238 2203 2271 2174 2223 2180 2147 2261 2208 2070 2199 2158 2152 2185 2162 2168 2234 2105 2118 2116 2184 2085 2081 2163 2120 2108 2164 2126 2118 2112 2088 2100 2066 2062 2161 2025 2105 2143 2165 2135 2054 2025 2076 2144 2046 2039 2060 2081 2098 2042 2071 2121 2177 2036 2015 2028 2040 2150 2058 2052 2131 2187 2047 2117 2060 2028 2114 2075 2113 2175 2132 1987 2158 2117 2109 2083 2099 2033 2102 2051 2086 2147 2198 2162 2149 2088 2193 2152 2127 2171 2092 2108 2211 2131 2164 2176 2215 2144 2124 2110 2186 2133 2165 2192 2117 2146 2212 2147 2154 2204 2160 2140 2107 2133 2162 2101 2118 2117 2173 2104 2221 2105 2167 2049 2009 2084 2195 2065 1984 2079 2042 2036 1969 2051 1984 2122 2003 2062 2063 1964 1953 2005 2025 1851 1937 1919 1841 1939 1890 1875 1952 1976 1978 1953 1877 1859 1912 1890 1992 1895 1944 1837 1953 1869 1974 1945 1888 1922 1955 1935 1843 1975 1952 2007 2037 1913 1965 1945 1951 2043 2006 1985 2048 1979 2030 2044 1940 2038 1931 2014 1924 1977 1937 1924 1953 2000 1984 1977 1979 2012 1976 2027 1982 1978 2025 1977 2026 1998 1938 2033 1920 1971 2022 2036 2035 1921 1993 1930 1885 1991 1998 2007 2014 2089 1882 2078 1954 1985 1909 2037 1913 2044 1926 2004 1993 1992 1907 1927 1897 1941 1999 1910 1991 1891 1835 1898 1949 1938 1896 1941 1906 1930 1880 1836 1903 1847 1919 1947 1807 1898 1863 1842 1860 1829 1823 1881 1880 1809 1813 1818 1784 1837 1819 1766 1839 1798 1804 1829 1842 1770 1826 1829 1745 1777 1871 1787 1782 1705 1852 1744 1828 1726 1837 1782 1840 1771 1715 1786 1722 1756 1831 1784 1631 1736 1715 1755 1786 1713 1792 1773 1793 1855 1755 1769 1712 1784 1819 1754 1808 1718 1649 1823 1750 1715 1765 1665 1713 1694 1701 1728 1698 1733 1737 1775 1712 1731 1742 1713 1721 1802 1691 1688 1712 1731 1667 1728 1702 1860 1637 1761 1782 1730 1769 1671 1859 1738 1770 1825 1709 1802 1723 1742 1812 1732 1715 1791 1767 1742 1790 1758 1710 1724 1730 1722 1712 1704 1783 1634 1646 1744 1727 1735 1690 1693 1729 1730 1668 1684 1713 1710 1725 1663 1660 1711 1704 1695 1741 1708 1639 1719 1723 1765 1656 1691 1640 1692 1660 1748 1667 1632 1723 1707 1708 1708 1651 1697 1691 1665 1688 1729 1667 1685 1699 1654 1660 1598 1609 1671 1631 1686 1681 1659 1626 1610 1622 1635 1590 1586 1641 1615 1627 1655 1665 1651 1670 1629 1702 1694 1629 1637 1683 1610 1700 1639 1675 1574 1626 1717 1619 1671 1675 1578 1657 1765 1659 1708 1670 1704 1674 1669 1642 1743 1609 1681 1701 1697 1754 1672 1709 1759 1672 1670 1716 1746 1708 1709 1777 1761 1734 1724 1714 1710 1699 1658 1831 1700 1759 1703 1687 1743 1730 1708 1711 1827 1696 1720 1714 1744 1662 1724 1692 1679 1738 1740 1731 1789 1797 1650 1746 1728 1735 1677 1698 1643 1810 1704 1714 1722 1733 1736 1850 1727 1755 1852 1838 1864 1811 1914 1841 1894 1811 1804 1853 1769 1773 1753 1823 1818 1755 1739 1747 1786 1803 1773 1803 1723 1838 1818 1765 1790 1792 1704 1854 1719 1762 1807 1731 1735 1661 1702 1684 1696 1692 1602 1722 1646 1683 1602 1684 1611 1652 1603 1669 1636 1570 1690 1598 1683 1567 1643 1536 1616 1559 1568 1583 1546 1653 1604 1635 1626 1687 1604 1642 1584 1601 1586 1634 1589 1594 1530 1520 1558 1597 1651 1510 1614 1593 1590 1620 1594 1567 1577 1672 1638 1624 1587 1617 1541 1607 1613 1654 1603 1638 1633 1582 1650 1657 1707 1618 1679 1597 1662 1643 1599 1658 1748 1672 1689 1649 1670 1756 1743 1685 1712 1765 1739 1691 1725 1704 1680 1639 1621 1681 1641 1729 1712 1658 1649 1656 1631 1613 1644 1592 1633 1637 1579 1532 1635 1544 1619 1618 1537 1575 1541 1586 1530 1512 1530 1514 1553 1553 1500 1541 1410 1483 1476 1539 1484 1501 1438 1475 1476 1481 1514 1472 1405 1501 1500 1438 1427 1495 1406 1374 1471 1493 1364 1359 1492 1381 1421 1376 1382 1457 1464 1425 1418 1403 1493 1405 1391 1412 1408 1452 1406 1412 1392 1399 1387 1478 1376 1394 1434 1413 1514 1400 1475 1390 1412 1409 1466 1430 1481 1427 1415 1413 1344 1426 1394 1423 1377 1395 1427 1446 1410 1371 1442 1426 1431 1345 1411 1422 1338 1434 1342 1370 1371 1315 1375 1414 1399 1382 1350 1364 1325 1343 1381 1271 1366 1358 1362 1344 1352 1260 1409 1297 1319 1337 1354 1376 1366 1318 1282 1246 1269 1335 1301 1283 1343 1228 1283 1287 1290 1288 1288 1252 1201 1270 1238 1251 1303 1296 1232 1263 1269 1218 1232 1289 1297 1194 1277 1270 1348 1327 1314 1286 1212 1336 1376 1258 1381 1269 1320 1353 1343 1246 1295 1294 1316 1312 1366 1387 1325 1314 1352 1314 1378 1345 1327 1332 1316 1348 1320 1397 1357 1385 1394 1337 1342 1323 1358 1347 1370 1341 1335 1361 1333 1364 1300 1321 1218 1321 1350 1371 1318 1263 1316 1288 1378 1339 1224 1216 1277 1208 1271 1270 1278 1244 1277 1328 1242 1320 1238 1241 1263 1261 1346 1261 1310 1254 1210 1271 1214 1264 1230 1258 1273 1297 1270 1227 1228 1198 1228 1265 1285 1248 1247 1319 1226 1324 1255 1207 1202 1208 1258 1261 1213 1186 1257 1266 1240 1256 1219 1194 1246 1168 1269 1242 1304 1190 1209 1235 1178 1148 1262 1275 1251 1311 1274 1254 1233 1242 1224 1309 1210 1171 1252 1181 1269 1198 1250 1195 1225 1198 1294 1188 1277 1304 1298 1307 1282 1233 1251 1277 1277 1223 1314 1262 1237 1306 1250 1287 1363 1269 1273 1242 1399 1309 1364 1266 1342 1318 1346 1327 1398 1367 1422 1458 1538 1482 1504 1492 1506 1463 1500 1623 1528 1585 1436 1477 1519 1503 1560 1559 1512 1590 1675 1711 1684 1742 1771 1852 1747 1698 1749 1786 1781 1769 1813 1668 1677 1595 1697 1666 1744 1842 1820 1876 1742 1708 1659 1851 1643 1687 1644 1629 1538 1567 1501 1524 1466 1387 1371 1392 1460 1420 1391 1364 1381 1372 1407 1355 1303 1310 1292 1351 1319 1338 1296 1341 1309 1359 1331 1288 1269 1305 1334 1291 1329 1204 1273 1271 1247 1253 1210 1217 1205 1249 1220 1183 1163 1221 1134 1198 1105 1157 1162 1161 1162 1162 1123 1202 1228 1135 1110 1128 1102 1201 1120 1173 1147 1210 1175 1130 1143 1184 1176 1129 1199 1193 1198 1158 1131 1160 1138 1148 1085 1152 1130 1225 1254 1153 1159 1188 1178 1238 1222 1188 1202 1219 1202 1271 1209 1225 1292 1203 1302 1249 1294 1202 1283 1264 1215 1251 1282 1251 1241 1233 1264 1218 1313 1231 1297 1236 1276 1239 1285 1240 1237 1245 1283 1178 1247 1264 1167 1223 1227 1263 1229 1226 1275 1246 1222 1259 1282 1249 1267 1195 1230 1292 1259 1202 1430 1316 1463 1373 1507 1453 1633 1476 1509 1557 1676 1611 1597 1555 1632 1656 1746 1668 1719 1694 1732 1591 1575 1650 1594 1598 1547 1592 1553 1493 1539 1561 1654 1598 1658 1571 1718 1723 1677 1703 1793 1715 1802 1829 1841 1893 1950 1953 2071 2076 2082 2223 2191 2276 2321 2538 2470 2580 2591 2740 2852 2947 2981 3030 3251 3215 3252 3339 3342 3672 3599 3714 3772 4007 4079 4109 4229 4264 4334 4293 4434 4626 4593 4475 4540 4586 4626 4756 4806 4761 4649 4775 4679 4673 4656 4610 4706 4600 4583 4541 4590 4610 4502 4457 4370 4233 4101 4068 3850 3636 3570 3407 3295 3196 2848 2731 2601 2621 2365 2356 2283 2194 2128 2076 2022 1996 1936 1875 1787 1785 1627 1684 1620 1701 1550 1644 1632 1574 1648 1565 1590 1477 1403 1410 1409 1404 1459 1369 1359 1318 1249 1291 1285 1288 1276 1339 1261 1359 1306 1362 1262 1278 1313 1321 1296 1345 1256 1260 1290 1306 1277 1289 1255 1244 1258 1303 1228 1267 1272 1294 1338 1263 1294 1336 1222 1326 1255 1283 1292 1260 1282 1236 1294 1297 1276 1295 1237 1271 1330 1306 1297 1262 1305 1294 1285 1275 1309 1273 1359 1346 1238 1232 1204 1211 1179 1144 1113 1274 1085 1071 1148 1139 1121 1127 1117 1109 1031 1124 1070 935 980 975 911 975 952 924 989 890 863 915 815 838 896 842 805 801 856 768 770 852 830 778 812 805 797 850 814 854 818 784 836 826 834 808 843 800 823 822 875 810 843 855 815 785 804 847 832 854 858 837 857 900 856 828 798 888 908 881 857 856 884 951 960 941 969 911 913 943 896 927 882 951 960 907 940 919 928 969 920 967 978 874 929 874 913 877 909 895 919 885 943 904 872 875 865 805 855 834 775 806 795 810 808 758 787 751 793 731 700 768 755 742 684 757 725 699 749 718 743 757 709 663 745 709 687 763 679 751 749 731 651 757 711 752 687 735 689 739 709 725 693 759 690 681 740 701 734 727 735 730 744 718 760 708 718 724 783 725 761 731 720 727 706 818 781 757 724 732 729 758 740 739 768 709 745 714 777 691 773 688 693 782 733 757 756 707 737 715 725 736 770 776 694 730 736 722 736 742 694 707 720 720 736 750 716 735 805 777 709 774 767 755 786 766 766 745 808 752 795 800 808 855 858 812 803 827 841 903 884 853 863 947 910 938 966 946 1026 990 1098 1078 1127 1166 1127 1225 1240 1293 1293 1381 1418 1451 1481 1414 1511 1591 1601 1725 1660 1727 1837 1751 1836 1824 1970 1961 2084 2106 2208 2268 2345 2390 2404 2634 2629 2925 2895 3146 3113 3264 3460 3515 3728 3759 3930 4231 4323 4479 4871 4889 5196 5288 5528 5593 5737 5871 5765 5903 5981 6108 6101 6057 5804 5831 5682 5632 5586 5487 5503 5417 5368 5539 5476 5643 5701 5583 5221 5010 4664 4440 4244 3903 3834 3710 3469 3209 2929 2685 2371 2189 1897 1859 1798 1670 1573 1511 1487 1320 1380 1238 1204 1177 1170 1094 1082 1135 1106 1100 1065 1115 1085 1027 1064 1001 1031 1052 970 1038 1000 954 990 1013 886 965 990 913 986 929 952 962 913 914 881 873 884 873 817 851 781 818 809 837 757 740 758 772 715 822 754 756 718 772 768 796 799 756 818 697 801 759 829 797 779 759 750 744 786 761 767 754 728 742 783 796 753 735 727 772 753 778 760 755 737 736 701 727 757 680 699 704 701 688 682 672 633 699 640 603 643 628 639 630 613 625 653 593 619 589 603 621 634 575 573 599 637 557 639 596 585 572 567 571 564 597 571 623 566 563 583 616 611 592 563 567 603 581 582 568 552 600 586 589 579 565 543 619 582 577 565 568 596 535 621 583 567 588 567 610 570 601 554 605 550 525 563 542 577 567 586 585 566 564 549 560 583 570 557 587 595 575 572 570 544 554 529 581 548 566 521 498 572 554 562 584 585 541 612 587 594 574 574 528 608 656 698 638 682 655 641 674 619 682 651 711 656 792 719 773 750 714 717 670 763 725 792 733 771 766 763 732 770 794 771 735 807 726 752 753 772 763 754 733 688 738 755 712 678 695 710 663 704 671 679 712 651 634 662 645 613 638 601 617 599 578 601 638 635 604 569 646 587 596 576 610 577 525 579 534 534 582 572 560 525 563 583 576 535 551 531 591 535 533 515 510 546 534 546 600 569 566 585 563 561 573 591 535 562 573 523 570 562 579 548 552 564 563 549 567 558 576 561 527 534 497 589 569 594 547 551 521 576 545 528 538 518 539 531 549 525 564 499 534 562 501 515 510 525 512 502 497 509 505 511 549 536 515 502 527 538 548 516 479 533 546 463 518 517 559 513 521 578 506 527 566 513 541 496 525 507 510 508 508 561 537 582 563 547 482 527 552 531 587 551 578 564 515 506 521 576 557 552 551 531 595 571 530 540 584 516 533 552 542 565 566 526 531 548 537 570 526 562 527 548 555 517 563 521 528 497 539 484 559 526 508 512 506 529 473 520 472 476 512 496 514 543 543 472 571 540 554 547 591 587 564 596 519 608 546 594 563 584 590 596 555 600 623 573 594 593 598 636 648 647 634 629 650 649 649 586 642 641 634 641 643 660 720 712 774 729 751 680 718 710 685 636 712 690 677 680 711 631 698 651 607 661 692 626 607 568 588 593 586 538 602 586 563 559 560 498 533 509 561 472 485 445 486 468 458 490 450 523 433 484 473 518 503 538 513 517 512 509 489 543 502 542 520 474 482 507 527 523 521 541 508 526 492 491 483 527 549 548 535 570 529 476 530 545 541 492 530 516 503 513 503 550 514 527 507 531 457 460 487 513 525 522 510 472 419 481 436 444 486 447 465 443 470 445 484 476 474 462 489 453 429 446 489 454 469 457 459 440 465 438 469 511 465 464 482 460 456 430 423 467 493 455 455 470 488 491 463 483 414 514 468 443 484 476 487 459 480 464 482 475 484 466 475 492 528 503 484 492 541 472 485 466 494 494 487 528 529 498 524 514 526 563 529 533 560 537 532 512 531 573 571 585 611 609 574 579 589 575 574 568 654 555 569 623 597 602 586 620 630 587 609 636 635 618 612 587 613 613 657 638 638 647 636 724 695 718 620 624 583 592 570 541 568 568 561 572 556 592 535 496 562 492 498 518 483 507 493 506 483 461 429 447 496 429 443 451 460 463 447 482 439 453 471 460 515 494 450 465 471 495 516 494 510 493 513 504 474 490 489 520 502 513 539 530 517 502 531 487 501 482 537 532 513 497 512 522 485 553 447 494 494 495 462 463 482 480 483 500 496 472 511 485 478 495 447 437 447 457 460 468 463 477 461 427 455 416 462 418 446 447 389 428 406 441 460 407 406 420 441 445 434 425 479 480 417 429 430 439 440 400 441 435 426 448 394 427 440 430 429 429 396 462 451 402 492 417 451 448 447 430 496 449 498 475 481 459 431 429 473 473 481 429 451 468 471 431 483 446 455 438 454 500 470 476 472 464 476 473 487 483 486 477 440 470 489 455 490 459 472 500 475 485 498 470 468 476 471 517 447 541 502 485 530 481 501 484 539 496 504 494 506 535 508 493 516 561 509 541 487 545 497 471 525 532 507 503 591 513 561 567 547 530 550 557 564 548 540 586 549 527 550 531 532 544 563 543 566 542 563 558 553 549 545 555 588 556 601 557 567 575 619 609 569 599 601 629 601 669 650 682 673 669 680 787 685 718 752 667 696 698 744 694 734 689 711 681 707 748 724 705 716 726 693 698 627 676 634 617 603 633 629 642 530 553 565 544 522 552 543 546 478 481 523 529 482 506 510 493 461 513 447 472 488 471 467 468 488 446 491 471 496 438 452 449 423 463 459 498 447 444 457 471 434 442 416 445 434 416 395 398 422 440 400 413 399 395 431 420 428 460 406 423 446 430 441 457 408 430 446 426 440 412 421 413 407 427 406 429 399 433 438 484 427 452 455 414 418 427 438 426 385 486 447 453 467 445 441 435 432 460 467 490 439 491 443 453 461 422 478 434 451 465 497 471 457 502 511 545 499 522 509 538 502 540 475 529 523 551 541 507 541 540 505 479 514 516 498 499 525 522 470 520 511 535 526 479 539 528 601 582 555 546 561 557 550 549 534 526 516 547 549 596 570 513 578 574 586 538 591 592 643 617 662 651 708 753 769 760 772 677 673 710 680 734 720 783 763 844 751 808 749 846 798 825 771 792 793 845 730 824 835 861 907 995 1034 1100 1019 953 926 796 716 695 641 701 677 753 747 805 727 656 644 580 576 556 517 517 534 516 554 550 537 527 565 525 613 567 560 584 614 545 570 589 598 634 656 659 639 677 605 636 624 676 630 624 690 660 619 667 623 679 671 661 731 687 676 671 651 682 694 721 659 712 696 693 728 687 692 705 704 760 738 725 758 766 784 791 865 848 909 819 837 898 906 886 922 889 957 896 950 936 919 978 998 991 1001 1090 1022 1015 974 1068 1039 1084 1057 1067 1034 1057 1103 1078 1042 1113 1024 1131 1131 1177 1210 1153 1132 1225 1276 1227 1314 1266 1341 1409 1483 1452 1533 1609 1685 1736 1783 1794 1876 1928 2087 2101 2181 2302 2404 2346 2526 2503 2610 2658 2715 2786 2899 2902 2969 2925 3015 3066 3050 3088 3079 3004 3055 3102 3109 2993 3028 2987 2898 2935 2949 2894 2831 2780 2797 2568 2543 2367 2349 2257 2067 2149 2175 2076 2005 1942 1920 1827 1745 1695 1588 1581 1591 1440 1421 1349 1293 1243 1184 1213 1199 1102 1042 1061 1069 1035 947 954 923 844 830 789 792 741 712 758 715 669 743 690 658 654 655 567 607 599 594 572 576 584 550 561 598 524 537 530 538 558 554 530 512 491 468 484 486 494 509 500 475 475 472 447 458 468 486 446 461 502 509 498 545 482 491 495 488 424 456 472 456 461 472 451 484 487 468 462 457 485 420 458 444 460 461 421 444 448 445 462 474 408 436 442 433 380 404 373 440 387 446 409 449 422 439 421 420 443 431 414 433 425 428 445 437 457 414 436 444 418 419 441 440 427 431 447 442 465 456 432 447 490 422 487 417 462 444 463 418 440 445 430 450 446 456 431 455 493 444 492 466 474 481 456 499 448 473 493 487 478 463 480 457 491 486 495 492 467 550 518 525 527 535 502 512 553 560 534 554 578 582 564 557 531 582 601 602 578 579 545 548 604 573 536 585 591 600 595 608 543 634 618 606 628 626 631 640 712 650 730 733 703 775 702 724 747 872 814 812 858 894 951 920 1019 1034 1180 1213 1325 1192 1337 1249 1320 1329 1331 1222 1297 1270 1183 1281 1280 1262 1192 1232 1269 1234 1136 1107 1063 1037 1004 921 920 952 827 850 794 841 819 835 783 759 769 728 715 719 647 672 675 656 608 618 560 605 599 594 537 559 517 525 488 472 505 476 468 447 463 435 445 426 428 451 426 441 406 400 446 398 434 423 379 454 422 440 429 412 417 381 415 425 447 400 409 393 418 405 374 414 409 393 412 448 452 406 374 397 423 376 431 424 407 402 402 373 383 399 359 402 396 384 432 365 399 366 390 434 375 357 381 409 370 403 399 404 413 369 419 384 386 392 410 371 427 352 337 401 404 429 404 403 415 421 418 380 413 397 405 381 383 392 391 370 398 335 379 333 382 366 393 361 346 349 379 348 402 381 376 344 376 369 359 368 342 363 342 368 368 404 332 375 367 359 382 339 348 348 356 350 370 344 322 373 352 356 363 381 346 357 372 403 432 396 389 390 386 408 417 393 427 412 366 400 438 411 460 431 422 403 401 422 400 371 410 408 381 371 410 403 395 398 386 383 427 442 441 439 399 397 389 349 351 364 429 376 361 356 379 397 401 390 368 340 332 363 346 329 354 305 323 343 318 339 351 356 299 309 357 372 334 368 386 328 342 366 328 373 356 381 326 365 340 416 403 361 363 355 411 354 438 420 425 456 431 442 401 412 388 430 430 407 442 383 402 442 448 386 430 387 458 381 438 395 399 367 379 399 356 383 383 395 325 368 359 369 383 314 357 337 332 348 324 329 351 327 351 345 359 312 330 314 336 354 338 338 341 388 328 348 340 317 347 338 327 353 353 398 337 387 355 364 366 376 359 336 394 316 377 329 399 339 343 379 401 390 410 444 375 449 425 444 368 471 413 404 409 382 422 432 424 420 469 465 409 421 388 447 416 437 417 426 427 474 448 476 480 413 455 475 438 473 456 476 440 438 430 442 435 477 442 456 429 445 440 435 457 439 437 450 432 480 429 429 444 422 443 444 436 471 432 437 442 418 470 431 410 392 459 433 420 421 444 420 390 382 442 460 400 408 413 424 375 443 420 424 389 392 384 409 393 406 432 413 451 376 455 439 455 420 428 386 413 396 398 417 410 446 423 454 383 440 426 461 406 413 464 423 418 365 448 456 437 447 464 419 479 486 448 508 475 510 527 503 472 499 518 565 516 535 542 518 515 489 559 542 529 553 548 572 508 590 546 583 548 581 514 558 526 569 558 550 564 661 553 555 556 574 539 563 526 567 557 611 638 672 598 686 677 653 647 635 690 674 748 711 691 742 747 753 738 798 793 891 878 792 876 880 966 951 987 1043 1121 1135 1239 1235 1396 1414 1536 1605 1632 1671 1571 1629 1732 1639 1752 1823 1810 1805 1826 1672 1740 1821 1768 1798 1760 1756 1880 1827 1861 1701 1679 1701 1515 1524 1454 1359 1219 1249 1108 1108 1014 1041 992 1035 1026 953 898 866 804 781 714 695 651 637 632 588 577 612 575 530 572 509 541 541 483 530 482 481 495 440 459 440 464 457 444 391 424 374 426 418 394 409 383 378 359 381 349 361 386 351 411 358 359 386 339 333 369 376 357 377 370 346 360 342 344 368 330 335 376 353 333 353 334 345 345 308 341 356 333 312 341 322 334 332 355 326 316 298 353 325 342 334 325 334 331 314 326 324 352 317 304 314 326 330 332 337 318 334 287 341 339 329 291 341 296 335 292 292 303 327 345 353 352 311 329 349 334 306 334 315 352 330 309 350 341 325 297 344 329 367 341 341 337 306 322 371 302 324 344 353 351 335 375 349 388 387 353 367 419 361 421 410 376 401 428 440 429 415 412 422 448 451 417 470 476 434 442 471 433 425 415 426 401 387 410 388 400 446 418 411 405 421 402 425 470 421 371 383 404 429 446 459 425 444 436 475 460 430 435 410 449 422 462 440 508 477 469 498 484 489 533 504 565 515 501 483 579 587 610 588 608 651 657 667 744 781 757 852 771 793 808 848 857 919 965 978 900 950 976 891 968 1009 946 936 1004 956 958 1043 945 974 933 880 917 834 794 748 753 679 747 659 708 635 637 659 601 604 595 683 689 648 653 596 620 616 632 638 658 655 628 655 627 673 653 703 696 709 705 665 672 707 655 669 661 616 641 604 572 571 609 579 594 587 579 568 497 519 478 517 407 463 450 442 447 466 413 408 409 407 385 384 430 412 421 383 395 377 359 345 369 364 381 370 386 353 424 365 371 355 360 348 365 339 336 331 375 347 351 371 392 378 390 358 357 322 322 325 361 324 351 334 358 323 344 368 339 365 305 345 340 301 269 324 336 334 335 339 331 332 315 320 324 335 329 341 337 354 321 334 317 338 296 325 339 307 324 305 318 324 344 333 308 358 348 311 289 334 321 289 311 307 341 312 363 308 340 344 294 310 301 335 302 306 282 312 295 353 294 334 333 325 326 324 292 324 336 305 335 348 331 326 308 309 359 321 377 341 334 336 286 333 323 321 365 346 317 369 412 378 352 364 347 376 373 390 388 424 386 389 439 435 401 415 420 397 429 413 409 465 401 455 392 404 402 417 410 412 415 412 400 367 390 398 357 427 393 363 351 357 372 374 363 354 330 358 337 362 375 340 349 289 341 306 310 332 329 352 326 317 356 333 303 342 326 303 312 312 295 299 304 259 305 286 315 307 278 294 285 285 260 300 291 271 268 298 302 279 320 259 248 328 243 263 271 293 315 286 300 285 274 311 292 266 284 266 281 271 246 287 264 273 257 272 286 289 276 250 262 282 237 289 266 281 303 291 262 275 277 233 227 278 273 284 282 267 276 282 284 296 284 282 282 276 298 262 288 320 277 288 281 277 244 300 292 275 265 287 301 274 243 289 259 261 294 259 280 266 260 265 271 257 225 275 244 266 247 270 235 249 279 257 261 278 259 234 243 285 224 232 243 233 233 217 229 240 244 236 249 245 239 256 228 217 247 225 220 229 249 220 275 261 234 242 242 272 276 230 234 281 248 238 249 263 234 224 250 209 234 227 256 260 242 266 261 229 237 223 229 261 241 261 268 268 280 271 245 271 273 283 264 284 281 260 240 285 281 239 244 258 256 267 220 295 272 257 233 272 267 269 249 286 233 228 241 284 276 294 238 247 276 256 295 261 249 270 273 282 262 264 269 258 259 223 250 224 258 245 284 260 257 274 264 258 262 267 269 232 262 241 257 256 268 257 291 304 277 256 278 279 265 240 244 301 268 272 248 266 247 236 282 261 265 237 249 263 256 275 281 266 245 261 248 269 276 245 239 265 260 285 256 258 242 225 288 280 239 264 240 280 291 261 265 259 257 269 244 249 256 234 232 228 267 244 263 264 232 226 214 225 217 246 247 262 238 245 230 267 244 269 228 258 246 221 239 236 224 260 243 266 243 238 256 247 241 241 232 259 269 246 232 230 238 259 247 275 222 235 258 268 232 246 237 281 237 263 217 259 272 265 236 232 215 247 291 267 288 247 283 263 273 262 261 249 237 292 269 274 262 261 284 292 304 311 285 298 316 292 277 313 291 270 285 304 264 286 297 270 272 290 269 285 260 238 277 246 265 247 245 262 268 299 288 262 275 295 257 292 264 293 278 268 261 309 261 250 261 234 269 266 295 278 268 292 257 235 260 269 265 261 228 269 240 235 262 260 248 237 249 260 236 230 207 217 258 241 266 244 270 231 221 238 212 223 250 236 270 237 233 260 237 225 209 238 243 229 229 263 202 230 248 248 205 227 240 262 245 197 241 241 238 236 236 259 239 232 230 212 224 220 259 222 239 244 223 232 224 258 215 265 268 249 257 231 238 248 239 233 223 223 218 237 242 249 247 247 224 220 210 271 235 228 236 247 270 226 227 245 256 236 237 232 230 250 265 217 219 257 270 236 228 217 218 239 234 237 237 239 237 211 245 228 229 224 222 225 221 245 210 212 237 221 243 214 231 245 233 214 233 225 226 234 202 240 218 246 215 242 239 222 232 224 227 219 220 233 232 264 238 244 212 208 256 235 233 260 231 224 225 247 239 262 221 243 241 250 259 286 243 295 277 256 264 266 275 219 243 311 326 278 301 270 292 297 292 266 281 272 277 274 304 282 278 284 262 260 289 277 234 301 286 293 271 256 257 265 278 248 271 256 293 245 256 266 244 277 281 269 265 276 280 257 280 238 307 292 296 250 283 257 314 310 285 319 328 311 301 319 311 315 327 311 341 315 345 316 340 332 365 336 319 340 334 349 322 348 378 358 352 319 398 382 420 410 397 411 474 477 457 457 462 569 527 517 521 562 541 577 596 565 596 535 597 567 605 561 615 652 624 643 630 647 638 663 650 629 587 537 550 490 567 497 518 492 451 467 452 462 485 438 503 425 483 415 429 411 389 403 376 348 361 354 368 312 318 317 327 319 299 308 323 287 312 287 268 304 257 288 323 265 298 324 272 309 281 298 266 311 277 342 313 299 336 324 298 308 341 315 286 309 275 303 275 263 299 306 307 294 241 306 271 267 315 316 310 292 299 259 281 262 272 298 281 324 273 304 278 292 309 313 332 341 305 257 299 294 299 317 300 296 323 286 305 305 322 309 289 353 306 300 333 324 346 351 347 302 325 303 311 328 310 280 311 307 301 291 296 300 283 289 277 316 267 284 284 290 300 279 258 290 258 256 272 275 315 265 288 270 277 291 242 290 236 245 236 265 258 240 240 239 245 250 245 240 265 235 257 244 237 241 229 213 261 267 242 258 222 240 222 247 227 218 238 209 216 221 209 206 223 235 227 223 236 216 194 233 223 226 221 220 204 185 230 230 261 210 219 237 230 243 237 260 248 221 231 235 225 223 227 248 217 229 227 225 263 216 233 228 234 239 235 232 282 236 248 250 209 227 239 246 223 249 232 232 246 240 205 218 236 258 197 201 229 202 244 241 215 244 224 223 190 232 221 231 226 237 225 221 214 220 212 241 229 198 251 227 240 258 223 212 238 257 243 217 244 234 247 233 194 240 238 250 222 240 233 230 239 222 215 231 250 233 247 232 239 277 262 260 301 258 290 256 280 322 286 316 284 281 279 264 295 306 242 319 274 249 250 272 259 248 226 246 231 237 267 224 260 258 259 272 229 276 216 272 214 209 241 217 217 228 217 221 208 257 225 233 205 221 209 230 217 228 221 202 234 218 223 210 216 226 229 212 213 192 211 185 225 244 233 247 199 217 244 214 222 206 244 203 218 215 241 219 226 231 212 249 230 221 218 220 244 243 207 267 235 207 237 237 188 229 256 243 247 234 223 226 256 259 226 226 257 230 243 265 281 245 293 225 258 259 264 276 239 251 265 224 238 274 258 262 259 256 240 267 263 279 249 238 217 214 244 233 236 229 260 207 240 243 263 227 267 259 240 264 237 256 231 241 233 239 272 219 278 261 234 226 246 232 243 250 232 231 240 261 242 265 246 223 221 242 237 211 244 276 223 267 229 228 230 231 240 225 245 240 218 241 247 218 259 232 229 227 220 226 241 228 236 224 262 230 278 195 238 269 244 228 223 235 247 258 284 277 261 257 261 265 234 241 238 257 228 225 242 268 235 216 224 257 268 223 237 222 263 266 257 217 211 241 239 259 267 276 231 269 245 288 238 259 265 277 245 222 270 278 293 265 242 277 276 275 268 309 282 287 304 301 278 289 283 311 285 292 313 283 302 308 297 283 339 284 318 297 305 306 284 296 295 332 295 350 315 281 359 341 287 299 290 296 325 311 323 317 315 318 292 293 323 304 322 314 274 275 346 290 315 296 276 281 291 323 306 277 308 298 317 350 315 354 317 281 297 300 324 340 324 311 331 324 336 315 336 334 351 310 348 340 362 343 321 365 352 353 347 376 352 372 351 345 372 357 344 377 422 395 403 403 386 461 444 453 495 535 483 548 577 602 569 651 664 669 721 789 756 771 762 835 760 801 765 731 788 763 697 721 756 774 764 736 739 725 719 732 650 642 630 625 619 582 561 568 565 522 550 554 493 531 498 466 505 438 437 451 443 450 433 377 377 344 337 347 329 332 337 324 343 323 315 311 316 318 317 348 310 338 315 333 305 323 266 299 272 284 287 297 285 264 256 289 278 303 291 270 295 277 270 266 318 289 279 319 318 306 319 247 296 296 305 327 299 269 288 306 299 308 281 320 291 274 290 309 309 337 335 316 301 340 326 352 351 322 313 335 347 357 313 332 367 342 319 341 322 379 331 388 340 390 345 319 329 348 296 349 322 328 303 322 316 330 340 303 329 357 336 339 328 309 331 363 297 330 325 303 330 318 313 279 325 304 278 309 310 302 302 383 288 299 304 297 305 334 315 333 312 291 348 329 342 343 358 351 299 337 356 329 357 323 352 340 351 349 326 377 361 318 394 347 338 352 332 334 363 395 405 381 427 422 383 431 438 441 482 502 483 479 563 549 593 591 650 656 648 696 703 824 791 818 853 846 871 912 922 931 968 932 963 926 915 1001 945 921 905 935 922 941 868 834 773 864 868 811 832 842 832 845 807 763 778 767 757 747 796 720 737 766 689 705 684 695 648 689 651 654 620 629 649 601 585 574 571 566 521 532 543 573 517 542 551 580 527 491 513 509 504 580 530 556 533 528 519 489 530 491 472 497 473 480 467 452 460 437 477 438 453 427 423 380 406 395 445 433 406 400 388 417 403 411 409 381 430 379 419 401 411 424 445 404 446 412 382 393 392 370 391 365 397 352 378 354 310 308 304 315 300 337 335 314 317 333 323 330 329 324 350 327 328 289 278 310 312 303 287 284 282 297 268 283 234 248 239 226 261 290 233 238 265 260 277 245 265 243 256 258 245 218 228 218 241 222 275 267 270 262 263 272 262 227 269 277 251 264 258 259 245 271 246 238 268 243 269 274 261 249 259 276 277 256 257 271 282 268 273 236 291 257 274 268 274 281 264 261 280 241 275 266 266 292 270 249 263 259 269 271 264 265 280 246 271 284 263 271 271 273 263 267 236 279 268 269 277 244 264 231 264 247 258 192 267 228 238 238 248 235 250 237 221 228 260 256 266 261 231 218 224 236 226 268 211 221 247 247 204 261 222 222 226 240 227 227 223 227 201 240 195 212 212 231 246 230 249 208 220 192 222 200 267 218 219 220 227 230 201 208 258 220 242 233 225 207 235 225 236 239 224 233 234 217 222 244 203 225 208 234 212 214 218 223 223 219 232 235 212 218 214 242 218 233 233 214 247 235 232 216 221 215 191 224 210 220 250 227 220 220 218 236 209 199 260 210 244 213 227 216 242 235 238 232 241 262 249 220 205 231 243 229 218 278 226 268 223 227 236 233 220 231 218 233 197 239 222 239 231 221 239 215 208 221 214 234 212 206 247 256 239 227 259 207 238 223 244 225 209 241 228 240 223 241 241 243 273 265 250 222 232 216 225 217 258 258 258 243 260 266 244 275 294 224 281 224 242 207 256 225 209 224 212 223 221 238 226 224 220 219 256 278 232 221 248 235 288 259 267 226 257 242 257 216 232 258 265 250 240 249 223 234 236 214 246 244 219 249 241 249 206 211 221 251 229 230 226 233 241 234 242 226 259 225 215 258 227 246 268 264 220 207 271 246 223 262 217 213 247 289 263 239 248 243 238 258 228 217 239 239 242 234 229 259 272 239 274 262 239 261 230 278 270 243 238 244 240 267 250 238 266 269 242 260 247 279 294 286 275 270 281 278 258 301 268 287 286 262 263 246 231 285 289 278 245 270 226 243 226 230 236 272 227 274 243 277 275 293 272 278 279 245 263 243 263 232 256 241 243 243 229 251 257 229 241 230 235 269 268 244 227 231 215 222 264 265 268 214 230 272 213 257 235 269 265 241 221 260 291 238 250 240 225 257 263 241 258 263 268 265 223 226 267 264 244 246 260 219 256 245 278 269 231 264 261 279 236 275 258 237 247 210 258 244 262 270 293 240 251 259 265 250 238 280 250 249 275 256 258 224 246 246 270 256 272 202 256 250 249 223 274 236 260 257 251 274 266 273 248 243 266 280 264 246 259 268 270 226 244 264 228 246 232 266 271 278 250 268 270 263 264 273 233 305 256 276 222 249 248 260 280 246 263 246 244 242 272 260 277 242 246 280 270 243 265 236 284 238 262 238 282 276 276 244 284 284 263 267 272 247 274 225 270 268 273 226 250 245 275 236 276 241 262 230 246 218 251 285 284 250 277 251 260 264 287 266 282 244 270 295 243 271 299 278 276 280 275 285 285 299 290 316 300 264 305 305 317 327 309 337 315 318 298 331 341 371 304 320 318 290 307 301 335 318 312 291 300 310 333 297 318 326 329 294 300 323 245 297 280 310 301 299 292 293 282 283 304 320 321 301 294 289 281 311 300 250 302 284 327 297 301 286 291 300 270 306 329 309 321 297 318 357 332 329 361 328 345 347 342 311 327 303 301 326 337 357 356 330 353 345 340 341 369 354 356 373 320 373 359 362 374 323 369 373 329 379 353 375 390 339 358 367 361 361 392 361 397 391 327 368 365 383 359 363 403 355 415 396 378 405 415 443 392 403 467 449 441 462 530 525 527 508 529 577 624 641 652 673 671 754 743 745 794 844 827 820 764 772 801 821 778 789 751 712 661 693 716 650 699 693 659 592 619 612 650 598 622 617 626 640 589 657 653 660 574 588 603 573 549 568 533 510 522 537 493 487 462 464 435 456 411 405 426 415 410 421 396 406 396 388 391 353 376 364 358 363 368 370 372 405 413 400 355 349 379 373 392 354 411 386 403 429 405 387 353 377 399 411 362 350 382 362 331 318 382 326 349 331 294 312 329 298 333 357 343 309 320 355 328 326 340 301 328 328 340 301 316 327 335 285 315 288 316 308 304 273 266 316 313 261 269 272 272 237 290 267 302 281 305 267 247 244 235 289 277 267 242 248 275 235 261 234 263 244 280 270 273 234 244 250 241 233 266 263 250 259 246 260 247 238 238 229 233 262 263 244 243 241 220 226 256 242 234 240 262 230 217 266 237 238 243 222 238 220 236 260 273 228 259 234 269 229 217 239 231 248 236 198 250 214 249 238 257 223 257 205 245 261 230 221 225 227 223 228 232 256 273 221 229 212 257 210 258 202 220 218 237 229 218 276 217 245 197 235 221 209 238 243 229 211 247 227 236 218 256 216 239 234 233 227 237 213 264 234 227 266 214 217 229 216 243 218 206 211 241 231 233 225 247 217 232 248 249 218 260 199 226 208 236 241 228 222 234 227 223 218 220 268 219 218 256 256 220 211 273 270 232 218 232 258 267 230 259 213 213 227 230 215 245 258 261 248 220 217 227 233 218 227 260 240 268 218 240 231 238 239 271 245 245 259 228 231 235 264 245 218 239 212 234 233 220 215 227 222 225 227 240 221 239 205 221 208 244 227 225 231 235 230 248 236 233 221 264 232 208 245 223 265 221 209 206 231 218 231 219 243 202 220 220 227 225 211 260 257 224 234 206 240 232 229 210 224 265 200 249 221 216 230 226 216 225 221 239 232 211 226 239 227 235 215 227 221 235 237 279 230 232 235 235 227 244 239 240 226 244 240 220 206 239 224 259 263 247 207 256 220 228 238 236 241 259 239 245 219 275 241 244 242 248 211 235 242 249 268 264 258 237 236 238 244 234 227 244 223 237 248 230 268 215 257 262 236 226 226 235 230 262 296 245 263 287 223</counts>
			</dataPoints>
		</scan>
	</xrdMeasurement>
</xrdMeasurements>
