<?xml version="1.0"?>
<xrdMeasurements xmlns="http://www.xrdml.com/XRDMeasurement/2.3" xmlns:xsi="http://www.w3.org/2001/XMLSchema-instance" xsi:schemaLocation="http://www.xrdml.com/XRDMeasurement/2.3 http://www.xrdml.com/XRDMeasurement/2.3/XRDMeasurement.xsd" status="Completed" recordIdentifier="{6E779DC8-3F25-406F-A28A-305A45FDF47E}">
	<comment>
		<entry/>
	</comment>
	<sample type="To be analyzed">
		<id>GPSS_Li1p8Mg0p8Y0p2Cl4_121225_693c5ab8f4d05ae3d6974f21</id>
		<name></name>
		<preparedBy></preparedBy>
	</sample>
	<xrdMeasurement measurementType="Scan" status="Completed" sampleMode="Reflection">
		<usedWavelength intended="K-Alpha 1">
			<kAlpha1 unit="Angstrom">1.5405980</kAlpha1>
			<kAlpha2 unit="Angstrom">1.5444260</kAlpha2>
			<kBeta unit="Angstrom">1.3922500</kBeta>
			<ratioKAlpha2KAlpha1>0.5000</ratioKAlpha2KAlpha1>
		</usedWavelength>
		<incidentBeamPath>
			<radius unit="mm">145.00</radius>
			<xRayTube id="1010048" name="Empyrean Cu LFF HR (9430 033 7310x)">
				<tension unit="kV">40.0</tension>
				<current unit="mA">15.0</current>
				<anodeMaterial>Cu</anodeMaterial>
				<focus type="Line">
					<length unit="mm">12.0</length>
					<width unit="mm">0.4</width>
					<takeOffAngle unit="deg">6.0</takeOffAngle>
				</focus>
			</xRayTube>
			<sollerSlit id="21010002" name="Soller slits 0.04 rad.">
				<opening unit="rad">0.0400</opening>
			</sollerSlit>
			<mask id="22031000" name="Fixed mask 13 mm">
				<width unit="mm">9.00</width>
			</mask>
			<divergenceSlit id="22120001" name="Divergence slit 1°" xsi:type="fixedDivergenceSlitType">
				<distanceToSample unit="mm">50.00</distanceToSample>
				<height unit="mm">1.52</height>
			</divergenceSlit>
		</incidentBeamPath>
		<sampleMovement xsi:type="spinningSampleMovementType">
			<spinnerRevolutionTime unit="seconds">1.0</spinnerRevolutionTime>
		</sampleMovement>
		<diffractedBeamPath>
			<radius unit="mm">145.00</radius>
			<antiScatterSlit id="22090040" name="AS slit 9 mm (PIXcel)" xsi:type="fixedAntiScatterSlitType">
				<height unit="mm">9.00</height>
			</antiScatterSlit>
			<sollerSlit id="21020003" name="Large Soller slits 0.04 rad.">
				<opening unit="rad">0.0400</opening>
			</sollerSlit>
			<filter id="20030001" name="Large beta-filter Nickel">
				<material>Ni</material>
				<thickness unit="mm">0.020</thickness>
			</filter>
			<detector id="7010019" name="PIXcel1D-Medipix3 detector" xsi:type="rtmsDetectorType">
				<phd unit="keV">
					<lowerLevel>4.02</lowerLevel>
					<upperLevel>11.27</upperLevel>
				</phd>
				<mode>Scanning</mode>
				<activeLength unit="deg">5.542</activeLength>
			</detector>
		</diffractedBeamPath>
		<scan appendNumber="0" mode="Continuous" scanAxis="Gonio" status="Completed">
			<header>
				<startTimeStamp>2025-12-16T11:05:00-08:00</startTimeStamp>
				<endTimeStamp>2025-12-16T11:13:08-08:00</endTimeStamp>
				<author>
					<name>AutomatedUser</name>
				</author>
				<source>
					<applicationSoftware version="1.7b (136)">PANalytical Aeris Instrument Suite</applicationSoftware>
					<instrumentControlSoftware version="3.2.00000000 20240306">AERIS</instrumentControlSoftware>
					<instrumentID>950485</instrumentID>
				</source>
			</header>
			<dataPoints>
				<positions axis="2Theta" unit="deg">
					<startPosition>10.00943322</startPosition>
					<endPosition>99.99442286</endPosition>
				</positions>
				<positions axis="Omega" unit="deg">
					<startPosition>5.00471661</startPosition>
					<endPosition>49.99721143</endPosition>
				</positions>
				<commonCountingTime unit="seconds">12.495</commonCountingTime>
				<counts unit="counts">2393 2342 2483 2359 2333 2360 2336 2284 2416 2384 2391 2310 2382 2385 2296 2357 2303 2389 2392 2379 2346 2358 2303 2337 2318 2387 2202 2309 2385 2247 2323 2393 2386 2295 2327 2353 2437 2306 2283 2319 2313 2339 2250 2318 2313 2385 2343 2299 2355 2313 2272 2328 2312 2319 2239 2241 2299 2294 2286 2234 2308 2312 2344 2292 2229 2249 2267 2279 2187 2269 2253 2199 2214 2301 2235 2249 2248 2205 2238 2255 2231 2240 2282 2226 2401 2172 2120 2250 2196 2164 2235 2162 2229 2311 2267 2242 2399 2265 2236 2211 2180 2237 2217 2230 2264 2344 2229 2232 2230 2244 2200 2190 2229 2247 2258 2288 2170 2173 2289 2177 2200 2268 2169 2260 2210 2253 2226 2180 2260 2228 2244 2219 2210 2227 2225 2261 2187 2250 2119 2224 2266 2235 2259 2272 2118 2116 2188 2309 2128 2223 2076 2191 2285 2260 2188 2333 2115 2195 2184 2218 2147 2237 2110 2200 2192 2177 2154 2219 2218 2238 2275 2241 2200 2176 2167 2274 2242 2194 2186 2235 2244 2170 2220 2279 2330 2237 2164 2183 2135 2205 2178 2222 2183 2211 2250 2185 2293 2301 2237 2165 2211 2214 2209 2200 2119 2174 2164 2089 2114 2116 2122 2131 2182 2223 2304 2153 2090 2166 2027 2128 2147 2108 2175 2061 2160 2215 2213 2066 2156 2164 2026 2159 2145 2151 2090 2214 2156 2119 2115 2126 2207 2099 2139 2188 2123 2102 2087 2149 2144 2199 2167 2158 2140 2098 2146 2175 2068 2126 2113 2100 2169 2136 2172 2195 2127 2109 2062 2187 2090 2137 2044 2039 2044 2165 2081 2210 2154 2223 2048 2145 2207 2157 2086 2112 2132 1949 2126 2090 2096 2098 2049 2108 2078 2098 2061 2061 2087 2148 2038 2174 2120 2073 2195 2145 2086 2138 2002 2048 2129 2001 2168 2050 2042 2091 2070 2134 2144 2030 2045 2138 2148 2128 2082 2157 2059 2121 2072 2027 2090 2097 2126 2044 2111 2072 2048 2059 2065 2111 2060 2132 2171 2072 2133 2113 2181 2067 2077 2084 2106 2110 2130 2117 2114 2157 2110 2188 2099 2184 2106 2169 2243 2174 2219 2192 2175 2141 2159 2190 2123 2045 2279 2154 2146 2166 2163 2180 2158 2234 2173 2206 2129 2188 2119 2221 2226 2204 2203 2115 2266 2225 2199 2274 2224 2238 2250 2202 2323 2304 2273 2314 2240 2292 2214 2310 2377 2322 2310 2250 2410 2293 2212 2314 2316 2292 2357 2362 2289 2304 2288 2354 2319 2274 2323 2358 2315 2409 2394 2334 2406 2326 2420 2373 2471 2435 2409 2414 2465 2486 2619 2510 2571 2568 2520 2595 2551 2502 2584 2715 2609 2598 2599 2776 2735 2678 2846 2811 2797 2857 2769 2921 2934 2929 3070 3012 3060 3147 3095 3162 3145 3183 3272 3387 3372 3368 3421 3585 3577 3593 3761 3800 3942 3855 3912 4029 4081 4318 4232 4237 4281 4193 4251 4196 4284 4098 4034 4146 4005 4053 3983 4101 4132 4066 4155 4328 4365 4465 4701 4729 4877 5048 5060 5252 5179 5385 5326 5244 4937 4755 4502 4149 3877 3694 3581 3257 3267 3156 3059 3105 3074 3047 2940 3063 2955 2956 2980 2925 2901 2887 2812 2898 2849 2778 2741 2717 2832 2754 2766 2656 2663 2652 2647 2717 2669 2728 2624 2671 2567 2535 2655 2588 2588 2618 2565 2510 2499 2461 2529 2500 2631 2600 2534 2487 2493 2492 2491 2455 2544 2442 2535 2396 2563 2568 2498 2591 2412 2535 2580 2588 2582 2517 2575 2557 2416 2393 2424 2328 2436 2405 2254 2301 2388 2300 2418 2315 2394 2293 2305 2225 2188 2262 2197 2327 2264 2340 2256 2216 2239 2266 2224 2188 2231 2218 2195 2207 2235 2207 2231 2126 2191 2269 2232 2202 2215 2145 2136 2214 2157 2212 2201 2162 2139 2169 2166 2173 2182 2203 2119 2077 2066 2187 2136 2195 2089 2137 2162 2237 2157 2073 2105 2107 2182 2090 2168 2078 2136 2022 2187 2176 2203 2160 2152 2173 2150 2187 2155 2157 2158 2175 2096 2168 2119 2137 2238 2098 2090 2001 2088 2140 2122 2169 2085 2057 2091 2150 2130 2174 2114 2131 2208 2208 2126 2195 2171 2200 2097 2207 2172 2170 2186 2184 2235 2210 2270 2201 2213 2162 2248 2186 2307 2355 2276 2319 2293 2360 2342 2264 2389 2336 2217 2354 2234 2190 2217 2094 2179 2187 2083 2090 2017 2060 2032 2160 2116 1986 1991 2083 2003 2089 2071 2004 2129 2029 2039 2050 2045 2041 2041 1982 1989 2077 1976 1984 1996 2027 1978 2028 2052 1972 2011 1991 2090 2085 2031 2040 1984 1932 1961 2037 2020 1984 2030 1885 1933 1967 2080 1970 2017 1878 1981 1995 1939 1931 1973 1957 1984 1954 1952 1949 2017 1898 1995 1916 1898 2009 1941 1935 1985 1978 1930 1956 1990 1861 1850 1892 1936 1919 1933 1934 1909 1861 1887 1842 1947 1943 1862 1952 1895 1912 1963 1908 1911 1894 1927 1906 1848 1923 1985 1956 1882 1924 1790 1919 1978 1916 1928 1875 1939 1861 1823 1892 1956 1865 1847 1941 1923 1898 1924 1921 1840 1787 1881 1839 1911 1927 1846 1971 1880 1899 1913 1949 1878 1943 1903 1830 1894 1889 1920 1932 1963 1917 1945 1937 1975 1866 1892 1882 1906 1861 1900 1930 1900 1933 1798 1800 1893 1862 1875 1888 1870 1862 1821 1922 1849 1745 1943 1844 1908 1870 1873 1822 1885 1896 1816 1868 1795 1838 1859 1867 1871 1788 1844 1781 1820 1828 1799 1900 1755 1863 1839 1835 1804 1777 1830 1747 1853 1810 1774 1810 1849 1835 1757 1847 1854 1817 1853 1787 1818 1751 1800 1753 1770 1810 1823 1830 1829 1734 1862 1747 1816 1769 1807 1791 1859 1738 1722 1753 1777 1881 1799 1854 1742 1728 1754 1804 1824 1768 1769 1723 1734 1772 1828 1715 1759 1792 1772 1789 1766 1774 1886 1771 1784 1815 1708 1799 1752 1811 1737 1760 1821 1750 1733 1754 1770 1709 1723 1745 1774 1724 1767 1742 1705 1770 1803 1810 1761 1750 1791 1793 1738 1782 1726 1761 1751 1796 1763 1783 1707 1646 1693 1738 1746 1745 1752 1763 1753 1742 1694 1701 1710 1807 1719 1693 1735 1635 1744 1742 1753 1765 1746 1732 1738 1621 1679 1695 1724 1642 1694 1761 1760 1692 1701 1691 1729 1690 1721 1664 1708 1718 1616 1726 1728 1733 1754 1702 1681 1689 1694 1676 1812 1646 1732 1645 1701 1668 1783 1759 1661 1674 1789 1655 1610 1691 1650 1788 1740 1751 1715 1728 1720 1794 1721 1781 1637 1700 1661 1644 1584 1685 1670 1719 1737 1746 1708 1692 1764 1750 1662 1781 1708 1690 1724 1682 1674 1693 1705 1715 1670 1701 1683 1779 1683 1654 1710 1703 1736 1663 1607 1666 1690 1641 1703 1674 1653 1701 1682 1714 1734 1716 1630 1632 1671 1615 1588 1580 1647 1613 1637 1668 1679 1606 1665 1634 1589 1670 1688 1554 1618 1609 1574 1677 1660 1582 1621 1526 1663 1671 1595 1604 1630 1622 1628 1664 1583 1583 1499 1605 1614 1618 1594 1651 1576 1608 1586 1516 1609 1582 1718 1664 1636 1582 1691 1663 1605 1570 1633 1601 1576 1555 1531 1633 1587 1616 1551 1502 1465 1617 1507 1601 1566 1618 1593 1533 1606 1547 1483 1614 1637 1585 1546 1587 1545 1553 1569 1571 1591 1630 1639 1532 1596 1586 1571 1539 1645 1530 1576 1494 1512 1488 1564 1540 1569 1534 1582 1635 1587 1503 1505 1563 1549 1536 1478 1529 1500 1587 1501 1543 1531 1618 1539 1478 1518 1546 1558 1509 1502 1586 1480 1573 1573 1545 1522 1544 1546 1495 1484 1525 1555 1539 1670 1580 1614 1597 1593 1597 1614 1680 1618 1679 1638 1627 1644 1627 1554 1521 1565 1498 1507 1529 1471 1422 1532 1451 1412 1457 1419 1505 1410 1436 1393 1467 1435 1416 1452 1468 1447 1419 1416 1457 1440 1410 1510 1420 1467 1384 1497 1452 1411 1497 1440 1327 1367 1424 1404 1450 1418 1449 1357 1373 1431 1407 1415 1455 1356 1364 1376 1386 1385 1401 1405 1348 1379 1379 1369 1313 1370 1351 1438 1331 1464 1378 1359 1360 1304 1320 1300 1320 1372 1281 1373 1276 1332 1291 1305 1336 1368 1329 1363 1378 1329 1354 1310 1398 1327 1397 1422 1386 1384 1391 1347 1365 1418 1279 1414 1339 1381 1353 1339 1331 1338 1369 1299 1348 1351 1394 1348 1349 1433 1303 1274 1352 1383 1338 1326 1412 1323 1298 1374 1340 1401 1366 1399 1306 1397 1253 1296 1236 1370 1243 1316 1323 1279 1349 1363 1343 1404 1342 1255 1293 1274 1302 1273 1383 1353 1368 1313 1355 1275 1290 1334 1257 1269 1332 1302 1230 1301 1232 1339 1229 1279 1343 1227 1289 1284 1350 1268 1220 1306 1335 1342 1343 1341 1303 1223 1346 1295 1274 1297 1277 1391 1325 1351 1323 1310 1281 1403 1235 1387 1337 1280 1329 1274 1343 1322 1324 1335 1355 1311 1350 1288 1337 1307 1318 1347 1316 1337 1346 1394 1311 1321 1315 1296 1289 1364 1274 1328 1307 1354 1413 1400 1349 1421 1348 1434 1352 1308 1414 1289 1431 1333 1360 1466 1434 1465 1425 1511 1418 1422 1472 1465 1457 1532 1514 1532 1575 1525 1412 1526 1545 1562 1529 1581 1457 1440 1508 1471 1442 1436 1377 1393 1361 1401 1419 1383 1487 1318 1401 1342 1316 1401 1312 1343 1273 1327 1312 1292 1358 1271 1334 1306 1271 1263 1283 1275 1345 1287 1301 1332 1312 1254 1270 1254 1279 1280 1256 1223 1301 1255 1290 1261 1309 1293 1253 1212 1264 1220 1241 1294 1285 1253 1240 1294 1218 1358 1244 1227 1224 1262 1313 1278 1234 1233 1287 1179 1270 1318 1311 1323 1222 1319 1194 1218 1282 1264 1291 1284 1231 1292 1261 1304 1232 1216 1244 1252 1238 1313 1292 1229 1285 1242 1276 1260 1236 1217 1246 1237 1270 1248 1232 1240 1226 1280 1171 1260 1199 1266 1211 1269 1252 1225 1301 1231 1306 1182 1280 1216 1241 1204 1259 1267 1245 1201 1246 1210 1233 1221 1230 1213 1185 1239 1212 1193 1262 1215 1293 1299 1251 1205 1299 1282 1317 1257 1253 1201 1270 1233 1323 1336 1267 1326 1269 1277 1354 1283 1310 1366 1369 1407 1397 1386 1391 1439 1464 1458 1503 1504 1513 1549 1553 1672 1586 1563 1595 1690 1573 1633 1603 1567 1597 1542 1600 1488 1523 1556 1475 1471 1503 1414 1400 1396 1336 1325 1343 1317 1286 1334 1347 1371 1319 1316 1268 1381 1347 1256 1342 1343 1353 1370 1310 1328 1291 1309 1311 1299 1363 1280 1294 1258 1293 1240 1264 1184 1250 1191 1243 1226 1188 1201 1188 1334 1188 1265 1270 1278 1252 1247 1345 1296 1359 1274 1268 1317 1249 1311 1348 1277 1329 1316 1374 1371 1405 1477 1481 1426 1581 1624 1562 1766 1777 1759 1893 2068 2076 2183 2297 2389 2570 2595 2816 2939 3029 3183 3264 3233 3512 3639 3767 3995 4058 4267 4554 4640 4909 5160 5124 5505 5722 5750 6286 6339 6512 6739 6688 6629 6458 6266 5904 5538 4991 4784 4382 4161 3732 3467 3182 2989 2755 2604 2515 2478 2440 2424 2568 2489 2541 2613 2694 2643 2718 2893 3007 3130 3108 3232 3294 3325 3293 3264 3295 3200 3265 3051 2984 2867 2851 2732 2656 2560 2550 2581 2541 2543 2424 2508 2628 2673 2661 2711 2761 2751 2708 2666 2534 2350 2238 2153 2115 1996 1941 1799 1759 1636 1538 1523 1394 1454 1312 1271 1342 1300 1332 1335 1358 1298 1362 1299 1283 1400 1307 1310 1345 1297 1255 1274 1332 1273 1305 1210 1194 1255 1248 1233 1193 1144 1189 1219 1080 1161 1209 1282 1182 1184 1252 1185 1145 1219 1233 1221 1166 1180 1183 1225 1245 1156 1135 1191 1240 1316 1239 1292 1375 1317 1335 1402 1362 1434 1424 1465 1480 1521 1507 1477 1603 1620 1644 1648 1739 1709 1684 1762 1794 1992 1973 1938 1979 2016 2103 2090 2072 2041 2074 2082 1925 1941 1896 1831 1712 1643 1538 1471 1413 1362 1384 1328 1278 1212 1181 1190 1128 1136 1165 1181 1083 1105 1195 1119 1163 1114 1094 1109 1126 1139 1047 1129 1170 1086 1122 1079 1135 1113 1130 1157 1091 1185 1166 1179 1129 1140 1186 1135 1198 1161 1221 1159 1170 1165 1224 1164 1128 1122 1122 1089 1154 1168 1116 1131 1046 1080 1043 1059 1101 1043 1023 1051 1092 1063 1019 1052 1070 1023 1075 1080 1046 1065 1113 1134 1083 1150 1133 1160 1146 1162 1087 1206 1175 1208 1144 1230 1242 1267 1243 1230 1251 1323 1325 1335 1323 1354 1310 1411 1413 1423 1440 1449 1541 1562 1573 1543 1596 1546 1607 1613 1528 1542 1727 1628 1656 1687 1646 1648 1599 1617 1602 1475 1473 1409 1440 1388 1423 1407 1270 1244 1252 1255 1196 1151 1180 1184 1160 1122 1099 1118 1136 1174 1042 1095 1042 1100 1106 1111 1083 1033 1076 1107 1041 1034 1031 1057 1058 1077 1035 1089 1017 1071 1070 1129 1064 1077 1053 1080 1106 1082 1142 1117 1078 1165 1050 1039 1055 1141 1080 1164 1163 1115 1101 1068 1165 1137 1133 1152 1181 1224 1168 1234 1188 1169 1208 1179 1196 1230 1241 1282 1258 1328 1286 1312 1255 1350 1259 1244 1331 1276 1270 1301 1318 1340 1396 1307 1334 1341 1385 1372 1398 1453 1422 1521 1510 1541 1618 1734 1797 1800 1850 1897 1990 2120 2331 2431 2541 2710 2831 3154 3222 3425 3771 3894 4155 4119 4277 4378 4527 4637 4904 4991 5005 5317 5674 5711 5924 6066 6313 6376 6680 6550 6705 6709 6360 6348 5998 5809 5596 5184 4902 4639 4306 4136 3723 3568 3276 3105 2991 2816 2803 2725 2537 2740 2598 2791 2748 2883 2872 2992 3072 3111 3259 3351 3339 3470 3480 3594 3737 3782 3905 4005 4002 4120 4184 4087 4155 4156 4316 4212 4103 3924 3895 3682 3484 3311 3181 3074 2809 2674 2559 2422 2305 2175 2105 2025 1863 1814 1758 1650 1679 1546 1683 1588 1540 1623 1520 1586 1517 1540 1483 1509 1439 1489 1413 1444 1416 1521 1484 1401 1374 1411 1316 1377 1306 1298 1349 1327 1358 1288 1341 1261 1192 1174 1223 1147 1277 1253 1264 1216 1226 1211 1167 1137 1157 1174 1132 1209 1181 1151 1136 1145 1147 1147 1076 1164 1105 1119 1134 1154 1065 1125 1141 1118 1048 1145 1073 1126 1139 1121 1074 1056 1060 1104 1003 1058 1099 1055 1118 1075 1047 1063 1078 1077 1083 1105 1029 1099 1068 1104 1019 1124 1053 1126 1049 1068 1031 1127 1029 1050 1094 1039 1081 1068 978 1077 1004 1092 1055 1029 1005 1050 1019 1030 1006 1035 997 1037 1042 1000 1015 954 1037 1055 1009 1018 978 971 1035 1023 1099 1005 1032 1039 1061 1018 1044 1049 1000 1010 948 977 944 1019 982 949 893 960 983 936 936 939 867 940 979 943 899 985 915 929 942 935 876 933 930 896 955 943 990 931 978 982 940 925 955 891 900 940 907 918 924 892 898 922 925 954 910 986 922 914 896 967 900 942 931 896 941 866 833 900 898 918 931 902 896 860 887 873 884 869 873 931 894 920 880 879 892 876 864 982 980 897 850 879 894 868 906 812 885 894 818 880 902 915 885 864 892 864 939 945 898 926 842 861 881 876 863 875 818 879 868 882 879 835 848 923 887 856 898 881 890 844 878 811 866 830 843 842 880 839 809 906 865 840 797 809 897 897 870 895 835 823 836 830 876 850 864 881 846 844 830 864 821 820 851 836 892 872 873 776 784 857 843 831 888 894 860 866 825 785 934 755 880 845 902 862 873 865 856 889 809 877 902 859 849 828 852 824 879 836 881 880 919 882 828 871 842 913 829 845 837 781 856 818 871 786 819 829 839 866 801 864 772 824 858 779 783 859 826 786 822 814 845 797 798 770 872 903 790 883 822 851 838 867 790 831 805 837 788 831 852 842 859 840 879 747 865 755 803 828 815 837 811 843 789 855 800 877 786 812 853 827 807 830 815 810 802 847 828 756 843 817 831 791 773 842 835 794 838 843 848 805 854 810 887 830 807 838 844 801 836 750 790 786 829 741 851 794 826 805 780 777 819 823 849 808 766 815 810 834 798 813 788 809 860 825 798 845 850 816 821 837 850 839 868 864 827 823 830 933 808 817 841 851 793 830 848 782 888 814 842 840 803 790 789 849 879 832 771 811 817 813 848 856 891 856 835 865 920 831 843 809 918 901 949 943 968 963 1001 1031 1000 1059 979 1095 1077 1083 1040 1118 1121 1166 1197 1216 1260 1309 1330 1260 1257 1259 1348 1372 1438 1380 1351 1381 1293 1215 1295 1198 1170 1120 1063 1167 1059 1055 1055 983 978 984 971 870 965 879 846 804 858 901 869 811 857 843 839 818 839 824 754 778 854 793 805 776 843 814 807 796 811 839 899 837 822 826 852 807 850 841 789 858 755 838 761 819 844 846 807 857 832 801 772 790 788 767 863 815 829 826 801 834 806 743 785 755 744 842 815 790 771 832 783 773 773 815 779 828 778 752 840 775 821 762 764 751 814 777 754 811 776 756 784 801 783 789 786 750 821 731 805 819 801 803 783 747 759 759 838 771 794 746 737 716 807 829 785 784 767 784 735 798 809 779 811 840 788 774 778 762 763 783 760 816 814 795 783 814 771 807 793 749 842 860 826 811 861 852 818 857 827 862 809 879 874 856 841 825 835 795 847 835 878 770 814 819 789 819 762 858 775 772 792 773 775 721 817 727 751 768 770 785 763 835 782 795 793 816 796 810 787 823 808 830 761 768 773 834 796 823 907 813 852 792 830 860 846 828 816 890 843 880 919 817 827 821 783 848 810 827 825 817 767 875 741 783 768 779 781 831 831 777 796 770 786 755 884 805 756 828 813 811 783 767 812 745 820 763 794 908 824 827 766 785 855 878 842 884 805 825 892 855 897 876 851 877 919 899 897 930 901 897 892 894 923 916 883 885 911 919 887 899 921 890 906 872 915 850 826 898 756 857 828 820 793 790 778 812 800 827 818 825 825 783 889 717 871 803 837 764 830 836 803 774 824 840 812 800 755 853 832 812 797 792 819 805 784 787 737 821 828 778 788 785 859 823 844 812 822 807 836 813 861 859 893 857 907 876 911 828 887 935 882 918 979 948 1017 1008 978 1185 1016 981 1066 1091 1121 1168 1205 1190 1217 1227 1235 1252 1331 1373 1315 1374 1409 1288 1357 1297 1349 1397 1306 1314 1245 1227 1148 1166 1144 1163 1130 1145 1085 1162 1091 996 1001 982 1038 951 955 1038 946 1050 970 1037 974 960 956 1000 994 969 997 976 1039 1028 1034 987 1019 1023 1043 1012 1026 1084 1017 1046 1045 1003 1077 1061 1008 1051 1117 1114 1055 1040 1038 1034 1015 957 1046 949 1016 1019 996 1030 971 971 1033 938 1027 1044 1035 1048 1008 1002 1025 976 959 931 927 937 891 947 895 833 821 904 834 838 898 819 874 821 823 838 774 754 795 799 766 792 840 763 780 783 809 745 720 756 755 775 753 767 749 749 744 718 774 760 699 763 793 757 791 791 737 784 788 709 821 773 658 761 715 798 742 725 733 744 756 721 733 778 762 755 746 761 774 769 757 743 797 708 700 736 729 735 723 763 719 767 765 757 715 759 727 733 713 725 731 733 726 761 718 763 754 734 736 781 712 709 723 758 758 708 727 745 745 692 727 755 732 768 716 811 705 784 733 769 749 818 744 719 722 732 793 787 795 738 778 778 787 794 761 759 758 756 765 822 803 742 772 859 739 770 734 747 782 816 785 844 783 821 764 801 735 820 776 831 794 797 787 817 833 854 825 791 855 865 853 842 863 863 862 880 886 914 880 918 908 939 979 947 934 943 1014 1028 1023 949 999 1008 954 987 984 1010 1007 1015 1036 1055 1081 1049 1040 1093 1049 1069 1084 1101 1100 1094 1100 1060 1048 1119 1046 1022 1063 1073 1039 988 1022 1011 973 1028 1045 1056 1017 1030 1017 1018 1024 1052 1020 1047 1059 1096 1089 1061 1087 1112 1141 1099 1089 1198 1094 1179 1209 1207 1184 1147 1209 1169 1170 1102 1195 1143 1171 1099 1127 1091 1021 1048 1066 1097 1068 1055 1050 1092 1059 1108 1062 1041 1102 1123 1079 1159 1202 1263 1188 1278 1331 1460 1520 1537 1708 1716 1720 1828 1914 2010 2059 2288 2254 2277 2563 2571 2689 2857 2995 3093 3361 3575 3585 3781 3901 3824 4048 4070 4078 4090 3984 3998 3908 3757 3625 3585 3441 3239 3047 2829 2853 2640 2596 2413 2389 2167 2017 1927 1854 1659 1552 1452 1505 1410 1312 1323 1235 1213 1241 1254 1234 1244 1194 1271 1236 1355 1272 1388 1349 1412 1372 1460 1411 1486 1540 1543 1580 1706 1740 1784 1943 1863 1930 2082 2216 2188 2241 2257 2232 2274 2242 2289 2349 2288 2231 2143 2141 2127 2015 2077 1998 1958 1926 1841 1881 1897 1827 1836 1755 1762 1681 1729 1618 1689 1624 1542 1557 1570 1574 1457 1398 1412 1376 1297 1303 1260 1252 1205 1153 1176 1089 1054 1015 1052 1014 981 917 951 870 904 871 861 879 845 823 822 828 829 808 862 857 854 865 866 801 865 798 818 783 767 793 799 873 823 855 827 862 878 746 773 786 757 784 795 766 776 839 811 843 723 778 717 753 777 776 714 720 789 779 756 786 778 722 744 736 776 697 786 747 781 751 766 771 682 755 759 755 744 735 715 790 741 741 711 777 744 709 704 737 755 779 761 758 728 798 815 779 832 769 803 831 737 800 791 820 846 731 737 808 838 859 878 826 848 834 951 818 900 960 901 930 954 961 960 941 949 947 866 903 875 840 851 901 867 767 790 812 829 882 761 772 749 824 770 736 829 781 728 685 818 752 705 754 728 699 747 743 715 761 699 734 794 737 727 698 715 747 734 750 731 732 744 771 730 737 757 808 829 817 776 732 800 831 782 799 802 823 791 796 796 860 765 813 758 741 773 770 796 779 770 725 778 767 714 752 785 747 786 752 757 772 808 734 777 721 720 735 674 712 728 728 737 709 722 717 721 715 660 718 683 711 699 679 683 651 644 701 622 706 702 683 647 684 670 702 679 719 696 777 673 722 677 688 697 727 704 724 698 717 721 733 738 722 753 775 752 814 775 704 843 772 805 842 787 767 822 833 848 882 806 805 798 815 829 809 885 824 849 813 812 860 865 855 866 809 793 767 782 781 756 712 772 698 768 765 762 741 743 705 768 737 678 728 645 685 660 695 677 671 666 674 646 676 698 687 645 685 637 671 639 684 660 654 639 666 666 678 705 660 750 742 664 647 661 672 684 719 631 666 650 694 624 639 683 690 648 690 680 644 646 670 637 668 653 649 663 646 663 712 666 687 678 653 670 675 620 701 656 710 674 659 698 686 654 636 651 623 662 689 671 696 655 633 667 740 727 701 659 673 636 653 632 670 682 673 641 633 631 628 642 612 623 651 599 638 627 650 653 673 624 677 597 642 652 683 648 670 670 652 653 656 642 617 622 593 602 646 641 681 623 646 629 613 589 632 647 627 656 627 652 677 619 633 615 648 671 630 612 659 669 606 669 642 659 606 665 664 664 691 648 643 642 625 625 695 637 672 646 651 711 629 653 655 649 670 600 623 662 657 673 636 658 608 639 666 677 657 623 622 703 627 642 628 669 649 653 622 667 666 640 639 669 662 622 656 645 638 681 638 679 579 660 686 642 654 640 656 638 627 646 611 680 635 635 605 644 603 608 655 641 667 632 642 617 641 650 685 629 679 625 664 649 638 655 622 631 666 637 670 643 658 653 660 642 651 633 629 628 634 598 664 644 658 655 672 662 610 655 655 612 667 636 684 676 714 652 641 621 632 646 699 666 667 689 645 681 707 718 708 698 648 648 672 687 700 709 666 709 680 671 656 720 696 677 713 745 706 703 666 652 671 728 740 751 695 748 681 691 726 688 710 695 678 760 678 724 691 706 700 736 675 715 682 679 683 669 671 701 634 705 661 663 638 666 640 671 637 704 700 694 617 698 674 612 686 610 706 643 702 670 650 624 627 609 657 658 684 676 707 741 687 689 680 662 672 654 717 701 677 680 711 634 702 711 718 668 671 716 676 685 730 680 671 690 683 769 715 705 722 684 690 667 704 620 670 732 738 738 724 768 726 763 809 800 849 858 847 881 905 978 931 980 1010 1010 995 1054 1084 1124 1135 1243 1217 1303 1263 1408 1421 1470 1473 1535 1496 1590 1510 1550 1522 1526 1505 1508 1491 1521 1363 1341 1236 1350 1321 1226 1260 1134 1223 1079 1127 1202 1096 1043 1016 1025 898 984 896 897 874 848 910 882 816 806 875 805 837 803 790 811 828 811 852 872 817 778 857 777 879 866 799 902 881 830 879 890 904 904 890 904 952 903 914 999 917 997 1019 1040 1065 958 1100 1037 1137 1140 1132 1078 1157 1147 1269 1229 1234 1138 1132 1207 1125 1093 1166 1112 1081 1020 1138 998 1025 1094 974 950 991 956 964 918 868 929 886 896 771 844 831 833 937 830 835 898 757 826 783 780 766 715 742 730 771 739 693 697 727 788 703 743 705 683 711 706 712 728 685 686 663 635 693 707 668 618 603 668 668 647 677 646 665 664 640 612 651 619 684 680 646 664 668 648 686 653 629 646 673 615 629 639 620 641 653 696 687 617 655 653 629 652 666 643 609 721 638 641 657 662 693 654 656 641 640 640 630 653 701 673 685 685 650 586 615 653 638 641 639 582 616 624 601 613 648 645 657 680 641 643 659 636 637 688 650 638 678 637 646 672 656 667 686 661 712 715 787 681 718 746 759 713 805 807 838 845 835 841 909 910 935 992 970 990 1004 1052 1150 1113 1170 1158 1155 1223 1178 1224 1319 1407 1357 1451 1478 1396 1499 1544 1446 1546 1491 1480 1427 1363 1368 1331 1300 1196 1139 1179 1133 1187 1133 1138 1044 1093 1023 973 1006 1004 927 846 846 819 818 820 771 821 781 748 731 735 735 724 711 686 751 779 749 677 724 751 709 701 778 711 801 703 739 735 755 756 757 729 755 774 840 820 811 837 877 844 806 898 927 908 904 925 910 943 951 965 1020 1048 960 1054 1042 993 1016 1023 971 993 1028 935 927 920 919 944 912 873 869 816 841 776 849 814 865 771 774 782 775 820 751 750 769 754 726 741 767 755 777 818 785 736 802 782 818 843 858 864 861 924 880 917 987 970 997 952 902 926 919 923 919 809 837 843 815 799 814 791 833 820 864 824 749 753 770 716 749 708 691 685 696 674 635 703 675 698 656 678 615 623 662 613 675 631 714 666 620 702 650 702 710 706 677 796 721 731 711 725 730 711 731 738 707 744 811 804 824 782 776 835 772 761 738 805 730 779 765 722 756 694 759 720 751 683 758 736 727 714 702 693 639 669 656 717 705 641 650 628 680 580 623 627 640 615 562 605 613 667 619 637 572 566 625 607 588 582 605 595 626 571 626 608 608 601 643 570 559 551 602 588 579 583 578 640 604 629 595 664 533 606 581 586 600 575 613 590 606 615 648 601 628 619 586 661 575 594 553 614 607 604 595 598 562 639 601 607 627 630 619 643 626 626 671 647 697 639 612 654 644 690 654 648 691 666 671 661 613 702 712 720 714 689 704 704 706 684 687 667 721 660 693 717 680 653 682 728 702 706 676 683 669 703 675 706 629 652 668 704 674 631 670 662 658 646 656 673 684 678 700 652 610 671 645 653 694 635 692 650 715 613 629 620 668 624 676 626 662 617 621 658 618 604 606 558 598 599 581 542 643 580 566 613 610 589 573 606 613 568 604 560 568 595 559 644 522 537 580 569 569 621 579 604 582 558 596 564 607 587 557 552 584 572 556 569 548 564 578 620 597 572 611 593 603 594 631 572 567 601 585 530 564 573 544 538 540 582 589 610 570 575 577 593 574 524 551 561 585 579 603 554 580 592 555 570 550 562 576 547 571 577 549 541 606 550 563 611 557 562 557 554 555 606 567 550 556 584 560 616 519 606 594 576 599 569 580 502 565 612 560 609 578 582 552 666 598 518 568 532 579 625 542 603 561 588 589 590 565 559 508 619 576 563 516 549 566 574 546 536 553 602 574 567 585 539 566 551 586 526 567 579 538 582 549 576 512 532 550 542 529 520 508 542 568 565 596 586 583 536 573 548 594 546 604 526 588 544 637 581 582 564 576 560 544 549 595 546 603 581 553 612 613 610 607 603 543 596 554 599 592 599 574 622 591 581 584 635 578 555 569 616 531 542 543 602 597 576 588 552 515 567 555 531 546 549 555 534 545 548 509 556 537 523 562 565 567 527 562 551 533 520 530 532 559 630 578 597 600 560 571 585 541 614 591 566 574 592 548 587 579 529 579 542 601 547 588 586 599 543 595 553 567 576 599 586 545 578 543 582 536 586 571 592 547 534 590 645 564 618 608 603 549 583 618 620 607 600 669 601 586 611 619 600 649 609 621 647 640 623 663 584 696 655 630 654 657 676 607 626 642 627 596 656 632 623 589 658 609 617 617 610 595 543 599 567 573 603 570 603 579 585 628 576 578 576 585 571 592 561 568 544 594 561 541 549 556 562 527 542 545 582 594 552 542 557 591 555 551 602 564 569 536 536 549 570 513 572 550 533 553 586 572 576 522 551 536 567 555 596 551 557 586 586 566 533 519 476 576 558 566 548 585 520 545 540 569 595 589 573 539 601 552 553 623 518 566 528 562 516 588 558 622 532 616 564 594 577 585 552 573 578 575 512 540 609 562 568 596 546 618 515 554 531 541 557 566 542 596 535 551 565 547 523 534 563 582 531 621 563 550 569 565 559 531 572 548 549 533 561 512 536 582 511 548 594 520 553 566 565 510 522 520 549 538 573 577 593 595 549 545 546 541 512 511 520 601 523 572 604 542 567 541 546 549 538 543 549 590 493 541 513 487 519 499 532 506 573 512 539 496 581 605 530 555 551 581 569 557 530 574 563 570 539 524 556 559 559 552 563 570 566 544 525 547 580 568 543 574 531 549 534 576 562 585 565 564 561 571 528 555 581 596 525 585 550 584 561 512 570 554 566 583 585 596 571 582 573 569 610 583 583 588 587 582 602 615 611 588 655 645 676 708 716 702 714 730 718 711 723 728 723 730 773 740 779 732 794 823 829 723 809 801 858 849 793 832 848 802 852 791 863 783 780 792 741 743 744 766 772 737 658 695 688 737 690 700 686 655 656 664 666 654 629 655 651 665 664 609 576 617 598 598 595 600 660 553 621 583 576 578 582 516 590 566 564 623 557 600 582 572 615 580 568 575 609 583 559 576 581 614 622 600 577 632 558 611 619 599 572 618 571 647 617 572 615 635 618 664 587 666 638 660 690 612 612 700 653 645 699 684 658 687 667 748 670 678 674 730 740 677 686 726 656 710 729 732 736 685 745 655 713 666 710 684 690 698 709 681 631 669 643 699 621 621 642 639 628 640 647 645 608 625 631 608 643 634 589 627 573 614 622 599 585 590 545 583 580 548 517 567 553 536 571 546 575 526 551 569 539 548 534 564 578 553 549 598 552 550 595 584 569 492 577 600 544 545 518 522 514 597 558 565 586 542 567 546 552 549 546 538 607 546 572 568 534 522 541 561 554 587 562 534 519 531 559 486 592 563 520 525 555 468 515 500 583 522 569 514 524 537 539 498 534 565 567 544 558 578 554 541 538 584 512 565 551 539 554 567 525 555 558 567 549 550 554 558 594 561 549 570 531 568 547 592 553 544 541 554 620 549 556 562 600 601 544 573 570 600 557 578 575 520 560 589 520 552 494 557 512 561 570 557 561 519 554 534 559 580 555 562 546 488 535 518 592 544 527 527 522 544 572 545 562 530 512 533 515 629 590 565 571 547 538 575 538 541 613 551 598 501 543 562 541 555 555 595 560 650 578 588 552 577 572 517 582 669 569 563 593 605 592 577 557 569 548 540 600 594 569 534 594 594 577 609 587 545 569 505 556 576 574 582 511 559 514 530 539 517 522 511 490 574 570 590 540 570 519 553 572 581 565 558 532 517 555 558 523 542 571 550 522 636 538 564 519 525 534 536 491 511 593 533 501 506 575 508 529 543 470 530 544 533 545 564 568 531 532 533 538 531 537 579 506 492 536 545 507 574 549 567 553 537 547 544 571 584 553 508 488 517 548 540 538 542 557 552 559 572 535 573 587 555 539 517 602 505 572 568 564 548 576 578 592 601 616 550 584 559 570 567 566 546 555 524 512 565 548 532 589 476 558 546 533 551 559 572 577 597 548 587 544 547 520 583 552 529 562 534 560 524 593 531 569 563 534 546 563 511 513 543 542 505 542 507 564 539 596 566 521 532 542 509 561 575 554 565 583 537 547 560 545 510 531 540 564 528 565 565 554 513 574 557 592 546 570 523 562 579 542 551 547 582 502 555 550 569 553 558 564 521 473 550 508 544 491 562 526 541 544 522 571 554 547 572 583 545 568 539 496 554 516 557 566 532 553 546 574 598 539 510 565 564 593 592 548 514 531 526 614 544 606 563 571 515 551 580 543 583 528 578 565 564 556 521 503 614 540 566 545 515 559 561 527 564 557 618 562 550 575 565 588 570 535 583 573 611 615 640 637 634 614 568 593 611 592 609 599 591 599 611 684 623 640 663 632 633 592 671 616 655 622 587 666 623 618 609 651 633 650 691 641 670 650 674 648 663 628 655 754 739 708 708 739 682 675 735 691 753 746 813 784 767 784 801 825 873 860 900 834 918 872 825 867 856 857 854 842 878 868 838 869 870 821 855 824 841 842 842 819 809 782 757 720 755 734 756 710 779 714 701 705 684 752 678 705 649 673 655 676 647 646 628 640 605 599 607 565 608 664 604 645 609 592 637 602 583 627 607 602 587 624 566 606 582 536 628 588 599 600 613 625 587 558 609 553 630 587 585 636 562 633 616 531 613 573 594 621 609 570 583 541 617 596 675 694 677 628 649 648 654 673 668 703 672 717 681 639 677 673 713 735 735 765 734 762 800 712 727 757 746 725 701 724 834 809 767 802 750 771 807 761 754 763 717 772 764 690 779 748 763 709 715 684 633 748 728 750 695 719 717 634 678 650 688 647 668 707 584 694 592 631 643 626 637 637 674 697 638 664 618 649 634 636 649 668 655 667 632 687 674 674 733 647 630 621 630 686 664 649 675 670 707 650 696 635 660 665 697 673 728 705 661 650 641 648 708 722 727 745 771 763 772 781 773 843 800 845 820 838 885 915 880 954 954 968 953 956 1046 1082 1089 1174 1155 1099 1132 1137 1094 1190 1072 1112 1075 1119 1092 1027 1085 1049 1083 999 1009 1015 937 994 980 973 958 960 919 1017 887 862 909 877 897 843 818 870 837 779 805 779 803 749 696 698 738 645 726 625 653 657 649 631 679 614 671 638 620 656 651 649 609 684 586 599 680 635 644 619 591 600 599 630 676 611 633 645 630 612 570 598 638 649 637 593 629 590 575 640 625 611 654 577 666 550 656 639 644 673 623 674 638 663 675 651 682 676 717 704 701 708 703 738 759 737 763 704 757 765 753 758 759 771 792 806 780 820 739 800 778 779 730 769 741 797 771 794 733 790 830 727 789 722 711 762 761 829 745 808 757 762 759 754 748 764 784 724 771 716 767 721 745 757 769 792 721 787 746 712 710 676 749 716 713 680 729 748 761 684 778 715 671 738 663 679 647 687 727 686 654 696 672 654 655 662 652 619 634 645 648 589 629 643 665 601 613 596 598 620 571 626 587 643 585 598 597 574 576 571 564 571 567 568 538 594 542 537 594 510 566 585 568 595 561 544 569 547 568 520 558 596 598 578 588 614 596 556 546 520 543 565 524 524 538 580 593 598 610 588 557 618 527 559 550 606 593 558 551 614 583 630 579 626 533 599 581 597 580 630 583 580 538 590 642 536 639 625 645 593 569 569 582 591 577 598 584 626 558 561 555 597 569 589 604 577 568 586 584 566 598 610 586 601 606 572 606 583 602 583 581 600 615 575 588 549 567 555 596 579 571 592 595 608 580 559 587 529 585 590 550 558 572 526 569 611 606 602 605 533 559 574 567 557 623 551 610 571 550 569 545 549 607 605 579 601 559 592 565 529 535 586 518 555 575 537 534 547 535 544 572 551 563 570 557 573 555 513 530 562 525 580 558 569 560 574 557 540 561 539 551 599 554 523 555 535 528 556 561 550 505 529 546 540 481 548 531 541 557 530 530 571 479 549 522 529 495 520 557 527 534 579 537 556 484 561 504 528 564 546 533 554 540 508 521 510 569 568 519 485 504 527 509 512 531 558 518 549 484 559 524 502 511 546 509 494 568 540 537 489 558 521 549 535 532 513 539 513 489 521 517 469 520 526 474 523 520 531 500 524 562 529 517 485 535 486 551 489 490 569 524 506 521 536 489 535 548 536 507 510 503 555 523 539 452 553 513 489 534 526 559 502 610 569 540 574 541 573 502 544 547 540 513 545 510 495 578 551 546 557 519 554 529 502 582 558 568 518 568 556 582 546 552 529 512 576 569 496 525 462 528 511 528 546 535 532 569 583 547 520 534 541 534 506 477 539 490 536 574 527 506 526 529 526 511 552 504 530 493 501 528 553 567 519 561 519 529 552 557 609 525 573 520 510 528 566 483 578 572 562 569 549 538 561 554 546 515 594 540 592 590 541 553 517 558 542 577 521 568 544 540 557 570 553 545 554 620 555 608 589 604 558 591 606 594 602 620 615 567 601 581 570 595 549 603 569 591 559 562 572 577 581 550 518 528 553 593 577 550 535 620 566 529 533 572 511 573 557 542 586 529 512 561 552 510 500 525 536 493 525 569 555 541 531 543 506 523 522 514 535 475 568 504 539 566 551 530 496 501 543 549 540 588 508 484 495 517 517 522 539 539 555 509 546 499 564 499 591 525 532 530 520 515 566 527 542 524 540 520 513 515 531 564 549 550 588 547 528 554 503 553 537 538 506 565 471 614 519 524 533 548 554 539 539 540 551 567 555 537 543 538 560 494 594 542 569 559 552 583 517 554 591 561 594 551 551 576 551 577 593 564 514 558 518 538 545 621 568 540 576 511 545 543 609 571 575 576 577 584 531 538 534 588 592 520 569 572 532 544 555 579 552 542 466 527 534 622 536 538 562 558 533 524 534 553 537 531 522 527 542 585 549 505 562 540 542 533 512 518 507 556 568 556 529 569 534 547 553 579 562 516 506 549 527 510 567 502 548 586 517 524 576 526 576 542 524 558 561 569 547 579 534 586 561 504 551 583 565 563 552 603 598 604 634 639 576 605 622 595 643 646 578 668 683 713 603 687 699 698 694 735 734 720 765 803 790 778 791 806 820 838 871 844 908 819 922 882 897 931 911 884 854 920 864 885 908 909 887 883 881 886 850 801 836 791 845 810 784 782 796 770 768 746 786 752 738 819 693 777 842 745 719 717 705 723 687 694 729 664 678 700 655 639 660 563 603 635 641 607 638 580 556 589 600 611 625 599 590 563 562 610 549 598 553 570 569 600 547 588 590 585 555 551 507 579 602 543 584 582 579 524 596 584 550 560 546 575 534 548 533 560 548 529 559 551 576 561 534 590 571 540 555 525 573 572 563 554 580 535 555 559 583 575 587 569 566 596 597 632 550 626 566 629 588 622 616 649 710 640 700 663 641 653 714 684 670 671 677 749 716 660 685 728 682 729 699 697 746 724 696 732 709 678 704 674 686 743 688 701 663 667 730 685 706 669 608 649 681 643 685 627 642 640 706 697 658 654 635 680 632 627 614 608 626 617 598 607 609 627 650 597 616 616 578 562 622 595 619 620 605 636 614 615 631 600 637 588 604 612 593 580 635 574 609 602 570 660 589 619 619 621 603 572 634 628 588 626 624 560 537 622 570 592 566 608 573 605 537 526 561 584 583 579 564 596 548 512 546 555 517 532 543 579 551 548 560 594 542 580 549 546 571 483 510 505 529 490 527 561 506 557 548 573 511 523 532 515 525 534 525 514 481 537 510 500 506 505 510 534 530 541 486 517 510 515 504 470 549 562 529 508 543 484 507 520 526 567 547 540 537 507 506 504 536 507 560 498 536 485 527 499 482 482 478 493 504 513 490 522 519 546 522 548 540 518 503 517 507 511 544 505 495 512 567 514 548 477 511 501 527 528 577 479 522 481 519 442 528 472 494 513 504 529 491 505 511 509 530 495 491 474 480 495 527 518 483 465 497 514 501 483 481 483 530 488 528 512 507 496 498 544 532 507 540 469 459 543 519 524 528 521 491 516 467 521 527 517 525 503 496 533 529 521 455 537 461 478 511 530 484 474 494 475 487 457 510 491 505 521 506 535 522 524 516 457 523 535 501 505 535 528 484 494 532 537 509 497 569 499 493 503 509 494 533 518 521 588 551 482 602 491 517 497 565 542 515 486 544 487 529 515 504 523 523 480 459 540 508 440 538 469 505 486 470 475 491 514 476 523 475 520 499 558 479 514 515 502 455 469 485 467 466 521 474 468 482 510 475 498 522 492 514 518 502 500 528 503 536 478 525 518 541 518 529 522 516 527 516 494 496 538 489 496 551 503 498 492 498 516 536 517 541 498 511 501 527 548 526 549 520 509 531 517 516 494 555 505 558 520 550 504 521 529 540 470 510 517 494 493 540 489 505 554 501 507 548 510 520 523 503 516 537 474 538 515 504 579 572 564 473 527 512 509 543 518 565 482 509 532 529 554 496 518 575 605 576 570 535 575 547 533 610 550 583 587 582 594 578 583 631 554 583 639 589 571 603 590 646 628</counts>
			</dataPoints>
		</scan>
	</xrdMeasurement>
</xrdMeasurements>
