<?xml version="1.0"?>
<xrdMeasurements xmlns="http://www.xrdml.com/XRDMeasurement/2.3" xmlns:xsi="http://www.w3.org/2001/XMLSchema-instance" xsi:schemaLocation="http://www.xrdml.com/XRDMeasurement/2.3 http://www.xrdml.com/XRDMeasurement/2.3/XRDMeasurement.xsd" status="Completed" recordIdentifier="{065A3E0F-07A6-42A6-9132-0C8761EC734D}">
	<comment>
		<entry/>
	</comment>
	<sample type="To be analyzed">
		<id>GPSS_Li1p5Fe0p7V0p2Ta0p1Cl4_111825_691cd5d8f3837ac4a0a99fd6</id>
		<name></name>
		<preparedBy></preparedBy>
	</sample>
	<xrdMeasurement measurementType="Scan" status="Completed" sampleMode="Reflection">
		<usedWavelength intended="K-Alpha 1">
			<kAlpha1 unit="Angstrom">1.5405980</kAlpha1>
			<kAlpha2 unit="Angstrom">1.5444260</kAlpha2>
			<kBeta unit="Angstrom">1.3922500</kBeta>
			<ratioKAlpha2KAlpha1>0.5000</ratioKAlpha2KAlpha1>
		</usedWavelength>
		<incidentBeamPath>
			<radius unit="mm">145.00</radius>
			<xRayTube id="1010048" name="Empyrean Cu LFF HR (9430 033 7310x)">
				<tension unit="kV">40.0</tension>
				<current unit="mA">15.0</current>
				<anodeMaterial>Cu</anodeMaterial>
				<focus type="Line">
					<length unit="mm">12.0</length>
					<width unit="mm">0.4</width>
					<takeOffAngle unit="deg">6.0</takeOffAngle>
				</focus>
			</xRayTube>
			<sollerSlit id="21010002" name="Soller slits 0.04 rad.">
				<opening unit="rad">0.0400</opening>
			</sollerSlit>
			<mask id="22031000" name="Fixed mask 13 mm">
				<width unit="mm">9.00</width>
			</mask>
			<divergenceSlit id="22120001" name="Divergence slit 1°" xsi:type="fixedDivergenceSlitType">
				<distanceToSample unit="mm">50.00</distanceToSample>
				<height unit="mm">1.52</height>
			</divergenceSlit>
		</incidentBeamPath>
		<sampleMovement xsi:type="spinningSampleMovementType">
			<spinnerRevolutionTime unit="seconds">1.0</spinnerRevolutionTime>
		</sampleMovement>
		<diffractedBeamPath>
			<radius unit="mm">145.00</radius>
			<antiScatterSlit id="22090040" name="AS slit 9 mm (PIXcel)" xsi:type="fixedAntiScatterSlitType">
				<height unit="mm">9.00</height>
			</antiScatterSlit>
			<sollerSlit id="21020003" name="Large Soller slits 0.04 rad.">
				<opening unit="rad">0.0400</opening>
			</sollerSlit>
			<filter id="20030001" name="Large beta-filter Nickel">
				<material>Ni</material>
				<thickness unit="mm">0.020</thickness>
			</filter>
			<detector id="7010019" name="PIXcel1D-Medipix3 detector" xsi:type="rtmsDetectorType">
				<phd unit="keV">
					<lowerLevel>4.02</lowerLevel>
					<upperLevel>11.27</upperLevel>
				</phd>
				<mode>Scanning</mode>
				<activeLength unit="deg">5.542</activeLength>
			</detector>
		</diffractedBeamPath>
		<scan appendNumber="0" mode="Continuous" scanAxis="Gonio" status="Completed">
			<header>
				<startTimeStamp>2025-11-21T20:01:03-08:00</startTimeStamp>
				<endTimeStamp>2025-11-21T20:09:10-08:00</endTimeStamp>
				<author>
					<name>AutomatedUser</name>
				</author>
				<source>
					<applicationSoftware version="1.7b (136)">PANalytical Aeris Instrument Suite</applicationSoftware>
					<instrumentControlSoftware version="3.2.00000000 20240306">AERIS</instrumentControlSoftware>
					<instrumentID>950485</instrumentID>
				</source>
			</header>
			<dataPoints>
				<positions axis="2Theta" unit="deg">
					<startPosition>10.00943322</startPosition>
					<endPosition>99.99442286</endPosition>
				</positions>
				<positions axis="Omega" unit="deg">
					<startPosition>5.00471661</startPosition>
					<endPosition>49.99721143</endPosition>
				</positions>
				<commonCountingTime unit="seconds">12.495</commonCountingTime>
				<counts unit="counts">2680 2702 2674 2720 2770 2599 2744 2762 2690 2732 2688 2695 2648 2733 2664 2635 2677 2690 2809 2766 2763 2750 2715 2743 2709 2729 2760 2770 2779 2700 2696 2812 2781 2868 2688 2788 2724 2724 2756 2730 2797 2854 2671 2772 2716 2761 2790 2700 2820 2606 2774 2746 2833 2778 2767 2718 2851 2730 2773 2775 2722 2865 2907 2819 2678 2843 2909 2794 2794 2755 2778 2852 2819 2854 2828 2788 2848 2814 2871 2849 2890 2826 2903 2763 2757 2866 2889 2811 2934 2740 2939 2858 2838 2921 2875 2922 2879 2828 2869 2866 2910 2882 2873 2888 2968 2932 2902 3003 2887 2934 3025 2897 2872 2848 2998 2837 2954 2841 3011 2974 2965 2916 2864 2985 2868 2940 2868 2971 2892 2924 2917 2959 2968 3016 2883 2908 2933 2959 2932 2956 2955 2911 2887 2906 2897 3047 2981 3158 2906 3014 3050 2906 3065 3017 3039 3047 2975 2968 2962 3017 2944 2976 2961 3096 3056 2964 2999 3025 3030 2997 3027 2983 2990 3026 3026 3104 3092 3085 2995 2982 3041 3047 3047 3044 3025 2970 2993 3040 2941 2978 3124 3049 3021 3028 3077 2922 3049 3032 3123 3069 3057 3116 3115 3020 3081 3063 3034 3048 2992 3116 3132 3055 3165 3068 2983 2972 3047 3151 3015 3075 3125 3051 3067 2974 3002 3074 3054 3088 3069 3102 3064 3004 2991 3111 3102 3032 3026 2998 3078 3109 3012 3180 2920 2926 3027 3112 3063 3033 3017 3037 2896 3037 3026 3065 3017 3038 3043 3024 3002 3080 3068 2965 3062 2942 2976 2990 3018 2961 2951 3091 3104 3098 3016 3188 3161 3076 3040 3004 2937 3074 2924 3040 3071 3093 2957 3098 3078 3077 3079 3113 3125 3162 3068 3121 3130 3127 3061 3132 3206 3222 3076 3052 3132 3209 3158 3145 3135 3118 3088 3113 3174 3099 3161 3082 3090 3149 3031 3141 3178 3183 3132 3052 3183 3040 3129 3115 3192 3207 3158 3199 3196 3273 3272 3129 3154 3159 3197 3151 3190 3200 3087 3265 3189 3190 3248 3159 3120 3224 3212 3286 3307 3195 3352 3252 3349 3269 3372 3355 3242 3204 3285 3265 3235 3295 3330 3303 3334 3254 3369 3376 3273 3358 3370 3425 3275 3323 3288 3364 3343 3398 3432 3331 3298 3322 3394 3464 3493 3372 3425 3406 3436 3379 3420 3408 3464 3466 3552 3528 3476 3633 3564 3640 3631 3609 3467 3560 3625 3534 3668 3581 3550 3517 3651 3759 3747 3816 3759 3844 3924 3923 4026 3879 4052 4090 4178 4110 4273 4136 4221 4238 4214 4219 4270 4312 4315 4575 4522 4418 4470 4471 4607 4563 4832 4570 4803 4723 4707 4765 4872 4874 4695 4681 4761 4416 4426 4236 4242 4249 4118 4200 4107 4094 4022 4127 4044 3960 4007 3960 4027 3921 3966 3949 3972 3935 3960 3951 4046 3881 3894 3980 3972 3760 3817 3896 3843 4028 3847 3993 3766 3853 3885 3909 3841 3801 3799 3842 3915 3803 3815 3862 3827 3799 3769 3715 3802 3654 3604 3784 3638 3715 3736 3653 3637 3603 3631 3708 3625 3583 3666 3535 3618 3608 3587 3519 3635 3597 3505 3390 3419 3458 3508 3397 3658 3386 3546 3568 3456 3505 3459 3441 3525 3478 3492 3536 3407 3390 3400 3524 3429 3584 3404 3386 3432 3392 3386 3401 3382 3429 3367 3375 3357 3419 3332 3276 3375 3316 3395 3319 3320 3386 3421 3472 3305 3373 3348 3324 3294 3360 3391 3348 3380 3275 3292 3450 3470 3298 3335 3420 3237 3355 3363 3335 3317 3370 3271 3335 3330 3257 3348 3287 3299 3310 3272 3292 3362 3314 3228 3350 3251 3101 3272 3276 3225 3248 3340 3274 3171 3259 3221 3354 3326 3296 3250 3238 3270 3263 3270 3239 3178 3235 3330 3281 3314 3115 3303 3200 3310 3245 3254 3375 3228 3262 3238 3270 3236 3222 3356 3224 3293 3266 3229 3206 3202 3354 3203 3273 3300 3247 3140 3207 3312 3158 3299 3173 3246 3291 3112 3329 3164 3338 3162 3309 3288 3211 3161 3244 3238 3247 3323 3125 3220 3263 3184 3136 3258 3304 3204 3229 3144 3260 3261 3063 3202 3154 3144 3162 3273 3220 3271 3203 3153 3270 3159 3219 3067 3239 3253 3230 3132 3313 3213 3257 3084 3269 3122 3225 3212 3226 3139 3192 3139 3317 3248 3237 3146 3211 3175 3144 3238 3118 3272 3216 3169 3238 3188 3256 3106 3206 3173 3193 3192 3196 3194 3214 3068 3214 3119 3177 3141 3145 3144 3205 3204 3155 3227 3181 3217 3119 3165 3171 3101 3090 3145 3122 3053 3165 3282 3140 3233 3137 3183 3049 3132 3126 3101 3006 3088 3162 3171 3194 3123 3139 3061 3088 3145 3097 3069 3106 3108 3053 3160 3195 3135 3176 3193 3157 3068 3151 3125 3201 3184 3126 3193 3052 3164 3018 3063 3222 3103 3190 3080 3048 3130 3078 3152 3112 3182 3121 3083 3109 3127 3114 3164 3120 3092 3105 3203 3210 3113 3083 3129 3078 3136 3083 3212 3071 3112 3213 3135 3152 3095 3127 3115 3113 3092 3053 3059 3108 3130 3176 3051 3092 3132 3129 3109 3100 3175 3154 3164 3104 3083 3177 3061 2986 3089 3247 3067 3062 3064 3120 3067 2987 2996 3084 3016 3206 3144 3093 3220 3052 3038 2996 3122 3058 2955 3131 3175 2975 3026 3006 3051 2996 3071 3053 3042 3062 3133 3069 3101 3129 3065 3011 3030 3154 3011 3112 2979 3139 3092 2885 3092 2978 3160 3041 3108 2958 3043 3129 3089 2914 3037 2991 2985 3080 3074 2965 2908 3060 2930 3087 3013 2921 2935 2937 3044 3080 3006 3069 2983 3143 2922 2892 3062 3030 3069 3042 2989 2917 3013 3030 3026 3043 2993 2997 2911 2901 3038 2989 2993 3091 3073 2980 3008 2960 3038 3021 3061 3011 2892 2964 3000 2936 2991 3003 2996 2949 2979 3110 2940 3037 3028 3010 2938 2918 2946 2960 2931 2922 2896 3057 2995 3000 2970 2968 2865 2924 2981 2982 2966 2997 2948 2918 2955 2963 2942 2988 2991 2864 3003 2919 2900 2951 2879 3014 3062 2969 3042 2938 2954 2952 2953 3006 3005 2939 2920 3046 2975 3054 3038 2917 2999 2908 2965 2782 2967 3025 2853 3073 2980 2868 2879 3053 2965 3039 2908 2972 3041 2913 3019 2903 3016 2952 3009 2999 3060 3113 3086 2964 3066 2900 3022 2962 3034 2883 2947 2972 2902 2978 3062 2952 3041 3026 2934 2968 2978 2970 2977 2940 3024 2903 2989 3025 2965 3081 2877 3047 3048 3066 3031 2926 3019 3012 3082 3086 3072 3003 2963 3115 3088 2992 2984 2947 3015 3059 2931 3107 3105 2945 3055 3033 3009 3110 2980 2946 2975 3052 3039 2966 3056 3028 2988 2956 2940 2986 3017 2911 2993 2905 2874 3036 2990 3027 2965 3043 3035 3075 3065 3029 3077 2952 3000 3021 2966 2991 2919 2942 2994 2914 3010 2890 2942 2959 3045 2878 2901 2908 2981 2896 2973 3033 2899 2882 2979 2886 2999 2908 2889 2955 2914 2896 2830 2872 2845 2926 2909 2968 2838 2882 2929 2872 2855 2828 2967 2908 2945 2887 2892 2827 2941 2815 2865 2788 2781 2823 2881 2784 2868 2836 2892 2858 2799 2834 2811 2891 2772 2831 2831 2819 2799 2745 2760 2816 2802 2720 2760 2718 2641 2820 2693 2748 2739 2845 2747 2752 2793 2818 2693 2770 2633 2774 2760 2770 2717 2700 2727 2717 2733 2772 2710 2729 2731 2738 2737 2677 2663 2567 2697 2614 2673 2728 2635 2670 2674 2666 2628 2647 2679 2661 2773 2718 2622 2644 2658 2667 2648 2699 2623 2609 2596 2581 2556 2606 2521 2586 2599 2637 2678 2627 2662 2570 2675 2597 2583 2446 2589 2592 2656 2563 2582 2640 2565 2609 2616 2591 2532 2509 2574 2541 2534 2603 2523 2506 2506 2591 2611 2538 2585 2532 2517 2499 2541 2587 2621 2591 2555 2609 2514 2447 2470 2557 2524 2528 2537 2491 2522 2492 2521 2448 2449 2491 2547 2522 2579 2561 2516 2478 2426 2522 2500 2421 2462 2515 2492 2462 2490 2463 2504 2457 2409 2486 2479 2409 2429 2432 2442 2474 2523 2543 2413 2425 2504 2431 2406 2471 2497 2519 2561 2472 2403 2497 2397 2451 2568 2477 2494 2531 2455 2429 2483 2461 2470 2432 2496 2415 2417 2355 2435 2529 2520 2475 2558 2575 2465 2443 2469 2466 2367 2389 2503 2472 2431 2408 2426 2430 2456 2480 2479 2416 2446 2416 2469 2574 2379 2484 2464 2467 2532 2445 2423 2316 2431 2512 2491 2438 2501 2491 2444 2392 2300 2436 2422 2536 2482 2452 2387 2440 2448 2519 2513 2569 2462 2469 2444 2521 2430 2446 2499 2449 2568 2471 2373 2519 2456 2429 2519 2396 2441 2453 2507 2379 2433 2523 2404 2411 2454 2495 2366 2597 2483 2434 2394 2467 2470 2496 2465 2482 2429 2439 2493 2435 2377 2467 2403 2528 2417 2493 2475 2479 2450 2505 2442 2380 2483 2466 2512 2357 2567 2482 2456 2485 2473 2435 2409 2513 2471 2553 2440 2457 2498 2450 2383 2463 2525 2488 2468 2449 2426 2428 2497 2380 2425 2467 2418 2379 2436 2436 2428 2416 2431 2404 2391 2444 2395 2406 2333 2410 2335 2470 2436 2402 2484 2411 2517 2383 2505 2410 2448 2471 2441 2385 2402 2427 2433 2443 2377 2383 2321 2390 2416 2291 2363 2557 2409 2561 2483 2476 2436 2326 2333 2445 2351 2262 2314 2358 2391 2483 2335 2368 2456 2304 2443 2386 2395 2347 2341 2250 2276 2424 2366 2340 2276 2311 2265 2284 2267 2341 2342 2342 2298 2277 2276 2281 2286 2303 2262 2364 2293 2274 2279 2335 2336 2325 2250 2313 2389 2230 2290 2211 2194 2328 2331 2258 2263 2299 2329 2245 2294 2291 2276 2229 2335 2290 2264 2213 2263 2232 2296 2236 2263 2242 2283 2156 2179 2137 2222 2140 2322 2154 2288 2173 2232 2225 2254 2246 2175 2163 2143 2187 2265 2183 2248 2263 2164 2255 2210 2177 2141 2198 2217 2193 2148 2192 2270 2202 2135 2278 2205 2231 2239 2223 2268 2291 2348 2394 2277 2357 2419 2422 2461 2496 2636 2479 2561 2621 2502 2632 2756 2675 2768 2670 2761 2832 2880 2856 2876 2880 3031 2986 3078 3144 3063 3078 3125 3064 2878 2958 2938 2847 2835 2718 2731 2601 2583 2425 2462 2476 2374 2382 2262 2375 2297 2251 2240 2305 2191 2365 2349 2350 2201 2240 2255 2284 2228 2220 2164 2186 2186 2237 2190 2277 2216 2249 2144 2247 2157 2108 2152 2148 2138 2151 2212 2187 2146 2126 2194 2087 2223 2059 2084 2036 2150 2094 2082 2120 2082 2200 2075 2112 2111 2076 2039 2096 2077 2036 2110 2064 2120 2134 2102 2125 2096 2149 2223 2056 2124 2144 2211 2165 2126 2184 2211 2209 2383 2345 2414 2493 2565 2541 2690 2809 2810 2769 2924 3045 2991 3024 3141 3269 3387 3279 3345 3413 3593 3605 3776 3742 3949 3954 4005 4077 4070 4017 4076 3883 3874 3648 3655 3465 3377 3255 3065 3097 2885 2767 2735 2677 2652 2573 2451 2503 2492 2444 2391 2263 2309 2357 2254 2269 2274 2262 2283 2254 2186 2257 2173 2082 2234 2160 2098 2170 2170 2134 2192 2074 2099 2229 2148 2153 2200 2049 2146 2235 2094 2096 2104 2060 2064 2091 2040 1999 1978 2004 2009 2013 1922 1947 1994 2010 1991 1844 2028 1914 1959 2002 1877 2028 1879 1933 2059 1931 1938 1985 1927 1844 1982 1878 1893 1991 1866 1930 1936 1780 1910 1889 1891 1911 1873 1779 1946 1836 1918 1850 1910 1895 1860 1813 1858 1832 1911 1959 1888 1894 1938 1874 1860 1805 1950 1833 1847 1852 1839 1957 1936 1877 1927 1848 1884 1907 1827 1820 1869 1906 1810 1979 1855 1856 1910 1878 1847 1914 1827 1837 1850 1825 1892 1859 1866 1852 1847 1905 1861 1880 1851 1825 1783 1874 1819 1793 1818 1830 1904 1809 1834 1897 1914 1823 1718 1763 1804 1754 1902 1850 1896 1843 1878 1836 1759 1818 1832 1789 1846 1794 1770 1773 1780 1843 1729 1844 1830 1708 1838 1797 1814 1762 1787 1799 1749 1777 1718 1737 1832 1811 1832 1732 1796 1838 1789 1800 1753 1813 1796 1794 1824 1811 1808 1795 1843 1792 1789 1768 1761 1773 1751 1728 1716 1755 1788 1792 1776 1768 1748 1775 1902 1836 1853 1730 1752 1780 1806 1768 1730 1812 1841 1712 1765 1697 1800 1718 1768 1841 1757 1765 1857 1785 1816 1807 1792 1718 1775 1655 1847 1778 1821 1793 1808 1753 1810 1734 1795 1798 1795 1759 1736 1789 1778 1743 1733 1824 1688 1840 1827 1762 1710 1745 1746 1757 1797 1753 1819 1770 1792 1775 1704 1687 1696 1775 1849 1762 1780 1795 1756 1795 1766 1761 1777 1836 1802 1743 1739 1757 1729 1756 1801 1792 1820 1807 1793 1801 1799 1791 1702 1823 1762 1749 1824 1821 1852 1788 1823 1752 1707 1727 1872 1815 1740 1755 1790 1721 1773 1802 1736 1707 1825 1821 1737 1808 1785 1843 1844 1888 1845 1804 1788 1811 1832 1876 1788 1751 1853 1875 1862 1820 1813 1760 1827 1852 1834 1797 1784 1776 1741 1902 1775 1874 1903 1811 1866 1916 1841 1878 1844 1861 1866 1820 2003 1954 1935 1874 1982 1965 1986 1942 1971 1987 2024 2036 2000 2128 2083 2081 2191 2181 2231 2339 2509 2448 2571 2691 2781 2937 3069 3036 3391 3657 3797 4015 4150 4354 4619 4639 5032 5143 5256 5434 5759 5994 5990 6475 6745 6903 7185 7331 7817 7815 7998 8227 8117 8098 7960 7744 7441 7127 6905 6615 6273 6098 5585 5310 5001 4790 4427 4140 3757 3653 3545 3261 3295 3148 3088 3109 2963 2979 2855 2802 2822 2717 2765 2655 2631 2656 2634 2673 2667 2682 2559 2578 2581 2586 2544 2528 2545 2500 2262 2473 2300 2361 2400 2312 2336 2242 2213 2171 2194 2078 2144 2143 2119 2016 2067 1996 2013 1939 1917 1966 1945 1894 1886 1871 1854 1977 1841 1826 1840 1795 1843 1828 1835 1825 1820 1758 1825 1811 1798 1815 1777 1772 1769 1911 1835 1813 1808 1762 1728 1739 1692 1814 1836 1771 1805 1789 1715 1798 1806 1731 1787 1708 1737 1790 1767 1686 1678 1698 1730 1835 1764 1775 1799 1757 1803 1663 1710 1752 1715 1755 1647 1717 1727 1819 1738 1747 1713 1664 1702 1746 1719 1737 1790 1749 1706 1768 1726 1712 1675 1691 1648 1648 1774 1715 1665 1680 1725 1739 1649 1700 1663 1803 1720 1717 1643 1759 1737 1646 1772 1720 1676 1720 1707 1740 1784 1717 1789 1708 1710 1652 1694 1735 1677 1759 1713 1700 1703 1761 1760 1660 1699 1696 1720 1641 1691 1665 1692 1749 1750 1683 1670 1675 1733 1679 1730 1687 1738 1707 1687 1655 1720 1635 1694 1743 1735 1670 1692 1621 1686 1726 1714 1750 1692 1712 1738 1658 1643 1631 1729 1722 1690 1727 1662 1769 1757 1695 1702 1751 1698 1673 1599 1621 1751 1729 1681 1698 1731 1578 1641 1707 1659 1673 1688 1686 1715 1744 1723 1758 1688 1688 1690 1676 1638 1823 1667 1667 1743 1648 1759 1677 1705 1684 1626 1664 1576 1688 1650 1666 1664 1749 1750 1749 1663 1687 1709 1780 1757 1687 1713 1691 1736 1815 1689 1738 1742 1759 1756 1716 1703 1724 1739 1743 1731 1691 1712 1718 1741 1694 1643 1750 1627 1650 1686 1688 1664 1759 1702 1644 1639 1664 1685 1673 1639 1601 1638 1668 1790 1588 1689 1635 1666 1646 1740 1701 1614 1663 1687 1620 1727 1612 1709 1656 1617 1613 1730 1687 1629 1611 1596 1669 1649 1665 1654 1682 1564 1695 1655 1592 1601 1656 1620 1657 1636 1646 1664 1615 1660 1596 1582 1632 1606 1623 1563 1691 1629 1615 1622 1480 1628 1628 1633 1633 1620 1588 1633 1573 1687 1572 1548 1619 1594 1618 1594 1621 1610 1631 1631 1645 1600 1654 1635 1580 1607 1632 1586 1590 1645 1637 1636 1568 1598 1694 1628 1658 1573 1561 1606 1701 1608 1625 1583 1661 1623 1599 1663 1611 1618 1662 1660 1627 1677 1649 1581 1597 1517 1550 1605 1620 1533 1608 1650 1611 1630 1595 1595 1621 1675 1636 1637 1659 1538 1559 1593 1599 1629 1585 1565 1571 1565 1545 1638 1650 1646 1594 1720 1631 1496 1651 1670 1646 1563 1654 1620 1597 1601 1570 1580 1598 1516 1558 1652 1576 1580 1568 1621 1596 1607 1630 1573 1581 1633 1598 1608 1593 1657 1598 1605 1558 1581 1563 1575 1567 1618 1610 1594 1604 1533 1596 1564 1565 1657 1518 1591 1544 1589 1614 1578 1613 1633 1626 1616 1613 1578 1527 1625 1662 1561 1619 1528 1536 1646 1521 1579 1647 1630 1608 1606 1545 1591 1600 1528 1579 1535 1603 1581 1553 1641 1649 1542 1540 1681 1469 1545 1555 1622 1615 1606 1536 1630 1633 1597 1526 1591 1633 1597 1576 1587 1564 1637 1570 1547 1672 1579 1571 1674 1660 1632 1536 1584 1482 1663 1568 1621 1560 1587 1574 1652 1551 1627 1589 1582 1562 1629 1499 1618 1527 1542 1598 1617 1571 1609 1588 1628 1584 1629 1585 1618 1625 1630 1575 1548 1521 1597 1573 1610 1537 1622 1609 1666 1563 1529 1621 1579 1535 1534 1553 1546 1519 1607 1568 1587 1497 1525 1598 1586 1592 1530 1526 1518 1588 1592 1529 1601 1565 1625 1562 1649 1562 1598 1529 1593 1643 1598 1563 1615 1595 1521 1523 1520 1623 1562 1584 1543 1579 1641 1644 1591 1528 1591 1481 1585 1558 1552 1594 1574 1578 1579 1582 1614 1560 1570 1566 1570 1625 1560 1518 1534 1571 1604 1555 1512 1581 1596 1530 1606 1638 1554 1480 1573 1549 1567 1583 1526 1579 1604 1575 1600 1549 1543 1551 1500 1572 1551 1573 1492 1613 1593 1569 1577 1557 1504 1608 1537 1599 1521 1549 1540 1565 1578 1579 1567 1589 1568 1646 1564 1555 1553 1531 1578 1579 1608 1588 1561 1588 1564 1650 1530 1565 1579 1584 1638 1579 1573 1563 1558 1508 1585 1595 1547 1562 1604 1558 1589 1548 1591 1548 1528 1565 1581 1569 1541 1557 1511 1542 1536 1504 1577 1553 1528 1581 1551 1614 1563 1493 1507 1605 1561 1626 1536 1568 1588 1531 1643 1596 1536 1533 1579 1606 1485 1621 1549 1513 1552 1607 1593 1572 1561 1601 1560 1494 1568 1646 1452 1563 1529 1601 1515 1523 1528 1581 1543 1592 1523 1492 1504 1530 1525 1566 1529 1616 1490 1545 1532 1589 1531 1597 1590 1607 1506 1539 1580 1422 1570 1567 1587 1487 1533 1497 1628 1625 1544 1554 1555 1539 1560 1522 1655 1618 1515 1564 1570 1484 1510 1494 1557 1551 1556 1556 1520 1551 1564 1475 1628 1522 1605 1577 1610 1548 1583 1547 1512 1550 1562 1676 1677 1556 1475 1544 1500 1545 1560 1511 1537 1611 1646 1555 1490 1555 1511 1582 1671 1584 1603 1568 1593 1616 1591 1514 1640 1603 1594 1560 1574 1591 1494 1530 1598 1610 1534 1569 1502 1555 1511 1546 1548 1523 1596 1523 1555 1520 1619 1524 1571 1505 1584 1556 1617 1568 1586 1618 1565 1546 1544 1529 1501 1561 1564 1656 1554 1611 1608 1541 1548 1535 1511 1553 1596 1628 1559 1572 1577 1544 1540 1649 1635 1568 1669 1668 1639 1566 1631 1600 1669 1656 1757 1768 1822 1811 1787 1849 1801 1863 1776 1888 1913 2026 1950 2001 2024 2108 2121 2195 2202 2022 2156 2125 2229 2247 2290 2169 2205 2250 2208 2200 2213 2118 2095 2056 2044 1998 1971 1927 1836 1935 1883 1861 1773 1742 1846 1748 1693 1783 1704 1680 1797 1614 1705 1650 1725 1710 1638 1628 1602 1672 1625 1626 1583 1574 1628 1672 1693 1622 1616 1600 1638 1634 1604 1623 1590 1601 1597 1592 1558 1591 1556 1589 1525 1564 1518 1532 1564 1620 1646 1500 1570 1623 1552 1581 1522 1539 1556 1483 1564 1538 1494 1484 1524 1553 1568 1468 1450 1561 1597 1519 1567 1600 1508 1572 1537 1529 1562 1488 1490 1522 1442 1614 1509 1472 1564 1556 1543 1529 1544 1553 1519 1461 1575 1514 1536 1566 1530 1554 1507 1528 1465 1488 1537 1523 1547 1556 1550 1512 1538 1543 1536 1639 1494 1600 1541 1514 1559 1578 1601 1494 1521 1496 1515 1509 1544 1561 1579 1613 1534 1545 1519 1567 1527 1480 1510 1553 1606 1550 1560 1599 1582 1546 1601 1504 1524 1537 1511 1479 1523 1496 1511 1546 1551 1517 1431 1500 1511 1575 1581 1560 1548 1601 1544 1446 1469 1495 1611 1533 1545 1527 1506 1516 1488 1555 1509 1582 1607 1545 1527 1546 1511 1522 1505 1514 1566 1521 1531 1510 1574 1508 1506 1484 1542 1556 1586 1498 1524 1522 1486 1533 1555 1544 1491 1562 1543 1611 1589 1561 1636 1554 1599 1607 1579 1588 1581 1569 1522 1571 1581 1480 1583 1575 1589 1618 1528 1528 1536 1501 1579 1556 1555 1531 1506 1540 1476 1548 1532 1564 1619 1484 1543 1563 1551 1583 1625 1562 1548 1512 1577 1538 1542 1585 1623 1571 1604 1580 1493 1533 1501 1511 1501 1476 1529 1601 1593 1551 1558 1594 1568 1525 1513 1588 1539 1541 1541 1554 1488 1577 1599 1526 1605 1520 1588 1591 1584 1531 1558 1553 1556 1495 1566 1592 1560 1606 1615 1566 1605 1589 1619 1563 1549 1579 1564 1575 1606 1621 1571 1593 1551 1553 1599 1633 1592 1654 1574 1546 1547 1623 1540 1559 1626 1632 1579 1630 1596 1599 1610 1648 1612 1692 1679 1676 1542 1666 1673 1634 1671 1652 1760 1752 1677 1741 1747 1712 1755 1761 1834 1735 1916 1900 1916 1964 2016 2051 2296 2288 2527 2514 2700 2769 2930 2934 3013 3082 3271 3385 3588 3624 3857 3939 4257 4345 4549 4562 4767 4898 4977 5040 5215 5015 4919 4765 4812 4543 4383 4235 4075 4041 3913 3792 3734 3564 3402 3291 3206 3140 2843 2767 2661 2563 2475 2526 2371 2415 2328 2300 2257 2166 2133 2095 2131 2134 1999 2107 1982 2090 2061 2160 2005 2034 1937 2021 1912 1916 1918 1944 1921 1864 1926 1867 1809 1849 1826 1836 1760 1714 1751 1853 1737 1708 1679 1688 1649 1709 1722 1645 1665 1608 1701 1586 1594 1646 1595 1618 1652 1606 1678 1560 1568 1629 1592 1616 1568 1518 1586 1572 1531 1575 1595 1592 1531 1545 1602 1555 1556 1541 1595 1545 1492 1505 1545 1485 1582 1622 1501 1606 1571 1494 1522 1489 1518 1559 1499 1526 1562 1572 1531 1534 1625 1572 1598 1561 1629 1592 1554 1501 1540 1527 1532 1566 1471 1562 1505 1651 1598 1630 1560 1566 1479 1541 1614 1616 1555 1504 1440 1574 1510 1509 1571 1581 1480 1498 1527 1613 1477 1518 1477 1479 1494 1460 1506 1498 1549 1529 1448 1522 1474 1476 1539 1483 1507 1507 1614 1516 1579 1479 1571 1560 1556 1503 1527 1557 1509 1447 1485 1532 1607 1468 1524 1503 1537 1435 1573 1616 1614 1570 1593 1567 1664 1619 1629 1636 1628 1683 1651 1553 1657 1738 1775 1711 1741 1789 1710 1831 1891 1850 1823 1832 1915 1911 1967 1814 1932 1876 1885 1909 1839 1865 1837 1728 1814 1852 1739 1898 1779 1775 1820 1762 1727 1688 1720 1694 1680 1631 1655 1574 1635 1599 1635 1625 1630 1555 1554 1647 1542 1610 1611 1583 1604 1540 1576 1572 1552 1557 1539 1498 1581 1604 1573 1539 1483 1548 1555 1462 1509 1495 1573 1557 1488 1566 1491 1553 1546 1608 1494 1628 1565 1499 1570 1519 1505 1537 1484 1580 1525 1476 1511 1555 1501 1575 1471 1545 1520 1514 1505 1543 1541 1466 1426 1519 1462 1521 1574 1550 1494 1520 1424 1559 1459 1470 1464 1500 1421 1519 1477 1440 1482 1440 1457 1509 1495 1478 1463 1488 1494 1497 1497 1530 1530 1553 1522 1522 1576 1564 1541 1491 1481 1469 1503 1555 1500 1520 1516 1514 1527 1496 1592 1465 1506 1481 1569 1394 1433 1467 1515 1456 1556 1430 1523 1448 1479 1451 1472 1521 1489 1514 1501 1453 1494 1533 1503 1461 1423 1509 1511 1488 1475 1565 1438 1550 1457 1494 1465 1484 1492 1439 1523 1432 1508 1485 1545 1523 1460 1452 1465 1459 1546 1475 1425 1436 1572 1527 1447 1513 1563 1497 1530 1477 1447 1468 1525 1466 1480 1492 1452 1481 1505 1541 1510 1535 1477 1445 1462 1511 1534 1486 1472 1583 1461 1460 1481 1501 1435 1434 1440 1516 1505 1534 1548 1476 1470 1472 1488 1502 1446 1493 1478 1484 1516 1392 1609 1429 1486 1481 1411 1470 1455 1531 1485 1422 1460 1502 1458 1499 1487 1354 1395 1426 1493 1458 1486 1445 1461 1452 1441 1492 1527 1487 1423 1465 1482 1484 1489 1385 1416 1483 1434 1475 1469 1492 1450 1480 1470 1474 1471 1449 1482 1447 1486 1499 1455 1504 1431 1481 1491 1501 1445 1418 1461 1495 1415 1534 1521 1434 1473 1482 1453 1520 1521 1490 1470 1479 1553 1484 1445 1439 1529 1396 1399 1407 1532 1531 1500 1442 1487 1473 1503 1434 1476 1497 1476 1482 1569 1484 1556 1524 1519 1497 1490 1428 1488 1461 1475 1535 1488 1530 1455 1478 1458 1403 1411 1473 1472 1511 1437 1500 1432 1517 1410 1490 1521 1501 1498 1486 1484 1461 1474 1542 1417 1459 1492 1470 1450 1485 1434 1433 1467 1519 1519 1460 1395 1488 1498 1440 1484 1512 1478 1405 1378 1472 1433 1490 1389 1483 1496 1455 1445 1476 1405 1483 1491 1402 1474 1509 1474 1479 1473 1436 1415 1469 1498 1440 1438 1446 1455 1429 1461 1510 1421 1554 1436 1500 1493 1549 1566 1475 1454 1419 1448 1473 1487 1549 1502 1501 1397 1464 1425 1522 1512 1493 1492 1429 1481 1518 1366 1554 1437 1452 1461 1526 1443 1483 1407 1476 1426 1491 1529 1524 1464 1527 1467 1430 1440 1430 1447 1483 1441 1481 1439 1485 1424 1498 1472 1418 1511 1420 1531 1489 1485 1459 1461 1472 1413 1476 1493 1480 1493 1473 1413 1461 1463 1526 1492 1522 1404 1544 1548 1435 1460 1411 1479 1488 1417 1488 1435 1416 1452 1443 1424 1467 1456 1442 1416 1426 1366 1424 1488 1427 1428 1514 1532 1435 1468 1460 1406 1391 1494 1425 1433 1458 1467 1471 1507 1435 1576 1420 1485 1523 1442 1499 1502 1439 1485 1456 1440 1475 1509 1424 1584 1508 1517 1521 1435 1470 1507 1540 1549 1504 1511 1466 1517 1588 1539 1548 1474 1515 1472 1563 1453 1565 1505 1506 1643 1496 1506 1532 1533 1520 1529 1585 1536 1459 1512 1525 1528 1496 1498 1555 1544 1430 1510 1566 1482 1540 1500 1532 1480 1457 1451 1483 1490 1508 1530 1474 1521 1417 1495 1482 1537 1500 1464 1555 1526 1521 1525 1585 1621 1515 1619 1677 1658 1683 1599 1605 1600 1706 1698 1660 1721 1793 1771 1801 1894 1846 1824 1731 1811 1848 1856 1816 1895 1781 1722 1797 1782 1818 1840 1696 1734 1720 1686 1724 1686 1632 1736 1680 1623 1650 1615 1526 1644 1633 1698 1639 1520 1550 1598 1496 1580 1522 1591 1583 1512 1540 1591 1530 1460 1460 1478 1544 1518 1508 1508 1529 1525 1504 1572 1582 1509 1579 1534 1472 1568 1555 1507 1432 1479 1465 1452 1502 1366 1515 1433 1500 1377 1463 1405 1370 1449 1464 1467 1495 1468 1444 1446 1496 1441 1454 1467 1476 1503 1427 1455 1438 1483 1459 1419 1478 1435 1520 1445 1490 1490 1386 1407 1432 1477 1441 1412 1428 1500 1502 1527 1560 1424 1458 1477 1389 1467 1412 1474 1465 1420 1388 1403 1458 1505 1481 1524 1440 1438 1403 1405 1472 1523 1444 1460 1511 1410 1440 1462 1399 1431 1422 1408 1414 1460 1412 1359 1398 1453 1433 1525 1428 1387 1427 1428 1396 1455 1466 1474 1465 1400 1471 1422 1360 1442 1375 1417 1421 1422 1470 1496 1413 1390 1444 1472 1459 1538 1529 1471 1428 1432 1414 1463 1447 1444 1443 1437 1423 1463 1430 1417 1449 1419 1528 1395 1538 1417 1361 1390 1443 1504 1391 1490 1446 1434 1406 1416 1424 1466 1473 1374 1464 1425 1463 1416 1373 1450 1454 1377 1453 1459 1406 1453 1393 1438 1486 1474 1490 1449 1440 1499 1498 1483 1460 1462 1453 1500 1424 1492 1491 1484 1509 1556 1436 1500 1508 1566 1590 1590 1584 1588 1722 1603 1732 1668 1768 1810 1812 1830 1887 1955 1902 1992 1973 2009 2096 2100 2093 2226 2225 2275 2284 2294 2330 2257 2193 2139 2121 2103 2163 2037 1995 2119 2044 1989 1942 1946 1958 1913 1926 1881 1900 1804 1765 1822 1675 1707 1717 1680 1645 1603 1648 1605 1527 1635 1543 1584 1518 1587 1567 1593 1571 1554 1553 1570 1586 1564 1538 1551 1534 1549 1496 1535 1606 1470 1544 1582 1549 1538 1508 1431 1559 1512 1495 1504 1435 1504 1482 1512 1562 1470 1533 1400 1461 1515 1430 1459 1445 1458 1495 1497 1418 1476 1406 1390 1413 1385 1456 1398 1422 1420 1407 1461 1358 1446 1469 1376 1405 1460 1505 1394 1440 1412 1510 1391 1479 1503 1445 1406 1440 1439 1447 1368 1464 1442 1493 1442 1483 1374 1448 1400 1414 1360 1445 1405 1468 1485 1416 1402 1423 1433 1450 1406 1510 1391 1451 1346 1439 1414 1414 1459 1488 1441 1420 1394 1423 1479 1431 1416 1512 1442 1418 1480 1427 1430 1440 1395 1473 1349 1376 1433 1417 1457 1434 1461 1482 1470 1480 1498 1458 1421 1395 1497 1474 1428 1463 1444 1393 1496 1453 1490 1514 1551 1589 1571 1582 1512 1572 1603 1597 1621 1611 1605 1630 1611 1730 1601 1663 1639 1690 1632 1659 1602 1645 1598 1579 1546 1656 1601 1580 1535 1514 1561 1579 1538 1582 1570 1483 1549 1509 1547 1495 1459 1503 1456 1448 1512 1500 1537 1485 1460 1488 1487 1480 1493 1474 1490 1502 1477 1517 1468 1449 1440 1475 1430 1499 1490 1437 1420 1473 1430 1506 1497 1471 1373 1414 1423 1436 1439 1393 1350 1408 1444 1431 1423 1420 1502 1447 1423 1439 1414 1455 1393 1441 1452 1393 1448 1395 1396 1398 1417 1355 1352 1403 1435 1377 1388 1455 1378 1382 1424 1420 1457 1405 1420 1452 1386 1423 1414 1365 1285 1432 1450 1400 1399 1468 1446 1423 1397 1444 1430 1373 1444 1447 1402 1475 1382 1391 1426 1366 1479 1326 1405 1365 1331 1404 1363 1414 1346 1428 1459 1451 1466 1479 1398 1411 1436 1449 1413 1374 1372 1385 1438 1494 1337 1421 1456 1429 1441 1402 1329 1361 1391 1360 1401 1414 1350 1425 1424 1418 1405 1449 1478 1409 1377 1424 1405 1404 1422 1468 1448 1408 1486 1397 1390 1335 1419 1404 1377 1393 1348 1369 1438 1366 1398 1403 1345 1447 1388 1438 1400 1433 1420 1444 1479 1449 1360 1398 1412 1450 1407 1357 1437 1346 1413 1423 1389 1412 1437 1413 1458 1429 1368 1407 1432 1405 1374 1431 1394 1387 1406 1376 1379 1400 1378 1522 1422 1364 1409 1338 1388 1407 1347 1412 1344 1405 1411 1336 1437 1402 1406 1456 1427 1368 1484 1377 1406 1388 1421 1264 1371 1387 1428 1433 1396 1437 1473 1386 1416 1418 1428 1398 1514 1400 1416 1318 1392 1365 1382 1402 1366 1347 1400 1418 1379 1375 1440 1412 1431 1387 1406 1392 1403 1411 1468 1404 1372 1476 1425 1405 1411 1447 1402 1410 1365 1404 1334 1326 1420 1445 1420 1397 1419 1342 1400 1345 1367 1402 1380 1443 1381 1377 1385 1421 1430 1397 1379 1460 1369 1381 1401 1410 1391 1365 1427 1347 1404 1378 1377 1375 1439 1383 1395 1461 1354 1382 1384 1435 1449 1392 1350 1411 1421 1395 1388 1416 1342 1446 1351 1373 1354 1392 1410 1452 1523 1376 1393 1378 1387 1443 1429 1370 1371 1394 1381 1435 1419 1418 1376 1381 1418 1336 1449 1395 1389 1465 1366 1389 1381 1424 1388 1403 1396 1360 1428 1432 1386 1431 1439 1433 1413 1416 1460 1378 1450 1389 1355 1416 1341 1358 1363 1402 1402 1428 1340 1365 1359 1347 1401 1371 1444 1298 1480 1498 1427 1424 1413 1364 1388 1356 1374 1382 1507 1360 1443 1458 1315 1339 1457 1420 1405 1418 1385 1373 1403 1419 1462 1318 1433 1351 1354 1365 1407 1391 1323 1400 1382 1384 1385 1412 1399 1439 1326 1377 1399 1401 1375 1370 1403 1443 1412 1378 1405 1376 1411 1334 1381 1373 1319 1468 1403 1439 1427 1387 1437 1429 1457 1388 1431 1357 1389 1395 1435 1397 1392 1542 1520 1463 1441 1505 1413 1407 1473 1498 1434 1449 1406 1431 1464 1500 1505 1511 1581 1455 1608 1461 1566 1562 1475 1515 1490 1482 1423 1527 1447 1466 1452 1441 1498 1456 1425 1533 1468 1434 1374 1497 1466 1457 1477 1478 1422 1405 1482 1450 1488 1410 1456 1440 1426 1366 1405 1361 1464 1446 1480 1424 1417 1393 1403 1386 1466 1372 1342 1436 1430 1393 1430 1404 1424 1429 1439 1438 1373 1457 1426 1359 1417 1367 1388 1414 1465 1489 1396 1367 1354 1404 1453 1356 1418 1451 1391 1390 1476 1414 1344 1463 1392 1375 1376 1450 1412 1384 1382 1439 1357 1402 1411 1414 1327 1320 1413 1381 1400 1417 1401 1380 1352 1410 1346 1467 1431 1414 1387 1390 1380 1296 1434 1382 1366 1438 1385 1414 1400 1388 1415 1361 1430 1350 1354 1356 1410 1410 1309 1376 1418 1466 1426 1310 1366 1346 1332 1382 1429 1396 1405 1468 1396 1374 1434 1414 1423 1343 1320 1365 1335 1318 1434 1408 1365 1396 1409 1333 1366 1384 1398 1383 1397 1352 1443 1378 1376 1380 1381 1395 1395 1430 1347 1403 1416 1389 1423 1421 1411 1347 1378 1411 1440 1420 1424 1378 1417 1401 1364 1324 1343 1400 1439 1428 1370 1367 1432 1412 1382 1364 1423 1359 1394 1364 1421 1401 1407 1426 1369 1388 1378 1401 1384 1391 1380 1343 1434 1419 1397 1422 1384 1397 1387 1467 1432 1360 1425 1433 1369 1393 1425 1347 1404 1382 1452 1451 1346 1422 1422 1490 1412 1401 1455 1439 1462 1393 1400 1392 1381 1356 1391 1434 1333 1322 1352 1428 1407 1451 1389 1317 1403 1419 1417 1466 1394 1341 1380 1396 1400 1421 1460 1483 1371 1477 1402 1505 1423 1386 1410 1432 1364 1489 1447 1471 1428 1440 1565 1454 1550 1487 1556 1563 1545 1597 1634 1621 1626 1710 1600 1625 1671 1695 1766 1729 1709 1691 1718 1711 1717 1679 1659 1647 1661 1658 1660 1622 1624 1627 1570 1636 1582 1586 1525 1564 1615 1612 1691 1564 1593 1600 1544 1486 1509 1482 1486 1503 1497 1504 1517 1486 1439 1511 1415 1462 1480 1461 1434 1482 1504 1393 1456 1499 1454 1389 1339 1430 1463 1420 1488 1433 1417 1432 1469 1398 1392 1461 1410 1437 1387 1379 1432 1474 1440 1387 1402 1386 1424 1374 1412 1420 1430 1391 1356 1392 1447 1401 1421 1445 1405 1355 1404 1346 1389 1390 1421 1405 1417 1324 1400 1421 1371 1413 1385 1410 1373 1403 1378 1370 1307 1437 1425 1410 1351 1419 1379 1410 1460 1409 1399 1350 1417 1365 1399 1370 1397 1362 1403 1418 1414 1409 1368 1382 1326 1424 1392 1332 1398 1398 1418 1374 1368 1365 1388 1390 1384 1358 1406 1381 1452 1362 1353 1424 1383 1440 1395 1331 1360 1392 1427 1438 1372 1400 1392 1367 1377 1368 1381 1382 1398 1405 1340 1366 1403 1362 1300 1310 1432 1369 1313 1398 1441 1372 1355 1399 1447 1422 1377 1354 1438 1387 1353 1377 1402 1389 1373 1381 1407 1401 1390 1393 1402 1362 1353 1408 1368 1380 1466 1377 1420 1377 1388 1317 1400 1405 1406 1358 1373 1377 1425 1275 1333 1404 1340 1312 1448 1406 1360 1436 1381 1357 1445 1299 1305 1382 1413 1438 1370 1422 1415 1341 1349 1329 1364 1341 1342 1434 1379 1358 1349 1357 1384 1297 1359 1439 1419 1378 1468 1432 1343 1320 1332 1341 1406 1414 1400 1363 1382 1354 1402 1426 1422 1428 1340 1375 1367 1323 1394 1374 1392 1415 1361 1365 1383 1401 1394 1375 1425 1345 1385 1383 1338 1326 1389 1355 1387 1418 1309 1356 1328 1385 1321 1410 1387 1424 1406 1427 1410 1373 1378 1325 1427 1326 1398 1411 1399 1340 1358 1325 1441 1381 1328 1476 1375 1419 1334 1412 1407 1380 1398 1339 1299 1354 1384 1389 1429 1361 1391 1379 1436 1361 1308 1382 1430 1410 1330 1375 1426 1389 1287 1450 1381 1413 1394 1391 1380 1416 1368 1364 1390 1319 1410 1411 1344 1414 1469 1406 1402 1417 1459 1429 1440 1377 1412 1360 1404 1360 1373 1455 1423 1264 1377 1374 1374 1381 1346 1332 1441 1416 1355 1371 1389 1398 1368 1440 1403 1366 1347 1407 1365 1385 1398 1341 1333 1426 1403 1304 1442 1337 1409 1370 1402 1373 1375 1310 1366 1441 1392 1441 1381 1340 1460 1397 1418 1362 1446 1323 1464 1358 1326 1336 1334 1339 1353 1335 1435 1397 1363 1433 1394 1432 1343 1354 1340 1415 1442 1385 1377 1360 1409 1424 1340 1358 1362 1339 1374 1379 1362 1411 1393 1375 1414 1439 1413 1394 1391 1445 1425 1354 1336 1372 1368 1364 1416 1385 1352 1371 1456 1460 1375 1344 1436 1370 1379 1377 1317 1321 1356 1329 1401 1364 1396 1422 1397 1310 1440 1342 1389 1395 1374 1410 1472 1404 1309 1394 1453 1350 1440 1357 1378 1334 1350 1452 1339 1350 1327 1473 1405 1319 1373 1386 1450 1347 1407 1427 1353 1409 1400 1404 1442 1475 1401 1499 1361 1394 1364 1367 1353 1377 1419 1390 1454 1373 1352 1370 1459 1363 1462 1368 1328 1404 1417 1439 1369 1409 1312 1374 1335 1351 1319 1391 1415 1403 1373 1432 1372 1402 1409 1381 1408 1419 1358 1415 1440 1320 1477 1424 1327 1375 1418 1339 1346 1374 1471 1464 1494 1402 1352 1387 1398 1429 1400 1357 1436 1455 1396 1381 1469 1369 1327 1387 1371 1383 1377 1427 1432 1341 1364 1388 1368 1407 1402 1374 1413 1444 1365 1441 1408 1439 1364 1365 1368 1344 1403 1384 1350 1445 1421 1440 1407 1383 1435 1408 1486 1370 1357 1454 1369 1418 1334 1434 1475 1376 1398 1385 1353 1369 1405 1433 1336 1445 1496 1454 1420 1431 1470 1490 1433 1455 1497 1495 1430 1488 1467 1430 1472 1455 1538 1471 1537 1554 1526 1445 1532 1421 1441 1427 1415 1520 1469 1551 1418 1447 1394 1568 1508 1498 1432 1449 1472 1492 1481 1431 1416 1428 1455 1468 1507 1458 1402 1408 1495 1484 1365 1389 1458 1481 1422 1473 1452 1546 1474 1514 1463 1553 1502 1502 1530 1537 1440 1532 1526 1448 1546 1487 1529 1476 1541 1537 1495 1523 1461 1451 1466 1466 1514 1473 1481 1429 1447 1456 1513 1497 1491 1456 1460 1451 1444 1484 1500 1479 1473 1451 1426 1461 1427 1394 1469 1359 1419 1410 1488 1449 1338 1381 1424 1439 1422 1460 1447 1430 1433 1387 1440 1397 1393 1424 1470 1498 1397 1458 1351 1442 1415 1416 1391 1388 1372 1359 1351 1441 1346 1414 1452 1417 1428 1424 1429 1391 1413 1375 1500 1392 1402 1405 1360 1427 1337 1478 1391 1375 1479 1352 1369 1397 1447 1376 1424 1471 1334 1411 1441 1401 1367 1366 1379 1387 1350 1470 1478 1398 1380 1405 1389 1412 1404 1397 1432 1443 1410 1464 1353 1353 1421 1412 1404 1455 1394 1392 1426 1323 1426 1377 1510 1449 1449 1434 1417 1457 1403 1355 1397 1401 1441 1416 1369 1405 1376 1383 1373 1404 1501 1469 1476 1442 1411 1465 1446 1355 1396 1391 1423 1486 1395 1395 1367 1416 1352 1420 1378 1399 1428 1426 1373 1447 1481 1422 1411 1413 1416 1389 1446 1419 1411 1451 1381 1470 1512 1443 1430 1382 1395 1420 1446 1506 1407 1392 1469 1352 1468 1495 1372 1483 1426 1439 1476 1531 1429 1527 1489 1433 1506 1534 1496 1504 1482 1563 1627 1620 1615 1620 1632 1729 1689 1764 1781 1744 1758 1829 1958 1825 1905 1974 2006 2082 1998 2040 2090 2026 1993 2053 1947 1967 1949 1915 1886 1903 1946 1857 1843 1874 1857 1845 1913 1810 1792 1919 1907 1902 1766 1907 1898 1808 1862 1842 1788 1772 1726 1750 1662 1755 1650 1699 1622 1584 1581 1667 1593 1625 1664 1553 1564 1617 1577 1571 1542 1471 1564 1529 1526 1494 1530 1510 1455 1534 1463 1495 1493 1510 1495 1539 1446 1470 1450 1448 1487 1458 1471 1444 1509 1472 1403 1444 1413 1410 1434 1447 1418 1455 1411 1459 1419 1447 1400 1445 1427 1428 1424 1479 1421 1480 1407 1414 1476 1426 1400 1444 1374 1442 1436 1426 1510 1385 1414 1403 1428 1475 1454 1427 1390 1429 1436 1314 1372 1270 1408 1416 1354 1500 1407 1388 1417 1474 1415 1395 1487 1424 1424 1446 1415 1416 1375 1478 1454 1387 1374 1431 1402 1435 1445 1376 1438 1425 1445 1345 1478 1405 1487 1491 1412 1479 1385 1376 1460 1441 1444 1422 1423 1500 1465 1483 1504 1484 1452 1420 1448 1458 1429 1476 1408 1408 1431 1332 1470 1470 1423 1527 1400 1471 1477 1454 1489 1442 1423 1407 1417 1459 1500 1386 1458 1430 1423 1413 1457 1435 1462 1437 1437 1410 1402 1454 1416 1406 1462 1366 1303 1399 1446 1407 1394 1391 1457 1411 1433 1422 1406 1413 1402 1412 1386 1380 1445 1475 1462 1444 1420 1453 1431 1389 1386 1413 1435 1392 1403 1354 1440 1403 1398 1351 1359 1396 1436 1410 1368 1341 1332 1371 1386 1389 1419 1403 1388 1464 1440 1363 1405 1416 1450 1427 1298 1403 1440 1426 1402 1374 1418 1357 1332 1423 1409 1406 1409 1377 1455 1363 1320 1378 1359 1370 1405 1389 1378 1413 1385 1403 1367 1410 1392 1412 1359 1333 1401 1383 1398 1359 1375 1398 1433 1299 1320 1372 1377 1362 1312 1383 1385 1408 1440 1401 1426 1370 1445 1365 1334 1395 1379 1398 1430 1368 1404 1434 1372 1438 1292 1394 1349 1356 1326 1387 1373 1386 1427 1358 1394 1363 1373 1366 1356 1423 1449 1356 1371 1398 1435 1370 1365 1420 1376 1413 1362 1423 1449 1449 1372 1362 1399 1337 1454 1333 1377 1401 1302 1381 1482 1372 1394 1392 1327 1311 1440 1426 1424 1361 1370 1391 1262 1396 1421 1314 1380 1338 1399 1400 1390 1418 1413 1407 1369 1391 1408 1294 1363 1370 1375 1392 1367 1365 1408 1317 1375 1366 1380 1377 1365 1385 1379 1352 1434 1423 1396 1360 1417 1301 1361 1366 1404 1437 1439 1316 1361 1364 1420 1416 1306 1389 1447 1349 1345 1401 1370 1412 1468 1384 1361 1355 1418 1397 1332 1488 1422 1427 1416 1380 1338 1434 1385 1362 1398 1431 1345 1342 1400 1398 1441 1302 1490 1362 1369 1415 1398 1453 1422 1362 1434 1351 1387 1324 1304 1395 1391 1399 1436 1394 1458 1415 1318 1381 1371 1471 1357 1338 1324 1373 1398 1383 1370 1408 1364 1456 1336 1378 1346 1351 1410 1424 1356 1415 1403 1364 1334 1304 1382 1362 1422 1457 1386 1365 1389 1406 1436 1407 1265 1400 1397 1369 1400 1363 1412 1358 1426 1328 1404 1412 1437 1386 1366 1323 1316 1355 1365 1373 1335 1414 1370 1371 1361 1430 1310 1328 1399 1345 1349 1361 1422 1320 1328 1437 1468 1403 1377 1332 1357 1408 1405 1484 1363 1422 1463 1415 1349 1432 1370 1374 1401 1369 1406 1384 1398 1362 1361 1423 1397 1315 1365 1472 1431 1396 1349 1419 1347 1432 1429 1416 1400 1388 1407 1424 1462 1380 1373 1422 1395 1453 1380 1441 1445 1375 1417 1365 1410 1417 1401 1395 1399 1331 1473 1418 1412 1375 1431 1450 1380 1391 1416 1422 1365 1400 1371 1426 1424 1363 1353 1474 1461 1444 1471 1503 1429 1416 1397 1469 1456 1407 1445 1507 1413 1411 1491 1426 1450 1419 1527 1465 1550 1415 1391 1457 1420 1426 1444 1426 1450 1351 1469 1434 1496 1473 1352 1435 1443 1422 1492 1431 1421 1358 1478 1410 1439 1369 1460 1384 1390 1386 1402 1405 1374 1422 1387 1351 1411 1402 1368 1419 1428 1396 1448 1411 1415 1431 1425 1450 1360 1439 1400 1391 1456 1389 1435 1493 1346 1398 1488 1408 1481 1387 1415 1401 1403 1434 1417 1422 1381 1421 1374 1466 1388 1392 1415 1330 1406 1392 1431 1382 1412 1365 1362 1387 1435 1375 1368 1352 1336 1435 1389 1362 1334 1294 1445 1385 1447 1418 1396 1349 1384 1407 1340 1446 1355 1384 1368 1376 1403 1386 1341 1361 1382 1435 1397 1323 1321 1398 1333 1425 1402 1389 1428 1376 1399 1379 1399 1389 1389 1423 1381 1378 1349 1390 1382 1364 1421 1400 1401 1372 1372 1407 1308 1413 1415 1368 1310 1341 1377 1369 1368 1396 1442 1379 1366 1379 1409 1379 1436 1410 1396 1368 1419 1438 1443 1365 1380 1334 1403 1421 1455 1317 1414 1405 1375 1442 1350 1377 1377 1373 1385 1417 1412 1418 1345 1418 1431 1374 1356 1407 1412 1357 1439 1324 1452 1330 1344 1404 1374 1402 1440 1413 1399 1477 1348 1426 1404 1388 1453 1479 1393 1397 1385 1397 1404 1354 1426 1360 1324 1379 1457 1408 1363 1387 1405 1371 1415 1345 1357 1413 1411 1409 1368 1363 1344 1386 1431 1377 1326 1379 1349 1418 1409 1482 1402 1381 1417 1448 1430 1415 1414 1461 1519 1468 1509 1462 1426 1473 1453 1450 1437 1497 1488 1494 1510 1503 1540 1566 1624 1569 1609 1571 1650 1639 1659 1619 1731 1734 1774 1771 1740 1834 1905 1749 1850 1900 1853 1844 1847 1849 1828 1822 1848 1824 1758 1766 1655 1802 1674 1776 1644 1677 1675 1634 1676 1655 1682 1653 1713 1640 1713 1791 1680 1679 1714 1660 1610 1703 1644 1662 1664 1636 1598 1528 1485 1544 1539 1589 1488 1535 1518 1558 1466 1479 1510 1544 1445 1493 1539 1476 1532 1455 1456 1469 1372 1444 1411 1437 1450 1507 1434 1411 1473 1456 1402 1482 1427 1387 1493 1430 1449 1368 1409 1426 1418 1462 1465 1470 1459 1389 1414 1390 1447 1371 1478 1395 1411 1413 1524 1424 1338 1456 1408 1441 1461 1431 1454 1453 1383 1375 1398 1423 1395 1424 1455 1458 1384 1410 1373 1379 1398 1392 1478 1420 1370 1422 1405 1370 1390 1392 1481 1378 1383 1342 1473 1414 1381 1359 1398 1477 1404 1416 1349 1436 1356 1408 1413 1358 1325 1383 1446 1378 1411 1415 1436 1420 1373 1419 1328 1406 1318 1423 1444 1380 1401 1435 1420 1394 1363 1441 1403 1411 1356 1379 1461 1444 1406 1362 1440 1465 1499 1471 1389 1361 1404 1385 1440 1395 1416 1453 1391 1445 1381 1457 1418 1437 1428 1385 1376 1415 1369 1391 1373 1433 1421 1367 1426 1371 1412 1423 1415 1405 1421 1335 1395 1378 1416 1392 1364 1340 1467 1428 1430 1414 1394 1429 1418 1448 1399 1403 1324 1335 1430 1461 1365 1404 1439 1361 1437 1347 1448 1344 1355 1399 1343 1430 1394 1370 1400 1405 1387 1328 1418 1407 1410 1345 1408 1431 1398 1382 1367 1367 1351 1417 1378 1381 1342 1366 1348 1396 1337 1349 1373 1378 1351 1377 1424 1412 1403 1326 1370 1317 1514 1373 1348 1356 1362 1380 1433 1362 1288 1362 1390 1336 1381 1421 1341 1440 1380 1380 1361 1392 1368 1416 1299 1384 1389 1358 1403 1450 1400 1290 1350 1355 1364 1403 1376 1364 1359 1372 1359 1409 1408 1365 1431 1381 1426 1357 1365 1371 1373 1380 1405 1412 1400 1397 1322 1297 1453 1486 1378 1419 1478 1343 1394 1381 1363 1356 1376 1396 1373 1324 1429 1376 1361 1367 1382 1439 1390 1375 1396 1348 1429 1380 1381 1394 1433 1422 1371 1418 1431 1388 1366 1452 1395 1360 1413 1435 1338 1376 1407 1388 1352 1379 1375 1368 1388 1352 1383 1398 1348 1433 1347 1351 1318 1424 1377 1362 1380 1387 1391 1313 1395 1434 1386 1338 1437 1402 1368 1311 1415 1367 1403 1361 1307 1373 1454 1429 1417 1362 1429 1338 1402 1430 1313 1400 1363 1470 1435 1350 1436 1352 1398 1422 1409 1373 1394 1324 1358 1396 1355 1397 1391 1358 1396 1318 1380 1430 1397 1361 1357 1349 1359 1384 1445 1391 1292 1307 1404 1363 1413 1403 1350 1321 1392 1299 1395 1349 1390 1297 1383 1396 1337 1382 1391 1425 1388 1334 1379 1374 1459 1364 1396 1384 1436 1398 1381 1375 1395 1425 1365 1392 1400 1350 1362 1444 1377 1359 1312 1380 1303 1396 1319 1373 1402 1406 1432 1339 1398 1335 1353 1328 1397 1335 1324 1401 1349 1386 1410 1346 1385 1372 1474 1407 1344 1406 1400 1359 1419 1458 1408 1392 1357 1361 1347 1360 1395 1394 1375 1387 1435 1397 1353 1411 1382 1351 1388 1327 1438 1410 1376 1370 1427 1415 1401 1412 1404 1370 1463 1368 1390 1368 1362 1387 1394 1415 1372 1394 1350 1493 1380 1416 1348 1340 1322 1383 1323 1401 1370 1349 1400 1310 1337 1368 1385 1372 1357 1367 1416 1354 1362 1378 1354 1344 1396 1383 1367 1394 1371 1433 1373 1408 1395 1452 1371 1440 1348 1382 1403 1433 1381 1398 1365 1356 1384 1377</counts>
			</dataPoints>
		</scan>
	</xrdMeasurement>
</xrdMeasurements>
