<?xml version="1.0"?>
<xrdMeasurements xmlns="http://www.xrdml.com/XRDMeasurement/2.3" xmlns:xsi="http://www.w3.org/2001/XMLSchema-instance" xsi:schemaLocation="http://www.xrdml.com/XRDMeasurement/2.3 http://www.xrdml.com/XRDMeasurement/2.3/XRDMeasurement.xsd" status="Completed" recordIdentifier="{A930B6FA-B360-43A6-A308-E1B9F62F40ED}">
	<comment>
		<entry/>
	</comment>
	<sample type="To be analyzed">
		<id>GPSS_Li1p6Fe0p9Cr0p2Cl4_102325_68fa7650028f64128e25ed7c</id>
		<name></name>
		<preparedBy></preparedBy>
	</sample>
	<xrdMeasurement measurementType="Scan" status="Completed" sampleMode="Reflection">
		<usedWavelength intended="K-Alpha 1">
			<kAlpha1 unit="Angstrom">1.5405980</kAlpha1>
			<kAlpha2 unit="Angstrom">1.5444260</kAlpha2>
			<kBeta unit="Angstrom">1.3922500</kBeta>
			<ratioKAlpha2KAlpha1>0.5000</ratioKAlpha2KAlpha1>
		</usedWavelength>
		<incidentBeamPath>
			<radius unit="mm">145.00</radius>
			<xRayTube id="1010048" name="Empyrean Cu LFF HR (9430 033 7310x)">
				<tension unit="kV">40.0</tension>
				<current unit="mA">15.0</current>
				<anodeMaterial>Cu</anodeMaterial>
				<focus type="Line">
					<length unit="mm">12.0</length>
					<width unit="mm">0.4</width>
					<takeOffAngle unit="deg">6.0</takeOffAngle>
				</focus>
			</xRayTube>
			<sollerSlit id="21010002" name="Soller slits 0.04 rad.">
				<opening unit="rad">0.0400</opening>
			</sollerSlit>
			<mask id="22031000" name="Fixed mask 13 mm">
				<width unit="mm">9.00</width>
			</mask>
			<divergenceSlit id="22120001" name="Divergence slit 1°" xsi:type="fixedDivergenceSlitType">
				<distanceToSample unit="mm">50.00</distanceToSample>
				<height unit="mm">1.52</height>
			</divergenceSlit>
		</incidentBeamPath>
		<sampleMovement xsi:type="spinningSampleMovementType">
			<spinnerRevolutionTime unit="seconds">1.0</spinnerRevolutionTime>
		</sampleMovement>
		<diffractedBeamPath>
			<radius unit="mm">145.00</radius>
			<antiScatterSlit id="22090040" name="AS slit 9 mm (PIXcel)" xsi:type="fixedAntiScatterSlitType">
				<height unit="mm">9.00</height>
			</antiScatterSlit>
			<sollerSlit id="21020003" name="Large Soller slits 0.04 rad.">
				<opening unit="rad">0.0400</opening>
			</sollerSlit>
			<filter id="20030001" name="Large beta-filter Nickel">
				<material>Ni</material>
				<thickness unit="mm">0.020</thickness>
			</filter>
			<detector id="7010019" name="PIXcel1D-Medipix3 detector" xsi:type="rtmsDetectorType">
				<phd unit="keV">
					<lowerLevel>4.02</lowerLevel>
					<upperLevel>11.27</upperLevel>
				</phd>
				<mode>Scanning</mode>
				<activeLength unit="deg">5.542</activeLength>
			</detector>
		</diffractedBeamPath>
		<scan appendNumber="0" mode="Continuous" scanAxis="Gonio" status="Completed">
			<header>
				<startTimeStamp>2025-10-28T18:22:16-07:00</startTimeStamp>
				<endTimeStamp>2025-10-28T18:30:23-07:00</endTimeStamp>
				<author>
					<name>AutomatedUser</name>
				</author>
				<source>
					<applicationSoftware version="1.7b (136)">PANalytical Aeris Instrument Suite</applicationSoftware>
					<instrumentControlSoftware version="3.2.00000000 20240306">AERIS</instrumentControlSoftware>
					<instrumentID>950485</instrumentID>
				</source>
			</header>
			<dataPoints>
				<positions axis="2Theta" unit="deg">
					<startPosition>10.00943322</startPosition>
					<endPosition>99.99442286</endPosition>
				</positions>
				<positions axis="Omega" unit="deg">
					<startPosition>5.00471661</startPosition>
					<endPosition>49.99721143</endPosition>
				</positions>
				<commonCountingTime unit="seconds">12.495</commonCountingTime>
				<counts unit="counts">3387 3435 3538 3385 3573 3479 3374 3361 3431 3547 3488 3367 3465 3393 3432 3447 3518 3435 3452 3451 3568 3439 3559 3547 3464 3489 3451 3539 3551 3569 3618 3612 3538 3508 3588 3495 3701 3541 3573 3577 3567 3639 3607 3613 3715 3709 3664 3754 3736 3806 3707 3832 3756 3907 3974 3946 3968 3961 4059 4068 4089 4285 4295 4111 4201 4210 4330 4367 4426 4390 4372 4450 4563 4392 4429 4409 4385 4581 4431 4469 4484 4461 4336 4455 4377 4364 4321 4296 4112 4165 4142 4088 4178 4031 4106 4082 4063 4011 3924 4025 3962 3743 3799 3878 3881 3767 3834 3815 3883 3722 3850 3797 3728 3837 3804 3856 3779 3776 3748 3779 3678 3763 3820 3722 3726 3758 3638 3614 3732 3727 3782 3695 3753 3673 3723 3812 3819 3692 3765 3670 3738 3737 3710 3632 3670 3570 3703 3694 3809 3646 3731 3671 3743 3677 3830 3734 3737 3731 3715 3766 3754 3794 3664 3624 3448 3779 3703 3586 3671 3767 3635 3770 3788 3669 3606 3707 3607 3620 3623 3664 3718 3599 3600 3641 3627 3638 3646 3677 3627 3694 3641 3560 3700 3692 3719 3647 3731 3610 3685 3615 3637 3657 3761 3659 3649 3645 3693 3771 3498 3661 3572 3578 3661 3631 3628 3578 3732 3541 3608 3668 3606 3677 3553 3574 3585 3560 3547 3578 3607 3684 3606 3658 3521 3624 3530 3733 3510 3636 3593 3500 3622 3631 3525 3564 3600 3566 3532 3661 3606 3513 3554 3576 3566 3609 3550 3586 3538 3561 3569 3535 3621 3563 3614 3556 3566 3509 3552 3553 3562 3524 3521 3639 3616 3560 3497 3655 3563 3603 3584 3584 3644 3571 3525 3615 3580 3615 3752 3574 3586 3623 3687 3612 3664 3718 3642 3627 3731 3644 3624 3629 3654 3688 3629 3613 3617 3610 3602 3576 3783 3636 3720 3706 3684 3698 3630 3760 3800 3771 3597 3750 3767 3565 3621 3729 3747 3751 3693 3756 3682 3735 3796 3782 3806 3791 3803 3766 3954 3779 3810 3916 3769 3771 3978 3739 3794 3801 3883 3804 3841 3868 3795 3951 3943 3801 3904 3801 3905 3818 4012 3977 3921 3843 3987 3996 3944 3916 4084 3952 3965 3896 4049 3917 3890 4018 3825 3942 4032 3974 4001 3927 4031 3980 3923 4007 4065 4083 4004 4082 4148 3998 4020 4012 4151 3930 4191 4142 4187 4076 4046 4105 4148 4120 4165 4290 4110 4124 4168 4227 4226 4136 4347 4320 4288 4290 4257 4406 4333 4391 4333 4395 4420 4579 4485 4584 4572 4718 4754 4795 4775 4880 4944 5123 5030 5121 5315 5364 5491 5693 5635 5990 5986 6108 6228 6226 6552 6553 6725 6669 6763 6991 7043 7075 7123 7088 7182 7098 7293 7067 6924 6933 6837 6695 6690 6490 6318 6291 6269 6175 6114 5860 5986 5845 5800 5742 5685 5691 5329 5282 5229 5316 5190 5240 5131 5135 5018 5081 4962 4779 4753 4721 4795 4606 4651 4529 4394 4462 4346 4222 4418 4315 4211 4186 4147 4077 4064 3918 3993 3932 3905 3851 3806 3921 3687 3804 3721 3848 3668 3780 3716 3678 3763 3663 3716 3669 3621 3709 3570 3616 3694 3669 3714 3672 3658 3696 3693 3527 3742 3640 3789 3648 3595 3594 3635 3647 3603 3611 3649 3688 3476 3559 3527 3644 3612 3504 3535 3614 3632 3464 3384 3554 3581 3556 3545 3623 3564 3450 3550 3566 3451 3452 3459 3598 3448 3524 3478 3499 3363 3572 3480 3476 3503 3510 3452 3403 3375 3423 3396 3435 3361 3535 3476 3476 3417 3545 3398 3399 3312 3414 3337 3436 3347 3430 3368 3384 3414 3455 3475 3363 3414 3422 3475 3352 3343 3436 3410 3442 3331 3359 3324 3366 3376 3390 3525 3377 3271 3444 3360 3383 3384 3392 3375 3363 3379 3477 3454 3354 3436 3383 3509 3422 3473 3408 3363 3299 3494 3473 3548 3524 3468 3460 3438 3489 3443 3511 3459 3453 3462 3492 3502 3498 3573 3595 3627 3484 3442 3544 3554 3629 3492 3601 3545 3612 3539 3504 3549 3479 3552 3401 3370 3290 3388 3398 3345 3460 3417 3319 3333 3340 3275 3332 3349 3400 3355 3347 3382 3236 3350 3284 3313 3328 3269 3326 3289 3389 3098 3162 3259 3254 3188 3202 3227 3253 3206 3283 3244 3244 3246 3269 3250 3195 3303 3252 3201 3230 3147 3194 3310 3327 3146 3163 3260 3142 3221 3297 3192 3178 3200 3273 3305 3168 3252 3176 3138 3211 3229 3183 3162 3269 3039 3300 3216 3331 3181 3203 3217 3281 3178 3158 3188 3201 3202 3184 3252 3200 3235 3225 3157 3121 3240 3142 3211 3147 3232 3152 3174 3153 3176 3133 3184 3207 3190 3153 3138 3143 3235 3120 3076 3137 3082 3122 3079 3100 3107 3085 3257 2998 3112 3118 3032 3213 3119 3159 3119 3112 3093 3045 3034 3191 3215 3102 3100 3113 3078 3126 3253 3171 3156 3172 3072 3109 3084 3141 3131 3143 3017 3127 3043 3148 3113 3067 3087 3026 3101 3129 3112 2981 3142 3146 3102 3066 2960 3140 3001 3092 3096 3039 3047 3004 3156 3083 2975 3128 3024 3014 3078 3011 3052 3090 3040 2999 3105 3120 3038 3070 3001 3042 3014 2938 2947 2904 3059 3040 2928 2974 3015 2999 2950 3033 2966 2921 3020 3044 2950 3082 2981 2982 2997 3028 2999 2998 2915 3042 3007 3013 2973 2956 2960 2960 3050 3033 2942 3125 2894 2914 2939 2978 2997 3053 3002 2852 2948 3080 2970 2965 3010 2969 2862 2984 2878 2923 2935 2903 2940 3048 2960 3001 3003 2926 2903 2999 2912 2920 2912 2999 2983 2870 2896 2841 2837 2873 2966 2941 2940 2969 2890 2979 2929 3000 2839 2948 2955 2875 2945 3031 2970 2907 2813 2937 2914 2947 2944 2970 2971 2896 2953 2906 2861 2853 2874 2923 2945 2855 2940 2873 2943 2968 2825 2863 2840 2916 2939 2866 2878 2991 2829 2964 2929 2905 2844 2804 2880 2905 2952 2945 2800 2822 2876 2915 2887 2883 2925 2891 2956 2890 2940 2896 2897 2864 2840 2860 2867 2951 2850 2939 2816 2835 2939 2967 2809 2982 2984 2910 2985 2871 2963 2859 2931 2894 2965 3031 2883 2924 2827 2888 2997 2827 2746 2849 2974 2865 2916 3037 2873 2933 2863 2981 2935 2929 2947 2891 2912 2959 2901 2969 2922 3017 2958 2847 2945 2869 2938 2990 2833 2855 2907 3023 2852 2958 3020 2875 2793 2912 2935 2927 2808 2972 2900 2930 2784 2835 2909 2919 2889 2868 2870 2767 2888 2858 2916 2840 2903 2976 2872 2871 2941 2895 2964 2866 2789 2892 2934 2883 2851 2845 2882 2830 2885 2917 2983 2892 2832 2814 2888 2873 2860 2917 2777 2900 2829 2810 2774 2832 2819 2751 2899 2834 2747 2748 2856 2766 2707 2772 2789 2838 2820 2763 2778 2800 2705 2744 2681 2624 2831 2809 2822 2783 2790 2696 2721 2697 2678 2719 2731 2718 2696 2755 2709 2748 2747 2752 2613 2625 2713 2710 2669 2726 2774 2655 2712 2588 2618 2585 2680 2639 2652 2646 2577 2662 2598 2614 2600 2569 2589 2655 2638 2549 2575 2667 2578 2537 2551 2629 2559 2587 2640 2547 2543 2403 2527 2621 2593 2626 2461 2465 2433 2406 2510 2534 2533 2678 2432 2472 2382 2496 2472 2504 2429 2456 2472 2357 2394 2454 2414 2489 2424 2411 2411 2445 2419 2418 2371 2461 2399 2439 2397 2413 2380 2326 2488 2365 2401 2363 2358 2357 2359 2345 2392 2207 2394 2356 2265 2390 2301 2430 2271 2431 2391 2395 2284 2212 2210 2274 2241 2245 2383 2295 2344 2328 2331 2399 2260 2287 2325 2355 2256 2313 2286 2306 2243 2228 2379 2274 2317 2252 2295 2334 2294 2240 2185 2316 2288 2229 2323 2275 2266 2181 2224 2261 2256 2217 2204 2275 2221 2292 2182 2271 2268 2305 2225 2289 2304 2189 2345 2215 2282 2340 2315 2299 2218 2301 2309 2253 2302 2320 2289 2244 2386 2258 2379 2267 2280 2331 2373 2404 2355 2352 2366 2398 2326 2362 2409 2294 2258 2263 2290 2340 2214 2334 2250 2313 2255 2333 2272 2283 2212 2330 2260 2247 2303 2242 2184 2204 2187 2147 2186 2126 2192 2174 2206 2198 2182 2164 2246 2304 2184 2180 2178 2248 2162 2231 2146 2127 2282 2198 2206 2105 2179 2189 2210 2153 2206 2210 2216 2211 2193 2249 2244 2161 2119 2227 2097 2113 2091 2152 2185 2186 2207 2237 2184 2193 2214 2217 2163 2124 2114 2192 2180 2116 2080 2166 2127 2136 2251 2229 2250 2221 2099 2179 2165 2177 2224 2172 2216 2155 2170 2228 2129 2229 2133 2327 2154 2124 2187 2122 2185 2171 2214 2157 2178 2156 2200 2141 2141 2080 2197 2181 2159 2175 2159 2136 2148 2199 2162 2162 2174 2197 2210 2083 2168 2272 2183 2186 2203 2239 2150 2153 2142 2083 2173 2234 2180 2135 2186 2166 2206 2186 2174 2159 2224 2110 2156 2235 2143 2099 2196 2134 2157 2186 2145 2233 2107 2122 2105 2122 2106 2181 2084 2175 2141 2061 2089 2175 2103 2110 2158 2065 2136 2114 2123 2097 2167 2074 2084 2143 2111 2116 2239 2038 2124 2139 2058 2070 2136 2005 2149 2050 2147 2110 2130 2022 2055 2030 2074 2045 1995 2012 1997 2159 2053 2026 2072 2124 2053 2105 2042 1963 2011 1997 2029 1987 1998 1959 2041 2007 1998 1946 1998 1979 2010 2007 2014 1943 2034 1989 2047 1990 1896 1942 1940 1941 1989 2021 2013 1860 1906 1866 1926 1940 1932 1939 2005 1825 1870 1934 1964 2004 1856 1929 1859 1931 1925 1834 1931 1838 1832 1854 1826 1923 1910 1839 1992 1908 1923 1860 1870 1927 1930 1865 1878 1803 1779 1917 1889 1832 1852 1860 1818 1857 1896 1796 1802 1857 1814 1883 1848 1812 1823 1954 1765 1774 1774 1780 1862 1843 1847 1761 1855 1804 1823 1845 1786 1747 1795 1855 1927 1844 1803 1870 1789 1845 1807 1706 1840 1763 1805 1792 1769 1750 1772 1742 1749 1839 1810 1818 1734 1795 1788 1768 1858 1753 1728 1749 1807 1807 1759 1805 1810 1857 1778 1850 1758 1854 1835 1876 1893 1778 1879 1884 1906 1952 1914 1919 1953 1934 1919 2024 1958 1954 2007 1995 2059 1925 2054 2008 2026 2120 2099 2137 2092 2119 2093 2221 2200 2140 2194 2081 2108 2162 2056 2126 2184 2166 2021 2076 2124 2148 2026 2067 2040 1997 2031 2060 2008 1936 1948 1948 1947 1917 1935 1966 1937 1810 1801 1811 1824 1778 1819 1764 1738 1813 1746 1715 1831 1755 1719 1761 1694 1750 1754 1610 1703 1632 1708 1691 1673 1750 1729 1720 1733 1739 1707 1614 1689 1602 1626 1718 1641 1667 1673 1706 1624 1661 1625 1681 1631 1653 1696 1669 1586 1616 1718 1729 1651 1637 1755 1747 1796 1697 1754 1726 1753 1748 1840 1856 1829 1908 1869 1962 1960 1945 2073 1986 1966 2050 2097 2158 2115 2254 2194 2180 2391 2330 2403 2416 2471 2462 2422 2417 2527 2545 2541 2526 2663 2614 2618 2604 2566 2476 2532 2482 2509 2499 2431 2432 2401 2311 2396 2346 2321 2345 2212 2151 2172 2106 2052 2113 1963 1994 1917 1789 1817 1862 1833 1733 1640 1724 1686 1651 1778 1607 1623 1510 1572 1548 1621 1515 1628 1645 1562 1562 1528 1541 1533 1583 1561 1598 1597 1512 1604 1605 1625 1655 1570 1633 1674 1710 1665 1686 1630 1655 1629 1674 1664 1649 1725 1634 1539 1696 1669 1608 1605 1529 1562 1683 1578 1591 1549 1595 1554 1564 1635 1531 1558 1533 1464 1562 1512 1507 1509 1480 1544 1450 1371 1496 1459 1445 1441 1469 1539 1460 1471 1441 1529 1483 1403 1477 1420 1459 1445 1515 1415 1480 1472 1409 1514 1481 1488 1424 1419 1429 1397 1467 1417 1458 1465 1417 1438 1446 1480 1535 1433 1419 1386 1409 1395 1532 1452 1464 1383 1419 1423 1476 1479 1471 1392 1435 1451 1386 1451 1474 1454 1502 1505 1596 1399 1465 1409 1445 1357 1566 1374 1458 1476 1419 1367 1422 1448 1423 1413 1445 1416 1472 1410 1494 1381 1392 1369 1386 1406 1405 1417 1394 1467 1358 1424 1460 1393 1418 1396 1413 1432 1398 1430 1442 1415 1458 1451 1377 1491 1458 1457 1407 1471 1392 1474 1369 1441 1425 1389 1469 1404 1380 1393 1485 1414 1389 1458 1471 1414 1455 1385 1452 1403 1356 1352 1388 1452 1435 1477 1432 1451 1412 1397 1473 1512 1531 1460 1454 1544 1513 1474 1456 1474 1424 1456 1462 1503 1539 1489 1416 1502 1592 1488 1519 1496 1561 1344 1502 1475 1466 1533 1497 1427 1465 1468 1395 1469 1504 1521 1485 1500 1396 1485 1438 1463 1491 1522 1449 1503 1425 1477 1451 1445 1457 1446 1484 1450 1441 1463 1393 1437 1392 1415 1511 1450 1461 1384 1448 1456 1493 1422 1402 1466 1414 1435 1401 1397 1464 1495 1422 1474 1481 1494 1458 1501 1445 1524 1458 1508 1544 1445 1542 1526 1547 1587 1548 1512 1534 1507 1495 1522 1510 1561 1615 1501 1538 1510 1513 1583 1439 1579 1464 1491 1562 1528 1440 1414 1512 1519 1567 1524 1495 1474 1458 1436 1548 1503 1476 1456 1464 1528 1480 1471 1422 1492 1478 1462 1492 1420 1433 1425 1508 1465 1428 1489 1548 1472 1445 1478 1441 1416 1452 1536 1586 1482 1518 1448 1512 1587 1585 1581 1697 1586 1703 1728 1793 1792 1823 1909 1966 2069 2128 2082 2206 2263 2286 2404 2439 2537 2661 2689 2723 2749 2846 2842 2999 3071 3132 3223 3258 3390 3370 3352 3452 3500 3496 3660 3601 3573 3627 3593 3595 3774 3696 3588 3629 3599 3480 3478 3331 3567 3357 3306 3355 3364 3224 3104 2979 2957 2930 2826 2815 2748 2642 2522 2580 2508 2429 2295 2238 2183 2160 2084 2027 1963 1974 1873 1845 1811 1776 1809 1672 1589 1625 1558 1615 1538 1500 1475 1456 1490 1465 1498 1459 1447 1414 1458 1389 1459 1399 1444 1388 1374 1342 1373 1385 1390 1321 1400 1369 1443 1344 1332 1348 1328 1301 1357 1343 1221 1313 1328 1389 1330 1361 1354 1245 1347 1327 1291 1235 1340 1236 1299 1371 1330 1263 1264 1306 1337 1266 1290 1383 1321 1306 1313 1277 1274 1253 1255 1297 1297 1306 1292 1356 1294 1285 1331 1305 1253 1280 1379 1240 1304 1346 1278 1285 1319 1264 1303 1237 1291 1270 1224 1276 1287 1275 1229 1292 1268 1226 1306 1252 1244 1215 1254 1275 1327 1268 1323 1276 1293 1317 1293 1248 1269 1242 1229 1301 1268 1271 1267 1306 1246 1320 1216 1329 1277 1248 1313 1275 1230 1287 1183 1284 1237 1272 1187 1236 1240 1246 1242 1213 1280 1207 1270 1216 1200 1255 1235 1159 1331 1213 1186 1203 1220 1238 1210 1266 1215 1218 1239 1249 1187 1236 1229 1268 1279 1239 1232 1261 1206 1282 1214 1284 1205 1225 1254 1181 1220 1168 1197 1201 1284 1167 1210 1197 1191 1150 1227 1198 1234 1210 1244 1211 1182 1206 1182 1251 1183 1183 1260 1220 1188 1222 1228 1205 1206 1286 1189 1251 1213 1215 1210 1259 1209 1198 1167 1183 1153 1160 1280 1278 1230 1219 1214 1164 1182 1132 1202 1167 1250 1179 1215 1225 1233 1234 1274 1151 1213 1267 1250 1227 1193 1228 1166 1208 1190 1193 1241 1206 1161 1184 1285 1224 1228 1243 1248 1220 1242 1229 1249 1296 1269 1223 1266 1288 1268 1282 1245 1217 1245 1261 1215 1182 1252 1227 1226 1209 1257 1212 1228 1248 1235 1262 1147 1250 1154 1283 1246 1221 1234 1237 1223 1184 1194 1238 1300 1173 1203 1186 1217 1174 1232 1161 1188 1186 1176 1148 1168 1194 1139 1171 1181 1190 1184 1250 1102 1197 1153 1165 1190 1126 1185 1260 1181 1121 1212 1236 1193 1141 1162 1214 1187 1127 1112 1168 1142 1121 1204 1166 1198 1147 1166 1243 1176 1212 1197 1246 1160 1188 1150 1186 1223 1171 1181 1119 1208 1153 1230 1237 1239 1163 1158 1231 1197 1202 1185 1243 1143 1180 1239 1188 1228 1222 1174 1207 1176 1219 1181 1137 1175 1185 1123 1166 1165 1154 1189 1169 1142 1153 1190 1154 1109 1080 1126 1190 1194 1127 1140 1147 1058 1162 1179 1141 1158 1165 1080 1195 1144 1135 1207 1185 1103 1122 1112 1153 1167 1136 1180 1168 1151 1171 1126 1202 1126 1117 1168 1114 1126 1137 1096 1146 1140 1153 1138 1155 1162 1106 1102 1122 1081 1130 1132 1119 1135 1113 1127 1164 1092 1097 1108 1110 1147 1178 1172 1133 1138 1114 1093 1148 1085 1139 1145 1162 1090 1125 1113 1137 1136 1098 1105 1069 1119 1122 1134 1082 1126 1066 1140 1188 1110 1075 1159 1156 1174 1101 1163 1138 1154 1140 1080 1093 1153 1157 1096 1176 1160 1148 1149 1082 1164 1154 1122 1123 1134 1105 1080 1131 1143 1154 1144 1122 1093 1137 1114 1161 1239 1132 1204 1158 1077 1153 1117 1092 1145 1151 1157 1136 1186 1140 1141 1128 1096 1160 1142 1128 1108 1155 1104 1144 1180 1033 1045 1200 1101 1089 1114 1183 1141 1135 1156 1224 1097 1118 1161 1161 1094 1129 1124 1140 1137 1180 1101 1095 1080 1134 1083 1142 1127 1177 1156 1144 1110 1119 1119 1105 1147 1088 1093 1205 1065 1129 1153 1143 1103 1165 1117 1085 1104 1098 1105 1090 1110 1137 1063 1065 1095 1022 1079 1105 1054 1131 1093 1166 1078 1086 1081 1097 1037 1125 1143 1064 1063 1113 1061 1079 1071 1063 1145 1076 1093 1057 1083 1094 1045 1111 1122 1099 1015 1130 1101 1120 1079 1023 1113 1086 1090 1122 1176 1071 1122 1086 1090 1109 1126 1126 1133 1040 1061 1135 1120 1074 1141 1066 1150 1121 1051 1099 1070 1093 1088 1103 1128 1143 1070 1136 1039 1175 1096 1113 1000 1038 1124 1099 1115 1072 1129 1091 1092 1114 1056 1090 1098 1140 1101 1049 1129 1088 1137 1056 1094 1118 1125 1122 1143 1117 1072 1091 1092 1156 1094 1038 1089 1039 1169 1107 1039 1086 1081 1131 1139 1144 1104 1111 1146 1115 1123 1113 1118 1165 1050 1104 1124 1107 1124 1150 1142 1104 1105 1112 1074 1098 1126 1116 1049 1088 1095 1121 1066 1068 1096 1062 1092 1075 1113 1094 1085 1061 1055 1105 1094 1027 1037 1067 1101 1058 1106 1071 1061 1068 1071 1049 1147 992 1104 1053 1084 1134 1092 1134 1101 1018 1064 1048 1050 1036 1113 1081 996 1037 1008 1075 1080 1112 1035 1088 1032 1156 1025 1030 1059 1046 1095 1003 1073 1040 1063 1093 999 1016 996 987 1052 1019 1084 1060 1043 1053 1117 1062 1032 1052 1043 1037 1040 1017 1068 1047 1133 1080 1010 1078 1035 1042 1043 1046 1111 1060 1051 1128 1022 1073 1095 1080 1068 1087 1040 1025 1085 1056 990 1143 1071 1091 1046 1017 1103 1052 1085 1021 1093 1085 1041 1003 1010 1067 1046 1103 1079 1052 1076 1094 1005 1087 1072 1067 1033 1015 1069 1072 1023 1063 1040 1109 990 1072 1049 1028 1101 1035 1075 1040 1043 1075 1090 1121 1080 1103 991 1075 1117 1080 1078 1061 1114 1020 1048 1045 1048 1083 1057 1009 1087 1064 1038 1076 1070 1063 1040 1150 1011 1068 1074 1083 1066 1023 983 1123 1068 1080 1081 1033 1147 1153 1032 1119 1085 1063 1096 1125 1106 1109 1136 1099 1126 1118 1149 1141 1133 1173 1184 1204 1178 1209 1167 1173 1201 1220 1224 1186 1200 1245 1192 1196 1197 1275 1254 1258 1248 1274 1213 1267 1244 1214 1254 1283 1276 1234 1214 1185 1269 1243 1291 1281 1196 1235 1193 1204 1195 1201 1164 1219 1131 1145 1171 1175 1108 1153 1170 1121 1118 1192 1120 1088 1117 1130 1118 1158 1184 1073 1119 1063 1103 1082 1134 1072 1066 1123 1112 1083 1103 991 1071 1038 1066 1080 1062 1100 984 1000 1027 1110 1006 1097 1112 1060 1038 1081 1028 1040 1072 1023 1076 1068 1026 1091 1010 1012 1027 1036 1063 1087 1047 1067 1069 1031 1025 1081 1060 1015 1033 1065 1067 1023 1031 1012 1031 1037 1050 1024 1071 973 1044 1034 1052 1011 1056 1018 1041 1038 1061 1048 1034 1026 1045 1075 1082 1043 1021 1044 1060 1053 1044 1034 1094 1008 1033 1061 1027 997 1086 1030 1022 1141 1028 1011 1042 1052 1065 1051 974 986 1010 1074 1024 1066 1013 1064 1048 989 1052 995 996 1036 1039 1062 1047 982 1004 1017 1071 1042 1032 1057 1032 1003 991 989 983 1032 937 1012 1066 1031 1051 1007 1037 990 1017 1080 1041 1042 1032 1022 1014 964 1001 1044 1034 1015 992 1048 1067 986 1055 1023 1047 961 973 1026 1026 994 975 1011 987 997 963 990 991 1008 1008 1038 1042 1053 1069 1050 1011 1063 952 1056 997 1012 1037 992 1007 1005 989 1067 1034 984 1001 976 1063 988 989 981 986 993 1043 1025 988 1017 1043 1018 1028 991 974 1037 1038 1045 1053 1027 975 1023 1012 981 1042 1009 989 1015 974 1031 1017 989 978 996 962 1015 1049 991 1021 1015 982 1003 989 1065 998 1040 1058 1020 1049 958 1026 948 1041 997 993 1016 965 914 1056 1018 998 1029 949 1068 966 990 958 962 1050 1034 1080 1002 986 992 1049 941 1029 1011 994 1033 961 1007 1026 967 1026 1095 1023 1005 1012 1004 973 1018 1032 971 1001 1037 1012 1074 1047 1009 1017 1006 968 1035 995 1046 997 1007 1033 1032 987 1118 1097 1068 1041 1078 1044 1046 1091 1029 1086 1114 1063 1066 1134 1142 1212 1144 1209 1173 1215 1233 1206 1235 1289 1353 1322 1425 1382 1443 1389 1381 1438 1497 1484 1530 1541 1561 1546 1577 1584 1573 1616 1684 1638 1714 1629 1729 1752 1646 1679 1787 1761 1705 1770 1749 1829 1740 1891 1756 1737 1753 1862 1767 1773 1763 1806 1689 1662 1759 1775 1672 1694 1771 1749 1678 1648 1635 1663 1620 1660 1516 1562 1622 1445 1494 1486 1388 1352 1394 1382 1404 1404 1363 1318 1260 1285 1241 1249 1207 1206 1233 1168 1134 1114 1204 1172 1087 1157 1053 1121 1048 1136 987 1120 1056 1031 1000 1024 988 1000 1017 1056 1084 961 1044 1001 1041 995 995 997 1011 1034 1035 1008 1063 1018 1042 1015 991 1044 984 999 1033 1102 983 1009 1030 1031 1026 1044 952 1016 1060 954 1136 1029 1019 1024 1014 1059 989 1047 1048 1032 984 1019 1029 1015 972 1033 1018 990 989 967 1004 1021 966 1080 1022 999 992 1002 973 965 1018 1046 1042 991 980 975 1002 1006 1044 1028 960 1023 943 973 1020 1000 1063 989 930 977 977 1024 1022 1010 991 998 1001 972 983 940 967 960 923 1003 982 966 974 936 967 976 995 1048 986 962 950 1023 956 957 1003 1007 983 1023 949 1009 1003 957 961 987 1058 982 941 978 1035 973 1061 1027 1052 1010 999 1029 972 1053 1061 1012 1042 1008 1028 1028 1001 1039 1072 1034 1011 1098 1023 999 1075 1053 1089 1025 1106 1093 1103 1020 981 1068 1029 1113 1059 1033 1058 1047 1055 1107 1073 1066 1109 1110 1014 1103 1052 1093 1037 1071 1072 1079 1035 1014 1063 1098 1082 1036 1026 1034 1048 972 1079 1053 997 1024 1012 1079 1070 1042 1029 1069 954 1064 978 1041 1028 1063 1008 1020 973 986 955 970 1009 1021 984 1017 932 915 989 1019 930 983 980 977 923 1001 975 1083 965 985 986 993 925 922 957 1026 953 992 1008 987 971 933 963 978 974 954 954 937 980 978 947 938 950 953 972 934 935 941 990 958 976 1009 948 923 969 998 997 962 979 972 949 1027 946 944 956 923 898 918 908 1010 912 981 954 911 917 958 897 880 900 926 944 1017 921 900 935 958 931 924 902 951 969 921 918 950 922 898 910 888 938 923 927 933 955 912 921 921 930 886 882 942 935 918 876 943 960 982 918 964 894 959 914 919 853 917 902 931 899 930 922 920 873 921 897 897 933 956 928 910 955 910 965 953 923 897 871 912 924 930 908 939 937 909 932 920 885 928 904 904 952 920 924 903 915 950 915 936 904 967 904 955 897 911 901 863 981 893 915 943 898 898 909 887 950 887 980 953 893 918 914 861 952 943 963 879 941 931 881 900 949 904 909 928 939 915 936 960 911 935 849 946 904 928 896 895 909 895 912 899 897 960 916 914 922 947 868 915 919 927 928 924 960 914 925 873 889 850 908 933 866 914 878 867 945 840 922 907 968 953 938 937 920 914 944 939 898 897 907 912 886 895 891 904 906 893 899 951 911 917 905 943 896 905 943 863 950 910 917 921 896 908 929 862 885 932 909 910 941 921 906 906 925 901 956 887 915 878 841 879 933 928 902 874 926 912 935 897 859 888 901 941 903 907 878 871 944 940 928 920 876 968 888 863 925 952 916 916 842 932 925 925 889 924 881 911 958 998 915 875 886 909 926 945 902 910 936 886 931 878 877 969 867 885 873 910 956 864 899 952 907 902 939 976 883 871 930 900 902 926 880 919 922 871 917 893 935 959 878 883 984 932 988 853 966 845 860 924 887 860 911 848 884 936 916 949 869 854 925 915 868 909 959 946 879 944 899 877 872 890 825 888 852 922 959 907 908 865 847 848 847 896 922 900 926 918 859 973 864 868 923 881 876 901 886 903 863 833 919 831 878 918 893 866 873 920 855 861 856 893 901 821 855 914 929 876 881 864 847 882 926 877 854 915 862 846 874 880 936 897 835 884 883 855 886 916 888 862 893 874 855 915 887 883 837 915 906 898 836 859 863 872 903 935 914 873 904 889 903 913 867 869 928 886 875 949 914 895 913 878 891 902 854 983 896 865 915 851 914 870 894 871 901 942 879 835 881 871 888 925 845 889 895 890 861 865 937 870 935 936 899 914 888 958 882 929 925 931 872 905 866 919 899 876 866 896 907 925 921 910 888 928 1004 891 981 887 942 896 915 898 956 904 912 958 932 903 903 926 947 927 921 898 886 925 942 964 952 953 932 939 926 984 992 945 935 909 908 961 894 967 987 915 1014 1005 931 938 1001 930 974 976 873 947 961 894 970 959 918 855 955 910 912 921 930 939 846 955 951 869 904 890 936 870 866 935 856 950 886 865 941 870 905 842 953 948 905 899 898 890 892 902 868 938 873 881 902 834 891 929 910 861 876 859 856 847 937 850 838 853 831 894 851 910 872 841 847 882 903 866 896 847 825 869 845 924 873 885 916 870 857 897 862 837 895 857 907 831 862 894 821 838 864 855 836 865 848 840 832 895 831 854 856 852 849 816 858 891 868 826 848 841 883 901 848 876 870 871 876 881 847 879 820 860 870 831 884 909 797 906 889 855 845 931 882 900 855 824 910 852 919 830 852 845 870 901 822 840 849 907 858 882 832 866 853 847 855 846 893 852 893 804 881 877 856 859 869 843 849 838 852 878 890 888 879 836 910 912 825 873 844 871 856 887 858 880 860 864 880 874 873 841 863 907 866 853 924 894 899 851 890 877 889 983 953 899 1000 897 940 962 936 971 981 963 975 959 940 928 941 1023 974 914 954 985 1051 1039 1016 1021 1047 1116 1071 1005 1004 1019 1039 1082 1043 1111 1066 967 1065 1048 1051 1121 1072 1081 988 1068 1115 1053 1117 1060 1098 1109 1110 1040 1057 1066 1070 1136 1051 1027 1053 1104 1092 1049 1041 1063 1115 1158 1102 1132 1046 1075 1062 1021 1026 1028 1074 1029 1077 1064 1029 1052 1002 1005 967 976 989 1026 970 962 986 958 985 959 967 987 942 945 951 971 942 881 994 861 935 864 887 913 907 946 834 858 867 881 891 863 878 892 884 896 846 908 837 868 844 827 918 847 888 864 850 877 895 873 866 838 846 855 902 834 877 828 804 894 895 800 879 905 879 866 845 855 849 849 844 900 885 902 848 900 835 898 874 869 919 866 886 838 862 848 848 859 866 854 909 837 820 840 871 851 818 851 878 840 848 868 853 798 840 870 857 859 851 846 850 864 903 836 866 867 868 847 829 870 848 845 875 908 876 861 850 993 905 942 963 916 924 973 963 968 962 949 949 939 934 992 955 963 969 923 989 993 975 907 967 962 944 966 929 896 938 857 923 992 954 963 908 951 910 864 904 912 887 906 881 913 944 924 912 894 916 834 877 846 891 951 900 892 910 840 901 879 867 877 825 866 914 858 900 856 819 930 863 886 888 868 842 880 838 908 899 834 880 864 854 880 815 828 897 863 887 838 837 851 874 820 786 816 877 795 827 905 833 830 858 831 849 921 829 802 863 820 859 839 860 862 887 779 827 891 768 843 850 869 813 857 800 793 833 867 799 894 835 846 810 788 802 845 830 787 812 780 820 810 882 798 841 834 749 835 807 841 834 872 784 813 864 826 841 811 804 837 851 830 876 847 836 856 847 829 846 823 855 816 808 867 784 879 806 829 796 785 858 834 799 868 884 824 766 807 832 774 829 805 838 803 877 820 784 854 846 825 807 803 787 762 785 808 857 829 896 810 841 810 856 849 836 813 811 794 909 831 779 772 820 790 819 799 787 829 836 828 819 770 827 825 831 828 850 797 804 803 803 814 807 832 810 865 842 778 757 805 790 789 851 813 798 785 780 817 842 816 790 812 794 786 799 811 841 813 808 824 801 792 835 773 796 752 888 813 808 818 859 804 779 772 835 811 770 796 810 881 787 797 791 794 785 833 778 791 787 802 839 821 790 824 759 799 802 814 787 808 814 815 788 759 832 845 804 817 792 797 801 872 785 793 842 869 854 812 837 812 822 829 777 809 784 828 769 848 825 830 825 813 800 812 795 845 788 801 806 816 823 780 842 812 882 840 816 844 832 790 809 784 816 835 859 821 790 783 818 883 815 780 790 827 809 858 852 823 812 810 807 856 780 757 832 800 848 844 874 844 808 807 828 823 814 855 847 811 882 807 845 812 761 814 812 807 784 814 794 792 786 829 788 819 792 829 769 804 805 755 836 794 842 829 793 787 812 786 792 789 720 828 870 842 777 824 815 823 833 818 761 777 805 763 820 841 843 777 786 797 774 782 743 780 807 803 834 761 806 758 785 794 764 808 840 804 822 806 793 778 811 771 843 791 755 823 817 808 807 856 850 797 763 778 806 824 762 800 822 769 793 786 834 802 817 766 816 793 820 745 827 870 818 809 825 810 764 777 786 816 882 812 817 852 819 810 827 806 779 824 798 867 810 848 812 826 831 799 758 802 798 796 849 806 835 823 875 792 830 816 809 741 821 814 808 857 791 777 851 808 821 839 819 780 820 823 866 879 827 808 761 831 825 867 834 836 825 824 873 825 821 822 834 845 858 801 780 832 819 807 838 846 848 812 849 787 822 801 794 830 836 765 818 812 806 847 824 839 773 761 828 850 829 796 824 812 753 739 753 758 757 807 768 827 757 756 762 796 789 826 787 804 801 794 761 763 815 803 751 803 803 757 801 803 846 789 840 774 771 781 764 750 772 840 815 778 816 791 799 796 791 806 761 758 831 847 773 793 793 858 838 759 816 768 758 774 801 789 808 843 791 839 765 788 772 753 775 783 736 781 802 733 733 793 740 744 788 766 798 792 771 788 807 781 747 788 755 801 735 795 831 800 805 784 812 814 830 785 823 807 817 751 772 737 794 747 841 772 775 778 766 804 817 835 757 782 732 765 812 776 762 752 844 797 750 810 773 784 799 788 773 761 818 764 729 759 772 802 820 734 773 748 804 778 802 802 792 769 748 794 748 732 767 792 751 800 736 762 782 767 796 786 780 754 720 794 816 789 778 772 802 723 884 750 784 785 799 790 843 744 772 730 798 771 782 802 838 824 772 793 806 765 778 782 783 819 776 850 800 783 775 794 809 786 837 804 790 884 775 819 808 877 829 800 772 742 820 802 762 836 824 833 830 789 845 789 840 861 796 786 845 773 806 858 846 881 813 820 816 803 862 851 808 813 821 795 838 795 856 775 845 902 857 884 799 843 808 791 815 866 855 812 847 808 812 835 890 840 883 828 882 852 891 817 832 826 817 893 834 873 828 844 781 845 846 835 827 791 812 804 832 767 761 787 788 875 846 795 802 819 788 776 769 811 838 799 818 777 819 789 783 761 834 798 818 810 819 817 759 747 804 756 833 726 796 764 783 789 790 811 734 802 803 822 822 750 825 799 772 761 846 788 813 764 797 794 791 789 739 780 827 795 822 746 721 839 764 795 797 793 771 796 780 721 774 796 781 794 739 829 809 781 742 761 775 763 744 739 791 804 770 791 816 772 732 738 810 791 765 773 768 790 761 778 778 725 761 813 748 743 804 744 785 822 757 814 772 775 737 773 751 738 769 772 726 758 789 791 768 802 750 739 801 787 834 754 702 748 747 745 780 745 814 773 795 761 757 809 764 790 841 717 772 779 824 749 724 797 769 781 754 777 784 821 751 751 753 763 786 776 746 733 723 831 751 778 745 754 768 782 761 769 769 726 762 747 766 789 781 769 806 770 821 739 785 785 755 823 725 800 808 791 768 781 775 783 747 812 785 764 741 785 815 841 723 766 753 781 774 822 762 746 768 747 780 810 810 818 731 831 797 783 792 799 817 746 752 795 757 792 811 753 763 834 729 807 762 773 770 777 753 736 765 798 716 753 744 754 734 743 803 775 798 760 740 762 769 812 755 751 742 762 759 746 753 784 787 775 759 730 806 796 811 693 751 785 782 802 781 813 785 762 775 770 758 768 788 769 779 798 819 786 761 789 705 736 770 728 739 709 725 784 756 780 737 751 752 750 783 725 834 780 821 789 754 817 788 756 836 762 740 739 775 783 761 741 770 753 756 777 823 744 820 758 727 767 760 740 821 742 740 738 793 794 739 759 801 775 776 794 769 771 756 793 830 708 758 763 778 775 793 796 750 758 780 785 736 814 814 847 793 736 774 778 819 730 780 785 794 757 769 748 786 762 836 758 761 769 721 792 811 726 793 778 753 751 784 754 802 756 766 758 768 731 744 739 774 838 775 747 783 781 751 763 757 746 797 767 744 748 737 784 763 773 772 825 754 750 750 733 749 811 784 733 789 768 764 794 788 777 792 723 803 767 780 783 801 763 797 726 779 750 748 759 785 823 851 785 783 751 814 787 764 821 818 812 778 797 772 820 788 768 718 780 731 739 817 780 798 777 788 772 796 831 772 833 771 779 754 763 777 753 792 803 764 785 764 741 729 754 792 800 778 782 796 784 789 764 792 718 759 758 792 794 775 734 802 779 763 791 787 777 836 809 744 806 784 765 771 829 730 820 798 774 761 770 822 810 755 827 794 816 779 765 743 806 729 828 744 781 771 789 754 793 733 761 760 727 784 775 768 789 775 827 757 813 824 752 787 813 739 786 742 748 793 802 825 732 787 790 754 854 805 780 810 815 795 779 790 804 757 765 796 791 816 788 830 826 752 847 825 773 775 805 778 771 820 775 789 814 798 741 769 790 751 827 805 851 754 831 830 786 810 804 790 821 797 818 826 827 784 791 805 782 761 779 797 800 827 766 803 831 827 798 842 818 855 839 775 780 845 789 817 816 779 843 769 784 758 827 758 784 746 843 806 810 780 845 815 792 801 818 871 833 781 846 782 815 806 823 823 813 793 810 812 795 773 741 764 788 782 807 795 821 786 829 812 782 769 783 781 752 756 800 750 807 783 770 774 770 829 764 834 752 773 801 702 789 819 785 794 749 785 784 807 786 784 806 777 750 769 849 815 766 759 793 813 759 766 752 754 758 830 740 786 833 812 779 747 759 758 813 781 749 786 792 772 768 755 802 761 798 746 752 846 803 768 781 738 739 777 775 776 792 770 766 848 786 811 756 735 783 795 789 822 823 758 736 834 759 758 807 792 772 762 778 803 778 786 768 772 808 782 775 772 780 735 775 772 789 704 758 810 775 827 766 764 791 808 837 791 806 817 719 792 748 751 807 801 775 772 774 770 754 793 773 821 818 782 758 800 834 823 855 834 844 855 798 804 807 816 804 807 778 809 782 844 805 882 883 813 832 895 883 833 852 867 833 868 853 879 882 873 890 822 800 883 942 856 884 928 850 864 850 856 894 840 796 887 897 827 875 858 833 888 887 891 840 929 876 904 852 869 830 884 905 836 886 891 898 887 897 876 880 895 862 867 880 863 898 873 922 863 897 869 888 854 850 850 894 839 858 871 850 837 824 893 838 901 833 868 877 843 874 839 865 884 876 898 869 843 903 808 863 844 808 804 825 830 834 838 879 856 798 867 805 776 824 840 865 791 824 824 834 838 804 841 804 783 770 817 820 806 750 809 803 764 822 755 773 778 768 778 798 769 766 769 797 747 837 786 776 823 821 753 768 782 772 781 807 780 761 806 769 738 796 720 748 771 770 787 776 754 801 771 796 841 782 809 775 773 757 770 783 789 770 728 731 783 816 744 822 798 780 740 786 784 814 751 774 832 767 814 768 732 797 788 818 790 752 816 743 762 742 816 704 788 799 724 773 788 751 739 739 815 786 789 728 821 753 712 763 764 811 733 759 720 825 778 805 717 784 819 809 759 738 774 773 776 795 761 706 738 791 765 786 801 760 777 795 745 778 773 780 761 736 714 752 791 746 791 765 729 760 743 765 808 782 739 800 790 778 788 758 797 785 729 760 748 788 713 727 831 693 785 744 771 768 753 746 785 768 783 796 717 774 778 752 760 755 741 740 796 738 772 785 770 772 740 736 723 737 714 733 758 741 790 728 776 738 735 767 751 742 748 767 764 729 758 748 752 770 809 801 720 746 739 780 783 707 760 760 747 710 783 724 717 758 728 748 715 785 734 735 719 746 725 718 739 736 746 796 713 740 787 746 733 764 779 741 775 747 767 737 752 720 749 762 742 704 746 756 707 713 745 698 723 785 732 804 777 761 757 746 731 755 774 761 730 752 749 768 759 737 701 697 756 745 736 733 746 766 761 695 746 743 755 745 770 779 724 755 759 745 765 748 782 771 742 740 779 689 770 723 773 777 761 720 769 703 711 756 833 743 736 760 693 755 785 761 729 741 740 759 723 729 765 742 802 799 693 782 749 766 781 761 749 750 726 749 736 740 732 761 694 727 725 767 826 734 696 760 748 747 745 697 791 754 741 741 757 763 750 721 749 716 763 758 736 692 746 723 739 725 762 725 729 738 769 752 666 750 725 734 781 688 756 733 766 727 725 755 766 753 751 743 740 749 738 706 713 762 731 711 741 732 739 752 720 719 754 732 757 771 764 740 795 709 727 753 745 751 784 758 749 733 713 724 698 753 744 733 729 732 768 684 691 748 775 745 757 753 698 755 743 713 710 755 752 765 765 746 770 733 727 778 725 777 747 722 749 746 726 737 789 726 737 733 738 735 746 752 728 734 748 755 787 739 737 734 713 757 731 771 729 815 748 774 745 731 734 718 746 784 752 720 771 748 737 768 744 725 764 768 771 779 736 753 739 758 761 753 698 749 731 692 720 763 771 775 721 719 782 745 696 814 693 781 751 728 772 778 776 763 739 763 716 738 707 763 744 721 748 735 721 724 754 697 764 711 771 720 758 749 777 716 789 732 752 764 755 795 728 761 722 765 735 759 736 738 764 785 728 760 739 777 769 782 748 785 705 706 771 786 726 719 712 739 760 700 722 701 761 727 776 731 711 747 754 784 773 762 751 785 728 750 763 747 744 770 776 783 657 748 744 764 704 730 690 739 718 745 739 788 709 714 726 816 729 708 717 744 725 779 762 751 728 706 772 720 770 711 730 780 740 739 765 710 753 743 729 736 758 698 706 727 700 690 762 718 707 712 705 725 714 709 754 747 766 730 699 770 708 700 733 757 779 762 735 727 684 732 740 780 698 755 733 724 701 706 749 762 719 748 769 744 705 713 699 752 767 737 734 715 692 757 726 723 722 708 726 775 736 771 770 796 657 735 688 722 716 729 715 707 764 704 763 727 732 743 740 743 706 753 763 786 664 762 701 759 717 768 719 748 744 743 706 719 753 754 759 713 737 751 787 738 724 720 743 719 656 770 770 675 756 724 716 744 754 736 717 741 710 704 721 781 757 725 738 699 695 732 729 760 762 749 783 724 740 678 742 745 770 758 734 725 721 795 750 751 703 740 742 753 747 753 788 783 787 762 808 810 765 778 765 784 733 798 769 752 789 796 734 781 783 784 774 799 773 778 771 729 836 784 822 762 774 764 782 815 776 805 826 804 816 735 814 747 758 792 811 764 826 827 813 795 798 819 795 761 792 819 781 832 796 782 785 770 798 808 811 766 815 800 779 811 758 725 842 830 791 787 794 826 821 793 747 793 829 820 805 810 791 806 731 807 809 781 794 767 800 842 768 764 775 741 779 842 788 773 747 788 771 807 785 755 782 772 740 833 811 771 729 784 814 741 740 762 764 747 768 726 827 698 726 750 705 765 745 713 720 730 814 754 739 725 787 726 752 705 755 771 727 728 715 761 748 736 778 762 719 701 745 748 715 715 766 784 758 669 770 732 755 732 717 758 729 742 745 696 737 721 721 704 740 711 742 704 691 755 748 715 790 737 737 742 756 719 778 762 760 710 737 736 718 712 728 782 738 734 742 731 810 699 730 705 732 753 730 672 720 665 740 728 755 762 723 724 691 716 761 780 717 773 737 723 772 776 682 689 723 744 749 720 750 721 769 748 762 696 785 689 733 666 674 703 733 769 780 749 684 744 767 713 703 705 775 767 686 687 728 756 676 671 750 745 752 742 715 743 722 761 691 738 701 785 715 731 740 762 736 745 731 748 762 751 776 692 716 710 671 766 750 736 698 728 700 739 713 711 748 760 792 707 742 702 722 730 706 681 720 802 705 695 726 727 739 759 732 739 742 725 722 746 713 701 737 694 689 793 693 776 702 748 708 705 706 689 753 684 687 723 703 729 709 761 716 701 684 711 723 698 709 687 745 694 735 717 741 771 678 730 736 688 734 697 721 702 706 723 748 725 732 678 696 728 755 726 730 748 730 711 767 722 752 691 701 729 741 681 708 729 696 716 702 762 733 688 704 717 709 751 697 703 722 692 693 644 682 741 761 703 734 756 739 711 753 730 800 674 690 697 706 784 727 719 762 744 733 722 696 738 706 704 729 690 712 750 751 755 739 702 720 711 711 773 748 719 721 752 691 743 728 706 703 704 741 733 708 679 690 694 730 704 752 708 693 711 714 703 736 757 738 695 744 712 668 740 727 698 725 724 725 724 698 689 738 715 729 685 725 722 720 715 694 724 717 727 748 702 673 737 731 703 720 687 698 691 674 769 687 709 699 742 746 762 749 691 730 692 763 705 675 717 718 706 666 718 751 695 702 700 730 702 707 747 684 740 745 721 704 728 710 761 720 756 730 746 714 758 713 745 691 662 719 703 747 744 664 721 745 694 690 727 701 690 776 694 728 694 765 657 719 706 715 741 732 757 714 777 689 733 737 765 708 711 710 687 684 698 743 700 703 701 693 714 710 717 696</counts>
			</dataPoints>
		</scan>
	</xrdMeasurement>
</xrdMeasurements>
