<?xml version="1.0"?>
<xrdMeasurements xmlns="http://www.xrdml.com/XRDMeasurement/2.3" xmlns:xsi="http://www.w3.org/2001/XMLSchema-instance" xsi:schemaLocation="http://www.xrdml.com/XRDMeasurement/2.3 http://www.xrdml.com/XRDMeasurement/2.3/XRDMeasurement.xsd" status="Completed" recordIdentifier="{6478FE29-E1E5-4326-B5C0-BAED1DD479B0}">
	<comment>
		<entry/>
	</comment>
	<sample type="To be analyzed">
		<id>GPSS_Li1p5Mg0p5Cr0p5Cl4_101825_68f3c986028f64128e25b35b</id>
		<name></name>
		<preparedBy></preparedBy>
	</sample>
	<xrdMeasurement measurementType="Scan" status="Completed" sampleMode="Reflection">
		<usedWavelength intended="K-Alpha 1">
			<kAlpha1 unit="Angstrom">1.5405980</kAlpha1>
			<kAlpha2 unit="Angstrom">1.5444260</kAlpha2>
			<kBeta unit="Angstrom">1.3922500</kBeta>
			<ratioKAlpha2KAlpha1>0.5000</ratioKAlpha2KAlpha1>
		</usedWavelength>
		<incidentBeamPath>
			<radius unit="mm">145.00</radius>
			<xRayTube id="1010048" name="Empyrean Cu LFF HR (9430 033 7310x)">
				<tension unit="kV">40.0</tension>
				<current unit="mA">15.0</current>
				<anodeMaterial>Cu</anodeMaterial>
				<focus type="Line">
					<length unit="mm">12.0</length>
					<width unit="mm">0.4</width>
					<takeOffAngle unit="deg">6.0</takeOffAngle>
				</focus>
			</xRayTube>
			<sollerSlit id="21010002" name="Soller slits 0.04 rad.">
				<opening unit="rad">0.0400</opening>
			</sollerSlit>
			<mask id="22031000" name="Fixed mask 13 mm">
				<width unit="mm">9.00</width>
			</mask>
			<divergenceSlit id="22120001" name="Divergence slit 1°" xsi:type="fixedDivergenceSlitType">
				<distanceToSample unit="mm">50.00</distanceToSample>
				<height unit="mm">1.52</height>
			</divergenceSlit>
		</incidentBeamPath>
		<sampleMovement xsi:type="spinningSampleMovementType">
			<spinnerRevolutionTime unit="seconds">1.0</spinnerRevolutionTime>
		</sampleMovement>
		<diffractedBeamPath>
			<radius unit="mm">145.00</radius>
			<antiScatterSlit id="22090040" name="AS slit 9 mm (PIXcel)" xsi:type="fixedAntiScatterSlitType">
				<height unit="mm">9.00</height>
			</antiScatterSlit>
			<sollerSlit id="21020003" name="Large Soller slits 0.04 rad.">
				<opening unit="rad">0.0400</opening>
			</sollerSlit>
			<filter id="20030001" name="Large beta-filter Nickel">
				<material>Ni</material>
				<thickness unit="mm">0.020</thickness>
			</filter>
			<detector id="7010019" name="PIXcel1D-Medipix3 detector" xsi:type="rtmsDetectorType">
				<phd unit="keV">
					<lowerLevel>4.02</lowerLevel>
					<upperLevel>11.27</upperLevel>
				</phd>
				<mode>Scanning</mode>
				<activeLength unit="deg">5.542</activeLength>
			</detector>
		</diffractedBeamPath>
		<scan appendNumber="0" mode="Continuous" scanAxis="Gonio" status="Completed">
			<header>
				<startTimeStamp>2025-10-21T11:55:56-07:00</startTimeStamp>
				<endTimeStamp>2025-10-21T12:04:03-07:00</endTimeStamp>
				<author>
					<name>AutomatedUser</name>
				</author>
				<source>
					<applicationSoftware version="1.7b (136)">PANalytical Aeris Instrument Suite</applicationSoftware>
					<instrumentControlSoftware version="3.2.00000000 20240306">AERIS</instrumentControlSoftware>
					<instrumentID>950485</instrumentID>
				</source>
			</header>
			<dataPoints>
				<positions axis="2Theta" unit="deg">
					<startPosition>10.00943322</startPosition>
					<endPosition>99.99442286</endPosition>
				</positions>
				<positions axis="Omega" unit="deg">
					<startPosition>5.00471661</startPosition>
					<endPosition>49.99721143</endPosition>
				</positions>
				<commonCountingTime unit="seconds">12.495</commonCountingTime>
				<counts unit="counts">2709 2662 2649 2495 2517 2646 2696 2623 2662 2589 2606 2573 2625 2576 2580 2505 2545 2552 2656 2592 2630 2609 2646 2610 2590 2541 2537 2594 2520 2459 2572 2586 2610 2540 2582 2513 2472 2579 2609 2590 2556 2541 2594 2478 2606 2589 2537 2496 2601 2440 2655 2569 2547 2428 2531 2505 2546 2564 2540 2614 2501 2607 2570 2573 2546 2595 2634 2506 2589 2550 2517 2671 2567 2477 2511 2520 2600 2571 2558 2588 2686 2474 2531 2533 2596 2601 2527 2530 2497 2494 2510 2605 2483 2582 2575 2597 2530 2519 2531 2551 2498 2566 2544 2559 2515 2517 2521 2584 2512 2499 2512 2544 2536 2576 2559 2520 2475 2593 2579 2525 2601 2518 2468 2536 2518 2606 2548 2637 2521 2552 2476 2495 2630 2530 2593 2552 2466 2638 2459 2540 2576 2518 2539 2585 2516 2616 2435 2474 2529 2486 2551 2535 2595 2431 2582 2437 2463 2414 2491 2462 2494 2465 2510 2465 2597 2460 2504 2535 2491 2634 2554 2461 2466 2527 2510 2400 2489 2481 2431 2418 2540 2533 2393 2471 2439 2467 2463 2437 2550 2550 2524 2375 2424 2428 2506 2392 2429 2565 2434 2488 2441 2408 2465 2342 2590 2380 2412 2404 2329 2428 2526 2360 2524 2458 2511 2413 2478 2504 2458 2432 2468 2445 2421 2547 2439 2433 2328 2462 2392 2371 2379 2409 2458 2383 2354 2392 2395 2444 2373 2418 2474 2449 2317 2374 2454 2490 2501 2340 2406 2344 2318 2373 2359 2365 2437 2410 2372 2380 2355 2339 2365 2364 2338 2355 2408 2361 2424 2344 2410 2418 2395 2334 2323 2410 2391 2381 2350 2343 2381 2505 2378 2395 2453 2406 2439 2376 2370 2423 2433 2380 2423 2423 2391 2529 2400 2388 2351 2417 2344 2454 2460 2397 2372 2552 2393 2462 2423 2438 2433 2531 2385 2441 2470 2525 2411 2520 2376 2483 2430 2469 2526 2514 2463 2500 2451 2420 2372 2471 2472 2501 2516 2505 2504 2528 2528 2517 2537 2581 2505 2555 2435 2576 2452 2556 2485 2568 2648 2494 2585 2589 2497 2555 2618 2673 2596 2559 2649 2629 2630 2568 2533 2565 2657 2602 2604 2589 2727 2602 2679 2662 2677 2703 2697 2747 2628 2758 2675 2734 2679 2714 2742 2695 2751 2642 2787 2662 2758 2768 2785 2721 2719 2693 2774 2806 2752 2737 2743 2781 2801 2855 2859 2818 2782 2781 2788 2924 2963 2827 2968 2963 2831 2853 2831 2898 2922 2904 2891 2920 2971 3010 2989 3036 3027 3068 3135 3124 3114 3078 3212 3152 3161 3178 3159 3266 3285 3302 3415 3332 3515 3491 3539 3473 3490 3710 3674 3548 3785 3931 3893 4040 4055 4018 4145 4178 4230 4466 4571 4528 4710 4737 4826 4905 4945 5103 5195 5314 5207 5497 5613 5796 5754 5898 6003 6261 6297 6507 6675 6763 7026 7146 7075 7250 7235 7306 7315 7344 7456 7546 7647 7593 7658 7637 7685 7722 7757 7695 7817 7807 8030 7821 7939 7955 7763 8025 8023 7996 7900 7892 7905 7800 7613 7665 7438 7235 7290 7052 6904 6759 6572 6765 6600 6251 6120 5968 5830 5698 5615 5362 5206 5010 4879 4731 4633 4463 4422 4257 4077 4089 3915 3865 3729 3744 3728 3722 3588 3439 3396 3410 3231 3237 3215 3220 3002 3001 2927 2886 2942 2972 2775 2759 2761 2708 2714 2847 2713 2766 2804 2657 2680 2662 2650 2671 2740 2624 2727 2736 2634 2742 2697 2684 2604 2582 2640 2687 2664 2720 2632 2712 2718 2651 2622 2580 2619 2645 2507 2683 2589 2574 2645 2622 2642 2657 2546 2542 2549 2519 2642 2618 2571 2495 2585 2530 2532 2509 2532 2713 2516 2559 2568 2598 2499 2568 2572 2552 2469 2574 2547 2476 2430 2524 2544 2546 2496 2519 2413 2540 2547 2562 2509 2482 2445 2473 2501 2506 2572 2508 2520 2542 2479 2499 2446 2448 2505 2512 2442 2479 2556 2535 2557 2436 2461 2607 2417 2569 2447 2537 2564 2569 2471 2512 2556 2455 2568 2542 2435 2543 2558 2501 2428 2576 2526 2492 2534 2575 2505 2565 2535 2455 2495 2543 2660 2504 2536 2526 2533 2530 2580 2511 2510 2492 2527 2489 2495 2552 2537 2439 2484 2592 2491 2440 2581 2517 2594 2472 2560 2379 2408 2518 2499 2430 2427 2463 2514 2492 2418 2408 2496 2427 2486 2534 2477 2464 2450 2445 2479 2422 2464 2374 2433 2395 2419 2429 2355 2415 2391 2390 2402 2537 2401 2389 2403 2376 2401 2447 2375 2490 2336 2321 2379 2376 2428 2331 2417 2446 2429 2465 2475 2549 2358 2433 2321 2480 2319 2348 2428 2368 2358 2440 2288 2435 2270 2355 2447 2349 2206 2403 2400 2382 2391 2294 2391 2370 2376 2336 2348 2350 2386 2355 2355 2323 2344 2348 2448 2310 2412 2389 2349 2313 2373 2299 2339 2294 2382 2330 2303 2320 2385 2283 2329 2292 2220 2324 2319 2336 2331 2341 2266 2336 2378 2412 2364 2268 2342 2296 2363 2358 2403 2297 2310 2224 2357 2349 2339 2338 2312 2312 2283 2326 2313 2229 2289 2162 2241 2275 2207 2235 2336 2202 2327 2210 2229 2208 2263 2330 2198 2320 2183 2295 2244 2281 2292 2249 2248 2186 2250 2280 2292 2281 2258 2246 2280 2192 2375 2233 2309 2271 2215 2297 2191 2222 2247 2161 2272 2236 2235 2230 2199 2227 2213 2231 2243 2296 2294 2161 2235 2246 2178 2290 2244 2240 2235 2183 2211 2222 2120 2314 2218 2319 2205 2259 2222 2158 2165 2229 2200 2273 2182 2192 2221 2251 2132 2221 2193 2150 2116 2267 2268 2164 2342 2213 2121 2141 2253 2207 2192 2163 2238 2113 2216 2170 2147 2211 2163 2214 2281 2123 2099 2178 2208 2210 2163 2198 2242 2147 2129 2163 2092 2136 2143 2189 2100 2102 2073 2064 2133 2116 2180 2161 2132 2105 2101 2140 2133 2127 2105 2218 2162 2130 2094 2109 2049 2092 2137 2150 2177 2197 2122 2128 2064 2125 2133 2092 2105 2190 2129 2060 2147 2123 2063 2105 2180 2111 2160 2117 2050 2080 2067 1997 2169 2117 2043 2111 2135 2123 2118 2069 2080 2042 2112 2130 2131 2109 2117 2102 2013 2162 2177 2103 2125 2065 2086 2081 2115 1949 2073 2095 2095 2121 2091 2090 2067 2047 2065 2129 2076 2069 2121 2095 2124 2154 2076 2145 2095 2099 2076 2059 2154 2104 2155 2026 2137 2064 2084 2010 2151 2184 2109 2027 2041 2100 2094 2063 2038 2107 2026 2145 2117 2204 2105 2101 2179 2053 2143 1990 2133 2112 2073 2060 2136 2135 2104 2132 2149 2175 2121 2054 2090 2085 2100 2029 2082 2103 2211 2114 2139 2148 2102 2051 2148 2106 2073 2040 2039 2120 2066 2169 2020 2115 2097 2123 2015 2039 2120 1990 2049 2018 2076 2092 2075 2050 2104 2055 2090 2001 2019 1993 2016 1982 2038 1964 2019 2059 2011 2015 2089 2066 2002 1985 2001 2047 2054 1956 1991 2073 1938 2095 1939 1989 1989 2072 1943 2042 2041 1958 1985 2000 1984 2013 1910 1971 1882 1964 1952 1920 1913 1933 1886 1966 1904 1912 1899 1912 1898 2004 1953 1929 1897 1848 1929 1956 1883 1925 1920 1918 1895 1837 1979 1861 1930 1857 1883 1780 1790 1870 1905 1799 1921 1897 1782 1839 1843 1814 1833 1774 1786 1870 1840 1849 1792 1790 1804 1791 1778 1755 1688 1729 1755 1733 1741 1680 1759 1784 1777 1782 1757 1669 1725 1869 1705 1684 1747 1704 1649 1760 1737 1719 1767 1720 1681 1696 1654 1681 1689 1732 1656 1681 1652 1620 1600 1658 1642 1679 1618 1629 1643 1694 1613 1627 1692 1650 1678 1593 1570 1649 1627 1650 1638 1609 1644 1600 1624 1599 1595 1611 1539 1571 1520 1589 1639 1563 1602 1643 1581 1622 1562 1678 1555 1552 1551 1630 1568 1595 1635 1543 1568 1528 1628 1575 1508 1521 1477 1465 1533 1627 1489 1566 1553 1446 1503 1644 1607 1555 1553 1578 1567 1514 1627 1541 1531 1510 1531 1537 1534 1538 1580 1564 1499 1503 1487 1507 1506 1436 1486 1534 1543 1493 1496 1480 1503 1561 1504 1534 1503 1521 1557 1474 1536 1497 1557 1505 1611 1493 1488 1527 1484 1504 1523 1513 1503 1558 1436 1526 1380 1404 1390 1479 1458 1496 1442 1529 1491 1483 1436 1494 1448 1567 1466 1446 1468 1569 1555 1524 1452 1512 1448 1481 1541 1520 1475 1478 1445 1451 1466 1499 1527 1489 1517 1506 1478 1466 1419 1534 1419 1489 1508 1521 1433 1497 1498 1472 1500 1452 1446 1412 1499 1483 1530 1462 1483 1423 1503 1474 1504 1469 1487 1439 1421 1473 1421 1474 1500 1497 1511 1557 1478 1497 1522 1452 1504 1462 1449 1387 1523 1478 1458 1494 1488 1508 1497 1484 1528 1474 1511 1516 1481 1472 1485 1451 1500 1476 1513 1474 1550 1491 1472 1544 1449 1474 1510 1469 1447 1418 1440 1479 1490 1500 1460 1350 1491 1400 1487 1505 1509 1526 1464 1496 1534 1423 1472 1425 1434 1481 1532 1427 1481 1528 1498 1521 1431 1421 1506 1427 1490 1470 1480 1474 1533 1473 1412 1451 1489 1416 1420 1454 1478 1459 1476 1371 1468 1456 1485 1462 1501 1471 1430 1433 1480 1430 1408 1459 1459 1409 1403 1388 1471 1445 1420 1435 1407 1387 1411 1494 1444 1374 1334 1335 1465 1444 1482 1360 1457 1473 1448 1370 1380 1350 1380 1386 1423 1473 1364 1374 1395 1434 1397 1318 1336 1384 1324 1373 1343 1308 1290 1336 1344 1318 1366 1319 1342 1297 1309 1320 1291 1376 1315 1343 1335 1341 1330 1287 1273 1353 1262 1240 1308 1313 1332 1227 1200 1303 1207 1255 1290 1176 1341 1236 1252 1284 1190 1245 1285 1209 1202 1210 1241 1244 1226 1267 1245 1206 1263 1267 1295 1246 1299 1191 1203 1125 1167 1215 1231 1184 1222 1172 1211 1118 1180 1220 1155 1220 1207 1182 1172 1117 1142 1183 1138 1185 1193 1215 1137 1164 1178 1130 1203 1166 1203 1122 1167 1160 1131 1093 1217 1202 1212 1153 1194 1191 1177 1123 1195 1123 1284 1204 1160 1206 1119 1207 1188 1192 1181 1212 1177 1191 1122 1200 1121 1196 1185 1195 1242 1192 1275 1194 1302 1108 1231 1217 1198 1221 1255 1256 1218 1230 1299 1333 1260 1210 1272 1196 1268 1228 1218 1254 1344 1218 1244 1234 1190 1205 1221 1212 1202 1246 1196 1233 1227 1222 1201 1146 1163 1178 1149 1160 1122 1138 1224 1133 1142 1125 1114 1151 1118 1174 1159 1082 1166 1097 1182 1063 1145 1144 1173 1161 1121 1134 1106 1090 1186 1132 1151 1134 1134 1145 1177 1186 1106 1153 1171 1227 1234 1216 1237 1238 1254 1361 1285 1301 1474 1367 1446 1513 1571 1634 1655 1706 1746 1744 1836 1847 1935 1967 2117 2092 2147 2167 2318 2411 2396 2483 2583 2604 2699 2609 2901 2823 3005 2964 3038 3093 3198 3394 3599 3507 3705 3823 3895 3923 4026 4104 4226 4201 4314 4319 4506 4464 4588 4653 4715 4855 4632 4768 4762 4516 4637 4495 4527 4460 4547 4446 4432 4322 4339 4345 4333 4363 4325 4273 4328 4341 4309 4188 4239 4146 4281 4069 3991 3916 3872 3881 3694 3645 3707 3570 3548 3537 3350 3315 3333 3215 3181 3032 3001 2967 2774 2856 2693 2637 2670 2593 2679 2589 2463 2532 2548 2356 2384 2366 2357 2318 2262 2277 2238 2169 2065 2079 2144 2170 2072 2008 1989 1927 1994 1997 1968 1962 1956 1911 1938 1919 1928 2047 1996 2053 2068 2039 1972 2104 1979 2024 1941 1882 1889 1807 1776 1817 1792 1787 1668 1680 1597 1583 1599 1512 1510 1453 1468 1443 1336 1401 1326 1320 1274 1236 1168 1168 1155 1158 1113 1108 1114 1065 1050 1053 1053 1056 1067 1031 1028 1006 1004 992 963 1005 995 966 964 917 968 953 915 935 938 1001 945 966 1000 886 995 970 968 928 937 996 991 901 958 985 958 1004 932 929 969 955 962 983 935 981 962 960 948 960 959 909 919 959 895 953 972 949 994 925 888 872 913 874 949 916 877 941 941 937 902 994 898 905 926 932 938 913 859 906 899 853 827 928 895 853 874 872 916 902 958 907 895 831 899 893 883 870 896 869 984 902 827 822 829 897 872 862 814 908 875 850 853 827 861 871 824 843 819 821 812 859 781 862 869 847 830 854 791 812 845 828 828 866 878 809 789 797 812 796 844 805 812 828 859 805 791 775 799 875 802 797 837 778 795 823 813 790 800 774 800 796 830 784 813 786 837 795 827 800 853 894 790 828 787 836 799 788 786 819 790 791 791 798 783 832 835 843 791 786 759 805 760 800 814 801 870 833 784 841 810 791 874 781 808 856 802 815 867 815 885 797 847 830 823 848 832 833 806 804 897 839 809 850 796 834 857 852 850 829 955 937 903 880 887 910 903 832 924 1011 888 940 924 950 972 968 924 959 944 1019 1011 1094 1094 1057 1081 1118 1127 1172 1090 1175 1244 1236 1302 1317 1440 1443 1446 1568 1551 1615 1623 1700 1753 1893 1860 1918 2002 1980 2041 2161 2065 2198 2151 2181 2314 2245 2441 2354 2411 2541 2577 2574 2599 2732 2814 2921 3003 3062 3090 3168 3220 3353 3303 3500 3523 3664 3784 3911 3900 4163 4087 4166 4295 4211 4407 4439 4561 4476 4665 4608 4543 4515 4687 4710 4785 4919 4949 4907 5111 4929 5381 5203 5399 5284 5288 5128 5230 5181 5054 5145 5085 5128 5280 5244 5188 5174 5052 4906 4933 4763 4725 4740 4377 4435 4193 3999 3791 3716 3463 3341 3155 2935 2794 2662 2399 2424 2270 2082 2047 1846 1742 1762 1610 1663 1487 1421 1444 1382 1336 1313 1265 1213 1245 1197 1167 1165 1130 1106 1048 1086 1100 990 1048 1018 986 1002 953 923 952 967 987 951 993 921 963 1009 901 924 966 919 963 970 973 912 982 964 955 906 903 986 956 909 961 948 933 914 965 990 947 961 1007 954 996 948 1039 1027 1018 1052 1008 1009 998 1010 978 970 1056 1057 997 988 1035 999 1094 1120 1060 1024 1047 1067 1106 1071 1065 1077 1129 1136 1084 1099 1107 1107 1084 1051 1116 1177 1196 1151 1155 1207 1215 1239 1213 1254 1224 1175 1159 1214 1253 1192 1176 1230 1253 1226 1163 1144 1187 1193 1137 1106 1133 1101 1148 1063 1084 1052 1070 1034 1068 1067 1015 994 975 974 963 989 953 885 906 988 978 888 893 833 890 824 863 863 860 834 851 837 825 861 805 797 769 776 759 790 823 793 782 748 729 798 724 755 792 776 706 743 744 729 746 727 762 736 764 725 717 740 765 715 697 747 716 721 764 650 716 731 721 698 726 684 674 725 661 678 748 671 678 674 662 671 677 713 674 668 693 682 672 641 773 662 626 686 660 656 667 642 657 683 668 651 667 675 635 670 701 739 654 693 693 674 673 661 651 634 639 641 623 672 681 699 658 695 600 640 689 661 660 670 681 656 643 664 672 636 629 661 666 703 634 599 645 689 634 656 561 639 634 614 629 650 674 614 606 620 640 613 590 625 651 635 625 678 676 618 631 607 613 616 644 668 639 599 624 612 599 616 664 688 638 632 630 639 604 583 645 608 641 643 631 597 637 632 608 625 571 619 578 576 608 590 635 629 589 634 652 665 662 608 583 587 586 572 613 572 600 596 583 583 584 629 578 556 593 590 595 569 575 579 538 572 570 591 594 577 614 604 622 580 606 597 589 566 579 600 562 599 553 631 561 640 590 556 614 575 545 558 565 571 549 568 649 547 630 592 630 604 608 565 600 603 517 624 628 593 575 607 540 592 581 660 587 593 600 557 570 579 583 588 577 586 638 542 605 571 537 586 574 579 557 634 602 633 575 602 562 609 587 597 604 583 550 554 639 547 596 564 561 572 623 622 573 587 579 616 589 609 600 606 579 569 587 570 585 554 582 628 568 542 602 560 539 578 599 548 549 559 547 583 553 588 553 543 560 537 569 560 613 602 576 576 564 543 587 565 600 589 512 562 558 622 579 563 565 537 565 605 550 532 561 617 585 542 548 566 578 557 586 562 569 547 596 593 506 562 550 545 545 569 563 598 543 578 584 539 540 548 565 551 540 555 528 550 543 526 587 573 585 568 593 539 513 549 538 572 561 590 584 511 547 555 580 591 566 522 559 520 532 549 572 526 558 541 566 584 596 585 548 578 541 569 556 562 543 582 583 532 544 581 508 516 543 545 574 540 550 542 556 557 554 537 541 516 539 552 555 530 543 573 549 515 498 551 551 592 552 540 527 531 532 529 575 536 586 529 569 518 597 562 539 587 557 587 549 579 519 562 562 561 550 546 553 508 541 504 528 507 548 517 537 522 536 527 523 524 516 502 536 521 519 528 510 520 525 530 506 535 560 518 533 579 533 523 557 551 535 542 550 560 546 520 552 545 534 511 554 546 538 568 507 581 481 502 536 499 491 524 490 508 549 497 508 502 530 551 522 529 553 538 518 526 486 575 509 511 512 568 500 515 484 529 505 560 492 468 521 562 506 481 442 522 544 555 518 513 532 490 521 508 521 531 549 502 573 480 475 520 482 487 526 489 505 504 533 494 512 490 510 513 484 488 537 517 486 494 482 500 510 530 547 516 565 518 478 546 530 487 546 477 480 492 546 534 501 536 473 504 464 530 538 503 535 511 520 484 493 496 510 534 506 503 510 511 513 500 511 454 541 528 468 505 518 504 448 505 478 495 511 476 492 505 477 534 467 524 560 507 514 487 494 483 520 475 472 517 504 492 490 557 480 530 476 527 498 480 484 486 524 556 512 478 502 542 469 525 487 533 466 531 520 486 476 519 494 493 549 479 517 485 518 537 536 476 536 568 561 495 525 517 512 536 487 524 485 525 548 510 555 566 544 567 533 502 575 568 581 577 557 617 566 572 587 588 637 620 603 577 603 649 588 672 584 658 595 617 651 644 664 671 625 688 628 670 681 621 655 722 671 632 674 677 668 665 688 726 697 647 674 620 665 628 622 626 594 660 611 650 621 619 602 582 589 608 524 612 574 575 585 570 623 598 577 556 580 593 594 571 597 578 581 651 645 650 628 680 658 666 667 666 652 591 607 655 625 670 652 641 684 642 714 654 653 611 702 697 658 645 612 635 646 609 644 633 643 609 578 597 613 612 598 616 593 631 576 573 624 569 543 553 524 548 605 568 556 603 541 596 601 562 550 538 534 549 565 520 564 491 500 498 525 468 532 519 536 546 544 493 556 491 539 518 495 546 495 517 551 536 559 535 530 563 539 520 561 577 538 555 561 546 535 497 491 556 541 550 563 511 555 554 532 521 550 523 551 543 556 548 589 571 583 562 530 533 518 532 547 587 531 541 555 581 560 563 512 601 514 586 542 532 557 560 503 552 588 558 566 562 604 565 619 578 595 602 577 577 552 553 516 571 567 571 522 554 536 585 589 598 588 572 543 553 545 598 570 567 588 541 556 514 567 540 560 569 571 543 564 574 530 535 548 547 577 555 509 551 542 507 539 505 489 514 505 510 534 516 505 513 553 525 536 483 491 509 512 516 506 436 525 550 507 480 500 516 518 465 515 461 466 522 514 498 498 491 498 470 499 507 484 518 517 501 513 498 509 490 468 515 549 512 523 516 475 491 482 490 463 525 495 508 507 470 504 510 525 542 492 506 488 465 521 509 514 503 454 514 539 532 524 482 528 523 482 513 495 516 488 507 501 481 526 485 518 551 527 523 595 514 571 550 570 581 545 599 568 631 637 615 647 635 658 682 678 768 729 775 718 800 798 850 831 942 921 1012 1059 1037 1071 1090 1147 1192 1166 1256 1272 1237 1332 1308 1314 1398 1458 1397 1418 1493 1453 1525 1559 1630 1633 1625 1555 1641 1577 1561 1595 1484 1608 1539 1527 1576 1553 1595 1570 1546 1474 1423 1468 1486 1474 1452 1466 1344 1440 1398 1431 1410 1422 1436 1470 1503 1457 1540 1504 1488 1545 1591 1581 1619 1707 1586 1620 1722 1631 1702 1719 1800 1765 1779 1843 1902 1848 1985 1935 1928 2000 2026 2021 2040 2024 2075 2077 2003 2031 2030 1896 2028 2014 1905 1871 1891 1841 1764 1788 1663 1657 1731 1609 1581 1531 1419 1474 1342 1385 1297 1337 1242 1273 1194 1195 1115 1100 1080 1030 1009 974 929 881 839 954 857 846 773 773 713 711 715 721 662 700 655 646 683 641 604 630 631 577 658 574 580 548 568 542 528 547 522 602 598 590 545 515 523 568 533 534 539 533 522 506 503 570 502 538 506 522 501 508 531 533 499 487 496 541 518 500 517 520 482 509 459 562 474 512 549 493 538 546 501 512 528 523 488 498 519 525 501 518 555 513 550 505 500 556 564 480 510 505 522 620 587 558 532 554 561 570 541 565 525 570 625 612 615 641 642 614 630 633 613 689 649 694 681 714 724 736 677 682 648 664 680 691 782 701 737 731 781 716 749 782 755 761 757 711 796 717 723 761 768 722 698 741 770 728 718 715 709 659 770 658 742 712 654 668 685 712 722 701 720 635 666 672 638 649 683 629 663 612 604 625 642 642 652 656 627 643 660 628 606 595 605 631 657 654 598 583 619 593 597 602 594 583 604 582 587 608 592 615 568 617 585 591 590 593 576 603 604 579 583 580 611 609 601 557 650 671 586 666 586 661 655 684 621 660 684 700 709 648 665 677 701 723 741 711 742 727 698 739 666 739 671 685 699 710 729 677 681 700 712 664 674 681 692 632 645 655 646 614 685 633 641 591 598 566 556 525 538 542 566 533 565 536 559 501 508 534 514 544 466 512 498 485 480 549 470 489 475 454 489 500 474 496 477 434 444 490 485 464 469 481 447 468 475 488 467 418 447 424 470 477 477 410 473 450 500 467 448 386 474 456 456 474 439 491 429 472 450 433 432 463 398 430 458 453 416 403 416 478 396 428 420 415 435 427 440 429 421 407 393 430 430 444 440 431 443 416 426 418 415 450 464 404 447 421 405 461 425 422 436 436 391 405 500 401 409 413 417 404 431 439 420 436 405 422 416 419 407 441 439 391 442 433 412 407 429 411 434 446 431 447 416 421 442 480 434 435 476 439 388 426 423 394 426 474 416 394 436 409 437 414 404 451 389 404 422 420 418 412 410 426 488 429 447 449 420 425 434 463 419 435 477 432 469 462 456 446 456 469 455 446 496 480 471 478 457 429 488 459 470 467 510 467 510 495 459 494 522 526 465 509 489 449 474 476 540 464 489 474 475 461 474 502 441 448 456 432 433 498 417 437 397 407 421 430 441 425 437 517 433 421 448 426 392 440 415 426 410 401 392 423 407 416 379 397 412 378 417 378 425 375 397 362 387 414 384 400 417 441 391 393 405 392 346 391 390 416 374 452 432 386 365 380 407 374 374 390 381 375 376 380 409 389 406 397 398 366 385 398 378 388 376 424 389 390 375 409 403 359 381 415 411 380 413 392 393 392 350 383 424 370 396 394 370 408 391 386 412 370 438 372 382 388 375 371 413 372 379 384 390 357 378 373 348 425 391 398 386 411 419 417 371 430 392 405 400 378 346 372 400 363 390 376 393 391 372 397 368 382 350 413 376 386 385 398 360 369 352 382 409 396 376 378 388 389 361 384 381 327 419 401 392 392 402 390 388 396 356 395 376 363 400 446 393 406 386 386 366 397 383 388 413 376 431 380 400 424 453 385 401 376 397 384 411 398 370 444 450 396 430 389 410 390 425 377 399 397 392 387 382 423 420 446 422 409 416 458 409 421 391 404 388 415 430 417 404 431 440 441 455 452 453 490 489 482 460 524 479 501 491 512 554 533 580 583 553 597 630 577 589 582 624 626 646 619 645 654 716 666 656 655 647 690 703 721 796 732 747 783 712 690 768 743 722 716 723 661 680 722 718 778 699 689 748 632 690 626 620 695 687 683 616 624 627 652 581 651 631 607 597 598 623 631 720 707 703 687 736 749 708 771 804 824 803 838 883 856 881 884 933 917 974 1043 1012 1073 1013 1098 1082 1061 1108 1106 1118 1181 1244 1214 1168 1202 1212 1194 1156 1159 1148 1135 1147 1079 1095 1057 1023 1007 1001 989 923 919 897 914 854 870 829 783 729 765 743 739 689 687 627 633 594 618 573 559 567 596 552 558 558 504 533 522 464 485 472 453 464 459 483 470 463 413 421 423 429 435 435 408 413 435 396 422 430 389 432 421 386 398 370 398 388 420 358 397 382 408 369 382 415 384 389 392 366 409 358 413 360 401 371 369 372 408 356 381 360 389 378 358 407 373 380 413 367 386 383 383 377 379 379 393 378 360 371 347 395 364 385 414 379 354 384 389 418 380 358 394 372 369 375 389 402 371 376 369 379 373 382 394 392 391 404 377 413 389 389 387 402 399 382 433 433 434 421 432 434 380 434 444 447 435 441 416 456 445 418 517 490 496 500 524 525 521 560 572 592 557 539 565 645 610 647 635 624 659 702 679 680 704 688 702 713 777 727 751 802 721 757 770 774 801 731 759 759 716 743 792 728 746 702 686 715 686 657 706 674 717 664 601 627 687 594 666 585 551 601 609 560 571 527 561 582 594 596 576 558 540 566 579 573 641 562 573 611 672 682 647 675 662 691 757 729 756 739 748 726 776 775 751 813 797 776 824 801 840 824 794 853 857 792 875 897 825 832 846 813 803 813 773 779 832 717 784 782 794 736 744 700 751 707 702 701 674 659 699 729 665 659 644 651 660 651 664 667 692 670 712 678 680 682 714 675 659 646 746 673 671 698 715 659 717 709 658 696 663 641 692 645 566 570 603 610 608 602 587 591 557 528 543 517 512 510 514 514 543 529 499 507 503 467 476 449 499 488 444 448 427 459 451 472 443 420 454 454 419 442 433 404 415 388 416 463 455 458 444 433 412 478 483 474 450 480 476 515 459 496 450 490 475 552 532 522 580 568 583 629 653 699 674 755 721 768 733 750 820 812 806 865 818 834 856 889 904 939 943 1008 1088 1107 1090 1124 1269 1212 1221 1241 1157 1116 1116 1067 1047 983 1066 988 1015 907 990 943 945 912 910 861 837 808 777 732 741 636 639 616 660 633 623 598 568 541 517 536 536 478 513 465 502 463 450 455 430 405 438 457 433 456 459 431 439 411 429 447 427 446 435 444 404 440 431 458 422 431 451 424 441 461 487 467 496 465 461 461 463 476 486 410 436 472 450 512 457 448 477 502 492 474 451 471 458 470 467 477 487 461 468 484 437 464 453 459 433 450 439 426 429 419 409 405 458 397 426 392 456 384 422 410 376 425 382 394 414 415 417 393 414 405 347 379 414 350 373 393 395 387 386 391 396 366 365 374 377 338 415 397 392 376 389 418 379 433 370 428 394 378 412 394 397 394 416 388 389 375 404 406 426 380 387 374 408 409 443 415 407 395 381 418 417 415 438 444 449 437 407 415 427 405 410 424 430 404 443 412 384 438 406 432 418 375 416 437 418 423 414 407 354 396 399 387 374 382 379 410 411 412 430 402 391 387 420 416 385 399 409 408 401 386 425 405 397 396 404 391 394 441 423 438 422 428 399 405 432 450 389 404 436 437 405 412 408 415 415 451 370 419 372 436 404 420 410 379 401 400 404 426 448 424 398 416 393 369 397 413 387 413 380 385 393 384 423 393 360 369 404 395 378 407 361 385 347 348 371 375 333 388 370 376 369 390 354 350 367 363 304 330 335 316 347 349 339 333 360 345 342 389 330 387 362 325 329 388 339 325 364 317 385 339 302 348 329 333 363 336 336 323 342 347 330 359 338 342 332 317 332 304 323 388 363 323 299 318 365 329 368 362 349 322 302 359 327 300 289 345 334 345 333 355 326 297 347 315 301 300 319 323 360 333 295 321 323 349 346 330 365 315 314 309 328 346 330 315 320 327 338 323 322 315 352 334 284 325 324 317 324 324 343 366 311 360 291 304 293 339 317 298 330 317 335 315 342 294 352 295 340 300 302 310 328 301 356 313 340 321 331 336 342 340 315 347 322 333 300 364 349 304 345 324 350 334 336 359 341 324 344 341 340 331 352 354 330 353 361 321 366 333 332 373 343 334 381 337 316 327 386 359 362 360 363 327 346 331 361 342 324 334 332 325 378 387 360 316 343 319 341 387 325 338 329 347 334 330 342 337 320 290 362 299 312 299 326 310 333 322 289 290 331 303 315 313 320 328 328 297 342 296 316 317 284 333 307 312 322 351 291 304 328 322 285 291 336 302 300 331 314 303 318 323 312 310 345 314 349 324 333 322 353 323 342 310 336 351 338 304 301 312 311 289 301 352 315 344 329 309 314 281 326 309 289 316 285 331 306 316 305 322 304 359 320 291 312 287 306 285 332 310 320 339 307 265 301 288 298 274 306 307 335 333 323 298 274 292 329 344 307 310 285 270 319 278 294 311 316 315 330 322 291 322 257 318 277 299 302 317 317 307 289 310 285 295 261 298 301 299 315 327 297 282 304 332 296 271 294 304 271 303 308 309 326 315 297 313 288 320 295 279 334 259 310 296 299 296 298 279 282 282 298 338 329 298 323 323 321 276 324 287 285 280 315 292 306 284 325 283 296 322 304 292 278 292 295 285 318 301 299 318 305 309 276 267 337 288 304 306 304 268 299 309 332 332 316 310 345 303 343 331 332 322 313 336 289 309 340 295 302 312 352 341 313 364 343 345 336 314 349 346 303 347 312 345 357 330 339 324 318 385 356 358 340 369 335 366 352 341 347 389 377 383 394 350 368 390 396 416 386 375 394 445 405 434 407 394 379 424 385 427 393 394 377 385 385 403 367 351 360 420 392 418 385 374 402 378 372 357 346 349 416 395 352 371 316 373 377 336 365 313 348 400 356 368 350 363 397 357 394 326 374 324 338 391 367 358 374 368 393 380 377 420 382 392 373 413 387 424 436 429 394 415 426 469 446 464 500 469 485 517 514 529 519 544 549 551 603 561 583 572 600 581 624 585 540 560 598 564 592 578 546 604 581 613 532 593 553 552 525 496 469 526 512 492 515 486 492 476 473 439 466 457 446 436 440 431 422 420 386 418 396 401 439 370 350 391 372 368 361 357 331 361 380 362 345 339 333 290 345 334 317 332 300 342 321 331 337 343 308 298 296 306 328 286 326 308 337 307 292 312 319 336 315 300 316 291 279 344 317 280 301 289 304 297 320 310 308 309 308 302 326 304 301 306 330 288 287 294 306 307 326 296 276 300 283 341 312 350 284 308 294 305 300 317 284 273 290 295 286 303 308 325 339 283 312 276 287 294 280 299 296 283 298 226 261 262 270 291 328 337 292 314 300 291 272 283 275 318 293 304 260 293 297 299 311 312 294 308 234 308 275 289 292 289 333 293 276 283 249 277 268 264 265 275 312 277 280 292 296 304 299 278 293 270 288 271 303 282 291 304 250 276 249 310 287 283 306 265 300 298 306 292 331 292 298 285 351 287 276 270 289 289 292 274 316 270 298 297 268 290 285 275 267 299 310 278 310 278 316 316 296 295 273 303 328 296 300 322 257 280 296 299 284 306 288 262 274 270 315 257 289 260 316 312 272 291 271 293 276 276 265 240 308 308 302 286 295 279 294 313 267 288 300 281 301 257 318 234 299 290 294 286 232 302 302 285 314 276 294 317 276 278 288 288 289 277 299 266 301 302 306 257 289 248 310 300 309 299 288 302 265 313 295 309 295 292 316 305 290 295 291 281 298 276 279 316 281 319 301 293 289 297 323 314 287 309 301 338 313 329 301 339 309 317 281 327 292 325 314 307 306 289 285 332 317 336 297 332 297 325 307 289 319 341 302 322 308 340 304 329 295 319 276 300 338 320 276 298 314 310 317 311 319 335 284 330 366 324 310 323 285 332 300 344 292 319 324 324 304 308 314 315 292 316 317 297 308 354 297 301 323 290 289 263 297 299 311 303 322 278 315 319 274 310 327 303 312 318 294 314 290 332 285 284 285 321 299 286 294 288 311 284 312 302 302 298 264 286 333 293 324 294 320 308 288 296 279 276 319 314 289 307 292 284 269 280 285 287 311 309 328 302 313 288 269 287 301 270 296 268 307 301 268 313 306 314 294 294 318 314 305 337 308 284 297 272 272 304 279 294 325 309 290 338 313 307 312 314 310 313 302 298 343 305 285 290 312 327 338 306 269 309 299 280 312 308 354 319 335 335 332 321 293 339 331 336 311 311 314 332 319 301 309 329 327 333 320 319 327 308 309 323 329 298 323 302 324 348 346 317 318 312 326 351 341 326 348 307 310 334 329 355 337 308 320 340 328 326 316 336 344 377 327 379 349 367 369 358 350 334 379 324 315 335 357 373 391 353 377 377 392 399 378 393 382 400 370 405 390 359 391 433 370 411 382 368 441 375 362 365 370 384 422 388 399 370 362 367 373 378 404 404 351 391 332 390 357 354 391 379 412 364 370 373 378 345 385 350 373 338 359 346 333 347 351 328 391 339 346 319 332 350 325 321 373 328 331 400 347 326 341 327 349 367 345 334 332 311 322 349 335 359 366 355 324 354 397 383 363 366 409 402 380 399 404 461 467 405 454 445 477 466 543 489 510 472 569 511 586 523 583 546 516 541 551 548 539 594 541 586 551 589 560 583 573 598 556 586 555 532 523 496 523 548 518 525 441 510 476 510 484 444 503 465 456 471 425 432 428 481 404 451 401 434 401 398 412 394 380 370 374 438 370 373 360 345 388 317 346 321 364 357 346 334 382 357 337 341 343 365 366 320 391 352 315 319 359 371 341 381 357 400 347 400 356 387 352 363 349 338 347 360 357 348 344 360 363 359 394 375 354 392 383 377 401 344 385 362 406 374 446 391 441 400 464 449 449 473 423 460 465 472 476 497 471 473 481 548 506 537 502 502 481 531 521 523 523 537 546 540 601 568 581 578 579 605 613 631 594 623 586 551 624 606 604 629 591 637 607 643 605 640 616 633 643 640 696 645 622 633 572 564 561 583 525 545 536 508 525 502 492 500 511 524 456 475 504 479 478 470 500 461 444 489 470 444 477 432 441 425 435 334 423 446 440 377 439 428 433 468 433 450 451 425 465 454 476 506 475 511 467 509 553 553 547 575 558 568 609 571 639 637 661 600 632 682 646 653 699 688 718 689 684 700 647 683 682 687 705 690 697 717 685 659 659 681 668 669 686 634 618 687 652 639 674 617 617 614 604 632 587 581 603 565 553 580 577 548 554 541 556 543 582 554 555 476 520 516 501 489 505 482 519 508 408 467 456 483 456 473 470 420 432 437 391 400 422 417 431 399 405 440 430 401 382 357 384 376 385 359 347 331 379 342 374 370 376 365 360 318 390 339 352 325 320 330 337 338 320 359 327 344 315 299 321 322 320 344 324 334 336 300 309 313 317 304 329 319 303 317 307 338 317 319 329 317 310 307 305 334 302 342 305 330 334 314 303 326 297 349 346 310 315 288 313 329 352 316 298 287 270 300 317 310 318 275 329 324 304 322 315 314 292 327 308 305 308 302 308 260 313 311 332 311 297 329 315 323 295 348 340 308 314 318 338 314 335 331 350 329 323 298 337 354 339 325 335 302 322 313 301 317 343 312 297 299 309 308 323 318 286 266 314 341 321 307 316 332 303 314 305 307 288 351 306 289 339 324 341 321 308 315 304 315 292 286 317 331 300 289 276 303 319 339 323 280 271 327 291 304 296 314 316 293 319 300 331 326 356 306 303 313 298 332 312 318 315 311 277 281 310 298 276 308 288 296 298 322 304 311 319 287 312 325 308 321 345 297 299 292 325 304 337 319 294 322 307 349 290 279 296 317 303 317 319 321 277 347 295 321 323 286 316 322 336 333 295 340 350 331 327 321 355 359 373 361 361 349 314 340 326 396 356 375 372 341 346 342 377 370 351 366 341 353 363 352 367 372 378 348 360 328 413 392 410 416 389 365 391 417 390 438 405 404 411 418 431 376 372 397 411 418 412 412 411 424 422 367 406 408 399 377 388 389 358 366 417 375 351 349 355 431 387 386 353 374 415 352 372 352 349 353 378 360 320 371 373 320 360 319 357 314 335 301 354 348 311 322 337 334 345 303 357 286 314 333 324 292 311 355 307 294 352 285 309 290 320 298 291 294 321 309 293 301 326 306 321 353 305 304 275 319 291 320 314 301 290 277 316 320 321 320 368 279 357 303 314 321 315 321 307 303 303 314 304 305 352 328 327 330 335 288 316 332 302 336 320 302 291 294 302 289 291 329 305 304 346 330 330 326 316 320 332 332 368 330 301 334 327 343 310 364 323 306 340 357 322 323 331 341 336 319 331 345 339 342 346 361 335 337 341 364 314 360 349 332 360 322 357 351 321 348 339 360 358 378 361 364 337 363 397 311 337 367 361 339 355 315 351 331 330 316 325 315 330 331 335 335 336 316 349 359 363 345 327 323 330 308 305 335 361 320 320 293 351 293 330 350 333 375 328 309 327 330 284 325 332 317 315 303 315 318 305 308 297 306 333 328 298 326 322 306 288 305 325 295 340 312 345 329 311 296 275 348 329 326 314 300 315 276 325 315 324 288 304 299 301 312 299 348 329 345 330 308 293 295 332 316 300 333 312 319 288 341 327 290 345 304 295 327 315 331 311 296 342 298 334 348 290 335 309 283 310 321 300 309 325 315 301 273 276 313 307 301 285 311 280 341 270 321 333 287 282 292 289 315 309 309 312 307 302 294 321 307 320 306 310 294 303 301 309 312 284 301 328 313 340 295 294 328 302 256 341 290 301 291 315 322 300 310 302 353 320 302 337 291 352 299 335 333 277 318 314 300 293 318 304 327 306 341 306 295 271 346 301 315 306 306 349 299 322 317 280 339 297 339 313 299 324 313 321 313 362 330 332 344 326 339 316 334 335 337 347 319 318 312 324 348 322 352 336 312 369 383 337 334 353 353 351 358 373 407 395 377 384 384 418 472 451 416 411 455 456 415 459 455 472 437 389 446 431 456 468 437 451 424 447 449 486 414 436 438 440 392 425 452 430 449 403 414 420 399 422 428 424 425 410 413 419 429 430 408 395 410 370 345 358 394 350 360 390 417 402 388 360 353 360 366 348 339 388 337 403 325 336 335 354 338 338 369 351 340 344 321 298 370 332 321 350 347 322 357 325 333 357 316 382 317 313 339 332 356 361 348 344 342 343 353 361 376 341 325 381 360 339 398 411 354 407 374 393 397 420 390 412 443 449 443 423 432 478 487 487 497 519 509 530 541 557 574 578 611 612 603 590 627 601 553 628 606 562 566 537 552 567 584 547 626 597 558 581 597 576 542 579 519 563 544 574 525 574 504 549 524 481 507 500 459 515 456 497 462 504 450 469 499 444 452 473 426 405 454 450 411 417 424 409 411 456 437 403 381 398 412 408 415 396 388 382 425 390 372 367 362 377 382 414 399 401 388 409 380 388 367 380 394 378 402 389 414 418 349 364 338 418 370 382 427 358 369 373 373 356 367 360 368 361 359 343 367 358 305 322 329 312 375 348 337 370 331 340 347 346 365 347 346 347 368 354 286 295 300 294 292 326 309 314 329 327 307 324 286 326 289 286 293 314 282 332 314 323 309 310 316 306 331 275 290 278 317 364 323 333 310 309 289 307 327 321 318 275 307 292 309 323 344 314 315 311 297 337 319 316 301 327 299 303 328 369 316 328 301 332 330 326 323 306 326 291 313 349 347 306 349 278 314 347 299 304 335 285 327 316 311 338 350 283 310 287 352 311 346 301 334 333 306 326 319 334 298 298 317 314 291 297 348 299 325 324 294 328 315 334 307 341 342 352 345 352 332 325 333 308 330 313 279 330 312 304 319 331 331 302 312 326 333 336 324 344 319 323 327 326 337 317 309 329 315 342 328 321 324 336 308 332 325 339 320 310 338 354 327 378 337 356 354 346 323 382 371 368 367 400 395 372 401 401 365 422 385 400 369 369 412 386 374 425 397 386 399 420 407 463 387 404 379 419 388 403 414 386 380 397 394 376 426 368 408 374 372 388 398 396 370 368 397 369 364 367 411 354 380 368 383 373 388 356 358 386 350 376 372 343 381 331 355 344 356 358 349 313 286 353 345 306 325 333 346 307 332 312 314 357 311 350 287 303 332 337 334 360 352 320 322 309 274 328 333 302 320 316 296 285 315 316 344 310 284 303 321 299 308 316 308 318 310 284 303 299 334 289 308 316 319 303 307 320 315 321 307 327 311 302 296 320 299 294 289 323 286 334 302 310 293 300 291 270 316 345 297 282 308 311 302 329 280 310 314 336 304 283 339 328 267 300 317 284 301 338 286 325 348 312 324 315 306 311 319 318 296 299 325 311 315 321 317 306 343 286 304 321 355 332 322 322 308 344 322 346 368 317 339 312 292 329 312 408 351 338 327 344 324</counts>
			</dataPoints>
		</scan>
	</xrdMeasurement>
</xrdMeasurements>
