<?xml version="1.0"?>
<xrdMeasurements xmlns="http://www.xrdml.com/XRDMeasurement/2.3" xmlns:xsi="http://www.w3.org/2001/XMLSchema-instance" xsi:schemaLocation="http://www.xrdml.com/XRDMeasurement/2.3 http://www.xrdml.com/XRDMeasurement/2.3/XRDMeasurement.xsd" status="Completed" recordIdentifier="{08BFE62F-50D2-4617-AD50-1B2DF6FB9D41}">
	<comment>
		<entry/>
	</comment>
	<sample type="To be analyzed">
		<id>GPSS_Li1p5Co0p5V0p5Cl4_110125_69065e22e3432ed06b655fa3</id>
		<name></name>
		<preparedBy></preparedBy>
	</sample>
	<xrdMeasurement measurementType="Scan" status="Completed" sampleMode="Reflection">
		<usedWavelength intended="K-Alpha 1">
			<kAlpha1 unit="Angstrom">1.5405980</kAlpha1>
			<kAlpha2 unit="Angstrom">1.5444260</kAlpha2>
			<kBeta unit="Angstrom">1.3922500</kBeta>
			<ratioKAlpha2KAlpha1>0.5000</ratioKAlpha2KAlpha1>
		</usedWavelength>
		<incidentBeamPath>
			<radius unit="mm">145.00</radius>
			<xRayTube id="1010048" name="Empyrean Cu LFF HR (9430 033 7310x)">
				<tension unit="kV">40.0</tension>
				<current unit="mA">15.0</current>
				<anodeMaterial>Cu</anodeMaterial>
				<focus type="Line">
					<length unit="mm">12.0</length>
					<width unit="mm">0.4</width>
					<takeOffAngle unit="deg">6.0</takeOffAngle>
				</focus>
			</xRayTube>
			<sollerSlit id="21010002" name="Soller slits 0.04 rad.">
				<opening unit="rad">0.0400</opening>
			</sollerSlit>
			<mask id="22031000" name="Fixed mask 13 mm">
				<width unit="mm">9.00</width>
			</mask>
			<divergenceSlit id="22120001" name="Divergence slit 1°" xsi:type="fixedDivergenceSlitType">
				<distanceToSample unit="mm">50.00</distanceToSample>
				<height unit="mm">1.52</height>
			</divergenceSlit>
		</incidentBeamPath>
		<sampleMovement xsi:type="spinningSampleMovementType">
			<spinnerRevolutionTime unit="seconds">1.0</spinnerRevolutionTime>
		</sampleMovement>
		<diffractedBeamPath>
			<radius unit="mm">145.00</radius>
			<antiScatterSlit id="22090040" name="AS slit 9 mm (PIXcel)" xsi:type="fixedAntiScatterSlitType">
				<height unit="mm">9.00</height>
			</antiScatterSlit>
			<sollerSlit id="21020003" name="Large Soller slits 0.04 rad.">
				<opening unit="rad">0.0400</opening>
			</sollerSlit>
			<filter id="20030001" name="Large beta-filter Nickel">
				<material>Ni</material>
				<thickness unit="mm">0.020</thickness>
			</filter>
			<detector id="7010019" name="PIXcel1D-Medipix3 detector" xsi:type="rtmsDetectorType">
				<phd unit="keV">
					<lowerLevel>4.02</lowerLevel>
					<upperLevel>11.27</upperLevel>
				</phd>
				<mode>Scanning</mode>
				<activeLength unit="deg">5.542</activeLength>
			</detector>
		</diffractedBeamPath>
		<scan appendNumber="0" mode="Continuous" scanAxis="Gonio" status="Completed">
			<header>
				<startTimeStamp>2025-11-03T14:44:40-08:00</startTimeStamp>
				<endTimeStamp>2025-11-03T14:52:47-08:00</endTimeStamp>
				<author>
					<name>AutomatedUser</name>
				</author>
				<source>
					<applicationSoftware version="1.7b (136)">PANalytical Aeris Instrument Suite</applicationSoftware>
					<instrumentControlSoftware version="3.2.00000000 20240306">AERIS</instrumentControlSoftware>
					<instrumentID>950485</instrumentID>
				</source>
			</header>
			<dataPoints>
				<positions axis="2Theta" unit="deg">
					<startPosition>10.00943322</startPosition>
					<endPosition>99.99442286</endPosition>
				</positions>
				<positions axis="Omega" unit="deg">
					<startPosition>5.00471661</startPosition>
					<endPosition>49.99721143</endPosition>
				</positions>
				<commonCountingTime unit="seconds">12.495</commonCountingTime>
				<counts unit="counts">3018 3209 3247 3149 3156 3195 3266 3342 3041 3100 3222 3151 3143 3239 3126 3233 3193 3098 3190 3199 3156 3222 3097 3298 3199 3177 3196 3284 3238 3253 3223 3169 3243 3144 3218 3239 3240 3244 3215 3322 3345 3252 3224 3299 3271 3356 3258 3314 3388 3227 3259 3204 3373 3352 3217 3312 3388 3374 3314 3357 3362 3234 3347 3396 3430 3409 3400 3378 3379 3381 3396 3334 3450 3361 3403 3375 3490 3290 3236 3334 3492 3396 3383 3412 3457 3471 3419 3302 3332 3593 3507 3455 3424 3322 3479 3458 3543 3374 3414 3536 3352 3493 3421 3526 3505 3490 3518 3519 3645 3481 3364 3531 3371 3491 3454 3562 3613 3493 3539 3468 3481 3501 3628 3537 3423 3539 3457 3550 3376 3692 3437 3463 3495 3539 3551 3527 3604 3392 3492 3568 3506 3565 3547 3500 3500 3436 3610 3618 3539 3484 3590 3572 3430 3584 3614 3512 3616 3477 3551 3514 3482 3562 3503 3536 3642 3595 3484 3599 3484 3495 3629 3520 3600 3530 3590 3405 3527 3601 3635 3601 3520 3519 3609 3498 3515 3501 3502 3508 3552 3515 3596 3624 3489 3453 3506 3618 3464 3367 3471 3505 3564 3564 3573 3485 3545 3451 3569 3467 3462 3479 3565 3475 3509 3506 3413 3512 3498 3494 3445 3501 3420 3531 3479 3515 3421 3556 3535 3483 3560 3444 3561 3451 3441 3435 3477 3378 3455 3546 3533 3436 3397 3365 3371 3437 3467 3502 3521 3384 3450 3462 3369 3429 3345 3409 3518 3456 3499 3382 3483 3474 3410 3529 3376 3408 3470 3501 3419 3495 3381 3546 3439 3447 3418 3375 3362 3444 3459 3374 3311 3440 3423 3419 3544 3432 3465 3395 3549 3501 3514 3369 3511 3528 3527 3488 3531 3484 3557 3499 3501 3523 3381 3540 3548 3500 3595 3593 3562 3454 3489 3592 3453 3526 3545 3573 3510 3505 3424 3488 3492 3570 3540 3561 3651 3566 3589 3571 3565 3594 3653 3573 3615 3722 3495 3594 3583 3596 3543 3570 3622 3612 3548 3655 3719 3651 3717 3657 3681 3635 3559 3697 3681 3670 3686 3790 3708 3775 3780 3634 3823 3710 3725 3795 3676 3731 3762 3794 3819 3720 3796 3755 3831 3773 3826 3772 3796 3792 3811 3847 3906 3920 3932 3872 3749 3876 3853 3935 3983 3771 3876 3966 3823 3822 3919 3936 4037 3873 3880 3830 3939 3885 3930 3907 3983 3988 4093 3929 3951 3930 3975 3951 3890 3992 4028 4064 4020 3918 3989 4084 4059 3932 3920 3911 3959 4122 3987 4097 4034 4079 4164 3994 4028 4229 4032 4176 4089 4217 4347 4225 4280 4277 4304 4326 4351 4274 4229 4324 4210 4310 4267 4205 4349 4381 4383 4350 4392 4380 4529 4411 4460 4623 4521 4672 4632 4652 4617 4576 4765 4494 4703 4646 4640 4671 4675 4630 4527 4578 4602 4422 4561 4582 4642 4501 4550 4756 4690 4530 4608 4520 4484 4721 4557 4496 4628 4516 4470 4635 4468 4442 4406 4418 4369 4382 4348 4319 4345 4337 4277 4262 4383 4172 4299 4322 4340 4252 4101 4192 4033 4009 3960 3929 3747 3818 3808 3912 3748 3725 3779 3830 3690 3630 3710 3670 3519 3615 3643 3621 3652 3739 3557 3725 3638 3662 3581 3564 3694 3583 3676 3581 3551 3556 3648 3585 3589 3504 3652 3557 3553 3541 3513 3572 3591 3590 3449 3422 3477 3497 3586 3393 3481 3397 3444 3385 3541 3618 3467 3542 3431 3443 3542 3451 3413 3400 3333 3423 3419 3410 3473 3517 3406 3483 3370 3515 3389 3444 3390 3434 3422 3427 3347 3371 3337 3415 3419 3479 3425 3389 3538 3405 3340 3408 3365 3360 3338 3394 3349 3383 3474 3374 3365 3412 3455 3414 3352 3314 3400 3374 3392 3432 3441 3385 3298 3331 3227 3366 3302 3469 3342 3403 3334 3388 3424 3456 3479 3371 3458 3428 3483 3488 3481 3501 3434 3401 3548 3449 3454 3330 3442 3489 3439 3394 3391 3377 3448 3406 3363 3415 3354 3364 3435 3441 3440 3432 3230 3211 3377 3420 3317 3327 3396 3333 3273 3380 3395 3386 3442 3386 3298 3314 3354 3426 3334 3298 3377 3293 3310 3344 3453 3366 3418 3379 3289 3299 3382 3391 3487 3267 3192 3317 3252 3320 3336 3317 3205 3297 3326 3216 3358 3255 3332 3138 3272 3219 3243 3277 3265 3163 3157 3208 3287 3275 3359 3258 3229 3286 3334 3302 3212 3257 3244 3284 3138 3217 3200 3233 3203 3238 3211 3194 3170 3252 3147 3238 3196 3276 3132 3141 3240 3320 3181 3310 3275 3213 3270 3177 3137 3183 3214 3226 3084 3144 3239 3244 3133 3259 3225 3177 3156 3206 3175 3205 3123 3182 3186 3262 3140 3148 3176 3134 3110 3148 3128 3236 3174 3223 3125 3216 3122 3184 3132 3187 3152 3175 3130 3118 3132 3139 3023 3250 3109 3189 3168 3144 3112 3126 3270 3041 3094 3039 3153 3072 3199 3240 3156 3083 3142 3164 3064 3036 3176 2957 3161 3095 3005 3183 3052 3140 3162 3216 3127 3140 3134 3095 2957 3151 3056 3045 3095 3178 3038 3101 3104 3095 3055 3117 3105 3056 3148 3141 3071 3099 3067 2984 3162 3039 3088 3096 3124 3049 3006 3028 3060 3053 3063 3013 3027 3073 2961 3059 3015 3035 3078 3038 3065 3101 3067 3108 3128 3010 3045 3005 3062 3026 3053 2991 3026 2998 3000 3027 2965 3048 2951 2987 3052 3022 3039 3122 3013 2986 2970 2957 3090 3104 2979 2943 2968 2968 3027 2929 2944 2936 2975 2936 2951 2918 2919 2947 2941 2929 2855 2969 2898 2992 3002 2962 2935 3009 2911 2965 3011 2945 2909 3016 2918 2928 2949 2954 2930 2945 2994 2967 2966 2945 2919 2961 2851 2956 2868 2911 2908 2867 2951 3006 3012 2961 2992 2976 2993 2956 2909 2947 2953 2973 2911 2901 2938 2912 2842 2908 2892 2876 2977 2917 2942 2934 2951 2963 2969 2890 2953 2972 2893 2950 2840 2817 2888 2848 2933 2902 2904 2844 2927 2829 3012 3082 2891 2902 2903 2957 3019 2965 2926 2935 3004 2867 2791 2955 2967 2926 2931 2897 2978 2992 2936 2836 2957 2912 2897 2913 2893 2874 2999 2857 2835 2920 2855 2925 2888 2836 3066 2855 2885 2866 2945 2912 2856 2886 2764 3021 2856 2942 2912 2912 3020 2933 2950 3021 2883 2962 2987 2977 2954 3042 2926 2920 2916 2978 2938 2952 3000 2866 2904 2813 2856 2853 2897 2887 2918 2861 2944 3025 2939 2990 2910 2895 2886 2922 2831 2867 2923 3048 2833 2964 2860 2918 2908 3004 2896 2871 2990 2890 2941 2916 2934 2893 2832 2902 2900 2929 2965 2920 2811 2846 2831 2871 2858 2861 2806 2895 2941 2899 2895 2824 2935 2744 2866 2763 2814 2911 2849 2792 2837 2845 2755 2797 2843 2805 2758 2790 2812 2801 2943 2656 2782 2905 2841 2803 2859 2814 2925 2877 2856 2821 2796 2919 2789 2724 2855 2763 2819 2771 2826 2902 2777 2745 2810 2784 2743 2682 2701 2784 2731 2805 2714 2672 2775 2750 2733 2746 2725 2666 2786 2691 2703 2753 2790 2699 2677 2645 2542 2716 2675 2711 2729 2704 2626 2655 2640 2710 2647 2587 2654 2635 2623 2559 2657 2668 2659 2642 2528 2546 2574 2601 2542 2531 2501 2542 2477 2564 2519 2616 2556 2502 2515 2478 2481 2458 2511 2553 2454 2459 2564 2566 2496 2495 2519 2501 2473 2390 2525 2422 2406 2345 2436 2470 2489 2473 2359 2416 2425 2460 2427 2445 2329 2384 2455 2433 2458 2398 2369 2474 2408 2433 2407 2421 2539 2341 2386 2481 2453 2286 2344 2402 2430 2501 2340 2375 2369 2399 2424 2337 2323 2336 2290 2357 2359 2388 2364 2308 2338 2406 2463 2320 2297 2311 2378 2385 2343 2374 2339 2352 2269 2187 2422 2288 2366 2259 2311 2366 2316 2384 2312 2386 2330 2396 2260 2332 2338 2232 2410 2347 2343 2310 2447 2425 2336 2389 2271 2426 2338 2256 2279 2321 2240 2287 2331 2365 2280 2351 2297 2325 2297 2415 2385 2311 2273 2349 2378 2372 2333 2362 2336 2317 2272 2282 2417 2314 2328 2287 2263 2278 2422 2335 2320 2285 2431 2274 2322 2274 2268 2307 2249 2232 2272 2364 2465 2296 2402 2321 2307 2306 2358 2365 2348 2370 2270 2265 2356 2240 2338 2323 2396 2386 2272 2271 2280 2239 2197 2276 2314 2241 2273 2317 2301 2310 2322 2241 2270 2281 2290 2235 2227 2206 2317 2311 2297 2294 2231 2171 2357 2235 2264 2272 2370 2300 2332 2260 2255 2238 2298 2294 2291 2170 2223 2286 2221 2339 2333 2225 2216 2287 2228 2315 2288 2189 2303 2125 2158 2213 2201 2277 2327 2219 2313 2216 2368 2269 2323 2282 2231 2363 2195 2287 2275 2294 2267 2278 2257 2224 2331 2330 2234 2297 2339 2333 2250 2266 2228 2204 2290 2272 2376 2250 2332 2240 2242 2274 2275 2304 2212 2313 2249 2260 2297 2296 2292 2256 2270 2331 2217 2235 2219 2225 2263 2210 2344 2267 2158 2219 2240 2182 2253 2218 2257 2254 2237 2261 2264 2231 2224 2266 2222 2241 2256 2223 2210 2176 2241 2205 2193 2139 2249 2258 2133 2246 2147 2186 2088 2214 2128 2124 2113 2269 2177 2243 2210 2113 2207 2137 2154 2205 2122 2156 2195 2090 2134 2214 2099 2106 2139 2185 2121 2182 2151 2091 2190 2104 2151 2100 2058 2147 2153 2038 2166 2074 2157 2113 2119 2083 2057 2162 2050 2183 2106 2100 2061 2038 2143 2035 2038 2044 2128 1984 2040 2093 2018 2066 2015 2108 2063 1940 1968 2033 1973 1988 2007 1992 2005 2120 1932 1992 1988 1981 1974 1977 2016 1995 1930 2006 1972 1940 1973 1984 1923 2063 1959 1998 1905 1962 1954 1975 1970 1899 1943 1881 1964 1870 2066 1978 1942 1918 1957 1895 1913 1825 1888 1873 1947 1969 1901 1900 1987 1892 1867 1835 1956 1940 1880 1911 1828 1891 1882 1849 1869 1927 1883 1879 1849 1884 1869 1911 1896 1902 1891 1782 1827 1832 1806 1903 1915 1944 1852 1853 1959 1837 1831 1970 1830 1836 1857 1851 1926 1925 1862 1848 1854 1741 1831 1914 1923 1852 1846 1860 1806 1923 1901 1831 1820 1884 1758 1916 1874 1910 1964 1873 1927 1874 1930 1970 1912 1911 1906 1905 1839 1910 1882 1858 1890 1834 1816 1864 1850 1949 1827 1807 1975 1916 1826 1888 1935 1922 1885 1918 1829 1875 1940 1881 1924 1884 1829 1843 1876 1866 1895 1915 1888 1886 1853 1915 1937 1950 1883 1891 1875 1986 1946 2001 1891 1919 1986 1890 1894 1931 1908 1925 1906 2036 1988 1987 1904 1890 1886 1930 1943 1917 1937 1905 1814 1915 1879 1901 1920 1839 1867 1860 1853 1816 1816 1893 1843 1870 1828 1761 1779 1866 1922 1788 1843 1890 1885 1918 1796 1859 1854 1845 1782 1844 1826 1785 1822 1882 1835 1876 1873 1905 1848 1907 2052 2128 2073 2169 2115 2361 2244 2318 2335 2453 2425 2469 2294 2414 2290 2288 2291 2208 2170 2176 2122 1954 2110 1994 2069 2016 2034 2023 2013 1903 2058 1989 1982 2001 2046 2063 1975 2039 2005 1972 1994 1990 1907 2018 2027 1947 2017 2001 2119 2021 2078 2012 2028 1977 2032 2025 2104 2066 2037 2088 2068 2051 2023 2057 2032 2014 2008 1949 1987 1937 2010 1911 1853 1784 1934 1842 1790 1755 1842 1837 1824 1760 1740 1777 1735 1769 1710 1699 1723 1698 1713 1690 1643 1673 1660 1648 1666 1726 1690 1760 1649 1642 1632 1706 1682 1665 1699 1662 1717 1691 1749 1621 1694 1584 1680 1538 1562 1660 1531 1687 1600 1620 1641 1606 1562 1508 1558 1607 1612 1588 1646 1577 1639 1545 1634 1593 1572 1613 1506 1591 1579 1627 1603 1568 1592 1594 1603 1598 1535 1598 1627 1614 1498 1538 1579 1562 1533 1525 1544 1450 1571 1591 1594 1510 1635 1597 1597 1532 1530 1496 1482 1564 1589 1573 1511 1573 1503 1525 1566 1555 1571 1533 1579 1581 1593 1520 1595 1544 1552 1532 1541 1558 1590 1560 1538 1552 1510 1596 1616 1583 1644 1551 1527 1499 1556 1544 1555 1604 1474 1556 1579 1452 1518 1537 1587 1530 1598 1598 1567 1586 1453 1572 1525 1571 1528 1480 1473 1592 1515 1577 1558 1465 1544 1520 1624 1497 1511 1497 1601 1611 1520 1576 1528 1502 1473 1553 1554 1541 1546 1574 1527 1615 1537 1495 1610 1497 1530 1511 1596 1598 1548 1561 1519 1590 1557 1602 1580 1508 1602 1581 1566 1554 1661 1582 1549 1622 1595 1572 1591 1563 1607 1509 1553 1597 1546 1611 1538 1627 1578 1557 1570 1562 1638 1597 1637 1492 1556 1515 1626 1585 1685 1654 1653 1542 1700 1653 1701 1583 1642 1673 1664 1585 1695 1572 1656 1705 1636 1646 1581 1583 1547 1592 1595 1665 1682 1622 1590 1627 1535 1648 1622 1624 1600 1590 1631 1621 1592 1612 1659 1621 1650 1602 1602 1617 1585 1686 1559 1667 1606 1604 1611 1645 1617 1594 1593 1578 1591 1553 1584 1612 1661 1649 1624 1579 1562 1565 1566 1549 1571 1524 1530 1558 1513 1552 1547 1581 1587 1588 1517 1549 1538 1566 1530 1568 1517 1517 1582 1528 1567 1587 1549 1542 1540 1544 1562 1577 1500 1593 1576 1496 1587 1575 1510 1615 1557 1577 1591 1607 1589 1575 1579 1581 1621 1537 1458 1533 1627 1593 1583 1621 1571 1630 1633 1626 1649 1720 1767 1604 1644 1682 1774 1743 1797 1844 1786 1810 1933 1970 1973 2046 2047 2087 2226 2311 2470 2630 2594 2832 2800 2826 2864 2947 2901 3071 3078 2933 3007 2837 2936 2832 2811 2712 2758 2762 2625 2674 2553 2532 2632 2492 2576 2572 2655 2700 2677 2716 2663 2609 2788 2761 2574 2651 2599 2600 2517 2517 2458 2449 2437 2362 2274 2386 2259 2374 2373 2311 2363 2359 2182 2236 2234 2144 2114 2224 2226 2114 2305 2215 2195 2260 2208 2293 2323 2250 2340 2299 2335 2313 2276 2350 2273 2277 2344 2242 2259 2197 2132 2279 2051 2174 1988 1983 1988 2011 1965 1911 1964 1871 1861 1801 1902 1889 1775 1841 1780 1828 1762 1712 1798 1765 1797 1721 1786 1780 1786 1692 1866 1765 1723 1721 1702 1710 1635 1691 1636 1610 1651 1644 1580 1621 1621 1557 1500 1634 1504 1620 1494 1476 1479 1543 1453 1412 1492 1493 1420 1484 1412 1503 1395 1385 1422 1471 1430 1382 1471 1412 1427 1411 1401 1383 1338 1451 1416 1384 1374 1421 1448 1458 1393 1428 1435 1399 1392 1348 1459 1370 1439 1417 1412 1377 1349 1423 1427 1331 1371 1370 1375 1387 1474 1328 1424 1369 1346 1358 1355 1378 1390 1415 1388 1336 1436 1351 1346 1377 1395 1312 1359 1337 1383 1421 1376 1388 1379 1323 1334 1432 1358 1335 1364 1359 1329 1368 1397 1400 1421 1399 1315 1334 1300 1373 1391 1341 1357 1410 1423 1331 1359 1366 1392 1317 1272 1333 1367 1376 1428 1309 1309 1244 1339 1365 1424 1412 1372 1368 1291 1353 1384 1329 1350 1404 1413 1330 1323 1349 1336 1352 1321 1309 1361 1341 1346 1350 1337 1325 1324 1370 1325 1233 1286 1370 1365 1295 1290 1310 1304 1342 1333 1350 1275 1265 1332 1318 1348 1339 1323 1336 1307 1331 1319 1231 1284 1296 1287 1307 1310 1321 1256 1342 1384 1280 1309 1301 1299 1274 1369 1401 1387 1300 1323 1297 1370 1363 1328 1304 1261 1288 1315 1386 1293 1361 1359 1348 1297 1259 1290 1348 1346 1318 1316 1332 1341 1310 1379 1326 1369 1317 1362 1323 1302 1295 1346 1313 1400 1364 1302 1383 1352 1312 1374 1339 1245 1281 1333 1357 1255 1225 1406 1292 1331 1318 1303 1353 1295 1285 1297 1382 1309 1352 1359 1331 1351 1310 1326 1326 1341 1308 1309 1248 1360 1252 1291 1282 1372 1311 1238 1287 1285 1355 1357 1307 1327 1267 1219 1329 1316 1386 1330 1342 1329 1344 1332 1337 1295 1253 1291 1291 1332 1301 1343 1348 1285 1361 1252 1319 1217 1363 1312 1267 1297 1357 1381 1354 1278 1326 1284 1272 1331 1276 1268 1340 1273 1343 1240 1340 1231 1285 1249 1307 1233 1272 1323 1328 1343 1330 1320 1290 1295 1289 1261 1279 1292 1277 1312 1272 1275 1297 1197 1297 1212 1295 1319 1293 1308 1280 1251 1302 1245 1311 1257 1278 1241 1214 1292 1224 1246 1260 1242 1261 1248 1301 1295 1220 1255 1204 1256 1186 1219 1260 1227 1185 1198 1198 1195 1233 1287 1266 1276 1244 1212 1298 1263 1190 1319 1273 1245 1240 1149 1217 1238 1193 1278 1165 1228 1244 1257 1189 1243 1230 1229 1250 1221 1251 1186 1248 1194 1292 1303 1288 1304 1283 1206 1291 1214 1271 1180 1283 1265 1335 1172 1252 1191 1234 1223 1182 1199 1182 1262 1256 1351 1254 1209 1201 1302 1254 1302 1245 1209 1201 1244 1139 1250 1278 1238 1219 1231 1273 1281 1194 1298 1213 1181 1250 1212 1297 1225 1199 1182 1205 1270 1308 1227 1209 1210 1214 1219 1230 1216 1181 1210 1266 1228 1196 1212 1198 1234 1258 1201 1253 1243 1229 1248 1228 1250 1214 1249 1222 1176 1185 1226 1247 1177 1210 1217 1227 1197 1201 1225 1272 1246 1152 1235 1190 1260 1199 1165 1193 1225 1227 1228 1297 1210 1182 1168 1257 1205 1196 1210 1181 1258 1247 1239 1190 1170 1227 1210 1217 1202 1217 1159 1189 1223 1198 1166 1235 1248 1256 1218 1265 1209 1210 1236 1178 1219 1201 1193 1216 1184 1193 1195 1255 1217 1188 1248 1299 1226 1201 1203 1275 1226 1233 1222 1232 1220 1253 1185 1195 1200 1176 1194 1252 1184 1181 1260 1195 1212 1194 1209 1196 1182 1196 1168 1227 1247 1264 1228 1206 1249 1257 1244 1241 1235 1206 1184 1178 1190 1215 1198 1145 1260 1244 1258 1231 1200 1231 1202 1234 1198 1233 1224 1277 1168 1227 1288 1237 1180 1240 1253 1239 1184 1233 1274 1252 1249 1257 1253 1161 1209 1158 1224 1234 1269 1237 1285 1199 1319 1205 1215 1290 1180 1246 1281 1267 1297 1292 1274 1235 1256 1269 1245 1157 1319 1297 1274 1264 1270 1319 1286 1299 1276 1231 1239 1237 1305 1263 1240 1321 1252 1213 1198 1250 1259 1281 1276 1219 1139 1249 1294 1205 1281 1201 1198 1302 1204 1260 1215 1184 1186 1216 1214 1229 1249 1160 1305 1222 1304 1236 1211 1204 1189 1244 1256 1235 1179 1171 1165 1164 1182 1221 1190 1170 1194 1188 1179 1147 1202 1186 1198 1198 1190 1211 1184 1208 1205 1166 1176 1292 1194 1263 1213 1180 1188 1168 1146 1178 1093 1191 1110 1154 1209 1196 1200 1201 1110 1218 1150 1150 1180 1113 1164 1149 1126 1183 1214 1165 1215 1239 1208 1163 1206 1158 1192 1120 1225 1116 1171 1166 1164 1162 1157 1159 1088 1135 1163 1191 1176 1181 1211 1178 1156 1203 1162 1137 1149 1151 1167 1212 1137 1158 1222 1144 1211 1128 1181 1168 1176 1151 1147 1195 1215 1128 1148 1111 1165 1092 1183 1173 1242 1205 1180 1158 1243 1164 1155 1152 1194 1114 1122 1168 1182 1145 1218 1181 1194 1145 1171 1121 1188 1152 1174 1208 1163 1109 1172 1222 1222 1178 1140 1212 1198 1196 1113 1180 1135 1193 1183 1163 1166 1186 1148 1137 1237 1129 1158 1149 1155 1165 1152 1157 1154 1162 1206 1193 1192 1167 1183 1134 1204 1165 1223 1210 1162 1192 1112 1172 1161 1207 1144 1172 1206 1173 1229 1198 1122 1150 1187 1266 1206 1196 1173 1204 1218 1224 1234 1277 1209 1204 1168 1261 1162 1277 1188 1249 1223 1250 1213 1253 1236 1243 1146 1174 1240 1200 1250 1188 1231 1201 1239 1274 1204 1236 1277 1285 1240 1223 1188 1242 1222 1252 1301 1185 1233 1238 1237 1342 1254 1228 1253 1217 1208 1300 1255 1190 1217 1205 1204 1133 1216 1231 1210 1247 1188 1233 1208 1274 1268 1210 1206 1197 1181 1148 1214 1207 1233 1187 1152 1200 1223 1262 1151 1207 1252 1226 1211 1175 1212 1229 1203 1240 1184 1216 1183 1173 1239 1186 1169 1191 1186 1233 1192 1185 1202 1178 1200 1170 1192 1227 1181 1137 1221 1151 1168 1214 1159 1215 1160 1129 1177 1147 1157 1130 1166 1154 1125 1160 1186 1200 1192 1153 1179 1093 1154 1108 1163 1199 1179 1152 1133 1151 1139 1216 1148 1185 1102 1111 1094 1074 1168 1220 1099 1122 1159 1087 1153 1119 1082 1089 1119 1119 1114 1192 1115 1173 1186 1141 1066 1129 1167 1093 1145 1118 1158 1161 1109 1144 1153 1162 1095 1105 1152 1113 1148 1084 1100 1121 1125 1152 1130 1122 1111 1108 1137 1167 1092 1064 1132 1113 1133 1119 1109 1101 1031 1096 1144 1119 1089 1128 1160 1113 1185 1119 1132 1142 1111 1106 1117 1149 1175 1155 1117 1104 1166 1079 1118 1104 1217 1083 1191 1066 1179 1138 1109 1146 1118 1086 1048 1167 1137 1157 1066 1172 1050 1133 1100 1151 1086 1073 1131 1128 1115 1090 1118 1148 1176 1101 1115 1120 1107 1102 1140 1140 1145 1050 1077 1114 1093 1094 1190 1078 1096 1145 1181 1205 1039 1100 1119 1071 1102 1148 1124 1128 1138 1100 1095 1086 1096 1128 1090 1103 1122 1104 1099 1115 1074 1167 1163 1179 1109 1148 1120 1091 1152 1093 1087 1125 1090 1121 1086 1142 1122 1127 1135 1089 1176 1099 1097 1100 1088 1081 1080 1114 1125 1104 1168 1089 1147 1105 1143 1124 1120 1079 1082 1165 1076 1042 1086 1120 1167 1107 1060 1037 1067 1093 1133 1115 1134 1162 1122 1082 1110 1093 1210 1106 1168 1090 1136 1094 1116 1103 1124 1100 1137 1149 1119 1156 1119 1143 1173 1119 1165 1132 1133 1145 1130 1123 1110 1110 1093 1157 1186 1171 1174 1135 1205 1164 1121 1277 1197 1250 1218 1311 1237 1322 1321 1452 1448 1533 1541 1514 1589 1602 1705 1641 1733 1724 1740 1692 1764 1686 1819 1792 1665 1647 1745 1654 1679 1749 1748 1591 1599 1617 1575 1591 1633 1572 1629 1634 1519 1526 1480 1440 1473 1442 1415 1454 1430 1404 1453 1434 1462 1522 1424 1410 1390 1447 1403 1417 1454 1376 1411 1390 1403 1444 1342 1379 1425 1286 1375 1337 1318 1325 1272 1335 1256 1316 1309 1331 1290 1321 1293 1262 1240 1327 1269 1244 1318 1196 1282 1281 1263 1146 1223 1310 1282 1241 1254 1246 1280 1329 1260 1349 1394 1356 1320 1385 1433 1392 1398 1381 1345 1324 1332 1402 1322 1415 1331 1372 1338 1397 1325 1321 1321 1345 1332 1355 1298 1323 1282 1286 1271 1229 1282 1251 1270 1319 1282 1296 1231 1321 1276 1190 1278 1277 1274 1260 1203 1166 1260 1177 1215 1206 1246 1236 1166 1229 1231 1212 1219 1129 1140 1152 1198 1145 1140 1128 1178 1108 1163 1109 1153 1135 1082 1144 1159 1144 1070 1140 1157 1132 1073 1145 1177 1084 1043 1088 1081 1105 1081 1118 1106 1144 1113 1165 1163 1129 1166 1149 1166 1172 1167 1216 1149 1214 1157 1260 1168 1166 1199 1164 1156 1201 1116 1171 1082 1139 1141 1133 1148 1129 1176 1116 1133 1136 1130 1128 1188 1108 1126 1088 1111 1118 1127 1172 1210 1180 1134 1148 1149 1221 1183 1250 1117 1108 1171 1161 1132 1151 1149 1132 1065 1118 1109 1092 1172 1117 1085 1133 1146 1080 1103 1174 1110 1174 1162 1071 1103 1081 1125 1080 1120 1154 1143 1066 1083 1111 1119 1133 1036 1089 1094 1083 1108 1123 1097 1082 1081 1215 1059 1103 1051 1123 1073 1122 1073 1041 1084 1088 1087 1048 1034 1093 1131 1107 1063 1080 1122 1075 1101 1083 1087 1085 1088 1104 1082 1139 1096 1118 1056 1104 1116 1041 1095 1117 1095 1125 1071 1057 1034 1122 1108 1087 1130 1056 1088 1046 1092 1129 1140 1110 1173 1222 1072 1097 1170 1083 1108 1089 1117 1078 1093 1082 1120 1113 1091 1079 1089 1102 1061 1095 1116 1078 1099 1079 1059 1111 1105 1091 1081 1091 1059 1063 1063 1101 1125 1062 1090 1071 1059 1061 1075 1040 1092 1076 1013 1065 1109 1037 1110 1042 1006 1069 1050 1092 1019 1046 1069 1166 1069 1082 1029 1117 1022 991 1054 1027 1012 1018 1016 1006 967 1008 1053 998 1082 1036 1016 1050 1022 1003 1054 1021 1082 1080 1060 1051 1080 1017 1050 1105 961 1077 1041 1127 1005 1021 1060 1077 1052 1039 1026 1039 1078 1035 1065 1058 1073 1065 1032 1035 1056 1020 1031 1079 1014 1093 1050 988 1046 1026 1055 1025 1032 1049 1080 1096 1084 1012 1037 1013 1039 973 1032 1051 974 1039 998 1096 992 1078 1009 1072 1036 1019 1019 976 990 1068 991 1007 1009 1033 1076 1048 1033 1070 1083 1040 1035 974 1009 996 997 1046 1046 1104 1021 1084 1016 1046 1015 1065 1032 1067 985 1067 1010 1023 1064 1014 1016 1033 1018 1035 1060 1018 956 1034 1024 1003 1047 1053 968 991 1021 1021 1014 1030 1013 1010 979 1011 1052 1040 1109 1021 974 1031 1015 988 1043 1051 1034 992 1048 1023 975 1009 1027 1036 1013 996 935 1005 1089 1088 1063 1025 991 988 1008 1049 1052 1025 1025 974 1101 997 979 985 983 1080 999 1003 988 1067 979 1025 965 1042 996 1043 990 1032 994 1015 968 1008 988 1090 986 1011 1066 1050 1009 967 1027 992 991 1000 990 998 1007 1028 1021 1008 957 1008 1005 997 1030 970 1004 1001 957 1062 997 975 991 1006 987 946 993 1060 997 1005 980 1010 1038 956 1044 994 996 1006 973 1003 998 999 990 1015 1013 1004 1028 992 963 1037 997 1024 980 977 1020 1017 1021 1008 1022 1021 1001 1036 965 959 1029 953 997 1012 932 995 988 1043 990 941 1067 993 1025 972 969 984 1020 994 1024 1013 957 979 992 923 965 1019 970 994 1054 1067 981 968 986 958 990 986 994 920 1012 983 993 961 1006 945 993 996 986 1039 976 927 1027 958 985 982 1021 959 982 1044 1026 994 991 991 1011 1046 996 926 995 956 992 1009 971 935 981 1020 995 981 974 986 970 963 987 894 999 996 994 977 926 1006 982 981 960 935 952 999 1016 1016 934 979 932 998 945 1017 960 976 977 999 1017 1002 980 959 978 990 975 976 928 979 954 1015 978 1001 902 1002 1019 1021 978 1023 987 962 1006 970 966 948 988 947 950 998 1042 938 975 1008 987 987 936 990 992 1022 968 932 977 995 1011 973 992 987 1006 924 989 982 956 984 1000 959 974 1009 973 963 942 986 1004 999 991 1041 1011 943 1036 1059 1004 986 989 1088 972 939 1008 999 942 970 962 961 978 1014 1038 983 995 1031 972 1006 1008 1002 956 1022 1032 1010 1069 1006 1061 1047 1058 1066 1072 1015 1060 1068 1046 1063 1077 1064 1113 1149 1007 1101 1063 1057 1015 1095 1055 1129 1046 1104 1080 1127 1065 1090 1122 1098 1088 1052 1020 1013 1053 1094 1110 1021 1087 1103 1072 1033 1050 995 1059 1025 1031 1037 1074 992 1074 1058 1021 1019 1013 976 982 986 994 1044 1036 1016 1056 983 983 1085 1012 1038 1052 954 989 984 1021 1042 986 1015 985 1029 967 982 967 935 1011 995 1007 975 989 971 998 1003 1014 1016 1023 992 1018 1010 1042 911 985 997 926 971 1027 1006 944 1003 999 969 1033 1009 920 928 979 956 961 990 947 964 977 1032 1002 934 977 951 952 1015 939 954 940 996 986 989 969 939 881 972 908 995 942 932 996 1029 968 947 930 978 978 973 928 1015 1016 975 1036 939 993 1031 950 947 1022 870 981 979 971 941 947 994 976 981 977 1010 1018 947 980 962 964 930 956 978 876 971 956 981 935 955 970 952 1005 996 930 967 959 944 918 959 950 942 1006 934 989 1030 937 980 1008 995 995 1022 939 954 960 985 911 1008 963 917 933 942 998 981 980 974 897 990 971 941 956 965 928 1013 977 973 995 955 937 923 965 919 959 964 1007 964 983 1000 1006 934 965 953 932 921 933 943 928 993 943 933 958 894 930 978 967 936 922 917 993 911 987 1014 946 917 1023 973 1009 1012 987 973 1030 1062 1037 1061 1037 1040 1039 1030 1030 1046 1058 969 1031 995 1051 1067 1026 1027 1098 1050 1099 1059 1058 1092 1044 1055 1037 1082 992 1139 1046 1019 1059 1038 1081 976 1026 1044 1012 1003 1118 1048 1057 1086 1054 1064 1062 1081 1057 1002 1010 1082 974 1052 1006 1037 1066 975 1071 1017 1004 1023 964 1027 1014 1002 1034 967 984 1000 987 981 969 964 1011 1036 1019 944 979 951 1082 950 979 1033 978 993 1001 1009 987 990 970 1005 990 993 950 983 990 945 980 995 968 970 980 959 1011 966 948 980 968 1007 1023 995 939 1015 1030 1061 1025 1005 953 985 1054 1000 1043 1008 1053 1003 1001 978 1018 1044 1019 988 1059 996 957 1040 1029 1000 1028 980 977 1014 1034 1016 977 1017 1020 992 1006 1013 945 1075 1039 992 1009 1046 945 945 1048 966 1004 942 1004 998 1037 984 1007 982 959 994 957 1010 928 1010 1049 1000 964 948 941 951 923 958 964 959 930 996 983 949 928 954 964 965 919 927 957 947 989 960 945 944 907 984 951 985 988 1009 947 927 916 955 979 969 1017 956 1003 1026 970 970 927 937 944 895 1032 970 966 916 950 907 1006 989 956 950 997 940 919 927 947 1002 977 962 926 934 963 1033 934 986 946 1004 902 909 976 913 934 946 968 997 1001 907 972 902 938 922 957 934 984 943 985 948 980 947 978 917 926 928 968 901 935 934 932 947 971 968 910 913 964 939 919 951 877 901 907 930 891 970 931 917 944 941 938 972 964 996 906 950 904 986 923 916 927 954 895 902 952 928 919 919 1004 953 980 927 937 901 916 954 957 936 869 917 904 942 977 964 967 995 937 917 916 962 934 933 982 938 943 952 1035 918 913 927 920 912 879 935 885 908 917 897 913 889 957 930 962 937 923 913 935 940 928 921 916 931 980 945 942 875 923 948 954 977 929 937 892 926 897 913 948 952 870 974 963 903 914 954 945 910 947 864 888 969 921 868 865 891 935 950 945 877 902 884 878 876 904 907 893 939 887 934 933 893 877 898 878 952 941 940 900 909 898 946 904 865 884 933 918 876 904 886 907 927 905 886 853 934 950 901 982 963 863 861 952 908 878 906 883 876 847 942 919 847 957 880 920 941 886 904 922 917 856 958 949 863 947 927 924 955 894 897 904 897 903 886 872 928 873 937 935 920 937 947 941 930 957 852 996 906 898 840 901 873 917 887 914 924 929 921 910 905 925 890 914 926 995 900 904 887 930 881 927 911 923 911 918 925 879 924 913 878 845 867 891 895 906 888 931 921 924 863 917 904 895 874 951 962 941 909 915 869 885 902 893 910 864 894 912 945 892 844 912 907 924 855 927 907 893 936 862 898 892 914 920 878 872 865 877 907 907 887 928 879 890 923 884 890 978 929 886 889 938 875 959 931 885 886 890 961 906 914 907 903 901 869 851 957 910 917 915 931 951 979 917 876 935 880 857 853 886 872 885 949 907 899 843 898 875 933 912 837 884 855 884 907 912 910 876 906 876 891 857 918 909 887 942 916 934 844 877 919 871 934 872 917 905 901 900 909 913 989 911 874 896 885 917 877 882 827 853 984 877 877 848 854 960 892 896 892 883 915 900 875 857 911 904 894 880 891 874 861 952 862 857 954 901 906 877 901 894 871 868 894 878 929 903 876 876 894 919 881 931 906 859 863 909 870 870 873 923 905 898 856 902 895 910 897 904 868 897 877 864 938 911 920 905 896 880 905 871 909 886 888 934 884 912 932 910 880 882 975 892 937 947 887 912 853 945 969 943 869 947 956 899 920 870 940 912 964 917 884 925 948 895 953 947 929 889 918 866 954 993 920 896 873 933 899 915 956 945 871 876 918 936 954 862 891 888 934 889 889 892 965 900 850 895 915 855 909 911 926 899 941 904 900 915 900 878 906 875 854 853 883 908 876 902 893 845 901 862 967 875 867 906 926 842 857 919 909 887 909 888 862 950 913 918 873 898 853 874 932 845 901 887 869 842 889 880 883 881 879 894 846 919 896 865 892 928 935 894 871 923 892 888 888 883 874 911 878 909 884 924 904 924 858 928 974 930 976 879 927 877 877 854 907 869 858 837 904 906 898 964 841 942 935 920 925 896 847 828 880 868 918 920 930 871 918 923 931 826 927 820 830 818 924 883 880 906 877 851 867 867 887 811 954 911 900 856 886 906 904 846 873 860 917 907 835 867 941 842 876 922 819 888 860 907 850 860 817 901 935 884 923 922 879 864 876 871 942 867 912 915 898 817 913 907 916 905 923 889 949 897 873 857 972 956 903 856 883 821 881 908 869 918 878 830 881 921 864 883 872 913 867 905 950 874 901 942 895 947 868 923 925 922 928 894 956 835 900 875 934 945 957 888 908 922 905 911 919 903 870 1007 906 939 926 897 959 909 930 953 947 919 963 965 938 943 952 920 941 930 889 923 928 891 954 920 871 898 970 934 862 911 952 939 891 876 910 907 892 883 870 885 875 870 883 945 893 899 879 907 859 930 916 907 898 865 925 904 927 1000 951 858 890 887 949 957 890 930 949 857 905 911 921 887 879 890 867 888 850 877 898 827 878 945 895 894 883 929 912 889 882 888 885 898 916 936 880 887 862 887 868 945 858 925 912 900 898 894 872 938 897 878 913 858 927 917 911 845 852 890 865 899 839 840 930 887 901 879 868 904 863 886 890 910 853 877 897 917 908 869 907 868 930 878 878 918 879 848 833 888 842 883 926 922 880 888 865 944 902 896 916 857 902 892 924 873 874 864 855 874 860 903 917 887 880 911 918 951 875 888 888 871 905 892 879 877 846 887 898 895 893 894 854 852 876 821 866 850 872 905 908 884 866 870 895 916 867 865 851 875 905 854 867 819 905 882 898 867 887 873 913 890 872 861 884 908 947 843 854 858 906 864 849 925 885 882 900 895 901 918 855 881 865 843 887 933 835 885 915 919 855 875 889 867 928 895 894 878 932 897 946 863 875 928 845 884 869 856 844 885 928 884 831 867 898 864 864 882 895 885 885 899 869 876 841 832 852 823 889 917 831 816 902 939 866 872 878 803 880 860 861 819 844 914 849 875 880 893 910 853 883 902 931 854 881 853 878 910 908 815 860 908 872 857 902 857 882 881 832 882 882 937 815 910 850 877 866 927 854 869 881 849 833 902 922 880 900 857 889 884 862 839 847 833 892 839 888 848 847 837 884 899 873 879 921 872 905 910 887 901 895 890 870 902 848 862 905 862 864 866 828 867 863 856 862 891 906 864 890 873 889 839 871 876 821 859 909 846 827 862 913 837 854 848 878 823 889 853 904 803 864 863 920 890 838 831 894 915 809 820 918 911 883 869 884 848 884 850 828 871 834 911 898 854 917 825 881 834 866 855 910 811 901 850 877 880 895 881 888 802 850 888 863 889 877 861 889 834 868 893 861 873 850 839 872 895 879 902 927 893 880 863 891 835 867 859 840 869 845 899 856 815 895 902 840 818 925 849 929 875 819 829 864 858 932 883 879 883 893 883 901 863 876 908 895 908 905 851 856 898 908 859 875 915 875 859 878 918 894 930 920 897 866 856 931 874 883 851 862 886 855 881 880 885 897 875 863 847 893 858 843 910 837 842 841 903 839 911 922 918 891 858 846 855 881 864 928 834 857 862 847 869 867 860 834 857 835 857 866 849 874 836 891 888 941 894 860 798 880 880 879 898 846 832 913 846 807 898 860 855 893 884 885 905 861 830 882 877 867 864 887 926 913 845 904 870 858 854 853 867 853 869 864 869 889 844 890 863 832 882 939 843 922 883 837 852 887 930 904 890 852 837 843 824 816 927 886 902 845 919 852 870 876 875 852 860 858 862 898 835 945 815 848 887 915 854 860 863 822 891 852 837 859 841 850 878 849 851 847 883 867 835 855 877 942 860 853 870 866 888 898 907 884 869 835 873 882 874 935 900 857 936 874 888 864 873 871 893 871 836 893 864 914 889 896 944 831 873 890 907 866 865 928 880 868 864 913 914 941 848 857 852 905 896 864 877 926 948 969 878 930 901 917 908 922 879 859 918 905 900 879 905 908 907 852 900 943 921 937 908 939 894 902 884 922 938 922 949 894 913 872 935 907 983 914 917 919 874 837 880 883 889 867 895 849 914 900 878 903 847 934 905 897 844 875 881 842 858 888 855 851 891 843 870 893 877 875 838 938 861 895 878 850 836 888 881 885 872 851 915 903 884 898 884 920 859 898 802 956 825 867 839 881 903 871 869 851 865 855 807 855 874 881 894 893 881 909 977 830 892 857 880 851 837 854 872 873 895 912 867 826 955 915 852 841 874 849 898 855 895 877 894 877 868 874 824 901 864 870 886 830 903 885 940 894 888 870 862 904 890 843 837 862 875 857 928 873 879 908 902 853 864 836 890 853 915 880 879 921 815 922 822 951 852 882 836 901 934 880 873 828 911 847 836 876 881 872 824 917 858 841 840 876 855 849 880 872 901 804 810 884 906 860 862 867 896 861 836 853 856 885 882 833 949 940 876 850 850 898 887 919 913 915 948 929 889 893 890 964 878 910 922 932 940 929 951 1007 979 951 919 938 915 924 931 925 933 924 935 949 975 906 936 937 943 972 983 941 958 975 993 970 936 999 915 961 930 947 905 863 930 877 911 924 895 883 906 917 926 932 958 993 910 911 933 934 874 955 927 876 889 879 895 884 905 940 905 965 971 938 935 968 873 893 946 920 902 864 948 914 905 816 902 936 922 913 945 920 924 907 885 897 870 906 890 886 868 907 903 909 857 955 926 914 873 911 949 941 837 858 873 878 890 880 894 852 923 915 924 853 856 869 947 911 883 848 853 855 908 934 933 881 893 881 902 907 874 919 862 904 881 865 885 830 892 873 871 895 931 853 845 896 888 823 879 963 834 883 901 916 819 859 868 899 835 890 881 929 941 929 851 889 877 868 864 866 903 881 852 845 823 899 893 891 839 927 870 867 888 937 882 947 908 914 898 910 886 841 920 882 957 923 868 881 870 942 993 893 967 872 923 902 904 914 920 883 889 895 915 866 919 962 872 935 970 942 886 891 892 931 909 922 897 929 840 965 936 902 926 913 932 885 878 888 948 856 865 904 922 924 850 877 854 872 868 865 866 875 920 899 910 913 921 869 917 907 849 940 884 862 881 862 877 892 850 908 933 888 870 880 915 865 890 869 871 921 854 881 940 950 864 874 899 870 878 871 896 921 874 876 879 870 878 852 900 868 856 822 855 840 813 907 838 868 837 890 850 910 836 850 868 864 864 888 845 856 813 874 854 885 853 852 896 894 824 879 835 872 804 861 859 852 767 813 847 899 832 898 824 871 908 811 836 911 828 884 902 884 853 864 892 863 815 837 844 840 826 868 860 828 817 814 822 873 894 858 850 827 819 870 845 822 818 878 849 863 837 806 806 909 873 847 874 839 886 905 837 832 836 874 840 872 892 856 829 858 864 823 771 851 869 849 808 871 869 843 862 838 836 859 878 838 862 853 866 828 834 865 812 821 847 833 882 849 887 854 865 882 853 857 835 825 823 854 785 838 830 798 880 898 831 871 817 872 871 821 797 760 855 815 855 802 834 847 863 881 844 898 822 843 851 880 887 833 821 820 859 796 866 863 851 831 863 795 869 886 863 806 835 834 843 848 839 804 800 870 817 862 834 814 852 769 876 828 837 783 848 809 832 817 815 825 829 848 865 854 842 836 856 825 814 793 838 824 763 848 815 829 801 904 876 867 814 829 875 810 839 820 805 888 870 824 842 833 831 860 839 876 818 812 900 823 849 794 809 825 837 842 834 840 835 816 853 817 800 792 808 894 815 833 787 896 767 833 821 871 846 812 858 798 826 887 874 899 840 889 797 847 834 770 878 842 893 820 787 810 831 830 812 804 827 864 826 853 858 893 819 876 815 847 847 875 861 855 859 830 843 833 826 788 849 828 831 823 869 832 825 848 799 868 833 821 867 787 844 841 817 845 897 828 774 819 830 845 861 829 840 834 809 864 826 854 842 861 826 803 870 847 837 830 886 840 865 830 866 791 856 808 840 842 784 844 809 873 815 811 851 877 886 848 809 826 818 758 797 864 796 824 840 892 867 804 870 874 784 857 837 800 829 842 903 868 875 824 911 835 870 857 797 872 831 834 848 764 827 825 832 818 825 823 853 901 808 853 822 809 821 804 816 859 829 792 883 822 832 844 840 839 839 837 817 858 822 846 831 817 815 844 856 876 869 831 858 840 838 811 829 798 852 860 845 856 837 841 899 831 830 829 843 800 838 828 844 843 826 842 881 831 786 818 854 842 852 831 801 840 820 797 817 840 822 811 891 832 863 869 858 846 801 812 910 836 804 839 852 837 803 859 772 875 851 827 868 911 837 852 829 835 805 797 842 858 832 805 825 797 889 866 838 885 806 848 829 809 866 838 865 801 888 807 839 831 813 818 812 838 854 864 825 808 809 814 854 849 838 851 865 824 806 808 829 800 829 857 831 870 831 798 858 879 869 791 812 820 805 835 857 775 824 816 830 839 818 796 850 821 840 824 845 835 893 865 820 886 810 848 795 824 885 873 865 814 829 806 811 850 830 840 771 877 859 858 856 845 841 824 850 859 825 878 823 884 874 873 800 796 845 816 814 844 859 816 865 827 822 858 858 848 773 879 816 792 822 807 829 819 815 829 816 827 867 901 862 879 826 827 838 845 856 851 884 857 897 910 818 862 842 853 875 885 897 863 915 884 864 888 851 869 842 867 901 875 887 883 939 883 868 920 789 848 896 904 841 879 837 833 909 924 896 843 941 852 886 852 862 899 894 866 890 872 870 868 878 877 825 850 799 816 850 819 799 895 820 830 820 843 841 867 829 884 864 862 844 822 894 835 848 903 822 853 803 810 834 809 843 879 835 845 844 808 860 808 894 773 870 808 857 792 838 813 836 838 835 884 825 826 813 876 765 829 806 825 853 901 864 835 832 873 807 842 865 805 890 841 859 843 897 824 823 857 787 829 823 833 874 848 844 860 859 863 841 794 852 817 839 805 820 728 907 837 859 838 807 765 786 832 814 909 858 845 828 836 827 789 834 776 828 857 837 748 811 823 871 819 829 879 869 837 817 843 835 877 838 826 846 872 817 796 853 800 771 829 830 797 814 828 817 868 844 860 809 844 840 844 813 816 847 861 819 785 803 820 862 835 815 845 819 859 789 857 829 843 783 840 847 848 870 851 830 847 828 866 818 879 827 855 829 856 820 834 854 846 799 884 785 852 907 815 773 833 855 833 826 868 811 831 845 860 844 851 878 813 845 865 868 826 854 829 844 822 883 875 813 830 822 859 817 798 838 840 848 807 887 889 842 844 846 836 888 797 814 888 832 852 793 821 846 812 869 832 786 819 836 802 810 845 865 822 805 806 807 830 854 841 807 796 871 813 786 776 868 839 750 804 781 798 839 840 809 847 780 827 786 785 803 820 826 828 840 788 799 811 826 815 843 839 848 764 761 794 832 808 831 845 843 792 823 783 755 858 832 854 763 773 816 763 833 837 797 858 815 840 759 833 801 818 795 789 857 792 875 832 820 845 841 797 830 811 868 796 779 850 846 800 802 821 812 815 754 775 821 787 851 814 784 760 807 808 774 833 805 814 808 796 880 851 814 784 792 815 803 791 780 764 800 771 771 815 790 797 808 814 804 809 789 817 783 861 791 817 857 813 844 803 770 862 830 835 850 816 842 896 874 748 865 828 862 798 810 803 820 814 865 785 800 898 822 879 857 801 865 785 823 809 817 850 797 840 803 859 780 867 822 795 837 856 836 892 818 870 799 789 816 792 832 794 783 841 887 843 836 776 767 830 827 763 831 880 815 834 814 825 836 819 813 818</counts>
			</dataPoints>
		</scan>
	</xrdMeasurement>
</xrdMeasurements>
