<?xml version="1.0"?>
<xrdMeasurements xmlns="http://www.xrdml.com/XRDMeasurement/2.3" xmlns:xsi="http://www.w3.org/2001/XMLSchema-instance" xsi:schemaLocation="http://www.xrdml.com/XRDMeasurement/2.3 http://www.xrdml.com/XRDMeasurement/2.3/XRDMeasurement.xsd" status="Completed" recordIdentifier="{E1622193-DC1B-4F8D-9E28-ED979B19BEF5}">
	<comment>
		<entry/>
	</comment>
	<sample type="To be analyzed">
		<id>GPSS_Li2Co0p25Mn0p75Cl4_121825_6943d914f4d05ae3d69790a9</id>
		<name></name>
		<preparedBy></preparedBy>
	</sample>
	<xrdMeasurement measurementType="Scan" status="Completed" sampleMode="Reflection">
		<usedWavelength intended="K-Alpha 1">
			<kAlpha1 unit="Angstrom">1.5405980</kAlpha1>
			<kAlpha2 unit="Angstrom">1.5444260</kAlpha2>
			<kBeta unit="Angstrom">1.3922500</kBeta>
			<ratioKAlpha2KAlpha1>0.5000</ratioKAlpha2KAlpha1>
		</usedWavelength>
		<incidentBeamPath>
			<radius unit="mm">145.00</radius>
			<xRayTube id="1010048" name="Empyrean Cu LFF HR (9430 033 7310x)">
				<tension unit="kV">40.0</tension>
				<current unit="mA">15.0</current>
				<anodeMaterial>Cu</anodeMaterial>
				<focus type="Line">
					<length unit="mm">12.0</length>
					<width unit="mm">0.4</width>
					<takeOffAngle unit="deg">6.0</takeOffAngle>
				</focus>
			</xRayTube>
			<sollerSlit id="21010002" name="Soller slits 0.04 rad.">
				<opening unit="rad">0.0400</opening>
			</sollerSlit>
			<mask id="22031000" name="Fixed mask 13 mm">
				<width unit="mm">9.00</width>
			</mask>
			<divergenceSlit id="22120001" name="Divergence slit 1°" xsi:type="fixedDivergenceSlitType">
				<distanceToSample unit="mm">50.00</distanceToSample>
				<height unit="mm">1.52</height>
			</divergenceSlit>
		</incidentBeamPath>
		<sampleMovement xsi:type="spinningSampleMovementType">
			<spinnerRevolutionTime unit="seconds">1.0</spinnerRevolutionTime>
		</sampleMovement>
		<diffractedBeamPath>
			<radius unit="mm">145.00</radius>
			<antiScatterSlit id="22090040" name="AS slit 9 mm (PIXcel)" xsi:type="fixedAntiScatterSlitType">
				<height unit="mm">9.00</height>
			</antiScatterSlit>
			<sollerSlit id="21020003" name="Large Soller slits 0.04 rad.">
				<opening unit="rad">0.0400</opening>
			</sollerSlit>
			<filter id="20030001" name="Large beta-filter Nickel">
				<material>Ni</material>
				<thickness unit="mm">0.020</thickness>
			</filter>
			<detector id="7010019" name="PIXcel1D-Medipix3 detector" xsi:type="rtmsDetectorType">
				<phd unit="keV">
					<lowerLevel>4.02</lowerLevel>
					<upperLevel>11.27</upperLevel>
				</phd>
				<mode>Scanning</mode>
				<activeLength unit="deg">5.542</activeLength>
			</detector>
		</diffractedBeamPath>
		<scan appendNumber="0" mode="Continuous" scanAxis="Gonio" status="Completed">
			<header>
				<startTimeStamp>2025-12-19T11:14:10-08:00</startTimeStamp>
				<endTimeStamp>2025-12-19T11:22:17-08:00</endTimeStamp>
				<author>
					<name>AutomatedUser</name>
				</author>
				<source>
					<applicationSoftware version="1.7b (136)">PANalytical Aeris Instrument Suite</applicationSoftware>
					<instrumentControlSoftware version="3.2.00000000 20240306">AERIS</instrumentControlSoftware>
					<instrumentID>950485</instrumentID>
				</source>
			</header>
			<dataPoints>
				<positions axis="2Theta" unit="deg">
					<startPosition>10.00943322</startPosition>
					<endPosition>99.99442286</endPosition>
				</positions>
				<positions axis="Omega" unit="deg">
					<startPosition>5.00471661</startPosition>
					<endPosition>49.99721143</endPosition>
				</positions>
				<commonCountingTime unit="seconds">12.495</commonCountingTime>
				<counts unit="counts">2970 3056 3025 3095 3006 2951 3074 3043 3056 3018 3035 3094 3061 3118 2949 3130 3074 2966 3085 3013 3034 3080 3079 3146 2995 2973 3012 3086 3085 3000 2989 2931 3090 3107 3086 3113 3101 3072 3097 3116 3130 3097 3118 3206 3192 3129 3069 3115 3244 3166 3152 3249 3149 3043 3185 3279 3195 3277 3150 3305 3182 3215 3283 3208 3203 3192 3218 3334 3323 3373 3287 3270 3385 3274 3368 3383 3297 3417 3368 3406 3427 3432 3410 3456 3389 3298 3346 3387 3455 3419 3517 3581 3503 3427 3546 3338 3477 3454 3557 3503 3398 3449 3541 3464 3473 3546 3501 3426 3418 3437 3536 3354 3517 3403 3539 3413 3541 3508 3461 3490 3487 3452 3495 3515 3472 3590 3457 3357 3566 3423 3469 3416 3460 3466 3444 3479 3522 3496 3509 3330 3488 3558 3495 3523 3482 3495 3386 3590 3443 3434 3457 3448 3518 3520 3401 3364 3404 3498 3510 3509 3515 3414 3460 3413 3574 3402 3510 3380 3362 3391 3480 3385 3524 3455 3460 3537 3500 3491 3445 3419 3454 3297 3530 3355 3449 3446 3335 3404 3476 3407 3484 3439 3466 3488 3366 3336 3396 3509 3444 3474 3483 3460 3363 3352 3342 3356 3415 3448 3333 3435 3320 3341 3317 3404 3416 3334 3310 3468 3410 3349 3363 3356 3516 3276 3337 3319 3381 3355 3381 3359 3330 3347 3282 3358 3320 3451 3309 3412 3383 3346 3305 3366 3249 3364 3331 3378 3356 3322 3349 3324 3321 3345 3265 3256 3227 3187 3258 3365 3312 3342 3330 3313 3230 3317 3165 3346 3423 3291 3374 3358 3377 3339 3319 3262 3325 3334 3220 3252 3222 3230 3282 3267 3332 3275 3234 3311 3147 3320 3103 3229 3247 3300 3241 3370 3235 3250 3243 3233 3259 3355 3236 3201 3304 3287 3345 3168 3270 3323 3424 3263 3336 3218 3197 3397 3245 3314 3253 3274 3311 3336 3292 3288 3356 3376 3370 3365 3226 3297 3248 3333 3352 3407 3336 3382 3298 3265 3376 3328 3385 3371 3341 3439 3368 3340 3333 3352 3374 3337 3312 3375 3360 3414 3457 3511 3369 3392 3366 3439 3415 3491 3484 3405 3502 3475 3424 3519 3446 3447 3336 3489 3494 3476 3487 3503 3508 3463 3510 3519 3634 3547 3528 3462 3558 3576 3570 3505 3584 3453 3609 3529 3568 3582 3547 3664 3491 3563 3568 3603 3574 3666 3552 3528 3650 3691 3612 3783 3702 3724 3633 3752 3675 3726 3866 3825 3792 3662 3866 3860 3936 3930 4003 3915 4000 3932 4034 3962 4044 3925 3806 3952 4037 4088 3924 3980 4071 4013 4098 4065 4171 4087 4164 4111 4107 4042 4281 4173 4189 4195 4291 4142 4366 4287 4394 4221 4291 4317 4356 4459 4402 4472 4449 4410 4367 4447 4429 4362 4393 4323 4379 4299 4236 4322 4264 4195 4044 4148 4065 4087 3988 4030 3998 3915 3890 3929 3815 3850 3874 3866 3859 3832 3759 3728 3719 3819 3802 3809 3869 3912 3843 3712 3713 3805 3822 3667 3846 3754 3797 3787 3590 3691 3746 3616 3757 3702 3700 3544 3633 3684 3510 3606 3624 3614 3566 3568 3439 3439 3475 3424 3665 3492 3366 3529 3481 3452 3430 3473 3416 3368 3538 3380 3407 3345 3441 3387 3299 3356 3393 3395 3397 3442 3319 3346 3369 3399 3338 3355 3477 3350 3318 3320 3333 3378 3401 3373 3277 3309 3221 3286 3377 3237 3273 3191 3245 3314 3309 3296 3437 3290 3319 3212 3279 3206 3185 3272 3329 3307 3356 3376 3207 3246 3101 3247 3232 3212 3146 3241 3281 3324 3115 3179 3171 3269 3295 3270 3174 3197 3295 3216 3219 3270 3163 3134 3262 3144 3182 3153 3137 3204 3188 3179 3164 3205 3178 3258 3125 3131 3132 3241 3185 3165 3169 3127 3148 3187 3173 3182 3254 3109 3230 3061 3090 3144 3207 3045 3133 3128 3169 3080 3240 3206 3177 3155 3093 3166 3068 3176 3130 3132 3091 3091 3173 3139 3123 3152 3118 3199 3033 3104 3196 3092 3113 3199 3147 3055 3141 3167 3135 2995 3220 3169 3176 3161 3127 3114 3137 3110 3071 3030 3124 3024 3104 3088 3105 3130 3174 3066 3070 3152 3120 3081 3110 3178 3159 3126 3099 3144 3128 3224 3091 3014 3222 3077 3067 3038 3071 2982 3157 3112 2994 2964 3096 2998 3019 3077 3067 3062 3026 3122 3051 3170 3074 3075 3102 3067 2951 3027 3019 3054 3083 3109 3124 3028 3128 3071 3121 3010 3074 3097 3072 3071 2998 2979 2912 3119 3062 3053 3048 3037 3146 3099 3004 3125 3047 3187 2955 3032 3008 2965 3026 3092 3054 3103 2979 3019 3019 2965 3085 3052 3033 3016 2968 3068 3073 2948 3101 3001 3054 3096 2989 2966 3045 3083 2966 2942 3025 2993 3067 2979 3005 3115 3068 3090 2944 3092 2952 2929 3021 3088 3080 2992 2959 3101 2970 2990 2961 2924 2961 2989 2971 2973 3014 2979 2937 2991 3018 3082 3043 2935 2866 2991 2902 2906 2904 3024 2963 3009 2952 3100 3031 3018 3037 2993 2979 2982 2933 3099 2990 3046 2990 2964 3063 2991 2896 2931 2956 3020 3013 2970 3078 2864 2884 2898 2974 3008 2958 2919 2943 3062 3030 3111 2934 2965 3041 2889 2892 2906 2896 2771 2898 2941 2923 2987 2827 2919 2945 3001 2859 2872 3009 2950 2985 2927 2936 2924 2849 2939 2907 2904 2882 2881 2819 2925 3003 2933 2845 2814 2881 2910 2875 2881 2929 2807 2950 2932 2796 2956 2896 2879 2823 2907 2784 2841 2877 2921 2950 2887 2939 2832 2847 2820 2858 2869 2794 2940 2780 2847 2923 2850 2904 2826 2737 2881 2820 2874 2950 2825 2867 2919 2778 2847 2892 2849 2868 2886 2884 2887 2874 2949 2851 2906 2760 2884 2846 2906 2906 2864 2819 2799 2850 2835 2818 2746 2852 2735 2825 2847 2790 2814 2859 2851 2965 2794 2743 2839 2786 2836 2807 2809 2925 2822 2797 2788 2790 2755 2858 2805 2824 2772 2716 2792 2902 2841 2889 2853 2878 2803 2788 2788 2762 2832 2847 2791 2814 2903 2831 2790 2815 2764 2762 2809 2784 2795 2833 2772 2846 2839 2835 2959 2787 2852 2829 2833 2823 2818 2759 2852 2777 2809 2830 2821 2786 2937 2797 2841 2693 2849 2837 2733 2743 2885 2824 2919 2873 2898 2868 2742 2896 2836 2915 2865 2822 2852 2796 2810 2732 2953 2845 2944 2863 2887 2843 2785 2871 2835 2770 2806 2856 2783 2904 2885 2854 2853 2818 2719 2766 2959 2827 2816 2755 2865 2764 2775 2881 2758 2853 2784 2868 2771 2831 2881 2780 2891 2914 2814 2867 2818 2803 2867 2953 2877 2897 2820 2808 2777 2849 2850 2770 2872 2933 2879 2747 2857 2804 2778 2742 2806 2832 2753 2850 2793 2863 2726 2720 2851 2719 2878 2791 2816 2742 2860 2823 2772 2848 2738 2699 2742 2764 2760 2681 2730 2796 2736 2703 2720 2799 2706 2702 2665 2795 2667 2755 2818 2746 2690 2692 2702 2735 2742 2650 2727 2650 2696 2630 2713 2626 2713 2703 2663 2664 2668 2663 2763 2741 2737 2686 2618 2621 2772 2558 2615 2574 2680 2599 2621 2620 2599 2511 2580 2644 2505 2655 2630 2558 2563 2480 2622 2530 2616 2571 2544 2571 2602 2582 2528 2577 2561 2541 2554 2432 2529 2627 2520 2561 2533 2516 2500 2471 2444 2480 2439 2557 2523 2457 2557 2471 2555 2448 2481 2521 2495 2525 2397 2460 2483 2499 2516 2490 2428 2494 2482 2556 2493 2347 2410 2487 2401 2520 2514 2456 2482 2468 2493 2498 2430 2434 2408 2334 2519 2449 2346 2414 2321 2373 2456 2412 2308 2448 2355 2393 2447 2330 2396 2372 2367 2341 2318 2341 2348 2354 2380 2286 2390 2337 2306 2381 2351 2337 2261 2370 2339 2313 2339 2364 2429 2316 2388 2423 2269 2281 2365 2308 2233 2344 2280 2353 2308 2192 2372 2299 2352 2281 2254 2301 2166 2317 2325 2395 2348 2316 2273 2269 2347 2363 2225 2264 2325 2377 2229 2253 2315 2242 2287 2236 2290 2234 2314 2256 2362 2274 2260 2378 2198 2267 2292 2313 2228 2261 2284 2319 2296 2265 2259 2296 2342 2314 2269 2286 2330 2310 2303 2243 2261 2244 2344 2280 2260 2283 2239 2225 2197 2299 2332 2205 2288 2289 2292 2269 2310 2192 2200 2307 2286 2339 2230 2227 2213 2233 2236 2257 2202 2286 2215 2238 2254 2239 2348 2203 2196 2262 2311 2263 2248 2275 2225 2196 2254 2204 2275 2255 2299 2300 2349 2297 2347 2244 2269 2241 2277 2271 2254 2250 2301 2325 2267 2287 2274 2191 2237 2270 2248 2310 2292 2266 2403 2203 2235 2291 2374 2380 2307 2360 2284 2236 2292 2359 2301 2182 2282 2232 2212 2210 2194 2325 2174 2254 2278 2323 2328 2333 2291 2321 2246 2234 2287 2305 2279 2310 2280 2285 2226 2263 2336 2306 2347 2323 2359 2295 2232 2414 2284 2267 2253 2324 2237 2242 2292 2316 2302 2234 2308 2149 2337 2269 2322 2308 2236 2309 2306 2238 2243 2289 2289 2263 2256 2108 2249 2209 2164 2296 2204 2230 2215 2264 2232 2250 2215 2280 2337 2161 2302 2259 2277 2209 2223 2332 2226 2275 2336 2235 2187 2186 2262 2217 2255 2213 2235 2160 2176 2240 2133 2204 2195 2222 2202 2203 2270 2220 2257 2229 2186 2207 2167 2252 2187 2091 2210 2194 2225 2198 2160 2141 2116 2031 2143 2209 2204 2113 2200 2200 2108 2208 2158 2215 2127 2109 2148 2142 2145 2158 2076 2185 2122 2150 2104 2173 2154 2193 2126 2071 2093 2072 2147 2108 2071 2192 2156 2085 2134 2053 2150 2123 2122 2152 2113 2057 2019 2101 2139 2060 2079 2146 2083 2125 2143 2059 1989 2013 2054 2096 2138 2156 2066 2076 2057 1993 2066 2006 2018 1969 2187 2060 1979 2042 2108 2125 2039 2099 2035 1999 2025 2088 2044 2001 2116 2043 2069 1985 2038 2043 2078 2170 2061 2066 1993 2175 2044 2094 2205 2191 2248 2153 2242 2224 2139 2258 2368 2326 2337 2347 2276 2425 2387 2479 2377 2296 2317 2346 2373 2382 2270 2428 2356 2341 2365 2411 2365 2371 2380 2401 2367 2437 2317 2464 2435 2469 2503 2512 2512 2492 2572 2560 2519 2495 2473 2451 2403 2494 2488 2471 2459 2468 2417 2361 2331 2369 2333 2364 2219 2263 2255 2238 2254 2119 2149 2169 2108 2123 2023 2064 2096 2032 2092 1993 2027 1944 2020 1962 1985 1943 1944 1931 1830 2024 1953 1939 1953 1920 1979 1950 1954 1862 1915 1984 1833 1952 1896 1879 1884 1935 1817 1888 1916 1845 1924 1906 1930 1946 1936 1988 1944 1886 1971 2057 2066 2152 2105 2231 2077 2217 2127 2382 2364 2294 2328 2428 2424 2499 2480 2415 2556 2412 2532 2468 2500 2494 2483 2503 2515 2591 2469 2532 2619 2646 2665 2704 2647 2716 2663 2750 2822 2873 2800 2880 2909 2944 2870 2910 3016 2857 2901 3041 3031 3166 3090 3103 3132 3041 2962 3057 3000 2967 2882 2758 2825 2769 2799 2691 2616 2557 2553 2554 2491 2410 2235 2325 2270 2212 2235 2169 2239 2149 2173 2140 2243 2134 2112 2054 2180 1982 2048 2055 1978 2100 2111 2043 2055 2078 2103 2101 2052 2056 2031 2016 1943 2022 2062 2031 1897 1991 2003 2009 1890 1961 1845 1976 1879 1790 1796 1919 1873 1848 1757 1845 1844 1814 1827 1779 1863 1853 1748 1758 1754 1753 1728 1739 1741 1816 1754 1782 1767 1689 1723 1720 1795 1785 1816 1715 1777 1762 1746 1726 1681 1714 1784 1770 1759 1668 1610 1773 1692 1672 1777 1779 1778 1743 1686 1673 1636 1701 1748 1731 1734 1657 1712 1670 1741 1690 1714 1645 1636 1720 1656 1721 1734 1627 1696 1744 1687 1683 1652 1675 1642 1754 1641 1639 1674 1724 1767 1651 1669 1702 1707 1663 1723 1650 1759 1716 1705 1716 1672 1649 1726 1714 1707 1666 1706 1695 1624 1724 1633 1690 1714 1702 1754 1602 1696 1623 1621 1652 1685 1731 1665 1735 1722 1681 1713 1676 1617 1712 1703 1690 1633 1632 1729 1703 1713 1654 1693 1764 1686 1614 1670 1705 1705 1730 1644 1613 1711 1679 1650 1724 1717 1647 1713 1715 1741 1759 1803 1703 1757 1749 1786 1764 1791 1758 1839 1832 1794 1811 1855 1766 1828 1829 1803 1826 1843 1873 1891 1905 1970 1944 1923 2002 1958 1963 1933 1964 1912 2007 1922 1961 1859 1857 1882 1905 1941 1855 1878 1908 1903 1952 1885 1851 1859 1850 1890 1831 1783 1840 1759 1869 1755 1769 1793 1789 1810 1841 1770 1697 1791 1700 1802 1701 1755 1726 1750 1744 1715 1672 1767 1733 1682 1698 1727 1777 1751 1764 1707 1687 1751 1736 1742 1661 1705 1755 1717 1725 1699 1689 1710 1756 1629 1768 1710 1713 1711 1700 1748 1759 1636 1647 1681 1709 1707 1634 1685 1699 1677 1734 1655 1674 1664 1606 1632 1670 1593 1723 1655 1631 1697 1786 1709 1684 1704 1628 1713 1679 1690 1695 1719 1692 1637 1774 1680 1733 1746 1619 1741 1713 1703 1649 1732 1717 1675 1747 1791 1688 1734 1795 1597 1818 1650 1753 1827 1755 1732 1740 1755 1845 1911 1919 1954 1937 2141 2116 2182 2229 2298 2441 2419 2574 2597 2720 2788 2906 2966 2975 3165 3167 3209 3252 3215 3400 3339 3428 3480 3423 3605 3663 3712 3703 3798 3854 4137 4136 4178 4347 4255 4319 4267 4437 4548 4681 4807 4800 4868 4823 5088 4966 5004 4907 5018 5011 4919 4991 5004 5093 4917 4955 4789 4821 4789 4547 4350 4237 4372 4106 4058 3977 3803 3675 3608 3470 3283 3346 3151 3063 2884 2863 2808 2690 2574 2597 2543 2512 2376 2372 2284 2425 2350 2229 2313 2251 2201 2243 2152 2162 2202 2174 2190 2221 2124 2217 2142 2071 2150 2087 2099 2097 1920 2060 1983 2041 2023 2014 1940 1876 1830 1871 1832 1915 1818 1854 1918 1842 1836 1783 1769 1784 1790 1756 1729 1683 1809 1707 1729 1652 1682 1698 1702 1695 1674 1643 1724 1664 1628 1703 1623 1653 1746 1673 1643 1634 1700 1687 1706 1604 1684 1656 1636 1585 1608 1661 1681 1741 1648 1623 1690 1612 1591 1620 1688 1606 1556 1620 1648 1578 1637 1542 1726 1625 1577 1558 1624 1665 1606 1661 1569 1623 1592 1624 1648 1691 1627 1626 1683 1540 1592 1609 1549 1652 1548 1546 1524 1591 1662 1623 1571 1662 1617 1564 1572 1543 1612 1611 1568 1670 1557 1581 1577 1600 1552 1651 1587 1579 1620 1541 1583 1566 1568 1571 1513 1543 1546 1561 1580 1564 1588 1580 1557 1601 1562 1538 1555 1611 1533 1607 1486 1541 1541 1582 1596 1640 1491 1595 1547 1629 1513 1517 1562 1602 1580 1495 1555 1569 1560 1559 1520 1515 1564 1508 1556 1589 1589 1565 1498 1557 1580 1568 1503 1569 1504 1583 1562 1541 1581 1507 1547 1594 1492 1507 1641 1580 1483 1555 1539 1540 1534 1607 1537 1519 1558 1524 1594 1517 1583 1574 1609 1596 1654 1552 1515 1512 1531 1491 1544 1604 1512 1564 1507 1565 1549 1579 1607 1546 1521 1588 1542 1576 1583 1507 1566 1623 1534 1552 1561 1593 1572 1546 1601 1548 1578 1614 1588 1577 1553 1539 1587 1554 1554 1561 1569 1556 1576 1645 1641 1562 1523 1635 1556 1542 1505 1563 1527 1574 1536 1546 1556 1563 1547 1461 1556 1493 1534 1552 1547 1567 1517 1598 1497 1548 1467 1584 1502 1526 1436 1550 1491 1497 1529 1503 1520 1555 1480 1488 1508 1578 1485 1547 1562 1550 1427 1482 1437 1504 1523 1533 1478 1532 1482 1507 1566 1515 1565 1495 1578 1502 1494 1565 1509 1520 1508 1526 1417 1566 1445 1446 1513 1427 1520 1564 1457 1511 1463 1497 1504 1506 1468 1497 1500 1564 1510 1486 1476 1457 1469 1487 1469 1551 1501 1438 1486 1510 1519 1463 1441 1454 1494 1498 1481 1402 1505 1477 1506 1421 1497 1514 1459 1532 1524 1506 1535 1461 1431 1454 1446 1470 1472 1502 1509 1455 1528 1470 1466 1506 1446 1515 1507 1457 1480 1475 1484 1474 1470 1458 1404 1399 1480 1507 1396 1425 1477 1499 1460 1531 1501 1461 1448 1510 1501 1493 1515 1488 1545 1457 1471 1528 1524 1451 1575 1416 1461 1483 1512 1554 1506 1508 1462 1474 1491 1464 1482 1465 1489 1498 1475 1446 1517 1482 1467 1491 1524 1489 1464 1453 1459 1432 1496 1419 1462 1451 1443 1476 1483 1413 1422 1415 1438 1486 1447 1412 1362 1499 1460 1451 1498 1470 1407 1382 1453 1494 1499 1492 1518 1506 1428 1447 1538 1464 1480 1430 1489 1450 1517 1494 1449 1484 1504 1433 1405 1491 1474 1433 1476 1488 1460 1532 1452 1474 1448 1483 1519 1466 1441 1454 1489 1437 1440 1438 1467 1437 1418 1475 1408 1437 1482 1397 1474 1498 1441 1512 1480 1524 1468 1481 1460 1378 1426 1464 1473 1492 1424 1439 1439 1458 1487 1459 1448 1454 1459 1467 1473 1514 1467 1511 1463 1439 1462 1494 1470 1442 1434 1469 1414 1445 1511 1519 1481 1542 1497 1479 1407 1477 1404 1456 1445 1505 1452 1452 1449 1379 1479 1362 1448 1479 1396 1478 1457 1435 1487 1483 1513 1432 1505 1423 1470 1427 1510 1420 1466 1497 1472 1429 1497 1417 1389 1472 1473 1381 1464 1523 1522 1422 1465 1500 1456 1465 1427 1436 1508 1458 1460 1550 1432 1477 1540 1514 1489 1425 1475 1412 1424 1435 1432 1516 1510 1429 1452 1484 1470 1477 1490 1487 1426 1368 1377 1425 1431 1499 1447 1443 1422 1475 1464 1410 1450 1463 1493 1504 1447 1461 1463 1396 1436 1460 1467 1510 1497 1399 1484 1335 1470 1409 1460 1457 1471 1500 1436 1457 1551 1466 1453 1425 1508 1469 1423 1419 1444 1468 1500 1382 1469 1420 1337 1407 1431 1454 1481 1419 1494 1396 1388 1508 1469 1494 1462 1487 1440 1423 1398 1458 1467 1423 1495 1441 1546 1473 1480 1446 1415 1460 1480 1465 1409 1495 1511 1469 1447 1454 1467 1474 1373 1456 1391 1444 1450 1472 1457 1500 1467 1477 1510 1421 1452 1462 1463 1452 1457 1447 1486 1407 1519 1485 1407 1469 1491 1429 1351 1425 1471 1501 1449 1442 1511 1474 1494 1470 1486 1539 1559 1458 1459 1487 1473 1474 1418 1444 1483 1484 1453 1417 1497 1489 1486 1478 1490 1470 1422 1416 1467 1425 1469 1444 1546 1471 1450 1472 1469 1483 1448 1388 1513 1484 1439 1434 1536 1488 1514 1461 1472 1487 1550 1461 1522 1457 1458 1538 1559 1465 1440 1512 1464 1554 1471 1514 1543 1556 1543 1444 1493 1490 1475 1505 1498 1494 1460 1524 1502 1523 1515 1456 1490 1469 1574 1470 1565 1471 1440 1493 1458 1499 1506 1444 1466 1557 1498 1401 1481 1414 1466 1486 1461 1457 1471 1463 1481 1488 1459 1425 1434 1413 1484 1437 1460 1418 1459 1409 1456 1465 1505 1463 1517 1503 1519 1490 1517 1471 1506 1504 1496 1528 1468 1458 1462 1507 1448 1436 1460 1539 1394 1503 1500 1536 1475 1584 1605 1536 1519 1605 1556 1628 1666 1623 1710 1655 1593 1655 1670 1685 1639 1731 1677 1717 1769 1769 1840 1729 1810 1760 1793 1832 1765 1802 1786 1866 1765 1794 1833 1772 1842 1788 1814 1773 1817 1730 1906 1786 1903 1790 1814 1778 1830 1834 1795 1738 1898 1828 1857 1803 1702 1713 1828 1741 1794 1616 1672 1727 1643 1686 1656 1624 1622 1561 1603 1584 1551 1623 1521 1546 1579 1526 1509 1527 1539 1477 1491 1458 1452 1491 1425 1487 1477 1409 1430 1436 1518 1457 1485 1476 1521 1501 1437 1478 1428 1382 1481 1500 1406 1517 1468 1496 1461 1439 1475 1404 1457 1434 1480 1436 1430 1419 1443 1489 1439 1435 1425 1434 1464 1460 1426 1498 1476 1482 1443 1440 1412 1491 1426 1463 1437 1465 1460 1445 1455 1397 1458 1422 1535 1397 1434 1462 1487 1455 1392 1430 1459 1395 1483 1478 1498 1473 1398 1427 1417 1499 1421 1434 1425 1425 1439 1382 1404 1428 1445 1377 1456 1399 1416 1379 1453 1464 1463 1340 1422 1378 1438 1407 1440 1436 1466 1453 1415 1469 1465 1486 1473 1362 1431 1429 1444 1402 1429 1387 1427 1430 1394 1478 1420 1356 1422 1387 1408 1427 1424 1387 1395 1410 1415 1472 1464 1467 1469 1350 1504 1405 1408 1397 1438 1416 1490 1435 1429 1423 1440 1392 1397 1394 1398 1422 1412 1438 1458 1473 1379 1396 1393 1453 1358 1475 1452 1445 1433 1434 1403 1414 1476 1473 1449 1412 1528 1446 1390 1390 1395 1407 1436 1431 1425 1446 1459 1540 1448 1397 1446 1433 1446 1397 1492 1471 1491 1474 1457 1528 1389 1375 1514 1420 1515 1437 1411 1449 1456 1450 1426 1501 1442 1441 1423 1400 1479 1405 1485 1458 1491 1404 1413 1440 1488 1444 1389 1443 1419 1394 1435 1404 1438 1469 1455 1539 1425 1493 1442 1461 1507 1460 1443 1397 1469 1475 1462 1417 1445 1405 1437 1450 1450 1452 1422 1390 1449 1460 1460 1452 1430 1469 1466 1411 1486 1463 1430 1425 1523 1451 1399 1471 1509 1475 1446 1452 1495 1380 1418 1479 1446 1442 1470 1445 1446 1462 1531 1471 1362 1391 1436 1442 1491 1541 1499 1530 1550 1549 1547 1540 1533 1589 1540 1508 1687 1528 1616 1699 1699 1719 1702 1892 1836 1907 1915 1975 1981 2045 2176 2169 2252 2203 2286 2336 2348 2609 2447 2647 2647 2687 2779 2839 2828 2908 3001 2987 3046 3229 3145 3132 3127 3185 3157 3260 3347 3395 3374 3281 3389 3365 3506 3407 3426 3397 3448 3425 3429 3458 3343 3317 3244 3256 3256 3104 3054 3109 3086 2977 2947 2851 2868 2742 2715 2643 2615 2443 2394 2350 2337 2278 2145 2163 2118 2132 1976 2047 1940 1965 1958 1889 1715 1766 1818 1688 1773 1702 1674 1727 1763 1637 1714 1621 1638 1568 1588 1635 1657 1682 1637 1641 1651 1593 1556 1620 1598 1684 1650 1589 1571 1534 1585 1617 1609 1599 1631 1734 1679 1593 1647 1647 1612 1681 1632 1591 1621 1713 1602 1607 1590 1559 1618 1666 1589 1663 1618 1642 1612 1545 1519 1577 1642 1571 1571 1579 1548 1583 1501 1509 1518 1588 1540 1542 1498 1492 1487 1486 1492 1491 1496 1521 1522 1412 1432 1537 1413 1428 1465 1484 1454 1501 1480 1484 1461 1462 1483 1487 1437 1449 1398 1418 1491 1452 1442 1486 1469 1397 1412 1435 1445 1411 1416 1421 1399 1409 1391 1463 1369 1451 1430 1470 1428 1466 1421 1451 1422 1320 1410 1410 1367 1382 1451 1379 1430 1365 1436 1424 1378 1416 1414 1428 1427 1425 1420 1337 1382 1457 1412 1493 1461 1512 1467 1455 1427 1476 1472 1490 1521 1525 1545 1520 1541 1561 1565 1581 1565 1559 1580 1591 1558 1674 1604 1566 1636 1526 1630 1594 1557 1608 1649 1622 1565 1658 1704 1638 1656 1665 1584 1665 1603 1644 1567 1605 1554 1569 1631 1580 1660 1615 1595 1553 1627 1607 1531 1613 1595 1649 1509 1521 1494 1525 1493 1546 1453 1476 1525 1411 1470 1385 1419 1390 1547 1404 1464 1344 1490 1399 1415 1373 1456 1368 1491 1395 1391 1448 1425 1447 1341 1372 1447 1376 1400 1377 1405 1424 1368 1393 1439 1373 1427 1400 1426 1391 1425 1373 1404 1402 1422 1361 1396 1352 1365 1398 1395 1380 1382 1388 1389 1424 1308 1324 1354 1310 1389 1365 1491 1380 1322 1383 1340 1265 1394 1364 1378 1420 1379 1334 1400 1374 1389 1337 1348 1368 1350 1289 1329 1397 1430 1390 1352 1397 1425 1400 1369 1353 1301 1450 1396 1400 1335 1380 1351 1348 1375 1371 1312 1405 1384 1327 1418 1302 1327 1362 1411 1412 1396 1352 1412 1386 1343 1355 1362 1369 1304 1333 1309 1374 1374 1355 1366 1323 1362 1384 1421 1339 1275 1308 1500 1390 1372 1347 1370 1385 1330 1387 1355 1447 1377 1377 1315 1329 1343 1360 1389 1385 1339 1363 1350 1384 1310 1378 1350 1308 1439 1366 1357 1252 1387 1346 1431 1358 1357 1433 1349 1339 1377 1352 1365 1358 1361 1395 1347 1330 1374 1327 1399 1355 1355 1346 1398 1359 1396 1389 1353 1366 1393 1317 1351 1330 1369 1390 1408 1419 1356 1394 1357 1389 1372 1270 1360 1362 1324 1408 1372 1324 1356 1292 1321 1414 1381 1412 1376 1321 1334 1351 1330 1371 1348 1353 1373 1320 1352 1417 1344 1380 1299 1395 1363 1342 1392 1349 1294 1331 1378 1425 1360 1325 1361 1360 1376 1319 1404 1386 1385 1312 1320 1331 1393 1370 1431 1366 1331 1366 1380 1383 1341 1364 1373 1293 1354 1271 1317 1324 1344 1323 1373 1332 1360 1315 1328 1316 1305 1401 1354 1332 1349 1361 1325 1335 1360 1330 1310 1318 1317 1333 1326 1418 1332 1307 1299 1388 1392 1378 1382 1349 1349 1338 1411 1341 1337 1286 1382 1424 1304 1315 1336 1396 1335 1285 1335 1395 1318 1363 1322 1324 1340 1373 1339 1305 1392 1347 1400 1359 1288 1401 1340 1417 1372 1323 1422 1341 1387 1276 1295 1270 1339 1394 1319 1440 1384 1288 1388 1321 1313 1376 1288 1359 1402 1390 1338 1327 1361 1301 1372 1376 1356 1370 1301 1336 1333 1268 1327 1344 1367 1336 1338 1390 1413 1327 1327 1397 1303 1355 1404 1366 1308 1384 1377 1329 1276 1324 1351 1338 1322 1309 1421 1331 1326 1318 1326 1362 1419 1355 1383 1368 1375 1307 1377 1353 1330 1370 1339 1334 1306 1406 1352 1277 1270 1307 1375 1340 1264 1389 1331 1373 1359 1365 1342 1383 1351 1334 1312 1340 1367 1312 1323 1366 1324 1346 1324 1397 1315 1412 1330 1347 1375 1281 1367 1389 1268 1321 1395 1309 1314 1351 1312 1318 1344 1348 1353 1297 1321 1414 1351 1414 1268 1296 1381 1324 1349 1358 1341 1342 1349 1365 1355 1345 1331 1336 1310 1300 1390 1308 1365 1414 1325 1330 1323 1333 1318 1346 1278 1346 1355 1380 1380 1404 1356 1379 1371 1333 1332 1369 1342 1371 1339 1322 1396 1315 1333 1435 1336 1278 1369 1395 1375 1319 1390 1377 1458 1370 1391 1352 1374 1353 1394 1342 1412 1394 1324 1394 1401 1409 1383 1381 1348 1428 1346 1389 1448 1383 1380 1454 1348 1390 1371 1386 1359 1389 1443 1448 1382 1395 1410 1391 1393 1387 1351 1409 1387 1450 1460 1379 1485 1405 1418 1453 1400 1474 1448 1449 1487 1457 1549 1462 1546 1564 1508 1505 1498 1600 1555 1627 1564 1594 1578 1622 1586 1534 1647 1524 1597 1574 1642 1561 1608 1534 1582 1561 1594 1555 1620 1606 1544 1587 1590 1592 1589 1620 1576 1592 1613 1589 1641 1625 1562 1627 1474 1555 1540 1512 1527 1569 1474 1471 1499 1450 1495 1492 1523 1547 1450 1397 1451 1448 1422 1396 1421 1428 1442 1370 1431 1425 1411 1410 1376 1389 1358 1413 1383 1435 1368 1343 1414 1390 1385 1361 1429 1309 1363 1370 1376 1393 1328 1483 1461 1429 1417 1428 1388 1367 1415 1395 1461 1426 1474 1456 1433 1441 1444 1463 1460 1542 1322 1526 1451 1431 1431 1460 1465 1411 1374 1459 1398 1445 1457 1396 1415 1508 1468 1436 1398 1387 1446 1415 1469 1400 1415 1386 1391 1375 1456 1475 1406 1328 1417 1298 1416 1363 1372 1440 1315 1376 1375 1304 1346 1371 1311 1365 1322 1412 1333 1392 1320 1345 1345 1339 1377 1368 1387 1331 1333 1377 1333 1354 1291 1345 1349 1365 1292 1398 1363 1401 1362 1326 1285 1347 1402 1419 1359 1320 1427 1388 1331 1336 1369 1304 1297 1278 1368 1377 1387 1316 1310 1350 1309 1260 1342 1258 1351 1323 1391 1314 1396 1304 1357 1396 1334 1375 1317 1334 1365 1411 1391 1401 1341 1423 1342 1359 1304 1413 1339 1277 1362 1322 1345 1338 1319 1385 1329 1386 1352 1314 1419 1381 1347 1388 1374 1349 1408 1445 1399 1362 1387 1501 1449 1447 1470 1448 1537 1458 1525 1526 1409 1589 1503 1584 1479 1595 1582 1568 1646 1642 1628 1614 1649 1676 1758 1703 1775 1726 1827 1740 1748 1768 1722 1808 1733 1939 1844 1820 1785 1851 1813 1935 1850 1836 1835 1785 1788 1828 1859 1778 1777 1929 1959 1799 1860 1819 1775 1805 1836 1711 1803 1721 1710 1663 1708 1703 1714 1650 1567 1600 1629 1619 1497 1534 1517 1533 1468 1565 1429 1459 1486 1376 1464 1396 1429 1510 1487 1406 1441 1373 1364 1414 1409 1389 1409 1345 1363 1422 1376 1338 1282 1344 1332 1308 1409 1299 1380 1345 1344 1348 1325 1313 1387 1278 1328 1381 1378 1392 1406 1381 1357 1323 1416 1376 1361 1452 1310 1337 1382 1367 1350 1381 1396 1355 1352 1395 1421 1375 1357 1342 1446 1335 1430 1349 1413 1446 1345 1382 1320 1354 1335 1456 1402 1407 1313 1393 1369 1349 1299 1351 1370 1353 1362 1342 1357 1366 1410 1410 1376 1431 1351 1386 1332 1412 1353 1330 1304 1392 1361 1310 1352 1279 1378 1357 1376 1390 1327 1363 1334 1309 1294 1390 1367 1357 1348 1319 1338 1311 1370 1366 1340 1357 1423 1362 1367 1391 1382 1333 1361 1386 1378 1410 1427 1368 1375 1371 1399 1387 1420 1449 1478 1388 1434 1446 1438 1416 1400 1534 1394 1455 1523 1415 1455 1450 1511 1483 1520 1496 1482 1407 1438 1495 1508 1539 1562 1433 1381 1475 1345 1503 1434 1443 1483 1429 1490 1425 1455 1439 1429 1447 1420 1437 1428 1458 1357 1383 1407 1393 1324 1319 1420 1323 1373 1347 1349 1374 1342 1324 1348 1434 1378 1297 1389 1307 1386 1340 1307 1385 1290 1331 1290 1329 1300 1317 1324 1395 1222 1329 1319 1292 1269 1303 1267 1300 1329 1358 1307 1302 1252 1303 1305 1356 1252 1284 1345 1318 1375 1352 1295 1362 1365 1345 1364 1342 1402 1294 1353 1323 1315 1338 1311 1309 1312 1313 1314 1256 1290 1313 1333 1321 1321 1356 1228 1296 1274 1265 1273 1279 1308 1322 1350 1304 1336 1355 1361 1263 1273 1310 1359 1283 1294 1292 1291 1307 1325 1310 1329 1312 1315 1290 1309 1265 1312 1326 1370 1333 1394 1299 1305 1261 1346 1281 1317 1336 1356 1281 1325 1274 1318 1320 1274 1342 1317 1371 1263 1316 1352 1348 1288 1324 1293 1341 1275 1390 1252 1293 1281 1366 1293 1274 1275 1340 1333 1320 1362 1350 1344 1408 1330 1333 1337 1297 1363 1329 1390 1259 1273 1353 1293 1345 1321 1312 1338 1335 1316 1261 1315 1311 1341 1276 1284 1303 1294 1295 1259 1309 1260 1337 1284 1320 1288 1238 1309 1305 1308 1333 1285 1294 1314 1285 1392 1348 1299 1291 1276 1313 1349 1270 1323 1279 1346 1321 1353 1310 1239 1318 1285 1286 1336 1295 1230 1341 1327 1326 1351 1324 1322 1230 1357 1282 1293 1272 1326 1347 1365 1290 1240 1374 1301 1286 1248 1336 1324 1325 1319 1341 1291 1286 1313 1303 1297 1282 1350 1227 1259 1315 1348 1292 1306 1336 1321 1308 1307 1337 1321 1312 1323 1322 1304 1250 1320 1305 1323 1254 1293 1286 1322 1323 1279 1338 1308 1282 1307 1312 1323 1284 1298 1418 1271 1337 1266 1304 1381 1233 1371 1333 1239 1317 1319 1341 1245 1339 1350 1286 1337 1343 1253 1253 1347 1352 1263 1254 1268 1297 1255 1306 1309 1293 1275 1298 1291 1347 1284 1273 1279 1299 1332 1293 1303 1318 1363 1303 1252 1331 1342 1271 1302 1335 1314 1301 1264 1299 1301 1327 1275 1284 1303 1244 1256 1284 1344 1324 1261 1307 1326 1310 1246 1289 1273 1342 1304 1306 1362 1263 1240 1341 1312 1337 1345 1319 1277 1307 1351 1276 1251 1304 1307 1280 1295 1357 1293 1325 1246 1447 1274 1271 1278 1335 1258 1260 1332 1333 1250 1337 1310 1296 1286 1353 1218 1391 1259 1318 1300 1382 1295 1330 1327 1298 1341 1290 1310 1328 1300 1276 1349 1243 1279 1315 1329 1296 1372 1330 1295 1322 1293 1268 1315 1351 1315 1343 1377 1349 1294 1278 1331 1310 1336 1349 1334 1278 1306 1347 1331 1320 1353 1340 1329 1375 1331 1293 1328 1329 1415 1369 1299 1331 1335 1350 1406 1426 1316 1288 1396 1385 1417 1396 1417 1376 1363 1408 1442 1383 1394 1377 1398 1376 1403 1467 1372 1430 1338 1311 1368 1372 1374 1333 1373 1395 1381 1353 1338 1349 1408 1415 1326 1331 1418 1330 1322 1315 1309 1399 1358 1279 1338 1394 1340 1337 1334 1460 1248 1273 1336 1342 1297 1353 1320 1370 1376 1316 1321 1277 1266 1245 1332 1244 1273 1361 1287 1245 1291 1314 1229 1275 1303 1359 1356 1354 1325 1349 1352 1345 1275 1271 1270 1232 1354 1313 1287 1319 1321 1265 1296 1282 1310 1331 1334 1303 1371 1267 1291 1366 1353 1290 1320 1289 1330 1337 1363 1298 1249 1360 1239 1326 1336 1284 1336 1333 1344 1296 1302 1267 1361 1284 1239 1257 1346 1304 1306 1306 1249 1317 1311 1365 1267 1288 1281 1347 1319 1239 1376 1263 1270 1253 1310 1323 1326 1328 1309 1307 1313 1329 1243 1275 1299 1308 1302 1210 1299 1308 1280 1224 1271 1320 1355 1279 1261 1273 1286 1334 1266 1404 1300 1318 1320 1276 1202 1256 1279 1292 1366 1294 1286 1316 1349 1332 1309 1263 1370 1327 1245 1318 1252 1283 1282 1240 1323 1278 1285 1319 1250 1278 1298 1333 1329 1292 1265 1270 1325 1289 1323 1263 1328 1313 1256 1289 1286 1252 1291 1246 1304 1294 1367 1255 1333 1319 1292 1317 1329 1280 1271 1316 1288 1349 1297 1282 1319 1331 1244 1333 1238 1289 1278 1257 1265 1333 1352 1284 1309 1295 1223 1334 1366 1329 1324 1247 1260 1225 1303 1300 1252 1316 1281 1245 1276 1232 1330 1345 1331 1274 1344 1247 1367 1285 1364 1335 1398 1342 1356 1320 1319 1369 1278 1328 1393 1366 1368 1357 1324 1460 1396 1368 1426 1319 1370 1346 1322 1417 1404 1377 1442 1480 1503 1359 1453 1476 1414 1444 1467 1407 1454 1438 1403 1468 1507 1414 1443 1441 1496 1531 1517 1490 1485 1500 1497 1524 1547 1507 1509 1559 1542 1448 1597 1489 1513 1477 1510 1450 1535 1496 1481 1453 1460 1478 1478 1413 1466 1438 1410 1424 1452 1410 1380 1384 1399 1371 1378 1415 1321 1348 1325 1355 1433 1369 1328 1304 1313 1288 1362 1307 1321 1386 1257 1334 1325 1308 1387 1375 1327 1290 1302 1324 1283 1400 1259 1302 1355 1347 1306 1301 1298 1261 1295 1284 1345 1299 1294 1351 1317 1314 1376 1276 1315 1274 1284 1310 1343 1361 1323 1360 1268 1302 1323 1262 1307 1294 1286 1298 1300 1339 1284 1279 1364 1322 1295 1296 1280 1301 1363 1303 1323 1277 1319 1321 1327 1271 1321 1342 1270 1271 1355 1356 1272 1333 1309 1323 1303 1334 1293 1255 1349 1352 1322 1267 1278 1224 1386 1273 1317 1282 1277 1350 1259 1275 1293 1277 1286 1336 1324 1282 1297 1349 1361 1346 1289 1307 1304 1320 1282 1321 1326 1311 1282 1304 1286 1262 1295 1322 1320 1284 1266 1271 1302 1302 1333 1321 1353 1297 1302 1294 1284 1306 1280 1324 1320 1357 1310 1347 1305 1288 1376 1276 1360 1224 1290 1353 1277 1334 1265 1287 1310 1283 1294 1345 1311 1301 1323 1287 1318 1322 1269 1295 1280 1314 1325 1278 1255 1289 1311 1244 1286 1310 1291 1320 1273 1249 1300 1343 1275 1274 1249 1319 1336 1287 1353 1318 1277 1302 1241 1239 1300 1296 1358 1246 1330 1281 1324 1292 1249 1311 1258 1352 1233 1306 1323 1240 1360 1306 1274 1321 1318 1300 1299 1299 1318 1273 1325 1318 1256 1280 1321 1255 1266 1244 1355 1274 1343 1277 1248 1327 1277 1269 1270 1230 1320 1278 1265 1307 1244 1308 1338 1288 1354 1309 1289 1321 1254 1304 1369 1300 1310 1376 1290 1334 1315 1342 1244 1240 1310 1397 1287 1282 1323 1308 1289 1343 1305 1276 1263 1324 1330 1323 1382 1324 1238 1314 1288 1239 1276 1290 1213 1289 1271 1248 1329 1324 1315 1240 1317 1383 1378 1336 1349 1275 1257 1282 1283 1299 1278 1236 1270 1303 1379 1356 1269 1277 1306 1229 1271 1314 1300 1343 1292 1273 1286 1307 1399 1322 1273 1359 1265 1295 1276 1232 1275 1291 1307 1337 1351 1353 1303 1328 1307 1291 1339 1284 1284 1322 1261 1362 1332 1346 1286 1387 1324 1321 1274 1287 1276 1310 1341 1295 1334 1311 1332 1236 1264 1300 1357 1313 1345 1267 1302 1340 1338 1258 1233 1263 1300 1332 1292 1345 1375 1363 1296 1261 1269 1307 1230 1299 1331 1274 1289 1288 1251 1328 1331 1311 1350 1297 1285 1245 1227 1275 1300 1301 1287 1282 1258 1319 1264 1282 1234 1333 1358 1291 1303 1255 1300 1311 1355 1312 1338 1322 1340 1324 1280 1225 1325 1358 1266 1258 1255 1330 1266 1353 1296 1302 1340 1263 1275 1317 1272 1234 1271 1310 1309 1311 1305 1267 1332 1265 1284 1280 1290 1292 1246 1326 1346 1304 1368 1348 1326 1292 1337 1330 1246 1319 1317 1271 1274 1293 1353 1222 1356 1328 1327 1419 1375 1309 1337 1303 1280 1308 1319 1274 1342 1267 1318 1308 1334 1261 1329 1327 1312 1265 1266 1292 1291 1349 1294 1307 1301 1325 1320 1268 1348 1363 1356 1314 1307 1303 1340 1362 1271 1282 1258 1305 1349 1285 1243 1294 1263 1318 1383 1298 1324 1334 1258 1316 1344 1291 1264 1337 1272 1336 1337 1270 1305 1286 1292 1367 1289 1338 1321 1277 1274 1301 1330 1339 1295 1284 1301 1309 1375 1315 1286 1332 1303 1281 1299 1343 1276 1337 1279 1382 1332 1303 1296 1250 1319 1379 1218 1332 1264 1385 1329 1344 1358 1314 1343 1432 1321 1364 1334 1339 1324 1325 1313 1314 1324 1341 1376 1346 1341 1349 1371 1359 1348 1331 1380 1359 1426 1428 1443 1319 1291 1376 1392 1382 1311 1392 1367 1335 1388 1343 1384 1378 1412 1372 1396 1373 1324 1327 1378 1372 1420 1373 1429 1384 1380 1324 1370 1371 1469 1359 1373 1339 1373 1345 1365 1396 1387 1373 1406 1457 1301 1329 1418 1422 1378 1350 1422 1423 1371 1391 1326 1335 1457 1423 1376 1414 1446 1377 1409 1362 1390 1345 1372 1457 1392 1425 1390 1381 1365 1365 1338 1381 1426 1387 1345 1310 1418 1336 1410 1401 1402 1369 1361 1446 1394 1397 1315 1395 1293 1397 1393 1339 1364 1359 1379 1401 1324 1306 1336 1430 1340 1318 1362 1384 1378 1353 1317 1341 1315 1346 1317 1329 1369 1321 1401 1292 1305 1285 1358 1297 1345 1282 1322 1331 1385 1296 1306 1346 1343 1338 1291 1364 1325 1315 1285 1298 1344 1381 1272 1255 1265 1300 1339 1309 1328 1343 1278 1335 1371 1293 1277 1343 1321 1334 1292 1336 1323 1381 1281 1329 1360 1300 1348 1330 1342 1296 1322 1266 1317 1255 1306 1327 1326 1344 1363 1333 1284 1291 1318 1382 1331 1327 1407 1367 1365 1351 1357 1367 1374 1412 1375 1302 1371 1400 1395 1332 1383 1376 1290 1390 1373 1342 1464 1331 1395 1323 1352 1302 1306 1318 1408 1331 1377 1421 1283 1369 1320 1320 1465 1363 1359 1304 1394 1357 1291 1368 1384 1346 1256 1361 1261 1346 1437 1324 1431 1362 1380 1368 1388 1381 1317 1320 1413 1376 1319 1451 1384 1435 1426 1377 1454 1453 1486 1385 1406 1475 1458 1535 1397 1534 1445 1584 1463 1521 1475 1510 1547 1543 1497 1601 1579 1504 1671 1597 1606 1657 1672 1672 1620 1692 1636 1730 1763 1722 1801 1769 1735 1860 1686 1765 1799 1817 1791 1836 1743 1820 1815 1765 1716 1712 1680 1757 1824 1755 1749 1715 1774 1794 1703 1728 1613 1763 1682 1692 1618 1703 1670 1623 1577 1652 1701 1634 1606 1634 1575 1580 1512 1591 1587 1529 1508 1568 1480 1513 1460 1519 1521 1380 1482 1375 1437 1475 1420 1456 1473 1429 1424 1440 1424 1425 1352 1353 1389 1368 1345 1299 1369 1421 1388 1325 1338 1338 1309 1341 1374 1322 1324 1360 1344 1389 1349 1355 1294 1333 1263 1360 1365 1342 1301 1281 1301 1323 1338 1328 1388 1342 1342 1403 1315 1294 1318 1241 1309 1269 1276 1307 1383 1376 1286 1347 1318 1311 1342 1372 1346 1309 1393 1326 1357 1335 1416 1411 1304 1345 1295 1356 1415 1414 1408 1326 1373 1357 1385 1426 1402 1371 1336 1411 1347 1412 1420 1379 1360 1400 1323 1436 1468 1370 1397 1430 1467 1378 1361 1438 1383 1333 1385 1406 1497 1462 1402 1429 1399 1457 1492 1416 1378 1426 1348 1363 1399 1439 1387 1344 1323 1415 1444 1356 1315 1383 1374 1356 1386 1402 1412 1344 1399 1396 1358 1399 1383 1369 1414 1446 1359 1375 1410 1397 1341 1308 1418 1425 1353 1407 1367 1387 1327 1353 1367 1333 1338 1369 1332 1265 1372 1282 1378 1353 1353 1335 1318 1308 1301 1290 1374 1345 1366 1377 1351 1386 1350 1379 1402 1379 1325 1298 1267 1324 1302 1273 1304 1295 1291 1306 1302 1337 1347 1305 1339 1245 1303 1326 1349 1324 1289 1301 1229 1295 1326 1303 1278 1280 1282 1281 1333 1286 1358 1302 1312 1334 1206 1260 1295 1306 1313 1357 1298 1242 1325 1290 1374 1311 1319 1317 1309 1322 1320 1321 1280 1315 1295 1303 1288 1334 1275 1361 1296 1296 1293 1227 1310 1301 1311 1315 1298 1344 1242 1288 1323 1339 1384 1299 1312 1281 1371 1274 1321 1345 1311 1284 1287 1341 1354 1265 1300 1297 1346 1274 1299 1328 1301 1306 1344 1299 1364 1319 1328 1279 1347 1342 1312 1324 1342 1299 1346 1264 1335 1251 1251 1347 1303 1332 1330 1291 1334 1346 1331 1274 1310 1263 1353 1310 1320 1337 1351 1271 1246 1276 1310 1338 1370 1275 1258 1345 1253 1296 1315 1343 1277 1285 1271 1322 1314 1321 1300 1283 1357 1276 1382 1354 1353 1253 1286 1276 1306 1246 1283 1251 1311 1277 1268 1239 1368 1318 1296 1324 1354 1344 1318 1397 1332 1282 1255 1320 1318 1355 1305 1411 1238 1354 1290 1307 1304 1345 1334 1292 1290 1290 1286 1358 1320 1269 1349 1291 1297 1320 1283 1288 1340 1261 1396 1357 1339 1324 1269 1338 1334 1316 1323 1316 1297 1315 1285 1312 1234 1252 1280 1327 1306 1353 1329 1280 1389 1381 1308 1263 1289 1330 1301 1345 1317 1339 1331 1303 1359 1298 1300 1393 1312 1313 1296 1345 1285 1297 1298 1290 1352 1339 1293 1331 1299 1298 1298 1310 1352 1328 1379 1317 1315 1334 1350 1314 1266 1325 1267 1329 1291 1357 1415 1355 1276 1324 1253 1306 1363 1319 1267 1253 1334 1340 1359 1287 1307 1305 1342 1315 1294 1344 1290 1343 1313 1307 1268 1257 1435 1318 1297 1298 1311 1238 1293 1340 1298 1416 1308 1334 1343 1344 1325 1301 1330 1314 1279 1281 1309 1337 1318 1264 1286 1365 1371 1292 1312 1386 1309 1308 1310 1314 1289 1273 1277 1273 1363 1285 1288 1336 1354 1341 1286 1367 1362 1336 1323 1306 1325 1343 1296 1251 1302 1382 1291 1239 1313 1364 1298 1405 1322 1337 1316 1321 1292 1326 1330 1301 1376 1336 1296 1356 1306 1337 1379 1306 1328 1332 1287 1401 1320 1319 1411 1406 1376 1390 1305 1352 1348 1428 1353 1356 1359 1402 1357 1314 1363 1319 1381 1359 1335 1412 1393 1357 1370 1349 1375 1363 1360 1424 1338 1349 1398 1333 1345 1321 1349 1380 1299 1373 1346 1398 1348 1358 1309 1374 1327 1415 1370 1365 1312 1378 1350 1297 1336 1380 1353 1284 1352 1351 1331 1348 1368 1347 1332 1349 1330 1327 1413 1301 1322 1251 1317 1314 1312 1334 1299 1313 1368 1338 1283 1275 1285 1279 1334 1329 1320 1329 1331 1304 1272 1388 1331 1387 1297 1345 1305 1333 1318 1370 1312 1346 1375 1293 1336 1346 1328 1349 1284 1357 1331 1335 1401 1357 1375 1316 1373 1283 1326 1320 1335 1279 1358 1240 1255 1255 1339 1353 1306 1339 1383 1299 1364 1277 1332 1295 1250 1311 1332 1302 1344 1308 1310 1301 1311 1290 1321 1363 1331 1330 1317 1313 1325 1301 1343 1296 1345 1302 1263 1312 1279 1343 1340 1268 1369 1266 1336 1312 1279 1292 1301 1269 1389 1291 1310 1295 1236 1330 1346 1299 1294 1285 1351 1371 1315 1330 1378 1317 1271 1306 1353 1256 1353 1285 1327 1296 1332 1336 1334 1229 1353 1255 1307 1327 1251 1311 1371 1285 1321 1377 1330 1294 1375 1338 1344 1250 1297 1283 1244 1337 1351 1284 1408 1332 1293 1294 1294 1309 1336 1357 1362 1362 1331 1344 1366 1329 1342 1342 1351 1322 1293 1362 1310 1372 1420 1341 1298 1371 1282 1253 1369 1346 1294 1358 1361 1384 1313 1396 1464 1347 1378 1391 1429 1385 1393 1407 1389 1406 1337 1449 1422 1461 1496 1385 1433 1498 1463 1527 1449 1492 1489 1451 1591 1537 1465 1500 1450 1539 1563 1500 1530 1520 1567 1589 1495 1641 1499 1612 1550 1582 1556 1534 1599 1541 1558 1553 1569 1543 1607 1601 1602 1617 1496 1583 1569 1564 1587 1530 1551 1563 1650 1546 1569 1544 1589 1516 1542 1538 1458 1593 1504 1496 1502 1598 1513 1497 1410 1512 1468 1514 1500 1489 1430 1492 1459 1422 1421 1463 1440 1485 1441 1485 1436 1403 1410 1366 1420 1370 1425 1375 1415 1347 1396 1417 1380 1407 1371 1389 1419 1309 1362 1360 1356 1402 1370 1332 1448 1400 1302 1360 1334 1388 1370 1429 1355 1327 1307 1317 1328 1284 1274 1361 1314 1270 1387 1303 1299 1286 1275 1321 1292 1330 1339 1317 1326 1298 1347 1352 1303 1389 1322 1323 1425 1314 1366 1373 1385 1278 1264 1315 1335 1290 1353 1283 1309 1286 1309 1326 1335 1285 1284 1331 1386 1332 1338 1384 1275 1300 1344 1369 1305 1305 1314 1343 1329 1328 1335 1343 1344 1343 1295 1363 1336 1341 1381 1363 1366 1327 1313 1325 1343 1389 1356 1378 1375 1295 1378 1367 1344 1296 1303 1315 1378 1352 1447 1396 1397 1369 1386 1382 1344 1330 1405 1323 1412 1378 1404 1397 1416 1401 1408 1336 1384 1358 1377 1365 1376 1322 1401 1366 1377 1390 1382 1364 1344 1368 1385 1358 1382 1376 1378 1317 1393 1395 1316 1361 1313 1375 1307 1330 1388 1365 1385 1294 1388 1272 1336 1310 1295 1323 1382 1345 1367 1373 1294 1265 1398 1351 1318 1404 1333 1306 1329 1287 1319 1401 1355 1369 1290 1299 1263 1312 1324 1314 1349 1385 1383 1310 1278 1330 1345 1292 1287 1315 1265 1282 1291 1349 1320 1304 1290 1286 1258 1317 1286 1259 1297 1343 1401 1222 1313 1313 1256 1370 1320 1315 1262 1339 1309 1351 1272 1285 1318 1256 1298 1352 1299 1377 1340 1305 1310 1300 1358 1317 1227 1328 1406 1340 1312 1301 1357 1286 1312 1312 1291 1351 1341 1290 1347 1335 1222 1224 1272 1341 1287 1314 1298 1262 1346 1374 1299 1313 1324 1321 1325 1282 1354 1325 1338 1276 1276 1356 1356 1320 1284 1261 1299 1315 1296 1371 1239 1331 1399 1309 1359 1344 1329 1340 1298 1307 1334 1318 1245 1342 1272 1299 1328 1222 1325 1317 1245 1353 1263 1293 1312 1318 1303 1350 1348 1376 1342 1330 1261 1340 1291 1285 1328 1302 1308 1311 1238 1285 1333 1300 1356 1311 1336 1317 1369 1332 1291 1244 1274 1316 1320 1295 1262 1334 1288 1329 1353 1286 1389 1235 1310 1245 1276 1385 1258 1293 1346 1298 1338 1355 1278 1295 1324 1289 1344 1273 1359 1311 1286 1345 1299 1322 1328 1305 1277 1328 1264 1285 1272 1272 1294 1320 1332 1324 1297 1305 1300 1288 1334 1283 1367 1322 1255 1319 1312 1303 1310 1370 1295 1271 1256 1346 1323 1367 1315 1273 1278 1354 1304 1315 1270 1342 1305 1312 1405 1322 1310 1381 1343 1301 1343 1339 1353 1348 1267 1272 1295 1335 1318 1273 1270 1357 1299 1372 1300 1311 1345 1366 1303 1371 1354 1224 1289 1305 1278 1305 1275 1254 1320 1327 1313 1376 1277 1346 1262 1265 1336 1268 1342 1355 1282 1250 1326 1323 1330 1236 1218 1354 1366 1324 1294 1315 1299 1300 1390 1333 1232 1266 1255 1305 1314 1244 1301 1295 1244 1330 1344 1331 1360 1312 1312 1291 1386 1297 1379 1263 1322 1198 1368 1312 1378 1356 1331 1276 1282 1305 1379 1290 1283 1298 1238 1270 1306 1323 1305 1316 1273 1308 1318 1299 1330 1368 1296 1248 1326 1198 1369 1304 1389 1281 1302 1349 1352 1351 1415 1316 1296 1326 1411 1280 1313 1343 1398 1336 1354 1314 1358 1367 1359 1330 1378 1298 1339 1326 1405 1341 1342 1415 1309 1389 1304 1362 1424 1360 1347 1425 1349 1350 1333 1402 1391 1402 1400 1374 1385 1378 1310 1369 1371 1428 1361 1419 1346 1384 1435 1389 1391 1472 1357 1444 1421 1392 1372 1355 1365 1419 1362 1359 1418 1371 1383 1397 1424 1375 1431 1336 1370 1430 1394 1361 1438 1402 1446 1443 1351 1380 1386 1456 1393 1388 1462</counts>
			</dataPoints>
		</scan>
	</xrdMeasurement>
</xrdMeasurements>
