<?xml version="1.0"?>
<xrdMeasurements xmlns="http://www.xrdml.com/XRDMeasurement/2.3" xmlns:xsi="http://www.w3.org/2001/XMLSchema-instance" xsi:schemaLocation="http://www.xrdml.com/XRDMeasurement/2.3 http://www.xrdml.com/XRDMeasurement/2.3/XRDMeasurement.xsd" status="Completed" recordIdentifier="{939996A7-962A-439B-9CC5-728D83907FDD}">
	<comment>
		<entry/>
	</comment>
	<sample type="To be analyzed">
		<id>GPSS_Li1p6Ni0p3V0p4Zn0p3Cl4_122625_694efed0ae15af25ac374c4d</id>
		<name></name>
		<preparedBy></preparedBy>
	</sample>
	<xrdMeasurement measurementType="Scan" status="Completed" sampleMode="Reflection">
		<usedWavelength intended="K-Alpha 1">
			<kAlpha1 unit="Angstrom">1.5405980</kAlpha1>
			<kAlpha2 unit="Angstrom">1.5444260</kAlpha2>
			<kBeta unit="Angstrom">1.3922500</kBeta>
			<ratioKAlpha2KAlpha1>0.5000</ratioKAlpha2KAlpha1>
		</usedWavelength>
		<incidentBeamPath>
			<radius unit="mm">145.00</radius>
			<xRayTube id="1010048" name="Empyrean Cu LFF HR (9430 033 7310x)">
				<tension unit="kV">40.0</tension>
				<current unit="mA">15.0</current>
				<anodeMaterial>Cu</anodeMaterial>
				<focus type="Line">
					<length unit="mm">12.0</length>
					<width unit="mm">0.4</width>
					<takeOffAngle unit="deg">6.0</takeOffAngle>
				</focus>
			</xRayTube>
			<sollerSlit id="21010002" name="Soller slits 0.04 rad.">
				<opening unit="rad">0.0400</opening>
			</sollerSlit>
			<mask id="22031000" name="Fixed mask 13 mm">
				<width unit="mm">9.00</width>
			</mask>
			<divergenceSlit id="22120001" name="Divergence slit 1°" xsi:type="fixedDivergenceSlitType">
				<distanceToSample unit="mm">50.00</distanceToSample>
				<height unit="mm">1.52</height>
			</divergenceSlit>
		</incidentBeamPath>
		<sampleMovement xsi:type="spinningSampleMovementType">
			<spinnerRevolutionTime unit="seconds">1.0</spinnerRevolutionTime>
		</sampleMovement>
		<diffractedBeamPath>
			<radius unit="mm">145.00</radius>
			<antiScatterSlit id="22090040" name="AS slit 9 mm (PIXcel)" xsi:type="fixedAntiScatterSlitType">
				<height unit="mm">9.00</height>
			</antiScatterSlit>
			<sollerSlit id="21020003" name="Large Soller slits 0.04 rad.">
				<opening unit="rad">0.0400</opening>
			</sollerSlit>
			<filter id="20030001" name="Large beta-filter Nickel">
				<material>Ni</material>
				<thickness unit="mm">0.020</thickness>
			</filter>
			<detector id="7010019" name="PIXcel1D-Medipix3 detector" xsi:type="rtmsDetectorType">
				<phd unit="keV">
					<lowerLevel>4.02</lowerLevel>
					<upperLevel>11.27</upperLevel>
				</phd>
				<mode>Scanning</mode>
				<activeLength unit="deg">5.542</activeLength>
			</detector>
		</diffractedBeamPath>
		<scan appendNumber="0" mode="Continuous" scanAxis="Gonio" status="Completed">
			<header>
				<startTimeStamp>2025-12-28T10:28:02-08:00</startTimeStamp>
				<endTimeStamp>2025-12-28T10:36:09-08:00</endTimeStamp>
				<author>
					<name>AutomatedUser</name>
				</author>
				<source>
					<applicationSoftware version="1.7b (136)">PANalytical Aeris Instrument Suite</applicationSoftware>
					<instrumentControlSoftware version="3.2.00000000 20240306">AERIS</instrumentControlSoftware>
					<instrumentID>950485</instrumentID>
				</source>
			</header>
			<dataPoints>
				<positions axis="2Theta" unit="deg">
					<startPosition>10.00943322</startPosition>
					<endPosition>99.99442286</endPosition>
				</positions>
				<positions axis="Omega" unit="deg">
					<startPosition>5.00471661</startPosition>
					<endPosition>49.99721143</endPosition>
				</positions>
				<commonCountingTime unit="seconds">12.495</commonCountingTime>
				<counts unit="counts">2933 2876 2874 2884 2956 2826 2832 2841 2821 2862 2825 2958 2883 2917 2832 2908 2913 2843 2784 2767 2866 2858 2784 2838 2862 2885 2853 2941 2834 2839 2801 2910 2871 2920 2870 2921 2883 2836 2892 2902 2945 2868 2913 2933 2866 2836 2750 2936 2819 2799 2912 2985 2896 2865 2844 2917 2781 2833 2862 2964 2887 2890 2853 2850 2878 2895 2950 2848 2962 2839 2830 2885 2933 2862 2905 2879 2929 2874 2947 2908 2876 2824 2973 2922 2861 2927 2876 3027 2923 2968 2919 2956 2976 2945 2929 2995 2949 2996 2973 3019 2999 2932 3056 2982 3045 3059 2960 2964 3052 2949 2974 3031 3029 2972 3054 3034 3017 3019 3017 3066 3031 3093 2926 2990 2989 3066 3110 3052 3116 3134 2987 3097 3096 2981 3077 3078 3030 2958 3088 3132 3097 3163 3082 3101 3070 3106 3074 3047 2987 3069 3025 3045 3054 2994 2986 2926 2905 2934 2803 2866 2911 3000 2860 2871 2929 2841 2904 2890 2801 2864 2860 2962 2909 2804 2794 2885 2772 2849 2820 2814 2850 2807 2692 2799 2775 2764 2729 2829 2860 2760 2786 2778 2774 2842 2770 2818 2818 2721 2813 2605 2891 2781 2787 2754 2728 2646 2712 2720 2684 2746 2722 2738 2760 2867 2705 2712 2709 2762 2720 2730 2756 2623 2736 2785 2759 2747 2714 2688 2722 2696 2681 2632 2674 2702 2774 2657 2757 2641 2606 2650 2736 2700 2697 2570 2672 2672 2650 2652 2654 2611 2642 2706 2668 2712 2714 2666 2667 2667 2702 2734 2676 2625 2764 2705 2663 2641 2632 2692 2622 2716 2690 2707 2676 2632 2685 2631 2642 2656 2619 2689 2784 2652 2599 2652 2569 2635 2695 2657 2694 2680 2668 2585 2554 2707 2604 2687 2677 2647 2649 2690 2611 2750 2718 2705 2656 2624 2566 2595 2714 2688 2644 2689 2603 2652 2686 2723 2837 2713 2723 2674 2697 2728 2689 2740 2735 2659 2696 2774 2759 2819 2768 2721 2730 2784 2778 2700 2770 2738 2785 2798 2794 2838 2774 2824 2757 2947 2840 2882 2867 2887 2830 2894 2847 2836 2949 2830 2886 2948 2977 2936 2982 2927 2949 2975 2974 2994 2970 3003 2959 3042 3013 3037 2983 2946 3021 3084 2996 3114 3014 3070 3044 3072 3205 3142 3085 3079 3129 3114 3185 3128 3109 3130 3219 3060 3158 3129 3069 3097 3130 3150 3262 3153 3125 3249 3150 3128 3256 3235 3291 3274 3191 3151 3368 3313 3317 3315 3308 3249 3258 3291 3234 3273 3251 3407 3344 3314 3265 3348 3328 3322 3446 3306 3410 3403 3492 3363 3455 3352 3506 3515 3540 3666 3604 3631 3708 3807 3671 3635 3726 3664 3699 3573 3766 3780 3775 3587 3646 3697 3706 3687 3698 3665 3630 3787 3817 3753 3810 3906 3904 4032 4127 4137 4260 4287 4310 4416 4325 4418 4282 4201 4240 4301 4272 4203 4234 4284 4201 4235 4164 4225 4319 4213 4211 4268 4201 4382 4154 4206 4144 4197 4057 4055 4043 4015 3989 4077 4145 4181 4154 4155 4120 4284 4225 4359 4303 4365 4419 4490 4445 4459 4517 4493 4401 4322 4328 4348 4355 4219 4044 4213 4037 3925 3813 3686 3560 3542 3298 3163 3224 3083 3072 3007 2944 3007 3048 2840 2957 2850 2834 2822 2905 2848 2820 2740 2804 2760 2867 2886 2906 2799 2855 2866 2809 2719 2744 2670 2697 2795 2781 2768 2775 2726 2717 2716 2695 2728 2683 2690 2676 2668 2694 2683 2717 2783 2735 2667 2698 2731 2561 2733 2618 2718 2672 2664 2670 2642 2635 2718 2644 2716 2690 2727 2731 2699 2605 2608 2684 2525 2537 2632 2707 2569 2646 2621 2659 2691 2741 2591 2705 2662 2760 2607 2610 2736 2646 2635 2617 2653 2645 2628 2642 2649 2615 2677 2631 2539 2569 2742 2543 2605 2587 2617 2571 2705 2694 2543 2582 2596 2761 2679 2712 2674 2662 2697 2682 2638 2670 2719 2670 2679 2731 2663 2514 2660 2668 2642 2653 2658 2637 2729 2720 2786 2599 2660 2685 2698 2682 2557 2646 2710 2693 2649 2615 2622 2659 2669 2580 2642 2608 2636 2669 2633 2689 2596 2561 2542 2571 2616 2568 2607 2478 2628 2692 2605 2591 2645 2593 2671 2596 2616 2556 2621 2494 2534 2581 2551 2433 2526 2596 2516 2435 2601 2590 2549 2642 2519 2490 2425 2477 2504 2470 2569 2494 2623 2465 2490 2543 2449 2506 2495 2509 2560 2459 2490 2486 2479 2594 2492 2519 2476 2522 2601 2543 2518 2488 2529 2606 2517 2461 2552 2502 2538 2543 2423 2506 2468 2498 2510 2488 2436 2454 2569 2468 2603 2426 2555 2405 2525 2516 2533 2570 2532 2567 2632 2466 2596 2578 2642 2667 2559 2624 2594 2564 2703 2673 2687 2655 2675 2606 2647 2616 2645 2554 2615 2536 2669 2604 2573 2632 2611 2534 2625 2607 2645 2544 2472 2587 2523 2615 2555 2610 2601 2613 2600 2761 2705 2541 2600 2628 2586 2542 2574 2619 2583 2568 2516 2549 2621 2572 2559 2540 2655 2577 2546 2510 2505 2517 2556 2434 2480 2440 2480 2464 2458 2404 2445 2399 2491 2345 2432 2376 2423 2477 2395 2373 2386 2334 2428 2427 2451 2362 2396 2365 2382 2402 2296 2408 2378 2375 2355 2328 2369 2413 2293 2345 2411 2413 2444 2381 2278 2322 2294 2438 2351 2316 2350 2296 2363 2443 2310 2342 2385 2270 2340 2301 2329 2283 2416 2245 2340 2261 2291 2263 2317 2331 2234 2360 2240 2303 2285 2322 2302 2320 2268 2313 2359 2259 2310 2250 2268 2342 2344 2178 2357 2261 2344 2170 2299 2308 2244 2199 2268 2323 2249 2289 2178 2293 2339 2251 2321 2260 2255 2309 2327 2328 2294 2305 2226 2343 2251 2262 2293 2329 2268 2205 2272 2328 2244 2275 2221 2269 2301 2322 2254 2361 2341 2305 2222 2229 2264 2373 2225 2289 2236 2238 2310 2207 2167 2246 2220 2269 2181 2233 2209 2150 2309 2273 2272 2222 2230 2239 2284 2257 2214 2188 2333 2236 2202 2239 2137 2352 2266 2257 2305 2200 2300 2185 2271 2268 2181 2212 2210 2251 2227 2296 2196 2189 2293 2219 2295 2225 2180 2291 2166 2318 2199 2190 2216 2282 2186 2312 2236 2314 2280 2292 2232 2184 2240 2253 2263 2309 2236 2238 2286 2232 2284 2231 2197 2278 2271 2175 2373 2288 2218 2233 2282 2242 2175 2205 2255 2241 2272 2242 2248 2308 2218 2292 2224 2256 2187 2174 2256 2279 2190 2187 2225 2256 2260 2295 2277 2261 2274 2255 2213 2258 2318 2222 2295 2171 2235 2227 2169 2293 2227 2286 2253 2246 2271 2259 2142 2154 2253 2156 2244 2257 2242 2239 2183 2279 2290 2208 2207 2264 2187 2264 2272 2129 2203 2139 2247 2185 2245 2163 2230 2207 2258 2186 2189 2122 2188 2244 2141 2217 2185 2197 2200 2244 2185 2264 2181 2224 2161 2188 2212 2201 2196 2147 2102 2179 2207 2198 2165 2175 2172 2041 2171 2141 2126 2049 2102 2064 2181 2141 2096 2085 2064 2085 2125 2086 2037 2123 2110 2118 2016 2099 2007 2134 2072 2142 2052 2075 2132 2074 2012 2034 2089 2052 1955 1988 1969 1954 2088 1978 2155 1952 1896 1996 2025 2069 2027 1937 2032 1951 2034 2021 2000 1969 1923 1924 1982 1914 1963 1920 1908 1907 1982 1929 1857 1919 1957 1970 1894 1944 1901 1956 1920 1915 1955 1926 1853 1807 1854 1840 1860 1861 1849 1845 1835 1806 1764 1842 1861 1796 1806 1891 1864 1873 1894 1906 1900 1897 1797 1792 1783 1833 1892 1780 1797 1767 1808 1813 1833 1802 1753 1780 1768 1835 1732 1866 1713 1852 1832 1832 1785 1767 1752 1746 1814 1811 1741 1761 1762 1711 1699 1747 1818 1798 1747 1814 1767 1809 1755 1811 1817 1852 1903 1935 1936 1904 1912 1926 2007 1886 1956 1914 1915 1890 1960 1946 1928 1956 1986 1906 1992 1932 1893 1857 1958 1909 1949 1906 1885 1835 1873 1883 1904 1927 1992 2013 1897 1939 1828 1919 1957 1928 1970 1900 1930 2080 1960 1953 1900 1914 1951 1854 1945 1951 1937 1940 1921 1929 1865 1863 1843 1891 1826 1827 1819 1840 1812 1829 1719 1760 1727 1741 1820 1778 1700 1713 1734 1744 1706 1676 1719 1677 1704 1757 1749 1779 1778 1690 1711 1684 1765 1723 1765 1747 1704 1705 1758 1804 1708 1683 1673 1762 1737 1668 1640 1744 1719 1764 1664 1761 1740 1737 1803 1659 1740 1684 1628 1746 1653 1773 1698 1719 1665 1702 1699 1722 1765 1685 1717 1715 1755 1727 1770 1772 1804 1718 1809 1637 1790 1686 1804 1761 1759 1672 1708 1654 1749 1777 1784 1765 1686 1814 1720 1787 1755 1694 1717 1706 1772 1817 1721 1803 1796 1791 1784 1718 1821 1835 1761 1841 1893 1884 1846 1924 1896 1890 1846 1858 1820 1851 1901 1862 1848 1837 1786 1803 1871 1839 1784 1873 1899 1831 1832 1801 1834 1899 1822 1828 1806 1824 1821 1770 1902 1818 1828 1789 1830 1777 1749 1916 1850 1886 1862 1899 1818 1778 1748 1764 1834 1794 1872 1755 1817 1701 1776 1752 1728 1702 1721 1693 1797 1753 1660 1654 1658 1752 1649 1722 1652 1662 1678 1651 1647 1660 1558 1666 1652 1630 1638 1652 1702 1595 1609 1627 1606 1691 1603 1637 1531 1606 1599 1650 1642 1652 1658 1607 1546 1580 1578 1564 1588 1557 1639 1597 1595 1538 1489 1556 1619 1594 1492 1526 1524 1549 1553 1561 1586 1522 1453 1512 1533 1476 1565 1527 1459 1534 1439 1482 1493 1528 1464 1435 1506 1470 1521 1461 1501 1526 1531 1496 1477 1464 1506 1473 1502 1500 1440 1430 1524 1422 1446 1454 1488 1507 1395 1481 1455 1463 1509 1465 1455 1387 1445 1442 1403 1468 1405 1447 1524 1432 1454 1390 1447 1432 1427 1460 1429 1424 1404 1482 1385 1425 1459 1396 1471 1499 1368 1438 1395 1433 1420 1435 1419 1489 1400 1442 1328 1373 1536 1432 1501 1365 1451 1455 1508 1404 1510 1429 1460 1428 1470 1443 1374 1441 1379 1397 1388 1440 1371 1469 1393 1421 1443 1362 1473 1446 1489 1460 1521 1556 1483 1590 1544 1642 1611 1597 1677 1663 1650 1696 1757 1675 1750 1678 1737 1677 1695 1745 1652 1626 1624 1597 1659 1646 1590 1666 1624 1705 1666 1655 1660 1694 1682 1674 1705 1713 1690 1675 1661 1716 1753 1706 1770 1686 1784 1727 1781 1778 1737 1746 1744 1752 1704 1750 1723 1665 1677 1624 1665 1646 1687 1550 1569 1615 1596 1539 1516 1506 1529 1486 1489 1462 1455 1482 1459 1452 1449 1436 1406 1414 1430 1342 1434 1423 1404 1385 1450 1327 1390 1403 1372 1373 1463 1363 1397 1461 1405 1395 1424 1436 1381 1459 1437 1403 1441 1455 1439 1465 1512 1509 1448 1584 1612 1688 1719 1806 1830 1809 1919 2139 2022 2082 2211 2386 2404 2479 2456 2509 2629 2711 2689 2744 2772 2790 2928 2809 2905 2921 2807 2874 2845 2980 2936 2910 2851 2829 2821 2898 2872 2978 2824 2869 2823 2856 2883 2882 2804 2851 2809 2754 2808 2736 2723 2735 2744 2643 2619 2553 2540 2531 2536 2435 2488 2319 2461 2352 2385 2432 2275 2235 2188 2070 2059 2100 1975 1973 1900 1835 1839 1871 1658 1703 1655 1620 1560 1540 1483 1473 1501 1469 1400 1424 1412 1391 1414 1398 1400 1350 1351 1365 1325 1397 1355 1336 1286 1477 1394 1376 1369 1292 1295 1356 1260 1249 1317 1265 1278 1261 1275 1238 1260 1317 1253 1298 1269 1329 1230 1235 1261 1220 1245 1331 1226 1220 1247 1241 1260 1240 1214 1266 1227 1274 1240 1220 1322 1150 1289 1244 1197 1156 1194 1224 1210 1187 1231 1219 1188 1174 1172 1197 1202 1167 1194 1209 1172 1118 1174 1128 1148 1139 1088 1180 1160 1119 1040 1092 1153 1092 1161 1074 1062 1070 1104 1122 1100 1073 1099 1084 1059 1056 1072 1067 1136 1061 1090 1107 1055 1075 1055 1035 1099 1101 1132 1061 1072 1075 1083 1054 1115 1005 1050 1009 1088 1018 1047 1025 989 1008 1078 1048 1031 1018 1004 1062 980 1006 976 1035 971 1005 1006 1025 1038 1005 982 996 1037 1041 1008 1032 1007 1015 1027 1015 1025 1025 1026 1068 1000 987 1040 995 1006 1014 1052 1039 1096 1027 966 1058 964 1107 1011 980 1024 1039 1086 1031 1036 1036 975 1006 1044 976 1038 1061 1032 1007 999 1024 995 973 1110 1025 990 1012 1003 975 951 1002 984 967 984 981 995 993 1036 981 1033 968 1043 969 988 968 1013 1015 993 958 980 986 969 972 968 981 939 991 981 942 1011 987 925 1020 969 1054 976 1004 1014 1026 1012 959 955 992 943 976 941 985 920 1026 965 965 973 977 1001 967 1013 1007 998 978 1022 1004 1052 995 975 972 966 1005 981 975 999 1001 990 979 942 962 1008 979 1034 1022 965 937 939 944 951 1042 983 1002 981 1071 1013 1079 1004 965 998 939 1025 1054 1018 954 996 987 977 1010 978 1009 949 958 986 1006 1015 999 1014 1031 996 939 991 1044 998 1013 979 929 1018 967 1009 1010 1064 1016 1000 955 984 1088 973 1025 1027 1002 974 1077 1057 1043 1047 1053 1065 987 1048 1059 1086 1073 1045 1094 1093 1133 1076 1137 1161 1112 1235 1275 1261 1359 1424 1499 1515 1529 1697 1746 1828 1946 2015 2159 2231 2316 2395 2424 2604 2622 2468 2701 2566 2722 2715 2662 2622 2801 2692 2703 2715 2711 2621 2665 2623 2731 2661 2837 2767 2824 2753 2868 2835 2903 2842 3014 3035 3052 2980 3036 2960 2983 3116 2975 2932 2955 3053 2846 2853 2939 2828 2753 2830 2780 2839 2724 2724 2620 2579 2623 2450 2415 2336 2318 2318 2174 2264 2187 2126 2069 2038 2053 2001 1955 1968 1983 1952 1851 1852 1878 1871 1873 1768 1720 1776 1716 1748 1764 1711 1710 1695 1695 1651 1630 1727 1590 1622 1617 1637 1525 1567 1559 1553 1443 1484 1485 1483 1481 1387 1463 1447 1473 1463 1411 1489 1492 1501 1516 1521 1545 1592 1608 1604 1583 1634 1638 1687 1723 1640 1649 1743 1708 1720 1765 1815 1825 1830 1880 1899 1876 1886 1993 1960 1897 1851 1844 1854 1817 1779 1837 1771 1784 1762 1704 1716 1741 1706 1619 1716 1632 1643 1592 1581 1534 1504 1455 1520 1400 1451 1369 1364 1276 1329 1232 1281 1199 1239 1196 1137 1171 1185 1117 1139 1064 1075 1102 1061 1069 1031 1018 1021 1009 1011 1040 1050 928 984 988 999 1013 1011 918 973 945 1048 942 1019 936 981 957 939 971 907 896 990 941 971 986 998 962 984 914 961 954 968 905 910 1009 888 994 915 936 888 894 929 878 902 953 918 880 1003 891 981 926 899 919 894 955 903 927 924 908 945 919 906 963 893 862 915 874 961 894 914 893 929 900 947 962 928 950 948 947 966 919 919 957 965 965 931 913 968 981 982 945 954 996 1020 951 1007 964 928 971 994 965 964 989 1038 992 1053 1013 1037 983 1104 1102 1038 1048 1044 1040 1055 1046 1025 1000 1060 1004 1029 1035 1095 1112 1087 1021 1086 1001 1038 1054 984 1030 1080 1061 1045 1048 1013 1002 1015 1066 1034 1040 1040 1024 1046 1044 1039 1016 972 1005 1031 954 988 965 1003 948 964 979 1031 950 976 971 1003 1002 943 931 923 916 925 874 936 971 882 924 901 915 933 948 870 915 892 871 846 968 934 959 833 909 906 861 947 893 883 869 927 874 873 869 881 927 909 949 897 927 887 911 924 887 856 942 927 907 898 874 860 858 939 874 920 892 928 943 947 952 903 868 895 919 984 948 927 922 927 946 888 921 948 1003 936 971 953 938 978 961 934 992 966 960 948 1006 951 970 954 971 999 979 999 966 992 964 981 1063 984 1023 1044 1084 1002 1046 1045 1025 998 1042 979 1067 992 1050 1083 1037 1007 1020 1016 999 999 1001 1010 1065 1040 999 1064 994 1013 969 984 966 953 1045 983 1011 1018 971 1027 939 955 915 981 993 955 898 880 928 893 915 950 883 973 880 949 988 907 888 894 920 825 875 892 872 916 891 828 878 850 881 868 895 848 788 809 861 824 823 827 850 829 798 824 888 831 894 825 818 842 858 841 894 857 842 871 836 838 843 817 828 897 883 831 853 827 837 802 803 826 857 836 923 856 843 856 823 839 833 852 853 802 841 789 855 874 824 862 751 818 822 817 823 875 915 823 845 857 812 904 810 801 828 784 816 837 875 812 808 831 844 857 870 803 851 810 804 800 813 823 778 790 864 788 847 827 806 774 849 848 777 752 820 754 816 810 834 786 817 821 843 758 851 826 765 885 812 822 794 752 851 830 837 839 822 806 777 854 834 818 866 840 813 811 802 835 865 836 851 807 854 835 833 817 829 813 836 818 804 843 748 819 789 811 791 781 808 766 818 770 836 798 844 778 848 747 816 885 806 829 810 802 853 810 800 818 807 824 858 800 790 785 749 851 771 766 804 800 799 801 848 820 811 830 784 836 785 763 817 805 826 814 831 807 823 791 894 854 806 793 747 802 773 825 793 838 887 862 875 834 811 870 795 862 839 851 851 813 841 872 879 968 928 908 951 881 899 905 917 924 925 898 925 929 885 921 911 897 943 876 908 985 987 862 874 976 930 927 922 944 939 910 955 930 953 885 900 949 967 964 905 964 941 899 832 920 887 906 909 886 874 867 922 860 946 891 905 904 913 906 881 820 858 867 791 899 855 863 829 834 836 886 864 854 888 807 832 776 848 833 899 828 810 890 922 805 867 876 902 859 766 820 819 919 910 856 853 876 831 843 845 815 823 851 853 856 875 821 817 829 843 802 815 813 855 854 887 825 847 855 824 787 816 809 851 830 832 825 794 826 769 824 860 815 817 762 852 822 790 842 807 783 863 827 828 820 773 807 789 841 802 779 754 759 751 764 789 763 793 752 781 805 802 793 778 848 797 766 821 824 826 753 785 836 763 811 739 765 816 785 775 823 797 809 807 809 799 729 787 786 811 833 755 865 792 822 750 760 791 828 791 823 744 810 783 809 802 831 767 814 790 772 786 784 821 766 784 746 847 760 773 804 803 835 813 765 812 784 826 827 832 818 769 814 823 826 812 824 833 864 840 917 850 879 863 882 880 974 876 947 956 1042 998 1011 1056 953 1005 1017 1051 1060 1006 1064 1004 1052 1077 1073 1080 1048 1119 1161 1073 1078 1108 1063 1129 1139 1114 1159 1133 1121 1068 1067 1114 1099 1107 1088 1099 1044 1066 1051 1114 1069 1043 1058 1110 1047 1088 1049 1068 1070 1049 1028 1038 1011 960 1042 1052 1021 962 1044 1039 1005 989 995 940 964 971 993 977 862 884 940 897 905 922 911 870 900 896 880 868 889 907 803 887 887 839 873 826 825 818 800 812 842 861 875 775 782 799 802 838 816 786 827 809 846 835 824 810 818 831 830 763 832 777 801 831 781 836 806 797 787 834 801 823 830 841 858 800 858 884 832 833 798 886 862 888 877 810 842 875 905 904 912 902 861 910 918 903 1003 893 935 960 917 942 939 928 963 910 967 936 954 925 867 995 933 973 900 988 951 987 942 944 907 923 970 878 909 936 923 980 918 916 905 920 889 872 913 945 887 896 928 867 869 881 883 848 877 803 825 842 796 815 808 851 877 835 788 795 835 772 819 772 793 836 793 836 812 765 736 823 786 740 775 765 810 778 818 759 804 777 766 830 783 834 834 805 830 811 839 844 820 786 847 832 815 814 824 828 846 819 843 766 839 797 809 802 890 887 861 826 834 799 838 843 855 809 845 847 817 859 805 821 803 795 893 787 803 857 837 838 834 810 824 838 776 826 794 807 798 742 801 790 820 805 779 844 742 779 754 793 845 792 771 790 804 782 763 836 784 794 836 780 792 801 806 804 769 831 820 752 835 815 802 837 785 796 773 779 848 842 791 841 816 804 771 807 822 848 831 853 802 813 843 848 824 782 807 806 810 813 812 772 826 863 823 791 855 786 824 841 816 865 865 832 854 871 841 845 880 796 882 909 894 840 913 969 890 906 942 914 971 994 970 1018 1065 1104 1098 1195 1217 1254 1286 1352 1434 1413 1393 1441 1573 1605 1688 1796 1915 1963 1991 2183 2059 2139 2169 2300 2295 2337 2323 2312 2345 2356 2415 2493 2493 2534 2476 2549 2439 2467 2503 2389 2586 2525 2520 2602 2654 2598 2594 2600 2682 2554 2580 2527 2626 2586 2547 2603 2541 2442 2454 2533 2408 2387 2375 2264 2284 2277 2216 2233 2154 2170 2042 1988 1964 1845 1818 1779 1779 1802 1647 1717 1581 1620 1550 1581 1525 1465 1431 1411 1329 1326 1331 1377 1325 1196 1246 1220 1239 1213 1154 1151 1164 1143 1108 1113 1088 1107 1079 1025 1061 1021 1003 1031 1000 1045 1036 1009 951 923 984 985 921 923 993 960 980 943 929 939 891 970 938 974 958 972 909 951 908 925 946 961 879 936 911 897 929 900 926 941 935 929 972 880 889 904 855 865 864 901 893 929 945 926 924 950 979 915 999 921 921 957 1011 927 1011 1001 982 994 1016 1030 1045 1033 1108 1019 1027 1010 1026 1068 1038 1023 1090 1085 1130 1104 1081 1046 1055 1093 1062 1123 1090 1141 1085 1112 1108 1116 1156 1068 1184 1113 1134 1156 1102 1112 1084 1129 1067 1102 1181 1114 1072 1159 1132 1095 1110 1133 1100 1101 1132 1072 1124 1105 1071 1153 1091 1066 1134 1032 1070 1092 1081 1119 1102 1153 1104 1056 1036 1128 1104 1072 1095 1025 1058 1054 1076 1049 1026 1047 1043 1053 1010 1035 1025 997 1012 1020 935 985 970 1002 918 946 946 976 962 949 914 955 952 950 884 942 943 941 919 932 935 888 913 902 960 891 891 872 877 898 825 911 840 944 867 897 888 877 869 908 858 832 872 832 828 852 857 873 869 858 837 870 839 838 835 948 865 843 831 919 855 863 875 868 868 867 864 882 919 831 862 847 842 839 873 841 849 833 825 863 833 892 830 830 863 856 865 822 813 830 867 837 817 849 873 844 835 827 815 875 806 799 832 839 830 800 853 831 854 873 807 810 847 803 800 866 815 801 808 786 809 781 777 833 769 841 830 808 825 810 801 771 751 782 703 797 733 801 808 778 832 779 830 761 806 819 875 769 746 832 826 745 791 805 795 802 776 828 764 753 801 826 763 833 773 793 758 747 807 766 826 772 769 791 833 762 826 794 819 804 812 805 799 805 777 834 866 824 810 847 843 846 817 812 821 799 833 825 836 903 870 853 859 836 883 884 862 842 867 852 868 845 841 815 853 862 802 799 858 844 866 817 786 809 801 796 782 774 764 811 742 770 760 844 747 743 760 738 790 752 802 796 761 778 764 730 760 781 716 731 758 755 724 692 778 684 757 737 707 685 706 752 746 744 694 682 714 735 727 761 772 762 780 720 748 734 780 793 713 748 722 730 717 779 741 754 805 734 788 809 783 692 756 783 714 775 761 763 712 720 760 750 785 764 784 727 742 736 690 756 798 699 786 688 769 759 750 689 763 751 727 682 694 753 703 753 764 758 687 732 754 755 760 767 730 748 745 719 726 704 767 743 738 698 754 748 803 738 709 762 731 744 758 779 766 741 804 756 718 731 771 762 768 687 815 745 778 772 773 790 716 759 775 758 704 756 784 734 801 751 792 744 743 790 797 813 756 782 782 723 764 735 721 726 748 768 722 742 758 718 726 717 730 765 708 757 729 754 753 767 697 741 670 732 727 748 771 738 762 752 716 729 759 726 730 676 752 733 724 702 686 728 676 682 676 729 768 716 727 697 706 704 719 675 727 662 712 686 766 760 710 692 720 745 701 709 767 762 781 756 699 744 694 707 733 770 714 662 738 702 679 687 727 766 767 668 656 685 715 744 673 797 666 706 685 736 707 679 716 752 701 701 722 664 709 643 725 695 676 742 745 727 729 699 723 741 667 677 754 682 734 719 709 742 742 742 709 785 791 735 731 719 712 767 743 763 745 760 755 734 798 744 738 684 747 734 709 765 729 738 750 746 770 755 791 760 712 756 747 742 785 801 796 757 773 781 790 730 708 803 754 768 797 731 747 763 806 716 734 720 730 760 787 792 757 774 779 742 795 775 727 770 771 809 803 744 750 806 740 814 803 804 787 875 733 810 799 809 779 830 809 827 826 882 818 832 859 816 861 863 886 924 935 922 958 981 932 1036 1019 969 1028 1047 1042 1079 1077 1108 1148 1182 1194 1145 1176 1180 1195 1181 1150 1164 1178 1220 1211 1233 1196 1227 1258 1194 1236 1231 1243 1197 1252 1257 1269 1157 1217 1210 1184 1114 1154 1159 1132 1091 1102 1069 1150 1115 1074 966 1042 1015 1042 924 961 1050 925 936 966 930 931 950 937 898 932 914 915 862 874 849 869 816 824 855 850 796 801 820 866 798 784 791 819 790 852 778 762 793 816 785 785 831 821 762 772 801 803 785 811 804 835 766 754 815 819 746 798 818 762 790 726 736 751 730 725 758 750 673 760 704 697 784 702 765 710 787 747 837 726 795 751 757 756 726 716 734 702 737 718 727 708 711 742 684 728 687 700 682 620 698 708 742 737 724 698 715 722 701 751 707 672 707 697 789 793 746 811 775 747 755 703 755 748 713 804 783 752 777 780 717 743 771 785 799 785 772 839 810 786 804 725 782 810 730 774 818 789 794 738 761 768 768 766 734 773 759 754 762 797 728 738 731 688 731 705 764 756 719 730 703 701 745 693 730 721 704 724 733 742 764 735 719 752 725 769 728 727 747 720 728 712 707 724 726 710 720 698 671 735 733 751 741 719 742 763 745 755 741 779 777 752 807 797 796 813 801 783 801 799 794 795 835 853 872 895 844 884 888 890 946 982 941 956 939 906 989 963 926 1005 944 966 906 948 974 1020 992 975 956 979 1026 1021 1007 973 980 974 979 1030 1021 1016 1020 906 860 988 949 948 943 933 971 905 938 892 919 907 956 911 831 903 904 839 871 855 811 878 864 862 817 784 827 802 804 827 827 806 815 797 809 825 818 784 845 835 822 823 836 817 803 821 809 803 838 831 892 811 805 807 820 867 829 871 795 857 838 775 775 798 806 759 812 803 785 805 792 811 744 761 777 735 773 729 749 741 781 707 760 785 819 762 776 731 739 697 709 726 780 731 703 710 710 735 741 735 712 708 757 730 703 767 767 724 723 723 745 760 722 705 721 751 742 676 706 696 727 725 753 668 707 689 754 751 696 773 729 774 717 784 714 749 775 761 748 788 718 836 752 740 757 773 831 732 816 823 750 778 798 820 711 797 821 837 804 800 794 837 821 852 853 820 801 814 851 819 852 850 820 824 849 828 794 779 813 843 859 787 824 790 847 799 802 781 798 853 839 837 839 810 824 783 757 863 802 799 850 857 807 799 828 798 854 763 822 827 850 845 844 821 836 874 851 824 873 803 893 884 895 895 854 861 839 858 855 856 851 821 865 807 882 856 883 829 857 850 822 778 780 847 817 804 809 803 824 758 801 741 795 712 796 740 770 784 808 751 789 767 784 742 736 802 773 802 783 767 806 752 719 769 736 759 773 760 751 741 749 799 739 768 743 778 735 741 737 728 684 722 754 769 728 667 659 736 755 736 710 676 688 758 726 705 706 696 665 712 734 655 686 645 702 697 691 700 701 702 663 699 667 695 660 682 658 692 698 712 675 722 708 675 685 747 708 630 721 671 717 664 693 623 710 687 648 702 712 680 717 726 653 707 671 726 676 642 738 725 720 700 677 701 677 696 762 690 668 719 681 693 745 718 718 699 717 714 701 751 751 726 713 702 670 694 699 746 725 737 718 736 712 679 695 704 768 686 697 737 754 700 718 724 697 679 687 759 707 745 689 650 715 694 676 667 661 722 660 681 696 702 741 739 720 654 684 746 656 728 671 740 716 727 720 645 714 682 703 700 714 677 671 706 699 680 664 736 669 681 669 698 694 707 657 658 652 660 682 718 696 714 654 664 698 672 675 694 661 665 698 707 681 686 725 763 694 689 695 725 663 696 696 748 697 705 720 702 647 695 758 702 709 712 701 661 695 737 700 693 744 685 704 734 687 692 726 674 696 694 721 714 739 712 708 705 676 699 718 733 755 710 677 668 685 722 749 683 687 710 689 672 689 660 652 742 688 692 689 704 729 674 722 688 731 736 683 679 702 705 717 674 661 681 700 681 675 672 648 715 686 666 672 668 707 644 696 675 694 696 647 671 669 702 660 669 635 640 664 641 637 644 645 619 668 655 700 658 665 675 655 704 642 665 657 682 671 697 666 663 725 672 678 671 669 665 674 706 678 667 672 615 609 666 648 679 679 651 676 709 664 623 630 671 657 649 664 666 655 720 648 691 675 637 635 682 657 690 675 625 675 654 656 644 710 713 654 694 682 650 651 707 618 725 604 678 681 658 697 689 686 677 648 708 674 690 649 693 678 644 650 673 676 708 681 716 717 673 730 679 729 699 701 714 713 714 682 705 715 724 762 690 715 730 783 679 688 755 742 733 704 719 775 705 695 683 687 714 713 684 675 671 705 702 673 713 682 674 678 713 673 699 680 689 663 665 680 617 687 666 701 697 665 688 700 665 735 648 667 681 647 635 707 635 702 668 688 753 717 665 698 664 752 641 713 703 706 648 690 679 683 693 709 719 687 669 700 715 704 685 706 663 688 709 670 694 691 699 706 701 696 708 716 740 688 659 696 667 741 669 698 720 654 688 692 697 686 727 640 668 673 694 684 696 704 669 661 702 637 676 636 682 659 605 676 688 651 666 681 633 676 618 657 695 687 662 639 668 697 640 659 616 682 628 648 620 669 673 682 657 674 658 657 683 659 702 623 649 661 694 675 678 645 712 707 680 684 633 678 668 650 647 674 675 655 625 645 673 642 608 656 659 627 650 679 643 639 705 620 647 681 648 693 689 656 695 662 647 626 686 725 683 665 655 685 686 685 663 662 681 679 705 675 647 629 648 646 658 652 602 668 682 660 683 652 648 696 681 665 676 677 657 643 618 675 678 678 660 678 696 724 676 655 687 648 673 703 686 663 680 733 682 708 663 694 689 666 724 698 661 707 675 652 671 705 702 752 742 710 729 743 741 709 704 745 707 713 776 733 808 747 745 776 775 788 809 778 788 837 783 848 852 802 840 843 817 807 861 801 852 793 908 866 883 919 919 899 909 876 917 878 865 865 917 841 919 861 887 884 876 902 874 912 865 864 873 842 860 875 878 831 817 822 793 785 849 784 832 818 777 758 750 794 734 759 763 738 723 709 729 695 722 695 717 699 665 693 694 745 737 732 684 696 707 695 692 690 688 675 693 677 696 717 676 677 643 692 723 733 724 689 698 739 697 726 698 669 737 730 713 703 673 721 700 718 684 702 675 699 738 749 695 706 656 726 696 748 732 692 738 715 627 700 779 696 765 748 704 710 650 714 738 708 688 702 678 680 729 687 690 670 700 674 667 677 704 694 659 696 648 710 633 699 675 643 704 691 691 681 707 649 629 677 695 688 710 675 674 727 645 674 618 677 629 700 662 624 705 652 674 688 668 716 698 664 661 621 732 652 684 665 638 707 690 628 714 649 654 704 679 668 627 706 679 710 663 681 686 669 658 677 649 671 674 672 708 648 700 654 712 644 689 698 716 651 694 704 717 705 755 650 699 642 697 666 670 678 697 634 662 694 669 706 676 704 697 699 647 724 655 651 668 722 663 686 636 675 667 731 675 653 670 672 674 710 692 679 664 655 738 716 666 714 705 712 663 673 679 694 720 671 708 690 696 759 730 691 745 738 722 693 726 734 692 760 761 737 708 752 722 746 746 733 720 707 711 717 812 772 761 758 730 751 778 679 731 722 774 746 793 720 766 756 754 757 765 715 787 740 713 775 776 739 753 763 747 722 753 738 734 734 697 684 697 733 725 708 710 696 697 674 657 727 628 710 674 684 727 699 675 692 657 667 703 669 678 654 648 709 680 641 685 630 653 684 651 696 655 645 622 621 722 669 688 702 670 654 646 641 671 643 650 687 636 688 647 693 688 619 705 712 648 674 631 628 690 675 647 683 678 648 605 668 636 667 657 709 625 618 664 693 625 691 664 639 661 640 692 628 629 631 679 666 659 653 671 718 673 646 688 702 697 604 657 610 627 673 665 676 616 687 650 682 683 666 678 642 662 665 648 612 626 706 658 663 688 662 697 685 697 688 631 647 637 701 681 645 610 630 697 680 654 691 683 684 645 707 701 718 715 700 692 741 692 689 716 673 658 646 717 678 652 716 705 706 665 699 677 724 719 718 697 718 690 722 699 700 656 665 649 652 694 687 670 695 663 679 662 668 691 669 672 711 730 663 660 708 645 670 653 695 681 670 693 657 688 681 649 704 693 642 683 644 645 666 651 622 703 674 667 661 652 729 643 676 628 667 685 655 700 663 625 701 611 678 698 653 647 650 682 694 653 663 677 652 706 694 678 692 666 659 651 620 708 691 682 635 643 642 687 683 652 653 661 684 675 611 671 611 650 658 722 640 714 680 681 689 662 672 673 722 698 647 691 686 640 725 652 645 727 673 658 660 621 725 668 673 642 679 683 676 681 721 754 674 695 711 676 724 671 721 684 685 687 694 678 717 685 699 716 730 754 710 723 766 707 698 703 758 703 731 720 720 697 718 683 761 696 773 718 745 724 736 734 733 719 732 739 688 736 737 734 730 750 702 714 744 704 723 723 752 752 719 718 708 760 763 703 755 738 801 764 747 830 759 740 768 787 764 715 747 765 715 772 789 793 835 789 801 866 764 739 829 887 851 833 812 858 841 783 863 816 831 885 860 848 824 856 829 826 840 813 793 808 847 835 811 832 792 825 827 817 753 786 764 827 816 805 791 707 812 803 813 771 768 781 817 764 729 736 797 720 733 747 802 736 753 751 741 743 755 696 718 737 717 701 684 723 766 716 683 681 712 720 666 719 713 655 701 692 697 713 676 722 701 691 717 717 665 675 682 738 655 709 661 653 701 673 658 709 715 689 659 696 702 691 672 645 660 688 679 714 682 706 717 624 728 663 688 698 722 680 681 637 714 680 706 708 699 673 678 674 698 679 730 667 653 700 638 685 689 645 640 688 710 655 674 693 694 674 672 687 647 698 689 694 669 693 672 698 678 679 711 670 665 731 721 703 666 727 614 711 625 663 667 639 725 673 679 655 713 624 652 686 692 704 698 771 715 708 715 715 766 724 713 672 708 675 707 704 748 739 761 758 736 742 731 735 768 719 731 745 739 757 739 707 753 801 777 736 730 767 763 726 848 791 811 790 836 821 813 783 809 860 864 868 857 878 887 857 875 882 887 946 866 919 849 866 903 861 925 844 890 932 888 861 920 895 973 920 893 866 866 939 896 955 862 909 927 894 837 964 850 909 848 880 812 886 847 848 861 858 806 862 855 880 871 835 808 821 843 856 861 833 845 825 801 817 802 787 787 827 824 776 763 830 786 773 796 785 834 775 808 775 805 783 796 801 784 798 834 829 758 755 816 800 769 779 843 779 769 793 783 777 768 799 776 797 773 770 790 770 741 748 773 764 756 797 833 788 789 743 746 795 784 751 743 778 751 737 653 690 741 748 718 729 670 735 769 763 720 729 714 737 711 730 683 745 741 712 724 698 739 731 712 693 727 709 719 764 744 726 732 696 770 729 737 718 733 720 736 723 727 722 714 720 808 713 729 702 724 700 668 710 721 697 728 783 730 735 751 723 672 738 692 738 767 771 708 728 729 686 682 729 709 729 745 763 687 696 749 729 662 708 719 694 761 712 701 666 660 736 726 714 721 710 727 701 729 680 678 661 646 717 666 724 737 670 695 704 733 715 663 733 690 710 684 716 685 634 656 712 703 739 693 672 730 708 701 677 764 696 695 744 744 709 714 741 692 716 720 712 672 732 729 753 716 739 726 663 707 659 726 704 742 707 738 744 713 709 751 687 726 753 736 719 681 768 673 720 806 766 797 737 707 790 693 700 705 786 731 723 761 682 819 779 743 780 757 804 805 752 737 693 746 743 801 759 785 716 757 792 781 760 716 754 781 789 749 765 703 750 784 719 711 767 712 725 745 769 768 741 782 740 743 742 746 695 714 685 738 712 728 739 711 745 737 721 750 734 739 709 755 705 684 725 725 688 697 708 722 731 705 702 729 688 739 734 738 719 712 739 723 743 731 711 711 700 740 739 700 663 750 730 749 700 750 717 744 701 725 725 739 755 709 700 698 690 725 723 694 760 761 732 719 697 744 704 717 689 679 715 687 721 721 738 742 713 708 689 724 703 761 675 715 673 691 666 669 727 681 701 723 734 696 690 708 713 691 702 678 681 718 733 639 657 651 693 688 688 685 683 691 674 695 653 665 686 705 670 665 671 662 692 641 674 663 674 663 646 702 651 714 646 685 693 641 683 664 652 656 709 686 681 654 676 661 627 675 659 701 702 699 713 694 659 668 680 745 687 678 676 683 643 632 704 680 670 709 659 645 713 670 707 678 699 695 667 661 673 687 750 661 732 684 673 684 748 704 672 667 695 696 695 688 666 699 672 647 673 683 639 686 708 700 678 677 672 667 717 703 683 663 611 676 692 678 701 653 660 675 661 668 696 708 692 612 736 685 727 683 657 681 674 678 696 691 692 716 659 691 684 710 637 685 662 746 679 689 655 664 723 678 666 706 616 664 742 689 742 658 667 705 672 632 636 613 680 668 719 676 682 681 659 643 680 686 623 679 681 662 623 724 668 687 691 700 653 680 711 683 715 673 694 678 657 692 682 716 725 756 703 670 650 689 716 707 697 635 713 682 716 682 682 697 686 707 692 679 689 708 703 684 671 678 710 692 671 678 771 662 750 669 710 729 700 676 724 717 684 681 707 745 706 688 729 676 689 676 696 662 685 654 672 718 702 672 666 683 676 672 683 710 702 648 735 705 657 708 680 688 748 676 687 665 684 688 711 684 728 677 684 694 701 678 692 686 678 711 672 699 693 681 749 667 727 686 716 785 711 684 755 736 744 676 691 695 692 701 663 733 692 656 733 696 747 677 723 701 727 699 673 714 699 668 687 713 686 723 727 666 688 666 667 694 715 697 678 678 644 725 633 650 666 728 629 703 711 661 704 661 700 641 678 667 715 672 670 628 717 651 682 697 664 700 700 668 650 740 690 664 681 700 688 677 676 662 686 632 600 697 653 655 684 653 649 679 675 703 694 702 611 663 695 717 678 700 692 664 694 693 672 659 661 726 644 703 638 708 657 715 679 700 679 723 715 692 653 644 699 670 711 638 688 671 676 682 675 661 673 714 715 736 710 645 693 693 668 699 680 681 693 707 658 744 720 724 731 670 670 724 764 713 716 691 763 773 754 766 738 746 725 770 754 707 787 789 811 783 794 798 838 829 813 808 797 802 806 800 836 829 825 843 863 820 852 854 880 868 907 799 883 842 891 814 862 932 914 893 931 854 959 937 974 897 904 932 908 1000 924 924 874 929 927 911 955 914 926 895 904 879 890 914 859 913 868 808 896 813 932 899 807 872 879 878 885 850 808 866 829 854 804 821 825 814 757 745 796 835 781 816 795 775 781 806 787 816 821 751 845 745 754 793 762 750 755 799 743 768 802 805 736 771 727 745 773 784 766 731 799 797 751 765 709 736 732 707 804 762 754 745 748 726 749 753 736 768 746 714 776 773 779 742 683 687 739 766 752 726 685 724 693 724 736 742 727 657 726 703 705 674 671 719 724 757 684 699 692 679 689 704 733 686 775 622 747 739 747 710 694 721 723 718 733 775 784 726 732 745 779 714 789 707 766 673 752 757 779 771 742 742 689 705 709 769 754 767 750 713 754 713 766 748 754 719 777 693 718 757 722 761 703 726 708 742 731 694 738 723 703 675 660 709 709 710 713 727 710 745 704 695 686 710 685 745 629 701 695 684 728 691 667 678 716 680 693 683 711 742 715 644 673 720 716 712 677 705 636 696 686 685 733 649 687 700 706 687 669 703 764 684 660 693 705 680 687 676 737 668 687 690 691 667 664 682 728 685 674 676 682 723 691 689 660 687 655 689 689 737 680 692 670 690 688 687 695 692 614 677 660 649 632 701 714 692 655 695 686 634 689 672 691 662 710 711 683 711 716 667 627 669 653 697 668 695 687 714 710 686 680 674 714 706 691 715 687 688 726 715 712 655 714 708 712 676 690 727 706 691 724 716 719 718 653 770 737 686 735 695 728 722 696 697 733 723 747 723 738 722 690 705 699 706 700 700 717 690 740 719 753 700 709 724 724 692 710 694 668 677 746 688 703 723 701 703 734 739 685 695 694 711 649 661 655 679 683 675 673 706 754 679 690 680 722 664 690 690 667 691 699 707 732 686 741 691 738 686 721 741 654 700 715 715 710 699 685 661 646 708 683 692 675 692 694 683 737 666 743 712 691 739 733 762 695 696 708 699 723 658 722 777 732 747 698 750 725 753 764 745 687 764 734 763 717 721 704 722 721 714 733 728 725 792 774 745 767 720 730 737 741 760 762 750 691 752 732 753 666 746 775 746 724 739 740 763 741 769 699 741 730 763 682 743 723 672 753 727 748 679 748 716 717 665 725 710 712 701 656 673 752 685 707 725 749 684 714 707 733 688 713 676 690 704 683 667 695 680 675 679 692 655 634 764 679</counts>
			</dataPoints>
		</scan>
	</xrdMeasurement>
</xrdMeasurements>
