<?xml version="1.0"?>
<xrdMeasurements xmlns="http://www.xrdml.com/XRDMeasurement/2.3" xmlns:xsi="http://www.w3.org/2001/XMLSchema-instance" xsi:schemaLocation="http://www.xrdml.com/XRDMeasurement/2.3 http://www.xrdml.com/XRDMeasurement/2.3/XRDMeasurement.xsd" status="Completed" recordIdentifier="{377C0E73-4F49-45B9-B3AE-7F31AB841372}">
	<comment>
		<entry/>
	</comment>
	<sample type="To be analyzed">
		<id>GPSS_Li1p5Mn0p65In0p25Zr0p05Ta0p05Cl4_121325_693cb366f4d05ae3d69752b2</id>
		<name></name>
		<preparedBy></preparedBy>
	</sample>
	<xrdMeasurement measurementType="Scan" status="Completed" sampleMode="Reflection">
		<usedWavelength intended="K-Alpha 1">
			<kAlpha1 unit="Angstrom">1.5405980</kAlpha1>
			<kAlpha2 unit="Angstrom">1.5444260</kAlpha2>
			<kBeta unit="Angstrom">1.3922500</kBeta>
			<ratioKAlpha2KAlpha1>0.5000</ratioKAlpha2KAlpha1>
		</usedWavelength>
		<incidentBeamPath>
			<radius unit="mm">145.00</radius>
			<xRayTube id="1010048" name="Empyrean Cu LFF HR (9430 033 7310x)">
				<tension unit="kV">40.0</tension>
				<current unit="mA">15.0</current>
				<anodeMaterial>Cu</anodeMaterial>
				<focus type="Line">
					<length unit="mm">12.0</length>
					<width unit="mm">0.4</width>
					<takeOffAngle unit="deg">6.0</takeOffAngle>
				</focus>
			</xRayTube>
			<sollerSlit id="21010002" name="Soller slits 0.04 rad.">
				<opening unit="rad">0.0400</opening>
			</sollerSlit>
			<mask id="22031000" name="Fixed mask 13 mm">
				<width unit="mm">9.00</width>
			</mask>
			<divergenceSlit id="22120001" name="Divergence slit 1°" xsi:type="fixedDivergenceSlitType">
				<distanceToSample unit="mm">50.00</distanceToSample>
				<height unit="mm">1.52</height>
			</divergenceSlit>
		</incidentBeamPath>
		<sampleMovement xsi:type="spinningSampleMovementType">
			<spinnerRevolutionTime unit="seconds">1.0</spinnerRevolutionTime>
		</sampleMovement>
		<diffractedBeamPath>
			<radius unit="mm">145.00</radius>
			<antiScatterSlit id="22090040" name="AS slit 9 mm (PIXcel)" xsi:type="fixedAntiScatterSlitType">
				<height unit="mm">9.00</height>
			</antiScatterSlit>
			<sollerSlit id="21020003" name="Large Soller slits 0.04 rad.">
				<opening unit="rad">0.0400</opening>
			</sollerSlit>
			<filter id="20030001" name="Large beta-filter Nickel">
				<material>Ni</material>
				<thickness unit="mm">0.020</thickness>
			</filter>
			<detector id="7010019" name="PIXcel1D-Medipix3 detector" xsi:type="rtmsDetectorType">
				<phd unit="keV">
					<lowerLevel>4.02</lowerLevel>
					<upperLevel>11.27</upperLevel>
				</phd>
				<mode>Scanning</mode>
				<activeLength unit="deg">5.542</activeLength>
			</detector>
		</diffractedBeamPath>
		<scan appendNumber="0" mode="Continuous" scanAxis="Gonio" status="Completed">
			<header>
				<startTimeStamp>2025-12-17T10:32:10-08:00</startTimeStamp>
				<endTimeStamp>2025-12-17T10:40:18-08:00</endTimeStamp>
				<author>
					<name>AutomatedUser</name>
				</author>
				<source>
					<applicationSoftware version="1.7b (136)">PANalytical Aeris Instrument Suite</applicationSoftware>
					<instrumentControlSoftware version="3.2.00000000 20240306">AERIS</instrumentControlSoftware>
					<instrumentID>950485</instrumentID>
				</source>
			</header>
			<dataPoints>
				<positions axis="2Theta" unit="deg">
					<startPosition>10.00943322</startPosition>
					<endPosition>99.99442286</endPosition>
				</positions>
				<positions axis="Omega" unit="deg">
					<startPosition>5.00471661</startPosition>
					<endPosition>49.99721143</endPosition>
				</positions>
				<commonCountingTime unit="seconds">12.495</commonCountingTime>
				<counts unit="counts">3169 3047 3141 3162 3189 3155 3228 3163 3161 3158 3153 3120 3237 3095 3226 3145 3005 3179 3079 3152 3191 3141 3120 3143 3174 3184 3166 3137 3111 3175 3078 3112 3159 3164 3165 3197 3114 3159 3209 3084 3116 3179 3211 3238 3222 3145 3180 3275 3241 3190 3166 3168 3242 3114 3300 3137 3176 3196 3226 3281 3283 3324 3219 3220 3204 3355 3374 3250 3412 3272 3401 3401 3249 3371 3380 3172 3431 3256 3316 3368 3347 3255 3374 3439 3249 3306 3329 3337 3307 3430 3407 3373 3465 3364 3293 3408 3269 3319 3271 3274 3282 3454 3378 3293 3236 3307 3353 3208 3404 3426 3327 3428 3317 3407 3301 3363 3192 3293 3185 3301 3252 3342 3334 3255 3329 3315 3358 3282 3277 3353 3339 3365 3318 3294 3192 3353 3463 3386 3308 3216 3363 3340 3221 3254 3393 3304 3400 3365 3241 3216 3295 3281 3363 3301 3326 3295 3367 3360 3319 3379 3309 3327 3316 3375 3321 3343 3215 3373 3285 3273 3337 3244 3248 3194 3330 3253 3358 3350 3411 3324 3321 3318 3321 3256 3359 3239 3250 3271 3242 3227 3295 3318 3266 3245 3356 3241 3282 3227 3303 3267 3329 3309 3325 3230 3308 3281 3172 3206 3182 3314 3263 3232 3194 3206 3202 3306 3197 3196 3164 3207 3263 3196 3154 3242 3192 3160 3138 3155 3256 3126 3251 3077 3241 3244 3277 3215 3135 3262 3186 3216 3159 3266 3229 3342 3232 3094 3270 3166 3084 3258 3056 3163 3200 3133 3037 3117 3177 3263 3208 3241 3180 3173 3033 3172 3126 3169 3068 3142 3128 3077 3143 3125 3165 3144 3013 3086 3092 3144 3082 3207 3199 3244 3191 3121 3253 3190 3158 3183 3230 3032 3171 3214 3222 3158 3143 3105 3127 3328 3130 3206 3121 3195 3205 3232 3089 3236 3220 3190 3215 3243 3297 3271 3219 3256 3114 3232 3294 3244 3205 3320 3109 3258 3318 3285 3190 3275 3261 3315 3260 3278 3272 3207 3276 3195 3334 3184 3264 3321 3278 3308 3250 3422 3291 3447 3329 3312 3363 3328 3416 3282 3402 3365 3457 3425 3503 3270 3357 3451 3314 3453 3366 3345 3378 3492 3424 3472 3409 3321 3490 3465 3356 3485 3591 3573 3590 3620 3571 3522 3448 3591 3464 3508 3572 3468 3641 3529 3615 3624 3708 3610 3662 3795 3612 3674 3575 3784 3762 3780 3741 3752 3864 3827 3911 3926 4135 4175 4060 4080 4149 4327 4356 4417 4626 4587 4585 4565 4609 4683 4606 4620 4646 4671 4633 4707 4643 4839 4733 4749 4553 4709 4697 4616 4514 4418 4327 4292 4259 4209 4113 4017 4001 3976 3852 3896 3854 3751 3684 3623 3700 3712 3659 3713 3574 3621 3679 3583 3545 3557 3629 3489 3563 3642 3570 3559 3417 3569 3560 3645 3481 3464 3449 3582 3591 3524 3589 3486 3474 3495 3442 3507 3474 3404 3475 3408 3335 3446 3363 3439 3430 3460 3405 3538 3487 3456 3399 3427 3405 3342 3365 3434 3468 3379 3349 3225 3363 3361 3419 3430 3393 3398 3371 3241 3273 3268 3245 3248 3227 3385 3283 3386 3193 3313 3315 3282 3260 3338 3282 3269 3183 3203 3289 3168 3251 3271 3249 3185 3266 3263 3161 3070 3219 3131 3316 3133 3209 3105 3260 3138 3298 3192 3191 3101 3156 3165 3125 3211 3143 3146 3158 3090 3214 3185 3207 3108 3204 3054 3198 3096 3154 3057 3154 3156 3186 3069 3107 3189 3100 3133 3099 3124 3188 3118 3026 3186 3062 3107 3026 3094 3107 3029 3071 2974 3056 3066 3092 3054 3034 3054 3075 3091 3020 3025 2987 3038 3075 3098 2976 2998 3017 2964 3059 3076 3059 3014 3004 2983 3023 2959 2907 3063 3087 2993 2997 2857 2972 2990 2925 2982 2960 3032 2965 2917 2935 3013 2996 2946 2992 2919 2986 2886 2988 2992 2888 3095 2898 2980 2996 3008 2916 2957 2921 2980 2913 2948 2912 3013 2940 2996 2868 2972 2858 2932 3017 2785 2921 2894 3001 3066 3030 2863 2838 2919 2872 2957 2888 2901 2886 2899 2972 2918 2950 2932 2875 2881 2894 2881 2938 2930 2920 2955 2973 2957 2797 2893 2934 2821 2917 2829 3046 2879 2863 2840 2993 2777 2912 2882 2896 2950 2946 2852 2903 2926 2919 2846 2817 2903 2951 2818 2833 2855 2832 2959 2807 2760 2930 2862 2782 2914 2873 2849 2862 2822 2829 2898 2893 2891 2871 2966 2717 2813 2811 2840 2750 2748 2792 2771 2829 2878 2793 2771 2830 2880 2888 2897 2759 2786 2799 2725 2787 2813 2904 2667 2896 2797 2888 2767 2929 2881 2906 2775 2784 2890 2895 2832 2721 2823 2779 2775 2779 2810 2714 2797 2836 2667 2724 2769 2944 2778 2703 2729 2757 2740 2857 2750 2794 2820 2799 2815 2687 2784 2731 2741 2826 2788 2855 2832 2757 2797 2811 2842 2837 2796 2755 2705 2731 2688 2837 2799 2744 2811 2753 2684 2685 2669 2787 2781 2771 2759 2780 2745 2709 2773 2771 2711 2753 2678 2670 2786 2813 2790 2677 2733 2757 2685 2776 2668 2737 2771 2670 2639 2695 2781 2742 2645 2713 2682 2676 2570 2734 2654 2765 2614 2679 2737 2710 2578 2640 2622 2682 2589 2582 2648 2689 2619 2707 2527 2709 2716 2580 2744 2631 2593 2676 2566 2650 2703 2617 2673 2567 2578 2579 2577 2606 2616 2664 2569 2634 2661 2604 2683 2657 2582 2601 2605 2680 2583 2566 2689 2548 2549 2535 2599 2555 2581 2540 2603 2618 2565 2565 2478 2537 2494 2562 2588 2535 2420 2517 2527 2622 2512 2557 2566 2548 2490 2501 2572 2623 2562 2578 2556 2549 2582 2587 2552 2574 2522 2577 2557 2686 2479 2582 2552 2553 2484 2575 2524 2515 2497 2539 2400 2454 2532 2477 2472 2484 2539 2442 2559 2503 2533 2489 2550 2584 2484 2537 2464 2520 2535 2461 2446 2467 2492 2490 2538 2408 2523 2600 2516 2498 2467 2451 2462 2453 2427 2391 2550 2472 2591 2549 2556 2517 2483 2515 2520 2499 2472 2467 2565 2618 2480 2462 2480 2497 2441 2514 2584 2434 2539 2542 2470 2594 2504 2452 2493 2543 2530 2579 2587 2549 2527 2483 2509 2403 2551 2523 2491 2478 2599 2538 2470 2593 2496 2537 2541 2554 2545 2462 2506 2618 2625 2432 2529 2604 2598 2493 2610 2630 2538 2535 2515 2552 2539 2558 2490 2608 2630 2577 2455 2615 2457 2482 2457 2600 2442 2565 2580 2613 2534 2613 2518 2576 2470 2532 2541 2497 2578 2579 2530 2641 2552 2541 2612 2573 2600 2549 2534 2458 2501 2510 2472 2417 2455 2493 2517 2490 2480 2508 2443 2491 2508 2518 2474 2457 2488 2513 2421 2438 2422 2544 2480 2470 2425 2429 2442 2539 2457 2443 2421 2422 2538 2486 2419 2439 2413 2390 2466 2444 2377 2488 2430 2410 2449 2433 2425 2423 2403 2430 2451 2419 2376 2271 2404 2292 2354 2387 2306 2359 2277 2316 2278 2350 2348 2318 2269 2325 2205 2201 2357 2262 2302 2222 2205 2302 2266 2307 2208 2216 2278 2246 2200 2256 2218 2287 2249 2239 2092 2268 2220 2333 2222 2215 2242 2144 2188 2185 2199 2219 2124 2181 2169 2120 2152 2159 2132 2132 2174 2163 2165 2126 2176 2160 2130 2039 2092 2126 2066 2140 2045 2054 2062 2102 2126 2069 2071 2116 1976 2013 2193 2056 2076 2024 2076 2035 2009 2125 2025 2054 2058 2064 1986 1970 2000 1977 1983 2006 2006 2102 2011 2021 1980 1997 2015 1960 2030 1985 1995 1988 1950 1957 1961 1907 1977 1957 1889 1965 1924 1879 1952 1865 1864 1949 2008 1959 2029 1989 1933 2026 2012 1855 1957 1922 2008 1960 1928 1914 1817 1936 1868 1880 1926 1842 1976 1906 1884 1914 1897 1839 1872 1947 1883 1835 1840 1813 1808 1813 1724 1896 1851 1901 1841 1791 1898 1910 1892 1861 1891 1857 1880 1889 1857 1900 1877 1850 1809 1866 1847 1857 1821 1877 1819 1799 1832 1733 1767 1776 1844 1841 1830 1864 1806 1823 1862 1778 1758 1732 1808 1769 1811 1786 1824 1757 1756 1875 1788 1760 1756 1815 1876 1833 1806 1792 1857 1817 1810 1828 1848 1779 1788 1801 1780 1881 1691 1788 1800 1767 1847 1845 1818 1746 1767 1800 1871 1826 1837 1766 1812 1886 1749 1795 1739 1766 1850 1839 1850 1877 1765 1831 1837 1776 1799 1821 1806 1820 1804 1802 1835 1819 1860 1852 1820 1785 1834 1757 1903 1719 1855 1793 1795 1813 1764 1835 1865 1815 1852 1841 1815 1752 1787 1805 1726 1798 1822 1778 1783 1775 1810 1775 1881 1870 1846 1771 1804 1803 1820 1813 1842 1816 1831 1875 1823 1819 1918 1866 1870 1852 1867 1883 1919 1782 1843 1880 1823 1798 1806 1778 1854 1849 1771 1832 1859 1764 1778 1775 1832 1747 1768 1838 1754 1797 1753 1817 1811 1842 1829 1803 1809 1737 1801 1859 1824 1841 1873 1760 1844 1819 1910 1857 1879 1794 1846 1754 1808 1785 1727 1824 1767 1780 1810 1778 1865 1791 1861 1778 1741 1733 1747 1765 1753 1677 1812 1781 1806 1701 1700 1747 1769 1730 1665 1715 1732 1748 1698 1753 1732 1692 1674 1736 1782 1798 1696 1749 1689 1757 1672 1767 1707 1651 1648 1636 1707 1672 1715 1635 1733 1688 1763 1715 1638 1659 1752 1648 1586 1713 1651 1718 1633 1678 1656 1703 1652 1621 1596 1644 1613 1618 1605 1581 1674 1583 1660 1598 1639 1584 1608 1636 1560 1672 1587 1567 1606 1568 1619 1570 1543 1528 1539 1608 1582 1580 1565 1586 1518 1575 1609 1577 1542 1540 1528 1552 1556 1570 1521 1606 1526 1530 1576 1488 1521 1556 1540 1554 1569 1546 1528 1551 1532 1522 1532 1475 1512 1529 1530 1557 1537 1534 1519 1554 1493 1494 1501 1479 1411 1495 1578 1581 1562 1523 1614 1608 1662 1658 1708 1759 1754 1785 1899 1948 2108 2076 2121 2261 2239 2325 2379 2359 2426 2274 2293 2212 2273 2225 2220 2185 2204 2061 2114 2016 2039 2007 1964 1793 1864 1856 1743 1719 1695 1593 1606 1696 1615 1655 1527 1497 1491 1389 1479 1532 1465 1485 1424 1421 1425 1433 1410 1393 1395 1389 1393 1431 1413 1403 1434 1431 1376 1358 1405 1368 1383 1362 1355 1415 1338 1393 1276 1358 1326 1376 1341 1361 1340 1357 1352 1428 1340 1358 1367 1329 1409 1355 1368 1324 1357 1276 1343 1309 1308 1269 1385 1350 1341 1276 1337 1298 1356 1386 1341 1365 1387 1396 1288 1411 1429 1407 1445 1410 1488 1515 1647 1571 1642 1739 1753 1982 2017 2191 2311 2484 2512 2675 2651 2758 2780 2740 2830 2728 2746 2794 2574 2609 2612 2333 2511 2403 2455 2260 2201 2050 2109 2056 2022 1998 1873 1828 1789 1731 1660 1639 1652 1560 1508 1472 1512 1401 1319 1342 1359 1365 1371 1307 1266 1267 1298 1314 1367 1276 1305 1305 1319 1255 1380 1218 1300 1300 1307 1240 1321 1343 1380 1257 1344 1318 1347 1279 1339 1279 1295 1246 1274 1268 1249 1306 1298 1243 1273 1278 1177 1176 1208 1214 1238 1119 1212 1175 1166 1167 1113 1158 1197 1162 1178 1175 1126 1200 1213 1218 1125 1187 1180 1202 1173 1099 1132 1133 1100 1154 1129 1150 1121 1136 1116 1156 1050 1150 1135 1166 1124 1106 1087 1153 1162 1120 1116 1164 1110 1136 1112 1144 1097 1187 1150 1131 1147 1102 1050 1107 1182 1066 1109 1133 1085 1150 1098 1171 1101 1109 1113 1110 1115 1094 1093 1130 1102 1122 1117 1113 1078 1076 1140 1085 1126 1080 1060 1105 1069 1108 1127 1082 1111 1062 1050 1043 1103 1148 1066 1049 1107 1115 1092 1075 1088 1090 1035 1116 1111 1076 1089 1079 1086 1087 1082 1034 1056 1084 1023 1113 1079 1072 1035 1095 1088 1079 1105 1114 1067 1044 1042 1073 1098 1084 1070 1079 1144 1031 1104 1119 1036 1102 1091 1096 1007 1078 1080 1078 1068 1132 1091 1049 1123 1066 1098 1043 1135 1085 1070 1164 1072 1118 1054 1067 1115 1099 1029 1164 1109 1068 1168 1091 1173 1178 1115 1166 1161 1144 1210 1187 1195 1221 1196 1224 1274 1275 1312 1221 1331 1279 1335 1306 1336 1360 1317 1347 1315 1405 1356 1405 1494 1347 1425 1402 1398 1388 1344 1329 1385 1249 1385 1296 1269 1301 1289 1225 1198 1236 1244 1222 1213 1185 1216 1142 1104 1220 1145 1118 1146 1153 1086 1111 1176 1117 1072 1107 1088 1125 1137 1112 1110 1091 1167 1065 1105 1117 1100 1075 1097 1045 1023 1087 1037 1121 1141 1093 1106 1084 1025 1131 1117 1056 1043 1125 1119 1143 1056 1079 1042 1070 1109 1077 1059 1115 1035 1094 1083 1141 1118 1023 1076 1046 1067 1089 1048 1037 1044 1091 1088 1019 1069 1082 1021 1077 1085 1072 1021 1064 1047 1042 1062 1006 1047 1042 1075 1084 1010 1067 1041 1033 1077 1092 1005 1092 1080 1053 1129 1016 1108 1128 1095 1160 1070 1081 1136 1166 1154 1211 1139 1175 1134 1202 1196 1196 1264 1236 1307 1378 1391 1527 1607 1578 1676 1848 2001 2246 2384 2559 2793 3211 3585 3870 4232 4707 4906 5383 5545 5728 5832 5867 5792 5678 5830 5504 5339 5035 4882 4673 4700 4690 4358 4073 3630 3480 3198 2998 2910 2858 2597 2492 2300 2160 1968 1894 1804 1735 1586 1597 1505 1526 1385 1404 1357 1363 1263 1291 1254 1176 1191 1160 1130 1133 1142 1189 1098 1150 1063 1048 1077 1092 1151 1077 1087 1080 1104 1061 1090 1089 1105 1108 1097 1059 1066 1047 1080 1078 1037 1013 1075 1011 1065 1018 1068 1029 1087 986 1018 1021 951 1037 1010 1065 991 927 998 1020 937 1006 996 1003 1023 980 1044 1003 985 1000 939 998 943 1004 1015 980 1000 970 933 954 961 976 952 995 994 924 955 953 1015 965 977 985 955 1012 980 953 1023 1035 1027 987 1007 970 1030 968 983 982 946 961 958 998 944 984 953 1004 997 1005 994 992 952 1087 1029 1033 995 1001 1018 971 980 939 967 969 901 924 984 985 935 915 967 977 1003 969 943 957 983 959 930 966 943 936 947 905 988 930 996 1005 910 921 919 975 969 948 925 964 954 957 940 896 935 900 962 915 920 906 895 914 897 933 920 943 953 894 895 858 957 926 851 909 951 925 866 887 962 881 918 925 929 862 899 930 900 908 944 909 882 880 925 945 951 864 926 922 962 859 858 911 935 906 937 903 917 918 935 874 850 909 970 896 880 912 931 938 895 911 929 859 876 868 841 937 892 901 862 913 924 862 910 886 870 869 894 921 885 923 904 892 898 889 965 975 982 959 981 946 1004 984 929 936 1015 958 974 967 917 940 966 934 913 974 937 912 852 896 952 959 814 916 885 914 850 918 839 867 884 862 897 888 794 895 892 857 896 903 898 901 909 867 886 877 866 889 894 894 871 833 856 859 882 893 909 887 858 953 879 821 833 859 827 830 846 918 839 816 851 781 834 871 845 885 818 837 815 869 838 867 847 851 868 804 811 830 854 867 820 821 875 892 853 819 844 776 903 849 845 823 826 818 832 800 867 834 785 811 862 808 839 834 840 856 869 803 843 786 831 821 835 816 855 774 841 845 809 852 830 815 758 855 862 760 866 869 831 832 841 821 834 845 832 796 826 795 835 812 834 826 761 875 744 873 777 784 810 779 828 806 791 787 773 780 812 784 834 806 830 825 818 862 810 823 821 775 793 761 770 802 833 785 831 811 789 816 836 814 800 833 800 771 760 772 813 853 780 825 793 777 853 823 786 789 788 843 783 830 819 832 780 832 804 813 819 810 804 761 859 771 833 755 749 781 756 780 838 785 787 807 807 782 791 803 820 832 818 795 829 823 791 779 780 824 807 842 771 847 825 807 792 802 821 817 769 806 833 774 752 805 758 800 776 778 796 790 795 767 778 742 795 763 789 806 790 839 835 831 805 775 765 787 820 827 803 768 872 779 865 790 782 829 800 827 798 776 782 763 754 742 797 765 755 754 771 785 779 757 754 768 788 805 785 827 780 826 829 807 748 790 770 800 787 787 794 787 796 805 842 734 783 812 774 764 769 780 796 822 753 818 776 838 753 803 822 799 787 766 834 775 751 833 794 802 784 747 819 820 787 760 765 767 742 770 770 831 754 785 810 806 801 845 788 791 798 786 740 819 728 751 780 814 781 760 765 780 824 794 788 731 820 798 795 808 761 770 731 741 849 801 699 741 783 790 770 743 804 814 822 719 798 766 774 776 795 746 755 801 793 734 746 761 779 765 754 742 745 785 752 791 814 806 792 752 776 771 794 812 787 758 795 780 787 761 749 811 810 812 771 757 763 788 808 784 749 808 774 813 802 801 761 790 823 777 786 783 822 768 789 771 783 800 752 785 797 794 795 760 765 801 768 767 779 753 794 736 798 773 755 766 797 781 755 793 757 813 781 820 758 783 774 801 750 744 791 715 779 777 794 721 756 783 856 822 763 816 764 809 777 787 832 769 768 792 776 757 811 747 781 753 790 763 780 750 750 725 801 750 783 813 782 790 799 827 794 726 753 783 841 823 772 790 812 754 768 732 827 792 818 778 805 730 771 795 795 823 799 790 813 831 767 777 803 816 795 800 805 781 777 803 787 817 767 816 847 787 791 804 761 855 794 858 841 807 804 834 813 810 808 910 787 829 824 823 823 798 808 815 862 835 832 840 828 831 830 831 754 803 766 770 776 823 819 729 781 834 809 828 825 792 845 835 808 792 799 786 798 796 803 823 732 813 793 723 790 748 824 750 800 776 781 835 785 786 732 776 801 761 795 763 761 783 761 797 792 803 813 744 820 782 858 835 819 807 833 762 798 783 843 887 828 910 872 918 999 954 1027 1037 1165 1212 1210 1368 1349 1421 1406 1365 1331 1298 1372 1310 1347 1366 1260 1260 1207 1179 1212 1139 1142 1089 1024 995 952 959 972 940 955 929 934 823 880 824 850 817 809 820 817 832 794 829 752 732 784 769 782 804 818 775 813 739 762 717 769 758 803 723 733 770 769 750 785 761 770 733 760 732 762 777 831 796 750 773 712 741 740 720 699 740 745 782 762 744 775 794 783 738 735 802 723 741 764 752 758 696 709 735 768 740 759 760 740 757 729 747 733 749 724 763 762 773 741 773 691 701 779 758 727 736 707 719 714 751 729 721 741 760 758 732 737 741 678 740 783 734 704 735 715 751 736 701 734 737 750 779 688 751 759 761 769 736 770 731 727 713 759 757 704 706 774 749 801 744 745 711 771 775 714 780 718 731 758 723 688 751 809 679 754 704 756 731 728 720 767 736 758 790 742 738 748 726 721 755 713 749 724 717 702 747 729 713 715 732 773 702 748 705 735 786 732 762 712 788 711 699 708 729 745 706 743 742 676 725 718 741 738 776 753 760 696 789 759 764 692 726 778 759 764 741 715 800 754 801 765 736 770 746 777 758 779 714 762 784 791 741 700 708 787 775 796 733 732 708 779 761 744 743 708 746 749 733 744 722 689 717 749 752 688 693 768 766 729 795 722 735 781 771 812 755 740 779 739 780 722 712 819 731 763 750 695 753 761 823 777 785 747 724 749 711 728 710 759 712 750 737 715 739 772 774 733 772 761 776 797 742 736 721 813 736 814 781 715 790 754 802 794 738 783 768 784 802 788 759 800 763 788 753 787 793 811 820 802 804 745 790 829 845 840 879 833 836 875 841 859 833 872 890 922 839 889 857 944 910 955 974 930 1075 1070 1153 1133 1218 1323 1459 1611 1824 1997 2258 2595 2881 3209 3519 3730 3876 3889 3891 3888 3951 3752 3720 3537 3579 3438 3455 3478 3412 3388 3231 3122 2910 2783 2524 2296 2139 2032 1931 1786 1713 1686 1503 1516 1408 1329 1296 1184 1199 1074 1034 1017 1004 957 1020 974 940 848 874 902 929 915 818 858 823 816 812 770 778 863 858 733 781 799 828 815 725 730 734 789 783 744 803 773 734 790 735 735 743 759 796 749 740 804 759 790 777 816 765 780 768 768 765 784 751 782 724 774 745 765 785 832 772 805 831 765 795 767 781 763 805 820 803 740 783 805 736 794 822 799 722 776 819 754 773 798 813 759 750 772 742 814 730 740 726 689 811 772 742 756 780 736 764 784 808 783 787 720 767 748 736 763 725 695 706 722 741 782 769 745 764 735 737 748 687 696 678 673 694 707 718 673 664 712 705 737 675 678 717 710 734 674 754 741 711 711 762 713 715 733 715 699 725 677 693 708 734 729 747 758 727 704 739 702 693 719 685 749 714 697 730 777 743 764 746 691 748 745 734 783 853 854 887 936 948 1023 1018 1044 1017 1031 1076 1059 1051 1012 979 932 1044 952 949 1031 1002 925 978 947 940 902 847 860 834 838 798 819 824 763 768 836 778 776 775 701 759 752 746 730 712 774 649 760 681 746 723 703 670 710 699 712 707 626 653 714 668 712 694 695 754 652 652 652 736 631 677 706 676 678 717 674 717 687 706 691 674 720 720 710 738 696 672 698 727 656 704 709 714 730 679 689 696 664 641 678 671 725 663 756 647 681 703 701 644 689 709 684 650 698 757 678 719 676 701 693 645 715 652 658 636 692 685 667 698 687 742 679 706 702 690 658 634 667 652 670 674 766 643 683 631 657 699 662 641 691 669 652 726 681 683 674 687 706 684 657 655 663 689 645 668 685 707 679 695 724 687 693 652 697 622 720 682 696 649 675 678 679 680 596 676 651 692 651 714 658 636 646 668 652 663 630 691 665 687 651 665 659 678 706 678 659 678 709 664 642 674 675 670 681 736 619 666 662 656 686 716 669 692 661 684 616 656 669 667 668 665 724 664 698 681 704 701 636 602 642 640 633 668 697 639 662 669 654 701 610 661 674 662 640 622 632 673 660 610 694 691 642 690 646 673 652 723 668 697 659 625 684 680 631 627 663 680 696 643 699 708 640 666 682 639 650 676 665 675 686 656 672 657 652 679 713 657 654 681 650 681 679 606 653 650 678 614 654 668 666 670 655 652 704 625 655 662 661 702 648 654 697 670 688 684 706 688 661 633 674 616 642 632 649 606 674 668 693 715 677 660 660 657 631 673 710 634 646 633 646 631 622 615 604 683 640 686 655 662 634 670 623 655 681 661 669 682 642 697 662 706 666 640 672 660 633 683 603 650 648 649 653 619 633 634 657 679 608 650 589 661 636 649 662 630 647 598 636 659 606 696 651 689 663 616 665 701 687 630 598 696 642 584 647 605 613 668 604 596 653 641 558 671 637 630 622 626 648 641 633 643 628 623 663 657 669 636 644 666 731 649 632 625 651 610 640 625 615 696 656 638 668 603 641 645 669 638 648 654 633 638 641 670 619 660 602 662 622 641 620 707 656 663 623 585 654 634 657 640 673 665 653 602 649 626 656 696 638 668 634 628 637 605 636 647 614 621 553 640 629 657 607 636 632 671 640 582 652 615 664 637 685 642 616 644 678 644 643 668 641 668 614 667 690 647 693 621 621 663 658 658 624 644 660 679 613 605 621 668 653 615 641 605 643 643 637 643 652 599 590 670 617 626 661 620 659 658 676 685 705 706 656 727 689 737 730 790 699 715 712 723 762 734 726 704 751 709 766 728 714 714 764 706 713 757 698 729 704 700 726 669 729 653 633 696 665 667 649 671 630 672 673 658 641 657 709 638 650 653 670 669 639 659 667 646 662 666 689 650 689 669 688 699 703 668 723 778 746 835 809 832 915 899 990 985 966 1005 968 925 943 907 953 909 927 890 884 944 883 928 950 825 881 883 885 788 836 792 762 730 738 689 718 708 709 658 693 657 748 669 664 669 673 682 677 626 651 635 649 620 647 645 683 691 708 673 726 614 658 627 662 629 671 658 632 633 653 669 564 626 623 654 693 630 652 643 644 633 695 646 637 636 684 692 649 638 678 590 628 670 689 601 641 688 594 676 642 632 606 603 608 649 648 622 616 614 623 648 658 585 625 637 651 645 620 603 629 645 631 671 637 601 626 641 654 660 624 638 624 619 621 641 627 684 671 599 663 631 663 648 636 701 570 627 601 616 639 633 633 668 615 662 576 621 597 604 593 610 590 664 632 615 643 601 649 621 642 645 647 678 657 630 620 643 667 608 622 622 625 671 654 633 655 642 623 598 631 643 672 623 620 678 606 613 678 670 585 703 618 662 647 676 598 659 667 585 644 628 694 665 637 654 638 588 634 638 659 610 631 632 676 624 639 663 639 654 654 565 647 627 673 630 629 684 683 633 638 614 648 668 662 609 625 638 641 676 655 659 657 681 652 698 694 646 721 739 763 764 801 855 871 955 1046 1066 1182 1236 1293 1382 1415 1352 1462 1345 1426 1301 1252 1238 1239 1181 1208 1165 1187 1189 1239 1211 1151 1168 1112 1147 1104 1041 992 948 900 828 857 897 851 772 787 800 701 733 752 709 743 706 704 661 653 677 677 649 697 664 674 624 646 631 666 642 625 660 622 604 641 628 604 620 605 593 624 616 586 645 576 615 577 625 658 584 652 601 625 635 612 603 616 619 593 632 619 619 581 669 591 593 664 618 654 588 615 609 659 614 597 584 595 617 587 605 605 595 565 608 623 589 626 596 639 620 615 624 628 625 574 583 591 587 642 610 666 632 635 622 632 605 591 635 629 608 665 624 591 612 595 633 623 620 578 629 577 632 613 608 608 594 617 636 642 595 591 624 590 602 646 648 581 575 626 687 641 608 658 591 601 620 623 607 596 544 616 614 630 657 583 634 628 618 619 620 644 684 623 705 715 689 716 716 761 754 783 800 797 832 821 819 812 726 784 734 704 707 724 716 749 728 756 787 738 738 785 749 722 686 667 712 629 676 619 617 599 651 662 648 584 627 638 610 630 598 610 644 546 639 598 564 687 588 583 640 611 588 611 595 613 647 586 628 584 618 602 596 569 554 570 577 606 598 610 543 568 602 602 613 575 587 606 597 608 627 610 570 588 571 594 577 625 606 613 578 592 545 567 632 583 564 606 606 580 602 618 594 616 540 603 558 565 608 599 614 569 596 641 577 598 595 535 592 588 562 576 582 590 577 616 563 591 584 555 569 520 572 615 573 562 570 594 576 583 592 570 574 564 551 567 605 586 601 592 584 584 568 541 599 599 609 571 577 589 601 586 581 618 627 561 599 552 648 558 553 575 569 560 578 597 565 596 559 563 567 569 550 575 539 568 542 581 533 597 550 591 590 591 566 601 581 586 569 573 580 571 586 574 594 589 599 575 594 585 571 573 567 600 599 557 598 576 568 564 592 604 566 557 572 587 516 581 510 556 588 550 575 602 595 552 571 558 594 576 579 640 573 567 553 616 575 595 631 590 543 605 579 582 572 582 571 567 513 600 610 643 600 623 548 553 570 564 558 589 577 581 562 564 574 566 595 535 598 572 536 596 563 545 597 592 597 582 571 571 567 566 552 552 515 619 549 581 595 564 556 598 574 532 623 553 544 548 528 551 588 551 594 579 567 566 618 514 554 612 532 536 542 587 575 589 595 564 558 580 547 568 574 624 530 550 592 619 606 591 570 580 616 562 572 595 585 552 574 557 547 598 553 584 578 560 582 558 551 562 504 591 586 588 575 589 558 561 588 554 578 601 500 581 568 530 628 566 502 571 596 603 581 602 564 538 587 547 597 610 605 541 550 576 546 555 575 567 562 568 563 586 583 595 563 583 522 605 561 619 607 576 546 598 592 601 568 582 597 574 590 534 600 583 558 620 611 598 574 583 575 581 598 547 603 572 571 573 613 607 585 587 569 625 560 564 579 567 575 583 625 571 608 565 605 573 592 602 610 559 567 566 571 603 525 591 585 608 557 544 519 575 558 500 578 606 563 582 574 565 558 560 563 602 592 575 591 621 567 590 570 639 590 622 571 630 667 652 694 670 706 720 707 684 664 671 654 633 675 673 626 644 620 660 679 630 693 620 662 667 689 639 609 666 635 649 586 603 557 565 579 566 594 603 570 576 612 622 599 553 614 583 623 571 612 611 571 528 598 584 588 553 559 556 576 561 599 600 535 539 544 579 572 538 593 531 579 570 595 581 560 564 543 586 544 514 555 529 598 548 525 558 569 510 536 555 544 538 538 599 510 595 528 538 541 560 582 560 551 564 648 624 568 566 563 554 571 569 601 552 585 557 516 574 549 560 529 562 559 585 550 568 558 581 564 581 573 560 561 569 555 579 545 542 525 573 571 583 534 591 551 550 544 553 546 610 576 632 557 563 590 579 584 569 563 573 548 587 544 567 560 574 538 582 566 563 575 582 521 563 560 568 536 561 568 589 548 588 570 581 536 568 521 556 563 554 584 563 528 551 604 620 536 570 610 603 579 599 576 565 565 583 548 557 531 536 543 515 585 573 598 566 525 571 569 523 509 529 523 532 568 522 502 569 581 555 563 559 569 539 579 590 514 597 531 578 547 592 587 528 583 557 566 573 531 601 591 568 612 620 550 535 545 526 581 537 611 512 541 597 560 615 584 558 577 591 596 523 604 605 600 605 560 510 589 605 549 593 545 588 552 535 634 578 582 569 561 591 574 621 615 645 644 663 703 688 683 768 797 830 768 799 857 904 873 838 896 876 862 841 826 838 743 804 765 738 783 768 799 744 731 797 750 751 783 800 807 747 742 703 719 676 669 660 604 643 642 617 597 642 604 566 593 657 608 618 621 593 613 563 574 572 570 565 569 571 559 531 541 547 554 525 564 521 555 528 550 550 552 594 557 590 548 573 588 591 566 617 561 560 598 564 576 584 595 545 536 569 555 566 617 572 555 568 578 553 593 538 563 524 557 541 601 559 623 590 576 586 599 535 544 521 552 561 549 553 553 558 582 516 531 565 565 536 573 562 560 558 558 533 579 555 597 565 542 554 591 533 593 536 561 555 558 586 575 484 583 548 554 555 549 530 522 544 547 552 591 561 588 519 549 576 582 562 550 514 543 544 563 565 524 546 552 565 519 604 579 561 546 587 541 524 545 575 572 576 542 546 550 538 564 535 549 535 554 577 540 571 604 532 564 535 531 552 575 558 532 550 606 559 554 524 511 571 558 559 569 528 519 570 550 584 546 531 581 578 565 571 584 554 565 553 547 559 532 536 563 511 558 531 538 523 528 578 552 567 533 515 495 573 588 591 527 534 553 575 583 562 580 567 527 555 547 540 567 532 533 540 558 561 543 621 531 543 540 562 582 557 573 542 503 516 562 572 565 560 515 587 538 591 571 562 552 529 550 582 564 584 571 540 551 568 552 591 580 547 562 581 544 555 556 544 560 535 520 538 585 581 569 580 558 590 560 577 557 591 558 561 540 579 587 553 595 539 538 553 550 563 591 550 522 580 585 576 535 595 510 578 521 577 554 576 530 560 521 592 546 561 604 597 542 510 553 568 565 600 547 552 549 602 543 547 532 526 539 595 546 542 581 567 554 543 522 546 553 551 567 595 554 555 552 535 568 560 534 545 530 565 525 550 577 605 536 562 557 529 546 595 553 528 549 546 604 531 592 517 529 543 606 533 581 517 575 538 533 545 533 589 526 549 525 546 574 557 596 510 585 539 585 518 540 569 596 501 548 554 510 556 524 542 555 568 556 548 572 566 563 529 547 567 550 566 553 524 532 567 581 574 530 547 507 537 523 513 554 558 520 530 567 527 556 558 556 555 568 588 565 557 560 596 586 526 588 574 550 542 525 599 527 563 592 544 554 536 498 584 514 551 525 545 580 589 573 566 552 556 539 547 572 544 608 581 571 576 559 569 584 540 565 568 562 600 541 544 577 531 528 568 553 546 568 578 545 550 564 579 539 559 526 540 535 541 570 595 568 591 557 599 554 600 614 545 609 562 559 591 557 573 525 573 541 534 585 581 583 556 632 544 545 602 607 573 547 547 527 590 557 566 576 602 563 591 576 566 603 601 547 590 579 557 596 549 589 578 572 577 584 611 572 602 573 584 585 543 611 545 534 520 603 547 591 554 605 602 531 623 538 586 538 611 592 578 580 588 598 559 584 582 532 577 577 627 590 605 624 593 622 633 610 667 669 710 642 653 636 602 636 629 587 618 604 653 605 634 630 573 625 631 596 623 594 637 637 633 650 598 620 611 618 615 586 599 537 590 600 574 638 606 589 583 653 618 561 592 613 605 611 612 628 652 632 667 651 630 640 684 611 691 663 699 725 695 662 631 656 670 586 659 619 621 623 658 621 622 603 641 602 633 638 623 686 651 635 614 581 596 597 599 626 625 608 614 617 603 642 557 596 565 596 615 559 557 582 594 561 600 624 608 578 589 559 599 560 593 578 573 560 582 610 603 613 637 568 542 560 544 628 523 606 572 573 549 575 585 545 580 574 534 564 612 562 578 573 666 587 631 564 554 600 556 578 555 635 606 575 576 585 589 583 568 559 620 547 547 557 568 577 557 587 568 540 567 590 603 559 545 553 573 569 550 609 612 583 591 539 527 567 584 616 584 594 548 585 594 588 568 612 615 562 536 570 559 566 554 601 586 590 575 585 559 617 614 610 569 608 590 573 565 657 566 617 633 572 606 571 554 566 629 585 577 591 594 581 618 576 588 624 592 633 580 598 557 588 613 592 605 581 608 649 626 614 622 601 633 595 598 660 609 571 618 618 583 628 623 625 675 627 675 639 667 673 712 691 701 737 740 780 758 791 849 845 929 1011 1016 1103 1158 1245 1226 1258 1266 1259 1187 1178 1229 1090 1146 1106 1013 985 1023 986 943 935 883 977 934 948 982 1001 957 972 933 985 981 931 945 870 878 898 774 774 722 749 723 709 697 715 670 699 665 659 632 660 571 638 615 655 635 631 602 618 625 585 582 603 578 621 621 589 602 594 586 567 636 628 542 615 587 559 637 608 594 597 584 567 560 574 563 565 595 580 569 539 587 572 582 568 569 571 588 576 604 608 577 585 643 608 577 567 552 605 598 589 592 565 598 564 530 580 585 619 578 560 593 601 612 543 599 542 549 596 571 577 589 537 532 551 581 595 577 622 603 561 582 555 563 596 579 522 546 560 615 575 566 577 568 595 626 625 598 624 597 549 571 555 614 547 601 588 578 604 564 615 564 610 634 582 654 599 631 620 642 662 639 623 619 604 608 611 645 609 597 608 589 613 639 612 595 579 644 627 625 609 668 618 583 586 583 618 591 587 557 572 578 582 654 579 607 550 616 570 573 567 588 582 597 578 593 615 571 576 621 576 597 587 556 565 565 557 556 584 617 598 576 529 561 554 558 542 548 549 555 562 568 532 563 571 543 565 558 534 572 624 554 537 538 526 621 555 583 569 581 552 563 555 544 583 552 536 581 514 561 517 575 560 561 596 540 572 588 575 572 597 584 552 558 579 541 552 557 545 594 587 578 552 556 585 559 568 582 579 524 578 577 548 573 474 596 557 574 538 515 556 587 529 516 542 571 561 575 543 560 550 541 549 538 565 540 556 593 541 589 553 538 573 548 568 586 579 557 598 522 543 590 530 548 543 565 548 545 564 571 570 543 560 585 523 556 540 551 550 567 525 535 540 535 558 513 566 557 553 554 561 583 583 565 582 539 524 567 552 546 533 560 540 567 538 514 556 537 584 532 565 590 535 572 566 594 558 587 556 538 585 575 524 547 544 549 566 561 547 583 516 585 510 542 555 567 504 517 536 555 559 568 503 514 578 575 576 517 609 539 541 561 560 526 578 561 579 548 560 524 556 510 601 543 568 549 547 567 548 567 519 555 555 518 561 574 590 521 606 553 556 577 594 571 531 593 562 566 585 569 554 540 506 544 562 545 569 571 543 547 521 568 582 554 566 557 544 559 530 567 541 551 532 587 544 536 577 570 580 565 536 575 566 538 582 508 491 553 537 536 567 576 531 550 537 555 545 569 582 542 556 516 547 580 531 538 579 530 544 511 511 541 562 557 556 550 552 546 528 548 521 564 517 532 558 569 579 546 525 561 553 618 547 531 585 546 517 588 618 553 565 564 577 586 550 538 518 562 583 587 566 586 552 613 550 565 580 520 580 579 581 603 581 609 546 564 536 530 563 590 520 602 531 533 543 577 554 546 545 544 577 548 589 578 565 598 546 564 534 583 545 587 554 564 605 607 553 606 605 605 627 659 613 632 601 625 656 674 590 608 627 646 549 607 649 577 567 604 641 555 565 613 597 608 562 588 619 554 623 644 626 612 642 617 629 625 611 557 602 606 600 532 574 579 556 542 552 593 559 610 589 582 565 592 563 567 560 581 530 563 585 557 535 534 546 598 598 563 552 570 620 566 567 600 533 545 508 566 551 555 569 541 560 544 542 590 532 581 532 549 503 514 573 554 555 528 518 549 564 555 589 540 570 576 564 542 518 586 560 555 542 555 547 543 568 584 538 596 574 561 546 553 579 567 576 539 517 549 569 560 546 538 569 517 515 548 566 486 539 583 505 591 508 515 572 530 539 551 562 552 574 510 557 541 519 526 510 533 520 518 548 561 551 567 544 531 557 535 606 500 563 558 540 537 559 545 543 600 538 506 547 554 593 542 577 555 592 551 533 555 564 577 522 543 568 578 508 557 539 569 547 579 508 503 525 556 575 598 553 584 555 557 572 559 504 553 605 552 596 548 551 550 577 603 560 547 551 551 571 578 559 541 556 535 556 543 568 554 566 534 556 572 611 562 620 589 561 541 529 573 567 592 630 581 596 556 589 575 569 573 574 626 572 550 602 602 640 617 624 645 667 616 640 653 661 651 701 701 707 738 814 855 867 949 941 1022 1084 1033 1111 1097 1031 1018 983 929 946 887 843 855 873 776 772 822 770 825 808 790 791 767 714 766 762 767 849 815 836 808 797 887 872 772 802 793 737 751 765 720 715 709 655 735 650 675 603 617 623 595 635 596 604 577 654 588 568 604 610 616 575 592 587 560 577 541 550 557 544 562 606 564 596 569 568 587 550 559 588 593 523 544 576 572 564 567 599 592 554 533 597 598 545 539 500 565 575 570 539 612 571 568 554 565 570 564 598 571 515 562 533 536 533 583 543 572 521 566 552 551 570 539 526 579 569 581 539 530 600 636 518 540 549 549 544 541 576 576 579 567 521 564 497 526 533 620 550 558 542 536 544 557 572 573 535 569 536 532 550 582 556 539 594 562 534 583 548 566 588 625 614 553 619 550 596 602 606 563 560 557 557 569 554 597 573 543 552 553 583 552 553 545 592 602 562 545 554 578 610 565 588 554 597 539 534 589 546 595 528 556 525 550 541 563 529 574 537 562 552 550 559 531 544 570 523 578 547 576 564 559 548 550 545 601 513 566 520 543 541 587 530 560 561 582 529 581 542 539 596 554 513 564 567 586 539 574 574 570 520 537 575 584 535 579 530 586 551 519 562 539 570 549 531 548 511 554 501 566 598 565 600 531 541 538 547 546 528 529 543 510 508 514 544 527 559 573 555 532 499 544 529 580 516 553 558 541 507 525 564 534 572 539 542 505 506 582 594 528 548 536 542 544 557 562 533 516 585 555 549 542 550 519 521 531 524 584 516 549 545 525 587 551 555 542 562 512 531 571 537 535 545 543 560 494 553 569 565 509 524 544 495 558 580 545 550 558 535 526 512 538 505 542 492 555 564 538 499 539 509 563 510 542 525 517 544 522 596 536 485 552 536 542 533 551 564 538 544 515 545 531 578 537 549 539 531 531 559 527 526 532 563 510 538 523 587 523 578 584 528 572 547 553 519 556 595 540 582 509 605 530 533 530 547 526 592 569 542 498 542 541 552 519 556 574 491 567 563 530 533 522 534 549 532 545 543 549 544 516 550 517 551 534 537 546 545 505 532 530 544 570 569 528 489 518 505 520 552 540 492 544 556 506 532 524 535 521 501 540 498 561 557 548 538 556 533 543 529 547 525 548 514 570 573 572 526 541 502 558 583 552 520 517 560 524 551 529 541 532 543 541 492 548 533 532 590 586 520 541 527 533 569 537 544 567 554 570 496 517 548 521 562 512 529 557 539 516 529 563 559 564 520 536 573 522 594 584 572 508 492 526 517 593 525 523 544 549 521 520 531 518 481 544 482 470 541 509 546 504 534 537 564 537 548 549 543 502 586 570 526 554 533 539 556 503 552 506 541 542 551 596 537 568 538 549 527 560 532 557 609 524 552 593 542 589 557 524 609 609 558 562 584 600 612 629 580 595 635 630 593 621 639 699 642 673 602 642 614 624 633 646 587 640 577 524 583 604 552 604 567 603 560 585 564 594 565 596 637 586 573 607 557 582 618 623 579 565 605 614 551 590 567 576 593 565 574 549 576 632 563 623 596 589 575 604 569 621 591 620 575 611 593 584 606 586 577 596 570 566 595 602 565 541 543 615 590 635 521 570 578 523 585 530 575 548 558 566 585 579 595 624 577 584 555 556 585 559 611 509 552 595 556 550 595 568 531 536 513 575 571 513 574 529 548 549 585 530 512 548</counts>
			</dataPoints>
		</scan>
	</xrdMeasurement>
</xrdMeasurements>
