<?xml version="1.0"?>
<xrdMeasurements xmlns="http://www.xrdml.com/XRDMeasurement/2.3" xmlns:xsi="http://www.w3.org/2001/XMLSchema-instance" xsi:schemaLocation="http://www.xrdml.com/XRDMeasurement/2.3 http://www.xrdml.com/XRDMeasurement/2.3/XRDMeasurement.xsd" status="Completed" recordIdentifier="{A1BD86E1-A72B-4FFF-B04D-2977801D527B}">
	<comment>
		<entry/>
	</comment>
	<sample type="To be analyzed">
		<id>GPSS_Li1p4Fe0p4V0p6Cl4_122125_69474145f4d05ae3d697aef4</id>
		<name></name>
		<preparedBy></preparedBy>
	</sample>
	<xrdMeasurement measurementType="Scan" status="Completed" sampleMode="Reflection">
		<usedWavelength intended="K-Alpha 1">
			<kAlpha1 unit="Angstrom">1.5405980</kAlpha1>
			<kAlpha2 unit="Angstrom">1.5444260</kAlpha2>
			<kBeta unit="Angstrom">1.3922500</kBeta>
			<ratioKAlpha2KAlpha1>0.5000</ratioKAlpha2KAlpha1>
		</usedWavelength>
		<incidentBeamPath>
			<radius unit="mm">145.00</radius>
			<xRayTube id="1010048" name="Empyrean Cu LFF HR (9430 033 7310x)">
				<tension unit="kV">40.0</tension>
				<current unit="mA">15.0</current>
				<anodeMaterial>Cu</anodeMaterial>
				<focus type="Line">
					<length unit="mm">12.0</length>
					<width unit="mm">0.4</width>
					<takeOffAngle unit="deg">6.0</takeOffAngle>
				</focus>
			</xRayTube>
			<sollerSlit id="21010002" name="Soller slits 0.04 rad.">
				<opening unit="rad">0.0400</opening>
			</sollerSlit>
			<mask id="22031000" name="Fixed mask 13 mm">
				<width unit="mm">9.00</width>
			</mask>
			<divergenceSlit id="22120001" name="Divergence slit 1°" xsi:type="fixedDivergenceSlitType">
				<distanceToSample unit="mm">50.00</distanceToSample>
				<height unit="mm">1.52</height>
			</divergenceSlit>
		</incidentBeamPath>
		<sampleMovement xsi:type="spinningSampleMovementType">
			<spinnerRevolutionTime unit="seconds">1.0</spinnerRevolutionTime>
		</sampleMovement>
		<diffractedBeamPath>
			<radius unit="mm">145.00</radius>
			<antiScatterSlit id="22090040" name="AS slit 9 mm (PIXcel)" xsi:type="fixedAntiScatterSlitType">
				<height unit="mm">9.00</height>
			</antiScatterSlit>
			<sollerSlit id="21020003" name="Large Soller slits 0.04 rad.">
				<opening unit="rad">0.0400</opening>
			</sollerSlit>
			<filter id="20030001" name="Large beta-filter Nickel">
				<material>Ni</material>
				<thickness unit="mm">0.020</thickness>
			</filter>
			<detector id="7010019" name="PIXcel1D-Medipix3 detector" xsi:type="rtmsDetectorType">
				<phd unit="keV">
					<lowerLevel>4.02</lowerLevel>
					<upperLevel>11.27</upperLevel>
				</phd>
				<mode>Scanning</mode>
				<activeLength unit="deg">5.542</activeLength>
			</detector>
		</diffractedBeamPath>
		<scan appendNumber="0" mode="Continuous" scanAxis="Gonio" status="Completed">
			<header>
				<startTimeStamp>2025-12-23T11:56:09-08:00</startTimeStamp>
				<endTimeStamp>2025-12-23T12:04:16-08:00</endTimeStamp>
				<author>
					<name>AutomatedUser</name>
				</author>
				<source>
					<applicationSoftware version="1.7b (136)">PANalytical Aeris Instrument Suite</applicationSoftware>
					<instrumentControlSoftware version="3.2.00000000 20240306">AERIS</instrumentControlSoftware>
					<instrumentID>950485</instrumentID>
				</source>
			</header>
			<dataPoints>
				<positions axis="2Theta" unit="deg">
					<startPosition>10.00943322</startPosition>
					<endPosition>99.99442286</endPosition>
				</positions>
				<positions axis="Omega" unit="deg">
					<startPosition>5.00471661</startPosition>
					<endPosition>49.99721143</endPosition>
				</positions>
				<commonCountingTime unit="seconds">12.495</commonCountingTime>
				<counts unit="counts">3199 3208 3266 3174 3298 3292 3169 3309 3299 3340 3297 3195 3272 3241 3259 3314 3259 3216 3196 3357 3252 3257 3290 3284 3149 3203 3241 3431 3358 3301 3165 3350 3275 3265 3137 3187 3254 3219 3318 3165 3363 3204 3210 3315 3386 3210 3264 3232 3295 3319 3300 3270 3154 3316 3276 3380 3216 3317 3274 3315 3324 3233 3343 3222 3302 3354 3383 3296 3261 3286 3279 3487 3335 3365 3399 3293 3360 3415 3406 3354 3453 3335 3327 3295 3322 3418 3333 3424 3409 3381 3314 3443 3454 3407 3396 3391 3481 3430 3330 3306 3417 3427 3417 3493 3374 3389 3390 3296 3466 3406 3409 3342 3299 3416 3458 3432 3452 3439 3482 3395 3427 3304 3409 3457 3510 3475 3460 3454 3330 3434 3432 3465 3576 3496 3468 3416 3384 3342 3413 3428 3392 3522 3467 3463 3557 3462 3336 3522 3430 3446 3370 3452 3334 3396 3424 3402 3370 3446 3303 3316 3375 3447 3475 3402 3446 3323 3378 3408 3404 3356 3436 3449 3365 3360 3431 3424 3535 3373 3392 3511 3450 3437 3488 3409 3352 3323 3361 3409 3452 3447 3487 3348 3392 3332 3471 3360 3287 3383 3348 3314 3289 3285 3347 3395 3344 3396 3290 3239 3270 3281 3361 3365 3283 3326 3378 3285 3366 3384 3381 3282 3255 3162 3282 3377 3261 3207 3287 3370 3287 3275 3351 3246 3217 3262 3258 3259 3256 3233 3380 3280 3377 3245 3251 3284 3167 3192 3313 3236 3181 3193 3200 3147 3322 3323 3248 3226 3193 3346 3227 3239 3183 3164 3214 3305 3246 3323 3132 3242 3212 3256 3271 3162 3138 3157 3109 3130 3310 3188 3120 3155 3260 3256 3118 3153 3278 3186 3214 3287 3314 3179 3131 3187 3198 3167 3245 3138 3305 3212 3144 3168 3174 3201 3324 3230 3253 3255 3195 3131 3225 3273 3296 3248 3300 3276 3257 3213 3312 3250 3159 3317 3214 3276 3252 3322 3218 3176 3203 3288 3340 3332 3233 3287 3240 3218 3259 3310 3339 3133 3324 3295 3223 3291 3322 3361 3277 3266 3316 3399 3270 3322 3312 3285 3362 3412 3376 3364 3333 3302 3278 3318 3307 3382 3382 3534 3352 3447 3473 3383 3363 3548 3371 3387 3375 3656 3444 3385 3411 3514 3434 3452 3387 3508 3522 3544 3444 3503 3462 3463 3414 3494 3527 3540 3421 3504 3535 3486 3520 3445 3507 3489 3486 3512 3615 3617 3538 3621 3530 3530 3496 3559 3526 3513 3579 3510 3644 3636 3354 3622 3564 3560 3534 3586 3504 3609 3563 3587 3534 3735 3688 3619 3518 3648 3580 3500 3584 3611 3670 3533 3579 3505 3709 3617 3688 3569 3662 3603 3585 3600 3577 3735 3603 3710 3665 3680 3759 3765 3814 3856 3780 3888 3907 3933 3961 3914 3928 3999 4049 4004 4028 3985 4174 4149 4162 4237 4220 4273 4425 4380 4420 4359 4606 4582 4630 4594 4556 4790 4675 4850 4765 4854 5002 5265 5032 5390 5454 5428 5536 5656 5704 5846 5787 5748 5791 5725 5601 5523 5355 5157 4983 4686 4605 4373 4132 4056 4026 3966 3763 3664 3628 3513 3528 3484 3496 3371 3392 3436 3322 3346 3337 3298 3397 3385 3283 3397 3229 3315 3269 3393 3223 3298 3186 3322 3274 3240 3220 3236 3208 3196 3332 3184 3271 3236 3290 3307 3232 3194 3221 3061 3195 3127 3204 3169 3225 3217 3061 3151 3122 3037 3113 3066 3113 3110 3097 3114 3033 3135 3128 3227 3024 3079 3069 3084 3054 3098 3138 3149 3054 3072 3086 3004 3109 3087 3087 3029 3047 3076 3077 2979 3063 3017 3188 3004 3176 3052 3075 2962 3043 2953 2978 3009 2966 3001 3022 3051 2930 2966 2990 2985 2997 2956 2950 3004 2963 2961 2916 2979 3048 2955 2941 3057 2983 2985 3008 3074 3007 2952 2945 2957 2926 3009 3018 3015 3013 3006 2958 3058 3032 2954 2912 2935 3002 2996 3053 2942 3196 2955 3081 2926 3003 2977 3135 2993 3093 3029 3026 2977 2954 2987 3046 2985 3006 3062 3073 3101 2931 2969 3029 3090 3101 3029 2968 2941 2976 3002 3108 3000 3067 3057 3021 3033 3120 3033 3060 3023 3035 3048 3028 3037 3074 2886 3040 2938 3005 2972 2999 2806 3006 2966 3011 2857 2874 2957 2957 2950 2944 2883 2983 2927 3003 2953 3009 2960 2923 2880 3000 3024 2951 2890 2880 2937 2804 2933 2923 2898 2991 2935 2938 2874 2924 2852 2959 2934 2928 2944 2938 2774 2972 2892 2967 2959 2997 2952 2964 2891 2846 2867 2916 2905 2882 2820 2850 2939 2940 2819 2952 2954 2847 2983 2905 2941 2920 2825 2821 2961 2929 2860 2830 2896 2975 2901 2969 2829 2864 2897 2918 2997 2893 2839 2894 2843 2869 2822 2804 2832 2886 2834 2840 2849 2876 2852 2856 2803 2979 2821 2844 2993 2844 2718 2861 2874 2822 2836 2860 2861 2909 2785 2911 2806 2846 2905 2823 2897 2779 2760 2855 2863 2781 2822 2806 2812 2826 2774 2797 2858 2830 2801 2774 2769 2831 2737 2804 2776 2692 2828 2790 2761 2844 2743 2646 2794 2835 2844 2697 2826 2763 2768 2761 2706 2743 2748 2705 2725 2753 2661 2709 2694 2719 2780 2818 2745 2710 2707 2681 2754 2707 2751 2674 2769 2688 2693 2739 2759 2669 2795 2623 2678 2691 2725 2606 2707 2719 2662 2690 2646 2652 2689 2582 2681 2746 2640 2667 2830 2731 2692 2696 2643 2622 2637 2587 2671 2698 2688 2692 2579 2762 2658 2649 2682 2654 2583 2580 2494 2573 2611 2614 2679 2660 2715 2611 2717 2599 2556 2663 2669 2640 2659 2450 2504 2575 2586 2652 2651 2564 2537 2545 2545 2529 2652 2652 2630 2676 2584 2466 2557 2559 2584 2511 2540 2513 2552 2515 2537 2544 2496 2563 2602 2618 2576 2531 2600 2577 2422 2552 2511 2545 2482 2498 2536 2480 2564 2517 2497 2603 2547 2565 2580 2551 2545 2621 2613 2637 2540 2580 2476 2573 2570 2497 2514 2548 2474 2512 2502 2480 2540 2528 2495 2565 2576 2569 2543 2648 2488 2633 2469 2518 2523 2481 2507 2566 2524 2518 2511 2523 2527 2530 2436 2581 2408 2605 2383 2467 2459 2529 2470 2528 2524 2512 2501 2557 2539 2464 2478 2492 2458 2634 2485 2501 2427 2536 2534 2568 2488 2434 2529 2554 2532 2616 2611 2541 2542 2538 2546 2578 2451 2494 2536 2555 2530 2520 2544 2454 2565 2607 2628 2487 2536 2458 2592 2563 2533 2599 2425 2470 2435 2539 2533 2518 2502 2504 2563 2585 2465 2550 2493 2533 2458 2515 2513 2529 2538 2547 2544 2456 2523 2490 2490 2480 2489 2521 2516 2480 2520 2470 2513 2488 2480 2531 2447 2508 2497 2485 2398 2542 2494 2493 2513 2434 2506 2491 2380 2477 2521 2432 2494 2473 2490 2416 2393 2373 2413 2459 2522 2487 2450 2341 2413 2414 2436 2378 2439 2415 2390 2447 2380 2404 2405 2270 2396 2454 2411 2425 2451 2483 2429 2417 2353 2525 2410 2431 2345 2279 2399 2373 2374 2447 2293 2351 2382 2423 2310 2339 2258 2375 2327 2290 2293 2299 2336 2264 2295 2275 2293 2364 2252 2255 2218 2237 2263 2343 2258 2209 2310 2219 2189 2218 2249 2307 2228 2209 2127 2314 2292 2199 2217 2230 2245 2256 2194 2115 2254 2117 2228 2234 2156 2143 2212 2073 2156 2150 2087 2193 2123 2202 2131 2128 2158 2141 2133 2132 2186 2112 2153 2086 2092 2069 2120 2122 2057 2120 2085 2093 2080 2007 2151 2065 2052 2116 2140 2054 1994 2081 2012 2089 2068 2079 2064 2010 1981 2008 2057 2083 2080 2030 2014 2115 1989 1977 2050 1984 2006 1923 2015 2050 2004 1952 2035 2010 1942 2001 1990 1986 1949 1999 1942 1958 2017 1973 1995 1935 1947 1957 2042 1958 1951 2009 1936 2030 1835 1925 1944 1904 1864 1967 1953 1984 2024 1873 1993 1965 1943 2017 1939 1811 1927 1958 1945 1844 1993 1953 1921 1894 1942 1905 1907 1955 1926 2016 1955 1944 1859 1978 1886 1915 1935 1983 1983 1992 1909 1908 1944 1873 1953 1928 1908 1896 1943 1986 1974 1922 1965 1995 1869 1864 1882 1992 1889 1897 1941 1924 1907 1934 1873 1896 1887 1895 1834 1928 1861 1910 1905 1864 1970 1924 1911 1847 1838 1963 1833 1991 1836 1835 1957 1840 1912 1924 1905 1922 1858 1894 1917 1805 1841 1900 1907 1863 1903 1953 1844 2040 1882 1886 1907 1945 1830 1849 1948 1913 1885 1918 1878 1912 1878 1887 1845 1983 1812 1795 1919 1847 1915 1882 1919 1884 1943 1909 1828 1927 1866 1887 1890 1842 1935 1922 1893 1911 1909 1885 1903 1872 1907 1920 1889 1983 1930 1885 1998 1959 1948 1919 1845 1832 1862 1948 1866 1846 1968 1895 1936 1897 1943 1920 1953 1975 1917 1890 1982 1953 1908 1976 1867 1909 1874 1926 1826 1885 1878 1925 1974 1973 1880 1973 1964 1958 1857 1942 1910 1906 1881 1865 1856 1962 1843 1842 1883 1958 1881 1934 1884 1916 1896 1884 1910 1955 1873 1843 1823 1866 1856 1867 1920 1916 1872 1885 1864 1827 1826 1822 1832 1943 1903 1872 1941 1958 1923 1902 1833 1825 1773 1890 1853 1795 1802 1847 1855 1801 1812 1778 1789 1828 1853 1809 1759 1817 1808 1807 1818 1808 1815 1796 1846 1761 1791 1840 1766 1879 1782 1763 1804 1829 1686 1759 1792 1780 1785 1782 1708 1716 1772 1740 1767 1740 1725 1766 1737 1714 1756 1747 1751 1767 1751 1711 1764 1760 1732 1737 1710 1686 1674 1746 1752 1657 1741 1664 1721 1706 1650 1757 1772 1787 1711 1648 1638 1720 1679 1666 1712 1637 1623 1647 1645 1608 1742 1736 1680 1694 1682 1738 1630 1630 1639 1667 1507 1723 1653 1666 1625 1604 1658 1610 1684 1677 1555 1644 1626 1583 1590 1643 1573 1575 1607 1615 1578 1573 1615 1653 1614 1650 1658 1536 1528 1609 1589 1563 1567 1592 1568 1555 1630 1568 1542 1577 1599 1570 1569 1620 1551 1527 1697 1542 1575 1489 1557 1549 1590 1564 1536 1511 1519 1567 1449 1618 1524 1549 1514 1473 1552 1546 1574 1551 1552 1515 1521 1527 1592 1523 1551 1604 1611 1566 1615 1513 1537 1556 1593 1519 1583 1522 1600 1552 1530 1516 1474 1571 1505 1572 1526 1492 1515 1564 1591 1580 1515 1580 1617 1619 1569 1602 1622 1638 1596 1488 1571 1582 1620 1616 1589 1531 1604 1634 1569 1643 1665 1607 1653 1594 1634 1639 1611 1568 1639 1560 1626 1544 1539 1596 1569 1596 1571 1525 1635 1599 1551 1588 1500 1538 1563 1604 1641 1551 1626 1555 1517 1577 1603 1472 1506 1542 1553 1434 1543 1509 1425 1563 1544 1486 1481 1523 1491 1523 1545 1473 1504 1448 1550 1480 1543 1523 1542 1514 1477 1467 1490 1524 1448 1580 1454 1461 1535 1533 1572 1628 1599 1614 1620 1713 1675 1775 1804 1770 1775 1815 1708 1793 1813 1794 1780 1791 1743 1796 1798 1795 1911 1906 1875 1862 1829 1936 1862 1940 1967 1978 1984 2052 2060 2102 2152 2099 2212 2160 2296 2359 2261 2355 2286 2403 2477 2476 2561 2473 2581 2527 2462 2535 2446 2404 2403 2255 2222 2194 2112 1989 1925 1863 1780 1715 1752 1673 1665 1618 1545 1506 1570 1560 1551 1543 1576 1482 1521 1561 1430 1466 1506 1551 1487 1609 1571 1614 1616 1518 1538 1530 1533 1623 1598 1655 1604 1655 1700 1648 1652 1732 1621 1596 1681 1663 1659 1627 1630 1592 1637 1569 1580 1516 1558 1471 1472 1480 1398 1458 1446 1502 1416 1493 1506 1391 1406 1404 1381 1318 1335 1365 1408 1376 1415 1375 1373 1401 1479 1388 1440 1437 1449 1366 1436 1426 1478 1458 1400 1428 1414 1429 1364 1446 1379 1397 1415 1439 1425 1432 1426 1416 1413 1416 1402 1349 1432 1409 1386 1393 1489 1453 1448 1391 1412 1445 1357 1415 1362 1469 1408 1449 1415 1435 1415 1392 1377 1378 1403 1397 1397 1385 1398 1451 1454 1343 1391 1392 1457 1384 1451 1440 1423 1332 1357 1390 1404 1377 1418 1429 1400 1425 1439 1445 1344 1448 1346 1386 1417 1363 1410 1401 1331 1422 1392 1376 1420 1353 1445 1446 1380 1460 1384 1377 1474 1357 1467 1424 1406 1451 1402 1439 1393 1402 1510 1443 1465 1515 1432 1397 1423 1437 1437 1406 1412 1331 1464 1471 1430 1493 1459 1389 1409 1458 1433 1479 1539 1519 1481 1450 1451 1459 1484 1450 1417 1551 1494 1469 1512 1440 1522 1528 1591 1553 1565 1472 1542 1508 1492 1538 1596 1545 1564 1537 1615 1572 1526 1599 1527 1593 1623 1603 1575 1615 1638 1579 1637 1688 1631 1646 1734 1651 1646 1634 1670 1801 1644 1745 1697 1752 1700 1802 1716 1819 1794 1822 1862 1873 1804 1852 1856 1884 1965 1906 1950 1942 1884 2018 2012 1938 2058 2011 2083 2172 2032 2042 2110 2076 2123 2041 2161 2029 2196 2078 2017 2099 2050 2062 2074 2076 2105 2094 1919 2002 2037 2001 1932 1881 1962 1887 1907 1904 1904 1867 1858 1834 1819 1828 1838 1763 1747 1771 1707 1800 1768 1730 1674 1647 1703 1708 1677 1694 1653 1701 1631 1610 1668 1654 1591 1630 1655 1676 1645 1642 1580 1716 1635 1623 1626 1571 1568 1550 1544 1572 1604 1603 1531 1551 1600 1516 1604 1605 1517 1597 1510 1521 1484 1588 1529 1574 1465 1533 1519 1557 1497 1577 1578 1546 1615 1570 1593 1598 1608 1582 1622 1688 1691 1740 1773 1807 1832 1849 1933 2027 2061 2069 2145 2077 2192 2125 2168 2077 2266 2190 2327 2265 2301 2411 2357 2435 2335 2374 2389 2455 2483 2673 2742 2700 2894 2899 2914 3103 3135 3095 3232 3316 3575 3607 3716 3766 3858 4064 4224 4352 4621 4512 4526 4465 4287 4012 3899 3715 3564 3468 3265 2975 2837 2744 2526 2294 2182 2142 1972 1922 1858 1735 1764 1776 1633 1710 1630 1617 1557 1569 1544 1506 1484 1584 1547 1514 1593 1622 1519 1449 1517 1534 1509 1496 1542 1446 1473 1450 1483 1446 1468 1464 1484 1441 1410 1456 1424 1360 1451 1435 1465 1419 1365 1385 1381 1372 1373 1359 1418 1422 1391 1417 1397 1352 1354 1411 1380 1357 1362 1422 1384 1348 1395 1401 1308 1369 1357 1319 1378 1353 1346 1385 1386 1407 1341 1356 1307 1311 1372 1287 1352 1336 1335 1348 1345 1321 1375 1300 1294 1309 1341 1288 1365 1303 1235 1343 1277 1337 1311 1285 1297 1380 1299 1306 1319 1284 1265 1341 1259 1319 1346 1316 1334 1230 1300 1252 1287 1315 1304 1359 1240 1315 1354 1266 1278 1275 1311 1307 1234 1279 1286 1187 1270 1330 1294 1298 1310 1328 1238 1284 1300 1237 1315 1217 1260 1271 1258 1238 1297 1243 1276 1247 1301 1288 1250 1218 1281 1224 1259 1252 1198 1268 1247 1297 1212 1276 1247 1234 1285 1358 1255 1241 1231 1221 1298 1206 1265 1285 1265 1200 1209 1188 1221 1200 1178 1249 1224 1218 1208 1246 1237 1240 1202 1208 1205 1233 1175 1209 1255 1263 1254 1238 1190 1221 1189 1214 1220 1242 1163 1202 1242 1213 1174 1157 1255 1265 1251 1218 1207 1188 1255 1239 1248 1228 1184 1205 1225 1231 1242 1226 1240 1221 1265 1259 1171 1162 1177 1203 1249 1194 1242 1176 1261 1207 1183 1212 1259 1241 1157 1230 1205 1240 1178 1247 1240 1212 1267 1220 1196 1249 1224 1197 1168 1203 1262 1238 1260 1199 1198 1181 1242 1202 1180 1230 1191 1310 1229 1219 1276 1189 1169 1214 1208 1206 1252 1197 1152 1226 1186 1177 1218 1150 1227 1142 1182 1188 1171 1216 1153 1248 1185 1197 1149 1142 1154 1196 1200 1190 1244 1174 1211 1183 1176 1166 1176 1158 1127 1185 1198 1179 1232 1191 1217 1181 1152 1122 1153 1177 1128 1146 1171 1145 1148 1157 1183 1166 1177 1157 1133 1244 1155 1074 1169 1201 1160 1150 1124 1132 1100 1122 1199 1166 1152 1162 1154 1242 1157 1174 1211 1208 1196 1186 1131 1217 1202 1155 1171 1159 1246 1154 1169 1154 1215 1153 1160 1163 1140 1197 1124 1164 1178 1130 1140 1131 1164 1151 1156 1155 1152 1202 1138 1136 1167 1151 1139 1140 1039 1107 1104 1154 1153 1231 1123 1156 1087 1211 1125 1065 1134 1098 1084 1078 1097 1154 1164 1101 1131 1084 1103 1079 1199 1121 1129 1121 1076 1136 1129 1072 1121 1178 1119 1121 1141 1151 1117 1103 1159 1081 1109 1185 1082 1127 1125 1134 1071 1076 1182 1124 1109 1123 1139 1134 1074 1119 1107 1097 1173 1089 1127 1137 1111 1121 1151 1151 1113 1163 1070 1138 1111 1097 1112 1111 1079 1139 1131 1156 1152 1197 1078 1140 1097 1107 1084 1128 1114 1081 1081 1166 1122 1122 1127 1099 1092 1127 1143 1153 1128 1171 1043 1072 1153 1143 1126 1151 1142 1146 1150 1179 1086 1050 1133 1089 1097 1194 1110 1116 1070 1109 1172 1051 1123 1177 1148 1147 1085 1115 1130 1169 1129 1163 1085 1119 1056 1169 1088 1124 1197 1126 1147 1054 1152 1114 1069 1109 1182 1109 1107 1112 1105 1073 1166 1111 1164 1141 1155 1098 1123 1149 1174 1153 1123 1120 1153 1088 1188 1123 1117 1140 1122 1130 1127 1136 1137 1123 1115 1083 1083 1108 1121 1155 1116 1112 1170 1160 1101 1115 1080 1123 1152 1136 1119 1105 1097 1071 1175 1120 1099 1105 1143 1115 1184 1129 1108 1144 1150 1157 1181 1102 1118 1099 1098 1142 1153 1155 1115 1172 1213 1133 1178 1164 1151 1129 1156 1091 1092 1103 1153 1148 1090 1193 1124 1151 1116 1157 1126 1159 1122 1119 1157 1184 1152 1149 1174 1168 1109 1120 1119 1177 1167 1133 1095 1142 1124 1115 1131 1126 1184 1180 1117 1090 1164 1114 1182 1139 1129 1165 1161 1164 1175 1196 1209 1139 1193 1173 1219 1192 1160 1140 1109 1165 1111 1200 1193 1192 1212 1155 1206 1199 1159 1270 1203 1099 1226 1166 1244 1215 1205 1181 1207 1221 1249 1256 1178 1231 1236 1265 1154 1202 1311 1210 1315 1301 1295 1329 1236 1284 1256 1317 1248 1250 1272 1292 1321 1333 1310 1254 1250 1333 1304 1336 1318 1295 1304 1342 1382 1351 1252 1242 1361 1270 1267 1284 1309 1266 1302 1301 1253 1262 1222 1297 1254 1210 1220 1189 1215 1271 1179 1254 1253 1204 1242 1198 1263 1256 1248 1226 1208 1253 1171 1130 1212 1242 1158 1167 1195 1168 1178 1183 1208 1173 1215 1124 1171 1106 1162 1139 1129 1145 1145 1179 1154 1165 1105 1103 1162 1095 1119 1128 1152 1150 1074 1091 1128 1151 1110 1151 1170 1121 1113 1098 1157 1101 1127 1058 1111 1124 1189 1081 1143 1121 1096 1117 1110 1105 1188 1146 1103 1063 1139 1133 1108 1098 1129 1093 1086 1132 1134 1092 1136 1107 1057 1099 1080 1101 1117 1056 1107 1006 1043 1040 1098 1036 1127 1118 1094 1139 1122 1043 1099 1087 1140 1093 1133 1122 1100 1064 1097 1060 1047 1086 1073 1073 1069 1072 1102 1076 1104 1033 1098 1084 1071 1106 1052 1059 1075 1051 1036 1016 1088 1082 1103 1097 1071 1126 1084 1060 1124 1032 1108 1058 1076 1050 1121 1068 1083 1055 1086 1092 1082 1080 1028 1098 1073 1085 1062 1140 1069 1061 1110 1009 1045 1075 1038 1046 1119 1036 1056 1066 1092 1072 1124 1067 1101 1065 1111 1098 1081 1059 1016 1103 1060 1062 1054 1095 1075 1118 1128 1112 1073 996 1150 1075 1077 1119 1105 1092 1150 1096 1122 1136 1119 1086 1090 1123 1053 1193 1059 1134 1112 1054 1077 1143 1124 1151 1147 1186 1092 1121 1226 1157 1189 1217 1135 1138 1176 1160 1189 1094 1108 1175 1148 1175 1167 1160 1156 1225 1127 1160 1138 1145 1115 1083 1138 1184 1166 1101 1081 1113 1048 1122 1146 1091 1079 1120 1129 1159 1140 1107 1087 1161 1148 1136 1135 1107 1151 1126 1109 1158 1142 1131 1126 1105 1139 1053 1126 1137 1156 1130 1164 1114 1137 1186 1141 1174 1103 1098 1143 1120 1148 1086 1104 1126 1168 1152 1158 1162 989 1109 1092 1089 1085 1111 1123 1174 1101 1107 1090 1009 1066 1071 1150 1118 1056 1111 1120 1112 1130 1073 1034 1061 1105 1112 1082 1130 1095 1045 1045 1093 1102 1076 1081 1004 1095 1107 1101 1082 1082 1055 1104 1071 1025 1112 1057 1042 1119 1090 1078 1106 1101 1080 1025 1027 1055 1014 1099 1078 1095 1072 1084 1016 1045 1080 1049 1017 1054 1053 1038 1099 1078 1067 1085 1097 1024 1074 1085 1065 1136 1096 1066 1029 1064 1087 1033 1059 1088 1099 1059 1086 1105 1089 1040 1033 1085 1068 1093 1070 1061 1056 1000 1028 1079 1069 1022 1053 1069 1053 1061 1089 1100 1086 996 1097 1037 1049 1077 1063 1052 996 1083 1003 1069 1065 1047 1111 1071 1060 1081 1046 1052 1053 1064 1004 1117 1114 1054 1072 1049 1054 1034 1074 1118 1089 994 1083 1063 1061 1043 1063 1129 994 1027 1067 1062 1060 1099 1118 1082 1113 1106 1044 1069 1061 1028 1082 1091 1058 1096 1095 1068 1070 1058 1032 1044 1131 1065 1041 1130 1073 1093 1088 1095 1035 1013 1032 1074 1040 1071 1043 1090 1145 1015 1034 1043 1120 1045 1041 1042 1086 1065 1019 1071 1029 1077 1046 1044 1098 1089 1047 1110 1043 1050 1085 1038 1075 1058 1021 1098 1018 1082 1072 1071 1075 1046 1055 1072 1079 1045 1049 1054 1016 1064 1082 1031 1092 1123 1094 1078 1085 1083 1036 1102 1092 1093 1105 1055 1067 1104 1018 1103 1079 1027 1116 1064 1100 1062 1126 1084 1112 1087 1081 1127 1115 1132 1090 1096 1118 1088 1089 1149 1112 1119 1125 1156 1075 1188 1141 1076 1210 1267 1278 1244 1223 1253 1199 1225 1327 1358 1317 1329 1360 1490 1564 1459 1583 1536 1505 1547 1515 1480 1557 1463 1543 1629 1683 1651 1657 1728 1744 1785 1874 1929 2030 2051 2034 2055 2098 2092 2084 2181 2032 2164 2134 2213 2234 2168 2144 2213 2108 2018 2033 1843 1807 1753 1680 1713 1679 1642 1582 1582 1559 1482 1513 1387 1469 1461 1398 1325 1340 1330 1313 1391 1421 1352 1297 1386 1376 1461 1525 1483 1484 1429 1532 1567 1582 1539 1610 1565 1657 1520 1570 1688 1621 1629 1653 1594 1513 1633 1549 1539 1571 1442 1468 1446 1406 1387 1359 1390 1346 1324 1313 1264 1278 1213 1180 1308 1204 1131 1118 1193 1180 1177 1170 1156 1089 1106 1151 1091 1110 1094 1108 1067 1091 1097 1124 1113 1071 1064 1059 1060 1143 1034 1110 1083 1072 1072 1073 1104 1086 1081 1043 1089 1067 1063 1049 1058 1061 1074 1112 1020 1139 1054 1044 1103 1042 1089 1039 1036 1075 1061 1034 1034 1113 1056 1057 1051 1009 1071 1043 1087 1065 1113 1072 1139 1039 1095 1062 1126 1112 1090 1144 1040 1097 1109 1099 1146 1139 1125 1181 1109 1212 1159 1160 1177 1195 1197 1238 1225 1234 1205 1210 1305 1246 1257 1316 1332 1343 1339 1371 1367 1351 1427 1408 1535 1463 1572 1514 1519 1549 1606 1665 1601 1623 1667 1754 1750 1767 1787 1745 1736 1715 1708 1711 1697 1710 1609 1598 1520 1549 1496 1471 1479 1416 1415 1400 1319 1364 1389 1356 1308 1256 1266 1242 1160 1167 1123 1087 1189 1144 1136 1086 1144 1035 1085 1078 1147 1157 1111 1091 1066 1097 1023 1181 1087 1127 1139 1081 1072 1069 1151 1046 1045 1106 1077 1066 1128 1173 1089 1115 1120 1075 1144 1113 1090 1082 1095 1129 1112 1134 1111 1180 1201 1164 1156 1197 1227 1190 1237 1235 1147 1250 1154 1172 1234 1213 1196 1229 1213 1200 1185 1247 1192 1163 1176 1145 1097 1184 1233 1172 1190 1123 1120 1116 1160 1075 1160 1094 1146 1060 1077 1047 1047 1087 1067 1055 1054 1051 1017 1038 1020 1097 1035 1046 962 994 1081 1022 973 1016 1064 969 1045 1025 1006 1046 1072 1042 1028 1014 1046 1045 1033 991 994 1054 985 1028 1038 1079 1001 991 1045 1029 1041 1002 963 990 1045 998 1037 1034 1026 1009 1033 1002 955 1022 970 1066 1041 1041 1031 975 1037 1068 1026 1005 1008 1033 983 1060 968 1023 1023 1032 1136 1103 1042 994 1070 1043 1026 1072 1016 1063 1130 1072 1109 1081 1033 1008 1099 1157 1113 1059 1047 1066 1060 1204 1088 1127 1098 1069 1063 1126 1130 1140 1157 1090 1173 1159 1167 1164 1189 1222 1204 1199 1170 1141 1191 1161 1201 1196 1207 1190 1189 1122 1134 1119 1127 1141 1066 1113 1048 1120 1076 1097 1050 1091 1086 1031 1050 987 1042 1029 1022 1097 1093 1023 1015 1007 998 1035 1047 1035 1026 970 1050 1012 1014 1028 1000 1027 1014 980 1031 1033 979 1029 1035 1020 957 1077 979 1043 1016 1015 1039 1053 994 1067 1016 1082 1052 1005 1023 1024 1008 1024 1083 1025 1038 987 1078 1016 1055 1028 1020 1007 1053 1058 1067 1044 1081 1057 1034 1096 1010 1028 1049 1045 1047 1060 1043 1019 1036 1058 1033 1095 1104 1028 1089 1013 1064 1080 1072 1094 1070 1082 1055 1060 1024 1080 1062 1055 1076 1071 1113 1009 1053 1089 971 1071 1171 1128 1059 1063 1056 1118 1024 1001 1086 1027 1035 984 1018 1062 1042 1063 1057 1030 1007 1049 1064 1092 1020 1087 1042 995 1004 1023 1047 1077 1053 978 1007 1014 997 965 1030 1006 1009 1023 1000 1082 1057 997 994 1053 981 993 964 1020 1034 967 1022 970 999 992 978 1011 964 992 936 947 962 1027 998 949 948 1031 1015 988 950 939 961 1009 1026 943 1041 991 904 986 1016 1015 993 1008 888 978 950 1004 996 948 970 969 986 953 1001 952 977 939 990 979 992 961 981 982 1006 965 970 994 1002 951 1012 927 1044 1004 966 952 950 932 1009 1015 995 996 984 973 968 998 961 982 932 980 921 977 999 1004 972 994 960 968 978 959 948 956 953 943 996 935 969 956 938 938 959 975 946 996 942 909 960 980 982 994 1072 945 958 960 961 992 922 940 957 975 931 968 1035 995 1010 990 1026 963 951 1010 967 957 912 928 983 916 954 964 970 908 971 943 993 927 999 1018 965 935 1001 928 952 926 995 948 927 938 926 951 988 937 982 890 964 905 948 982 962 933 972 951 992 938 943 967 942 971 961 1008 918 987 1000 927 956 948 965 972 964 935 963 971 982 956 1002 929 936 964 958 969 940 988 1020 941 970 947 943 933 1002 1048 931 928 960 943 984 947 986 892 962 976 984 964 1029 989 912 1014 1033 934 980 1032 953 967 991 1005 1018 1003 1074 1061 1062 1052 1103 1044 1068 1004 1059 1160 1107 1122 1156 1097 1123 1174 1142 1233 1142 1289 1224 1312 1299 1302 1332 1398 1379 1418 1456 1491 1503 1528 1497 1480 1397 1458 1380 1431 1393 1315 1285 1375 1321 1363 1240 1188 1231 1206 1158 1161 1140 1112 1130 1084 1077 1050 1067 1049 1009 971 983 1002 991 995 956 991 897 921 1011 961 964 951 954 937 926 949 986 986 975 954 928 934 964 927 974 956 930 967 975 989 949 1038 972 935 933 954 951 880 932 941 959 963 926 957 976 997 946 892 1001 922 926 978 991 980 926 957 994 954 1032 979 1011 938 1023 950 1040 1006 949 960 951 931 939 995 916 944 885 915 946 983 906 951 966 890 971 982 990 985 997 971 891 979 945 953 973 958 991 989 1018 979 1003 1003 965 961 995 916 949 980 990 939 950 996 993 1025 955 950 982 994 957 946 968 989 1018 949 989 923 917 961 984 964 964 993 946 947 960 949 1004 960 1013 994 988 926 974 905 980 945 937 953 1009 997 972 933 963 1008 990 932 991 939 1061 1022 1045 956 970 991 988 986 1016 1002 1052 987 970 1002 1030 1025 1004 1002 1091 1055 1040 1044 1038 1046 1000 971 1061 1058 1074 1000 1064 1016 1018 1083 1077 1029 1053 989 1023 954 1017 1083 1000 1007 1090 1001 989 1057 1006 1000 1008 969 1007 1070 1024 1078 991 1016 1053 1012 1062 1039 1045 1040 1105 1076 1060 1070 1085 1111 1127 1139 1050 1136 1107 1182 1153 1086 1143 1164 1182 1242 1226 1219 1282 1228 1343 1317 1241 1340 1242 1194 1114 1105 1141 1164 1158 1135 1113 1102 1103 1056 1094 1173 1061 1077 1105 1072 981 1064 1015 1075 1012 971 1018 933 1090 1042 1037 1007 1085 1056 1002 959 1033 1008 1064 1013 996 987 981 1035 1018 1036 1028 996 984 1045 1024 1033 1008 1039 995 1086 1040 1050 1075 1055 1071 1086 1081 1037 1056 1100 1034 1117 1072 1139 1086 1122 1077 1047 1022 1096 1069 1141 1038 1097 1161 1089 1106 1120 1160 1170 1165 1139 1169 1147 1134 1180 1187 1164 1157 1209 1129 1135 1139 1180 1121 1248 1217 1229 1146 1171 1125 1144 1236 1206 1143 1114 1147 1168 1133 1179 1146 1131 1111 1142 1199 1163 1155 1176 1136 1176 1189 1168 1139 1134 1146 1068 1101 1119 1099 1149 1054 1060 1111 1119 1156 1046 975 1032 1103 1087 1065 1003 1022 1057 1047 1062 978 1036 1004 1015 1053 1009 985 1013 1046 1025 1004 1052 998 993 1007 1030 972 1023 954 1021 1060 1018 1086 1068 1052 1014 985 1005 1090 1066 1068 995 1020 1051 1072 1064 980 1014 1006 1000 923 1043 938 946 1002 1012 991 984 1084 1016 970 970 959 1048 1043 1012 1018 992 1040 982 968 1004 972 999 954 989 937 983 954 985 997 881 969 985 988 946 1010 940 1018 1033 924 959 983 971 923 997 997 1026 945 990 920 939 953 976 1000 935 948 936 949 934 975 998 916 949 933 963 972 959 914 935 1012 975 939 952 958 928 946 944 949 1013 984 965 987 915 969 932 949 927 942 909 966 951 975 960 944 889 962 942 928 960 985 889 928 1008 939 947 963 980 954 955 963 937 930 905 955 905 903 943 911 938 865 932 833 911 975 982 941 936 930 916 950 925 890 933 943 914 915 953 929 919 944 937 931 912 904 952 931 885 874 901 931 963 922 963 987 923 873 938 908 870 917 958 848 953 940 878 899 957 934 911 928 880 918 908 870 854 915 893 896 915 900 982 875 917 912 959 917 840 930 942 930 878 926 860 950 894 910 944 974 942 937 949 942 857 922 905 921 920 913 873 924 904 898 913 897 860 911 989 930 913 905 926 916 882 936 931 924 931 929 981 855 935 958 951 977 930 945 946 882 934 901 893 904 894 870 879 893 949 910 924 890 947 894 892 899 928 884 928 953 895 910 924 884 894 893 922 916 893 907 906 955 945 863 944 936 869 919 875 921 930 894 898 893 942 923 897 921 918 914 935 936 913 957 893 931 869 914 945 909 895 911 919 908 905 880 896 862 889 931 939 897 935 889 892 892 885 925 885 907 917 895 901 842 952 985 907 889 931 970 871 934 938 947 951 864 852 914 921 933 940 899 979 887 871 906 919 928 897 911 918 952 941 934 932 946 836 907 910 930 935 899 901 918 917 933 912 900 961 986 875 948 933 918 913 905 940 863 925 940 899 938 914 928 912 893 923 929 897 924 912 911 952 914 891 858 874 953 899 895 882 870 941 927 922 891 960 877 885 870 939 890 883 879 936 938 930 930 896 895 921 914 945 898 868 859 940 942 927 946 905 919 894 960 936 911 932 922 864 912 862 917 921 919 934 939 903 880 884 958 923 959 924 929 948 875 924 914 929 946 944 958 924 923 964 981 963 891 920 934 921 958 909 921 970 927 955 900 919 958 980 930 978 976 917 988 959 931 924 957 946 940 1001 989 930 947 977 923 954 947 928 981 919 987 972 921 1027 909 889 948 906 934 970 976 946 969 927 932 927 965 953 901 899 929 931 926 968 965 973 993 937 909 876 941 955 925 941 969 931 976 880 914 913 903 892 933 959 878 880 905 965 877 877 922 940 923 968 892 942 915 889 893 917 912 939 860 949 916 919 937 958 892 930 921 891 927 911 890 971 869 880 890 940 926 888 866 865 921 913 962 946 899 912 916 916 926 984 958 903 977 890 933 956 937 929 956 913 870 992 883 900 938 980 899 930 934 910 902 902 886 974 937 933 908 867 928 936 906 885 814 896 908 918 929 917 917 924 955 944 928 943 932 890 891 891 859 898 932 898 915 956 891 906 900 923 923 880 917 883 901 898 937 905 960 965 929 874 1017 888 926 907 922 889 928 980 932 926 886 922 907 966 966 933 899 916 908 896 867 937 946 908 918 891 898 915 857 913 960 934 939 934 929 918 903 911 983 930 904 868 907 899 905 935 918 959 945 941 900 891 948 902 925 895 924 919 901 926 967 947 894 925 922 902 895 907 863 956 946 944 949 880 905 948 920 957 928 929 895 888 940 924 935 923 879 910 894 912 903 912 918 874 923 945 879 909 906 882 925 919 952 877 898 920 923 875 903 934 880 896 957 893 916 890 902 879 940 853 975 926 867 983 925 869 949 915 871 995 957 919 914 931 969 992 947 960 926 916 941 991 945 1002 920 901 940 981 997 1064 995 1027 1035 1036 1061 1090 999 1053 1054 1074 1067 1028 992 1115 1094 1055 1091 1012 1031 1094 1044 1098 997 1033 905 995 968 1030 1000 997 929 1004 950 968 1026 937 971 946 937 963 938 908 895 960 898 901 881 877 918 884 961 916 940 927 928 875 931 887 917 937 876 900 907 952 893 947 909 881 882 871 855 889 904 841 904 868 907 963 842 905 868 883 906 885 873 919 913 890 952 896 926 931 917 904 893 871 878 945 905 891 862 898 841 927 927 833 888 930 926 967 946 891 888 935 932 874 895 899 921 873 912 856 883 945 939 923 942 813 882 895 866 887 963 914 898 930 902 913 880 833 931 888 885 920 908 872 955 946 845 843 912 886 890 862 912 909 850 893 918 881 939 907 847 889 869 882 871 926 904 874 859 873 876 907 862 859 863 898 901 883 884 931 904 885 906 856 891 927 845 928 898 886 868 924 885 891 866 894 881 915 891 902 935 907 944 851 858 895 922 860 881 925 901 864 892 889 936 934 930 876 889 816 958 899 906 909 865 908 911 887 901 867 889 893 900 889 903 907 894 960 930 900 922 899 860 901 876 918 942 889 939 907 893 874 946 877 896 903 919 840 864 918 903 857 930 842 884 906 922 898 938 892 886 863 843 905 956 917 872 841 846 901 919 912 868 928 963 900 867 898 874 877 858 917 872 863 874 906 890 896 942 871 938 883 893 913 895 904 890 904 928 902 907 841 901 860 909 891 967 958 880 858 906 910 904 902 893 909 859 877 896 879 845 889 864 871 948 888 930 914 914 893 881 938 932 850 868 858 893 901 881 893 820 916 880 896 843 848 938 905 911 904 891 874 921 867 894 880 861 879 915 876 879 872 888 909 895 876 830 867 905 882 913 891 894 907 899 913 895 928 894 900 943 884 856 913 891 865 860 865 896 931 951 880 885 849 908 896 879 858 953 924 927 886 931 870 920 910 918 909 939 907 923 936 865 848 902 893 880 901 849 907 914 905 889 893 875 880 897 887 918 878 893 862 910 898 897 883 854 880 941 878 874 955 920 880 902 898 917 898 969 872 877 930 885 885 878 945 873 851 946 885 927 893 903 873 853 912 907 917 911 878 915 923 876 859 901 857 954 862 883 844 910 859 851 888 888 931 878 888 948 893 889 877 910 904 867 885 921 891 925 920 908 920 867 909 847 908 852 907 890 891 920 823 896 942 945 890 906 897 935 942 886 940 965 844 941 927 883 923 871 914 939 884 925 890 882 915 882 916 906 903 954 897 890 914 900 885 904 899 891 900 953 877 953 929 907 933 886 926 900 833 873 892 920 905 903 891 874 940 875 943 875 920 913 941 940 934 889 883 912 920 937 931 918 910 915 969 916 890 925 933 904 872 904 905 897 906 947 911 930 922 950 907 900 914 872 977 956 907 883 927 885 965 936 909 934 919 953 854 906 941 914 963 936 865 894 883 921 939 926 961 958 907 904 956 940 865 927 938 901 914 948 962 940 963 900 898 947 909 919 950 943 921 918 962 911 917 913 907 886 942 922 907 899 882 888 937 922 928 953 937 901 925 929 896 946 897 888 939 877 928 902 906 927 899 944 918 924 924 917 955 954 898 900 982 880 891 882 941 945 878 953 925 916 929 934 993 943 902 934 924 958 885 1031 947 1014 1020 967 1004 995 1091 1057 998 1134 1056 1138 1104 1049 1064 1029 1016 1030 1005 941 1021 1023 1007 981 1034 970 934 1012 1019 963 1012 976 989 1022 992 971 956 1015 955 926 990 1000 943 940 991 934 930 941 995 961 956 933 946 929 961 878 885 933 928 887 879 960 958 874 899 955 928 918 935 910 944 911 875 913 909 913 966 948 925 924 873 932 900 895 896 926 913 903 951 945 965 915 941 956 915 890 928 929 938 941 884 952 998 902 912 971 943 922 940 946 884 955 952 933 946 993 936 961 917 916 941 942 959 971 900 910 925 951 922 953 924 887 929 950 941 958 914 956 899 921 913 963 971 1002 857 942 887 929 929 954 881 923 940 926 913 923 914 922 976 893 930 911 962 972 951 963 910 876 931 986 945 959 912 882 935 917 890 943 947 905 945 946 1000 933 963 971 908 951 965 964 937 939 935 937 964 935 895 901 955 920 961 950 940 996 977 883 925 915 946 951 947 914 936 928 972 954 977 923 999 934 935 972 980 1021 992 1034 1037 987 1054 947 1024 1005 1073 1072 1043 1112 1079 1090 1132 1134 1070 1129 1166 1224 1228 1186 1196 1263 1215 1261 1217 1186 1286 1281 1150 1152 1191 1101 1117 1077 1167 1108 1029 1060 1093 1174 1114 1062 1109 1126 1108 1086 1093 1098 1148 1059 1096 1038 1046 1017 1067 967 965 1051 990 969 961 931 1003 987 927 957 971 912 954 923 944 948 923 943 955 957 962 942 957 1003 947 977 908 929 952 975 938 969 926 972 918 941 934 949 950 956 996 930 998 942 904 965 949 945 973 955 954 946 913 965 908 928 980 925 998 1002 897 967 966 1003 981 983 954 976 964 988 972 940 1000 966 920 982 1013 968 1002 1012 965 1032 994 1011 1057 1008 957 1016 1031 1021 1076 1055 1027 1018 1005 957 1051 998 1065 1005 1005 1046 1033 994 1070 992 1007 1053 990 1054 1054 914 1009 1051 1030 972 963 991 1023 1035 953 1011 967 989 989 909 989 990 988 972 949 973 1029 980 923 999 990 937 1011 966 975 907 913 940 956 978 908 988 967 977 966 948 961 930 973 1010 1013 982 931 968 973 999 956 970 1041 1016 988 969 972 964 970 953 992 1022 1022 918 991 953 972 970 932 1052 990 1012 1023 1018 953 1050 1016 1113 1055 1048 1027 1010 1067 996 1002 1032 998 1021 1061 1032 1032 1099 1094 1090 1039 1113 1134 1119 1070 1046 1054 1080 1053 1067 1119 1077 1143 1089 1098 1086 1086 1040 1012 1011 1080 1133 1116 1009 1047 1043 1034 1132 1057 1035 993 1010 1034 1034 1047 1028 1086 1033 1036 1068 975 1054 1065 1026 1011 1015 1049 1014 921 1026 1035 977 1042 971 1017 972 978 1005 981 978 1020 976 1008 1016 1021 1013 955 963 1000 953 1004 978 970 972 961 945 930 952 960 933 906 973 990 985 939 952 979 971 923 905 920 913 915 922 987 959 974 917 972 1002 936 888 954 974 896 939 938 926 897 927 903 916 949 952 1005 953 928 921 942 925 972 890 888 933 958 893 911 976 901 958 923 945 929 919 917 948 885 880 943 972 922 959 901 930 958 970 951 894 954 906 927 939 949 870 925 900 902 919 937 898 804 968 924 935 902 938 954 865 881 884 943 935 944 910 875 919 871 876 864 916 888 889 889 936 898 940 898 912 893 919 883 922 877 852 929 888 914 946 929 862 941 878 945 946 943 964 926 937 866 917 909 901 965 930 944 874 892 885 947 883 922 999 906 923 863 930 875 992 907 940 856 878 905 914 893 896 942 929 924 953 901 872 878 932 899 923 867 970 897 885 931 906 914 906 894 893 912 921 940 890 890 942 942 984 929 925 925 876 980 896 964 930 855 903 856 914 865 927 937 909 973 952 929 929 892 893 934 914 978 961 875 916 918 935 907 926 947 901 964 897 898 915 901 947 885 892 830 936 919 903 945 874 903 876 954 884 904 859 866 929 913 898 853 890 871 974 898 902 962 945 909 916 913 954 928 966 946 913 949 923 909 957 870 908 924 914 872 939 898 930 863 864 901 886 903 880 967 955 894 942 865 880 933 943 884 932 882 883 884 909 916 925 922 901 881 959 835 908 890 883 913 909 911 929 910 883 942 957 935 945 923 948 894 977 947 927 895 901 878 922 929 886 913 911 923 907 962 933 969 955 909 985 947 899 954 925 917 911 974 930 926 916 942 865 957 926 935 886 952 989 952 937 893 955 931 931 980 920 900 965 885 895 946 911 942 949 916 927 912 855 886 911 873 943 912 914 1001 869 884 989 920 949 918 939 938 939 897 957 925 935 915 891 916 924 869 985 936 1007 930 914 907 908 911 995 899 936 935 951 971 904 930 917 938 973 917 927 947 947 939 941 895 916 925 941 956 975 1007 856 932 945 916 854 924 914 990 965 900 929 932 904 965 951 948 924 917 968 951 987 883 916 901 941 950 953 936 953 863 930 950 945 946 967 1025 968 940 961 949 947 1021 935 923 900 927 883 948 942 965 953 964 940 867 918 995 995 951 960 923 990 920 954 939 938 925 938 942 939 908 945 949 934 939 911 953 981 967 974 952 975 921 913 948 944 951 921 914 911 917 890 888 893 997 922 910 979 947 928 932 964 938 962 923 953 972 869 948 940 939 927 934 962 959 899 959 919 957 957 946 929 896 975 905 898 883 983 934 918 910 926 953 923 934 974 965 936 913 922 883 898 861 959 955 932 920 931 924 957 893 939 915 936 973 959 967 910 1006 928 874 973 1003 928 966 912 923 934 933 994 926 947 963 928 944 904 909 991 1009 990 982 986 976 1001 1008 966 979 1018 990 1001 1107 1025 1099 1146 1099 1068 1140 1171 1075 1150 1174 1161 1122 1114 1128 1115 1139 1071 1145 1077 1045 1032 1020 1048 1018 990 1049 1054 1056 1011 981 1079 1005 975 1098 1023 1026 1035 962 1041 1072 1026 1015 1000 1013 1090 966 1010 944 987 1001 984 977 1004 934 917 970 980 940 971 940 920 904 962 932 960 962 925 893 927 955 892 924 906 900 865 969 934 880 973 905 988 927 879 965 928 930 942 934 903 905 926 931 895 917 934 961 963 954 914 977 944 924 928 917 956 918 921 897 985 986 938 942 990 960 973 954 913 994 925 1012 1029 944 936 976 926 991 955 1004 985 993 983 928 956 866 950 937 985 927 952 936 979 914 915 901 917 921 883 880 927 908 1006 978 973 959 948 884 955 978 953 886 960 928 944 954 959 932 943 944 865 901 928 902 890 923 898 898 907 882 929 901 875 942 892 881 957 933 901 900 923 895 885 931 890 909 923 959 923 867 919 928 907 918 936 899 920 929 944 940 939 935 900 867 901 909 843 898 940 968 877 899 919 875 929 870 910 885 963 994 922 903 916 858 924 892 880 906 907 886 915 908 906 914 919 924 978 939 881 923 953 926 914 901 901 963 869 987 878 933 910 877 879 868 884 930 900 916 899 907 921 902 914 925 865 926 919 956 911 866 903 964 934 916 911 884 904 865 894 904 895 939 927 867 930 907 959 957 937 875 928 941 923 905 932 911 957 947 873 907 952 914 953 998 956 922 956 948 924 908 930 908 940 927 863 921 891 933 940 970 958 983 943 934 925 962 907 972 878 906 899 935 910 937 903 923 892 879 911 884 916 886 890 889 918 954 910 867 914 935 881 901 861 868 842 856 908 936 844 871 909 960 895 869 913 885 910 938 945 895 893 935 878 917 911 917 977 967 960 853 887 961 903 895 885 925 873 973 896 935 939 871 953 925 906 904 895 892 922 957 949 913 869 918 893 908 890 899 904 882 907 979 935 917 918 893 948 953 948 873 912 952 929 896 893 928 939 899 912 905 935 960 877 981 957 928 974 848 938 935 899 917 950 966 928 886 909 1003 935 937 946 992 961 941 925 1009 917 944 999 939 971 959 940 953 917 1008 887 941 961 912 935 932 934 940 963 885 948 902 947 947 943 955 910 921 952 942 946 953 912 934 964 928 956 915 952 913 923 916 895 953 933 958 887</counts>
			</dataPoints>
		</scan>
	</xrdMeasurement>
</xrdMeasurements>
