<?xml version="1.0"?>
<xrdMeasurements xmlns="http://www.xrdml.com/XRDMeasurement/2.3" xmlns:xsi="http://www.w3.org/2001/XMLSchema-instance" xsi:schemaLocation="http://www.xrdml.com/XRDMeasurement/2.3 http://www.xrdml.com/XRDMeasurement/2.3/XRDMeasurement.xsd" status="Completed" recordIdentifier="{71ED997F-4D1E-40CE-BD95-4958201AF20F}">
	<comment>
		<entry/>
	</comment>
	<sample type="To be analyzed">
		<id>GPSS_Li1p6Mn0p4Mg0p2Y0p4Cl4_111725_691b7e20f3837ac4a0a99372</id>
		<name></name>
		<preparedBy></preparedBy>
	</sample>
	<xrdMeasurement measurementType="Scan" status="Completed" sampleMode="Reflection">
		<usedWavelength intended="K-Alpha 1">
			<kAlpha1 unit="Angstrom">1.5405980</kAlpha1>
			<kAlpha2 unit="Angstrom">1.5444260</kAlpha2>
			<kBeta unit="Angstrom">1.3922500</kBeta>
			<ratioKAlpha2KAlpha1>0.5000</ratioKAlpha2KAlpha1>
		</usedWavelength>
		<incidentBeamPath>
			<radius unit="mm">145.00</radius>
			<xRayTube id="1010048" name="Empyrean Cu LFF HR (9430 033 7310x)">
				<tension unit="kV">40.0</tension>
				<current unit="mA">15.0</current>
				<anodeMaterial>Cu</anodeMaterial>
				<focus type="Line">
					<length unit="mm">12.0</length>
					<width unit="mm">0.4</width>
					<takeOffAngle unit="deg">6.0</takeOffAngle>
				</focus>
			</xRayTube>
			<sollerSlit id="21010002" name="Soller slits 0.04 rad.">
				<opening unit="rad">0.0400</opening>
			</sollerSlit>
			<mask id="22031000" name="Fixed mask 13 mm">
				<width unit="mm">9.00</width>
			</mask>
			<divergenceSlit id="22120001" name="Divergence slit 1°" xsi:type="fixedDivergenceSlitType">
				<distanceToSample unit="mm">50.00</distanceToSample>
				<height unit="mm">1.52</height>
			</divergenceSlit>
		</incidentBeamPath>
		<sampleMovement xsi:type="spinningSampleMovementType">
			<spinnerRevolutionTime unit="seconds">1.0</spinnerRevolutionTime>
		</sampleMovement>
		<diffractedBeamPath>
			<radius unit="mm">145.00</radius>
			<antiScatterSlit id="22090040" name="AS slit 9 mm (PIXcel)" xsi:type="fixedAntiScatterSlitType">
				<height unit="mm">9.00</height>
			</antiScatterSlit>
			<sollerSlit id="21020003" name="Large Soller slits 0.04 rad.">
				<opening unit="rad">0.0400</opening>
			</sollerSlit>
			<filter id="20030001" name="Large beta-filter Nickel">
				<material>Ni</material>
				<thickness unit="mm">0.020</thickness>
			</filter>
			<detector id="7010019" name="PIXcel1D-Medipix3 detector" xsi:type="rtmsDetectorType">
				<phd unit="keV">
					<lowerLevel>4.02</lowerLevel>
					<upperLevel>11.27</upperLevel>
				</phd>
				<mode>Scanning</mode>
				<activeLength unit="deg">5.542</activeLength>
			</detector>
		</diffractedBeamPath>
		<scan appendNumber="0" mode="Continuous" scanAxis="Gonio" status="Completed">
			<header>
				<startTimeStamp>2025-11-20T19:04:06-08:00</startTimeStamp>
				<endTimeStamp>2025-11-20T19:12:13-08:00</endTimeStamp>
				<author>
					<name>AutomatedUser</name>
				</author>
				<source>
					<applicationSoftware version="1.7b (136)">PANalytical Aeris Instrument Suite</applicationSoftware>
					<instrumentControlSoftware version="3.2.00000000 20240306">AERIS</instrumentControlSoftware>
					<instrumentID>950485</instrumentID>
				</source>
			</header>
			<dataPoints>
				<positions axis="2Theta" unit="deg">
					<startPosition>10.00943322</startPosition>
					<endPosition>99.99442286</endPosition>
				</positions>
				<positions axis="Omega" unit="deg">
					<startPosition>5.00471661</startPosition>
					<endPosition>49.99721143</endPosition>
				</positions>
				<commonCountingTime unit="seconds">12.495</commonCountingTime>
				<counts unit="counts">2667 2741 2644 2733 2731 2787 2686 2797 2624 2667 2647 2685 2657 2687 2574 2561 2601 2624 2738 2742 2671 2673 2662 2631 2693 2668 2583 2642 2652 2755 2744 2562 2614 2684 2666 2669 2629 2740 2602 2650 2587 2706 2576 2634 2647 2581 2601 2573 2584 2638 2642 2714 2589 2657 2530 2660 2692 2628 2579 2676 2643 2709 2566 2666 2622 2635 2737 2636 2651 2662 2682 2649 2562 2612 2662 2610 2681 2721 2673 2690 2603 2683 2704 2674 2579 2598 2589 2654 2585 2706 2690 2582 2609 2700 2623 2591 2629 2586 2664 2574 2675 2618 2629 2566 2606 2596 2631 2643 2665 2651 2709 2617 2656 2565 2621 2628 2580 2614 2620 2623 2615 2649 2644 2589 2629 2653 2540 2551 2586 2709 2582 2659 2677 2691 2774 2621 2699 2687 2651 2736 2647 2657 2643 2742 2637 2630 2669 2535 2608 2585 2624 2613 2620 2652 2657 2591 2688 2592 2645 2583 2626 2702 2598 2719 2678 2608 2569 2660 2582 2622 2673 2672 2721 2601 2684 2570 2667 2662 2641 2663 2725 2655 2626 2732 2526 2672 2660 2689 2607 2611 2615 2699 2692 2617 2560 2631 2583 2630 2536 2700 2633 2647 2646 2643 2632 2626 2616 2692 2616 2731 2626 2627 2619 2545 2615 2595 2578 2613 2559 2687 2677 2669 2580 2574 2674 2712 2629 2696 2579 2638 2594 2736 2579 2676 2695 2696 2549 2709 2560 2597 2722 2668 2640 2605 2661 2600 2667 2678 2681 2609 2744 2654 2653 2551 2589 2694 2662 2604 2720 2577 2708 2640 2687 2638 2526 2735 2602 2525 2710 2581 2628 2683 2614 2623 2641 2680 2622 2636 2662 2623 2610 2628 2663 2692 2659 2685 2655 2706 2674 2632 2681 2659 2702 2637 2665 2692 2712 2664 2649 2636 2653 2678 2636 2703 2674 2761 2716 2706 2731 2724 2759 2667 2740 2798 2677 2698 2724 2810 2764 2798 2772 2756 2754 2739 2798 2713 2802 2711 2794 2728 2811 2849 2851 2749 2770 2861 2829 2842 2793 2802 2815 2805 2695 2827 2779 2803 2906 2966 2912 2829 2967 2885 2771 2807 2868 2957 2880 2944 2987 2926 2928 3005 2996 2877 3034 3078 2983 2875 2970 3096 3080 3032 3038 3038 2981 2968 3098 3003 3136 2987 3026 3012 3024 3033 3150 3055 3071 3143 3099 3202 3180 3087 3135 3101 3223 3161 3093 3136 3143 3223 3222 3259 3279 3210 3190 3139 3172 3345 3329 3216 3205 3303 3316 3272 3207 3379 3226 3394 3363 3244 3325 3387 3322 3439 3406 3324 3413 3476 3493 3442 3533 3569 3635 3623 3599 3666 3645 3716 3597 3571 3676 3671 3754 3710 3775 3801 3698 3852 3791 3799 3865 3783 3831 3857 3999 3831 3780 3804 3884 3844 3795 3833 3802 3845 3858 3862 3913 4025 3892 3961 3867 3858 3924 3961 3850 3883 3853 3891 3666 3607 3642 3513 3496 3365 3320 3348 3398 3340 3336 3286 3316 3359 3306 3284 3273 3183 3210 3350 3313 3307 3244 3345 3302 3280 3208 3356 3348 3258 3313 3244 3223 3312 3276 3320 3241 3271 3199 3333 3158 3141 3340 3287 3275 3274 3279 3195 3202 3225 3229 3175 3267 3255 3360 3308 3323 3232 3293 3451 3484 3516 3512 3539 3485 3541 3644 3657 3612 3724 3668 3776 3766 3738 3755 3669 3825 3776 3775 3833 3710 3599 3764 3786 3802 3922 3727 3642 3705 3676 3807 3764 3770 3875 3728 3808 3825 3899 3962 3907 3895 3750 3895 3852 3830 3853 3625 3663 3621 3573 3411 3421 3244 3234 3145 3169 3113 3121 3118 3067 3146 3086 2984 2947 3040 3011 3031 2960 3005 3054 3053 3006 3033 2944 3015 2967 2919 2891 3087 2966 3156 2970 3042 3071 2981 2999 2971 2936 3075 2968 3017 2953 2920 2946 2902 2955 3019 2907 2980 3007 2935 3011 2996 2970 3001 2827 2948 2968 3041 2961 2957 2964 3068 2974 2945 2920 2922 3014 2939 2897 2997 2922 3006 2975 3031 2995 2970 2992 3061 3005 2995 3010 3002 2989 3001 3070 3066 3003 3228 3032 3058 3185 3199 3117 3268 3146 3170 3101 3271 3228 3213 3234 3277 3310 3308 3390 3289 3373 3363 3333 3320 3334 3372 3337 3451 3375 3312 3340 3337 3365 3365 3466 3396 3470 3353 3414 3458 3401 3462 3444 3553 3373 3351 3357 3333 3180 3278 3347 3077 3152 3090 3080 2992 3051 3051 2937 3076 2943 2902 2954 2953 2945 2992 3061 2940 3012 2975 2889 2981 2930 2997 3031 3011 3074 3116 2943 3089 3107 3090 3007 2943 2998 3029 3066 3021 3037 2902 2949 3053 2895 3079 3063 2977 3082 2955 2969 2984 2956 3069 2964 2984 2922 2992 2917 2894 2861 2928 2878 2876 2798 2921 2939 2995 2914 2961 2873 2907 2919 2878 2936 2873 2791 2866 2863 2843 2817 2836 2856 2858 2858 2740 2849 2692 2741 2812 2807 2828 2750 2785 2854 2974 2713 2713 2827 2742 2816 2737 2832 2722 2738 2755 2789 2743 2835 2719 2739 2725 2714 2706 2764 2688 2659 2733 2677 2810 2722 2682 2584 2626 2720 2673 2648 2695 2712 2652 2675 2533 2634 2601 2610 2721 2687 2640 2704 2739 2524 2751 2580 2590 2716 2605 2564 2679 2660 2645 2502 2598 2650 2566 2567 2647 2605 2639 2557 2676 2625 2620 2661 2460 2629 2553 2538 2551 2536 2586 2636 2561 2664 2546 2670 2656 2500 2566 2550 2602 2464 2559 2469 2544 2609 2658 2536 2573 2540 2446 2495 2477 2521 2549 2584 2535 2536 2549 2546 2581 2507 2531 2500 2538 2373 2548 2449 2456 2542 2455 2537 2550 2483 2528 2449 2467 2454 2502 2535 2526 2562 2470 2519 2494 2434 2443 2447 2452 2607 2443 2472 2409 2542 2356 2515 2508 2350 2575 2561 2513 2502 2459 2399 2548 2457 2552 2426 2466 2458 2450 2485 2560 2592 2514 2378 2402 2345 2423 2538 2410 2406 2355 2515 2412 2401 2443 2406 2500 2461 2503 2468 2448 2474 2475 2484 2487 2387 2373 2416 2440 2496 2488 2452 2489 2441 2493 2383 2442 2540 2449 2459 2447 2463 2453 2491 2456 2431 2391 2471 2397 2450 2509 2428 2566 2465 2473 2409 2444 2518 2434 2395 2501 2419 2494 2455 2501 2557 2407 2431 2453 2372 2389 2539 2424 2452 2415 2469 2455 2451 2443 2330 2464 2488 2531 2421 2378 2503 2414 2446 2467 2557 2531 2418 2478 2418 2597 2487 2603 2446 2459 2554 2411 2482 2549 2437 2487 2425 2497 2452 2501 2474 2470 2491 2426 2540 2493 2543 2430 2501 2389 2445 2451 2544 2516 2536 2471 2553 2492 2479 2458 2556 2408 2443 2445 2484 2551 2541 2432 2505 2436 2531 2527 2535 2580 2536 2538 2495 2543 2505 2516 2474 2478 2469 2505 2523 2517 2475 2533 2503 2481 2452 2383 2391 2398 2468 2422 2433 2476 2448 2361 2430 2424 2502 2404 2405 2409 2515 2448 2461 2449 2435 2439 2469 2453 2474 2411 2461 2404 2265 2420 2426 2454 2466 2439 2435 2408 2447 2409 2427 2347 2427 2359 2436 2321 2413 2539 2473 2442 2505 2464 2424 2537 2345 2526 2505 2428 2448 2361 2325 2446 2449 2361 2432 2529 2501 2479 2549 2346 2450 2472 2491 2462 2333 2418 2479 2486 2431 2453 2369 2384 2366 2437 2362 2386 2427 2382 2376 2355 2419 2348 2317 2371 2392 2357 2311 2386 2340 2396 2216 2391 2292 2370 2297 2462 2263 2264 2249 2291 2208 2346 2287 2358 2284 2260 2352 2336 2316 2332 2285 2321 2359 2342 2345 2323 2345 2352 2302 2455 2327 2347 2333 2387 2332 2367 2414 2369 2397 2338 2314 2374 2403 2387 2391 2417 2327 2443 2364 2260 2312 2353 2323 2395 2398 2323 2360 2461 2451 2427 2383 2371 2357 2322 2299 2225 2295 2132 2184 2084 2124 2089 2165 2005 1995 2067 2057 1951 1982 1971 1878 1997 1938 1973 1976 2018 1958 1994 1981 1997 1974 1968 1977 2036 2015 1950 1951 1936 1909 1927 1996 2012 1980 1992 1954 1937 2007 1947 2012 1989 2042 1914 1963 1973 1924 1897 1995 1969 1872 2024 1891 1935 1915 1990 2008 1957 2023 1842 1832 1967 1918 1967 1942 1883 1940 1940 1893 1906 1895 1869 1963 1903 1871 1898 1970 1920 1945 1915 1963 1870 1844 1865 1929 1891 1911 1816 1853 1836 1924 1934 1911 1864 1831 1900 1835 1884 1963 2012 1923 1938 1847 1946 1839 1788 1866 1843 1838 1848 1910 1919 1927 1913 1872 1906 1845 1890 1914 1888 1883 1950 1948 1929 1883 1847 1918 1922 1881 1868 1884 1968 1947 1879 1880 1958 1851 1834 1921 1981 2024 1845 1915 2032 1838 1977 1903 2008 1898 1874 1985 1836 1956 1847 1922 1873 1923 1938 1903 1923 1936 1884 1914 1852 1911 1894 1957 2002 1950 1919 1899 1971 1995 1972 1888 1937 2026 1878 1976 1915 1915 1900 1937 1905 1918 1976 1828 1894 1833 1979 1844 1932 1877 1917 1925 1916 1927 1952 1922 1947 1853 1998 1903 1864 1981 1876 1902 1979 1982 1904 1923 2030 1896 1926 1872 1841 1835 1964 1871 1849 1850 1879 1853 1925 1994 1962 1972 1921 1914 1961 1910 2052 1950 1980 1894 1935 1945 1931 1967 1912 1995 1967 1859 1913 1855 1908 1947 1837 1998 1853 1948 2001 1898 1870 1867 1891 1902 1944 1865 1922 1823 1886 1912 1881 1893 1862 1886 1929 1960 1886 1905 1834 1973 1868 1883 1825 1905 1757 1831 1870 1850 1877 1837 1845 1923 1890 1826 1848 1872 1750 1804 1713 1793 1753 1776 1783 1766 1870 1861 1797 1810 1867 1733 1826 1833 1819 1787 1810 1876 1759 1752 1689 1839 1710 1673 1734 1736 1715 1753 1755 1726 1804 1744 1782 1704 1749 1697 1741 1763 1832 1783 1722 1785 1744 1775 1791 1814 1731 1668 1728 1700 1646 1676 1709 1731 1767 1708 1697 1734 1755 1613 1788 1754 1797 1677 1693 1756 1795 1709 1712 1700 1675 1788 1736 1693 1693 1693 1808 1653 1712 1711 1757 1688 1740 1782 1739 1777 1835 1791 1778 1764 1774 1803 1837 1886 1920 1850 1864 1807 1866 2030 1989 1875 1987 1937 1921 1954 1962 1858 1932 2024 1955 1979 1985 2010 2008 2008 2068 2038 2017 2045 2135 2146 2114 2068 2111 2069 2214 2169 2124 2147 2124 2141 2159 2169 2049 2038 2035 2101 2098 1934 2015 1968 1971 2052 1946 1945 1943 2086 1883 1871 1941 1930 1782 1905 1854 1844 1828 1863 1770 1805 1771 1746 1767 1669 1639 1704 1639 1612 1698 1606 1672 1626 1609 1616 1593 1635 1638 1586 1610 1571 1549 1597 1647 1599 1596 1599 1558 1619 1549 1619 1598 1604 1607 1569 1641 1693 1612 1656 1644 1663 1659 1700 1747 1710 1797 1711 1841 1888 1939 1988 2075 2043 2117 2109 2223 2318 2281 2318 2327 2333 2438 2515 2574 2589 2484 2615 2667 2510 2677 2683 2718 2723 2638 2799 2752 2835 2772 2877 2913 2892 2944 2963 3014 3119 2971 3106 3037 3116 3017 3131 3133 3076 3077 2917 2634 2681 2517 2523 2413 2219 2196 2126 2128 1916 1896 1840 1841 1752 1685 1694 1820 1687 1740 1671 1593 1648 1568 1558 1551 1548 1563 1486 1499 1530 1415 1507 1425 1478 1424 1497 1458 1426 1440 1412 1464 1437 1415 1412 1423 1455 1465 1424 1455 1488 1404 1514 1462 1467 1452 1378 1498 1431 1545 1452 1405 1462 1352 1426 1375 1451 1448 1436 1431 1488 1506 1442 1520 1432 1363 1460 1410 1428 1452 1419 1447 1386 1417 1445 1424 1467 1502 1434 1505 1459 1440 1484 1506 1468 1454 1445 1415 1540 1410 1492 1390 1482 1461 1476 1453 1534 1498 1498 1432 1517 1585 1542 1502 1554 1632 1555 1633 1637 1723 1729 1796 1782 1930 1900 1980 2092 2286 2216 2387 2551 2613 2761 2892 2918 2956 3248 3347 3409 3493 3720 3778 3806 3858 4011 4116 4034 4105 4263 4433 4369 4454 4374 4468 4418 4561 4572 4670 4631 4706 4726 4695 4854 4902 5012 5059 5164 5233 5133 5131 4979 4887 4861 4666 4554 4357 4108 3958 3735 3362 3174 2938 2751 2487 2380 2180 2103 2025 1973 1921 1742 1745 1763 1761 1724 1694 1761 1758 1705 1656 1718 1701 1706 1703 1678 1691 1737 1705 1690 1674 1755 1736 1744 1613 1668 1710 1662 1660 1668 1703 1680 1607 1704 1583 1660 1623 1617 1563 1522 1501 1448 1515 1487 1459 1440 1410 1372 1375 1368 1319 1373 1370 1340 1336 1302 1286 1277 1309 1329 1265 1334 1343 1282 1396 1282 1353 1257 1301 1313 1368 1376 1280 1311 1241 1317 1315 1263 1310 1323 1218 1245 1279 1326 1230 1266 1273 1304 1320 1277 1283 1267 1259 1295 1250 1273 1188 1327 1248 1238 1255 1287 1332 1236 1209 1293 1227 1267 1208 1233 1207 1323 1243 1288 1185 1296 1271 1318 1316 1293 1276 1277 1260 1303 1294 1295 1338 1244 1357 1258 1249 1362 1243 1391 1179 1264 1265 1275 1316 1326 1281 1340 1365 1293 1298 1300 1367 1354 1318 1405 1332 1396 1353 1349 1411 1296 1387 1388 1420 1456 1493 1511 1514 1537 1573 1565 1592 1451 1598 1656 1639 1635 1727 1626 1738 1695 1685 1737 1741 1868 1801 1916 1816 1855 1989 1880 2022 1971 2002 2130 2120 2247 2266 2313 2480 2512 2635 2748 2830 2940 3015 2996 3266 3207 3268 3320 3390 3468 3527 3528 3623 3599 3679 3576 3712 3654 3686 3828 3772 3885 3744 3605 3758 3784 3934 4034 4139 4133 4284 4228 4268 4314 4335 4451 4307 4437 4369 4312 4438 4134 4125 4045 3894 3505 3411 3228 3078 2944 2722 2642 2354 2244 2194 2043 1852 1827 1819 1695 1605 1579 1486 1453 1484 1456 1438 1442 1431 1429 1389 1383 1227 1359 1336 1327 1398 1381 1267 1330 1277 1289 1290 1260 1270 1340 1280 1296 1241 1274 1260 1304 1274 1237 1319 1344 1307 1239 1237 1244 1316 1366 1264 1259 1291 1255 1332 1281 1321 1275 1297 1286 1290 1351 1326 1287 1296 1304 1302 1287 1367 1312 1239 1319 1302 1314 1274 1193 1303 1363 1352 1297 1265 1390 1362 1314 1276 1306 1291 1315 1332 1326 1323 1271 1348 1357 1246 1327 1379 1311 1310 1268 1325 1250 1327 1340 1341 1239 1238 1310 1298 1316 1259 1314 1291 1306 1301 1275 1287 1299 1260 1294 1180 1217 1335 1287 1259 1339 1286 1308 1321 1286 1327 1262 1264 1270 1280 1287 1250 1282 1195 1249 1277 1216 1198 1282 1208 1238 1264 1275 1287 1227 1256 1262 1297 1281 1277 1240 1327 1348 1377 1235 1297 1337 1358 1343 1323 1351 1284 1303 1316 1408 1375 1313 1277 1271 1349 1305 1429 1267 1427 1341 1422 1408 1369 1377 1353 1406 1379 1383 1386 1377 1373 1355 1392 1447 1444 1389 1443 1329 1400 1441 1421 1464 1429 1443 1478 1550 1470 1436 1355 1417 1380 1363 1346 1380 1204 1333 1203 1352 1220 1312 1319 1340 1230 1184 1214 1226 1223 1218 1263 1175 1203 1216 1188 1208 1244 1227 1248 1214 1209 1167 1235 1194 1232 1174 1190 1213 1240 1225 1195 1210 1185 1182 1268 1149 1218 1237 1242 1169 1148 1142 1225 1251 1109 1196 1180 1213 1151 1232 1244 1221 1188 1182 1260 1141 1188 1203 1236 1210 1212 1206 1137 1232 1305 1133 1259 1155 1243 1159 1135 1151 1219 1233 1196 1134 1140 1212 1203 1170 1182 1165 1176 1177 1099 1147 1095 1159 1161 1156 1134 1164 1168 1174 1141 1200 1167 1157 1173 1134 1185 1141 1150 1171 1131 1171 1196 1106 1150 1107 1106 1111 1085 1177 1152 1182 1213 1161 1203 1180 1130 1152 1152 1121 1173 1216 1147 1213 1118 1188 1173 1206 1173 1160 1191 1137 1229 1171 1157 1120 1129 1177 1135 1156 1086 1166 1174 1177 1182 1153 1130 1242 1190 1127 1158 1129 1182 1139 1100 1141 1108 1160 1211 1132 1117 1150 1204 1192 1198 1133 1184 1172 1148 1176 1201 1151 1130 1147 1123 1143 1146 1141 1132 1173 1201 1152 1122 1087 1033 1156 1097 1198 1113 1194 1164 1149 1132 1096 1137 1150 1188 1162 1129 1148 1110 1182 1095 1130 1184 1163 1111 1131 1085 1117 1199 1094 1156 1104 1114 1086 1176 1193 1111 1118 1126 1086 1165 1153 1093 1110 1138 1116 1111 1125 1190 1090 1121 1069 1124 1124 1120 1087 1100 1129 1143 1183 1036 1134 1112 1064 1122 1130 1094 1091 1121 1162 1123 1111 1139 1133 1119 1158 1072 1145 1174 1184 1147 1126 1084 1157 1118 1182 1109 1214 1129 1121 1219 1129 1179 1125 1124 1128 1152 1135 1152 1151 1197 1258 1139 1118 1147 1140 1201 1146 1210 1163 1186 1225 1160 1266 1166 1184 1235 1128 1191 1198 1163 1290 1212 1292 1229 1200 1239 1229 1223 1220 1321 1168 1198 1141 1136 1199 1245 1220 1237 1206 1143 1264 1199 1219 1186 1245 1211 1205 1245 1238 1205 1230 1268 1273 1311 1409 1372 1363 1515 1465 1549 1560 1643 1665 1817 1811 1878 1941 1915 2009 2146 2168 2161 2327 2342 2447 2425 2606 2638 2733 2721 2850 2745 2944 2885 2881 2977 3097 3081 3130 3192 3247 3242 3239 3325 3289 3359 3407 3413 3369 3490 3547 3646 3447 3376 3329 3347 3280 3207 3142 3027 2808 2734 2707 2681 2374 2372 2175 2123 1996 1906 1785 1643 1653 1543 1616 1562 1457 1314 1392 1287 1312 1298 1349 1316 1224 1275 1205 1291 1243 1191 1240 1218 1182 1209 1217 1163 1183 1230 1170 1203 1179 1222 1120 1212 1154 1190 1161 1172 1148 1194 1153 1118 1170 1206 1155 1153 1157 1133 1115 1152 1112 1089 1099 1165 1171 1203 1164 1177 1076 1149 1128 1122 1154 1176 1210 1154 1114 1164 1206 1099 1108 1125 1117 1163 1142 1148 1173 1158 1132 1131 1142 1131 1111 1180 1087 1132 1175 1146 1177 1130 1151 1114 1179 1225 1137 1194 1160 1194 1174 1196 1132 1167 1141 1191 1184 1205 1216 1147 1223 1166 1208 1207 1283 1181 1292 1260 1256 1332 1325 1249 1215 1328 1308 1236 1288 1334 1333 1306 1271 1300 1370 1330 1331 1290 1308 1351 1363 1402 1447 1447 1360 1313 1348 1340 1369 1348 1377 1313 1362 1383 1300 1337 1378 1280 1359 1302 1304 1367 1274 1244 1196 1181 1209 1221 1232 1229 1223 1198 1208 1197 1180 1209 1267 1194 1221 1260 1180 1305 1247 1169 1247 1232 1253 1184 1266 1217 1280 1264 1245 1282 1312 1336 1244 1252 1217 1269 1246 1202 1270 1323 1258 1279 1324 1320 1287 1229 1239 1230 1254 1284 1265 1194 1220 1157 1160 1187 1137 1203 1124 1134 1168 1140 1245 1187 1131 1168 1108 1192 1100 1146 1158 1173 1151 1113 1160 1211 1084 1175 1203 1150 1201 1274 1193 1224 1271 1188 1269 1202 1272 1259 1197 1227 1230 1198 1284 1283 1204 1303 1232 1280 1240 1268 1303 1296 1290 1259 1298 1237 1294 1250 1307 1367 1283 1293 1375 1351 1321 1346 1333 1347 1351 1298 1299 1347 1306 1294 1197 1272 1191 1222 1229 1164 1240 1175 1182 1199 1165 1244 1116 1196 1220 1175 1170 1187 1196 1197 1195 1190 1201 1167 1198 1215 1233 1208 1236 1256 1292 1215 1255 1301 1348 1287 1362 1322 1302 1328 1359 1360 1383 1388 1399 1303 1351 1399 1390 1370 1461 1303 1523 1457 1385 1418 1423 1469 1435 1365 1405 1412 1385 1453 1347 1399 1331 1374 1317 1294 1322 1238 1274 1219 1260 1210 1281 1214 1183 1159 1177 1173 1137 1150 1187 1124 1126 1129 1105 1174 1104 1133 1131 1133 1120 1096 1078 1128 1084 1098 1074 1109 1115 1138 1103 1113 1062 1141 1093 1127 1105 1120 1126 1143 1173 1062 1119 1123 1062 1085 1085 1069 1034 1065 1080 1068 1088 1063 1094 1161 1016 1063 1099 1055 1056 1074 1072 1080 1064 1033 1106 1137 1082 1070 1090 1047 1068 1168 1100 1085 1071 1136 1074 1147 1040 1084 1120 1069 1056 1082 1058 1094 1049 1057 1076 1103 1050 1110 1131 1155 1061 1102 1108 1119 1030 1130 1145 1075 1067 1097 1052 1125 1069 1159 1164 1126 1087 1038 1098 1122 1008 1055 1136 1047 1050 1081 1095 1171 1062 1088 1056 1077 1086 1131 1099 1100 1051 1018 1121 1112 1046 1046 1063 1046 1105 1098 1126 1078 1051 1063 1140 1039 1090 1070 979 1060 995 1029 996 1055 1080 1061 1063 1114 1057 1077 1078 1096 1086 1050 1083 1066 994 1024 1036 1068 1050 1013 1065 1050 1100 1087 1029 1040 1060 1107 1144 1055 1082 1034 1046 1075 1085 1023 1078 1006 1058 1086 1020 1061 1098 1000 1092 1088 1055 1098 1133 1170 1068 1075 1069 1057 1081 1084 1095 1044 1121 1125 1148 1056 1167 1076 1156 1084 1085 1107 1090 1096 1143 1093 1085 1090 1097 1066 1074 1093 1085 1073 1070 1087 1105 1064 1117 1078 1130 1095 1140 1198 1133 1175 1106 1191 1091 1170 1142 1124 1158 1123 1100 1086 1171 1156 1193 1167 1201 1231 1271 1193 1266 1217 1197 1225 1223 1294 1250 1231 1218 1237 1285 1260 1232 1273 1216 1284 1241 1273 1253 1273 1262 1246 1341 1277 1240 1295 1271 1350 1309 1348 1330 1346 1345 1419 1392 1329 1462 1465 1416 1555 1587 1552 1633 1621 1661 1702 1700 1776 1782 1858 1889 1842 1950 1956 1917 2046 2115 2181 2110 2190 2285 2176 2281 2402 2497 2355 2481 2645 2631 2667 2706 2851 2930 3004 3042 3027 3179 3113 3250 3374 3378 3328 3424 3376 3406 3413 3296 3317 3287 3356 3176 3222 3250 3133 3204 3111 3176 3162 3170 3099 3086 3022 3130 3117 3076 3211 3164 3160 3098 3099 3152 3135 2992 3009 2851 2879 2795 2646 2585 2472 2441 2334 2279 2289 2191 2083 2014 1943 1851 1786 1706 1582 1515 1480 1487 1360 1390 1313 1270 1301 1350 1218 1247 1163 1179 1196 1226 1184 1257 1170 1239 1165 1115 1152 1133 1091 1140 1129 1146 1167 1175 1152 1175 1126 1110 1087 1132 1144 1072 1147 1074 1105 1056 1114 1070 1061 1123 1083 1090 1132 1100 1100 1062 1053 1140 1056 1055 1062 1138 1109 1150 1075 1142 1107 1126 1112 1059 1115 1103 1089 1096 1088 1114 1114 1102 1049 1118 1091 1160 1087 1079 1078 1083 1124 1070 1133 1056 1088 1070 1138 1095 1093 1068 1054 1070 1077 1062 1043 1144 1111 1036 1049 1155 1111 1056 1110 1149 1106 1091 1182 1087 1139 1067 1068 1099 1001 1102 1097 1134 1133 1130 1036 1099 1105 1078 1079 1138 1032 1164 1153 1095 1025 1104 1080 1046 1098 1050 1103 1089 1062 1095 1099 1121 1106 1122 1177 1106 1065 1070 1114 1150 1073 1166 1081 1135 1104 1101 1193 1088 1113 1060 1132 1138 1136 1127 1127 1144 1185 1095 1162 1202 1198 1070 1199 1177 1180 1206 1209 1208 1187 1124 1147 1206 1240 1239 1213 1235 1270 1211 1246 1307 1259 1308 1231 1297 1297 1282 1275 1291 1322 1335 1281 1295 1264 1252 1244 1325 1286 1292 1281 1286 1301 1286 1286 1293 1251 1318 1247 1202 1301 1265 1268 1252 1228 1262 1250 1277 1242 1276 1222 1263 1202 1304 1199 1203 1221 1279 1220 1186 1180 1253 1158 1185 1232 1157 1147 1262 1174 1237 1165 1191 1196 1183 1138 1138 1197 1177 1234 1169 1144 1129 1060 1168 1143 1161 1116 1155 1112 1157 1156 1065 1158 1144 1115 1129 1119 1075 1142 1093 1087 1155 1118 1163 1129 1134 1100 1088 1128 1179 1090 1137 1183 1124 1183 1200 1269 1195 1248 1229 1226 1246 1196 1314 1201 1279 1206 1257 1270 1266 1293 1250 1308 1261 1347 1286 1304 1234 1289 1317 1331 1246 1307 1229 1305 1319 1295 1259 1241 1259 1206 1221 1236 1308 1195 1157 1161 1143 1183 1156 1137 1138 1148 1126 1142 1102 1109 1041 1130 1140 1151 1144 1060 1120 1101 1085 1134 1121 1163 1107 1114 1173 1159 1076 1166 1094 1194 1168 1232 1216 1257 1278 1321 1272 1293 1294 1372 1316 1389 1389 1316 1347 1405 1491 1473 1448 1439 1418 1429 1459 1511 1529 1416 1520 1500 1456 1556 1520 1510 1529 1509 1607 1577 1573 1496 1605 1545 1529 1555 1525 1449 1563 1395 1423 1380 1312 1352 1309 1301 1276 1216 1255 1210 1199 1160 1207 1106 1111 1139 1097 1125 1088 1066 1100 1036 1065 1033 994 1093 1038 992 995 998 983 993 947 1011 1001 986 965 982 1021 966 995 1027 996 1068 1008 1023 982 1034 997 1039 982 969 977 1032 1068 988 1001 1063 1056 990 1025 1009 1038 1042 1038 997 1011 1032 1052 1034 1032 1049 1077 1000 1011 985 1085 1011 1001 1067 1025 1105 1065 1041 1075 1044 1091 1017 1077 1056 1049 1062 1035 1065 1044 1078 971 1030 1065 986 989 1051 1009 1063 999 1027 996 1035 995 1048 1041 1017 1009 1006 952 987 976 990 904 1007 1004 937 945 1015 957 952 991 977 967 988 1047 932 1045 985 977 980 950 937 966 891 982 965 994 1025 943 979 913 996 919 976 974 991 1004 974 951 982 975 999 981 930 979 1000 974 993 992 1007 1009 1046 969 999 977 956 967 974 995 987 963 928 943 980 929 939 963 904 965 949 942 977 930 1002 1004 1000 986 1000 985 999 959 949 1009 902 1017 1023 991 962 1040 973 981 1003 1012 972 962 1016 949 1006 1028 1011 996 1007 948 1037 1024 1018 973 989 1008 992 1014 993 947 1021 1043 993 973 1020 980 954 1032 955 1006 986 967 933 1044 998 991 996 1038 1009 995 971 1023 983 987 1008 990 1042 1017 1003 1011 986 1048 1013 1005 1006 1007 1052 1063 979 967 1053 965 1017 1002 1020 994 1009 1005 1021 1024 1004 1030 1005 988 1007 1027 979 996 1052 1067 976 995 1048 1069 1034 1021 1036 1010 1017 1006 990 993 1057 1110 1073 1097 1033 1030 1021 956 994 985 1146 992 1001 978 994 1026 974 1006 1067 1029 1006 984 966 1008 1071 983 1111 1007 1113 1037 1096 1015 1032 982 1018 979 1044 1095 1057 1039 1015 1016 1018 1036 1030 1086 1056 996 1069 1073 1016 1025 1010 1037 998 1047 1081 1002 1045 962 1046 1034 1059 1039 1081 1048 1034 1085 1065 1125 1144 1140 1104 1120 1105 1085 1146 1116 1184 1176 1196 1177 1145 1232 1182 1221 1186 1243 1257 1289 1284 1317 1325 1312 1338 1277 1334 1286 1288 1329 1334 1302 1344 1357 1408 1313 1414 1337 1457 1403 1372 1384 1350 1391 1338 1351 1339 1354 1391 1350 1260 1220 1246 1298 1187 1164 1231 1191 1199 1206 1208 1139 1172 1124 1203 1166 1130 1081 1057 1021 1119 1039 1116 1058 1076 1076 1069 1079 1044 1104 1104 1101 1107 1092 1070 1104 1172 1115 1194 1111 1132 1217 1133 1162 1213 1185 1183 1222 1201 1236 1311 1249 1254 1311 1261 1332 1316 1305 1367 1337 1314 1296 1338 1400 1444 1374 1322 1397 1278 1333 1342 1339 1355 1319 1405 1325 1242 1348 1285 1248 1246 1278 1169 1206 1297 1234 1268 1211 1154 1111 1182 1173 1120 1150 1117 1110 1137 1186 1091 1105 1088 1058 1084 1035 1052 1093 1026 1106 1037 968 1084 1095 1041 1085 1064 1117 1110 1102 1086 1054 1041 1068 1049 1048 1023 1047 1017 1063 983 1042 1021 1039 961 1059 1029 1053 1094 951 1134 1124 1134 1085 999 974 1032 1067 1077 1045 1098 1067 1044 1013 979 1018 947 946 1036 945 976 1000 942 1054 1026 988 908 972 931 960 985 1016 1071 912 1041 1041 983 1007 1022 969 969 982 977 993 1008 959 1009 967 935 942 971 1010 917 972 887 967 952 1040 932 1019 1020 981 1000 1006 966 968 969 1032 988 982 1038 1041 1031 998 1013 1032 999 1004 1104 1126 1055 1080 1120 1136 1075 1153 1115 1087 1077 1153 1132 1158 1189 1260 1203 1315 1273 1279 1301 1313 1350 1354 1348 1342 1327 1391 1382 1539 1478 1462 1481 1471 1481 1546 1592 1548 1562 1588 1579 1552 1559 1529 1460 1568 1578 1542 1518 1487 1525 1486 1503 1428 1420 1373 1314 1442 1411 1340 1268 1396 1314 1314 1268 1317 1275 1310 1215 1170 1285 1169 1227 1187 1143 1155 1203 1168 1112 1189 1109 1078 1109 1130 1072 1104 1100 1059 1109 1101 1049 1075 1077 1054 1050 1042 1052 1046 1046 1038 1029 1030 1024 985 1058 931 1039 954 966 1014 948 1038 965 980 957 1011 1003 952 992 913 996 974 913 952 1009 1069 987 1000 961 968 1003 1035 921 953 964 950 972 918 943 955 981 970 963 954 1091 971 986 939 984 946 1004 977 957 974 1001 943 952 953 950 947 1005 955 960 924 976 900 1004 992 947 951 925 931 955 957 933 916 933 935 939 1000 956 982 961 972 954 1012 979 963 1025 939 990 965 965 955 1049 1011 991 993 1014 939 981 987 1036 996 1027 976 1081 1026 1024 1002 1035 957 1078 995 993 1010 1006 1052 1053 1074 1074 941 1047 1061 1069 1038 1078 1045 1099 1121 1060 1063 1036 1046 1005 1092 1018 1055 1103 1075 1021 1048 1060 1114 1011 983 1061 1060 1015 1050 985 1070 1024 1006 996 1020 972 1006 966 1022 1003 1004 985 896 986 953 983 1032 968 971 946 941 925 1007 994 979 1005 983 988 1050 993 1016 1026 982 991 1082 1024 975 1017 1002 985 1057 975 966 976 972 962 986 990 966 1022 1034 1001 1020 1037 983 1011 1009 957 982 977 971 966 987 948 974 950 938 934 942 958 926 983 1021 994 1013 919 964 965 1013 921 914 959 923 869 972 962 919 953 992 943 995 973 1004 916 982 894 988 940 974 897 911 922 994 957 916 927 879 942 905 939 943 935 938 951 888 938 919 967 965 954 1018 962 919 899 944 998 968 1036 1020 913 983 975 909 966 889 968 967 995 939 948 990 993 996 964 1000 983 1024 1043 945 1086 1057 1115 1065 1092 1167 1022 1112 1086 1088 1114 1109 1141 1135 1183 1201 1187 1204 1213 1225 1263 1175 1277 1248 1264 1270 1270 1287 1338 1256 1326 1249 1353 1276 1300 1321 1291 1338 1318 1302 1309 1229 1288 1308 1250 1223 1230 1265 1166 1184 1239 1140 1178 1209 1113 1157 1081 1130 1064 1035 1042 1059 1061 1081 1005 1039 1027 1047 994 932 1052 997 988 933 984 1007 953 1007 970 978 943 917 945 961 946 929 977 971 938 872 996 897 921 916 1000 902 937 913 967 971 938 951 965 954 951 907 1021 939 937 964 959 955 873 936 938 935 917 929 889 977 943 955 970 899 957 990 955 982 888 949 956 976 922 986 943 934 929 946 901 941 935 921 941 927 934 902 911 962 1020 1035 964 999 947 889 1003 980 1027 980 954 954 971 970 935 996 981 977 927 937 965 978 933 916 914 945 979 966 967 911 970 992 943 1029 960 1023 973 985 986 992 948 975 915 1018 955 968 944 994 987 926 943 956 930 906 870 910 940 943 961 960 949 941 1009 934 1000 934 945 906 925 1014 1086 1019 968 972 1009 952 1027 1002 985 943 1015 941 1053 990 1005 1052 944 964 970 985 1007 1077 1033 1019 1080 974 1047 1075 1060 1052 1074 1008 1017 1087 1028 1006 1009 1056 1107 1034 1012 964 1037 952 1025 1081 1005 1076 1076 953 983 982 985 975 978 996 1036 955 1015 967 890 961 965 944 970 970 871 917 989 887 891 954 903 890 970 985 968 915 943 973 903 936 976 911 966 938 969 987 982 956 940 978 960 992 940 1001 953 951 968 1003 931 1007 945 1036 1022 1004 953 1047 922 963 1026 984 1066 965 966 1014 1053 989 1021 968 957 1004 981 952 972 956 945 1010 973 976 1019 917 976 907 951 972 962 925 909 953 919 971 937 965 918 846 926 911 883 951 927 973 949 1032 973 981 969 947 932 955 886 879 973 915 946 998 930 945 923 958 969 976 982 998 960 1038 989 965 959 991 983 892 946 939 932 1001 995 981 905 967 997 956 955 884 913 931 885 978 894 879 952 952 971 974 952 942 912 941 933 915 956 943 945 863 948 898 930 888 892 919 959 938 936 945 908 871 966 974 905 946 902 940 908 882 1075 879 875 888 889 951 920 900 940 908 983 884 944 933 881 957 895 1007 897 926 890 925 975 911 942 908 856 899 891 844 888 855 923 942 954 902 955 887 872 890 885 862 894 952 876 914 935 875 913 932 893 946 932 919 935 904 930 905 916 892 868 920 955 966 991 932 917 961 931 903 912 928 905 877 956 964 909 918 913 865 851 964 942 988 920 998 935 973 856 958 923 1065 988 1057 929 906 981 911 971 939 943 965 932 941 909 942 937 929 941 870 970 936 949 936 950 924 904 857 897 991 883 960 913 963 981 1007 967 886 998 982 985 887 941 972 930 964 983 953 940 989 1004 989 969 920 985 1027 1033 1041 1035 1017 1014 1008 1049 1065 1066 1123 1070 1041 1040 1048 1136 1127 1007 1107 1065 1096 1074 1112 1083 1069 1123 1069 1130 1080 1132 1147 1176 1077 1111 1059 1149 1108 1136 1125 1118 1083 1057 1169 1081 1096 1066 1151 1073 1050 1052 1080 988 1040 1040 961 1044 1026 1004 1029 996 973 952 1019 899 906 955 922 968 919 913 1015 948 951 945 898 915 943 915 914 977 905 862 922 865 938 844 953 922 862 855 923 889 937 905 917 892 881 924 843 928 890 901 877 899 911 952 920 863 922 853 890 887 934 868 942 880 934 946 862 934 891 866 869 917 915 963 837 902 881 900 908 905 868 846 913 905 912 877 894 850 935 919 854 944 928 892 857 930 925 893 923 954 852 884 913 905 940 899 909 941 920 954 938 927 984 926 860 958 924 948 915 913 927 941 951 962 900 893 953 943 972 934 925 952 1010 957 975 974 898 946 910 988 971 954 918 903 911 937 957 977 889 931 898 943 938 913 917 959 886 945 861 974 902 927 993 940 926 902 877 871 895 926 878 906 901 900 870 897 885 941 878 920 837 929 903 933 944 961 923 947 967 895 955 866 911 926 933 898 941 906 917 874 912 939 935 956 936 926 915 981 897 922 915 965 966 934 953 939 945 929 938 905 965 927 972 901 944 944 980 972 959 952 921 935 927 985 1013 962 924 954 951 921 905 965 951 926 898 956 991 989 916 878 981 960 905 915 949 925 957 924 929 881 907 978 872 982 961 958 954 978 985 897 930 941 930 1053 991 965 972 971 962 950 918 1016 994 993 964 995 956 1018 1004 1016 1014 951 1045 1042 1053 980 1064 1035 1002 995 1025 987 1047 1022 1061 1015 1048 1006 1009 998 1043 1035 960 992 993 1030 1000 1036 1004 1018 945 969 1001 977 925 959 945 1012 873 950 892 994 954 954 942 953 912 928 881 893 930 951 935 931 986 945 951 910 842 896 870 921 869 889 907 901 906 944 866 961 904 878 952 949 902 848 933 833 909 976 902 892 899 916 932 763 914 845 914 839 984 887 934 902 901 924 893 849 954 925 850 919 850 960 856 820 883 931 931 930 897 877 909 902 853 818 904 872 885 847 877 837 893 887 898 854 880 864 923 835 820 896 850 893 951 896 922 907 918 916 928 929 920 894 878 849 867 916 903 856 854 889 886 879 944 914 937 899 901 910 905 909 898 907 939 944 954 905 868 897 976 1031 928 896 946 930 929 896 871 927 937 922 911 921 897 934 873 895 844 882 878 926 930 930 879 922 940 937 850 892 943 951 920 926 932 889 931 915 989 988 990 975 978 927 993 958 999 1005 918 975 980 920 1033 1008 990 986 970 990 982 964 922 910 940 957 951 921 957 969 1000 973 954 904 997 928 937 953 937 957 978 933 940 958 924 969 918 900 1015 897 939 970 916 908 929 871 927 907 894 908 953 875 907 912 889 937 891 940 890 954 917 986 935 939 946 962 930 907 935 969 932 866 924 936 907 887 947 913 992 890 982 843 919 904 949 900 866 981 903 920 928 971 887 956 927 936 946 944 1014 941 918 955 909 918 955 952 951 965 904 928 949 966 966 967 957 929 960 962 1010 957 949 1013 1059 1012 969 984 936 892 867 956 920 996 1011 928 943 991 937 952 980 978 955 973 1028 1032 1003 989 991 995 982 993 982 959 984 985 1003 963 947 1041 1028 1050 946 1070 1000 977 1022 1000 1074 1099 1090 1040 988 1041 1037 1019 1041 1043 1082 1076 1069 1059 1110 1147 1090 1108 1053 1025 1042 1155 1039 1109 1069 1095 1091 1150 1102 1146 1116 1083 1151 1125 1096 1191 1061 1122 1188 1177 1213 1188 1177 1138 1127 1247 1156 1268 1134 1130 1154 1078 1090 1170 1129 1063 1148 1108 1191 1184 1155 1153 1068 1138 1084 1142 1095 1094 1046 1126 1068 1086 1082 1075 1034 1103 1046 1045 1094 1070 1044 1065 1019 1053 995 1049 1007 1023 1039 1029 999 1013 1021 967 1012 1021 970 1007 1015 985 1023 944 969 931 1034 941 959 950 1042 1008 1005 926 995 977 1005 975 934 940 938 933 979 939 995 1006 970 965 964 974 916 995 951 896 1020 970 977 966 939 977 925 1030 950 936 935 932 1026 942 1004 945 964 955 891 959 972 976 1005 1015 970 984 1056 985 1049 921 929 964 1029 972 935 951 992 986 926 1062 955 1033 1007 977 986 1013 1049 1003 1050 997 1057 982 1031 1005 1012 1064 992 980 973 969 1048 1029 978 1054 1037 981 1006 1016 1052 1006 1038 1045 1043 1040 1066 1142 1093 1172 1144 1226 1181 1211 1252 1298 1271 1277 1236 1289 1330 1319 1437 1417 1379 1365 1411 1433 1474 1416 1449 1581 1522 1610 1537 1561 1616 1615 1575 1628 1610 1566 1598 1650 1620 1568 1667 1581 1679 1627 1653 1557 1567 1564 1577 1496 1558 1461 1426 1485 1416 1419 1415 1436 1437 1336 1393 1358 1344 1392 1323 1277 1277 1248 1233 1212 1144 1145 1100 1091 1155 1099 1112 1105 1064 1041 1085 1131 1001 1080 1046 1020 1029 1029 1033 1034 1032 934 1043 967 942 946 976 941 980 968 988 997 1047 977 997 1021 1004 1028 981 1006 986 964 968 962 947 957 967 1015 967 977 960 978 1004 919 942 924 962 945 885 929 929 945 969 925 928 967 953 916 905 965 963 946 948 912 937 903 950 933 936 912 936 866 945 939 978 956 1027 923 909 962 928 1001 938 929 865 933 931 893 948 887 975 893 986 956 865 951 950 947 917 937 940 969 946 895 968 1022 920 926 931 1025 925 921 981 947 937 943 934 939 950 965 943 979 971 956 980 969 919 954 961 919 919 951 1001 978 996 946 989 950 948 998 997 968 1001 948 960 975 909 933 936 959 997 908 957 951 910 934 958 961 929 969 997 931 980 922 918 929 1013 912 903 919 897 896 906 924 940 935 909 1020 910 904 961 882 856 913 944 912 945 922 947 974 930 945 928 924 938 895 892 930 931 947 973 912 904 1001 938 918 928 950 987 960 944 915 993 925 998 949 974 932 945 918 926 917 1000 931 945 973 909 931 973 911 990 930 905 997 940 953 968 947 967 936 951 991 972 970 996 968 993 1005 961 1018 998 994 986 1023 974 1030 999 1029 985 1000 1043 1044 1050 1063 1070 1062 982 1141 1043 1114 1139 1127 1127 1094 1081 1141 1220 1117 1235 1174 1185 1158 1119 1133 1187 1111 1161 1185 1188 1150 1175 1202 1212 1210 1175 1150 1177 1119 1081 1127 1088 1014 1141 1154 1086 1081 1118 1083 1156 1102 1116 1062 1083 1056 1030 1072 1052 1101 1125 1017 1032 1035 1035 1042 1048 1035 1093 1052 958 957 1005 996 1043 1038 1064 955 1012 1019 952 964 933 999 941 940 993 939 971 970 942 923 943 949 937 944 971 905 956 985 961 937 936 918 900 975 956 927 901 902 938 937 919 894 952 863 871 880 912 931 899 989 1011 904 921 967 923 926 940 948 934 959 926 915 991 902 939 918 967 947 903 932 989 915 902 902 927 975 940 907 944 927 967 938 918 897 987 966 922 978 948 913 911 931 940 930 900 902 912 926 956 955 920 925 1027 915 958 952 920 925 926 887 924 892 849 955 899 925 935 930 866 966 885 912 892 940 901 916 962 920 881 886 911 864 949 918 899 887 898 948 901 876 891 900 870 899 893 918 949 917 892 877 953 975 837 906 855 888 916 901 880 882 926 873 942 844 925 935 902 891 952 904 939 861 915 895 842 913 903 936 976 905 889 888 878 887 880 907 917 924 953 874 929 945 943 939 875 891 887 887 954 872 896 930 833 876 872 942 943 918 858 917 942 943 893 989 915 948 902 900 900 909 945 857 912 970 1001 934 974 911 942 971 911 948 960 932 947 945 912 1030 971 1001 950 985 954 1022 885 937 982 905 948 990 986 998 981 973 1003 1020 960 941 958 943 967 917 954 950 995 929 928 984 954 939 963 827 921 919 958 949 884 937 954 940 996 945 969 875 932 967 888 973 893 925 964 931 954 925 948 917 939 898 939 970 900 956 911 930 902 924 866 936 929 890 899 899 918 923 898 888 1001 959 961 982 937 874 956 932 913 965 941 915 848 855 911 974 914 896 872 925 933 915 916 920 897 907 928 899 938 892 850 932 889 883 939 926 861 881 871 936 871 946 916 932 883 915 920 935 932 864 868 930 856 836 891 931 904 890 894 914 895 893 886 946 872 927 916 917 991 890 891 943 869 928 914 1003 931 861 944 929 956 906 875 915 940 922 961 936 980 955 906 902 960 920 895 875 938 936 958 925 898 919 891 908 869 960 890 916 963 979 994 945 936 947 1025 1025 931 975 986 903 979 966 945 1013 983 1006 1001 939 945 1030 972 1048 998 1024 1018 959 968 1004 1052 1009 995 965 992 1021 1036 996 1003 1003 987 1008 1022 1076 964 1002 1012 1005 961 981 975 992 1010 986 994 994 1017 1014 932 973 1035 1031 1033 964 945 1019 1010 992 1042 1077 989 954 1028 935 1000 956 1075 998 978 952 987 998 1008 1031 1031 972 1039 1036 1074 1028 1117 1040 1060 1082 1137 1078 1155 1124 1120 1167 1123 1158 1131 1174 1147 1107 1107 1171 1196 1171 1219 1172 1214 1207 1215 1175 1211 1236 1181 1104 1140 1174 1125 1097 1089 1121 1213 1128 1191 1130 1156 1119 1110 1078 1129 1086 1069 1129 1094 1100 1046 1014 1041 1053 1037 1014 1030 1074 1042 984 1014 944 987 979 989 985 1010 950 1037 884 980 943 973 973 896 919 926 879 894 906 902 927 999 944 898 904 879 891 843 936 916 966 953 932 895 966 926 983 964 909 920 926 917 931 963 894 897 933 894 984 922 895 861 865 871 954 863 881 960 936 878 915 893 880 900 854 921 946 877 931 940 890 945 912 971 919 903 831 963 893 928 933 955 930 913 950 977 839 953 923 897 986 931 917 943 995 929 930 912 932 839 930 944 1011 898 943 952 929 950 973 974 960 906 925 903 916 947 908 911 888 914 900 922 930 979 931 902 893 959 919 897 919 888 855 880 977 922 957 907 879 928 942 931 955 886 982 929 945 933 941 957 917 942 825 915 872 942 924 906 893 878 851 941 830 914 938 930 921 883 900 852 897 913 929 956 935 903 898 854 895 902 917 903 908 937 875 933 837 978 865 884 929 906 990 911 954 941 928 980 931 903 923 874 889 881 926 892 920 1001 935 937 958 908 929 906 975 876 942 943 888 898 933 924 982 968 995 948 988 930 954 940 1021 924 972 978 993 945 972 924 935 1001 979 981 984 1031 970 978 946 1042 975 1030 938 956 1016 1021 975 1025 971 927 999 915 913 936 950 965 981 926 919 928 914 961 928 962 916 989 869 926 899 927 892 895 897 923 868 908 894 899 893 857 942 882 930 868 864 921 905 936 919 939 942 919 868 911 878 906 833 886 892 841 881 839 862 883 952 867 825 884 902 921 949 837 897 891 913 915 905 862 887 853 887 834 907 867 856 906 910 928 928 885 904 826 891 909 870 884 874 838 941 865 868 867 861 862 896 899 925 829 902 883 864 826 846 879 840 862 894 910 856 885 872 882 879 875 865 858 878 840 917 949 919 821 890 856 870 842 920 890 883 908 929 842 830 866 835 863 889 865 911 884 885 925 854 905 844 895 905 939 852 899 911 861 897 876 898 882 892 881 858 903 896 845 860 929 880 928 860 892 843 890 885 885 945 899 946 915 888 880 894 941 902 884 939 898 902 905 849 918 875 891 833 895 901 879 904 869 874 901 839 884 892 897 885 833 900 846 877 968 932 930 929 879 863 860 831 884 820 894 888 924 915 911 914 886 903 801 913 848 924 852 906 944 893 884 923 889 917 886 834 862 861 891 881 889 853 897 822 864 839 899 928 902 889 854 897 892 903 856 870 869 893 882 839 860 857 881 929 923 896 885 867 842 920 867 919 866 879 927 951 912 909 868 837 882 855 865 928 880 871 877 892 914 879 938 894 899 948 915 879 898 886 896 947 896 932 887 874 971 899 947 950 946 1011 1038 910 957 841 943 908 954 1016 970 956 937 956 1025 898 942 949 964 1008 968 934 972 995 992 969 954 1016 1060 918 990 992 911 968 931 948 940 906 946 1007 991 969 976 968 960 897 965 876 943 995 894 918 897 932 955 967 861 956 961 923 985 885 944 914 940 928 975 982 930 898 923 975 906 957 991 968 969 955 938 1020 964 981 940 956 970 985 982 979 928</counts>
			</dataPoints>
		</scan>
	</xrdMeasurement>
</xrdMeasurements>
