<?xml version="1.0"?>
<xrdMeasurements xmlns="http://www.xrdml.com/XRDMeasurement/2.3" xmlns:xsi="http://www.w3.org/2001/XMLSchema-instance" xsi:schemaLocation="http://www.xrdml.com/XRDMeasurement/2.3 http://www.xrdml.com/XRDMeasurement/2.3/XRDMeasurement.xsd" status="Completed" recordIdentifier="{53267AA1-66EE-4A6F-AFC6-8A264A34A6BC}">
	<comment>
		<entry/>
	</comment>
	<sample type="To be analyzed">
		<id>GPSS_Li1p8Mg0p6Sn0p2Y0p2Cl4_121825_6943d914f4d05ae3d69790bb</id>
		<name></name>
		<preparedBy></preparedBy>
	</sample>
	<xrdMeasurement measurementType="Scan" status="Completed" sampleMode="Reflection">
		<usedWavelength intended="K-Alpha 1">
			<kAlpha1 unit="Angstrom">1.5405980</kAlpha1>
			<kAlpha2 unit="Angstrom">1.5444260</kAlpha2>
			<kBeta unit="Angstrom">1.3922500</kBeta>
			<ratioKAlpha2KAlpha1>0.5000</ratioKAlpha2KAlpha1>
		</usedWavelength>
		<incidentBeamPath>
			<radius unit="mm">145.00</radius>
			<xRayTube id="1010048" name="Empyrean Cu LFF HR (9430 033 7310x)">
				<tension unit="kV">40.0</tension>
				<current unit="mA">15.0</current>
				<anodeMaterial>Cu</anodeMaterial>
				<focus type="Line">
					<length unit="mm">12.0</length>
					<width unit="mm">0.4</width>
					<takeOffAngle unit="deg">6.0</takeOffAngle>
				</focus>
			</xRayTube>
			<sollerSlit id="21010002" name="Soller slits 0.04 rad.">
				<opening unit="rad">0.0400</opening>
			</sollerSlit>
			<mask id="22031000" name="Fixed mask 13 mm">
				<width unit="mm">9.00</width>
			</mask>
			<divergenceSlit id="22120001" name="Divergence slit 1°" xsi:type="fixedDivergenceSlitType">
				<distanceToSample unit="mm">50.00</distanceToSample>
				<height unit="mm">1.52</height>
			</divergenceSlit>
		</incidentBeamPath>
		<sampleMovement xsi:type="spinningSampleMovementType">
			<spinnerRevolutionTime unit="seconds">1.0</spinnerRevolutionTime>
		</sampleMovement>
		<diffractedBeamPath>
			<radius unit="mm">145.00</radius>
			<antiScatterSlit id="22090040" name="AS slit 9 mm (PIXcel)" xsi:type="fixedAntiScatterSlitType">
				<height unit="mm">9.00</height>
			</antiScatterSlit>
			<sollerSlit id="21020003" name="Large Soller slits 0.04 rad.">
				<opening unit="rad">0.0400</opening>
			</sollerSlit>
			<filter id="20030001" name="Large beta-filter Nickel">
				<material>Ni</material>
				<thickness unit="mm">0.020</thickness>
			</filter>
			<detector id="7010019" name="PIXcel1D-Medipix3 detector" xsi:type="rtmsDetectorType">
				<phd unit="keV">
					<lowerLevel>4.02</lowerLevel>
					<upperLevel>11.27</upperLevel>
				</phd>
				<mode>Scanning</mode>
				<activeLength unit="deg">5.542</activeLength>
			</detector>
		</diffractedBeamPath>
		<scan appendNumber="0" mode="Continuous" scanAxis="Gonio" status="Completed">
			<header>
				<startTimeStamp>2025-12-22T11:23:54-08:00</startTimeStamp>
				<endTimeStamp>2025-12-22T11:32:01-08:00</endTimeStamp>
				<author>
					<name>AutomatedUser</name>
				</author>
				<source>
					<applicationSoftware version="1.7b (136)">PANalytical Aeris Instrument Suite</applicationSoftware>
					<instrumentControlSoftware version="3.2.00000000 20240306">AERIS</instrumentControlSoftware>
					<instrumentID>950485</instrumentID>
				</source>
			</header>
			<dataPoints>
				<positions axis="2Theta" unit="deg">
					<startPosition>10.00943322</startPosition>
					<endPosition>99.99442286</endPosition>
				</positions>
				<positions axis="Omega" unit="deg">
					<startPosition>5.00471661</startPosition>
					<endPosition>49.99721143</endPosition>
				</positions>
				<commonCountingTime unit="seconds">12.495</commonCountingTime>
				<counts unit="counts">2805 2854 2862 2793 2737 2774 2757 2666 2780 2768 2808 2849 2734 2741 2771 2733 2801 2842 2801 2705 2743 2829 2826 2746 2771 2706 2800 2696 2798 2660 2762 2805 2789 2685 2861 2788 2781 2840 2781 2710 2754 2691 2738 2736 2759 2796 2816 2813 2805 2879 2692 2726 2835 2663 2758 2784 2753 2693 2757 2780 2781 2774 2779 2706 2758 2672 2716 2796 2859 2711 2717 2752 2703 2730 2816 2731 2691 2851 2825 2867 2820 2869 2811 2766 2906 2676 2624 2760 2697 2779 2640 2826 2813 2731 2760 2822 2924 2816 2783 2736 2776 2741 2831 2739 2868 2737 2794 2797 2844 2850 2763 2786 2796 2813 2753 2801 2912 2818 2811 2798 2835 2717 2738 2810 2723 2670 2906 2715 2819 2773 2853 2898 2706 2834 2685 2825 2908 2812 2881 2768 2795 2766 2833 2890 2805 2710 2902 2786 2776 2881 2899 2818 2782 2844 2833 2824 2827 2730 2772 2707 2796 2805 2728 2740 2891 2748 2783 2728 2775 2770 2886 2754 2811 2708 2849 2785 2704 2723 2904 2689 2740 2765 2726 2800 2755 2760 2782 2779 2646 2749 2773 2761 2825 2667 2730 2678 2705 2828 2624 2799 2706 2697 2671 2731 2776 2759 2684 2698 2774 2628 2774 2658 2686 2698 2611 2659 2726 2674 2665 2659 2616 2651 2757 2711 2617 2595 2658 2680 2622 2600 2692 2668 2599 2677 2626 2486 2611 2519 2581 2596 2500 2666 2605 2643 2553 2624 2552 2624 2622 2688 2576 2514 2614 2567 2596 2632 2661 2619 2574 2627 2598 2582 2528 2507 2543 2425 2600 2534 2565 2552 2568 2515 2529 2607 2567 2545 2533 2556 2542 2509 2487 2646 2508 2573 2592 2566 2472 2515 2551 2480 2599 2551 2465 2502 2488 2373 2463 2547 2506 2507 2451 2428 2413 2534 2468 2564 2539 2574 2525 2482 2572 2539 2541 2546 2475 2485 2470 2513 2519 2431 2490 2533 2603 2434 2465 2481 2498 2527 2426 2353 2515 2494 2540 2528 2427 2490 2485 2490 2550 2527 2463 2577 2517 2464 2521 2519 2464 2474 2613 2462 2547 2679 2489 2528 2625 2497 2554 2555 2536 2590 2577 2525 2597 2681 2521 2543 2439 2565 2538 2588 2597 2670 2553 2677 2514 2486 2573 2567 2640 2610 2620 2653 2607 2647 2549 2609 2656 2622 2698 2652 2598 2659 2637 2666 2644 2724 2584 2752 2681 2619 2653 2660 2671 2677 2721 2747 2884 2762 2850 2898 2807 2784 2923 2870 2897 2953 2926 2960 2934 2946 2989 3001 2886 2884 2968 2872 2876 2843 2848 2810 2891 2844 2849 2840 2761 2823 2812 2728 2746 2792 2820 2694 2797 2772 2734 2821 2667 2805 2727 2815 2836 2796 2838 2690 2696 2772 2740 2727 2741 2706 2753 2777 2675 2673 2818 2712 2768 2646 2717 2564 2650 2648 2726 2654 2725 2628 2574 2730 2678 2723 2632 2540 2690 2598 2615 2582 2636 2660 2615 2603 2536 2636 2683 2557 2627 2670 2616 2575 2590 2615 2622 2534 2462 2658 2634 2672 2626 2628 2713 2650 2711 2704 2614 2538 2745 2692 2700 2562 2752 2710 2720 2725 2710 2683 2739 2751 2746 2728 2752 2657 2607 2736 2629 2691 2653 2632 2619 2529 2560 2644 2579 2611 2547 2547 2589 2572 2478 2644 2551 2582 2527 2541 2549 2484 2510 2400 2563 2553 2455 2579 2571 2599 2433 2444 2638 2565 2545 2455 2421 2510 2491 2495 2481 2391 2377 2353 2380 2487 2452 2421 2389 2470 2390 2507 2418 2434 2444 2443 2416 2454 2352 2359 2458 2454 2376 2388 2337 2384 2252 2328 2303 2380 2341 2384 2394 2341 2364 2449 2403 2339 2361 2445 2326 2406 2319 2323 2295 2334 2334 2316 2287 2287 2297 2282 2353 2271 2286 2288 2285 2238 2217 2229 2279 2345 2256 2304 2179 2332 2317 2181 2349 2340 2238 2299 2301 2224 2252 2275 2342 2428 2305 2358 2355 2434 2370 2399 2324 2370 2303 2365 2396 2297 2267 2319 2298 2275 2202 2263 2225 2312 2267 2203 2321 2150 2224 2234 2219 2194 2336 2235 2219 2295 2288 2213 2262 2254 2152 2233 2192 2234 2234 2287 2158 2204 2227 2250 2171 2242 2291 2117 2185 2196 2208 2211 2216 2221 2183 2205 2119 2196 2197 2206 2076 2227 2187 2136 2152 2193 2147 2272 2235 2118 2241 2206 2224 2146 2139 2182 2127 2146 2191 2112 2157 2091 2188 2175 2190 2137 2108 2195 2192 2085 2109 2108 2165 2187 2125 2103 2185 2108 2110 2162 2106 2090 2067 2102 2098 2081 2076 2100 2103 2111 2110 2090 2111 2050 2118 2084 2155 2033 2060 2014 2046 2096 2118 2042 2072 2013 2076 2076 2043 2044 2057 2017 2035 1999 2059 2145 2035 2099 2080 2120 2012 2030 2006 2076 1992 2086 2064 2024 1976 2007 1995 2089 2021 2089 2048 2098 2011 2023 2031 2069 1966 2047 2083 1998 2100 1995 2085 2067 1961 2138 2004 2032 2056 1964 2043 1966 1962 2054 1969 2027 1997 1939 1996 1959 2028 1995 1922 1957 1981 1973 1932 1998 2065 1893 1986 1917 2002 2018 1880 1979 1965 1937 2027 1945 1934 1955 2000 1986 1960 1980 1990 1875 1928 1986 1898 1956 1928 1947 1921 1999 1930 1894 1966 2000 1959 1946 1934 1893 1992 1928 1957 1938 1981 1950 1923 1929 1887 1937 1873 1877 1906 1916 1975 1950 1936 1910 1827 1882 1894 1844 1945 1971 1925 1942 1874 1976 1974 1917 1971 1865 1869 1918 1922 1957 1983 1932 1850 1870 1908 1831 1944 1910 1956 1921 1913 1835 1918 1907 1886 1857 1957 1803 1956 1770 1897 1950 1843 1874 1749 1857 1898 1913 1809 1884 1825 1858 1858 1886 1852 1759 1857 1851 1794 1797 1825 1820 1909 1789 1795 1846 1751 1807 1779 1808 1843 1827 1815 1841 1851 1826 1800 1852 1841 1861 1796 1774 1854 1792 1776 1771 1858 1793 1797 1712 1779 1778 1842 1752 1796 1829 1866 1705 1808 1804 1845 1786 1854 1763 1829 1698 1793 1844 1703 1782 1873 1747 1771 1748 1822 1792 1788 1794 1778 1754 1881 1784 1829 1732 1768 1809 1832 1821 1723 1804 1802 1738 1771 1773 1772 1748 1765 1729 1734 1750 1719 1709 1786 1703 1738 1776 1802 1822 1688 1736 1791 1764 1762 1801 1765 1781 1735 1764 1844 1819 1764 1736 1791 1757 1741 1792 1745 1820 1661 1807 1834 1777 1727 1781 1757 1726 1812 1800 1776 1736 1774 1797 1719 1732 1730 1720 1760 1750 1839 1747 1737 1801 1793 1740 1766 1737 1806 1740 1738 1800 1868 1804 1827 1726 1731 1753 1778 1782 1812 1831 1795 1828 1773 1713 1792 1763 1763 1750 1691 1779 1666 1786 1779 1773 1713 1696 1723 1770 1668 1790 1798 1843 1819 1733 1720 1742 1729 1772 1718 1713 1716 1833 1780 1739 1772 1785 1760 1766 1718 1719 1760 1736 1772 1779 1730 1696 1757 1776 1651 1716 1807 1734 1768 1695 1671 1677 1702 1768 1819 1702 1707 1719 1782 1742 1750 1744 1774 1728 1705 1781 1728 1777 1627 1677 1695 1686 1704 1694 1677 1568 1653 1684 1784 1698 1620 1778 1672 1695 1698 1668 1722 1644 1643 1653 1635 1643 1698 1573 1704 1615 1598 1660 1635 1675 1670 1659 1679 1620 1620 1571 1643 1753 1678 1650 1610 1707 1688 1684 1676 1689 1718 1639 1661 1731 1718 1634 1686 1689 1758 1641 1676 1618 1697 1538 1611 1637 1624 1596 1596 1531 1618 1580 1650 1592 1562 1595 1645 1566 1560 1479 1591 1472 1551 1534 1589 1529 1546 1548 1508 1499 1542 1519 1567 1519 1539 1582 1513 1600 1463 1527 1513 1520 1545 1571 1480 1522 1471 1576 1530 1464 1516 1481 1474 1507 1415 1501 1442 1509 1481 1449 1505 1395 1493 1450 1448 1498 1446 1486 1412 1426 1518 1570 1393 1412 1462 1470 1439 1401 1375 1491 1456 1527 1442 1428 1422 1395 1413 1340 1443 1418 1446 1376 1483 1420 1373 1462 1427 1400 1404 1443 1382 1385 1411 1480 1396 1453 1444 1464 1445 1427 1396 1384 1404 1414 1404 1411 1450 1302 1431 1365 1395 1432 1396 1322 1317 1350 1467 1397 1355 1413 1426 1399 1335 1363 1436 1319 1352 1388 1371 1350 1381 1357 1342 1369 1395 1304 1363 1333 1295 1378 1441 1411 1380 1356 1433 1349 1281 1355 1422 1282 1393 1369 1369 1408 1321 1336 1361 1317 1402 1402 1363 1405 1369 1383 1346 1359 1361 1302 1340 1378 1346 1374 1351 1403 1386 1356 1387 1368 1362 1368 1402 1380 1323 1345 1370 1321 1420 1352 1371 1341 1342 1368 1361 1333 1317 1323 1356 1321 1372 1339 1365 1364 1374 1365 1372 1333 1390 1320 1385 1391 1274 1378 1331 1313 1382 1316 1359 1335 1394 1403 1370 1386 1323 1331 1382 1364 1355 1359 1323 1357 1303 1389 1310 1310 1375 1329 1377 1415 1464 1306 1372 1377 1343 1345 1350 1335 1298 1364 1359 1354 1329 1386 1327 1400 1337 1371 1319 1365 1368 1354 1428 1321 1336 1377 1365 1374 1415 1380 1311 1393 1387 1350 1352 1403 1388 1436 1376 1397 1429 1336 1347 1359 1285 1314 1468 1351 1335 1431 1358 1330 1339 1308 1299 1415 1380 1347 1387 1355 1353 1337 1337 1387 1366 1307 1367 1342 1313 1300 1341 1331 1348 1306 1301 1360 1305 1333 1341 1291 1301 1350 1386 1292 1296 1266 1319 1225 1351 1323 1363 1332 1325 1295 1192 1364 1361 1279 1236 1335 1349 1311 1308 1234 1332 1288 1236 1334 1256 1252 1213 1323 1300 1327 1333 1271 1241 1229 1247 1254 1219 1340 1306 1303 1288 1392 1341 1275 1317 1311 1275 1247 1256 1287 1268 1224 1272 1330 1235 1228 1266 1261 1262 1319 1401 1327 1356 1278 1240 1361 1286 1334 1322 1304 1344 1339 1344 1370 1365 1307 1263 1367 1276 1351 1372 1246 1366 1299 1344 1296 1293 1338 1283 1315 1333 1277 1349 1304 1406 1416 1347 1465 1436 1389 1447 1431 1433 1497 1424 1499 1471 1452 1438 1482 1427 1410 1384 1404 1471 1441 1427 1429 1436 1416 1424 1465 1373 1387 1385 1431 1399 1374 1327 1340 1345 1302 1344 1291 1272 1272 1295 1260 1269 1285 1190 1211 1276 1193 1221 1232 1245 1223 1272 1302 1225 1276 1262 1259 1205 1274 1257 1196 1204 1213 1180 1200 1156 1179 1229 1191 1199 1232 1181 1221 1159 1172 1221 1171 1191 1226 1167 1160 1187 1185 1170 1171 1200 1164 1159 1175 1208 1226 1183 1177 1197 1231 1137 1256 1242 1168 1270 1218 1268 1309 1233 1394 1381 1416 1438 1537 1566 1645 1687 1801 1926 2067 2265 2455 2736 2921 3194 3459 3707 3907 4277 4236 4275 4241 4231 4154 4181 4101 3908 3811 3629 3562 3473 3291 3236 3088 2961 2789 2785 2655 2561 2485 2439 2304 2407 2298 2110 2309 2106 2136 2082 2105 2168 2091 2186 2253 2124 2312 2257 2306 2333 2320 2276 2400 2303 2307 2253 2228 2203 2182 2123 2019 2005 1922 1840 1686 1653 1690 1641 1615 1614 1504 1526 1468 1511 1517 1500 1500 1370 1315 1369 1360 1327 1309 1346 1272 1315 1298 1298 1287 1254 1306 1303 1311 1217 1307 1184 1204 1168 1194 1201 1227 1193 1126 1187 1234 1186 1122 1178 1147 1158 1139 1088 1129 1186 1040 1166 1063 1085 1098 1120 1121 1106 1123 1142 1109 1087 1094 1108 1074 1063 1102 1039 1063 1062 1035 1065 1044 1084 1107 1099 1095 1056 1087 1086 1075 1042 1101 1065 1035 1055 1091 1069 1129 1148 1082 1163 1121 1151 1106 1167 1215 1236 1248 1319 1416 1372 1452 1440 1592 1565 1732 1838 1821 1862 1822 1870 1765 1877 1870 1891 1809 1819 1750 1761 1669 1612 1685 1604 1604 1425 1463 1398 1413 1426 1392 1345 1344 1353 1415 1305 1335 1269 1316 1246 1359 1293 1295 1289 1310 1183 1311 1345 1252 1282 1328 1281 1234 1206 1220 1125 1254 1249 1253 1110 1221 1159 1136 1120 1102 1151 1133 1139 1096 1064 1130 1157 1107 1086 1023 1047 1062 1006 1064 1024 1027 1054 992 1015 940 1039 996 993 962 969 978 893 944 957 879 971 971 902 983 944 965 905 938 964 922 900 920 933 882 944 906 961 946 922 871 873 910 1017 834 889 905 917 849 880 859 854 914 881 872 813 839 853 911 874 847 814 805 834 930 841 908 855 850 875 791 911 835 812 881 887 828 884 863 797 862 909 850 846 892 877 881 898 900 821 913 856 851 857 894 855 876 846 909 880 890 861 819 868 869 910 886 882 850 829 899 860 898 900 881 917 860 897 897 929 883 894 886 919 879 870 914 877 941 896 915 874 905 931 905 922 903 925 908 927 957 920 933 985 974 975 1013 985 1016 1032 1013 955 1031 995 1054 1039 1050 963 980 982 1036 1008 1018 954 1036 1076 1023 1017 943 1006 978 989 944 966 1009 1032 983 1005 984 1025 1065 1044 1059 1023 1121 1093 1129 1219 1206 1229 1331 1476 1574 1609 1793 1906 2127 2200 2632 2846 3113 3278 3566 3704 4092 4058 4259 4291 4358 4342 4343 4155 4345 4148 3989 3779 3704 3560 3504 3455 3405 3145 3306 3038 2904 2746 2718 2637 2612 2533 2440 2376 2327 2309 2306 2218 2188 2169 2131 2014 1952 2024 2080 1996 1911 1957 1895 1965 1896 1886 1866 1869 1852 1777 1864 1714 1804 1735 1635 1639 1685 1558 1608 1538 1563 1465 1398 1391 1377 1326 1319 1311 1226 1170 1199 1180 1119 1171 1164 1095 1098 1009 1048 1072 1024 1051 1061 1008 1034 991 1026 977 1016 963 1038 990 1012 1028 1026 973 1001 968 960 988 977 939 966 1002 994 990 940 1000 1054 977 983 979 931 933 947 927 970 938 893 962 904 1010 949 940 862 914 899 884 941 926 937 858 918 880 850 836 849 840 849 845 849 840 855 823 826 893 853 806 771 826 720 817 827 828 828 768 839 793 800 775 794 838 827 798 807 824 795 765 815 847 790 822 850 837 764 695 787 839 736 799 781 766 782 782 757 794 773 772 738 729 798 745 738 754 754 798 751 774 726 767 772 747 757 814 806 811 818 764 853 819 809 852 768 765 805 759 780 780 757 800 778 846 803 756 780 727 758 775 725 774 758 762 794 755 755 754 775 760 816 780 745 755 715 774 770 765 730 756 723 709 734 743 770 732 700 689 734 684 766 776 728 735 724 713 725 732 739 725 753 742 735 714 686 725 722 648 706 758 716 683 746 710 739 738 753 737 751 709 744 733 692 755 703 766 750 738 700 698 723 709 730 758 726 717 732 737 681 727 730 745 749 717 730 716 749 697 684 760 737 725 715 717 745 711 667 677 715 702 647 690 663 682 725 676 730 681 704 667 740 667 717 719 699 672 640 703 628 707 704 718 673 654 684 700 671 647 679 662 703 720 665 739 708 688 723 730 684 702 682 678 692 702 720 656 709 684 688 677 744 682 714 683 659 704 721 702 704 671 626 657 698 707 675 712 723 670 703 717 731 686 719 710 708 687 732 670 674 656 688 704 644 694 667 670 705 676 685 654 670 749 702 724 740 708 655 707 685 693 691 682 641 680 658 643 721 640 664 705 650 625 727 647 714 685 664 633 664 629 648 658 713 618 648 641 684 577 658 643 632 608 659 642 618 631 675 620 644 609 642 680 665 686 655 679 586 650 690 595 670 626 676 637 646 616 668 646 669 641 707 682 661 670 633 672 669 635 628 648 617 652 600 611 669 676 606 659 592 692 634 641 662 593 688 640 645 666 641 668 599 606 650 626 624 643 640 635 649 661 605 624 655 652 671 682 676 646 653 623 708 641 612 613 609 652 692 641 665 625 617 643 689 607 666 632 662 649 646 651 659 654 643 618 629 625 668 660 691 677 656 703 648 735 651 680 668 618 687 673 664 654 732 664 705 677 666 708 692 703 670 787 715 791 797 773 827 856 760 779 801 887 872 919 907 958 994 1005 1010 1058 1018 1057 1010 968 1026 1045 1006 1066 994 988 1028 1020 1031 1000 886 958 948 898 897 943 829 885 907 862 913 828 823 854 844 803 909 806 775 799 867 810 722 740 767 782 712 774 782 825 719 743 741 727 699 719 739 748 719 737 687 746 692 657 675 702 653 677 653 641 668 613 681 615 650 655 641 667 591 638 622 661 624 612 631 598 654 613 643 602 601 600 634 636 613 634 630 619 625 602 623 562 648 607 627 619 675 617 576 669 655 640 608 622 645 626 618 612 604 610 587 591 602 639 616 618 642 656 554 610 603 615 617 575 673 617 622 629 645 621 635 601 612 600 608 640 633 605 638 600 622 630 584 635 558 628 630 584 598 665 642 655 641 615 644 652 614 642 708 683 657 649 696 715 663 714 675 635 658 662 643 699 708 655 636 648 617 682 620 660 681 649 670 638 658 695 627 631 677 720 615 643 695 640 644 641 665 624 658 625 681 661 636 677 646 623 689 643 664 657 650 662 635 696 662 623 647 621 656 676 664 678 633 700 659 684 671 665 662 702 661 596 659 653 651 649 636 680 657 606 634 666 624 590 680 586 606 615 560 624 647 614 612 656 615 602 608 612 641 615 604 646 638 591 603 559 612 610 578 618 605 559 590 573 609 619 598 599 660 574 615 643 611 629 638 600 629 621 594 620 639 626 675 623 619 657 648 642 613 597 594 571 688 609 616 612 619 657 621 604 584 620 594 589 618 634 608 566 605 630 611 584 620 640 557 615 609 612 619 599 602 565 565 571 598 640 594 693 634 603 624 566 616 640 585 596 606 602 580 620 621 609 612 649 623 633 588 613 620 590 593 638 624 667 621 651 676 701 708 708 717 774 754 775 874 840 862 916 923 928 852 906 865 896 891 913 949 944 873 893 915 864 939 849 887 899 854 879 845 825 845 806 787 790 828 782 748 769 738 731 729 703 769 734 732 673 713 709 693 687 661 706 642 688 686 621 673 705 622 654 690 631 619 619 652 613 616 639 626 636 626 609 642 587 601 585 592 581 586 547 601 538 606 570 590 561 540 576 539 588 560 627 556 570 585 599 567 598 602 555 613 576 618 598 588 578 565 609 600 619 597 569 602 575 592 575 566 562 591 596 590 520 559 578 560 590 619 577 579 617 571 550 615 603 557 597 574 567 614 568 574 567 545 552 544 576 530 563 581 576 557 582 546 582 552 520 563 559 558 595 544 536 546 544 584 558 548 567 591 564 568 548 569 561 501 556 527 513 511 522 496 520 559 556 543 607 566 521 574 536 589 538 561 583 551 542 551 565 503 576 518 542 554 542 558 551 533 597 534 533 574 541 530 580 551 550 533 578 543 540 521 549 542 558 516 546 567 569 512 568 523 551 533 541 559 548 550 591 551 562 597 532 567 584 555 534 622 559 568 559 517 539 551 551 539 549 635 564 547 550 562 569 546 556 595 549 524 572 580 609 547 620 569 605 596 649 555 614 579 600 620 617 666 676 630 659 648 601 604 656 668 607 657 652 649 665 682 686 649 700 637 664 704 668 707 655 642 677 673 652 625 650 638 678 667 722 688 669 689 639 625 693 656 642 649 658 641 648 668 660 656 658 679 642 668 623 641 678 659 683 729 722 768 701 732 736 757 779 860 870 829 856 829 906 878 883 884 878 846 886 902 863 875 861 881 917 865 873 869 824 860 848 823 818 830 799 824 857 897 795 902 914 881 885 987 1003 1099 1111 1193 1309 1472 1569 1662 1786 1850 1941 2086 2164 2326 2377 2443 2639 2619 2666 2654 2621 2703 2774 2672 2696 2638 2590 2705 2490 2659 2443 2402 2287 2254 2144 2048 2035 2028 2026 2099 1922 1980 1844 1861 1773 1697 1719 1606 1622 1532 1553 1439 1492 1479 1461 1376 1391 1353 1299 1216 1195 1289 1147 1129 1112 1100 1053 1060 995 987 997 953 953 952 908 869 863 888 863 875 802 819 858 881 828 818 838 813 872 794 803 772 857 848 840 839 779 837 770 838 797 824 862 829 792 752 811 779 769 759 791 728 752 677 731 738 774 697 749 728 706 707 679 647 680 710 646 689 671 674 639 635 676 655 679 641 650 608 620 631 655 649 659 582 614 628 672 617 676 602 606 622 589 562 561 588 586 634 572 604 584 611 592 567 581 542 537 560 582 562 546 618 546 590 516 573 559 512 534 583 527 574 564 559 545 545 535 523 580 490 543 541 539 563 522 531 577 567 585 549 519 529 499 551 582 540 544 551 555 542 554 520 573 494 525 541 565 552 504 479 541 475 531 545 565 562 548 579 549 618 571 543 644 585 620 615 685 647 665 664 660 681 691 672 688 638 645 589 683 662 692 655 659 673 678 653 629 670 620 633 622 631 642 644 649 608 609 591 591 649 612 610 591 616 574 608 630 583 625 582 591 600 620 537 591 574 572 561 571 563 535 549 573 611 565 547 596 545 596 533 504 535 533 514 542 566 514 522 508 540 543 558 542 554 517 572 505 525 573 502 522 500 517 570 510 516 521 556 560 517 516 515 532 490 546 508 557 562 582 525 554 505 511 494 553 529 563 514 541 509 541 530 516 531 513 465 580 542 567 554 509 535 532 576 542 541 493 526 502 514 491 567 497 550 515 510 515 523 484 499 570 517 502 511 492 479 511 526 536 523 527 536 518 551 514 561 504 494 494 516 542 532 518 480 547 510 571 531 578 543 553 562 550 544 550 645 542 537 560 562 590 598 544 576 546 583 594 567 551 579 567 602 564 541 580 569 577 555 538 544 522 525 510 507 555 502 522 486 504 501 493 497 511 487 507 477 514 497 441 464 464 488 536 528 491 465 486 440 502 440 465 464 495 439 484 451 451 505 460 459 496 469 473 438 482 502 514 454 483 483 439 466 425 462 439 479 439 502 469 414 477 466 489 424 482 484 482 445 474 463 471 469 450 445 476 459 412 493 472 472 466 513 421 491 499 513 479 472 488 458 455 469 475 492 464 481 487 478 515 477 443 509 482 457 453 484 482 431 453 490 440 421 392 469 433 436 459 472 433 514 453 483 503 450 478 444 433 475 433 509 497 444 455 480 475 455 420 482 457 442 424 441 456 476 478 457 450 476 489 430 493 457 445 446 463 483 399 453 444 452 450 451 486 450 495 449 437 440 422 460 426 450 471 489 409 452 472 463 446 438 433 474 459 505 398 444 463 434 472 435 433 476 425 414 469 477 434 493 425 454 436 421 414 424 449 491 435 438 460 463 427 477 396 417 465 449 468 477 469 461 465 474 454 454 436 447 472 482 494 470 461 437 453 461 468 463 522 461 480 518 437 459 476 439 470 514 435 463 462 437 456 458 459 415 483 469 471 500 466 442 477 418 476 458 486 446 463 484 470 493 479 457 475 498 484 489 516 458 527 452 449 483 436 471 423 459 473 450 469 431 477 508 490 507 446 437 449 465 494 454 454 455 481 419 485 466 460 492 452 503 463 480 464 476 432 472 466 444 459 407 427 448 464 477 492 502 468 454 453 453 480 459 398 460 484 467 458 483 492 412 472 409 434 445 440 465 508 470 440 450 452 462 415 428 455 439 457 509 498 460 488 499 532 486 488 482 454 507 500 537 478 539 471 496 456 530 475 490 512 439 486 504 476 489 492 545 468 523 540 507 522 468 469 442 528 512 548 526 482 476 496 490 497 517 536 563 546 554 563 560 570 606 560 657 617 671 679 687 774 793 841 815 880 921 939 970 1004 991 1045 1054 1108 1083 1041 1133 1160 1115 1090 1099 1119 1059 1119 1129 1084 1066 1050 1068 1056 1044 1032 1017 1004 922 930 947 961 893 876 790 902 830 855 875 762 798 801 804 718 697 710 740 677 706 715 660 721 726 688 666 706 720 642 722 677 696 651 670 601 660 613 641 633 609 631 597 630 635 642 602 610 609 562 591 604 585 573 595 540 578 658 612 589 619 592 603 623 597 597 606 595 611 600 674 590 657 610 574 630 633 612 623 595 602 613 602 635 607 589 612 588 584 583 603 555 565 585 561 543 516 564 516 560 553 549 565 528 527 520 525 511 565 544 516 509 485 526 523 484 499 526 505 455 520 449 492 487 495 491 498 515 496 459 496 501 455 454 457 451 468 452 464 463 481 438 431 421 483 451 466 478 444 454 500 459 486 444 459 453 493 410 466 406 412 388 466 403 425 427 409 475 444 410 408 432 407 447 469 467 473 451 428 421 438 464 443 464 462 445 383 397 442 448 480 461 459 471 460 438 459 420 475 478 498 465 448 444 431 495 452 452 434 430 456 507 460 474 490 459 498 460 507 481 481 479 525 493 536 515 556 585 593 583 627 658 665 653 673 759 800 756 840 832 902 880 877 934 914 893 985 909 1035 1073 928 1011 971 982 986 982 1007 897 906 967 923 920 918 892 863 915 857 837 846 765 774 727 735 717 709 713 706 672 687 643 692 635 622 643 660 591 655 596 653 632 559 591 526 619 566 543 504 539 540 541 536 503 476 504 495 490 491 460 482 502 517 500 505 506 494 515 476 478 455 477 462 479 503 473 508 471 491 482 460 470 488 517 534 525 546 514 506 522 492 527 508 469 514 524 490 492 486 486 495 520 475 497 482 507 489 481 428 446 491 487 471 465 491 449 486 490 445 505 434 429 484 451 466 464 449 433 451 468 461 497 444 445 436 494 477 459 419 478 440 505 406 430 446 412 454 441 435 489 449 475 425 458 453 439 466 452 417 426 512 481 483 486 489 461 470 441 470 477 492 469 492 489 464 456 452 467 502 457 509 511 467 504 505 509 503 519 542 506 506 523 547 539 532 544 509 477 490 540 475 516 555 522 509 527 528 502 543 540 490 526 493 505 496 477 492 498 471 467 458 457 490 469 432 494 442 483 444 432 463 455 476 493 435 426 423 415 428 433 449 425 421 440 437 420 430 468 434 381 458 429 434 466 399 411 405 393 407 410 396 422 385 437 414 418 404 420 386 415 426 413 396 377 419 384 403 380 394 431 424 437 367 390 402 357 411 387 411 441 458 401 369 421 396 421 398 398 421 412 420 378 411 419 417 388 390 366 424 401 430 381 403 384 399 413 413 413 426 421 429 408 437 357 410 384 384 383 383 423 357 428 369 362 410 417 389 408 391 429 410 426 373 411 416 399 408 379 398 397 403 453 435 418 414 458 403 427 446 439 445 462 384 423 414 433 479 439 467 474 446 437 452 412 446 444 443 399 398 449 464 468 466 427 425 452 422 470 419 426 408 466 427 398 384 414 442 421 463 399 420 402 426 412 440 382 389 395 436 425 392 416 427 420 400 425 419 419 358 387 402 395 406 433 383 382 354 369 403 457 393 372 390 367 389 400 406 384 390 367 377 395 390 391 418 347 399 375 392 366 393 399 430 397 368 404 372 385 387 385 424 383 377 395 394 378 361 385 398 432 376 414 407 333 404 347 361 424 389 385 390 363 413 369 399 401 392 414 400 380 384 364 381 393 378 396 387 392 399 414 396 405 351 377 430 358 387 393 405 384 381 396 399 415 378 390 404 354 352 357 401 361 377 423 406 390 398 368 384 375 419 391 369 411 381 388 359 414 361 399 409 399 371 403 361 386 401 346 444 401 372 383 418 357 355 373 394 415 399 350 397 355 391 375 391 368 337 374 399 428 371 392 385 345 348 349 382 376 396 406 385 360 398 395 356 380 391 408 442 370 404 345 393 374 417 440 383 420 442 345 446 392 415 431 391 404 382 357 384 417 424 395 404 397 391 407 407 423 383 398 407 374 416 385 394 381 340 402 381 336 395 335 380 391 326 345 395 385 386 396 433 389 353 386 361 346 375 382 379 362 385 354 360 373 357 374 370 356 388 379 378 365 395 358 394 357 386 395 420 364 340 365 366 387 390 380 402 412 432 437 390 425 398 425 425 413 452 421 387 413 460 410 425 386 469 429 415 484 423 398 435 462 435 419 437 408 401 415 407 436 445 424 395 424 376 415 378 423 429 403 385 381 408 417 418 413 427 349 418 371 385 384 378 401 359 359 400 395 384 355 405 383 368 352 362 370 385 420 394 399 452 441 361 407 366 378 340 394 356 345 402 405 380 390 353 342 346 331 385 311 401 369 353 362 347 355 300 358 352 372 358 355 380 371 346 366 353 375 367 336 385 387 358 372 349 366 336 334 329 343 362 360 388 327 320 371 353 374 388 341 354 345 336 365 366 373 337 364 360 321 337 371 349 363 376 348 341 356 369 378 309 344 357 319 386 318 368 355 350 343 405 351 365 348 358 379 376 388 416 340 369 357 375 348 341 345 388 385 365 330 369 387 374 386 375 352 371 323 366 324 357 316 379 398 372 410 358 398 399 347 378 368 369 347 363 360 386 318 341 374 325 347 362 383 370 361 352 376 354 366 347 362 319 343 324 330 367 354 334 382 340 371 367 378 314 325 363 375 338 351 346 364 338 375 357 353 346 319 380 355 338 331 363 359 357 336 376 341 386 342 352 372 376 337 379 356 365 340 360 362 371 393 390 399 373 358 395 346 374 382 394 383 367 399 330 393 385 356 418 374 398 349 380 370 408 404 389 435 392 410 425 417 429 428 475 481 471 505 553 502 520 498 547 489 520 521 536 529 549 561 512 558 536 540 523 527 552 544 519 540 560 547 547 593 556 559 500 549 595 523 542 498 513 518 489 517 501 496 531 430 508 466 466 484 456 451 406 427 451 423 453 428 411 403 438 440 397 441 380 354 387 417 366 415 433 409 325 386 377 379 370 398 360 400 383 411 401 372 362 395 359 344 398 385 414 372 377 393 345 327 356 342 379 346 371 375 345 363 336 354 363 374 378 358 349 331 385 402 361 394 392 372 421 376 380 377 348 353 410 361 363 382 392 404 376 381 392 466 369 405 419 369 416 377 363 398 363 416 407 406 401 406 386 386 373 387 394 349 387 399 346 384 356 378 357 401 394 391 408 391 357 377 373 386 376 378 387 365 389 365 370 378 380 391 348 424 411 369 374 412 385 360 356 371 362 372 381 350 348 401 367 357 346 367 389 364 382 336 414 371 380 356 393 337 378 367 379 438 375 384 370 364 355 385 369 379 369 391 370 350 336 437 386 390 393 364 363 376 378 362 358 395 406 371 382 362 355 352 412 396 356 364 378 368 350 360 370 388 380 315 415 353 398 356 398 347 369 367 393 366 355 374 363 386 302 377 379 317 366 355 322 372 372 382 360 349 346 370 375 371 345 344 350 368 352 374 390 383 351 339 363 356 364 383 409 368 401 427 371 385 389 364 383 358 350 338 353 357 398 371 374 355 380 378 334 352 367 367 397 395 378 337 363 357 380 374 379 382 361 362 342 355 366 377 342 384 351 329 350 372 338 346 347 327 355 374 382 350 342 403 358 370 368 351 372 339 352 357 330 319 356 318 371 354 314 333 359 388 366 346 335 351 359 324 350 363 345 378 342 369 348 316 351 366 362 344 380 361 355 337 417 361 354 361 375 326 345 361 336 363 365 339 370 321 332 349 330 343 339 311 321 341 347 328 347 301 356 300 351 375 363 352 359 348 363 358 343 355 368 342 321 402 371 333 330 330 375 350 351 359 364 323 358 321 336 359 366 358 349 334 349 332 316 377 368 368 349 343 350 378 371 378 351 363 334 357 363 341 375 360 364 383 350 322 371 324 374 392 352 393 324 358 382 331 378 362 406 343 371 366 347 390 369 386 377 356 427 367 377 357 393 366 408 389 377 401 389 360 356 399 372 390 389 375 386 373 371 346 398 340 360 348 376 373 336 369 323 364 385 359 334 358 396 378 354 410 373 350 343 369 348 371 320 346 391 331 390 353 334 348 351 326 331 374 341 386 314 343 378 433 374 379 352 351 375 325 360 367 391 345 362 389 352 380 361 353 384 397 338 356 354 349 388 359 363 386 393 366 329 384 385 301 356 380 349 360 414 357 349 351 359 354 380 392 345 350 332 337 375 385 345 378 349 366 377 336 379 383 379 369 395 358 341 366 377 362 364 347 337 366 368 359 369 371 368 351 382 372 388 398 367 377 351 374 398 397 404 389 400 462 375 395 418 448 406 470 438 405 399 435 416 431 418 456 412 470 411 423 427 455 387 458 409 480 431 447 410 442 424 402 454 417 426 414 456 454 441 421 407 398 423 402 461 460 451 415 483 464 444 466 475 482 479 509 530 509 549 511 534 556 549 613 567 568 592 638 555 608 698 587 636 590 560 599 649 635 630 616 612 612 613 596 640 620 625 628 639 571 547 568 563 509 588 576 512 559 512 516 539 524 522 529 479 509 523 505 534 458 506 477 508 464 452 457 437 452 410 442 459 400 431 389 443 439 435 417 385 438 351 406 383 404 426 421 445 396 417 386 393 407 372 378 409 409 419 358 419 390 393 393 429 382 406 372 362 379 376 413 356 390 401 408 420 356 419 409 392 407 397 437 422 397 370 402 366 358 382 430 435 390 413 378 394 431 428 373 437 441 463 440 360 400 424 397 438 420 390 437 428 412 434 431 398 395 431 427 453 386 451 429 438 449 412 408 450 453 438 479 414 425 410 425 416 428 399 452 429 435 408 427 419 375 392 409 458 398 419 402 435 442 429 489 418 427 469 406 435 439 428 463 441 437 456 465 494 444 420 399 422 441 447 463 477 440 465 451 423 451 425 448 489 481 500 486 497 477 519 545 579 554 563 622 609 584 614 626 683 665 712 724 718 772 751 763 803 799 785 812 757 792 814 784 811 812 808 752 837 801 772 798 767 788 778 811 832 763 761 755 762 702 732 755 724 739 685 662 726 723 694 657 638 676 626 660 637 605 574 570 536 526 548 585 551 520 508 475 527 450 487 484 486 484 514 437 457 414 440 437 442 465 393 439 409 417 450 401 418 418 406 394 347 401 442 399 411 408 398 394 355 406 426 387 404 429 435 401 426 380 376 389 439 402 377 433 362 429 408 401 426 430 386 401 351 418 395 355 379 376 400 381 403 373 384 376 356 377 351 400 407 383 418 389 409 417 394 369 385 402 385 440 363 387 369 421 412 398 421 394 447 391 425 389 402 433 416 395 433 418 425 388 454 432 410 425 449 431 408 445 452 415 418 448 413 401 409 366 455 414 427 411 383 423 388 373 424 450 420 392 422 377 383 400 395 391 370 425 388 417 439 392 415 379 410 382 393 380 442 404 397 406 405 399 405 378 410 360 384 394 377 372 417 384 402 365 393 364 370 367 378 384 385 361 365 369 388 372 384 377 336 382 354 354 397 381 345 375 375 332 413 360 454 385 384 347 375 372 385 357 370 344 381 358 385 373 345 384 357 347 348 362 383 389 394 367 385 368 363 379 374 365 364 375 410 384 385 405 347 421 360 379 378 397 439 370 376 406 360 396 393 394 377 382 381 385 416 393 403 443 413 418 407 388 396 438 390 438 432 405 362 400 407 401 388 418 416 414 424 423 399 390 415 436 412 415 408 408 394 404 367 387 388 410 421 385 411 389 389 388 397 362 358 376 379 337 385 337 353 370 395 391 322 364 377 315 348 368 360 347 340 341 351 343 347 384 363 384 354 301 353 340 357 344 327 368 347 365 309 361 305 321 331 332 339 376 310 333 329 305 379 326 368 383 356 328 336 353 314 359 364 335 360 308 336 365 364 340 367 332 366 391 368 361 359 315 360 336 396 326 383 358 342 345 306 323 350 341 364 357 371 330 384 307 362 372 333 348 359 346 328 305 330 335 329 346 316 359 364 369 324 345 335 334 314 347 319 347 329 328 345 329 337 295 359 319 356 317 316 334 374 349 377 327 319 392 352 352 354 361 347 384 346 379 345 334 345 326 310 405 344 342 346 347 337 383 337 374 361 365 341 311 329 320 332 356 337 325 294 343 316 335 329 371 334 369 337 333 357 351 313 344 303 314 339 330 337 352 325 339 306 340 311 365 346 377 331 373 336 328 370 323 357 334 338 336 327 326 384 325 350 317 341 297 335 351 350 330 331 362 316 316 370 334 365 366 363 365 358 339 374 328 346 304 354 315 325 334 294 365 352 321 318 361 324 325 312 335 380 340 345 343 363 314 348 353 342 384 375 347 335 368 337 331 317 339 348 357 364 343 359 332 382 335 337 318 323 377 323 363 355 370 386 345 382 379 372 370 351 344 345 373 377 400 380 373 403 368 396 386 375 435 412 366 360 390 372 363 366 419 368 375 418 420 365 423 352 373 411 381 410 364 374 381 375 394 392 354 378 365 335 347 405 369 374 369 341 363 384 369 392 342 389 346 328 391 363 362 360 349 360 383 385 383 366 333 339 348 357 350 381 352 345 378 358 364 370 344 351 350 340 376 346 315 344 352 340 348 364 311 339 317 354 315 377 327 347 357 348 346 319 365 355 359 355 358 322 304 390 325 346 380 318 371 340 318 338 327 326 340 357 364 377 342 348 313 364 360 364 355 343 352 329 312 373 346 372 320 320 325 343 372 368 322 367 371 342 342 360 354 340 374 353 367 347 380 344 363 384 349 347 350 355 333 296 360 336 382 306 333 325 375 320 379 360 392 401 394 333 352 362 381 329 395 366 327 334 372 348 346 341 333 312 367 353 332 326 395 348 374 355 381 368 387 380 349 354 391 324 380 373 322 327 331 309 332 305 348 379 317 376 367 336 373 367 354 364 379 335 354 347 390 318 329 356 362 345 334 316 372 391 342 389 355 337 393 360 335 370 359 408 325 360 387 329 389 351 368 398 384 384 430 418 411 427 412 473 469 423 471 493 494 498 507 492 490 524 517 537 570 574 576 619 634 627 631 593 613 668 620 650 660 618 644 675 618 662 607 657 648 648 639 632 671 653 655 590 660 683 654 625 636 628 608 673 610 581 595 569 608 548 633 580 544 553 526 577 516 510 510 527 497 457 514 482 520 493 484 462 440 427 456 467 417 429 449 407 448 437 421 411 400 415 410 400 366 380 420 391 367 423 372 406 371 397 354 385 389 375 374 363 408 362 341 398 313 366 384 351 404 374 377 375 389 369 362 394 391 389 388 348 378 382 375 355 377 336 374 374 346 362 359 337 378 332 377 350 332 352 373 368 348 353 388 350 352 345 366 362 330 292 349 347 385 337 311 381 358 355 356 349 346 381 367 375 354 334 343 385 311 330 393 401 375 356 372 429 371 379 402 408 361 364 411 401 384 349 397 349 378 360 390 371 388 379 382 376 388 350 387 351 363 383 379 383 403 364 384 364 390 390 419 351 402 375 362 363 349 347 413 400 377 417 391 384 390 366 397 362 363 355 357 401 367 362 375 359 376 357 350 361 376 370 373 401 349 336 341 316 388 351 376 353 350 341 343 386 357 360 374 412 333 408 316 381 390 359 359 355 382 360 353 356 391 343 364 334 344 345 359 381 330 354 332 344 338 311 339 335 346 320 309 366 319 352 355 339 369 319 329 349 314 315 338 300 344 341 321 324 334 309 335 325 349 329 340 331 356 326 332 333 356 309 285 353 317 326 316 326 325 352 343 311 350 319 333 319 328 284 302 346 303 363 299 353 317 343 343 346 359 302 342 344 319 328 344 304 323 330 308 349 322 313 334 326 326 333 320 305 320 309 295 334 344 298 349 319 306 311 335 282 317 329 317 292 333 321 305 321 339 310 346 311 336 365 328 319 312 337 313 322 296 301 309 343 337 322 373 309 303 334 310 309 304 311 344 345 321 322 323 343 317 327 339 303 301 311 311 329 311 328 309 318 336 316 286 314 345 327 317 284 325 322 354 318 308 309 331 345 320 325 328 353 341 323 326 378 347 345 288 307 333 329 312 315 295 342 350 325 335 318 334 291 248 333 355 316 326 339 356 290 344 290 347 345 318 328 351 304 324 297 319 300 324 318 317 301 357 324 334 324 334 305 292 334 312 297 342 295 344 306 333 292 326 299 318 329 328 316 311 313 307 329 369 297 313 317 340 314 328 336 328 365 304 315 338 346 284 312 286 306 328 298 294 293 321 343 322 328 339 307 320 310 312 310 301 290 315 328 302 313 327 303 345 303 347 327 307 308 306 297 342 300 336 322 328 316 364 313 288 313 315 311 321 302 333 324 290 342 325 300 303 313 333 329 318 339 330 314 308 343 315 338 345 309 354 299 330 323 314 343 322 332 325 326 328 345 329 341 381 322 359 365 334 355 312 341 353 363 351 315 367 333 372 395 370 374 333 381 356 419 381 382 399 373 407 382 396 413 409 379 395 388 391 366 390 423 385 418 398 426 422 376 402 410 441 385 434 398 379 420 349 434 390 377 421 453 388 406 415 429 440 401 400 378 413 433 408 398 395 402 426 409 443 436 431 446 442 402 411 418 457 427 442 453 424 446 444 462 431 473 434 442 412 438 451 433</counts>
			</dataPoints>
		</scan>
	</xrdMeasurement>
</xrdMeasurements>
