<?xml version="1.0"?>
<xrdMeasurements xmlns="http://www.xrdml.com/XRDMeasurement/2.3" xmlns:xsi="http://www.w3.org/2001/XMLSchema-instance" xsi:schemaLocation="http://www.xrdml.com/XRDMeasurement/2.3 http://www.xrdml.com/XRDMeasurement/2.3/XRDMeasurement.xsd" status="Completed" recordIdentifier="{0C68A9B1-AFF5-4982-8BFB-1A64459A28C2}">
	<comment>
		<entry/>
	</comment>
	<sample type="To be analyzed">
		<id>GPSS_Li1p4Mn0p8Ta0p2Cl4_110625_690d9f07f040177efa2b78ec</id>
		<name></name>
		<preparedBy></preparedBy>
	</sample>
	<xrdMeasurement measurementType="Scan" status="Completed" sampleMode="Reflection">
		<usedWavelength intended="K-Alpha 1">
			<kAlpha1 unit="Angstrom">1.5405980</kAlpha1>
			<kAlpha2 unit="Angstrom">1.5444260</kAlpha2>
			<kBeta unit="Angstrom">1.3922500</kBeta>
			<ratioKAlpha2KAlpha1>0.5000</ratioKAlpha2KAlpha1>
		</usedWavelength>
		<incidentBeamPath>
			<radius unit="mm">145.00</radius>
			<xRayTube id="1010048" name="Empyrean Cu LFF HR (9430 033 7310x)">
				<tension unit="kV">40.0</tension>
				<current unit="mA">15.0</current>
				<anodeMaterial>Cu</anodeMaterial>
				<focus type="Line">
					<length unit="mm">12.0</length>
					<width unit="mm">0.4</width>
					<takeOffAngle unit="deg">6.0</takeOffAngle>
				</focus>
			</xRayTube>
			<sollerSlit id="21010002" name="Soller slits 0.04 rad.">
				<opening unit="rad">0.0400</opening>
			</sollerSlit>
			<mask id="22031000" name="Fixed mask 13 mm">
				<width unit="mm">9.00</width>
			</mask>
			<divergenceSlit id="22120001" name="Divergence slit 1°" xsi:type="fixedDivergenceSlitType">
				<distanceToSample unit="mm">50.00</distanceToSample>
				<height unit="mm">1.52</height>
			</divergenceSlit>
		</incidentBeamPath>
		<sampleMovement xsi:type="spinningSampleMovementType">
			<spinnerRevolutionTime unit="seconds">1.0</spinnerRevolutionTime>
		</sampleMovement>
		<diffractedBeamPath>
			<radius unit="mm">145.00</radius>
			<antiScatterSlit id="22090040" name="AS slit 9 mm (PIXcel)" xsi:type="fixedAntiScatterSlitType">
				<height unit="mm">9.00</height>
			</antiScatterSlit>
			<sollerSlit id="21020003" name="Large Soller slits 0.04 rad.">
				<opening unit="rad">0.0400</opening>
			</sollerSlit>
			<filter id="20030001" name="Large beta-filter Nickel">
				<material>Ni</material>
				<thickness unit="mm">0.020</thickness>
			</filter>
			<detector id="7010019" name="PIXcel1D-Medipix3 detector" xsi:type="rtmsDetectorType">
				<phd unit="keV">
					<lowerLevel>4.02</lowerLevel>
					<upperLevel>11.27</upperLevel>
				</phd>
				<mode>Scanning</mode>
				<activeLength unit="deg">5.542</activeLength>
			</detector>
		</diffractedBeamPath>
		<scan appendNumber="0" mode="Continuous" scanAxis="Gonio" status="Completed">
			<header>
				<startTimeStamp>2025-11-11T14:47:36-08:00</startTimeStamp>
				<endTimeStamp>2025-11-11T14:55:43-08:00</endTimeStamp>
				<author>
					<name>AutomatedUser</name>
				</author>
				<source>
					<applicationSoftware version="1.7b (136)">PANalytical Aeris Instrument Suite</applicationSoftware>
					<instrumentControlSoftware version="3.2.00000000 20240306">AERIS</instrumentControlSoftware>
					<instrumentID>950485</instrumentID>
				</source>
			</header>
			<dataPoints>
				<positions axis="2Theta" unit="deg">
					<startPosition>10.00943322</startPosition>
					<endPosition>99.99442286</endPosition>
				</positions>
				<positions axis="Omega" unit="deg">
					<startPosition>5.00471661</startPosition>
					<endPosition>49.99721143</endPosition>
				</positions>
				<commonCountingTime unit="seconds">12.495</commonCountingTime>
				<counts unit="counts">2905 2944 2859 2884 2797 2902 2739 2911 2809 2940 2843 2901 2822 2909 2817 2865 2863 2818 2751 2796 2866 2977 2837 2804 2877 2877 2837 2921 2877 2883 2845 2898 2824 2873 2785 2848 2761 2891 2826 2921 2839 2910 2972 2831 2927 2940 2929 2860 2911 2847 2977 2858 2829 2803 2882 2887 2893 2911 2923 2873 2879 2905 2834 2935 2839 2983 2902 2786 2994 2933 2864 2945 3052 2975 2910 2989 2882 2964 2964 3029 3043 2919 2899 2942 2923 2930 2989 2953 3001 2929 2909 2965 2973 3005 2892 2958 3003 2918 2932 2976 2955 2936 3001 2965 2859 2910 2939 2883 2961 2922 3001 2865 2904 2997 2904 2878 2905 2797 3033 2905 2812 2919 2932 2851 2896 2934 2935 2869 2957 2896 2932 2914 2894 2815 2820 2831 2939 2824 2865 2898 2920 3018 2939 2860 2803 2794 2854 2896 2790 2822 2855 2841 2888 2968 2845 2859 2893 2782 2843 2831 2816 2856 2838 2823 2952 2823 2826 2831 2839 2912 2863 2868 2863 2742 2854 2872 2875 2862 2831 2755 2831 2879 2826 2792 2856 2816 2767 2862 2870 2786 2884 2846 2859 2760 2817 2910 2893 2836 2825 2797 2814 2896 2816 2897 2792 2823 2815 2783 2746 2743 2782 2878 2830 2840 2787 2766 2842 2792 2860 2856 2789 2782 2807 2814 2846 2687 2853 2847 2813 2797 2928 2802 2802 2852 2829 2882 2918 2848 2766 2885 2796 2831 2774 2845 2865 2834 2820 2752 2752 2811 2872 2871 2893 2813 2788 2782 2701 2787 2900 2902 2876 2821 2763 2903 2864 2784 2862 2849 2839 2898 2918 2809 2834 2848 2855 2892 2856 2896 2887 2818 2844 2859 2892 2821 2879 2938 2919 2909 2856 2831 3029 2913 2837 2974 2828 3002 2956 2928 2878 2939 2891 2976 2957 2845 2867 3014 2985 2983 3003 3044 2904 3006 3036 3041 2977 2999 3024 2973 3050 3086 3127 2993 2999 3043 2972 3126 2949 3167 3062 3018 3221 3127 3036 3078 3193 3061 3139 3128 3140 3119 3062 3097 3036 3105 3138 3289 3124 3261 3139 3136 3193 3189 3218 3241 3154 3221 3230 3134 3252 3179 3218 3176 3248 3319 3153 3287 3205 3323 3234 3330 3299 3293 3344 3388 3249 3365 3333 3382 3460 3482 3371 3430 3431 3524 3454 3548 3504 3588 3586 3569 3564 3408 3621 3589 3638 3576 3623 3560 3751 3866 3725 3665 3852 3810 3951 4036 4021 4050 4129 4280 4269 4423 4487 4414 4584 4561 4736 4804 4733 4794 4882 4827 4882 4790 5011 4968 4956 4951 4906 4906 4890 4934 4897 4849 5137 4976 4942 5167 4985 5118 5020 4926 5098 4945 4877 4837 4841 4798 4721 4702 4620 4653 4494 4582 4385 4506 4444 4541 4432 4414 4322 4339 4331 4313 4227 4289 4266 4048 4187 4109 4077 4000 3998 3975 3947 3955 3915 3825 3854 3848 3782 3905 3786 3813 3874 3814 3787 3804 3746 3807 3727 3740 3699 3711 3854 3725 3720 3741 3611 3721 3597 3683 3733 3673 3662 3630 3514 3611 3536 3518 3556 3550 3570 3461 3518 3478 3428 3520 3646 3343 3400 3458 3450 3413 3475 3475 3367 3485 3401 3511 3266 3363 3318 3439 3413 3465 3380 3255 3328 3416 3397 3368 3284 3432 3360 3286 3340 3357 3309 3328 3301 3347 3400 3256 3261 3309 3397 3272 3292 3264 3255 3226 3227 3209 3284 3227 3243 3381 3260 3396 3304 3257 3339 3273 3271 3279 3159 3308 3237 3208 3214 3280 3182 3237 3177 3202 3228 3203 3316 3295 3261 3216 3234 3201 3129 3180 3176 3070 3213 3102 3146 3171 3137 3184 3163 3237 3309 3170 3194 3159 3227 3173 3172 3258 3079 3155 3119 3069 3075 3109 3131 3033 3218 3038 3168 3176 3058 3156 3027 3052 3118 3167 3157 3211 3168 3095 3147 3088 3145 3052 3150 3108 3024 2958 3115 3087 3119 3108 3087 3132 3060 3054 3081 3053 3082 3054 3033 3157 3157 3040 3113 3013 2989 3124 3103 3021 3067 3105 3096 3114 3018 3043 3011 2996 3017 3055 3118 3044 3110 3082 3142 2987 3024 3074 2998 2978 3003 3008 3006 3034 3043 3108 3064 3014 2977 2974 2955 3126 2967 3034 3077 2958 3041 3043 3074 2951 3082 3038 3004 3030 3027 2947 3065 2958 2980 3122 2924 2910 2951 3018 2988 2992 3006 3013 3030 3047 2975 3167 3027 3016 2970 2971 3015 2939 3010 3071 3100 3021 2937 3013 2969 3051 3052 2990 2944 2970 3034 2978 2973 2961 2962 3032 2855 3009 3020 3019 2993 2983 2941 2933 3020 3000 2989 2940 2951 3014 3062 2915 3089 3034 2999 3088 2991 2983 2968 2989 3081 2923 2939 2884 2976 3099 2973 2903 2958 2936 3097 3008 2902 2943 3026 2988 2886 2982 2956 2883 2993 2989 3020 2926 3003 2997 2983 2899 2910 2860 3037 2895 3043 3039 2790 2920 2966 2923 2971 2955 2812 3011 2980 2926 2879 2864 2962 2886 2969 2923 2926 2995 2952 2840 2928 3016 2880 2900 2916 2995 2865 2893 2967 2966 2931 2815 2911 2865 2942 2798 2913 2903 2926 2897 2884 2882 2804 2958 2983 2924 2870 2917 2896 2823 2835 2843 2960 2860 2878 2822 2971 2889 2846 2932 2762 2836 2805 2922 2829 2901 2804 2895 2834 2911 2805 2811 2924 2777 2849 2816 2858 2927 2871 2862 2826 2704 2890 2783 2731 2855 2721 2723 2799 2910 2845 2777 2862 2837 2815 2816 2879 2797 2770 2838 2728 2718 2874 2853 2846 2806 2801 2808 2799 2819 2825 2701 2797 2777 2720 2775 2801 2747 2767 2714 2722 2767 2744 2687 2669 2837 2736 2704 2829 2747 2848 2848 2891 2826 2735 2794 2730 2739 2833 2767 2764 2823 2774 2737 2773 2702 2770 2762 2728 2692 2751 2725 2680 2868 2802 2801 2837 2727 2734 2796 2738 2724 2738 2749 2759 2851 2735 2677 2764 2728 2722 2725 2671 2737 2706 2759 2695 2760 2752 2765 2755 2708 2775 2646 2746 2737 2702 2705 2740 2711 2730 2692 2727 2739 2703 2741 2731 2742 2588 2821 2750 2739 2649 2663 2795 2661 2677 2648 2795 2762 2700 2770 2657 2729 2700 2679 2763 2674 2849 2837 2661 2700 2746 2767 2763 2730 2767 2690 2686 2632 2727 2756 2829 2777 2712 2732 2758 2827 2745 2669 2747 2732 2746 2688 2709 2730 2714 2657 2782 2706 2740 2660 2723 2642 2792 2698 2757 2763 2732 2710 2763 2807 2739 2751 2781 2724 2594 2670 2771 2831 2733 2795 2799 2795 2727 2762 2685 2738 2710 2723 2803 2681 2752 2767 2765 2747 2679 2825 2646 2761 2813 2764 2801 2775 2660 2753 2807 2654 2774 2762 2717 2768 2642 2687 2685 2733 2756 2715 2790 2704 2805 2747 2716 2743 2707 2705 2695 2711 2755 2632 2672 2715 2750 2711 2605 2765 2657 2686 2699 2703 2602 2609 2665 2659 2798 2649 2681 2738 2598 2688 2712 2740 2634 2643 2718 2614 2613 2617 2560 2616 2631 2645 2646 2525 2674 2609 2595 2595 2618 2608 2621 2610 2557 2638 2572 2611 2599 2650 2647 2529 2614 2589 2631 2505 2532 2580 2464 2572 2530 2628 2498 2642 2562 2429 2542 2487 2513 2429 2519 2481 2441 2453 2372 2593 2551 2527 2439 2416 2515 2408 2408 2424 2498 2428 2479 2404 2454 2468 2540 2382 2479 2386 2429 2496 2548 2481 2401 2354 2395 2353 2495 2412 2338 2377 2381 2433 2354 2372 2303 2422 2363 2361 2368 2437 2332 2354 2312 2269 2369 2314 2350 2265 2322 2347 2197 2290 2302 2243 2245 2267 2190 2237 2317 2330 2344 2180 2298 2273 2321 2226 2272 2232 2329 2283 2273 2267 2346 2338 2273 2307 2175 2242 2274 2249 2196 2245 2311 2270 2178 2226 2277 2247 2274 2256 2282 2225 2215 2256 2189 2166 2251 2187 2260 2276 2200 2199 2193 2230 2167 2213 2213 2246 2131 2172 2182 2229 2239 2175 2239 2168 2195 2214 2173 2177 2293 2103 2188 2209 2135 2157 2144 2172 2209 2197 2142 2065 2199 2137 2139 2173 2127 2091 2119 2092 2093 2197 2167 2127 2053 2207 2182 2140 2122 2142 2042 2063 2152 2185 2129 2148 2053 2189 2145 2119 2104 2050 2145 2129 2088 2200 2123 2157 2151 2084 2164 2109 2106 2119 2156 2117 2158 1999 2121 2104 2139 2069 2103 2125 2121 2130 2011 2083 2106 2092 2148 2024 2126 2135 2123 2176 2037 1962 2219 2023 2077 2156 2168 2073 2116 2073 2113 2050 2043 2227 2194 2205 2093 2084 2104 2119 2139 2185 2056 2105 2129 2104 2095 2189 2102 2087 2119 2115 2175 2085 2206 2167 2112 2076 2077 2150 2098 2077 2139 2075 2129 2162 2152 2071 2107 2197 2174 2165 2128 2146 2165 2154 2139 2126 2164 2121 2196 2142 2164 2093 2135 2152 2088 2130 2104 2026 2196 2085 2131 2066 2159 2208 2089 2071 2173 2078 2076 2132 2137 2114 2137 2064 2159 2098 2146 2123 2157 2181 2093 2098 2071 2150 2100 2053 2057 2159 2185 2068 2119 2093 2188 2133 2136 2243 2024 2147 2154 2256 2078 2106 2098 2071 2083 2210 2162 2202 2147 2147 1999 2182 2141 2121 2146 2061 2053 2042 2097 2105 2081 2160 2092 2152 2100 2034 2136 2029 2061 2069 2070 2104 2061 2059 2014 2095 1981 2006 2100 1966 2030 2000 2068 2105 2119 2010 2053 2074 2091 2055 2153 2034 2097 2046 2070 2006 2062 2029 2068 1962 2067 1960 2027 2079 2012 1992 2009 1907 1944 1975 1893 1965 2001 2006 2012 2036 1963 1986 1951 1957 1874 2019 2059 1982 2042 2038 2029 1891 1913 1974 2007 1962 1909 2017 2008 2018 1976 1914 1990 2009 1923 1926 1989 1891 1888 1992 1925 1950 1912 1885 1951 2054 1935 1904 1993 1965 1891 1957 1842 1906 1917 1933 1929 1979 2033 1911 1919 1943 1888 1918 1933 1878 1945 1921 1905 1990 1936 2005 2028 2000 2071 2135 2145 2116 2131 2251 2282 2315 2337 2464 2522 2517 2625 2515 2566 2715 2695 2658 2716 2691 2598 2610 2603 2704 2682 2675 2613 2661 2673 2617 2643 2724 2747 2674 2713 2691 2687 2718 2592 2607 2640 2527 2570 2479 2338 2292 2335 2274 2233 2306 2281 2208 2192 2269 2158 2161 2242 2189 2076 2082 2094 1952 1966 2080 2082 1951 2003 1962 1918 1972 1972 1795 1940 1927 1774 1860 1839 1849 1772 1787 1783 1732 1868 1758 1791 1766 1849 1715 1718 1697 1718 1715 1749 1828 1744 1720 1848 1837 1719 1750 1839 1791 1752 1774 1893 1789 1874 1801 1833 1811 1799 1924 1939 1901 1904 1994 1913 2015 2000 2119 2187 2201 2236 2403 2581 2514 2675 2789 2855 2922 3088 3214 3225 3311 3357 3398 3362 3394 3448 3434 3419 3524 3400 3365 3383 3400 3353 3341 3435 3344 3526 3479 3399 3400 3494 3439 3347 3276 3227 3141 3053 3006 2912 2848 2809 2682 2714 2505 2548 2613 2441 2467 2425 2387 2247 2273 2337 2272 2237 2245 2333 2274 2197 2145 2198 2059 2085 2078 2054 1961 1898 1897 1964 1911 1853 1924 1835 1841 1876 1867 1812 1800 1828 1780 1808 1798 1824 1858 1754 1790 1756 1785 1734 1731 1745 1780 1675 1669 1661 1672 1697 1664 1633 1639 1641 1766 1631 1569 1626 1567 1622 1606 1606 1581 1605 1540 1620 1581 1629 1596 1561 1589 1567 1648 1579 1567 1508 1544 1583 1562 1583 1505 1585 1522 1631 1610 1537 1572 1609 1572 1576 1632 1555 1496 1578 1569 1624 1475 1526 1569 1546 1567 1555 1491 1489 1495 1603 1543 1524 1639 1564 1601 1492 1503 1485 1504 1549 1447 1534 1417 1534 1537 1495 1514 1507 1567 1514 1457 1545 1487 1486 1471 1533 1451 1507 1503 1479 1480 1482 1471 1506 1449 1549 1462 1435 1469 1469 1467 1507 1480 1501 1443 1557 1408 1511 1476 1479 1447 1402 1524 1479 1507 1501 1456 1491 1456 1455 1478 1509 1445 1440 1367 1531 1465 1475 1433 1576 1470 1459 1449 1478 1482 1435 1475 1402 1506 1422 1442 1514 1478 1461 1433 1426 1544 1422 1524 1430 1452 1466 1383 1442 1472 1407 1377 1482 1448 1460 1403 1477 1444 1424 1492 1504 1467 1434 1494 1504 1477 1458 1481 1406 1436 1405 1469 1426 1439 1488 1489 1469 1442 1462 1432 1490 1488 1447 1482 1462 1489 1446 1420 1458 1412 1463 1439 1478 1484 1432 1493 1494 1463 1414 1470 1474 1469 1550 1493 1421 1502 1479 1401 1531 1460 1417 1484 1442 1386 1502 1427 1490 1444 1402 1477 1432 1436 1410 1435 1387 1458 1423 1525 1463 1422 1444 1456 1390 1456 1423 1508 1485 1506 1519 1459 1499 1500 1466 1458 1407 1449 1393 1461 1442 1446 1431 1462 1419 1477 1455 1504 1503 1524 1345 1442 1449 1482 1476 1549 1498 1476 1420 1526 1390 1529 1500 1485 1437 1432 1508 1481 1418 1527 1497 1612 1538 1541 1613 1412 1547 1488 1471 1525 1453 1580 1494 1535 1550 1539 1572 1554 1570 1626 1542 1539 1688 1649 1560 1591 1653 1596 1672 1678 1638 1663 1723 1748 1713 1752 1861 1821 1760 1817 1843 1885 1947 2122 2097 2193 2204 2298 2456 2575 2788 2900 3029 3196 3395 3637 3904 4218 4487 4832 4922 5366 5496 5812 5986 6110 6353 6430 6626 6657 6705 6784 6572 6659 6534 6616 6632 6572 6707 6604 6896 6884 6744 6869 6807 6747 6573 6324 6389 6042 5686 5712 5373 5204 5041 4851 4520 4552 4345 4167 4047 3904 3828 3753 3603 3551 3415 3349 3324 3130 3132 3001 2927 2863 2715 2562 2554 2412 2394 2308 2257 2220 2185 2114 2065 2169 2067 2007 1960 2041 2050 1967 1995 1873 1874 1933 1848 1879 1845 1835 1895 1769 1832 1815 1797 1801 1767 1720 1736 1740 1676 1836 1750 1700 1688 1620 1555 1609 1667 1614 1573 1580 1512 1559 1539 1534 1497 1519 1487 1508 1498 1473 1451 1478 1480 1483 1505 1452 1407 1426 1453 1412 1443 1405 1480 1425 1459 1424 1416 1443 1424 1436 1462 1379 1394 1361 1443 1445 1418 1419 1414 1426 1425 1359 1401 1334 1346 1371 1358 1373 1337 1406 1376 1359 1355 1331 1338 1356 1342 1356 1400 1431 1284 1382 1321 1469 1353 1358 1405 1414 1465 1459 1341 1414 1307 1281 1350 1370 1379 1314 1390 1385 1339 1341 1298 1315 1369 1348 1346 1352 1341 1322 1357 1295 1334 1342 1376 1318 1347 1337 1309 1308 1333 1324 1328 1422 1338 1371 1386 1341 1326 1264 1277 1366 1385 1304 1358 1348 1254 1281 1340 1345 1338 1270 1364 1327 1314 1259 1356 1301 1377 1331 1298 1317 1355 1322 1363 1347 1314 1291 1339 1276 1345 1323 1360 1344 1351 1346 1275 1317 1352 1306 1304 1383 1269 1372 1332 1326 1344 1344 1310 1349 1297 1328 1297 1322 1311 1298 1297 1345 1315 1297 1358 1356 1276 1383 1200 1333 1324 1327 1359 1227 1339 1376 1322 1374 1299 1317 1327 1353 1312 1291 1378 1361 1333 1392 1382 1345 1374 1365 1338 1401 1397 1369 1369 1409 1310 1429 1364 1340 1400 1394 1327 1445 1341 1393 1360 1392 1377 1309 1330 1357 1368 1325 1326 1419 1345 1359 1312 1317 1312 1292 1352 1220 1369 1274 1298 1303 1284 1355 1303 1289 1317 1283 1273 1288 1314 1297 1316 1318 1273 1262 1275 1289 1269 1237 1306 1312 1329 1292 1349 1247 1265 1273 1218 1349 1281 1203 1277 1245 1300 1282 1295 1366 1211 1323 1254 1310 1269 1285 1283 1249 1249 1315 1204 1286 1284 1300 1272 1265 1279 1204 1271 1256 1226 1303 1235 1236 1249 1334 1309 1287 1324 1313 1219 1297 1282 1242 1173 1269 1272 1214 1239 1264 1208 1244 1307 1231 1289 1254 1254 1206 1266 1192 1239 1268 1179 1280 1254 1276 1306 1262 1229 1255 1239 1217 1163 1257 1213 1278 1294 1246 1229 1192 1273 1266 1149 1291 1237 1221 1278 1253 1312 1253 1233 1226 1252 1226 1237 1200 1276 1210 1265 1283 1251 1223 1252 1272 1192 1210 1168 1258 1164 1257 1161 1292 1255 1220 1270 1234 1219 1173 1221 1220 1217 1230 1163 1217 1221 1244 1226 1215 1216 1206 1244 1317 1201 1221 1233 1245 1167 1197 1213 1239 1233 1236 1155 1207 1137 1234 1235 1228 1221 1271 1216 1244 1220 1202 1221 1211 1286 1246 1139 1214 1300 1239 1206 1246 1154 1277 1275 1262 1327 1197 1226 1128 1216 1282 1152 1173 1137 1223 1264 1195 1192 1196 1202 1162 1205 1178 1171 1196 1192 1180 1224 1158 1180 1158 1204 1197 1201 1251 1244 1187 1216 1195 1175 1200 1222 1151 1175 1240 1204 1174 1215 1204 1106 1168 1248 1209 1278 1227 1186 1220 1231 1167 1174 1254 1229 1213 1202 1231 1193 1139 1209 1270 1196 1263 1225 1189 1216 1175 1195 1153 1164 1178 1215 1219 1231 1224 1261 1232 1149 1183 1184 1197 1201 1227 1272 1241 1158 1192 1134 1192 1222 1257 1267 1181 1210 1156 1125 1224 1211 1223 1222 1233 1166 1149 1224 1208 1227 1219 1218 1144 1129 1182 1207 1232 1156 1295 1140 1156 1170 1146 1128 1271 1231 1172 1197 1144 1179 1193 1123 1214 1122 1217 1168 1157 1198 1169 1151 1219 1156 1182 1190 1141 1223 1179 1230 1201 1239 1184 1181 1184 1198 1170 1191 1195 1159 1256 1157 1239 1208 1244 1173 1171 1200 1225 1160 1221 1166 1175 1186 1169 1190 1195 1221 1229 1208 1197 1244 1206 1225 1214 1185 1179 1184 1190 1182 1211 1246 1266 1226 1163 1182 1260 1197 1172 1192 1196 1122 1179 1220 1091 1160 1201 1237 1148 1157 1210 1180 1232 1163 1173 1217 1197 1139 1239 1162 1175 1208 1188 1207 1191 1191 1170 1189 1150 1174 1179 1161 1190 1205 1164 1166 1166 1197 1184 1207 1223 1256 1149 1158 1144 1267 1188 1185 1217 1134 1218 1204 1187 1159 1170 1167 1201 1201 1165 1157 1196 1079 1163 1201 1168 1162 1199 1217 1192 1209 1237 1184 1141 1185 1213 1231 1270 1186 1179 1238 1173 1178 1255 1153 1243 1153 1154 1197 1196 1222 1117 1200 1167 1155 1201 1187 1180 1132 1219 1192 1138 1177 1212 1156 1175 1176 1215 1139 1162 1126 1223 1179 1201 1156 1208 1190 1161 1109 1135 1166 1128 1161 1216 1146 1207 1215 1136 1237 1200 1094 1148 1158 1144 1234 1162 1227 1168 1172 1191 1171 1183 1112 1169 1187 1224 1190 1196 1220 1162 1184 1120 1146 1133 1099 1180 1169 1164 1247 1148 1192 1251 1193 1181 1161 1202 1167 1192 1176 1194 1203 1185 1215 1123 1201 1119 1161 1144 1172 1152 1133 1118 1239 1178 1213 1177 1169 1204 1153 1148 1193 1146 1209 1213 1174 1151 1116 1198 1205 1185 1206 1207 1240 1223 1158 1213 1190 1174 1251 1175 1216 1215 1246 1197 1216 1196 1152 1171 1256 1253 1202 1244 1106 1214 1233 1215 1189 1225 1240 1241 1219 1114 1280 1213 1229 1222 1268 1215 1186 1284 1207 1320 1263 1271 1260 1304 1310 1340 1355 1435 1354 1475 1505 1509 1503 1552 1612 1584 1708 1686 1726 1705 1748 1775 1742 1773 1719 1796 1773 1765 1803 1789 1715 1756 1842 1820 1843 1774 1862 1817 1764 1757 1702 1696 1654 1636 1615 1635 1637 1550 1512 1584 1537 1515 1486 1469 1487 1393 1381 1355 1341 1340 1316 1347 1314 1297 1279 1381 1190 1334 1288 1270 1196 1240 1208 1224 1235 1183 1179 1271 1234 1236 1239 1211 1201 1171 1239 1254 1246 1171 1265 1143 1222 1212 1140 1224 1180 1182 1220 1216 1198 1099 1204 1152 1199 1156 1174 1186 1198 1187 1202 1161 1204 1189 1200 1255 1203 1243 1171 1195 1162 1169 1224 1194 1205 1154 1246 1153 1122 1253 1156 1179 1206 1128 1215 1197 1206 1223 1241 1125 1214 1178 1168 1216 1131 1169 1159 1178 1184 1164 1191 1164 1186 1164 1214 1214 1216 1171 1156 1167 1162 1183 1187 1187 1100 1137 1160 1143 1189 1145 1166 1237 1187 1178 1137 1154 1135 1160 1133 1161 1185 1182 1169 1156 1219 1208 1147 1185 1132 1174 1104 1146 1099 1168 1129 1151 1145 1182 1179 1075 1138 1165 1153 1151 1146 1129 1176 1102 1198 1093 1183 1076 1122 1145 1099 1157 1104 1127 1161 1164 1142 1173 1157 1166 1163 1178 1131 1166 1175 1165 1193 1200 1143 1237 1151 1162 1130 1192 1127 1206 1147 1164 1151 1157 1207 1215 1150 1139 1158 1124 1169 1191 1211 1156 1148 1241 1157 1145 1187 1221 1220 1149 1206 1166 1210 1192 1249 1154 1196 1135 1181 1142 1184 1186 1226 1210 1189 1166 1249 1199 1193 1132 1176 1196 1202 1243 1211 1164 1207 1150 1201 1221 1183 1147 1183 1167 1206 1183 1188 1137 1173 1184 1159 1164 1226 1204 1155 1198 1207 1221 1176 1207 1197 1191 1222 1239 1212 1195 1203 1208 1241 1177 1135 1216 1203 1166 1161 1216 1186 1175 1193 1188 1175 1187 1189 1181 1174 1214 1193 1191 1180 1178 1208 1193 1196 1214 1188 1163 1246 1225 1199 1213 1271 1218 1262 1198 1185 1225 1234 1192 1207 1256 1284 1264 1228 1240 1335 1267 1269 1217 1288 1223 1275 1319 1337 1286 1342 1274 1326 1361 1371 1357 1369 1429 1348 1456 1539 1410 1510 1534 1547 1595 1728 1762 1785 1885 2001 2020 2202 2530 2499 2567 2867 2959 3428 3636 3629 3839 4104 4135 4228 4338 4457 4496 4384 4444 4455 4545 4508 4488 4666 4668 4640 4777 4678 4764 4671 4647 4553 4355 4357 4065 4008 3919 3846 3650 3544 3399 3302 3343 3146 3075 3134 2915 2813 2813 2706 2540 2441 2371 2292 2262 2191 2194 2118 1992 2029 1928 1915 1833 1746 1778 1605 1577 1582 1601 1626 1460 1458 1413 1517 1496 1358 1432 1373 1330 1350 1308 1267 1309 1313 1256 1294 1249 1245 1263 1238 1269 1294 1234 1231 1241 1273 1243 1299 1271 1233 1290 1341 1291 1276 1297 1315 1268 1384 1219 1299 1317 1227 1276 1248 1289 1292 1359 1260 1345 1342 1327 1360 1259 1346 1379 1374 1369 1320 1315 1362 1283 1333 1324 1330 1301 1286 1288 1226 1285 1224 1325 1309 1272 1211 1292 1254 1226 1248 1266 1296 1297 1211 1217 1196 1271 1232 1255 1174 1238 1219 1266 1205 1185 1220 1197 1178 1236 1188 1163 1185 1185 1145 1191 1194 1175 1186 1164 1190 1221 1154 1200 1168 1130 1149 1090 1235 1245 1144 1162 1088 1127 1163 1185 1191 1210 1106 1113 1203 1235 1197 1197 1209 1201 1167 1122 1178 1221 1171 1159 1199 1169 1209 1168 1228 1227 1185 1221 1181 1252 1137 1200 1209 1219 1236 1303 1337 1304 1318 1370 1320 1399 1411 1429 1484 1402 1423 1529 1507 1468 1479 1511 1449 1566 1484 1510 1576 1634 1644 1515 1522 1528 1523 1465 1535 1477 1427 1425 1501 1369 1419 1354 1443 1370 1345 1399 1324 1314 1365 1323 1375 1359 1276 1339 1285 1341 1213 1200 1260 1286 1275 1197 1201 1213 1240 1159 1163 1209 1205 1198 1207 1166 1157 1230 1186 1177 1117 1198 1171 1196 1143 1092 1136 1242 1145 1167 1086 1091 1177 1124 1086 1134 1126 1089 1145 1127 1114 1184 1114 1098 1097 1177 1161 1074 1139 1148 1100 1143 1091 1092 1126 1122 1121 1096 1074 1150 1097 1154 1102 1081 1126 1084 1117 1119 1082 1103 1095 1098 1073 1114 1066 1111 1181 1164 1103 1142 1078 1087 1090 1086 1084 1115 1076 1093 1106 1077 1114 1140 1030 1045 1047 1117 1089 1105 1074 1073 1085 1100 1086 1156 1043 1120 1097 1133 1111 1143 1156 1097 1111 1122 1060 1175 1047 1083 1058 1055 1084 1161 1082 1114 1113 1109 1118 1101 1128 1105 1065 1109 1102 1133 1106 1130 1098 1085 1056 1066 1141 1068 1078 1113 1069 1092 1093 1107 1092 1079 1101 1105 1132 1104 1093 1086 1079 1054 1112 1136 1043 1138 1156 1166 1026 1038 1050 1085 1091 1037 1121 1148 1053 1019 1086 1095 1067 1106 1115 1041 1063 1074 1108 1097 1101 1152 1089 1067 1091 1123 1147 1088 1091 1076 1032 1089 1131 1141 1069 1090 1122 1107 1092 1066 1067 1106 1021 1081 1119 1039 1048 1063 1058 1047 1047 1037 1099 1079 1036 992 1073 1043 1113 1087 1029 1062 1055 1075 1104 1070 1030 1063 1092 1072 1080 1034 1035 1073 1129 1101 1055 1125 1082 1038 1100 1026 1037 1077 1079 1112 1099 1061 1057 1058 1097 1110 1102 1085 1132 1068 1088 1081 1110 1126 1076 1089 1076 1149 1076 1031 1061 1139 1084 1071 1104 1096 1046 1075 1115 1079 1103 1068 1124 1009 1089 1072 1079 1059 1052 1102 1103 1101 1047 1113 1071 1047 1006 1097 1072 1051 1056 1091 1055 1077 1076 1111 1083 1061 1094 1086 1087 1139 1056 1069 1024 1145 1030 1106 1054 1072 1070 1011 1106 1111 1075 1062 1030 1060 1088 1105 1070 1077 1082 1005 1026 1100 1051 1094 1064 1030 1012 1028 1037 1042 1084 1114 1053 1117 1123 1097 1134 1085 1093 1078 1055 1060 1078 1008 1067 1049 1098 1073 1070 1087 1105 1085 1041 1094 1024 1089 1055 1070 1096 1058 1087 1042 1059 1043 1054 1046 1049 1094 1045 1042 1058 1118 1055 1067 1040 1092 1028 967 1071 1067 1110 1023 1087 1077 1042 1072 1114 1076 1058 1100 1014 1003 1091 1034 1093 1060 1075 1072 1109 1055 1073 1065 1041 1095 1078 1102 1113 1085 1070 1005 1053 1053 1051 1083 1109 1046 1064 1037 1067 1073 1070 1075 1058 1099 1054 1066 1024 1061 1056 1040 1099 1090 1075 1088 1048 996 1005 1113 1082 1039 1048 1050 1005 1053 1084 1053 1021 1076 1063 1052 1097 1150 1038 1033 1019 1080 1077 1060 1058 1017 1079 1087 1083 1032 1135 980 1035 1011 1034 1070 1086 1091 1031 1075 1091 1067 1051 1006 1130 1102 1135 1043 1086 1091 1100 1024 1057 1074 1077 1080 1101 1142 1077 1096 1044 1143 1091 1159 1196 1120 1216 1101 1134 1156 1199 1139 1140 1140 1182 1181 1154 1118 1145 1164 1171 1139 1204 1153 1128 1159 1161 1183 1162 1157 1201 1125 1163 1159 1148 1089 1148 1122 1086 1215 1117 1136 1125 1050 1125 1128 1127 1092 1230 1115 1125 1180 1162 1128 1092 1146 1128 1115 1185 1126 1130 1112 1123 1184 1187 1173 1146 1281 1218 1306 1328 1286 1401 1355 1418 1409 1467 1482 1444 1405 1539 1472 1509 1481 1496 1533 1486 1545 1537 1550 1496 1510 1528 1428 1558 1526 1471 1447 1424 1423 1317 1412 1402 1384 1381 1272 1408 1317 1345 1266 1276 1309 1277 1242 1275 1247 1268 1238 1192 1255 1196 1154 1117 1127 1090 1200 1142 1149 1046 1132 1157 1117 1105 1144 1043 1156 1101 1075 1101 1013 1066 1183 1085 1091 1099 1021 1086 1080 1057 1046 1102 1076 1050 1133 1064 1088 1081 1041 1054 1074 1004 1122 1048 1160 1073 1119 1055 997 1075 990 1099 1034 1028 1037 1109 1113 1099 1123 1052 1055 1073 1067 1094 1084 1050 995 1015 1061 1079 1105 1092 1076 1093 1124 1077 1120 1066 1050 1153 1130 1044 1125 1118 1141 1080 1096 1192 1084 1073 1051 1089 1106 1160 1112 1059 1092 1096 1122 1065 1114 1129 1080 1082 1119 1091 1068 1075 1144 1064 1062 1078 1066 1060 1131 1056 1043 1118 984 989 1087 1044 1079 1042 1015 1048 1037 1093 1059 1023 1023 1061 1047 1043 1104 1064 998 1058 1044 1094 1064 1014 1032 1056 1031 1087 1044 1071 1059 1030 1064 1031 1032 1027 1041 1025 1077 1068 1039 1017 1055 1088 1039 1057 1140 1069 1064 1035 1042 1040 1098 1023 1088 1064 1028 1046 1049 1011 1062 1059 1105 1005 1058 1066 1046 1076 1031 1038 1076 1067 1126 1104 1063 1070 1109 1103 1119 1137 1135 1148 1136 1185 1188 1201 1197 1149 1234 1237 1252 1301 1320 1364 1403 1427 1459 1495 1678 1634 1742 1715 1751 1820 1782 1858 1930 1881 1822 1851 1884 1862 1847 1843 1880 1903 1918 1940 1968 1955 1910 1929 1866 1921 1775 1719 1694 1641 1700 1745 1637 1518 1551 1526 1529 1505 1494 1474 1559 1416 1427 1370 1366 1398 1326 1346 1340 1276 1339 1238 1204 1251 1227 1265 1219 1224 1286 1236 1098 1117 1126 1174 1097 1151 1182 1173 1084 1087 1130 1112 1086 1123 1126 1088 1064 1114 1058 1072 1057 1036 1072 1085 1043 1095 1004 1025 1081 1081 1096 1091 1067 1048 1002 1052 1010 1103 1021 1039 1072 994 1041 1098 1038 1095 999 1086 1050 949 1087 1067 1030 1123 967 1013 1053 1050 1089 1085 1080 1046 1007 1044 1014 1002 1101 1056 1064 1104 1122 1067 1089 1026 1066 990 1083 1110 1079 1027 1090 1086 1045 1058 1112 1083 1065 1054 1074 1072 1116 1061 1076 1039 1055 1050 1046 1073 1017 1024 1060 1026 1093 1047 1029 1044 1007 1086 1077 998 1099 1058 1093 1035 1079 1027 1065 1010 1055 988 1076 1020 1057 1083 1103 1100 1087 1093 1090 1113 1142 1104 1157 1128 1163 1200 1249 1168 1225 1220 1156 1187 1219 1192 1246 1187 1255 1203 1171 1214 1229 1295 1217 1230 1255 1204 1238 1259 1209 1230 1154 1127 1144 1142 1156 1144 1124 1115 1157 1161 1147 1154 1080 1089 1153 1113 1152 1085 1099 1055 1087 1053 1122 1011 1032 1079 1070 1136 1071 1062 1086 1046 1030 1056 1077 1006 1019 1100 1040 1046 1052 1042 993 1030 988 1043 1039 1043 1041 1010 1079 998 1039 1032 1014 980 1024 1014 1007 1032 1056 948 1081 1052 1054 995 1046 1024 1002 1019 993 969 996 1014 1031 1022 1073 1015 1057 1021 1059 1040 993 1006 1027 1027 1016 1057 1022 960 1057 1002 1034 988 1020 1008 1068 1049 1006 1029 1055 1049 1050 1058 986 1081 957 1065 976 942 1053 979 1007 1053 1017 1015 1025 1065 1010 1052 990 1004 1030 958 1037 993 1035 1054 1013 1035 1006 1003 1066 1083 1043 976 1035 1020 927 1009 973 1011 1011 1014 1041 972 1009 1026 992 1066 978 968 998 969 961 993 1031 970 1042 992 996 1025 1097 989 1028 979 958 994 1002 990 1028 995 989 1053 1018 1030 990 1011 1007 978 945 1007 989 980 967 1035 980 1005 972 928 1063 1038 996 1012 954 1015 1020 1003 1005 958 969 1044 994 987 966 1030 1056 1034 996 1061 972 962 1033 998 983 1027 961 1039 956 1007 996 993 1014 1004 1026 1016 1031 1062 986 1078 984 983 985 1014 972 1031 1011 997 1057 958 1032 958 999 958 974 992 1015 989 974 958 993 1050 989 1023 995 1030 1033 1047 1007 1017 966 952 953 1016 997 932 1021 949 924 1011 1024 1019 980 1034 992 995 1012 1003 973 993 1044 1007 960 1035 933 998 1004 947 1022 1015 974 980 1019 934 984 1036 981 1057 1013 1012 990 947 982 1005 973 987 991 1006 970 1026 994 977 966 1008 989 960 980 1001 992 990 971 985 977 1032 944 921 1003 967 993 1025 999 965 1037 964 1000 1005 965 990 1085 1040 1012 977 998 1005 962 961 1005 1029 942 943 1000 1011 1002 1004 965 978 1006 1004 969 996 974 959 1001 994 966 1000 972 975 966 987 1061 1023 1014 1031 938 976 965 1011 990 944 953 971 928 969 1034 979 1004 1049 981 1037 991 977 982 1003 1000 952 946 983 923 928 1043 973 1032 1039 1019 1024 1013 1028 1002 955 964 1043 924 1027 977 981 983 947 1010 963 964 987 964 1030 974 1026 964 997 977 1042 1009 967 996 1043 953 990 980 1035 974 1004 934 971 980 1020 988 928 1007 939 1028 972 993 998 974 1005 1003 994 996 999 965 1013 1027 1074 1021 996 1105 1047 1046 1082 1080 1111 1132 1071 1144 1130 1075 1101 1154 1127 1049 1122 1105 1161 1113 1125 1123 1062 1091 1088 1143 1140 1150 1142 1108 1130 1097 1094 1038 1152 1139 1070 1063 1079 1015 1037 1068 1091 1036 1056 1039 1068 1012 1075 1049 1062 1008 1088 1020 1089 1083 1064 1042 1048 1006 1026 993 1010 1037 1039 1049 1031 968 1001 983 961 935 994 1016 1029 959 980 936 1009 1003 967 947 1002 1019 1006 977 981 1017 997 973 1044 1082 1051 970 1010 984 1025 971 993 1030 969 987 932 1013 965 984 977 1035 981 965 1064 1022 936 1017 925 1032 998 1005 944 953 978 977 1026 944 1012 1038 982 946 926 1036 1020 980 958 949 992 987 1001 883 1004 1009 1039 943 993 969 994 960 941 1012 969 982 972 1006 1015 1010 928 1012 1007 986 990 967 1027 950 982 994 1025 1016 975 1023 1030 977 931 1002 913 925 961 1002 1031 950 1018 1029 978 1000 986 965 982 965 966 996 1032 961 992 983 936 1013 960 934 1008 983 1028 1013 962 977 980 969 1024 938 960 968 982 1036 982 970 977 927 1060 997 924 935 1003 1003 988 983 984 1011 946 939 1021 1037 950 974 969 1014 980 1043 958 951 1023 996 942 993 1022 996 995 928 999 1010 977 999 999 992 1008 971 911 977 1005 1011 973 963 980 964 945 972 953 963 983 994 970 998 996 1057 976 945 993 963 1026 1053 1042 1001 1020 1080 1001 1011 978 1041 1056 984 992 955 1029 1072 1031 1029 1030 1054 1056 1053 1037 1044 1017 1077 1111 1144 1059 1151 1189 1179 1186 1154 1181 1283 1217 1205 1282 1263 1252 1278 1312 1282 1273 1325 1258 1316 1352 1346 1277 1303 1292 1423 1322 1306 1372 1280 1355 1315 1379 1306 1221 1245 1243 1218 1249 1220 1275 1185 1242 1246 1171 1217 1184 1182 1131 1191 1159 1128 1105 1102 1129 1093 1113 1029 1005 1060 1093 1039 1111 1078 1078 1120 1076 1095 1060 1025 1048 1041 1072 994 1023 993 1007 993 1012 960 1043 1039 1013 1017 1025 973 1001 976 974 977 1016 944 956 1020 981 1007 995 1011 948 943 997 950 979 1069 1034 1009 987 1032 1005 948 993 993 991 994 1060 983 1047 998 1035 1019 1025 1039 946 941 1006 970 962 1022 972 956 996 1024 1000 1061 991 1002 1001 979 991 960 990 1028 999 1012 1029 986 970 1015 947 946 944 975 1009 956 1011 955 1025 980 999 958 973 982 984 981 995 1035 967 1003 988 1013 1036 988 1002 1012 1029 998 948 1009 980 1009 1039 1019 1024 969 905 986 981 991 897 989 1027 1029 1011 944 960 1016 1008 1006 967 994 1063 951 979 963 960 990 965 965 991 906 1005 961 973 986 999 979 995 964 983 998 905 965 977 967 1025 1017 1004 985 1034 1004 1051 964 950 1019 985 1030 994 941 1017 943 902 969 1035 991 954 987 901 999 955 996 946 902 926 992 926 976 1021 931 918 943 954 987 968 946 983 948 944 1057 950 986 969 960 1000 980 960 987 944 922 985 1008 1013 954 905 948 979 969 961 943 964 985 1039 958 950 1029 976 945 977 948 1010 978 1018 952 963 983 960 985 982 991 987 973 966 1001 987 982 940 1015 905 920 957 996 974 951 921 978 945 965 948 999 984 987 992 987 951 945 977 964 1004 950 976 998 1019 985 988 918 934 943 947 916 946 997 933 991 1006 948 1029 943 950 1022 1008 965 943 957 942 990 973 970 969 990 1021 956 931 952 939 1003 970 1047 1002 993 962 943 968 942 908 936 946 1050 968 986 997 998 1007 1001 961 969 968 975 975 981 944 1016 985 982 980 1009 1059 1005 965 967 933 1021 977 939 985 933 973 979 938 960 937 968 1033 956 987 954 1015 975 1046 1060 1012 990 959 972 1023 988 1008 992 987 1015 957 988 999 893 974 997 974 948 1001 1033 910 985 948 898 1018 1027 1004 969 995 963 978 997 969 965 976 1005 992 974 1006 928 900 974 993 934 933 928 959 1032 1005 978 985 954 963 1008 968 987 1002 995 997 914 962 961 938 997 1001 997 1001 1008 991 948 981 1027 959 977 938 958 982 973 996 1028 969 986 945 1025 953 959 942 1000 945 933 991 931 944 1013 933 1002 1017 975 971 1008 917 1005 980 983 915 995 1014 1026 930 975 1047 934 972 1010 948 987 989 980 992 1002 1056 960 978 989 942 971 1020 998 985 1022 1030 1012 993 963 979 992 998 984 961 923 1039 1004 996 990 997 1004 932 979 993 1019 929 1000 969 1012 1011 956 1047 964 954 1038 1009 931 1009 969 995 1024 974 988 1003 1048 975 979 1049 966 972 951 981 994 1053 954 982 967 999 968 1029 1015 973 1012 1007 994 940 995 933 1012 973 989 1013 1017 1016 1029 1066 968 955 1070 1025 969 930 998 1000 1016 977 1010 1024 960 947 1101 1028 1017 998 1047 1038 1092 1008 1004 1079 1039 1013 1090 1075 1087 1046 1092 1070 1122 1056 1064 1109 1052 1034 1142 1077 1134 1060 1096 1059 1116 1021 1065 1154 1113 1085 1082 1173 1110 1045 1108 1100 1043 1146 1034 1065 1050 1029 1109 1074 1076 1060 1089 1059 1140 1028 1083 1138 1055 1035 997 1036 1078 1021 1071 1038 1028 1106 1090 1149 1132 1131 1112 1167 1144 1163 1136 1168 1175 1128 1126 1132 1099 1096 1115 1086 1189 1137 1079 1150 1134 1102 1157 1142 1107 1117 1067 1023 1123 1083 1185 1082 1048 1055 1096 1092 1038 994 1056 1091 1066 1064 1036 1065 1048 1038 1074 1078 1020 1059 982 1032 1079 998 1018 1001 1054 951 1003 1009 977 971 1012 1003 1014 1015 982 993 961 1036 925 1041 978 1037 913 999 1031 1002 988 995 1046 1037 958 1005 1021 999 968 1005 1074 995 1053 1043 951 979 1037 996 993 1016 961 938 992 1037 1066 1011 990 973 1033 976 996 969 991 1071 1039 943 934 970 1037 1015 1002 1030 1031 998 974 1016 1071 1051 1036 1043 971 1037 960 1031 1015 1028 1002 1007 961 1002 1028 1006 969 985 970 976 1008 1002 1047 1024 1038 1018 960 995 981 994 980 1017 997 976 1009 1033 1034 1006 1045 1033 1042 1013 995 963 1011 1030 1043 985 1118 1018 1082 1008 968 1018 1021 1027 1022 1002 1019 990 1025 1064 1051 1088 1021 1030 1075 1054 1049 1038 1060 1040 1108 1045 1020 1160 1012 1117 1062 1076 1155 1100 1085 1039 1119 1094 1137 1088 1153 1188 1164 1129 1152 1135 1201 1225 1261 1280 1240 1270 1344 1352 1459 1494 1517 1550 1628 1633 1618 1806 1687 1730 1774 1720 1777 1796 1742 1716 1759 1673 1771 1751 1676 1665 1708 1600 1681 1692 1729 1718 1675 1577 1638 1660 1587 1602 1599 1613 1582 1551 1584 1517 1515 1425 1461 1437 1467 1435 1481 1349 1361 1336 1288 1269 1258 1300 1230 1154 1204 1195 1190 1153 1155 1231 1130 1118 1139 1165 1134 1126 1165 1088 1148 1130 1087 1056 1098 1076 1078 1062 1060 1071 1031 1064 1052 1042 1043 1040 1091 1022 1060 1040 1024 1046 1026 980 1030 1014 985 1015 1011 1022 1053 1015 978 979 1018 992 1048 995 1016 1041 1019 978 962 1061 1022 962 1036 965 993 982 991 960 1004 1032 1031 1012 1058 1004 1004 1058 1058 969 1033 952 1028 1030 1079 983 1010 978 1010 987 1053 994 1025 1009 1012 1038 1041 1003 1044 1036 1026 999 1062 1036 1013 963 1022 938 1012 1063 1053 1107 1032 1041 991 1036 1017 1033 1085 1049 1061 1063 1032 1051 1056 1108 1005 1134 1001 1087 1079 1052 1106 1143 1134 1090 1128 1075 1098 1105 1092 1088 1054 1057 1115 1084 1070 1130 1134 1049 1063 1084 1132 1074 1068 1106 1087 1111 1130 1025 1069 1066 1075 1038 1053 1032 1034 1109 1037 1042 1092 1020 1072 1026 1012 1076 999 1067 1027 1063 1034 1014 1072 995 1058 1034 1068 1059 1069 955 999 959 971 1021 1004 1003 978 1022 1024 1003 1027 987 996 936 987 991 989 1050 949 946 1066 1045 975 994 1028 978 998 1070 1026 994 990 947 989 956 1020 974 971 857 1010 990 974 988 1045 957 965 1008 954 1008 952 937 976 996 1067 946 980 995 932 996 981 1032 1004 976 991 926 962 945 962 972 947 974 980 944 951 986 968 969 963 970 967 966 959 991 1035 974 1036 938 1011 971 966 1024 985 978 994 989 1005 939 964 1015 979 983 1004 944 947 1033 980 974 1033 976 1002 978 981 981 967 972 994 985 907 1006 976 989 967 936 970 993 963 999 966 1015 1056 1018 971 1051 1013 971 982 972 951 950 974 974 950 965 963 1043 957 1011 932 965 982 982 991 929 963 1007 929 990 1007 988 931 966 978 938 977 950 974 967 971 956 963 976 972 983 987 940 1003 945 993 971 996 984 1040 1001 954 978 969 1013 952 982 989 985 972 959 971 937 991 964 928 966 1008 950 1004 964 988 963 1014 955 1008 1020 978 1043 945 934 983 1038 941 920 938 940 977 982 985 974 922 980 982 987 975 970 1053 937 987 931 946 959 957 978 1018 922 974 923 973 1017 921 958 976 981 965 980 1020 971 905 1016 994 1028 930 994 967 1000 995 1020 985 917 1015 1000 946 973 987 953 979 999 971 969 1024 985 996 1010 1035 1028 970 1011 944 989 1020 970 951 989 1004 948 949 1014 1003 960 1002 935 983 973 961 1008 951 964 1016 991 966 1004 923 948 1012 1036 978 970 964 975 1003 1042 979 947 969 997 980 997 988 967 1012 1004 974 934 925 898 990 980 1024 950 971 1053 979 995 1059 968 985 980 1046 947 1088 945 1020 1001 1018 996 1010 979 982 1003 999 1046 992 1077 973 996 1039 989 1002 914 1018 968 1012 1020 986 955 1000 1019 1036 1014 972 973 1048 964 955 996 935 1033 1006 1065 1020 1042 1030 1072 1039 1061 1036 1048 1046 1021 1081 1063 1131 1133 1091 1002 1053 1037 1042 1030 1043 1065 1054 1054 1053 1069 1030 1078 1093 1081 1030 974 1024 1047 1015 1038 980 1073 1100 1057 1063 1056 1061 1119 1039 1016 1049 999 1037 935 1065 990 1107 1027 986 968 998 996 968 1012 1042 982 1045 969 1017 944 906 1043 1033 1007 1034 976 963 974 971 969 990 997 956 1023 1105 977 1067 977 1015 925 1021 959 924 1008 959 986 945 981 932 998 944 1029 962 985 919 970 958 1046 1002 932 1005 1040 1015 1027 993 978 991 993 1016 971 943 990 969 976 1001 928 1022 1020 921 989 962 976 977 953 987 1008 961 1058 1012 982 1004 949 1062 957 979 964 1007 1031 1006 1007 961 1011 908 998 946 991 1013 1040 973 914 958 1015 989 969 980 1009 1058 966 988 1016 980 986 1032 971 1043 990 1011 1020 1046 966 957 987 923 977 943 984 1035 917 953 991 923 962 953 1023 929 1016 944 976 956 997 937 939 1017 1016 1002 990 988 962 915 1026 976 953 964 970 950 1035 988 964 1001 1050 942 1023 1022 1007 1001 980 976 1058 998 951 995 962 979 952 969 1049 1016 1017 1046 1004 1023 1009 1031 973 1034 1068 1023 1028 1007 977 1001 954 1023 1044 960 1015 1016 1044 1017 982 1034 996 947 1086 1025 1074 1035 1046 1083 970 989 964 1066 1061 1105 1147 1061 1136 1082 1136 1100 1097 1158 1136 1187 1154 1122 1219 1170 1271 1303 1258 1435 1347 1387 1421 1473 1565 1555 1511 1501 1509 1579 1559 1624 1537 1490 1551 1498 1474 1571 1406 1379 1403 1440 1417 1481 1477 1405 1435 1364 1323 1360 1388 1412 1371 1362 1392 1345 1377 1318 1372 1401 1372 1308 1283 1334 1315 1305 1236 1266 1234 1267 1260 1143 1145 1231 1150 1110 1043 1148 1063 1115 1066 1101 1121 1075 1124 1045 1018 1089 1037 1087 1019 1066 1061 982 1064 1064 1045 1077 1022 1086 983 1097 1033 998 1062 1007 1020 998 943 1066 1066 1053 1005 1049 1020 1031 986 977 1014 1040 1033 966 1028 1028 1011 1019 1043 1042 993 977 979 1055 1000 997 1014 986 972 973 976 1041 1036 951 1005 995 1011 982 1021 1034 1027 1025 1012 945 984 1019 967 1026 980 1001 1013 989 1066 1023 1005 1028 970 949 994 1012 977 983 961 1052 983 1008 973 1007 977 967 999 992 943 987 983 992 985 963 1031 1004 1018 1012 989 980 1020 1069 1030 1074 1035 1091 1030 1045 1019 1020 1005 1002 1077 1061 1046 1030 972 1057 997 1067 1024 1020 1026 1041 1058 1068 1055 1015 1025 998 986 960 1007 965 999 1035 1013 1090 1035 1018 932 982 1010 1010 1016 1021 1032 992 1083 990 1023 1010 1006 1024 1013 998 1044 932 988 1068 1008 1019 1013 971 983 1022 964 1023 1017 982 960 993 998 1013 974 987 1039 995 933 980 979 1025 989 1032 1023 941 1096 996 1066 965 1024 992 959 953 997 925 1031 1046 1000 948 1015 962 953 969 951 1040 981 980 959 999 992 951 950 945 959 988 1011 987 1045 883 949 1053 1019 1014 978 1003 898 937 943 971 979 967 969 1019 949 944 965 1015 996 978 965 919 974 915 1063 940 1005 966 951 928 991 1001 960 900 952 944 992 1003 921 991 959 1007 1000 923 975 960 996 983 954 973 973 991 962 974 966 960 974 968 957 1000 944 1010 967 965 985 998 942 966 975 938 985 989 951 982 943 992 1016 967 1000 986 965 962 956 1010 1020 954 976 982 992 1037 949 940 963 1001 958 987 940 956 961 964 987 980 921 1007 923 979 951 1023 1032 1013 969 1016 973 975 973 990 989 983 964 970 973 930 1025 931 973 977 954 1008 970 1027 900 990 956 985 933 965 977 990 1018 939 999 987 921 960 958 1002 957 955 997 985 1003 988 1020 913 974 944 984 981 898 990 958 970 976 962 925 995 971 973 956 1010 942 972 962 977 1028 992 935 964 952 975 972 1004 964 982 971 965 1009 942 973 1024 980 966 989 939 916 967 971 943 975 955 967 988 911 996 974 973 928 999 992 970 980 963 976 975 976 956 1015 1001 1006 896 966 978 954 1049 981 904 949 987 988 961 1000 980 999 998 957 1009 990 927 963 969 969 942 982 923 936 987 1038 980 971 962 973 973 985 937 946 949 937 959 1004 968 997 969 937 980 999 950 936 983 943 1025 987 1043 963 950 1011 1008 1019 925 975 989 996 994 998 896 960 1010 980 1033 943 942 937 939 981 990 972 903 1001 972 981 983 1007 970 971 916 1053 1006 987 997 957 946 980 926 1038 962 951 1046 991 1001 1004 1037 979 1048 996 983 1049 979 1039 992 1062 1026 1102 1058 1032 996 1030 1033 1072 1117 1074 1088 1084 1081 1061 1056 1113 1040 1043 1077 1121 1052 1099 1122 1118 1110 1074 1052 1096 1035 1081 1123 1101 1044 1086 1086 1048 1038 1041 1100 1093 1054 1096 1136 1058 1098 1055 1101 1067 1084 1066 1099 1120 1055 1031 1112 1018 1078 1087 1044 1109 1037 1031 1008 1128 1051 1090 1085 1067 1119 1070 1081 1090 1090 1057 1082 1106 1135 1059 1089 1070 1054 1033 1089 1059 1062 1021 1101 1038 996 1079 1002 997 1006 1002 1003 1045 1030 967 1018 986 1055 1076 980 1043 1042 1078 1055 999 1041 1078 985 999 1056 1009 1040 1017 991 989 1060 1064 981 950 969 961 1045 1006 1017 1026 1000</counts>
			</dataPoints>
		</scan>
	</xrdMeasurement>
</xrdMeasurements>
