<?xml version="1.0"?>
<xrdMeasurements xmlns="http://www.xrdml.com/XRDMeasurement/2.3" xmlns:xsi="http://www.w3.org/2001/XMLSchema-instance" xsi:schemaLocation="http://www.xrdml.com/XRDMeasurement/2.3 http://www.xrdml.com/XRDMeasurement/2.3/XRDMeasurement.xsd" status="Completed" recordIdentifier="{2E7DA1EF-5B6C-4B4D-A8B9-1C6399563F02}">
	<comment>
		<entry/>
	</comment>
	<sample type="To be analyzed">
		<id>GPSS_Li1p8Mn0p8Cr0p05V0p15Cl4_111725_691b7e20f3837ac4a0a9937e</id>
		<name></name>
		<preparedBy></preparedBy>
	</sample>
	<xrdMeasurement measurementType="Scan" status="Completed" sampleMode="Reflection">
		<usedWavelength intended="K-Alpha 1">
			<kAlpha1 unit="Angstrom">1.5405980</kAlpha1>
			<kAlpha2 unit="Angstrom">1.5444260</kAlpha2>
			<kBeta unit="Angstrom">1.3922500</kBeta>
			<ratioKAlpha2KAlpha1>0.5000</ratioKAlpha2KAlpha1>
		</usedWavelength>
		<incidentBeamPath>
			<radius unit="mm">145.00</radius>
			<xRayTube id="1010048" name="Empyrean Cu LFF HR (9430 033 7310x)">
				<tension unit="kV">40.0</tension>
				<current unit="mA">15.0</current>
				<anodeMaterial>Cu</anodeMaterial>
				<focus type="Line">
					<length unit="mm">12.0</length>
					<width unit="mm">0.4</width>
					<takeOffAngle unit="deg">6.0</takeOffAngle>
				</focus>
			</xRayTube>
			<sollerSlit id="21010002" name="Soller slits 0.04 rad.">
				<opening unit="rad">0.0400</opening>
			</sollerSlit>
			<mask id="22031000" name="Fixed mask 13 mm">
				<width unit="mm">9.00</width>
			</mask>
			<divergenceSlit id="22120001" name="Divergence slit 1°" xsi:type="fixedDivergenceSlitType">
				<distanceToSample unit="mm">50.00</distanceToSample>
				<height unit="mm">1.52</height>
			</divergenceSlit>
		</incidentBeamPath>
		<sampleMovement xsi:type="spinningSampleMovementType">
			<spinnerRevolutionTime unit="seconds">1.0</spinnerRevolutionTime>
		</sampleMovement>
		<diffractedBeamPath>
			<radius unit="mm">145.00</radius>
			<antiScatterSlit id="22090040" name="AS slit 9 mm (PIXcel)" xsi:type="fixedAntiScatterSlitType">
				<height unit="mm">9.00</height>
			</antiScatterSlit>
			<sollerSlit id="21020003" name="Large Soller slits 0.04 rad.">
				<opening unit="rad">0.0400</opening>
			</sollerSlit>
			<filter id="20030001" name="Large beta-filter Nickel">
				<material>Ni</material>
				<thickness unit="mm">0.020</thickness>
			</filter>
			<detector id="7010019" name="PIXcel1D-Medipix3 detector" xsi:type="rtmsDetectorType">
				<phd unit="keV">
					<lowerLevel>4.02</lowerLevel>
					<upperLevel>11.27</upperLevel>
				</phd>
				<mode>Scanning</mode>
				<activeLength unit="deg">5.542</activeLength>
			</detector>
		</diffractedBeamPath>
		<scan appendNumber="0" mode="Continuous" scanAxis="Gonio" status="Completed">
			<header>
				<startTimeStamp>2025-11-20T13:25:50-08:00</startTimeStamp>
				<endTimeStamp>2025-11-20T13:33:58-08:00</endTimeStamp>
				<author>
					<name>AutomatedUser</name>
				</author>
				<source>
					<applicationSoftware version="1.7b (136)">PANalytical Aeris Instrument Suite</applicationSoftware>
					<instrumentControlSoftware version="3.2.00000000 20240306">AERIS</instrumentControlSoftware>
					<instrumentID>950485</instrumentID>
				</source>
			</header>
			<dataPoints>
				<positions axis="2Theta" unit="deg">
					<startPosition>10.00943322</startPosition>
					<endPosition>99.99442286</endPosition>
				</positions>
				<positions axis="Omega" unit="deg">
					<startPosition>5.00471661</startPosition>
					<endPosition>49.99721143</endPosition>
				</positions>
				<commonCountingTime unit="seconds">12.495</commonCountingTime>
				<counts unit="counts">3075 3038 3158 3087 3061 3042 3070 3064 3030 3025 3045 3014 3028 3030 2956 3072 3134 2916 3045 2974 3041 3039 3167 2909 3130 3054 3019 3004 2984 3044 3077 3090 3086 3049 3089 3090 3067 3062 3024 3133 3010 3240 3129 3019 3132 3135 3091 3268 3072 3158 3100 3095 3189 3139 3149 3269 3112 3071 3171 3154 3295 3142 3284 3211 3226 3190 3106 3208 3192 3178 3374 3201 3178 3329 3281 3311 3334 3514 3453 3353 3398 3355 3367 3482 3387 3388 3297 3304 3471 3390 3385 3386 3462 3358 3378 3454 3413 3431 3447 3347 3346 3402 3410 3303 3363 3284 3323 3336 3231 3339 3334 3381 3337 3290 3374 3249 3304 3277 3335 3227 3243 3200 3223 3331 3289 3270 3336 3331 3306 3166 3270 3306 3293 3266 3193 3336 3355 3256 3358 3232 3400 3339 3207 3212 3285 3323 3304 3292 3316 3185 3203 3230 3355 3198 3212 3229 3331 3304 3402 3232 3317 3247 3241 3232 3230 3436 3340 3255 3347 3269 3275 3236 3326 3367 3332 3340 3315 3295 3366 3289 3315 3234 3322 3278 3415 3375 3299 3239 3398 3298 3330 3306 3284 3230 3245 3220 3204 3302 3233 3311 3283 3284 3366 3087 3222 3198 3227 3320 3284 3221 3202 3289 3295 3263 3244 3332 3261 3257 3295 3272 3366 3193 3273 3272 3248 3222 3281 3250 3310 3194 3421 3227 3175 3229 3235 3313 3208 3274 3313 3100 3265 3280 3221 3368 3262 3223 3251 3094 3269 3285 3198 3200 3228 3227 3212 3213 3280 3137 3217 3338 3232 3256 3317 3222 3285 3197 3204 3235 3169 3245 3182 3362 3127 3414 3159 3308 3209 3226 3360 3310 3252 3249 3324 3300 3351 3287 3429 3267 3265 3246 3445 3286 3303 3256 3258 3367 3373 3417 3350 3414 3426 3276 3382 3408 3350 3371 3363 3341 3449 3403 3437 3325 3398 3471 3393 3455 3512 3444 3466 3350 3362 3288 3414 3370 3376 3321 3378 3349 3377 3450 3538 3530 3474 3393 3470 3403 3481 3424 3507 3543 3485 3594 3570 3558 3489 3490 3568 3558 3570 3534 3691 3466 3642 3584 3641 3592 3696 3512 3565 3629 3548 3593 3693 3699 3615 3594 3611 3572 3509 3536 3626 3746 3779 3827 3725 3626 3689 3629 3792 3698 3817 3797 3688 3820 3817 3824 3825 3752 3805 3849 3835 3894 3892 3786 3884 3913 3972 3958 4033 4105 3974 4168 4000 4176 4225 4227 4337 4281 4442 4520 4531 4590 4714 4914 4986 5068 5344 5282 5420 5373 5561 5735 5848 6024 6154 6115 6049 6106 6194 5823 5941 5558 5552 5340 5333 5213 5139 4772 4828 4774 4723 4520 4500 4339 4216 4267 4159 4054 4100 3988 3958 4032 3898 4088 3886 3866 3831 3930 3959 3927 3914 4024 4011 4009 3938 4083 4086 4041 3916 4180 4156 4081 4369 4228 4149 4224 4285 4379 4367 4348 4456 4253 4366 4284 4350 4287 4292 4126 4020 3951 4025 3847 3810 3828 3807 3690 3743 3683 3852 3624 3725 3636 3627 3591 3552 3729 3667 3648 3500 3670 3498 3528 3579 3646 3432 3533 3444 3624 3551 3497 3465 3614 3563 3455 3476 3387 3490 3413 3505 3419 3471 3559 3479 3502 3489 3514 3476 3366 3523 3466 3460 3535 3459 3338 3392 3387 3481 3480 3484 3434 3510 3414 3436 3380 3447 3425 3397 3444 3464 3491 3326 3415 3400 3479 3454 3303 3299 3326 3367 3408 3379 3262 3332 3291 3249 3286 3275 3216 3311 3250 3442 3313 3314 3242 3266 3228 3334 3255 3300 3254 3182 3243 3239 3195 3220 3249 3288 3225 3230 3178 3265 3191 3208 3198 3251 3272 3232 3225 3176 3164 3200 3167 3227 3274 3158 3285 3333 3181 3246 3190 3124 3177 3182 3176 3237 3188 3165 3149 3119 3079 3164 3197 3226 3214 3180 3060 3123 3056 3160 3180 3205 3131 3097 3274 3210 3202 3208 3109 3276 3167 3149 3102 3162 3161 3146 3133 3068 3151 3207 3139 3165 3056 3078 3098 3182 3123 3158 3167 3179 3045 3120 3201 3122 3117 3093 3131 3087 3153 3153 3115 3184 3121 3136 3164 3059 3127 3160 3156 3073 3104 3123 3136 3143 3164 3149 3036 2981 3160 2960 3076 3091 3090 3053 3083 3057 3104 3082 3127 3090 3258 3048 3067 3044 3111 3102 3083 3127 3155 3091 3075 3160 2986 3160 3111 3021 3072 3026 3012 3025 2984 3032 3058 3077 2950 3145 3097 3077 2975 2998 3059 3053 3102 3110 3118 2990 3062 3018 3110 2983 3008 3067 3009 3027 3082 3011 3088 2955 3010 3006 3039 2979 2977 3003 3059 2983 3153 2970 3093 3038 2991 3167 2990 2929 2936 3017 3075 2992 2953 2950 3020 3126 2994 3042 3047 3037 3033 3019 3075 2933 3047 2974 2995 2952 3030 3070 2930 3041 2956 3017 3019 2916 3058 3009 2966 3077 2955 2952 2873 2980 2996 2999 2862 2969 3007 3003 2854 2845 2966 2930 2900 3008 2980 3000 2941 2906 2967 2867 2873 2879 2897 2901 2901 2965 2969 2824 2918 2991 2884 2852 2895 2913 2908 2919 2910 2888 2833 2925 2917 2874 2856 2909 2877 2988 2856 2926 2856 2841 2827 2830 2911 2930 2878 2820 2879 2908 2729 2898 2980 2823 2913 2881 2772 2819 2809 2818 2888 2846 2950 2967 2898 2876 2837 2873 2895 2773 2870 2848 2831 2798 2844 2816 2830 2852 2812 2829 2906 2777 2842 2742 2833 2854 2644 2788 2838 2788 2868 2740 2732 2818 2840 2821 2782 2772 2721 2767 2751 2802 2812 2801 2828 2776 2762 2721 2817 2842 2916 2766 2764 2842 2740 2868 2698 2895 2742 2852 2732 2639 2700 2690 2747 2815 2774 2736 2694 2705 2637 2748 2780 2681 2753 2831 2679 2787 2707 2667 2694 2751 2761 2772 2757 2748 2700 2828 2726 2674 2740 2728 2685 2839 2694 2766 2776 2727 2698 2764 2661 2781 2729 2657 2752 2763 2813 2713 2674 2689 2686 2821 2658 2761 2655 2718 2821 2694 2754 2797 2669 2700 2683 2765 2674 2727 2776 2787 2757 2591 2751 2716 2701 2766 2766 2727 2709 2711 2716 2711 2745 2727 2761 2714 2817 2671 2725 2633 2675 2772 2668 2727 2611 2687 2787 2706 2776 2686 2759 2682 2679 2793 2745 2763 2674 2672 2661 2854 2648 2770 2727 2774 2691 2718 2759 2690 2778 2660 2733 2739 2784 2746 2669 2898 2649 2794 2720 2701 2788 2727 2696 2745 2762 2681 2720 2740 2661 2699 2744 2662 2730 2739 2629 2721 2715 2674 2646 2685 2741 2837 2679 2680 2672 2652 2737 2690 2635 2730 2731 2661 2595 2700 2661 2744 2615 2728 2687 2687 2667 2781 2657 2681 2698 2743 2643 2717 2697 2576 2648 2668 2746 2730 2642 2662 2663 2552 2551 2714 2609 2619 2687 2697 2633 2618 2629 2538 2612 2586 2630 2578 2525 2666 2587 2682 2501 2568 2576 2535 2565 2646 2542 2563 2597 2576 2637 2528 2558 2493 2579 2450 2594 2446 2512 2562 2600 2595 2510 2515 2478 2508 2576 2557 2495 2416 2415 2511 2409 2605 2407 2416 2488 2357 2481 2459 2394 2487 2401 2483 2437 2477 2476 2384 2510 2416 2441 2344 2432 2432 2394 2313 2351 2421 2349 2367 2376 2304 2351 2383 2357 2313 2320 2251 2317 2320 2287 2312 2337 2361 2332 2271 2318 2305 2255 2257 2391 2283 2293 2274 2208 2241 2172 2233 2366 2293 2218 2251 2147 2364 2166 2239 2244 2215 2197 2175 2284 2228 2208 2304 2105 2180 2209 2206 2137 2212 2111 2160 2250 2227 2182 2161 2144 2152 2130 2168 2096 2192 2094 2102 2162 2104 2177 2193 2213 2146 2177 2140 2164 2231 2132 2188 2158 2168 2085 2077 2173 2121 2183 2077 2138 2121 2072 2110 2126 2168 2149 2185 2162 2114 2081 2135 2155 2188 2138 2156 2138 2095 2130 2111 2050 2026 2063 2041 2054 2085 2021 2089 2062 2100 2095 2085 2065 2168 2095 1989 2085 2073 2008 2123 2085 2104 2081 2073 2050 2033 2071 2036 2021 1967 1968 2092 1951 1981 1998 2001 2055 2137 2028 2021 2049 1967 2061 2076 1997 2038 1957 2051 2025 1981 2096 1989 2049 2052 2017 2064 2061 2011 2023 2026 2031 2052 1982 2116 1985 2037 1977 2001 1976 1968 2025 2160 2036 2023 2024 2040 1984 2092 1915 2005 1998 2013 2022 2087 2042 1894 2095 2106 1998 1949 1960 2015 2026 2038 1990 1987 1992 2046 2030 2017 2045 2069 2026 2104 2015 2015 2005 1937 2039 2014 2010 2000 2064 1987 1984 1991 1998 2034 2009 1979 1975 2042 2070 1998 2030 2027 1976 1994 1977 2021 2092 2056 2055 2046 2003 2075 2017 1967 1990 2074 2042 2094 2068 2073 2022 2045 2036 2041 2063 2001 1984 1996 2016 1988 2081 2036 2107 2054 2033 2039 2079 1996 1947 2021 1983 2114 1984 1998 2104 2035 1999 2014 2072 2037 2113 2081 2052 2007 2031 2014 2068 2128 2072 1995 2015 1974 2036 2016 2051 2025 2011 1919 1975 2019 2010 1981 1962 2017 1991 2086 2061 2004 2001 2022 2022 1983 2099 2070 1948 2047 2056 1995 2027 2026 2002 2005 1935 1950 2030 2031 1926 1949 1952 1966 1970 1957 1968 1954 1984 1960 1952 1976 1937 1958 1941 1915 1960 1925 1957 1928 1872 1858 2002 1915 1896 1926 1900 1901 1905 1891 1851 1845 1879 1814 1851 1953 1907 1841 1893 1881 1932 1934 1863 1889 1820 1821 1815 1812 1811 1868 1781 1818 1792 1839 1830 1887 1824 1816 1792 1806 1881 1781 1792 1838 1915 1840 1807 1820 1860 1776 1761 1810 1829 1774 1815 1846 1818 1792 1825 1749 1781 1775 1775 1856 1826 1778 1807 1733 1783 1729 1753 1854 1762 1771 1772 1759 1917 1790 1714 1703 1744 1764 1760 1704 1715 1838 1792 1841 1808 1738 1735 1697 1772 1687 1773 1760 1769 1675 1746 1786 1797 1718 1811 1736 1785 1771 1800 1846 1775 1845 1913 1877 1926 1878 1939 1991 2046 2133 2112 2259 2360 2445 2581 2529 2782 2894 2959 3003 3113 3243 3143 3284 3260 3314 3355 3185 3061 3114 3036 3027 2812 2809 2624 2455 2506 2358 2200 2109 2160 2080 2042 1989 1856 1862 1819 1798 1826 1743 1762 1671 1698 1765 1732 1688 1761 1711 1640 1701 1616 1718 1627 1642 1600 1570 1638 1570 1634 1643 1593 1647 1596 1606 1570 1620 1580 1592 1598 1578 1623 1624 1562 1548 1628 1605 1673 1616 1631 1632 1606 1612 1654 1643 1670 1623 1626 1597 1576 1635 1652 1598 1671 1624 1626 1610 1643 1547 1648 1633 1724 1721 1636 1702 1706 1671 1746 1732 1745 1787 1788 1880 1972 2026 2148 2197 2247 2494 2603 2699 2998 3123 3390 3545 3715 4095 4246 4659 4636 5029 5055 5089 5398 5217 5295 5248 5134 4926 4899 4636 4361 4075 3860 3589 3424 3171 3058 2817 2760 2622 2468 2183 2155 2096 2184 1992 1869 1811 1821 1789 1831 1692 1738 1753 1728 1715 1793 1675 1756 1764 1773 1810 1802 1765 1851 1733 1820 1861 1833 1808 1823 1798 1777 1747 1764 1755 1913 1741 1799 1707 1732 1580 1659 1656 1590 1560 1617 1538 1552 1508 1491 1502 1458 1537 1490 1487 1463 1441 1481 1508 1469 1442 1460 1534 1481 1438 1446 1455 1483 1481 1501 1423 1500 1481 1530 1521 1393 1383 1424 1506 1472 1419 1398 1385 1484 1471 1476 1479 1494 1486 1526 1527 1613 1545 1571 1623 1535 1638 1581 1590 1633 1579 1662 1622 1555 1558 1600 1464 1498 1479 1469 1412 1467 1420 1447 1427 1407 1343 1403 1380 1360 1377 1383 1405 1410 1314 1404 1388 1374 1397 1267 1357 1362 1326 1377 1401 1346 1377 1421 1344 1392 1383 1411 1315 1349 1347 1439 1337 1367 1293 1441 1385 1351 1326 1374 1357 1387 1352 1360 1356 1273 1380 1303 1365 1388 1333 1278 1397 1326 1340 1379 1335 1387 1334 1369 1263 1372 1309 1328 1401 1344 1333 1281 1329 1367 1322 1387 1362 1360 1382 1328 1387 1342 1393 1305 1332 1369 1296 1364 1366 1315 1307 1410 1331 1280 1431 1342 1301 1323 1357 1340 1306 1419 1336 1294 1357 1364 1374 1360 1329 1395 1331 1321 1362 1348 1345 1370 1347 1412 1416 1361 1385 1358 1318 1363 1405 1378 1398 1373 1414 1394 1471 1439 1465 1368 1411 1391 1416 1394 1473 1462 1444 1427 1446 1434 1484 1435 1473 1456 1427 1411 1442 1407 1351 1459 1462 1478 1425 1405 1447 1456 1453 1437 1431 1423 1349 1448 1373 1348 1376 1396 1388 1354 1341 1345 1397 1383 1366 1383 1360 1395 1344 1343 1399 1399 1376 1377 1372 1285 1376 1352 1381 1339 1369 1373 1345 1364 1365 1357 1350 1375 1436 1356 1356 1370 1386 1379 1432 1433 1453 1333 1396 1367 1324 1322 1384 1451 1369 1389 1443 1407 1428 1407 1426 1360 1359 1369 1420 1398 1397 1448 1379 1363 1385 1497 1416 1450 1379 1374 1374 1418 1355 1367 1339 1404 1397 1481 1444 1484 1396 1465 1485 1441 1527 1492 1545 1550 1525 1494 1594 1541 1524 1543 1583 1508 1600 1732 1672 1660 1714 1730 1682 1747 1794 1857 1873 1956 2031 2042 2284 2336 2523 2579 2785 3000 3283 3570 3850 4126 4636 5051 5721 6463 6935 8017 8746 9621 10591 11418 11859 12423 12892 13549 13745 14031 13945 13586 13250 12725 12167 11536 10621 10069 9321 8712 7980 7218 6688 5872 5463 4779 4506 4144 3773 3529 3191 3016 2849 2709 2593 2423 2295 2325 2109 2006 2028 2104 1879 1932 1895 1788 1770 1787 1831 1750 1740 1738 1754 1773 1743 1814 1837 1773 1786 1794 1807 1871 2030 1960 1987 2013 2056 1928 2056 1982 1961 1973 1959 1927 1922 1840 1861 1715 1788 1718 1634 1676 1573 1604 1523 1471 1459 1420 1515 1369 1388 1376 1363 1353 1376 1345 1354 1337 1326 1383 1410 1320 1277 1370 1340 1271 1338 1324 1290 1320 1313 1373 1271 1283 1337 1309 1284 1270 1233 1207 1288 1267 1300 1303 1303 1246 1286 1318 1231 1233 1274 1282 1270 1275 1298 1265 1273 1246 1318 1242 1279 1312 1290 1270 1296 1293 1287 1290 1215 1287 1284 1326 1262 1292 1274 1197 1248 1239 1292 1310 1268 1227 1335 1255 1328 1299 1261 1269 1266 1230 1273 1266 1316 1206 1247 1225 1177 1225 1241 1234 1336 1230 1231 1230 1245 1233 1226 1290 1251 1231 1234 1202 1209 1241 1255 1213 1246 1282 1232 1199 1225 1169 1296 1194 1274 1252 1227 1210 1239 1206 1260 1202 1197 1192 1231 1259 1229 1242 1218 1250 1226 1238 1269 1239 1227 1137 1247 1229 1257 1242 1173 1206 1176 1221 1211 1174 1202 1209 1182 1228 1218 1165 1176 1268 1205 1269 1177 1196 1206 1193 1196 1212 1189 1202 1178 1170 1152 1165 1186 1168 1259 1225 1229 1254 1219 1204 1142 1198 1105 1167 1138 1229 1153 1121 1184 1151 1135 1222 1228 1189 1189 1178 1147 1275 1197 1206 1187 1124 1228 1163 1193 1262 1294 1274 1257 1243 1359 1281 1314 1311 1307 1330 1284 1297 1327 1243 1274 1213 1306 1289 1279 1271 1149 1253 1202 1235 1174 1221 1193 1226 1203 1127 1180 1119 1135 1167 1233 1207 1166 1170 1169 1141 1233 1190 1161 1182 1149 1164 1167 1191 1110 1240 1147 1118 1142 1186 1123 1175 1183 1201 1068 1173 1139 1129 1164 1112 1129 1167 1142 1184 1166 1157 1149 1181 1103 1165 1178 1136 1136 1159 1172 1180 1159 1135 1130 1189 1119 1139 1076 1176 1109 1110 1175 1096 1197 1115 1082 1164 1099 1076 1127 1119 1131 1134 1108 1118 1119 1182 1151 1102 1148 1081 1114 1216 1141 1171 1064 1114 1138 1046 1113 1067 1073 1109 1069 1165 1145 1078 1138 1111 1088 1139 1132 1064 1096 1131 1101 1105 1049 1115 1104 1114 1103 1109 1087 1046 1074 1097 1111 1133 1097 1100 1092 1048 1076 1094 1103 1078 1119 1154 1101 1117 1102 1105 1095 1119 1133 1095 1151 1087 1129 1128 1119 1112 1095 1134 1053 1107 1128 1070 1137 1124 1102 1134 1036 1054 1093 1112 1111 1117 1044 1088 1108 1116 1183 1123 1098 1120 1127 1074 1083 1098 1133 1052 1066 1107 1111 1036 1098 1069 1112 1144 1056 1089 1049 1069 1148 1119 1139 1121 1064 1103 1102 1042 1145 1104 1127 1079 1091 1103 1072 1174 1049 1093 1123 1105 1082 1097 1082 1137 1047 1076 1110 1124 1104 1031 1121 1115 1139 1088 1053 1059 1133 1051 1036 1073 1147 1075 1099 1025 1109 1119 1087 1091 1112 1033 1089 1081 1045 1091 1088 1035 1018 1060 1074 1078 1027 1076 1105 1039 1047 1047 1119 1085 1111 1005 1062 1045 1089 1013 1086 1039 1106 1151 1108 1085 1141 1095 1064 1055 1124 1057 1020 1086 1056 1083 1089 1081 1064 1099 1065 1122 1024 1109 1112 1098 1062 1047 1101 983 1091 1140 1108 1086 1021 1163 1052 1121 1096 1060 1071 1073 1111 1054 1100 1103 1115 1106 1126 1110 1077 1021 1157 1098 1074 1059 1062 1018 1060 1060 1048 1097 1068 1056 1063 1070 1025 1089 1073 1083 1031 1062 1013 1030 1158 1056 1103 1046 1026 1078 1038 1085 1063 1083 1049 1056 1117 1020 1147 1054 1070 1019 1094 1162 1023 1086 1052 1050 1052 1029 1046 1094 1085 1015 1063 1059 1016 1059 1079 1078 1048 1110 1089 1080 1023 1024 1123 1035 1020 1065 1059 1072 1042 1070 1060 985 1075 1089 1075 996 1061 1017 1132 1089 1061 1114 1037 1078 1049 993 1055 1103 1033 1045 1072 1068 1055 1095 1031 999 1065 1082 1102 1058 1070 1138 1097 1043 1092 1057 1060 1016 1071 1014 1048 1114 1062 1119 1086 1110 1082 1084 1050 1013 1078 1080 1025 1072 1084 1067 1137 1089 1067 1094 1037 1090 1091 1053 1053 1043 1100 1097 1133 1051 1089 1075 1051 1079 1028 1125 1065 1050 1118 1062 1058 1032 1051 1089 1097 1085 1127 1094 1020 1076 1019 1043 1033 1055 1107 1133 1081 1033 1045 1013 1049 1069 1132 1056 1075 1077 1039 1068 1057 1059 1039 1062 1040 1034 1053 1051 1033 1111 1119 1075 1059 1065 1070 1049 1053 1061 1054 1059 1069 1019 1045 1092 1002 1041 1022 1127 1041 1111 1092 1083 1098 1047 1057 1046 1070 1051 1006 1066 1064 1077 1064 1019 1036 1057 1107 1059 1080 1057 1006 1004 1037 1013 1061 1001 1037 1022 1052 1041 1085 1072 1078 1053 1116 1048 1010 1024 1056 999 1083 1118 1132 1095 1031 1066 1059 1054 1031 1032 1063 1014 1073 1070 982 1052 1071 1085 1123 1098 1084 1054 1112 1072 1043 1085 1036 1072 1051 1153 1103 1022 1059 1044 1046 1133 1080 1030 1113 1063 1073 1051 1030 1086 1147 1115 1084 1051 1088 1088 1111 1061 1023 1045 1022 1027 1074 1054 1091 1070 1072 992 1025 1064 1047 1086 1135 1030 1116 1088 1079 1059 1130 1096 1075 1122 1115 1067 1137 1076 1100 1085 1136 1086 1101 1118 1124 1110 1146 1164 1149 1165 1162 1219 1233 1283 1234 1309 1347 1387 1498 1516 1549 1701 1699 1722 1852 1937 1984 2047 2088 2181 2315 2142 2187 2258 2241 2203 1963 2010 2007 1949 1924 1831 1846 1693 1693 1610 1562 1506 1472 1416 1465 1328 1278 1204 1232 1200 1182 1163 1183 1205 1062 1066 1156 1107 1093 1096 1046 1020 1148 1041 1075 1075 1031 1081 1048 1080 1047 1029 1038 999 1123 1052 1053 1064 1027 1026 1098 1047 1058 1073 1014 1023 1043 1030 1068 1004 1034 1008 941 1030 1000 1040 1038 1095 1078 1039 1015 1046 1071 993 1071 1090 1119 1025 1025 979 1006 1062 1022 1039 984 1071 958 1019 1078 1071 1045 1015 1042 1054 1052 970 1095 1039 1102 1065 1007 1057 999 1039 1020 1035 1020 1082 1034 1034 1096 1020 1108 988 1015 1061 1047 1068 992 1042 1058 1065 1025 993 1004 1033 981 1043 1006 1062 992 958 965 1056 1039 1006 1006 1006 1043 951 1041 984 957 1031 1064 1054 1025 988 1003 1034 1039 1029 1062 1062 999 997 1040 1009 1003 981 1017 1052 984 998 1036 1037 983 1005 1007 971 1044 1063 988 1003 1033 1053 1010 1022 1012 1034 999 1026 1014 1057 1021 1019 1036 990 1037 1049 1037 1032 1026 1022 1012 1052 984 961 1002 1027 1092 1025 1073 1002 1026 1041 1068 1067 1045 1042 1021 1033 1026 1091 1053 1045 1029 1045 999 1070 1088 991 1133 1057 1088 1052 1056 1009 1033 1089 1036 1094 1062 1090 998 1014 1020 971 1053 1051 1087 1075 1061 1071 1061 1013 1034 996 1087 1076 1087 1037 1118 1028 1057 1049 1018 1006 966 1083 1034 1017 996 951 1000 1013 1023 1031 1011 1031 1106 1054 1095 1066 1039 1021 1033 975 1028 1066 1064 1035 1058 1034 1033 1023 1124 994 1076 1096 1062 997 1053 1019 1058 1072 1024 1056 1051 1133 1048 1082 1084 1037 1069 1042 1085 1036 1033 988 1055 1081 1029 1064 1033 1041 1123 1062 1121 1088 1041 1024 1052 1045 1048 1030 1084 1150 1110 1105 1105 1046 1128 1123 1103 1092 1115 1072 1126 1113 1206 1165 1181 1146 1237 1136 1165 1169 1088 1246 1190 1245 1261 1298 1299 1358 1323 1323 1371 1417 1495 1482 1600 1616 1643 1800 1927 2021 2128 2385 2512 2769 3111 3223 3718 3993 4366 4730 5003 5483 5924 6372 6475 6810 6735 6666 6592 6487 6236 6117 5894 5592 5390 5391 5066 4931 4775 4517 4240 4011 3648 3400 3098 2969 2674 2480 2330 2126 2042 1940 1858 1776 1712 1573 1558 1528 1497 1519 1433 1337 1374 1264 1237 1316 1290 1226 1232 1184 1187 1179 1179 1142 1156 1171 1175 1167 1081 1153 1112 1114 1069 1179 1116 1103 1040 1117 1090 1099 1135 1085 1039 1120 1137 1115 1116 1103 1133 1132 1106 1125 1177 1180 1132 1198 1244 1181 1184 1180 1174 1160 1163 1177 1232 1138 1180 1263 1214 1144 1212 1134 1224 1185 1165 1154 1175 1116 1059 1120 1083 1110 1081 1128 1172 1031 1036 1043 1065 1117 1093 1066 1050 1076 1074 1019 1052 1039 1068 1043 1057 996 1000 1081 1067 1007 1051 1028 1068 1053 1060 1106 1036 1047 1015 959 1000 1070 1062 984 986 1018 964 1049 1018 1066 1095 1067 1003 989 972 1016 1033 1004 1050 1049 980 997 1038 964 1039 1024 1027 966 1076 1063 996 1000 1038 1055 1012 1005 982 1012 1001 987 935 971 1063 1059 1016 993 990 1051 1022 978 1070 1002 1014 1005 1066 989 1037 1086 1011 1042 1072 1018 1064 1082 1100 1090 1073 1187 1077 1147 1221 1168 1278 1336 1295 1344 1377 1432 1452 1511 1549 1525 1551 1538 1491 1576 1503 1533 1506 1531 1408 1437 1451 1358 1320 1359 1436 1306 1229 1247 1243 1212 1172 1187 1130 1074 1147 1144 1046 1037 1056 1026 1037 1036 1030 1010 997 1034 1040 987 1050 930 1010 1008 978 1051 966 987 1085 1009 1058 985 1010 951 1001 986 1031 983 934 994 1032 1019 978 907 924 950 960 998 967 973 947 905 988 945 1032 1008 975 1031 943 968 1068 952 1006 1012 944 1033 955 972 972 926 971 947 997 931 959 1002 928 929 944 978 970 924 945 915 953 940 927 954 906 979 991 1017 988 935 970 971 869 928 891 966 990 970 935 943 914 887 942 966 960 1006 1007 935 1004 950 933 965 1008 891 993 942 927 961 965 978 977 927 936 942 925 944 996 947 975 903 957 980 932 1026 942 919 970 958 965 945 962 955 947 903 954 935 997 978 937 989 952 940 992 913 925 920 949 898 915 980 959 966 915 926 897 970 977 976 992 872 984 958 949 935 922 942 893 947 955 885 952 969 960 919 968 928 940 896 968 939 840 963 925 956 890 905 941 921 1005 930 910 971 956 922 952 894 973 967 964 907 930 945 944 903 926 873 961 933 956 930 957 937 900 968 933 929 978 906 933 927 932 955 907 931 937 903 957 918 956 956 874 970 962 936 935 919 947 926 849 918 900 878 953 903 909 918 958 913 909 933 932 927 917 961 917 972 888 931 972 930 973 974 934 921 925 900 944 862 903 919 920 892 922 920 945 892 934 899 947 967 873 932 966 910 935 919 909 933 904 898 907 888 869 897 927 919 913 999 930 866 939 907 925 891 896 925 907 908 878 945 901 960 957 878 955 937 876 899 867 885 1007 894 907 923 909 934 891 960 968 868 939 950 954 872 896 883 904 960 884 869 911 877 923 911 911 907 885 936 897 928 868 884 981 978 909 958 920 919 900 906 892 933 890 896 901 915 921 905 935 929 890 944 903 930 889 957 945 970 941 899 907 913 903 893 923 913 912 937 846 913 966 940 909 815 874 876 894 932 917 886 883 910 881 876 893 885 963 938 933 913 887 919 896 912 943 851 943 937 938 881 922 935 923 929 889 999 913 933 869 891 901 922 883 893 862 908 881 943 908 892 877 878 884 908 895 903 896 865 966 901 964 862 862 899 862 904 881 884 926 950 871 904 951 931 878 910 907 943 884 938 912 902 858 928 890 910 915 916 916 873 942 887 935 871 947 901 880 895 924 883 938 914 884 891 891 952 953 898 897 930 966 969 925 970 956 902 886 947 916 989 936 986 932 957 914 939 932 968 964 951 1026 982 1011 1073 994 1046 1053 1049 1068 1068 1014 1086 980 1009 1010 1016 953 974 1046 1000 984 979 1006 967 1013 974 1046 946 943 919 999 910 1003 922 954 930 954 964 961 943 941 964 972 940 974 958 964 986 943 1021 973 1003 957 967 1024 959 984 1010 1086 1061 1015 1096 1118 1202 1154 1322 1262 1348 1370 1388 1512 1487 1544 1605 1577 1561 1628 1558 1602 1504 1474 1481 1466 1428 1436 1472 1396 1470 1318 1387 1337 1375 1335 1264 1216 1129 1113 1104 1175 1076 1084 1012 1079 1039 1057 1034 1046 969 987 959 928 984 930 1025 904 957 925 962 918 950 928 913 937 967 849 929 941 956 951 925 925 909 859 858 925 875 937 921 892 918 963 939 921 915 895 859 962 929 880 911 933 939 923 937 891 971 927 972 942 939 911 968 910 922 919 950 951 940 888 938 976 967 953 997 964 986 1035 1021 969 930 979 1013 984 989 996 990 1000 992 950 910 893 987 1010 943 916 976 985 944 991 1018 1002 1005 903 991 963 896 922 971 890 927 885 950 862 908 907 917 887 911 905 921 930 884 908 960 919 967 905 879 930 934 868 909 933 966 939 879 897 936 889 851 883 911 920 830 902 947 918 935 897 973 940 922 829 838 880 915 910 943 899 888 874 936 874 901 943 926 902 910 899 826 895 906 918 890 916 916 873 910 905 977 896 949 924 921 922 906 999 898 903 887 934 930 902 912 942 885 946 958 976 915 936 942 993 934 893 979 946 968 974 928 966 1057 1004 941 1012 963 1049 1097 1033 1076 1049 1123 1047 1171 1180 1337 1384 1459 1413 1552 1551 1677 1731 1806 2012 1960 2023 2071 2099 2136 2080 2013 2082 2097 2034 1968 1909 1903 1851 1817 1866 1788 1763 1694 1854 1777 1661 1686 1586 1534 1476 1405 1272 1310 1318 1235 1249 1130 1147 1195 1181 1054 1129 1054 1067 1022 1109 975 971 1059 1024 968 943 988 926 959 929 947 917 975 936 948 906 954 926 922 928 935 938 904 882 824 958 900 892 1000 942 922 924 875 960 873 935 879 905 953 866 872 872 967 924 933 912 961 907 882 932 925 922 922 896 885 920 885 943 882 931 940 918 929 925 938 900 913 903 898 897 971 903 889 920 962 908 915 886 946 928 900 1002 894 945 943 929 933 878 925 894 883 897 885 853 863 858 813 970 944 935 889 862 881 842 925 874 881 866 863 829 887 941 916 868 862 911 909 855 906 909 876 868 867 838 921 882 920 938 868 882 972 896 898 972 982 881 948 938 935 1026 1012 994 1032 962 1057 967 1055 1085 1112 1158 1111 1201 1108 1221 1163 1175 1109 1147 1160 1078 1118 1069 1101 1123 1177 1183 1089 1091 1122 1065 1088 1074 1037 1076 1045 1036 1019 1003 1011 927 1016 922 994 968 926 857 924 893 909 924 927 900 911 922 886 898 943 873 894 950 918 903 935 943 943 881 918 887 883 857 862 877 868 836 894 883 844 930 897 867 920 892 947 914 995 932 910 960 992 953 1031 976 992 1027 931 909 977 976 977 949 901 952 926 913 946 880 911 964 948 947 914 895 953 864 975 885 857 920 915 845 880 857 937 838 879 835 936 843 874 883 857 907 885 851 824 813 897 864 868 871 870 851 897 888 874 864 888 836 831 851 860 848 872 951 896 884 860 791 855 868 880 876 840 812 837 833 902 846 845 896 839 860 840 918 911 836 833 863 821 916 915 850 920 870 927 829 875 845 867 823 806 834 877 886 844 908 850 870 838 865 892 852 870 866 830 865 881 866 874 889 849 856 874 841 846 837 833 860 826 798 859 863 912 822 863 822 876 867 827 847 886 796 863 855 861 839 932 922 850 904 889 867 833 848 883 875 825 858 830 859 836 856 814 891 865 870 922 823 919 823 845 886 857 860 827 804 886 842 884 836 823 900 852 836 824 831 840 809 923 839 835 819 836 799 834 810 864 863 867 867 856 846 867 872 816 895 882 800 845 891 832 897 878 811 857 853 840 884 861 809 802 820 827 831 865 886 869 822 855 874 884 886 892 836 896 852 890 892 857 870 844 903 833 863 825 831 897 853 822 801 766 874 842 860 887 904 871 850 883 840 876 852 876 899 841 909 820 890 843 873 826 830 891 899 843 845 925 865 868 834 848 898 828 806 893 844 886 867 831 899 843 832 841 844 828 859 857 815 884 871 813 880 865 825 802 869 862 856 814 847 878 800 854 897 846 806 848 818 857 863 895 847 837 860 880 793 885 849 853 858 876 866 884 867 863 866 821 797 874 838 870 834 831 805 826 846 808 856 842 868 872 837 860 797 884 845 850 875 829 801 798 800 846 809 873 813 851 848 822 829 821 900 876 841 868 817 806 917 866 825 815 838 814 855 838 865 899 842 821 807 857 835 864 876 841 895 924 855 874 869 918 850 863 854 850 880 947 854 858 860 881 949 901 912 928 981 927 954 950 975 1099 970 1050 975 989 1068 1010 978 952 956 942 1006 927 963 971 927 895 1007 991 911 983 979 945 900 920 946 933 913 871 915 937 904 913 881 925 900 886 908 866 820 888 855 879 826 872 864 894 875 870 877 848 857 820 827 790 868 868 855 866 895 877 885 857 824 850 840 865 860 861 866 860 850 790 834 885 882 833 850 845 832 815 840 836 824 836 827 884 860 786 844 826 832 777 851 806 869 844 837 847 837 887 799 802 843 818 815 864 807 854 837 781 824 855 825 756 852 839 873 832 851 853 809 817 818 832 848 788 860 825 880 822 791 803 847 819 809 819 797 833 868 831 836 817 849 826 863 836 868 829 867 797 829 857 790 882 820 841 844 817 897 813 836 872 870 850 816 825 812 865 815 852 864 831 812 860 835 888 869 806 817 828 860 789 800 866 821 846 791 839 809 879 774 801 844 846 852 877 763 827 813 831 823 799 799 836 862 840 791 840 914 803 833 864 835 827 840 862 874 844 794 831 823 847 835 808 859 799 857 864 801 797 791 833 875 887 864 797 856 846 803 808 825 841 879 873 865 837 827 807 890 827 831 843 815 851 874 888 853 863 881 902 885 884 830 875 907 925 875 859 884 850 895 880 831 910 915 929 895 906 918 903 940 915 945 1028 948 990 1029 1041 1082 1088 1099 1132 1116 1189 1240 1168 1317 1193 1352 1320 1330 1304 1421 1350 1440 1456 1439 1455 1418 1444 1387 1357 1316 1266 1367 1309 1296 1270 1228 1218 1219 1249 1167 1188 1194 1150 1197 1159 1094 1106 1032 1115 1066 982 1003 987 969 964 975 940 895 959 881 945 926 892 897 904 865 880 894 831 904 932 850 844 830 854 823 912 902 796 851 884 832 920 876 888 897 885 825 839 863 827 848 828 844 878 848 813 866 857 848 826 837 794 871 763 897 847 815 841 852 830 887 868 808 828 877 845 845 829 831 785 811 827 868 856 837 844 836 914 809 877 862 796 839 836 842 832 845 861 860 851 848 854 842 833 829 848 832 804 830 865 854 833 879 880 860 858 854 906 884 833 900 854 977 875 849 894 894 852 855 849 852 886 858 834 900 861 926 863 874 827 854 884 843 870 838 859 837 848 779 832 830 844 798 894 853 870 871 828 876 834 829 880 847 845 834 819 824 869 768 839 784 860 872 819 793 838 826 833 829 893 840 806 843 835 808 817 847 860 827 890 838 826 846 820 836 866 856 798 863 870 833 837 831 864 829 814 885 835 838 847 838 793 781 833 843 846 807 822 824 791 820 808 786 822 806 799 836 807 776 847 861 849 823 835 790 801 848 817 772 839 824 799 846 823 847 885 869 800 858 857 828 847 829 814 859 811 860 844 870 779 837 833 830 832 815 863 792 875 871 844 876 816 851 816 822 786 777 837 852 885 821 818 839 833 833 843 869 820 863 820 797 833 867 809 802 815 823 776 835 797 926 834 858 812 812 776 799 793 849 796 839 837 840 804 783 833 773 832 843 813 814 823 857 796 858 875 805 847 853 799 852 861 862 814 802 819 805 831 842 828 777 813 875 818 819 836 832 841 815 798 836 819 842 814 844 824 838 790 807 834 852 847 799 862 787 801 828 812 877 844 842 827 783 826 824 784 816 831 826 837 863 785 867 795 852 872 822 852 832 813 857 853 791 832 834 769 886 817 782 838 805 836 884 846 854 799 827 843 850 801 840 872 815 835 767 852 818 817 825 843 859 866 887 879 870 828 851 810 775 812 794 821 836 813 828 830 830 804 837 809 841 786 834 807 848 814 799 809 802 786 811 842 841 858 833 827 845 923 820 838 798 846 815 812 829 828 820 845 827 837 836 837 833 806 849 853 833 832 791 861 801 755 845 857 848 850 844 833 826 822 792 769 894 818 817 780 838 764 845 823 847 823 805 802 798 869 786 820 836 817 880 828 827 827 821 892 858 814 806 834 850 825 805 812 791 844 800 809 891 816 843 861 840 833 750 797 839 803 853 910 837 847 798 841 835 792 857 812 825 793 865 878 759 841 859 854 831 790 852 802 815 880 864 860 864 811 864 811 850 798 810 836 831 868 837 764 851 819 785 807 813 861 827 819 838 821 847 824 844 825 858 818 802 817 867 791 857 849 839 891 859 860 813 867 824 829 849 828 837 837 895 870 895 861 839 894 801 930 953 858 912 935 905 950 934 931 1000 943 936 933 1018 969 977 941 942 917 920 973 944 939 935 927 922 960 951 898 915 873 865 866 938 887 942 935 930 876 922 881 903 895 870 869 822 931 856 930 866 906 877 908 937 889 910 907 916 972 936 935 923 956 1010 1016 1027 1027 1050 1008 997 1026 1045 1012 1007 971 1004 967 959 1016 961 953 946 957 975 924 940 974 981 962 876 1021 964 929 953 879 931 936 945 904 887 930 924 899 900 910 883 926 861 876 890 872 857 897 844 855 827 862 866 887 860 854 845 858 921 797 886 866 885 856 812 898 800 862 857 850 847 841 861 853 873 835 850 897 852 839 857 897 838 876 847 867 830 884 873 850 865 875 892 870 866 880 835 817 868 838 838 835 873 858 874 879 840 856 894 853 861 835 857 875 829 802 821 856 833 866 822 860 822 880 893 851 883 819 861 821 857 853 809 814 853 834 874 842 870 860 879 849 909 857 863 854 843 893 874 827 852 901 899 913 909 892 915 869 853 882 931 845 870 879 889 928 858 841 891 838 911 860 884 975 843 902 958 898 874 855 886 836 909 892 913 944 948 958 921 838 935 909 974 894 942 899 861 891 901 888 936 941 963 965 954 904 1005 971 950 996 959 988 1006 1042 1037 1053 1001 1075 1016 1121 1087 1157 1214 1230 1280 1287 1375 1382 1452 1542 1559 1597 1660 1719 1832 1797 1853 1786 1802 1758 1753 1650 1664 1588 1606 1564 1614 1437 1456 1433 1542 1546 1393 1518 1431 1406 1430 1419 1435 1452 1446 1399 1419 1345 1304 1309 1263 1284 1239 1208 1166 1110 1114 1055 1081 1044 1045 941 1009 1051 956 1005 938 966 980 919 971 930 883 920 881 913 911 969 997 915 890 874 915 915 843 876 959 922 911 862 842 940 882 880 876 872 871 899 816 856 891 952 839 862 906 944 863 894 921 898 891 871 840 871 901 888 862 919 874 882 874 896 868 831 839 912 868 874 854 907 953 878 870 858 861 888 876 871 833 863 882 854 882 867 895 902 854 873 816 841 886 846 839 853 886 869 881 866 903 868 862 860 867 945 830 896 888 898 888 850 839 847 894 902 884 859 867 939 850 884 890 900 904 915 895 924 948 927 940 980 942 1008 957 967 989 944 1028 924 896 960 963 949 936 922 975 930 909 907 928 932 920 925 909 931 934 943 885 851 885 909 923 869 927 843 861 910 890 877 862 874 852 871 948 819 909 857 891 856 898 846 837 894 836 862 895 845 861 830 868 840 859 790 826 787 884 875 864 868 837 797 836 865 847 870 866 837 828 825 855 830 807 805 872 851 825 826 866 767 774 832 877 805 823 831 915 847 848 852 783 875 848 810 854 810 830 812 858 821 846 831 832 799 791 808 838 804 822 810 771 813 861 847 842 878 784 877 867 832 796 867 836 803 890 890 862 839 802 853 793 822 842 822 814 842 802 809 916 776 830 821 817 845 863 798 830 885 862 861 803 790 808 813 813 829 827 800 816 885 846 811 789 791 832 814 860 813 826 852 845 812 844 835 799 834 851 799 823 837 800 874 823 830 827 799 878 845 796 794 829 817 850 852 829 794 828 846 801 805 875 797 865 840 888 788 833 826 847 820 817 862 840 806 862 819 840 835 822 806 858 814 843 839 777 862 860 829 835 847 850 832 798 812 835 772 841 831 830 828 824 845 832 800 819 814 863 862 810 822 785 878 786 799 834 824 833 787 852 825 833 824 862 843 787 866 787 870 829 836 834 770 836 825 813 832 801 782 832 843 792 847 853 735 795 836 799 841 799 835 828 837 823 824 849 817 837 791 830 804 781 844 804 826 834 823 789 823 885 836 817 800 861 838 831 806 830 757 827 824 794 753 797 866 770 796 834 791 837 814 841 839 814 829 828 803 784 849 827 801 788 820 826 825 834 821 858 837 826 796 805 836 784 794 834 825 872 875 803 848 813 864 813 803 847 800 838 821 793 834 795 816 860 816 799 841 826 834 857 828 903 841 826 846 829 850 846 820 868 869 810 790 820 886 833 854 839 828 863 824 815 834 859 861 793 870 821 828 841 824 840 818 822 882 838 834 833 813 868 789 819 819 836 821 773 892 847 921 809 837 892 828 917 837 912 852 902 858 882 853 892 923 882 904 925 899 871 911 848 978 945 943 962 933 910 907 893 953 931 932 913 923 866 911 893 914 899 954 884 894 878 894 888 913 865 890 914 894 918 901 901 920 919 893 867 849 877 877 782 838 858 811 841 897 882 797 872 821 807 898 832 841 844 866 855 868 822 844 793 871 864 818 801 834 816 881 822 779 800 839 831 828 839 843 847 813 793 791 826 818 844 846 813 868 775 812 840 828 836 817 769 809 885 831 912 809 776 800 863 830 832 818 840 834 834 821 821 817 811 789 849 757 835 769 775 820 833 807 829 822 873 832 833 846 810 863 865 825 795 819 836 841 850 859 832 803 819 826 838 795 856 852 844 836 842 824 809 827 808 831 835 867 815 842 837 791 778 794 819 772 841 869 824 823 785 878 825 843 807 845 852 846 789 795 828 800 831 813 792 842 877 821 802 813 836 838 752 811 805 803 882 798 823 852 821 844 784 819 823 833 758 812 882 822 811 871 849 836 859 864 858 833 864 862 824 860 786 826 836 839 872 841 849 823 833 828 836 897 843 895 807 821 793 846 853 842 840 844 834 867 847 929 922 845 864 915 888 898 866 881 861 852 922 933 908 922 947 928 962 899 920 941 983 952 940 1010 1003 1013 1045 1077 1065 1101 1125 1114 1218 1180 1187 1235 1292 1308 1326 1332 1346 1488 1369 1537 1440 1532 1487 1439 1462 1364 1396 1385 1355 1318 1290 1371 1252 1266 1215 1228 1252 1183 1189 1192 1119 1173 1219 1138 1190 1159 1212 1204 1215 1226 1196 1253 1158 1170 1123 1088 1075 1043 985 1102 1006 1031 968 981 984 914 939 954 963 956 915 1004 953 892 873 926 893 895 882 897 907 862 908 829 818 818 886 822 819 856 856 889 857 914 852 857 813 850 842 842 857 851 855 854 890 901 841 819 853 862 819 836 852 878 834 838 897 833 794 897 830 820 829 810 835 788 857 791 832 830 833 839 873 841 786 845 819 811 812 847 825 782 890 834 829 871 831 821 861 815 817 831 820 869 825 828 818 837 813 925 808 800 803 851 842 825 804 817 853 869 844 851 805 851 868 802 834 821 845 837 870 857 818 872 857 835 892 857 824 890 847 915 845 871 860 880 863 828 890 868 905 885 861 845 932 892 892 909 806 826 840 884 906 872 847 839 922 879 885 844 914 920 879 882 883 871 884 847 851 866 854 835 809 844 893 821 860 819 840 850 930 826 842 805 828 795 837 875 868 877 874 822 828 852 804 823 914 819 790 843 797 835 816 841 808 850 829 884 849 806 800 849 852 791 805 841 789 798 846 805 774 845 869 741 863 876 879 800 820 810 856 780 843 830 839 850 796 812 817 817 800 875 805 782 770 820 828 799 799 822 797 840 762 885 826 846 775 822 825 798 849 797 776 841 860 819 768 864 808 781 809 828 781 894 828 827 831 806 842 804 817 850 755 834 781 821 786 789 830 799 774 844 793 749 809 762 812 775 752 809 816 831 808 801 836 799 820 779 869 822 864 808 819 889 820 807 804 834 795 840 871 843 853 823 835 833 834 793 809 811 828 835 818 782 795 818 845 803 781 796 785 830 784 799 822 818 823 769 805 877 772 802 780 804 765 805 798 778 756 889 842 843 873 815 786 859 769 872 793 809 859 784 831 825 823 818 791 816 807 816 768 842 793 810 771 798 790 797 811 825 793 822 839 835 828 816 785 828 770 858 798 781 812 831 777 832 798 803 791 838 817 805 779 788 820 771 803 817 853 801 793 843 844 812 801 853 808 863 832 844 846 843 783 824 839 825 831 773 830 834 843 832 832 805 813 797 903 833 789 853 761 853 825 814 827 852 846 774 810 831 889 828 854 824 867 832 769 786 824 814 794 793 828 847 823 833 756 823 814 821 798 850 793 857 793 813 855 814 867 794 837 847 834 812 821 780 843 797 811 868 783 842 838 824 862 774 824 864 812 838 819 838 798 804 783 794 844 798 818 832 806 796 825 799 807 824 842 811 865 821 829 827 800 842 843 829 807 845 802 764 801 814 829 809 812 792 839 889 831 840 815 871 913 828 855 865 776 825 835 834 807 873 831 830 810 811 822 853 873 891 901 878 857 831 880 882 912 846 870 876 887 931 909 924 914 929 906 908 927 934 972 898 958 978 986 948 994 914 894 896 975 883 911 907 906 929 962 913 906 899 891 924 879 881 903 900 926 905 952 945 907 955 836 955 917 999 885 915 912 900 949 870 915 937 943 920 872 871 930 965 942 896 954 977 940 959 898 929 899 988 961 968 932 910 907 885 859 904 933 902 976 898 899 881 871 900 882 858 901 897 858 866 877 860 869 887 870 821 928 852 878 854 864 836</counts>
			</dataPoints>
		</scan>
	</xrdMeasurement>
</xrdMeasurements>
