<?xml version="1.0"?>
<xrdMeasurements xmlns="http://www.xrdml.com/XRDMeasurement/2.3" xmlns:xsi="http://www.w3.org/2001/XMLSchema-instance" xsi:schemaLocation="http://www.xrdml.com/XRDMeasurement/2.3 http://www.xrdml.com/XRDMeasurement/2.3/XRDMeasurement.xsd" status="Completed" recordIdentifier="{305D102E-3BAE-4642-A75D-CDF03C3CF347}">
	<comment>
		<entry/>
	</comment>
	<sample type="To be analyzed">
		<id>GPSS_Li1p45Mn0p75Y0p10Ta0p15Cl4_111825_691cd5d8f3837ac4a0a99fd7</id>
		<name></name>
		<preparedBy></preparedBy>
	</sample>
	<xrdMeasurement measurementType="Scan" status="Completed" sampleMode="Reflection">
		<usedWavelength intended="K-Alpha 1">
			<kAlpha1 unit="Angstrom">1.5405980</kAlpha1>
			<kAlpha2 unit="Angstrom">1.5444260</kAlpha2>
			<kBeta unit="Angstrom">1.3922500</kBeta>
			<ratioKAlpha2KAlpha1>0.5000</ratioKAlpha2KAlpha1>
		</usedWavelength>
		<incidentBeamPath>
			<radius unit="mm">145.00</radius>
			<xRayTube id="1010048" name="Empyrean Cu LFF HR (9430 033 7310x)">
				<tension unit="kV">40.0</tension>
				<current unit="mA">15.0</current>
				<anodeMaterial>Cu</anodeMaterial>
				<focus type="Line">
					<length unit="mm">12.0</length>
					<width unit="mm">0.4</width>
					<takeOffAngle unit="deg">6.0</takeOffAngle>
				</focus>
			</xRayTube>
			<sollerSlit id="21010002" name="Soller slits 0.04 rad.">
				<opening unit="rad">0.0400</opening>
			</sollerSlit>
			<mask id="22031000" name="Fixed mask 13 mm">
				<width unit="mm">9.00</width>
			</mask>
			<divergenceSlit id="22120001" name="Divergence slit 1°" xsi:type="fixedDivergenceSlitType">
				<distanceToSample unit="mm">50.00</distanceToSample>
				<height unit="mm">1.52</height>
			</divergenceSlit>
		</incidentBeamPath>
		<sampleMovement xsi:type="spinningSampleMovementType">
			<spinnerRevolutionTime unit="seconds">1.0</spinnerRevolutionTime>
		</sampleMovement>
		<diffractedBeamPath>
			<radius unit="mm">145.00</radius>
			<antiScatterSlit id="22090040" name="AS slit 9 mm (PIXcel)" xsi:type="fixedAntiScatterSlitType">
				<height unit="mm">9.00</height>
			</antiScatterSlit>
			<sollerSlit id="21020003" name="Large Soller slits 0.04 rad.">
				<opening unit="rad">0.0400</opening>
			</sollerSlit>
			<filter id="20030001" name="Large beta-filter Nickel">
				<material>Ni</material>
				<thickness unit="mm">0.020</thickness>
			</filter>
			<detector id="7010019" name="PIXcel1D-Medipix3 detector" xsi:type="rtmsDetectorType">
				<phd unit="keV">
					<lowerLevel>4.02</lowerLevel>
					<upperLevel>11.27</upperLevel>
				</phd>
				<mode>Scanning</mode>
				<activeLength unit="deg">5.542</activeLength>
			</detector>
		</diffractedBeamPath>
		<scan appendNumber="0" mode="Continuous" scanAxis="Gonio" status="Completed">
			<header>
				<startTimeStamp>2025-11-21T20:09:47-08:00</startTimeStamp>
				<endTimeStamp>2025-11-21T20:17:54-08:00</endTimeStamp>
				<author>
					<name>AutomatedUser</name>
				</author>
				<source>
					<applicationSoftware version="1.7b (136)">PANalytical Aeris Instrument Suite</applicationSoftware>
					<instrumentControlSoftware version="3.2.00000000 20240306">AERIS</instrumentControlSoftware>
					<instrumentID>950485</instrumentID>
				</source>
			</header>
			<dataPoints>
				<positions axis="2Theta" unit="deg">
					<startPosition>10.00943322</startPosition>
					<endPosition>99.99442286</endPosition>
				</positions>
				<positions axis="Omega" unit="deg">
					<startPosition>5.00471661</startPosition>
					<endPosition>49.99721143</endPosition>
				</positions>
				<commonCountingTime unit="seconds">12.495</commonCountingTime>
				<counts unit="counts">2761 2778 2742 2814 2751 2674 2743 2794 2721 2592 2765 2726 2845 2657 2822 2742 2770 2689 2767 2699 2718 2717 2807 2666 2797 2742 2805 2876 2798 2746 2725 2694 2706 2838 2775 2815 2784 2786 2808 2777 2830 2842 2758 2765 2816 2788 2740 2834 2748 2770 2731 2796 2822 2853 2835 2758 2726 2735 2845 2746 2870 2767 2812 2882 2837 2812 2969 2877 2947 2842 2972 2857 2949 2888 2935 2918 2947 3051 2988 2961 2916 2989 2990 2955 3050 2987 2822 2896 2935 2960 3003 2811 2976 2928 2841 2867 2853 2899 2880 2901 3000 2876 2888 2905 2998 2907 2865 2895 2837 2766 2878 2871 2791 2798 2864 2887 2841 2811 2863 2881 2870 2849 2879 2950 2880 2981 2835 2906 2872 2866 2944 2925 2904 2891 2914 2873 2926 2836 2842 2752 2892 2849 2995 2815 2892 2889 2909 2988 3005 2925 2922 2925 2905 2918 2901 2804 2890 2849 2972 2780 2955 3031 2826 2858 2911 2846 2821 2897 2928 2895 2921 2882 2844 2915 2926 2902 2949 2950 2993 2825 2961 2920 2886 3013 2835 2841 2854 2911 2877 2948 2912 2912 2859 2918 2840 2942 2849 2931 2938 2904 2804 2951 2923 2872 2962 2855 2796 2909 2866 2828 2917 2872 2838 2885 3002 2873 2876 2929 2948 2837 2908 2921 2887 2829 2842 2873 2873 2826 2899 2789 2898 3040 2862 2931 2947 2787 2865 2921 2861 2785 2865 2878 2859 2876 2848 2847 2866 2892 2912 2894 2887 2901 2835 2981 2790 2763 2842 2865 2798 2907 2814 2895 2833 2852 2865 2839 2896 2927 2847 2918 2805 2885 2893 2869 2835 2707 2809 2809 2846 2846 2917 2886 2838 2971 2921 2904 2866 2900 2756 2946 2910 2940 2951 2919 2887 2964 3007 2962 2897 2902 2945 2990 2831 2991 2961 2874 2935 2944 2997 2966 2971 2987 2903 3001 2970 3056 2970 2991 3079 3114 2939 2990 3034 3061 3059 3039 3052 3059 3181 2949 3010 3069 2957 3094 3085 3125 3111 3029 3195 3121 3166 3138 3180 3095 3154 3195 3168 3150 3030 3135 3153 3256 3219 3152 3263 3219 3196 3240 3223 3118 3202 3203 3141 3224 3278 3143 3241 3244 3317 3279 3262 3325 3315 3307 3365 3260 3216 3319 3350 3331 3386 3371 3354 3461 3380 3375 3396 3384 3383 3468 3439 3272 3543 3322 3422 3364 3576 3481 3514 3426 3537 3513 3493 3577 3667 3669 3868 3789 3768 3907 3949 3981 4074 4063 4145 4162 4019 4060 4066 4079 4055 4110 4011 4157 4110 4081 3942 3937 4050 3957 3987 3775 3836 3749 3748 3763 3684 3678 3676 3674 3524 3642 3609 3597 3581 3618 3443 3459 3528 3555 3590 3588 3568 3550 3501 3597 3667 3557 3658 3535 3563 3578 3601 3489 3550 3536 3627 3508 3533 3447 3556 3530 3506 3467 3568 3411 3346 3392 3451 3438 3488 3437 3354 3331 3395 3489 3354 3300 3348 3234 3241 3349 3337 3309 3309 3263 3229 3225 3214 3139 3286 3208 3318 3234 3265 3162 3231 3269 3151 3138 3207 3177 3233 3130 3222 3145 3168 3147 3142 3145 3099 3176 3170 3150 3063 3101 3146 3215 3186 3157 3178 3080 3193 3118 3121 3105 3149 3074 3103 3170 3120 2921 3197 3020 3120 2994 3078 3116 3112 3111 3004 3022 3052 3162 3023 3001 3063 2918 2978 3028 3008 2956 2925 2951 3008 3024 3020 2962 2949 2891 3030 2931 2830 2876 2975 2952 2875 3047 3036 2962 3007 2905 2936 2925 2992 2976 2966 2966 2998 2940 2976 2896 2943 2911 2963 2889 2884 2880 2974 2861 2800 2754 2779 2919 2845 2849 2916 2884 2832 2893 2896 2871 2833 2848 2872 2863 2855 2776 2965 2835 2770 2900 2798 2754 2844 2935 2811 2872 2854 2891 2913 2806 2809 2884 2821 2788 2744 2781 2749 2848 2765 2735 2804 2883 2745 2680 2871 2790 2830 2818 2824 2818 2685 2815 2725 2710 2758 2771 2690 2814 2845 2807 2819 2727 2805 2802 2848 2723 2784 2902 2837 2785 2810 2782 2752 2833 2699 2814 2769 2799 2834 2851 2810 2854 2838 2720 2749 2782 2729 2867 2805 2748 2834 2746 2694 2745 2728 2708 2802 2823 2764 2720 2775 2850 2779 2647 2739 2810 2626 2861 2744 2792 2697 2772 2738 2703 2630 2712 2708 2766 2680 2785 2722 2803 2717 2797 2689 2683 2747 2792 2769 2693 2592 2612 2689 2810 2702 2693 2661 2668 2727 2650 2646 2671 2703 2676 2668 2616 2673 2670 2795 2668 2779 2714 2639 2740 2735 2648 2749 2692 2780 2775 2665 2760 2670 2730 2774 2707 2769 2618 2600 2701 2668 2690 2709 2673 2563 2683 2687 2705 2640 2570 2606 2726 2638 2621 2662 2608 2694 2650 2572 2684 2631 2548 2574 2547 2702 2637 2735 2605 2679 2677 2683 2645 2720 2652 2618 2611 2603 2606 2561 2709 2578 2666 2606 2591 2502 2683 2586 2629 2600 2590 2626 2556 2602 2532 2624 2575 2667 2586 2514 2643 2574 2574 2446 2574 2622 2549 2550 2585 2613 2571 2544 2529 2590 2558 2517 2597 2476 2531 2578 2669 2585 2596 2462 2608 2540 2538 2489 2493 2562 2584 2562 2568 2577 2594 2490 2589 2523 2542 2491 2536 2531 2514 2536 2527 2549 2440 2568 2493 2475 2544 2441 2441 2586 2439 2447 2476 2489 2485 2386 2467 2423 2533 2534 2496 2450 2580 2522 2434 2500 2611 2397 2453 2372 2465 2442 2440 2477 2445 2573 2406 2439 2482 2516 2407 2466 2481 2456 2404 2478 2466 2411 2388 2443 2441 2447 2372 2410 2481 2476 2351 2466 2372 2408 2447 2488 2473 2359 2470 2387 2471 2423 2498 2431 2482 2488 2359 2477 2411 2455 2431 2415 2382 2384 2399 2427 2407 2382 2387 2404 2367 2403 2462 2398 2355 2377 2467 2369 2311 2341 2384 2462 2439 2328 2386 2395 2347 2409 2351 2411 2448 2472 2409 2442 2375 2365 2416 2348 2351 2366 2421 2482 2440 2348 2366 2346 2362 2376 2452 2497 2401 2367 2351 2405 2332 2390 2399 2439 2379 2510 2389 2409 2358 2463 2474 2402 2365 2330 2451 2406 2420 2397 2389 2294 2423 2416 2508 2331 2360 2364 2421 2468 2389 2401 2472 2399 2385 2470 2400 2447 2361 2474 2382 2444 2421 2414 2443 2381 2410 2364 2440 2367 2386 2450 2457 2388 2516 2486 2481 2382 2339 2506 2363 2416 2427 2403 2408 2451 2347 2375 2428 2406 2435 2450 2374 2383 2452 2366 2493 2344 2423 2326 2353 2364 2372 2332 2361 2417 2375 2376 2336 2406 2338 2337 2438 2318 2369 2406 2388 2339 2407 2449 2447 2356 2461 2426 2380 2428 2400 2461 2360 2339 2330 2404 2221 2282 2344 2420 2256 2370 2305 2253 2333 2310 2348 2362 2284 2317 2323 2394 2361 2311 2368 2327 2256 2322 2265 2392 2337 2330 2328 2293 2302 2266 2177 2370 2165 2280 2326 2332 2322 2268 2281 2194 2150 2143 2232 2294 2133 2205 2248 2184 2186 2228 2180 2218 2146 2172 2144 2248 2195 2208 2210 2150 2223 2170 2184 2129 2239 2129 2184 2146 2114 2171 2214 2135 2092 2137 2170 2091 2196 2103 2067 2135 2013 2163 2050 1989 2007 2118 2052 2050 2059 2032 2142 2055 2012 2008 2031 2112 1973 2069 1999 2054 1964 2023 1966 2032 1919 1998 1967 1983 1998 2014 1934 2011 1912 1893 1910 1960 1918 2031 1915 1933 2000 1949 1951 1976 1904 1951 1922 1911 1946 1900 1917 1981 1840 1983 1978 1912 1838 1910 1912 1872 1845 1940 1850 1817 1922 1876 1909 1846 1850 1819 1838 1847 1784 1816 1818 1894 1847 1813 1875 1770 1862 1822 1815 1811 1823 1784 1830 1854 1861 1782 1826 1792 1790 1842 1845 1804 1787 1792 1797 1854 1803 1706 1791 1815 1672 1736 1727 1811 1783 1844 1797 1779 1654 1749 1753 1714 1733 1800 1802 1772 1782 1719 1731 1792 1754 1752 1708 1694 1728 1750 1806 1789 1779 1684 1724 1704 1715 1703 1749 1670 1757 1725 1668 1741 1720 1692 1754 1735 1694 1725 1760 1694 1696 1703 1689 1739 1756 1757 1713 1734 1700 1705 1709 1747 1739 1690 1722 1780 1686 1747 1733 1694 1767 1670 1735 1701 1707 1722 1732 1732 1803 1692 1739 1770 1738 1670 1743 1692 1767 1767 1713 1726 1723 1743 1841 1742 1778 1748 1821 1699 1702 1749 1720 1759 1720 1697 1756 1729 1741 1742 1621 1696 1724 1815 1709 1763 1695 1744 1707 1685 1723 1709 1695 1701 1580 1773 1664 1701 1734 1694 1741 1726 1726 1718 1754 1762 1703 1752 1720 1710 1759 1710 1762 1673 1807 1765 1703 1750 1728 1713 1743 1780 1718 1762 1726 1727 1714 1670 1699 1750 1713 1716 1757 1697 1759 1684 1767 1647 1805 1719 1727 1737 1724 1675 1742 1757 1720 1839 1654 1705 1660 1788 1763 1722 1681 1712 1758 1727 1747 1743 1825 1735 1669 1762 1747 1727 1742 1702 1719 1802 1676 1804 1751 1745 1652 1739 1653 1730 1676 1676 1657 1573 1657 1687 1677 1685 1683 1697 1720 1713 1788 1703 1710 1654 1616 1675 1787 1690 1703 1576 1652 1642 1649 1645 1592 1606 1657 1646 1601 1644 1738 1626 1598 1600 1587 1623 1591 1565 1629 1641 1625 1597 1584 1535 1566 1593 1586 1585 1560 1585 1571 1577 1608 1539 1549 1526 1572 1604 1586 1564 1546 1523 1544 1565 1554 1524 1507 1558 1530 1499 1600 1591 1489 1486 1516 1528 1426 1535 1465 1506 1451 1503 1562 1487 1454 1585 1457 1526 1445 1464 1549 1484 1492 1480 1437 1417 1444 1536 1504 1418 1459 1462 1470 1437 1477 1442 1454 1485 1335 1431 1449 1485 1432 1442 1377 1409 1428 1377 1344 1388 1409 1418 1410 1399 1455 1430 1456 1410 1367 1403 1379 1444 1435 1421 1449 1458 1438 1439 1454 1457 1376 1429 1449 1468 1456 1440 1549 1567 1534 1631 1592 1622 1695 1756 1737 1793 1873 1853 1872 1848 1812 1888 1834 1795 1932 1964 1831 1781 1770 1716 1795 1756 1681 1679 1619 1668 1530 1527 1510 1437 1425 1556 1401 1434 1340 1401 1369 1356 1402 1257 1275 1363 1380 1294 1361 1345 1269 1261 1277 1244 1311 1257 1244 1286 1276 1243 1256 1265 1309 1255 1257 1227 1225 1261 1256 1249 1225 1214 1225 1314 1190 1299 1203 1215 1282 1272 1291 1351 1220 1255 1261 1196 1251 1241 1204 1251 1227 1243 1300 1219 1163 1232 1245 1228 1251 1224 1175 1238 1293 1264 1277 1268 1231 1227 1272 1243 1334 1313 1287 1320 1306 1392 1346 1394 1469 1502 1649 1608 1677 1730 1875 1931 2020 2095 2105 2207 2285 2264 2280 2387 2133 2211 2263 2212 2042 2112 1895 1900 1796 1742 1707 1671 1619 1487 1539 1491 1376 1348 1315 1328 1273 1370 1361 1295 1272 1215 1243 1260 1231 1237 1138 1189 1184 1246 1210 1174 1222 1114 1169 1167 1135 1204 1192 1198 1261 1187 1205 1208 1256 1224 1252 1298 1316 1309 1339 1270 1299 1355 1277 1264 1317 1310 1276 1263 1278 1225 1227 1306 1193 1154 1144 1152 1172 1165 1204 1143 1195 1117 1078 1058 1114 1136 1089 1078 1058 1145 1123 1137 1107 1158 1054 1048 1101 1140 1042 1112 1087 1118 1091 1031 1067 1017 1055 1030 1106 1111 1064 1044 1045 1040 1024 1044 1046 1114 1066 1036 1055 990 1088 1045 1132 1063 1061 1003 1046 1081 1015 1019 1051 1062 1070 995 1021 1035 1011 1075 1012 957 983 971 1015 999 1021 979 990 1029 999 1064 984 996 1028 1025 985 1068 1012 1033 1002 1045 1080 1020 1021 1083 1022 1072 969 1034 1007 993 1036 1013 1117 1063 1041 1096 1009 1155 1126 1133 1078 1126 1115 1117 1191 1165 1251 1190 1156 1161 1192 1151 1102 1142 1159 1038 1077 1062 1062 1036 1121 1068 994 1022 1046 1080 956 1061 1000 991 1035 1028 989 993 972 977 953 980 1001 970 995 1008 971 1004 997 1055 1014 992 1082 1031 994 987 961 1042 935 980 1010 1011 957 1029 1004 1011 1007 969 1028 987 1039 959 936 1001 949 1025 951 1007 1032 977 984 986 1028 1045 980 1060 1063 981 1059 1033 1098 1149 1113 1059 1104 1094 1102 1199 1199 1121 1170 1174 1121 1145 1100 1101 1164 1113 1122 1129 1085 1063 1043 1122 1099 1078 1076 1066 1110 1038 1024 1027 1048 1032 1010 1025 936 918 1032 1029 953 1009 1000 956 1090 992 969 1024 962 956 929 1001 937 986 953 975 1008 951 968 913 962 915 950 968 938 937 944 940 912 997 971 967 912 993 961 939 944 930 930 952 975 971 942 950 968 972 1005 951 934 943 973 930 881 913 971 923 930 1026 914 983 1002 876 964 919 899 1008 989 969 1021 931 970 954 1020 1002 927 1000 946 972 931 976 983 988 936 968 914 963 1087 979 1023 977 1041 1038 1072 974 1052 1019 994 1051 1138 1140 1111 1179 1142 1169 1268 1333 1307 1474 1594 1647 1714 1869 2010 2151 2333 2568 2664 2742 2827 3137 3301 3381 3415 3479 3556 3699 3695 3663 3617 3479 3353 3170 3000 2911 2757 2744 2564 2498 2227 2024 2003 1858 1741 1636 1585 1529 1432 1405 1376 1352 1369 1207 1256 1159 1257 1234 1235 1249 1226 1239 1208 1207 1328 1252 1282 1260 1253 1247 1235 1230 1184 1209 1123 1172 1164 1102 1198 1081 1146 1142 1063 1105 1100 1109 1063 1041 1065 1071 1030 1048 1056 1074 1042 1070 1024 1047 1063 1090 1047 1021 1106 961 1014 1021 971 1041 946 982 977 934 945 959 898 937 896 902 872 871 886 871 834 813 882 862 880 910 856 882 882 834 856 837 916 882 797 829 853 865 883 903 805 890 827 881 867 814 825 862 852 877 835 869 853 845 855 831 867 878 862 832 884 808 859 866 848 839 867 810 859 865 886 908 813 849 866 883 872 812 890 888 935 861 909 884 866 854 900 797 917 845 897 867 817 881 840 889 829 827 890 885 813 915 890 802 791 832 838 834 865 816 851 838 882 852 828 819 879 859 836 803 848 801 818 821 857 806 797 765 868 818 884 767 829 838 816 807 846 797 796 787 824 802 796 854 811 766 780 822 865 774 828 761 829 814 848 816 813 809 804 822 845 816 803 851 810 808 807 809 840 746 791 767 775 799 830 827 778 806 819 819 831 817 791 802 812 783 773 780 762 749 833 805 812 813 801 798 791 776 752 815 783 826 793 814 863 777 860 816 829 820 795 857 780 837 768 750 805 798 837 774 790 842 794 824 752 811 743 774 793 838 794 833 796 817 759 761 744 769 757 759 832 748 801 791 773 713 829 778 804 816 797 758 775 775 788 784 817 770 753 770 789 785 780 768 811 816 782 822 793 787 758 800 776 751 827 787 790 763 768 763 761 728 776 755 760 704 785 785 760 710 765 727 725 781 760 755 719 762 714 756 744 744 765 744 776 725 734 701 698 696 771 765 702 714 730 742 779 752 763 688 758 720 765 716 774 714 699 734 729 711 705 723 741 706 687 698 707 704 713 698 743 722 726 779 731 702 728 707 754 732 655 759 678 691 679 734 708 720 695 705 724 702 734 739 727 695 684 730 732 714 703 715 699 706 709 736 699 669 738 721 735 727 726 711 723 703 709 706 718 729 712 695 674 676 703 740 734 667 704 749 754 700 714 713 726 716 725 718 729 784 706 735 720 678 743 747 723 787 703 727 706 714 672 754 711 713 742 724 669 715 720 722 735 716 719 792 741 719 713 690 746 700 686 756 709 700 689 678 722 729 714 672 704 726 699 695 722 682 686 712 718 703 646 656 671 688 642 701 763 686 711 670 676 696 735 684 663 702 655 655 733 713 722 676 688 700 656 653 686 664 713 678 754 692 707 680 698 730 661 622 687 650 711 655 708 642 686 670 736 677 715 672 745 650 687 693 721 693 763 636 731 658 677 648 685 679 657 695 633 724 689 692 663 721 712 685 679 668 681 673 684 685 673 726 703 691 729 705 715 696 733 698 720 684 772 762 759 682 718 733 730 728 741 777 747 762 737 700 664 758 725 716 725 715 720 734 730 720 667 697 668 641 645 702 688 692 704 623 711 645 669 706 612 699 704 646 687 649 700 683 673 695 629 687 639 690 592 673 697 686 709 729 644 683 637 667 631 645 684 635 655 600 662 660 646 700 660 689 657 630 657 663 666 643 651 694 641 643 689 647 615 634 634 699 675 653 675 700 643 658 660 654 673 644 684 637 683 643 640 676 667 642 644 625 633 661 656 596 631 629 610 691 652 664 614 668 654 653 641 655 626 687 654 657 654 618 647 637 692 701 651 705 658 644 598 629 637 641 702 659 644 651 697 584 668 674 617 635 608 673 689 690 637 726 648 720 677 673 684 667 633 608 630 673 661 631 660 674 689 669 636 581 653 684 636 614 671 640 691 701 652 639 639 649 630 618 623 602 612 649 649 620 652 635 659 647 598 659 640 617 666 634 672 623 662 630 646 680 595 649 665 695 656 633 661 646 669 652 626 600 630 644 632 702 652 662 653 658 664 648 656 636 646 626 615 655 635 604 693 618 677 626 658 626 656 659 629 646 637 634 666 618 641 628 622 633 676 672 638 679 686 682 691 632 683 633 676 651 676 654 637 692 653 673 691 646 738 676 657 687 666 667 639 671 633 700 667 692 658 645 661 633 694 662 707 662 703 684 720 644 636 642 643 644 633 669 645 699 675 642 633 642 652 612 679 644 684 681 662 688 669 612 688 651 617 666 667 673 708 626 689 703 728 708 706 752 706 771 818 856 880 790 848 785 876 819 908 877 901 907 903 875 889 885 818 819 817 881 780 757 773 783 780 746 707 709 690 712 649 730 676 682 697 679 631 637 697 581 622 630 628 614 624 641 616 637 604 628 668 627 638 624 628 615 604 563 574 664 551 667 583 640 651 617 671 660 629 630 606 610 672 650 620 584 635 633 576 609 642 600 633 617 596 607 638 644 651 608 603 648 621 607 638 565 680 653 621 648 680 604 658 660 661 636 626 566 641 598 615 603 595 663 652 627 623 619 654 631 647 619 612 620 609 596 625 605 581 620 570 625 621 631 626 646 577 642 611 617 579 596 556 570 619 530 629 626 568 587 620 635 586 598 613 604 605 607 648 603 620 611 642 607 644 610 592 586 593 590 537 562 579 603 611 584 608 576 591 571 626 619 616 578 652 562 593 593 563 593 565 564 554 579 617 637 622 594 578 563 618 616 645 618 585 567 576 551 595 619 562 636 585 624 602 623 645 560 609 569 570 589 603 571 623 614 609 626 596 606 587 595 555 585 577 605 568 635 619 609 607 574 652 561 636 589 614 596 635 649 619 629 576 581 565 599 596 582 599 577 613 555 591 609 590 676 579 602 575 567 580 608 579 657 588 638 576 560 566 583 631 607 546 569 602 607 565 580 567 580 621 609 606 568 599 612 562 593 601 576 581 547 606 627 534 621 611 590 599 631 644 574 595 620 586 599 609 598 573 610 600 609 557 590 583 600 610 594 613 647 609 616 624 632 588 619 590 601 673 618 627 665 656 613 592 594 682 616 637 636 631 644 607 576 630 623 672 664 619 684 593 604 611 621 648 639 697 677 715 647 729 682 724 657 747 721 774 781 842 796 912 878 938 1012 1068 1153 1213 1299 1365 1479 1584 1735 1805 1879 1893 1925 2014 1954 2050 2006 1933 1946 1951 1870 1852 1834 1714 1640 1681 1537 1505 1436 1395 1315 1257 1140 1089 1027 1007 949 858 905 838 841 784 789 729 685 686 698 646 704 681 727 676 707 605 619 624 645 596 621 614 620 655 627 638 610 583 634 635 628 642 592 621 636 645 622 660 602 639 544 637 572 608 596 616 628 596 597 584 619 604 585 616 632 573 614 592 665 580 645 580 652 649 567 555 596 633 620 629 643 648 603 618 693 626 638 647 636 652 665 633 651 625 676 679 681 635 659 672 663 704 692 690 658 674 621 621 633 636 638 633 643 607 607 624 619 636 599 612 617 603 596 609 625 628 600 585 573 587 588 619 617 606 529 563 613 557 619 587 586 542 548 566 599 562 554 573 555 581 565 585 526 557 593 537 595 573 565 581 581 587 550 585 529 574 595 532 589 549 574 565 581 575 558 527 584 540 532 545 531 530 558 575 555 564 581 531 554 556 582 590 588 578 583 588 616 626 642 619 674 674 678 705 637 650 692 673 615 707 689 719 654 671 658 676 712 667 660 576 603 606 598 638 617 602 699 629 594 596 612 585 652 616 583 581 592 592 540 552 578 558 593 547 542 551 503 582 555 545 522 577 542 571 553 564 601 546 511 540 499 558 522 563 562 536 521 552 522 562 542 534 543 548 541 571 524 516 543 571 527 477 576 492 512 555 504 541 558 519 510 487 559 488 545 516 531 531 531 500 518 528 513 494 529 559 516 521 533 544 523 495 509 519 566 512 520 578 537 559 534 510 536 519 511 532 535 555 505 504 522 547 544 540 526 531 499 532 506 535 532 524 537 528 527 546 490 511 521 571 530 509 539 515 571 500 545 538 501 554 479 532 482 487 502 512 515 536 543 539 476 469 496 499 564 500 502 482 537 536 531 485 556 510 521 510 551 522 516 523 557 540 482 539 529 511 485 527 522 471 545 539 487 478 519 496 479 487 498 529 548 494 522 473 517 478 522 516 557 536 519 532 513 477 527 522 545 498 503 493 506 539 513 483 492 509 539 510 537 488 514 518 493 495 496 512 512 535 475 527 541 486 488 475 526 519 497 521 496 518 500 534 487 497 496 540 457 507 515 505 492 510 447 515 535 511 540 447 491 511 467 510 522 503 505 512 500 501 507 508 527 495 510 489 506 466 494 463 458 493 499 500 533 472 511 461 484 474 497 478 526 482 485 510 525 488 517 493 536 438 484 459 494 458 506 476 524 475 492 513 506 510 507 513 529 545 493 524 508 469 502 504 471 532 491 527 453 453 502 459 480 482 496 488 461 494 483 476 515 463 462 504 476 509 490 460 483 501 493 462 469 477 489 472 471 476 492 502 488 456 475 484 493 505 470 485 508 472 443 465 471 508 508 507 481 544 500 439 482 482 487 487 424 509 485 498 495 498 524 484 489 484 506 450 488 484 482 448 545 461 489 468 495 531 470 477 521 476 494 470 465 498 492 464 516 492 454 516 523 513 492 473 469 488 483 483 463 476 505 466 458 472 451 482 489 497 502 456 459 526 510 491 494 480 460 447 499 471 502 454 462 475 494 504 491 476 483 463 496 435 462 501 492 489 526 487 483 459 458 450 510 468 475 497 506 476 485 485 476 504 450 474 450 492 493 483 508 464 457 447 504 483 496 455 490 482 493 484 468 495 471 493 463 499 508 443 480 465 488 474 449 485 503 461 463 484 490 450 503 459 446 450 463 526 497 477 459 478 481 472 483 506 503 492 495 483 506 488 497 476 503 497 457 494 485 472 514 488 526 526 486 529 470 475 470 521 493 521 504 516 489 492 474 477 511 506 531 508 468 500 477 507 465 511 438 463 468 461 504 464 485 471 470 499 531 494 493 436 449 518 487 541 510 478 479 538 518 491 505 546 544 520 534 570 580 574 587 579 610 617 614 665 572 644 641 569 618 651 623 629 583 602 611 553 555 564 525 572 515 556 531 553 492 527 535 523 514 460 529 492 524 477 495 511 497 502 482 473 444 444 493 490 473 447 468 439 481 507 445 481 429 474 479 460 473 484 487 469 506 483 499 454 486 516 486 469 458 519 467 468 462 437 485 475 473 403 505 441 475 465 470 463 516 490 455 472 451 447 454 440 449 465 453 490 479 459 469 429 466 509 495 485 484 489 439 455 454 457 456 439 484 494 463 459 458 458 452 492 494 484 481 481 478 477 521 467 476 460 504 499 478 482 525 488 486 492 498 484 446 484 488 488 482 488 473 497 465 487 487 461 464 450 460 477 468 470 490 458 467 451 463 463 427 459 477 457 500 465 450 490 472 431 432 451 461 477 496 416 462 463 466 452 470 459 414 479 487 440 473 438 460 471 460 463 464 452 458 492 427 491 482 436 425 502 450 473 433 458 477 464 478 438 492 453 474 420 442 467 434 485 467 460 467 487 503 442 449 445 455 493 480 460 453 423 489 470 488 471 531 466 521 473 502 505 468 462 498 487 517 498 500 565 531 510 605 597 669 642 671 640 675 674 766 744 689 774 767 671 749 718 672 705 698 693 672 677 647 614 625 672 593 584 615 613 592 577 589 545 569 521 579 566 538 543 509 495 533 495 513 525 509 509 485 481 462 474 453 482 474 464 505 451 504 446 479 483 467 437 450 472 448 420 449 444 462 470 460 453 469 419 454 438 468 408 457 430 440 442 465 424 411 428 471 459 469 460 469 426 420 432 407 422 398 450 467 413 450 429 454 433 439 439 438 439 490 434 426 418 436 444 444 447 439 441 446 428 436 441 476 464 481 463 474 469 456 443 451 440 443 486 405 484 444 451 449 410 462 377 487 460 455 458 503 408 483 430 470 428 442 429 451 447 446 456 477 433 454 429 413 428 453 417 450 434 436 481 435 428 413 440 418 467 397 446 432 442 451 443 470 460 472 443 421 446 478 466 464 441 489 494 466 484 541 468 504 448 472 489 492 464 462 472 493 511 486 490 451 499 489 490 471 476 469 466 448 459 455 465 431 468 489 472 433 434 479 443 426 479 433 443 477 446 429 403 432 449 390 458 440 437 469 418 451 445 439 450 419 438 420 399 422 442 472 433 413 408 396 425 448 398 450 408 386 420 438 408 455 444 406 394 445 446 457 406 444 420 415 467 424 419 408 412 431 426 433 421 387 427 408 389 402 405 438 416 441 412 403 438 421 425 415 433 402 424 407 408 405 413 403 436 455 440 384 410 418 424 396 434 412 398 415 412 407 428 412 398 416 400 419 414 400 420 400 412 422 445 423 407 392 405 405 453 399 418 426 427 425 450 444 400 405 467 411 444 424 432 397 417 393 428 433 369 429 417 411 393 406 399 397 399 422 426 413 412 408 447 414 420 417 426 406 423 423 364 426 425 438 443 427 436 436 419 463 402 410 430 421 423 421 465 418 408 403 400 425 452 378 467 440 406 398 424 440 397 396 430 396 453 409 428 414 380 387 371 437 440 414 399 397 442 437 382 385 427 393 398 453 417 437 404 414 398 411 400 457 394 413 424 401 457 413 386 426 404 393 427 405 415 433 382 401 435 427 428 446 418 363 397 411 381 409 452 472 428 405 377 398 399 378 395 391 425 408 415 429 431 423 407 388 398 398 407 404 388 384 410 427 398 402 431 425 470 406 371 380 394 408 396 390 380 401 411 402 416 408 396 421 421 433 419 423 380 419 419 392 411 396 419 386 415 388 401 401 392 397 392 399 397 439 385 423 428 420 400 366 405 428 380 400 394 410 382 399 418 405 420 416 417 409 415 410 397 401 380 405 398 403 406 370 397 387 434 394 359 365 411 370 382 405 366 408 384 415 405 377 401 415 416 439 391 430 390 415 423 407 426 421 397 373 427 386 373 419 387 413 442 411 392 375 407 420 402 382 389 383 401 402 405 410 377 385 418 381 436 400 422 375 422 400 410 378 386 394 415 394 390 431 430 444 405 401 394 402 400 393 433 406 460 382 407 401 404 402 437 392 432 412 398 393 397 388 367 425 375 427 390 390 381 418 413 419 397 391 401 427 392 407 423 446 397 436 400 431 423 410 425 418 453 420 426 436 418 452 427 453 438 437 429 441 445 419 420 398 427 452 425 418 403 452 421 426 429 394 411 399 446 411 417 426 422 401 373 395 422 372 411 395 404 388 412 390 396 409 398 388 375 369 392 379 382 416 411 375 417 423 392 405 392 388 382 383 408 358 376 381 388 418 384 400 395 422 423 394 382 411 357 424 399 404 406 399 400 376 404 420 411 408 423 407 432 379 390 393 375 424 408 431 403 411 371 393 397 402 399 390 412 381 406 346 433 397 387 398 418 368 435 438 395 396 375 392 387 413 412 395 426 351 397 389 404 400 394 398 439 393 401 378 394 410 393 399 376 383 395 389 431 418 399 425 363 441 421 367 362 403 393 374 375 418 388 408 386 390 390 388 399 405 416 407 395 404 365 372 381 393 371 419 367 387 380 403 391 380 425 427 341 363 414 380 426 404 382 391 364 393 413 399 389 388 436 408 408 364 394 412 367 411 410 393 390 372 391 385 377 371 381 370 403 430 396 402 372 361 419 364 393 414 402 376 389 352 392 376 405 398 393 399 400 454 397 371 355 373 396 396 404 391 427 414 376 421 463 388 390 395 376 382 403 403 413 391 406 394 403 390 378 389 415 394 394 361 401 401 398 389 410 437 391 438 416 408 399 395 412 390 424 439 398 427 446 411 419 415 414 459 421 449 437 459 448 452 466 463 467 481 505 460 471 491 501 508 527 480 408 464 436 486 466 463 475 484 451 425 489 460 467 503 431 450 452 459 454 475 399 416 444 360 420 379 413 400 434 403 443 368 404 422 411 416 404 433 388 375 395 385 409 410 391 351 370 362 401 419 405 401 412 400 426 381 392 381 370 428 406 391 418 357 365 387 436 386 387 400 371 363 395 376 379 413 376 436 374 443 378 379 414 426 424 419 390 379 412 402 392 406 410 428 378 380 446 401 383 419 424 409 373 406 338 399 410 402 391 382 379 389 401 404 396 404 396 377 402 364 388 401 376 406 385 391 372 383 409 429 391 384 392 367 360 361 422 371 408 395 385 370 374 416 421 409 453 393 387 425 429 393 410 394 402 372 371 374 409 392 382 417 411 429 371 417 404 414 399 377 392 366 394 364 392 391 423 365 349 413 362 384 421 386 409 389 375 431 378 400 401 417 386 424 407 359 379 360 384 370 380 363 406 378 395 381 386 397 430 395 389 401 384 374 428 347 396 355 399 392 414 362 372 365 364 399 360 380 406 383 382 372 414 383 406 381 354 420 408 405 382 386 388 432 391 361 380 362 372 378 416 363 400 391 418 393 374 386 403 376 415 372 373 391 384 390 418 397 365 400 365 403 360 401 420 372 371 336 364 427 364 379 406 387 386 390 382 404 336 408 370 394 373 403 369 389 375 363 365 358 389 363 389 375 420 397 395 358 398 414 396 359 375 422 372 414 388 373 420 397 368 413 387 380 427 385 398 389 382 364 398 396 396 394 386 387 385 387 383 387 423 380 393 385 373 405 385 369 381 383 388 442 385 384 411 358 364 360 363 397 383 375 400 396 387 391 394 409 407 402 391 397 382 386 361 391 354 403 381 406 395 386 374 393 409 396 397 435 392 386 396 341 387 377 358 408 388 382 379 380 399 438 385 401 393 344 386 359 380 402 423 413 368 390 370 377 384 401 419 393 356 350 371 411 382 420 383 393 355 410 385 421 401 394 364 410 374 408 374 395 402 357 412 354 415 350 416 395 399 388 405 371 391 404 370 385 385 393 379 388 400 403 392 415 367 366 387 403 385 418 405 396 362 409 374 374 397 369 409 409 362 412 408 405 395 411 393 352 397 448 382 374 421 374 415 401 405 405 418 380 374 403 375 408 418 429 358 396 380 395 373 407 384 366 384 361 398 389 395 415 393 390 408 393 389 409 401 378 420 390 370 403 381 376 396 401 445 409 404 403 371 437 389 388 400 399 376 390 367 402 383 423 391 385 381 370 404 410 397 391 373 374 393 373 381 371 392 381 408 403 388 409 413 393 408 337 379 393 407 391 418 414 367 413 391 421 397 363 369 384 393 365 404 423 389 371 412 406 351 399 393 400 407 386 351 351 367 385 364 412 410 405 390 379 376 410 411 406 399 390 427 432 394 353 397 365 410 402 385 407 380 436 381 450 425 415 436 393 404 446 410 449 418 432 426 441 438 475 374 389 422 440 454 441 393 412 413 422 417 428 440 384 392 426 418 417 401 423 429 420 422 402 392 384 396 425 362 402 418 412 432 421 413 399 407 414 421 381 420 443 468 429 424 439 420 415 427 408 440 431 424 396 397 412 442 428 417 468 419 431 444 388 427 403 420 419 428 421 431 430 412 398 417 382 450 442 454 409 398 401 369 402 402 397 422 432 405 422 393 433 384 404 393 385 405 385 392 432 427 428 427 383 396 400 365 409 431 403 431 365 433 406 405 378 387 356 401 411 424 423 386 381 401 361 391 389 392 370 405 413 446 414 400 424 445 370 430 424 423 397 411 343 415 381 391 357 402 433 362 425 398 416 410 392 428 428 396 417 384 387 388 393 384 442 395 428 395 387 406 433 416 398 423 410 396 412 388 393 371 365 396 396 435 402 387 407 392 390 404 381 404 411 404 426 381 405 423 416 441 391 375 420 404 372 421 437 392 415 415 393 441 414 421 448 403 410 466 434 418 409 418 418 429 426 400 431 414 426 389 443 466 431 447 402 433 433 425 431 449 408 476 401 415 432 425 420 427 430 437 443 443 486 440 432 453 455 416 471 475 461 529 493 483 485 566 535 555 551 599 545 575 524 611 533 606 622 564 549 562 541 562 586 517 552 543 500 578 577 502 501 543 548 530 501 553 541 564 554 514 496 498 539 524 508 559 476 480 474 489 483 480 403 487 457 450 480 488 431 441 453 415 423 456 429 406 434 444 408 437 423 450 430 408 411 406 425 429 410 379 427 406 398 399 388 419 401 384 401 441 397 410 368 344 354 395 387 380 436 391 396 406 407 419 402 398 452 371 411 373 414 401 371 406 383 360 425 423 377 419 403 421 438 364 427 416 418 374 416 426 410 397 377 425 442 414 415 392 396 404 420 447 383 396 417 391 414 391 353 393 401 424 445 395 381 399 424 373 396 408 387 422 397 377 396 393 405 370 442 381 412 388 411 427 410 385 375 437 380 456 424 435 402 385 423 407 432 436 416 418 409 438 419 441 393 456 404 418 419 441 422 432 440 457 372 437 409 417 411 412 431 427 435 449 428 448 390 414 405 422 465 428 402 409 400 382 440 423 426 390 445 415 368 430 414 389 414 385 384 449 391 410 435 390 414 438 394 392 409 432 400 367 382 391 412 352 367 402 416 408 383 340 408 379 399 398 405 369 374 398 418 397 407 412 404 361 399 376 404 387 418 375 342 432 396 413 393 359 378 406 381 382 397 363 419 377 402 352 381 391 354 402 382 361 368 413 415 368 399 375 370 379 404 429 402 397 388 359 351 385 411 388 392 416 390 386 389 373 396 355 399 383 383 362 373 384 370 408 377 388 413 366 357 381 368 415 394 391 375 411 403 404 377 376 368 356 370 361 400 350 403 389 417 388 409 408 366 364 362 380 380 419 360 377 351 384 352 387 372 403 366 368 383 347 396 379 393 378 418 386 369 410 376 358 427 422 384 379 385 372 411 358 361 381 373 376 378 377 363 376 409 377 391 342 365 375 368 394 409 360 377 416 408 330 400 398 388 400 384 402 402 348 379 376 380 374 383 346 388 379 387 374 357 381 369 381 385 397 386 385 381 345 341 417 384 384 355 400 390 346 390 398 396 373 401 379 373 380 384 373 313 382 371 347 346 393 377 386 383 357 376 355 384 363 362 386 338 380 363 382 386 386 349 372 339 395 400 386 394 388 348 389 357 357 375 364 388 336 361 392 353 400 369 370 403 371 389 358 389 341 373 361 348 378 386 365 390 371 374 389 346 380 386 356 325 376 358 387 344 367 352 377 376 369 391 353 332 356 393 404 418 360 333 369 391 370 349 404 364 390 346 348 357 363 348 341 363 399 379 403 397 370 372 352 359 372 371 370 382 360 346 383 338 372 395 374 350 403 374 361 381 377 365 395 405 355 359 412 338 378 361 381 356 376 350 376 379 357 382 396 390 354 392 391 371 382 380 361 393 420 352 372 363 349 378 392 385 359 399 349 391 405 397 421 377 419 376 387 376 398 387 369 388 382 417 368 376 389 387 372 368 394 397 371 452 406 397 386 362 362 394 352 368 386 399 353 379 403 361 332 408 369 386 334 358 352 377 365 384 373 415 370 373 350 339 388 378 365 366 369 367 352 362 404 356 333 359 359 358 354 357 359 405 346 371 353 401 380 364 366 368 396 364 348 384 371 383 362 404 347 367 407 378 380 375 344 382 360 389 382 349 421 338 380 354 361 369 380 379 396 380 373 361 379 353 371 383 390 360 337 413 376 389 337 375 367 382 373 383 341 390 365 403 355 347 374 361 336 380 380 385 379 376 398 366 372 380 383 361 384 365 341 340 395 351 356 386 372 351 346 368 337 359 372 359 364 362 398 374 345 379 348 371 361 364 370 397 372 392 430 381 357 346 358 325 399 357 363 361 373 352 370 363 374 377 319 385 367 342 370 390 335 387 352 384 332 363 343 368 366 315 341 360 374 365 355 398 364 357 386 393 357 370 375 391 351 383 373 353 384 363 361 326 382 374 359 392 347 351 396 321 360 341 374 393 362 406 360 403 333 378 362 364 354 399 391 396 398 388 396 365 406 418 399 353 352 386 360 376 392 382 388 411 344 387 374 412 450 407 445 423 439 461 447 472 459 469 475 457 445 464 495 454 517 449 481 495 477 481 469 501 470 438 461 516 505 447 448 461 467 400 456 409 433 450 442 450 473 399 411 465 475 422 455 418 410 412 408 438 452 411 414 406 371 424 399 374 377 386 398 372 393 392 364 372 420 431 386 407 361 338 356 371 412 379 347 345 353 392 353 319 360 363 393 368 358 331 410 349 376 407 356 374 367 408 333 369 391 368 357 380 343 369 333 367 352 352 372 382 375 334 361 360 364 396 344 398 343 362 381 338 349 344 331 375 360 322 376 379 346 379 335 349 362 360 332 341 387 329 376 399 353 315 400 390 371 364 381 352 355 349 378 359 381 341 364 376 369 362 341 375 349 363 370 413 346 343 370 384 351 377 351 370 386 355 353 343 368 339 398 371 356 366 379 367 369 378 383 377 355 375 362 359 367 379 349 328 402 370 358 336 389 376 379 392 372 374 325 411 388 374 382 377 380 389 376 376 385 383 387 336 372 343 365 346 347 380 364 331 353 369 378 360 363 373 353 365 391 365 401 382 353 355 330 363 393 337 392 347 360 368 343 332 364 371 364 340 331 336 348 347 355 374 401 361 369 338 362 368 371 374 377 375 341 346 363 375 361 354 355 329 361 330 368 372 375 393 355 393 387 344 344 336 358 390 385 340 367 390 372 339 344 356 333 342 353 344 353 336 369 368 316 381 353 368 391 338 358 340 346 349 386 353 341 339 361 361 331 328 355 332 350 343 348 385 351 369 337 336 327 364 378 336 368 358 381 386 351 363 353 364 352 354 364 377 338 353 348 383 333 378 345 349 346 350 384 341 385 384 367 362 352 358 332 345 350 338 370 347 337 390 320 357 372 329 372 379 369 359 359 337 318 386 345 375 347 321 363 320 376 307 346 345 372 356 352 394 365 340 371 342 367 335 330 344 363 360 385 361 367 367 312 339 328 340 371 353 360 365 357 309 338 355 370 365 349 388 342 373 377 380 352 329 324 343 397 326 378 350 384 347 352 324 362 364 319 348 327 371 358 372 371 321 355 369 365 355 391 337 336 379 321 343 362 347 380 337 339 328 372 346 364 312 325 370 321 348 395 358 375 379 349 328 351 333 367 368 311 366 359 332 324 371 357 353 341 365 327 356 353 358 299 350 321 337 356 357 363 345 343 386 338 376 346 374 377 359 350 366 360 375 316 345 339 314 323 355 378 373 339 352 346 363 371 347 318 359 355 324 369 337 352 367 333 347 362 361 334 357 368 346 365 345 356 342 376 351 353 332 357 351 367 366 373 318 357 385 348 349 353 345 399 373 325 386 354 367 347 363 320 313 399 361 358 357 354 381 368 344 378 342 368 339 330 370 361 357 349 382 354 349 368 335 358 356 343 358 347 364 363 357 369 317 381 351 363 369 350 381 366 379 353 357 385 376 379 351 394 397 367 360 349 382 402 350 368 382 387 417 376 380 342 385 399 408 361 360 341 374 342 377 358 350 380 370 364 344 351 392 351 342 346 387 388 394 386 343 335 334 372 349 351 364 343 349 360 342 380 341 344 360 334 379 385 379 380 370 369 412 405 358 402 384 387 385 352 402 366 386 322 375 379 347 361 384 370 370 369 374 376 370 337 367 357 363 347 364 354 340 337 365 349 332 363 350 361 352 331 357 342 360 352 351 337 366 361 346 339 356 388 337 356 349 337 344 327 366 323 366 382 358 364 334 318 361 365 325 367 337 347 339 333</counts>
			</dataPoints>
		</scan>
	</xrdMeasurement>
</xrdMeasurements>
