<?xml version="1.0"?>
<xrdMeasurements xmlns="http://www.xrdml.com/XRDMeasurement/2.3" xmlns:xsi="http://www.w3.org/2001/XMLSchema-instance" xsi:schemaLocation="http://www.xrdml.com/XRDMeasurement/2.3 http://www.xrdml.com/XRDMeasurement/2.3/XRDMeasurement.xsd" status="Completed" recordIdentifier="{100238F2-E558-4BB0-9927-CC032350CF23}">
	<comment>
		<entry/>
	</comment>
	<sample type="To be analyzed">
		<id>GPSS_Li1p5Co0p5Cr0p5Cl4_112725_69279e65f4e53d1f7239af19</id>
		<name></name>
		<preparedBy></preparedBy>
	</sample>
	<xrdMeasurement measurementType="Scan" status="Completed" sampleMode="Reflection">
		<usedWavelength intended="K-Alpha 1">
			<kAlpha1 unit="Angstrom">1.5405980</kAlpha1>
			<kAlpha2 unit="Angstrom">1.5444260</kAlpha2>
			<kBeta unit="Angstrom">1.3922500</kBeta>
			<ratioKAlpha2KAlpha1>0.5000</ratioKAlpha2KAlpha1>
		</usedWavelength>
		<incidentBeamPath>
			<radius unit="mm">145.00</radius>
			<xRayTube id="1010048" name="Empyrean Cu LFF HR (9430 033 7310x)">
				<tension unit="kV">40.0</tension>
				<current unit="mA">15.0</current>
				<anodeMaterial>Cu</anodeMaterial>
				<focus type="Line">
					<length unit="mm">12.0</length>
					<width unit="mm">0.4</width>
					<takeOffAngle unit="deg">6.0</takeOffAngle>
				</focus>
			</xRayTube>
			<sollerSlit id="21010002" name="Soller slits 0.04 rad.">
				<opening unit="rad">0.0400</opening>
			</sollerSlit>
			<mask id="22031000" name="Fixed mask 13 mm">
				<width unit="mm">9.00</width>
			</mask>
			<divergenceSlit id="22120001" name="Divergence slit 1°" xsi:type="fixedDivergenceSlitType">
				<distanceToSample unit="mm">50.00</distanceToSample>
				<height unit="mm">1.52</height>
			</divergenceSlit>
		</incidentBeamPath>
		<sampleMovement xsi:type="spinningSampleMovementType">
			<spinnerRevolutionTime unit="seconds">1.0</spinnerRevolutionTime>
		</sampleMovement>
		<diffractedBeamPath>
			<radius unit="mm">145.00</radius>
			<antiScatterSlit id="22090040" name="AS slit 9 mm (PIXcel)" xsi:type="fixedAntiScatterSlitType">
				<height unit="mm">9.00</height>
			</antiScatterSlit>
			<sollerSlit id="21020003" name="Large Soller slits 0.04 rad.">
				<opening unit="rad">0.0400</opening>
			</sollerSlit>
			<filter id="20030001" name="Large beta-filter Nickel">
				<material>Ni</material>
				<thickness unit="mm">0.020</thickness>
			</filter>
			<detector id="7010019" name="PIXcel1D-Medipix3 detector" xsi:type="rtmsDetectorType">
				<phd unit="keV">
					<lowerLevel>4.02</lowerLevel>
					<upperLevel>11.27</upperLevel>
				</phd>
				<mode>Scanning</mode>
				<activeLength unit="deg">5.542</activeLength>
			</detector>
		</diffractedBeamPath>
		<scan appendNumber="0" mode="Continuous" scanAxis="Gonio" status="Completed">
			<header>
				<startTimeStamp>2025-12-01T18:49:41-08:00</startTimeStamp>
				<endTimeStamp>2025-12-01T18:57:48-08:00</endTimeStamp>
				<author>
					<name>AutomatedUser</name>
				</author>
				<source>
					<applicationSoftware version="1.7b (136)">PANalytical Aeris Instrument Suite</applicationSoftware>
					<instrumentControlSoftware version="3.2.00000000 20240306">AERIS</instrumentControlSoftware>
					<instrumentID>950485</instrumentID>
				</source>
			</header>
			<dataPoints>
				<positions axis="2Theta" unit="deg">
					<startPosition>10.00943322</startPosition>
					<endPosition>99.99442286</endPosition>
				</positions>
				<positions axis="Omega" unit="deg">
					<startPosition>5.00471661</startPosition>
					<endPosition>49.99721143</endPosition>
				</positions>
				<commonCountingTime unit="seconds">12.495</commonCountingTime>
				<counts unit="counts">2996 3050 3043 3006 2953 3118 3017 3074 3047 3084 3022 3084 3038 3089 2953 3100 2989 3002 3041 3005 3050 3020 3101 3087 3081 3076 3062 3064 3001 3110 3124 3075 3020 3133 2981 3076 2990 3073 3172 3122 3128 3041 3067 3175 3044 3085 3054 3165 3095 3081 3042 3136 3133 3178 3084 3092 3101 3154 3074 3109 3025 3143 3106 3175 3168 3070 3180 3086 3051 3144 3123 3089 3054 3201 3090 3108 3208 3086 3133 3329 3155 3159 3089 3125 3045 3243 3110 3199 3272 3073 3198 3215 3262 3240 3157 3090 3315 3255 3221 3216 3152 3266 3285 3186 3290 3220 3316 3319 3305 3249 3313 3277 3330 3270 3213 3301 3166 3339 3238 3268 3334 3262 3354 3331 3389 3327 3358 3320 3338 3292 3387 3330 3308 3359 3280 3187 3280 3314 3312 3251 3279 3294 3182 3277 3413 3376 3351 3212 3478 3371 3273 3367 3369 3348 3421 3437 3268 3365 3432 3406 3232 3339 3414 3337 3393 3374 3361 3392 3362 3423 3421 3472 3272 3209 3267 3414 3451 3399 3358 3296 3507 3340 3414 3340 3440 3456 3433 3407 3360 3342 3347 3288 3332 3278 3383 3424 3371 3352 3297 3379 3329 3445 3458 3306 3481 3439 3353 3309 3318 3284 3456 3402 3445 3397 3372 3419 3344 3347 3366 3414 3382 3445 3462 3395 3256 3388 3455 3430 3321 3446 3266 3348 3391 3376 3320 3435 3338 3399 3169 3403 3278 3331 3338 3319 3482 3345 3382 3444 3288 3359 3321 3290 3282 3375 3410 3278 3360 3321 3326 3328 3471 3384 3358 3460 3328 3346 3388 3250 3342 3330 3404 3379 3407 3394 3305 3396 3323 3380 3295 3265 3432 3307 3521 3373 3279 3289 3339 3330 3360 3480 3348 3339 3401 3333 3229 3393 3352 3299 3335 3276 3277 3344 3306 3445 3261 3375 3372 3389 3303 3275 3349 3398 3313 3421 3243 3400 3301 3403 3364 3393 3369 3415 3329 3318 3388 3316 3339 3403 3308 3334 3327 3283 3420 3449 3382 3382 3287 3332 3361 3308 3318 3523 3438 3371 3297 3500 3403 3375 3439 3364 3477 3398 3337 3416 3511 3405 3470 3552 3394 3363 3462 3522 3447 3404 3440 3517 3491 3498 3556 3470 3429 3551 3475 3459 3464 3588 3413 3483 3550 3493 3515 3469 3490 3514 3450 3495 3413 3490 3529 3579 3639 3503 3497 3519 3600 3601 3552 3598 3669 3618 3635 3551 3734 3706 3610 3673 3670 3718 3725 3653 3693 3740 3601 3617 3773 3639 3785 3821 3710 3887 3686 3832 3876 3786 3870 3911 3758 4008 3923 4035 3992 4123 3981 4001 3955 4193 4180 4374 4305 4310 4415 4573 4613 4651 4896 4909 5139 5220 5296 5477 5424 5605 5832 5831 5813 5749 5943 5842 5968 5825 5677 5661 5518 5525 5369 5463 5404 5472 5370 5360 5403 5190 5357 5296 5453 5583 5525 5756 5637 5900 5878 5884 5769 5873 5944 5791 5715 5993 5883 5877 5796 5809 5643 5562 5693 5529 5605 5368 5291 5363 5180 5118 5089 4987 4998 4964 4914 4968 4838 4697 4727 4708 4821 4704 4588 4686 4566 4534 4393 4571 4375 4442 4324 4265 4335 4203 4206 4148 4174 4121 4141 4182 4173 4135 4127 4068 3997 3956 3993 3900 3985 3893 3894 3969 3931 3943 3864 3914 3841 3862 3817 3868 3951 3717 3847 3746 3705 3619 3742 3666 3687 3702 3577 3609 3690 3620 3724 3581 3653 3637 3567 3732 3661 3705 3575 3556 3695 3676 3672 3596 3625 3592 3606 3654 3656 3603 3665 3606 3585 3751 3478 3579 3587 3622 3626 3641 3508 3652 3728 3558 3642 3717 3669 3624 3551 3602 3478 3562 3604 3557 3596 3563 3550 3499 3620 3586 3575 3569 3536 3550 3508 3582 3677 3489 3582 3480 3632 3491 3515 3529 3521 3466 3671 3532 3470 3507 3623 3643 3520 3554 3592 3661 3481 3656 3514 3529 3649 3645 3613 3616 3562 3596 3650 3646 3626 3639 3772 3674 3728 3791 3932 3784 3959 3905 3966 3942 3908 3857 3888 3958 3767 3763 3833 3659 3793 3763 3741 3803 3785 3658 3686 3629 3732 3606 3601 3689 3592 3569 3637 3647 3635 3618 3627 3536 3593 3727 3753 3564 3593 3632 3706 3511 3636 3517 3642 3603 3564 3487 3507 3707 3519 3572 3617 3488 3667 3576 3526 3608 3510 3510 3527 3514 3530 3365 3453 3364 3570 3492 3476 3489 3493 3472 3507 3525 3572 3447 3404 3393 3590 3483 3447 3549 3369 3509 3490 3427 3398 3496 3444 3513 3416 3487 3318 3478 3417 3426 3445 3433 3432 3349 3558 3472 3440 3355 3407 3479 3460 3456 3456 3466 3417 3374 3435 3496 3378 3388 3466 3334 3461 3478 3496 3476 3350 3484 3475 3409 3453 3413 3446 3390 3499 3458 3548 3339 3474 3521 3455 3494 3403 3305 3534 3548 3458 3395 3494 3414 3419 3388 3422 3451 3390 3521 3502 3511 3421 3379 3401 3390 3321 3457 3468 3435 3359 3365 3412 3390 3454 3418 3402 3412 3406 3297 3434 3406 3408 3517 3270 3378 3447 3483 3441 3466 3430 3334 3446 3358 3385 3514 3312 3451 3420 3470 3344 3450 3454 3351 3410 3394 3414 3415 3373 3396 3344 3415 3357 3350 3374 3418 3309 3374 3350 3490 3436 3458 3339 3402 3421 3359 3425 3353 3427 3301 3477 3406 3379 3405 3392 3367 3282 3398 3483 3424 3422 3213 3383 3340 3334 3317 3417 3435 3351 3353 3439 3416 3353 3323 3248 3406 3393 3346 3323 3380 3264 3408 3460 3314 3335 3354 3359 3299 3286 3439 3414 3391 3351 3265 3464 3373 3308 3404 3348 3277 3305 3470 3431 3326 3236 3298 3352 3369 3435 3340 3387 3375 3259 3324 3319 3345 3337 3290 3292 3333 3352 3358 3362 3316 3280 3363 3301 3265 3286 3379 3253 3270 3245 3297 3261 3305 3331 3334 3390 3309 3201 3318 3381 3300 3283 3333 3352 3344 3402 3336 3310 3333 3339 3315 3308 3361 3289 3345 3313 3282 3350 3223 3314 3216 3279 3275 3332 3370 3362 3229 3339 3309 3435 3312 3384 3198 3358 3312 3337 3343 3352 3267 3266 3406 3252 3369 3330 3359 3301 3366 3376 3363 3292 3316 3212 3419 3332 3339 3317 3411 3195 3208 3423 3260 3416 3407 3383 3336 3281 3364 3333 3415 3372 3421 3351 3425 3378 3267 3364 3287 3333 3343 3283 3425 3396 3307 3312 3295 3372 3334 3314 3340 3370 3336 3293 3332 3313 3352 3319 3210 3390 3283 3344 3298 3304 3248 3330 3417 3266 3419 3338 3338 3317 3377 3305 3331 3311 3263 3315 3319 3287 3263 3581 3316 3404 3393 3338 3286 3402 3368 3392 3356 3372 3312 3268 3308 3238 3332 3390 3267 3444 3365 3207 3345 3247 3285 3290 3354 3309 3304 3267 3382 3247 3308 3323 3305 3281 3359 3231 3293 3267 3188 3323 3294 3239 3293 3347 3364 3289 3278 3318 3234 3270 3284 3303 3305 3270 3300 3247 3315 3216 3308 3263 3196 3307 3297 3237 3256 3178 3205 3268 3156 3246 3315 3205 3181 3250 3184 3186 3245 3243 3250 3255 3228 3168 3199 3144 3155 3198 3233 3137 3095 3208 3135 3225 3243 3206 3152 3148 3217 3120 3167 3123 3269 3224 3219 3168 3133 3113 3161 3086 3040 3123 3125 3257 3065 3155 3053 3161 3089 3182 3173 3196 3114 3105 3142 3182 3129 3129 3020 3177 3056 2969 2972 2991 3010 3040 3090 3057 3006 2979 3206 3033 2923 3063 3070 3148 2990 3064 3095 3044 3036 2936 2976 2937 2959 3024 2990 2973 3030 2871 2937 2986 3124 3016 2947 2973 2984 3047 2989 2851 2958 3019 2962 2929 2920 2972 3065 2990 2920 2843 2879 2978 2965 2964 2975 2918 2955 2985 2913 3026 2917 2973 2896 2812 2924 2846 2854 2990 2933 2927 2968 2870 2843 2903 2962 2849 2930 2889 2937 2856 2967 2963 2938 2853 2920 2851 2964 2961 2968 2888 3040 2931 2919 2894 2871 2965 2930 2890 3013 3056 3019 2980 3085 3109 3003 3167 3103 3049 2999 3115 3128 3045 2994 3177 3149 3259 3190 3138 3276 3143 3117 3167 3039 3079 3154 3084 3119 3101 3047 3060 3104 3143 3155 3073 3098 3039 3004 3035 3140 2961 2998 3079 3009 2965 2902 2936 3014 2988 3013 2978 3014 2979 2847 2956 2945 2907 2936 2940 2876 3023 2946 2994 2955 2827 2954 2859 2909 2882 2868 2756 2808 2832 2761 2843 2781 2908 2802 2800 2837 2845 2841 2834 2844 2813 2897 2774 2936 2885 2896 2904 2845 2761 2905 2807 2976 2826 2796 2731 2786 2854 2915 2819 2813 2936 2845 2818 2807 2762 2840 2842 2781 2811 2774 2846 2822 2878 2843 2892 2912 2812 2844 2769 2917 2855 2870 2897 2718 2895 2716 2906 2932 2875 2816 2767 2847 2710 2776 2822 2854 2748 2904 2837 2777 2899 2814 2901 2917 2815 2815 2775 2796 2839 2828 2744 2738 2792 2798 2758 2877 2834 2723 2780 2915 2821 2861 2780 2764 2895 2901 2887 2849 2796 2774 2840 2807 2802 2824 2824 2814 2824 2837 2889 2822 2815 2924 2817 2829 2759 2742 2841 2852 2680 2827 2821 2848 2780 2786 2859 2757 2834 2797 2786 2725 2893 2801 2759 2853 2856 2840 2818 2753 2789 2801 2707 2809 2789 2759 2736 2797 2811 2807 2733 2810 2727 2785 2850 2676 2783 2656 2840 2865 2805 2648 2737 2721 2740 2733 2708 2771 2693 2836 2731 2802 2674 2750 2790 2757 2645 2722 2782 2719 2729 2727 2692 2765 2646 2653 2779 2796 2672 2648 2728 2652 2701 2705 2713 2659 2658 2641 2598 2720 2679 2641 2613 2641 2641 2794 2687 2705 2687 2643 2589 2547 2650 2719 2740 2566 2665 2689 2679 2641 2620 2529 2627 2557 2592 2635 2611 2630 2613 2545 2631 2604 2544 2530 2600 2663 2585 2625 2542 2535 2510 2619 2545 2573 2584 2523 2495 2675 2598 2586 2568 2558 2553 2487 2507 2491 2627 2568 2659 2517 2660 2455 2636 2542 2611 2532 2436 2603 2541 2494 2489 2570 2503 2482 2439 2481 2458 2547 2615 2558 2547 2497 2485 2496 2533 2446 2483 2612 2536 2547 2528 2467 2508 2461 2513 2596 2571 2601 2567 2501 2537 2498 2553 2446 2480 2606 2484 2514 2494 2522 2499 2497 2383 2649 2597 2505 2481 2588 2576 2567 2627 2659 2696 2664 2637 2706 2665 2716 2839 2782 3012 2919 2930 3077 2926 2978 2968 3065 2982 3056 2947 3034 2930 3038 3044 3006 2961 3052 3085 3004 3122 3139 3119 3198 3099 3051 3106 3082 3006 3141 3053 3100 3008 2975 3008 2979 2945 2893 2846 2835 2765 2788 2756 2615 2625 2780 2723 2669 2633 2642 2729 2649 2570 2623 2533 2590 2516 2624 2608 2549 2576 2522 2491 2538 2499 2446 2573 2423 2510 2465 2548 2408 2462 2427 2456 2554 2462 2501 2500 2467 2456 2462 2409 2375 2489 2450 2547 2418 2497 2520 2521 2518 2430 2533 2525 2421 2399 2387 2507 2433 2423 2552 2472 2515 2582 2588 2556 2562 2576 2565 2593 2784 2854 2822 3001 3012 3106 3225 3276 3472 3632 3915 3823 3990 4254 4208 4311 4472 4573 4645 4723 4727 4598 4755 4708 4728 4777 4623 4632 4652 4557 4582 4405 4526 4423 4459 4334 4278 3958 4028 4055 3944 3753 3769 3578 3459 3499 3465 3440 3338 3337 3346 3268 3329 3202 3240 3299 3114 3149 3069 3141 3071 3197 2999 3029 2932 2930 2918 2965 2938 2961 3036 3009 2919 3049 2921 2973 2932 2882 2896 2909 2869 2810 2859 2749 2699 2742 2652 2622 2567 2661 2558 2569 2489 2589 2466 2557 2346 2414 2379 2491 2401 2411 2335 2261 2318 2286 2293 2289 2303 2311 2245 2375 2372 2365 2382 2359 2312 2284 2326 2361 2292 2191 2227 2237 2329 2290 2323 2320 2288 2261 2280 2259 2291 2292 2260 2277 2252 2258 2271 2246 2127 2277 2187 2270 2319 2267 2334 2267 2284 2309 2296 2243 2241 2278 2299 2258 2211 2226 2239 2220 2191 2335 2247 2257 2376 2274 2213 2314 2263 2236 2184 2203 2294 2264 2220 2202 2263 2270 2197 2245 2251 2238 2202 2210 2231 2248 2244 2230 2259 2299 2325 2219 2240 2194 2219 2224 2165 2236 2175 2253 2209 2147 2242 2289 2164 2214 2282 2247 2215 2215 2221 2183 2222 2212 2237 2146 2203 2121 2241 2107 2131 2171 2210 2177 2205 2173 2177 2194 2162 2146 2221 2140 2166 2261 2168 2229 2158 2170 2260 2123 2191 2279 2083 2207 2208 2257 2101 2211 2208 2133 2248 2176 2104 2143 2232 2162 2122 2203 2248 2152 2137 2107 2198 2099 2199 2149 2169 2185 2238 2114 2144 2148 2202 2075 2134 2184 2231 2149 2158 2163 2173 2137 2218 2080 2126 2218 2102 2074 2144 2157 2192 2128 2206 2174 2166 2129 2117 2034 2140 2230 2157 2124 2189 2129 2071 2167 2138 2094 2142 2110 2262 2208 2128 2154 2143 2132 2196 2108 2148 2175 2174 2095 2138 2183 2099 2144 2234 2185 2091 2135 2172 2148 2120 2150 2146 2137 2092 2113 2175 2151 2107 2220 2079 2221 2064 2104 2134 2132 2121 2093 2139 2107 2089 2128 2150 2222 2094 2104 2134 2050 2240 2188 2141 2194 2093 2158 2133 2131 2143 2151 2138 2150 2190 2148 2296 2120 2198 2167 2152 2166 2187 2177 2172 2172 2166 2183 2136 2206 2048 2189 2250 2196 2211 2167 2166 2175 2209 2208 2236 2169 2301 2269 2181 2238 2349 2162 2258 2297 2277 2257 2385 2193 2262 2407 2367 2257 2394 2317 2448 2367 2360 2305 2278 2414 2398 2398 2545 2454 2589 2461 2499 2669 2475 2619 2696 2742 2804 2914 3100 3081 3189 3368 3516 3770 4092 4298 4363 4785 4916 5242 5446 5945 6003 6331 6384 6692 6616 6755 6643 6990 6669 6733 6604 6602 6583 6265 6266 6113 6288 6170 6241 6202 5956 6242 6254 6217 6322 6140 6382 6565 6279 6149 6216 6176 6080 5860 5624 5625 5456 5217 5077 4789 4786 4401 4399 4087 4123 3902 3960 3769 3591 3577 3419 3446 3321 3387 3382 3259 3179 3179 3170 3096 3077 2933 2910 2903 2859 2719 2717 2686 2519 2568 2532 2514 2474 2395 2468 2520 2367 2407 2380 2377 2303 2304 2187 2337 2167 2264 2237 2179 2219 2182 2285 2217 2270 2162 2252 2187 2124 2212 2225 2258 2222 2234 2304 2245 2222 2236 2238 2204 2198 2227 2182 2209 2176 2200 2079 2210 2208 2197 2140 2143 2223 2210 2190 2160 2209 2263 2227 2233 2290 2212 2304 2216 2204 2169 2217 2168 2189 2321 2272 2251 2245 2290 2197 2210 2285 2194 2301 2271 2265 2262 2330 2308 2261 2205 2206 2170 2213 2254 2310 2188 2221 2150 2241 2143 2172 2198 2204 2042 2159 2099 2173 2138 2162 2217 2145 2177 2019 2189 2123 2101 2188 2104 2121 2148 2059 2175 2136 2116 2142 2130 2156 2049 2243 2144 2173 2116 2142 2069 2021 2091 2068 2124 2104 2040 2122 1996 2061 2063 2118 2012 2142 2160 2103 2008 2094 2069 2061 2101 2129 2145 2099 2113 2089 1991 2060 2071 2013 2066 2100 2063 2113 2056 2102 2049 2094 2033 2107 1982 2015 2011 2075 2029 2032 2133 2008 2033 2071 1987 2034 2096 2045 1969 2185 2006 2084 2107 2053 2071 2090 2071 2033 1989 2026 2073 2005 1996 2065 2036 2022 1987 2036 2031 2040 2089 2014 2030 2050 2031 2010 1992 2059 2048 1976 2029 2135 2055 2040 2104 2034 2126 2003 2102 2099 2035 2019 2063 2041 2184 2128 2079 2180 2046 2218 2126 2156 2164 2274 2146 2075 2058 2196 2210 2175 2169 2206 2216 2204 2117 2185 2251 2209 2062 2198 2135 2167 2097 2230 2101 2132 2124 2187 2098 2029 2123 2100 2158 2116 2131 2094 2062 2058 2044 2076 2056 2091 1984 2135 2029 2071 2120 2012 2110 2020 1952 1911 2134 1965 2016 2049 2007 1990 1943 2065 2016 1994 2038 1963 2058 1964 2115 2014 2025 2053 2051 1989 2053 1966 2037 2065 2064 2073 1931 2044 2028 2059 1951 2098 2021 2149 2055 2080 2007 2132 2128 2031 2035 2047 2068 2183 2194 2154 2018 2095 2156 2098 2099 2150 2213 2249 2167 2201 2182 2163 2229 2196 2201 2082 2208 2242 2315 2185 2139 2147 2184 2206 2129 2105 2111 2169 2187 2133 2071 2051 2144 2120 2109 2087 2038 2054 2021 2053 2003 2126 2025 2088 2015 2069 2178 2057 2033 1951 1980 1994 1998 1980 2062 1912 2027 2110 1971 1936 2014 2016 2069 2129 1973 2036 2053 2007 2027 1981 1975 1997 2051 2005 2014 2033 2033 1994 2011 2004 2070 1901 1990 2079 2078 1947 1969 2011 2008 1958 2001 1891 1955 2005 1903 2007 1982 1954 2049 1927 1966 1903 2023 2047 1989 2015 1916 1950 1995 2005 2029 2001 2031 1976 1954 1912 2036 1939 2028 1998 1885 1977 1979 2041 1978 1891 1938 1942 1946 1927 1940 1919 2011 2005 1974 2021 2045 1950 1986 1935 2016 1989 2013 1921 1975 1941 1954 1969 1952 2081 1975 2056 1897 1970 1983 1951 2045 2020 1961 1993 1921 2038 1918 2031 1949 1888 2050 1900 1984 1968 1969 2004 1959 1954 1930 1936 1988 1985 1973 2012 2049 2083 1945 1958 2013 1861 2057 1923 2035 1947 1858 2032 2022 1924 1926 2036 2030 1971 1957 1967 1970 1938 1989 1962 1980 1989 2049 1987 1971 1969 2016 2112 2039 2054 1928 1966 1977 1968 1975 1967 2005 2017 2026 1935 1916 2018 1962 1988 1961 1926 1848 2002 1960 1955 2021 1972 1974 1926 2016 1942 1955 2022 2014 1972 1943 1967 1953 1953 1963 2039 1999 1917 1892 1893 1929 1913 1957 2015 1983 1984 1999 2011 1937 1964 1980 1967 1993 2028 2021 1966 2024 1932 1989 1960 2013 1948 1968 1930 2019 2058 2008 1982 1973 1995 1974 1969 2008 2015 2007 1871 2023 1946 1894 1819 2074 1985 1975 1883 2009 1925 1987 2028 1992 2018 2034 1942 1941 2004 2010 2042 1985 1943 1924 1972 2028 2026 1907 1996 1879 1943 1996 1994 1917 1904 1987 1971 1980 1916 1913 2038 1959 1920 1918 1981 2013 1975 1908 1914 1909 1926 1909 1934 1965 1973 1935 1963 1924 1949 2026 2045 2068 2009 2011 2071 2040 2078 2099 2111 2110 2105 2047 2121 2083 2105 2000 2279 2198 2153 2085 2124 2118 2064 2079 2053 2059 2023 2061 2076 2069 2014 2042 1999 2060 2040 2103 1999 1996 1983 1949 2052 2080 2071 1994 2007 1983 2046 1981 1959 1961 1942 1974 1966 2038 1943 1881 1955 1935 1948 1993 2021 2009 1956 2016 2025 1982 1851 1849 2026 1952 1900 1872 1951 1973 2027 1906 1924 1989 1841 1883 1937 1947 2015 1914 1894 1898 1968 1958 1907 1974 1905 1976 2002 1977 1957 1951 1933 1957 1954 1926 1925 1922 1970 1973 1974 1965 1965 1933 1972 1940 1999 1929 1999 1930 1894 1954 1969 1868 1981 2020 1944 1932 1881 2001 1908 1930 2026 1879 1906 1952 1994 1961 1923 1924 1925 1981 1940 1954 1887 1952 1843 2015 1944 1923 1976 1970 1976 1980 1944 1900 1963 1998 2009 1923 1861 1942 1988 1909 1969 1962 1940 1878 1942 1951 2012 1981 1972 1907 2000 1902 1967 1876 1927 1927 1960 1971 1931 1976 1940 1894 1949 1911 2051 1946 2055 1933 2018 1999 1969 1960 1991 1961 1947 1941 2015 1975 1930 1916 1959 2013 1963 1952 1992 1901 1911 1946 1989 1918 2003 1893 2010 1910 1945 1918 1917 1975 1916 1930 1986 1898 1966 1997 1948 1902 2022 1944 1988 1956 1975 1925 2013 1953 2034 2000 2005 2019 2002 2004 2068 1994 2065 2019 2060 2104 1976 2009 2112 2064 2107 2154 2235 2214 2224 2283 2215 2287 2310 2392 2368 2512 2324 2485 2538 2376 2484 2490 2480 2509 2468 2495 2421 2421 2611 2481 2449 2474 2412 2468 2374 2489 2447 2380 2421 2441 2397 2453 2442 2436 2422 2402 2413 2379 2435 2414 2408 2303 2325 2313 2325 2320 2237 2246 2250 2210 2150 2244 2177 2252 2117 2183 2155 2147 2006 2139 2110 2014 2112 2043 2029 2042 1984 2002 1952 2083 1948 2060 2024 2040 2006 2014 2040 1976 2012 2025 2011 2075 1884 2072 1975 1962 1936 1986 1989 1918 1989 2020 2010 1933 1972 1998 1934 1936 1918 1923 2019 1935 1964 1917 1983 1989 1936 2042 1953 1880 1952 1936 2011 1845 1909 1982 1972 2008 1939 2011 1922 1956 1959 1884 1871 2029 1972 1940 1961 1943 1869 2033 1978 2001 2035 1985 1921 1994 2010 1995 1963 1980 1976 1924 1933 1954 1907 2023 1989 2019 1985 1997 1991 2051 1934 1893 1965 1933 2009 1981 1944 1913 1938 1929 1967 2017 1983 2028 1967 1968 2056 1968 2072 1923 1849 2004 1946 1932 1986 1964 1896 1985 1909 1998 1981 1953 1911 1904 2036 1917 2017 2035 1991 1873 1959 1914 1913 1982 1905 1916 1869 2066 1928 1879 1980 1922 1973 1943 1871 1971 2031 1856 1839 1865 1943 1991 1983 1814 1873 1958 1926 1979 1841 1882 1873 1987 1888 1897 1840 1960 1941 1872 1975 2062 1994 2053 1958 1949 2035 1975 1977 1958 1920 2008 1943 2021 1893 1926 1991 1925 1988 1923 1953 1973 1924 1880 1942 1933 1936 1904 1959 1920 1944 1931 1911 1985 1930 1896 1961 2009 1935 1933 1987 2001 1936 1989 1943 2008 2003 1864 1967 1988 1964 1961 1967 1984 1842 1950 2001 1866 1940 1959 1928 1886 2002 1867 1989 1905 1942 1952 2029 1916 1905 1936 1919 2047 1937 1921 1923 1967 1967 1826 1966 1941 1941 1942 1859 1885 1940 1972 1885 1922 1978 1947 1882 1941 1949 1911 1952 1977 1874 1963 2020 1886 1967 2006 1825 2030 1949 1864 1936 1901 1930 1936 2030 1922 1896 1951 1998 2046 1890 1973 1923 1978 1928 1965 1970 1903 2003 1964 1985 1903 2006 1952 2012 1948 2002 2060 1983 2106 2033 1970 1995 2029 2084 2012 2026 2062 2092 2140 2086 2060 2071 2087 2162 2096 2177 2098 2251 2236 2255 2226 2274 2330 2390 2444 2368 2581 2557 2720 2789 2864 3038 3064 3243 3493 3574 3664 3718 3818 3878 3884 3899 3963 4084 4156 4233 4335 4463 4589 4549 4586 4598 4440 4454 4343 4279 4221 4123 4113 4064 4064 3872 3915 3799 3771 3668 3554 3601 3423 3482 3312 3251 3209 3222 3178 3122 3022 3010 2954 3034 2943 2852 2880 2812 2796 2805 2715 2666 2650 2620 2573 2563 2606 2537 2441 2506 2341 2379 2392 2312 2382 2289 2238 2360 2342 2174 2252 2249 2218 2211 2082 2107 2106 2164 2015 2102 2100 2038 2102 2096 2067 1992 2009 2047 2065 1999 2000 1972 2027 2002 1984 1940 2051 1937 1948 1963 1954 2016 1912 2048 1986 1939 1999 2009 1971 2030 1992 1999 2076 1861 1978 1938 1974 1903 1918 2013 1868 1999 1895 1996 1975 2002 2005 2005 2015 1956 2014 1863 1918 1915 1968 1959 1934 1918 1950 1886 1853 1920 1997 1938 1942 2020 1962 1923 1999 1984 2003 1976 2007 2021 1928 1989 1975 1990 1938 1964 1937 1921 1979 1983 1986 1906 1901 2038 1932 2044 1967 2058 1999 2029 2006 1973 1891 1947 1920 2037 1983 2001 2019 2010 2020 1974 1967 1989 1931 2008 1995 1984 2006 1934 1943 1899 1985 1968 1984 1962 1945 1978 1974 1895 1974 1911 1986 1989 1968 2035 2023 1931 1975 1956 2019 2062 2039 2072 2056 2046 2122 2004 2092 2119 2191 2113 2120 2317 2236 2255 2152 2365 2310 2375 2244 2336 2321 2230 2368 2311 2319 2278 2331 2247 2255 2301 2379 2324 2264 2268 2329 2321 2212 2215 2240 2235 2147 2182 2287 2233 2276 2177 2227 2131 2105 2277 2251 2159 2197 2208 2195 2192 2218 2150 2245 2197 2187 2210 2118 2197 2230 2272 2083 2173 2202 2173 2016 2204 2113 2151 2092 2158 2150 2151 2080 2145 2166 2069 2076 2059 2019 2058 2079 2166 1979 2088 2004 1989 1970 2058 2045 2033 2033 1931 1991 1950 1897 2017 1986 2014 1946 2016 1958 1950 1958 1920 1931 1997 2003 1985 2028 1990 1909 1971 1948 1894 1926 2007 1862 2011 1880 2042 1965 1995 1839 1782 1839 1981 1901 1933 1945 1932 1979 1983 1902 1889 2004 1909 1941 1954 1916 1949 1911 1861 1913 1927 1860 1926 1966 1902 1922 1916 1993 1907 1882 1893 1914 1905 1888 1931 1924 1887 1924 1785 1905 1856 1864 1869 1967 1855 1867 1872 1865 1903 1903 1870 1912 1856 1965 1921 1896 1864 1865 1889 1901 1964 1867 1966 1955 1860 1955 1857 1934 1858 1891 1827 1874 1942 1858 1818 1907 1861 1867 1921 1870 1903 1935 1888 1870 1867 1915 1926 1915 1885 1933 1876 1936 1853 1918 1911 1825 1856 1894 1869 1871 1941 1858 1873 1901 1875 1887 1893 1894 1928 1776 1935 1837 1894 1835 1863 1896 1850 1898 1874 1874 1833 1850 1814 1899 1871 1772 1859 1891 1851 1804 1875 1859 1970 1859 1893 1839 1922 1909 1862 1878 1839 1844 1922 1932 1809 1917 1862 1934 1807 1914 1889 1892 1877 1874 1808 1935 1862 1845 1903 1834 1875 1894 1851 1980 1808 1868 1871 1855 1951 1789 1815 1876 1896 1891 1872 1893 1887 1909 1839 1825 1955 1940 1852 1874 1857 1887 1871 1840 1908 1890 1858 1841 1821 1876 1856 1851 1844 1923 1793 1818 1871 1882 1865 1891 1816 1906 1764 1879 1778 1933 1857 1939 1855 1923 1832 1879 1904 1878 1795 1847 1843 1859 1812 1864 1897 1931 1922 1856 1902 1848 1875 1868 1844 1861 1940 1860 1892 1864 1842 1871 1873 1946 1872 1944 1906 1836 1948 1872 1872 1893 1926 1910 1942 1901 1944 1942 1927 1904 1856 1951 1887 1889 1879 1834 1842 1893 1886 1905 1840 1897 1886 1896 1860 1922 1912 1899 1901 1822 1811 1966 1848 1978 1867 1966 1861 1952 1903 1818 1874 1939 1858 1943 1964 1904 1877 1907 1891 1893 1897 1883 1886 1931 1898 1834 1913 1844 1931 1869 1935 1934 1883 1804 1846 1774 1966 1824 1857 1886 1829 1835 1860 1947 1806 1827 1888 1831 1858 1855 1903 1802 1870 1829 1853 1818 1781 1876 1847 1921 1912 1838 1841 1926 1853 1842 1862 1857 1763 1835 1784 1881 1746 1827 1814 1890 1828 1869 1837 1878 1815 1866 1876 1858 1866 1887 1901 1874 1895 1878 1794 1866 1828 1833 1858 1822 1864 1893 1910 1898 1774 1866 1796 1852 1836 1828 1846 1859 1834 1894 1817 1846 1800 1870 1833 1900 1901 1923 1790 1865 1911 1822 1810 1817 1841 1892 1817 1840 1910 1869 1861 1804 1823 1885 1883 1877 1774 1885 1873 1868 1732 1869 1831 1866 1803 1899 1850 1868 1759 1831 1884 1831 1896 1861 1991 1867 1838 1843 1961 1850 1776 1870 1747 1839 1871 1934 1903 1926 1863 1831 1887 1850 1911 1827 1810 1915 1814 1875 1890 1818 1858 1895 1949 1936 1934 1971 1949 1937 1943 1896 1899 1936 1922 1917 1854 1862 1824 1888 1919 1937 1877 1947 1948 1944 2008 1817 1919 1879 1902 1900 1844 1864 1988 1936 1958 1868 1918 1867 1901 1814 1907 1913 1903 1909 1951 1942 1945 1893 1868 1929 1979 2029 1928 2039 2023 1928 1997 2052 2009 2078 2084 2177 2222 2282 2382 2318 2345 2364 2371 2460 2339 2382 2407 2402 2319 2330 2235 2244 2301 2350 2330 2330 2353 2376 2249 2235 2270 2202 2173 2276 2137 2173 2156 2141 2134 2171 2196 2083 2164 2103 2055 2133 2139 2111 2127 2121 2107 2080 2033 2122 2090 2060 2133 2066 2076 2051 2040 2046 2079 2035 2060 2007 1977 2060 2051 1982 2045 2008 2010 2048 1886 2019 1996 2028 1941 1978 1929 1884 1930 1897 1820 1902 1911 1933 1907 1964 1859 1850 1880 1833 1969 1844 1864 1861 1795 1903 1877 1946 1888 1884 1953 1860 1831 1818 1826 1867 1821 1873 1903 1874 1898 1798 1870 1799 1900 1842 1831 1841 1835 1868 1848 1847 1866 1831 1843 1849 1807 1811 1866 1849 1901 1917 1846 1899 1870 1853 1882 1852 1862 1844 1825 1833 1819 1893 1833 1853 1861 1909 1778 1821 1916 1892 1809 1975 1814 1886 1828 2012 1857 1907 1799 1866 1864 1795 1840 1876 1862 1809 1884 1902 1886 1816 1844 1855 1859 1867 1906 1841 1829 1855 1763 1857 1812 1912 1849 1873 1901 1806 1826 1900 1914 1843 1899 1891 1818 1929 1833 1861 1832 1824 1896 1809 1874 1747 1821 1840 1883 1809 1878 1819 1800 1801 1848 1848 1870 1858 1871 1912 1836 1810 1823 1917 1849 1802 1850 1912 1932 1858 1885 1858 1777 1914 1888 1794 1866 1846 1880 1839 1863 1780 1902 1857 1845 1908 1822 1955 1820 1842 1828 1863 1883 1899 1816 1936 1929 1951 1885 1846 1854 1932 1903 2067 1907 2011 1934 1969 1942 2017 2004 2017 1996 2031 2088 2112 2111 2150 2196 2228 2250 2282 2340 2335 2378 2304 2291 2306 2334 2434 2276 2381 2316 2368 2317 2340 2324 2449 2387 2407 2408 2465 2489 2445 2548 2468 2359 2498 2342 2320 2381 2329 2347 2420 2425 2353 2371 2478 2386 2451 2451 2497 2417 2435 2361 2263 2353 2316 2278 2170 2320 2255 2220 2222 2172 2220 2098 2121 2157 2152 2173 2024 2075 2090 2102 1977 2030 1944 2047 1985 2004 2013 1931 1845 1941 1919 1883 1790 1905 1893 1924 1950 1852 1870 1908 1816 1856 1836 1935 1985 1852 1947 1913 1789 1857 1852 1846 1867 1856 1847 1838 1778 1869 1895 1911 1834 1734 1808 1863 1818 1865 1867 1890 1800 1863 1841 1795 1862 1827 1833 1936 1758 1854 1849 1908 1813 1871 1871 1860 1929 1895 1931 1881 1888 1971 1947 2049 2039 2166 2156 2235 2221 2202 2237 2199 2123 2060 1994 2008 1997 2027 2035 2029 2096 1987 1997 2109 2022 2077 2066 2049 2095 2025 1987 2001 1964 1946 1914 1950 1909 1836 1848 1931 1878 1907 1857 1925 1873 1922 1872 1957 1979 1970 1883 1877 1830 1924 1851 1935 1886 1935 1924 1944 1940 1991 1905 1986 1953 1963 1983 1967 1983 2041 2036 1984 1956 1994 2066 2044 2054 2071 1957 2075 1970 2120 2035 2030 2044 2071 2115 2026 2118 2057 2143 2112 2062 2088 2038 2101 2036 1981 2099 2013 2007 2060 2023 1999 1996 1951 2070 1979 2016 1949 1975 1980 1915 1975 1954 1911 1901 1867 1844 1910 1964 1910 1930 1973 1942 1890 1930 1870 1868 1910 1950 1885 1906 1910 1911 1912 1898 1895 1931 1838 1859 1881 1945 1864 2004 1894 1918 1887 1887 1909 1892 1884 1804 1905 1804 1874 1863 1873 1866 1918 1847 1850 1882 1849 1871 1872 1866 1884 1873 1862 1903 1759 1804 1920 1774 1930 1811 1830 1908 1852 1897 1803 1796 1879 1865 1847 1902 1834 1851 1845 1775 1845 1806 1838 1902 1789 1927 1821 1872 1829 1857 1836 1811 1806 1866 1788 1804 1949 1887 1845 1834 1803 1805 1864 1879 1827 1812 1739 1831 1877 1876 1845 1794 1920 1877 1807 1913 1799 1742 1873 1767 1832 1844 1849 1826 1941 1834 1737 1881 1849 1921 1790 1757 1798 1814 1813 1853 1819 1793 1790 1788 1812 1887 1808 1774 1853 1813 1741 1865 1725 1823 1868 1843 1756 1846 1814 1798 1813 1747 1919 1850 1868 1879 1833 1813 1830 1687 1773 1792 1854 1747 1801 1805 1938 1815 1787 1807 1805 1823 1935 1872 1798 1811 1920 1797 1889 1820 1867 1776 1796 1861 1814 1810 1839 1759 1850 1809 1753 1771 1747 1787 1795 1859 1772 1843 1807 1797 1803 1742 1774 1846 1748 1756 1818 1816 1731 1856 1892 1840 1783 1826 1799 1809 1834 1724 1786 1849 1795 1830 1815 1762 1779 1775 1795 1801 1765 1845 1817 1859 1801 1830 1807 1856 1812 1868 1814 1844 1915 1808 1812 1743 1822 1837 1796 1760 1823 1821 1829 1709 1805 1817 1761 1780 1864 1772 1825 1792 1836 1881 1779 1777 1810 1790 1796 1863 1844 1761 1843 1810 1868 1847 1853 1821 1836 1889 1832 1858 1818 1808 1854 1824 1837 1872 1832 1764 1848 1847 1829 1811 1850 1833 1831 1813 1825 1787 1819 1814 1775 1860 1867 1795 1896 1837 1884 1838 1805 1886 1791 1839 1770 1800 1857 1823 1804 1843 1860 1868 1893 1823 1945 1844 1883 1849 1836 1801 1837 1769 1773 1810 1841 1814 1761 1902 1820 1747 1852 1831 1775 1860 1800 1835 1823 1864 1840 1783 1783 1845 1852 1906 1760 1793 1854 1827 1766 1867 1874 1817 1778 1849 1819 1766 1781 1813 1855 1813 1760 1815 1862 1826 1804 1833 1806 1902 1760 1765 1776 1740 1845 1795 1792 1820 1756 1780 1780 1807 1711 1753 1789 1708 1835 1734 1766 1836 1760 1871 1783 1792 1843 1786 1756 1807 1770 1693 1789 1853 1790 1794 1757 1783 1819 1833 1802 1819 1803 1842 1750 1789 1751 1730 1785 1786 1719 1770 1819 1791 1826 1857 1809 1794 1761 1710 1808 1840 1770 1836 1737 1760 1817 1845 1851 1791 1821 1809 1871 1753 1790 1746 1753 1765 1806 1822 1775 1875 1814 1823 1807 1854 1787 1762 1789 1818 1874 1820 1865 1807 1804 1779 1820 1809 1897 1864 1820 1896 1911 1903 1896 1900 1857 1908 1876 1863 1909 1784 1867 1840 1832 1864 1849 1854 1890 1855 2013 1900 1849 2012 1916 1885 1929 1820 1891 1953 1853 1919 1975 1871 1887 1796 1899 1842 1790 1841 1808 1901 1844 1845 1885 1854 1954 1840 1819 1843 1902 1869 1807 1840 1772 1768 1922 1857 1894 1795 1750 1828 1830 1793 1858 1853 1782 1777 1822 1821 1722 1763 1857 1821 1791 1816 1865 1823 1712 1844 1819 1812 1777 1783 1830 1757 1764 1819 1810 1738 1794 1753 1819 1790 1785 1785 1716 1833 1729 1746 1765 1735 1743 1776 1889 1770 1822 1843 1829 1738 1767 1781 1769 1750 1822 1829 1801 1781 1808 1749 1853 1831 1721 1824 1785 1753 1836 1787 1827 1739 1762 1725 1839 1759 1784 1752 1762 1782 1798 1795 1735 1775 1802 1805 1810 1856 1817 1812 1738 1802 1807 1774 1785 1796 1739 1786 1752 1880 1894 1733 1728 1889 1750 1850 1738 1779 1751 1784 1847 1834 1771 1816 1705 1808 1816 1763 1818 1767 1826 1815 1836 1719 1797 1733 1751 1760 1837 1838 1814 1788 1809 1805 1739 1797 1795 1820 1752 1848 1766 1730 1788 1790 1782 1769 1831 1814 1872 1770 1705 1864 1717 1780 1779 1790 1794 1856 1845 1714 1770 1720 1763 1806 1769 1771 1826 1831 1843 1763 1793 1791 1763 1883 1766 1804 1762 1780 1734 1813 1762 1824 1727 1778 1722 1812 1820 1762 1857 1794 1795 1810 1724 1741 1749 1815 1806 1831 1754 1853 1773 1758 1817 1851 1754 1802 1754 1832 1791 1787 1863 1776 1798 1796 1808 1841 1807 1867 1844 1775 1847 1789 1865 1869 1873 1793 1899 1836 1796 1887 1805 1882 1851 1914 1904 1966 1826 1952 1987 1931 1934 1969 2002 1911 1989 1968 2006 1988 1940 1957 1920 1972 1923 1953 2003 1902 1881 1977 1956 1887 1928 1975 1956 1965 1947 1940 1969 1924 1933 1889 1895 1958 1894 1875 1905 1932 1950 1876 1863 1923 1896 1900 1838 1891 1895 1899 1803 1836 1894 1792 1886 1875 1877 1884 2032 1888 1949 1913 1885 1995 1816 1881 1941 1985 1895 1986 1890 1965 1913 1919 1976 1890 1952 1893 1887 1808 1852 1838 1959 1938 1950 1880 1872 1944 1872 1908 1796 1932 1883 1891 1876 1864 1758 1796 1819 1818 1792 1754 1853 1777 1841 1856 1865 1839 1759 1754 1792 1805 1807 1828 1755 1805 1727 1784 1812 1785 1830 1850 1834 1746 1787 1800 1809 1831 1754 1759 1764 1831 1823 1841 1831 1837 1767 1811 1883 1796 1858 1787 1754 1836 1802 1772 1706 1758 1779 1799 1847 1787 1821 1830 1699 1814 1777 1783 1793 1794 1791 1780 1795 1779 1820 1767 1733 1825 1756 1742 1797 1779 1752 1745 1779 1766 1868 1833 1776 1809 1821 1811 1808 1758 1681 1778 1781 1855 1790 1803 1789 1780 1759 1783 1745 1773 1800 1783 1768 1792 1775 1764 1857 1754 1782 1792 1809 1828 1812 1738 1798 1887 1838 1862 1720 1808 1739 1741 1785 1778 1806 1767 1829 1804 1755 1835 1835 1756 1770 1791 1875 1744 1798 1779 1808 1837 1720 1759 1824 1769 1780 1805 1779 1778 1775 1830 1782 1772 1813 1775 1774 1803 1746 1789 1790 1846 1802 1763 1851 1863 1809 1733 1841 1819 1882 1784 1811 1844 1812 1770 1793 1837 1797 1821 1833 1845 1778 1807 1838 1778 1848 1806 1795 1754 1814 1776 1832 1728 1789 1778 1800 1812 1819 1821 1845 1816 1792 1836 1752 1789 1802 1719 1771 1805 1845 1814 1825 1838 1799 1771 1769 1850 1787 1793 1830 1821 1799 1769 1805 1817 1803 1813 1837 1786 1827 1808 1839 1775 1776 1801 1831 1818 1746 1810 1735 1799 1822 1834 1793 1884 1783 1822 1745 1803 1843 1746 1757 1708 1716 1782 1766 1738 1863 1795 1799 1797 1827 1744 1790 1794 1792 1719 1754 1832 1771 1789 1750 1847 1810 1906 1768 1717 1742 1814 1745 1774 1807 1842 1808 1812 1777 1781 1755 1756 1719 1757 1826 1834 1824 1773 1796 1756 1870 1757 1792 1814 1859 1700 1757 1818 1730 1762 1764 1794 1761 1689 1808 1822 1720 1817 1778 1788 1871 1701 1777 1811 1740 1880 1837 1773 1872 1759 1753 1770 1795 1798 1772 1828 1862 1733 1863 1762 1717 1753 1736 1768 1768 1731 1770 1813 1863 1857 1773 1792 1791 1795 1830 1739 1827 1767 1831 1796 1755 1778 1789 1757 1772 1776 1825 1782 1813 1871 1785 1729 1749 1766 1799 1745 1811 1783 1740 1815 1700 1833 1838 1735 1707 1793 1782 1771 1813 1801 1793 1776 1780 1773 1856 1755 1795 1767 1720 1803 1784 1740 1820 1827 1774 1746 1799 1822 1768 1725 1771 1865 1890 1834 1818 1781 1823 1866 1910 1858 1866 1796 1765 1737 1791 1877 1854 1788 1811 1797 1793 1790 1779 1826 1746 1858 1835 1738 1913 1829 1808 1765 1765 1842 1764 1798 1696 1829 1828 1774 1790 1907 1786 1818 1821 1844 1830 1697 1760 1776 1786 1822 1805 1758 1893 1733 1811 1731 1804 1790 1762 1819 1849 1761 1666 1817 1782 1840 1725 1843 1715 1783 1802 1790 1789 1853 1731 1685 1770 1774 1780 1766 1784 1857 1783 1802 1757 1752 1799 1714 1757 1737 1877 1796 1883 1750 1759 1712 1814 1818 1762 1813 1852 1777 1744 1756 1765 1759 1880 1807 1841 1871 1776 1776 1812 1797 1779 1708 1792 1796 1725 1789 1709 1814 1790 1845 1844 1829 1757 1751 1808 1812 1793 1825 1742 1789 1759 1779 1851 1805 1747 1806 1777 1782 1838 1744 1773 1823 1788 1762 1828 1807 1843 1848 1831 1798 1758 1713 1787 1847 1814 1767 1775 1812 1862 1727 1822 1771 1813 1737 1780 1808 1724 1799 1850 1783 1732 1719 1847 1822 1871 1867 1872 1814 1871 1799 1851 1816 1828 1817 1738 1892 1934 1829 1879 1867 1836 1836 1850 1921 1821 1854 1818 1871 1886 1905 1795 1834 1759 1876 1891 1862 1838 1803 1876 1855 1879 1880 1854 1822 1862 1875 1918 1892 1875 1865 1835 1865 1910 1886 1885 1943 1888 1924 1916 1930 1966 1936 2014 1836 1933 1957 1894 1904 1885 1916 1873 1803 1855 1797 1900 1941 1934 1869 1913 1822 1877 1904 1895 1885 1888 1842 1972 1875 1900 1929 1863 1879 1898 1860 1897 1861 1981 1841 1908 1901 1877 1913 1937 1858 1912 1888 1884 1853 1905 1905 1807 1825 1902 1865 1842 1816 1881 1762 1831 1874 1830 1869 1893 1844 1848 1874 1869 1847 1808 1788 1840 1877 1893 1882 1827 1800 1791 1813 1850 1829 1806 1834 1825 1800 1790 1787 1793 1772 1810 1757 1818 1850 1811 1800 1837 1915 1793 1788 1813 1775 1859 1799 1799 1788 1769 1752 1869 1787 1738 1770 1817 1852 1836 1824 1854 1842 1784 1813 1848 1773 1788 1858 1826 1818 1808 1762 1865 1847 1833 1840 1827 1859 1817 1843 1866 1809 1899 1863 1970 1854 1919 1872 1817 1813 1890 1908 1861 1885 1768 1838 1857 1868 1784 1839 1875 1810 1779 1831 1856 1899 1903 1933 1827 1841 1888 1827 1785 1824 1860 1805 1810 1807 1742 1876 1893 1841 1840 1783 1820 1848 1844 1828 1717 1810 1786 1786 1915 1867 1797 1801 1832 1828 1830 1784 1877 1828 1811 1925 1797 1798 1814 1846 1822 1808 1892 1826 1856 1855 1807 1867 1841 1843 1829 1877 1798 1787 1888 1813 1918 1948 1916 1839 1880 1856 1849 1923 1894 1974 1901 1991 1891 2013 2112 2045 2155 2117 2124 2193 2209 2278 2270 2193 2274 2260 2251 2257 2161 2137 2147 2185 2255 2193 2099 2138 2191 2092 2215 2138 2143 2197 2170 2168 2198 2163 2127 2164 2229 2183 2091 2181 2178 2107 2094 2101 2103 2108 2124 2068 2163 1989 2010 1960 2074 2086 2024 2139 2015 2049 2093 2060 2033 1989 2076 2067 2086 2052 2086 2158 2096 2064 2098 2069 2016 1984 2001 2038 1963 1981 1990 1932 2020 2035 1975 1966 1972 2021 2064 2017 1941 1959 1910 1965 1925 2092 1986 1964 1994 1970 1955 1957 1925 1942 2001 1976 1862 1933 1857 1910 1955 1886 1890 1906 1966 1846 1924 1870 1815 1879 1876 1926 1830 1909 1913 1893 1838 1863 1891 1817 1899 1858 1854 1836 1792 1817 1976 1767 1871 1823 1841 1873 1796 1758 1889 1851 1883 1843 1870 1823 1851 1818 1859 1827 1792 1791 1766 1738 1825 1811 1860 1795 1834 1820 1788 1792 1856 1876 1788 1851 1797 1829 1852 1855 1868 1757 1861 1792 1835 1815 1814 1837 1830 1813 1782 1844 1898 1858 1839 1851 1824 1875 1871 1782 1868 1940 1788 1871 1808 1815 1827 1816 1860 1892 1859 1859 1852 1903 1832 1819 1867 1824 1881 1854 1900 1927 1909 1881 1856 1921 1845 1778 1834 1842 1929 1881 1803 1842 1843 1873 1830 1900 1791 1812 1831 1839 1847 1847 1847 1831 1786 1950 1779 1872 1819 1847 1860 1809 1847 1830 1864 1812 1835 1782 1806 1769 1879 1769 1802 1870 1855 1789 1847 1859 1819 1878 1833 1817 1884 1878 1811 1809 1855 1826 1873 1806 1779 1837 1811 1803 1721 1834 1810 1798 1778 1862 1784 1882 1758 1811 1854 1721 1799 1729 1884 1779 1806 1768 1825 1830 1743 1845 1729 1747 1834 1802 1802 1763 1803 1741 1825 1715 1760 1729 1760 1808 1769 1850 1779 1695 1781 1805 1772 1817 1799 1763 1872 1855 1824 1819 1781 1838 1752 1828 1867 1859 1880 1765 1683 1786 1833 1835 1835 1806 1806 1842 1882 1879 1799 1794 1826 1861 1771 1770 1867 1774 1809 1834 1789 1745 1862 1793 1719 1790 1791 1759 1859 1825 1784 1868 1826 1734 1872 1742 1797 1826 1799 1875 1728 1836 1747 1815 1863 1773 1789 1764 1778 1853 1844 1853 1765 1845 1801 1828 1785 1815 1793 1844 1802 1741 1808 1792 1823 1777 1766 1832 1793 1800 1834 1780 1869 1817 1761 1689 1788 1813 1783 1762 1823 1794 1782 1773 1823 1764 1808 1759 1803 1795 1781 1858 1781 1800 1847 1781 1834 1791 1798 1804 1793 1791 1808 1803 1767 1770 1821 1881 1761 1760 1854 1840 1731 1795 1886 1788 1742 1752 1823 1772 1843 1828 1778 1727 1789 1774 1794 1811 1812 1756 1772 1843 1763 1806 1887 1764 1821 1803 1820 1749 1754 1783 1850 1830 1775 1771 1757 1785 1880 1786 1715 1728 1731 1915 1804 1751 1781 1804 1809 1855 1762 1871 1825 1891 1800 1844 1748 1769 1817 1851 1758 1706 1814 1701 1785 1828 1785 1813 1957 1854 1743 1735 1806 1840 1823 1841 1932 1820 1821 1746 1877 1817 1841 1812 1763 1838 1780 1793 1790 1779 1834 1795 1821 1756 1827 1749 1883 1758 1801 1785 1765 1781 1812 1845 1827 1785 1786 1742 1864 1758 1760 1695 1763 1865 1752 1798 1814 1821 1742 1783 1745 1761 1762 1808 1828 1733 1791 1760 1818 1718 1769 1768 1760 1843 1860 1812 1846 1777 1776 1817 1849 1812 1850 1889 1836 1839 1768 1860 1783 1756 1770 1751 1790 1796 1889 1801 1804 1760 1826 1774 1766 1813 1779 1845 1747 1786 1813 1810 1782 1884 1868 1883 1728 1772 1777 1832 1822 1751 1904 1823 1828 1822 1775 1764 1713 1822 1847 1832 1808 1733 1782 1814 1849 1784 1828 1812 1791 1814 1845 1816 1834 1805 1781 1798 1841 1774 1819 1818 1796 1802 1833 1929 1826 1845 1821 1817 1815 1755 1832 1813 1881 1865 1841 1948 1873 1821 1813 1834 1717 1877 1901 1825 1859 1831 1784 1824 1824 1853 1831 1810 1864 1746 1817 1832 1837 1841 1807 1878 1914 1820 1758 1876 1872 1738 1854 1879 1793 1812 1799 1816 1874 1844 1752 1933 1762 1826 1825 1808 1852 1796 1821 1807 1811 1873 1803 1826 1788 1845 1803 1824 1806 1772 1828 1829 1756 1828 1782 1868 1905 1834 1767 1783 1837 1852 1849 1833 1830 1828 1742 1853 1766 1841 1849 1797 1759 1780 1803 1842 1786 1794 1864 1902 1751 1854 1778 1789 1846 1761 1838 1826 1856 1790 1814 1793 1685 1815 1793 1758 1770 1833 1831 1793 1782 1809 1797 1807 1756 1898 1790 1791 1826 1817 1741 1818 1830 1855 1754 1818 1771 1842 1809 1806 1759 1819 1746 1804 1815 1825 1805 1798 1806 1783 1777 1734 1836 1794 1804 1772 1761 1777 1780 1805 1762 1829 1735 1749 1824 1790 1837 1839 1851 1800 1829 1689 1769 1830 1795 1785 1767 1746 1711 1771 1751 1771 1812 1812 1813 1811 1783 1777 1735 1787 1762 1742 1775 1770 1772 1787 1777 1828 1781 1752 1879 1755 1838 1760 1774 1759 1783 1807 1848 1766 1792 1816 1759 1757 1798 1749 1757 1818 1745 1768 1846 1879 1771 1795 1770 1817 1792 1861 1816 1806 1774 1767 1741 1769 1795 1754 1769 1816 1834 1815 1824 1799 1840 1746 1810 1864 1776 1743 1770 1760 1713 1784 1806 1831 1822 1892 1747 1754 1823 1700 1834 1792 1833 1851 1818 1808 1811 1807 1829 1776 1808 1869 1772 1818 1826 1728 1794 1853 1816 1840 1804 1874 1884 1885 1889 1844 1810 1873 1881 1840 1865 1852 1861 1934 1912 1849 1905 2043 1968 1951 2011 2023 1988 2052 2048 2138 2041 2114 2056 2007 1987 2061 2005 2017 2094 1924 2042 2023 1932 2031 1981 1969 2024 2055 2065 2023 1990 1963 2025 2082 2008 2005 2047 2131 1971 2000 1965 1998 2028 1935 2051 2080 2102 2026 2054 1927 1943 2057 2021 2016 1968 2056 2010 2029 1979 1971 1981 1941 1918 1966 1966 1901 1960 1952 2021 1967 1951 1991 1919 1946 1994 1929 1955 1950 1902 1821 2002 1905 1964 1892 1951 1918 1926 1877 1940 2003 1936 1928 1894 1894 1923 1914 1926 1972 1910 1914 1942 1926 1946 1953 1925 1857 1962 1849 1962 1748 1900 1823 1965 1920 1905 1837 1897 1833 1866 1803 1849 1823 1932 1933 1873 1811 1822 1843 1889 1827 1880 1857 1818 1887 1824 1902 1785 1808 1790 1870 1799 1785 1809 1792 1800 1812 1776 1802 1834 1825 1770 1885 1873 1754 1790 1775 1860 1839 1872 1815 1708 1877 1751 1726 1768 1890 1833 1778 1836 1789 1919 1878 1822 1860 1807 1805 1795 1784 1895 1742 1738 1863 1926 1790 1923 1742 1830 1824 1856 1819 1858 1869 1889 1824 1777 1889 1799 1798 1735 1759 1893 1825 1892 1878 1862 1892 1849 1870 1884 1812 1808 1840 1884 1770 1863 1771 1816 1834 1747 1878 1822 1792 1837 1818 1756 1857 1773 1860 1757 1850 1865 1805 1828 1750 1792 1767 1830 1769 1798 1840 1809 1813 1771 1875 1780 1822 1844 1851 1727 1750 1890 1847 1798 1925 1829 1863 1784 1735 1848 1778 1853 1844 1771 1815 1754 1895 1808 1849 1819 1859 1854 1819 1844 1799 1803 1841 1892 1831 1866 1864 1854 1839 1805 1840 1852 1765 1909 1804 1852 1879 1835 1820 1877 1787 1777 1861 1796 1905 1808 1822 1825 1888 1839 1787 1908 1818 1807 1832 1850 1839 1915 1812 1897 1831 1733 1771 1870 1779 1805 1792 1858 1768 1759 1809 1943 1855 1816 1876 1865 1813 1807 1793 1914 1835 1760 1799 1851 1799 1844 1893 1836 1812 1816 1825 1829 1837 1799 1726 1808 1801 1842 1795 1925 1736 1772 1770 1842 1731 1754 1763 1812 1785 1751 1820 1744 1863 1809 1743 1872 1800 1761 1738 1875 1814 1758 1828 1791 1772 1755 1764 1814 1763 1792 1779 1765 1862 1775 1854 1821 1763 1807 1783 1767 1825 1782 1820 1790 1734 1873 1841 1864 1829 1766 1795 1779 1809 1854 1872 1790 1794 1772 1812 1763 1797 1796 1843 1816 1819 1850 1778 1774 1787 1744 1760 1741 1786 1801 1755 1778 1760 1763 1765 1798 1814 1765 1792 1767 1774 1773 1792 1798 1782 1745 1715 1811 1759 1818 1786 1725 1814 1743 1778 1750 1813 1769 1838 1764 1829 1792 1753 1738 1742 1712 1854 1802 1797 1806 1771 1731 1757 1759 1822 1782 1798 1818 1763 1789 1790 1885 1763 1819 1837 1795 1756 1804 1792 1845 1813 1792 1735 1851 1807 1778 1797 1796 1804 1791 1808 1755 1741 1767 1719 1808</counts>
			</dataPoints>
		</scan>
	</xrdMeasurement>
</xrdMeasurements>
