<?xml version="1.0"?>
<xrdMeasurements xmlns="http://www.xrdml.com/XRDMeasurement/2.3" xmlns:xsi="http://www.w3.org/2001/XMLSchema-instance" xsi:schemaLocation="http://www.xrdml.com/XRDMeasurement/2.3 http://www.xrdml.com/XRDMeasurement/2.3/XRDMeasurement.xsd" status="Completed" recordIdentifier="{C7558772-A2AF-4451-AB00-62948C0320F4}">
	<comment>
		<entry/>
	</comment>
	<sample type="To be analyzed">
		<id>GPSS_Li1p8Co0p8In0p2Cl4_101325_68ed62dd07cf888582f978b0</id>
		<name></name>
		<preparedBy></preparedBy>
	</sample>
	<xrdMeasurement measurementType="Scan" status="Completed" sampleMode="Reflection">
		<usedWavelength intended="K-Alpha 1">
			<kAlpha1 unit="Angstrom">1.5405980</kAlpha1>
			<kAlpha2 unit="Angstrom">1.5444260</kAlpha2>
			<kBeta unit="Angstrom">1.3922500</kBeta>
			<ratioKAlpha2KAlpha1>0.5000</ratioKAlpha2KAlpha1>
		</usedWavelength>
		<incidentBeamPath>
			<radius unit="mm">145.00</radius>
			<xRayTube id="1010048" name="Empyrean Cu LFF HR (9430 033 7310x)">
				<tension unit="kV">40.0</tension>
				<current unit="mA">15.0</current>
				<anodeMaterial>Cu</anodeMaterial>
				<focus type="Line">
					<length unit="mm">12.0</length>
					<width unit="mm">0.4</width>
					<takeOffAngle unit="deg">6.0</takeOffAngle>
				</focus>
			</xRayTube>
			<sollerSlit id="21010002" name="Soller slits 0.04 rad.">
				<opening unit="rad">0.0400</opening>
			</sollerSlit>
			<mask id="22031000" name="Fixed mask 13 mm">
				<width unit="mm">9.00</width>
			</mask>
			<divergenceSlit id="22120001" name="Divergence slit 1°" xsi:type="fixedDivergenceSlitType">
				<distanceToSample unit="mm">50.00</distanceToSample>
				<height unit="mm">1.52</height>
			</divergenceSlit>
		</incidentBeamPath>
		<sampleMovement xsi:type="spinningSampleMovementType">
			<spinnerRevolutionTime unit="seconds">1.0</spinnerRevolutionTime>
		</sampleMovement>
		<diffractedBeamPath>
			<radius unit="mm">145.00</radius>
			<antiScatterSlit id="22090040" name="AS slit 9 mm (PIXcel)" xsi:type="fixedAntiScatterSlitType">
				<height unit="mm">9.00</height>
			</antiScatterSlit>
			<sollerSlit id="21020003" name="Large Soller slits 0.04 rad.">
				<opening unit="rad">0.0400</opening>
			</sollerSlit>
			<filter id="20030001" name="Large beta-filter Nickel">
				<material>Ni</material>
				<thickness unit="mm">0.020</thickness>
			</filter>
			<detector id="7010019" name="PIXcel1D-Medipix3 detector" xsi:type="rtmsDetectorType">
				<phd unit="keV">
					<lowerLevel>4.02</lowerLevel>
					<upperLevel>11.27</upperLevel>
				</phd>
				<mode>Scanning</mode>
				<activeLength unit="deg">5.542</activeLength>
			</detector>
		</diffractedBeamPath>
		<scan appendNumber="0" mode="Continuous" scanAxis="Gonio" status="Completed">
			<header>
				<startTimeStamp>2025-10-17T14:51:12-07:00</startTimeStamp>
				<endTimeStamp>2025-10-17T14:59:19-07:00</endTimeStamp>
				<author>
					<name>AutomatedUser</name>
				</author>
				<source>
					<applicationSoftware version="1.7b (136)">PANalytical Aeris Instrument Suite</applicationSoftware>
					<instrumentControlSoftware version="3.2.00000000 20240306">AERIS</instrumentControlSoftware>
					<instrumentID>950485</instrumentID>
				</source>
			</header>
			<dataPoints>
				<positions axis="2Theta" unit="deg">
					<startPosition>10.00943322</startPosition>
					<endPosition>99.99442286</endPosition>
				</positions>
				<positions axis="Omega" unit="deg">
					<startPosition>5.00471661</startPosition>
					<endPosition>49.99721143</endPosition>
				</positions>
				<commonCountingTime unit="seconds">12.495</commonCountingTime>
				<counts unit="counts">3495 3486 3457 3474 3474 3504 3469 3610 3494 3502 3604 3565 3537 3580 3595 3539 3635 3515 3519 3414 3667 3632 3572 3556 3479 3467 3546 3757 3609 3597 3577 3563 3585 3696 3486 3758 3628 3626 3564 3675 3735 3618 3612 3644 3628 3716 3736 3776 3691 3637 3725 3750 3568 3731 3710 3739 3836 3763 3745 3730 3849 3864 3849 3745 3948 3882 3948 3858 3948 3881 3972 3892 3993 4037 4017 4124 4098 4083 3985 4183 4288 4197 4136 4186 4134 4228 4280 4224 4145 4229 4242 4305 4160 4304 4336 4321 4325 4453 4294 4392 4310 4295 4228 4325 4289 4240 4226 4335 4285 4260 4180 4297 4224 4327 4188 4220 4135 4131 4120 4059 4075 4165 3996 4086 4035 4001 4032 3992 4065 4000 3968 4126 3926 4193 3999 4020 4042 4036 4032 3954 3985 3981 4141 3971 4091 3968 3937 4055 3965 4015 4027 4104 3961 4017 4077 4092 4037 3965 3909 3943 4130 4023 4079 4075 4131 4025 4173 4052 3940 3959 4107 4030 4110 3999 3987 4054 3967 4059 3997 4029 4069 4029 4073 3961 4160 4090 4060 4076 3977 4024 4127 4116 3863 4081 3939 4147 4076 4054 3978 4154 4085 3996 4092 4051 3892 4079 3963 4048 4094 3896 3851 4070 3934 4005 4113 4065 3925 3968 4079 4024 4132 3976 4016 3960 4009 3894 3958 3953 4104 3982 4062 3971 3993 3966 4000 3990 3944 3927 3888 4055 3952 3895 3971 4120 3903 4001 3942 4004 3984 3988 3963 3851 3975 3984 3989 4058 3949 4085 4085 4039 3985 4058 3954 3900 4021 3931 4042 3948 4021 3992 4023 4001 4013 3976 3956 4012 4056 3930 3883 4008 4134 3994 4012 3948 4021 3955 4011 3980 4006 4033 3948 3998 4055 4096 3957 3904 3887 4037 4045 4006 4176 4081 4063 4197 4058 4212 3967 4129 4120 3982 3992 4029 4021 4108 4174 4056 4053 3942 4087 4046 4070 4072 4109 4103 4168 4164 4169 4151 4207 4169 4121 4094 4114 4080 4189 4077 4136 4218 4248 4120 4131 4298 4202 4183 4235 4186 4197 4183 4176 4226 4248 4347 4216 4220 4160 4216 4313 4302 4256 4119 4379 4102 4267 4330 4373 4392 4311 4521 4337 4396 4441 4293 4415 4424 4479 4331 4357 4274 4267 4248 4442 4493 4291 4391 4384 4455 4388 4384 4357 4400 4330 4438 4328 4518 4467 4355 4478 4537 4462 4436 4543 4461 4531 4508 4430 4475 4448 4470 4496 4271 4487 4432 4405 4550 4544 4529 4609 4514 4583 4591 4404 4563 4476 4519 4502 4628 4544 4665 4518 4589 4641 4599 4571 4740 4697 4733 4736 4895 4868 4766 4845 4846 4952 4854 4961 4728 4945 4883 4835 4917 4955 4863 5011 5050 4907 4824 5033 4995 4985 4911 5181 4985 4992 4980 4784 4943 4967 5063 4955 4937 4870 4885 4930 4750 4986 4844 4768 4879 4785 4678 4656 4686 4673 4634 4543 4581 4559 4605 4440 4416 4424 4488 4413 4293 4332 4318 4322 4152 4333 4319 4223 4239 4149 4160 4365 4197 4247 4141 4151 4144 4113 4153 4160 4159 4165 4263 4169 4227 4156 4282 4166 4150 4122 4075 4066 4115 4126 4166 4094 4033 4127 4067 4093 4171 4217 4184 4127 4051 4166 4024 4022 3945 3985 4188 4074 4066 3979 4071 4136 3972 4054 3930 4057 4181 4082 4056 3984 3990 4095 4109 3951 4123 4132 4018 3895 3942 3947 4035 4000 3968 3977 3854 4010 3988 3885 3981 3907 3892 3909 3850 3930 4116 3929 3959 3930 3896 3919 3886 3959 3972 3887 3887 3791 3945 3916 3867 3830 3961 3811 3689 3816 3824 3809 3854 3803 3805 3814 3914 3887 3772 3920 3952 3723 3851 3843 3757 3824 3771 3756 3969 3926 3755 3831 3930 3779 3800 3889 3724 3863 3879 3952 3876 3867 3782 3825 3993 3904 3881 3831 3880 3926 3800 3840 3783 3834 3847 3770 3902 3892 3896 3936 3857 3898 3970 3955 3911 3847 3946 3865 3892 3948 3859 3963 3946 3834 3965 3873 3978 3890 3955 3982 3999 3918 4001 3880 3933 3839 3908 3897 3913 3859 3971 3885 3839 3932 3836 3761 3897 3820 3816 3867 3851 3837 3652 3851 3781 3777 3799 3733 3809 3896 3793 3726 3816 3704 3705 3749 3655 3745 3790 3710 3782 3834 3629 3762 3828 3728 3819 3765 3716 3776 3644 3645 3769 3713 3856 3697 3724 3784 3642 3799 3817 3672 3690 3585 3722 3667 3674 3720 3842 3774 3779 3684 3651 3715 3789 3633 3726 3700 3625 3723 3658 3689 3644 3565 3731 3676 3637 3715 3732 3603 3735 3751 3683 3625 3726 3738 3684 3687 3693 3572 3712 3737 3700 3886 3660 3668 3734 3727 3749 3751 3673 3771 3794 3648 3559 3721 3568 3640 3839 3558 3600 3646 3669 3740 3708 3666 3749 3652 3711 3699 3736 3717 3691 3708 3665 3636 3710 3653 3587 3649 3635 3536 3618 3778 3713 3674 3674 3632 3601 3571 3595 3588 3647 3584 3697 3589 3775 3700 3590 3632 3673 3580 3646 3620 3680 3639 3532 3562 3636 3555 3594 3506 3598 3639 3574 3531 3718 3605 3585 3670 3567 3669 3628 3588 3655 3615 3604 3561 3583 3559 3576 3560 3566 3466 3560 3613 3616 3538 3575 3602 3576 3608 3695 3589 3707 3573 3698 3638 3672 3594 3573 3572 3556 3565 3606 3610 3508 3584 3616 3762 3552 3505 3454 3599 3675 3634 3514 3511 3560 3529 3648 3634 3633 3592 3518 3504 3523 3496 3541 3562 3592 3602 3497 3593 3485 3540 3570 3594 3500 3434 3576 3503 3524 3473 3533 3504 3604 3560 3637 3571 3603 3480 3454 3523 3546 3507 3511 3515 3541 3506 3474 3440 3556 3440 3565 3489 3536 3518 3454 3425 3512 3648 3469 3523 3540 3553 3562 3501 3469 3595 3449 3717 3517 3565 3502 3610 3560 3522 3559 3523 3462 3496 3528 3577 3465 3591 3457 3520 3488 3484 3564 3389 3460 3469 3536 3455 3538 3505 3574 3636 3609 3544 3441 3417 3385 3531 3475 3557 3624 3524 3528 3529 3569 3450 3538 3459 3527 3407 3432 3292 3469 3354 3423 3588 3490 3536 3496 3457 3407 3515 3650 3525 3549 3522 3412 3546 3544 3456 3466 3576 3510 3405 3539 3439 3705 3438 3461 3415 3556 3567 3470 3497 3543 3551 3487 3526 3496 3528 3481 3623 3395 3499 3459 3557 3429 3444 3565 3488 3525 3504 3515 3537 3553 3538 3486 3574 3620 3508 3491 3497 3492 3589 3630 3480 3485 3499 3550 3520 3527 3418 3536 3467 3564 3549 3505 3526 3534 3372 3550 3377 3398 3555 3501 3542 3486 3495 3612 3475 3395 3513 3439 3533 3445 3439 3473 3492 3470 3526 3556 3476 3493 3430 3509 3512 3493 3498 3529 3368 3509 3453 3462 3455 3513 3378 3474 3406 3523 3363 3437 3501 3349 3463 3448 3564 3479 3423 3458 3487 3351 3310 3370 3533 3424 3407 3411 3396 3383 3342 3302 3418 3367 3371 3322 3353 3364 3325 3426 3343 3343 3393 3291 3254 3384 3405 3270 3337 3385 3298 3337 3331 3258 3325 3249 3313 3258 3321 3305 3255 3240 3321 3202 3234 3221 3150 3132 3277 3305 3247 3219 3349 3199 3295 3260 3244 3229 3238 3327 3267 3118 3174 3161 3118 3183 3279 3142 3106 3085 3073 3128 3185 3183 2994 3148 3060 3118 3029 3158 3104 3091 3083 2996 3056 3031 3083 3026 3009 3069 3115 3077 3079 2952 3124 3013 3001 3052 3067 3178 2982 2976 3039 3020 3026 3066 2913 3029 2982 3040 2999 2993 3069 2934 3058 2966 2960 2919 2993 3044 2971 2870 3051 2958 2946 2876 3010 2925 3001 2935 2925 3007 2985 2935 2891 3055 2938 2955 2958 2913 2964 2813 2941 2970 2890 2999 2878 2832 3018 2853 2884 2863 2935 2907 2847 2933 2869 2968 2860 2838 2927 2871 2913 2888 2976 2924 2885 2967 2928 2859 2946 2970 2855 2965 2991 2915 3011 2926 2825 2946 2913 2992 2921 3032 2980 2964 2889 2943 2859 3023 2934 2945 2984 2989 2980 2913 2993 3001 2978 2913 3004 2997 3082 3004 3039 3080 2919 2918 3062 2907 2999 2983 2989 3058 3088 3000 3008 2974 2992 2925 2899 3007 3007 2957 2909 2869 3035 2941 2864 2930 2940 2898 2986 2990 2921 2875 2933 2915 2835 2911 2879 2957 2909 2973 2900 2919 2910 2879 2852 2858 2948 2877 2942 2801 2866 2791 2797 2832 2933 2783 2817 2832 2786 2750 2913 2796 2838 2808 2880 2824 2844 2888 2874 2911 2872 2924 2802 2859 2811 2931 2843 2874 2773 2890 2937 2768 2807 2897 2832 2846 2830 2895 2832 2827 2830 2817 2829 2812 2894 2829 2912 2812 2769 2859 2822 2911 2832 2913 2832 2824 2802 2803 2898 2839 2743 2876 2905 2843 2776 2890 2798 2782 2873 2869 2766 2787 2826 2813 2795 2808 2834 2838 2833 2803 2777 2845 2917 2877 2813 2816 2897 2884 2816 2858 2771 2766 2873 2819 2826 2811 2838 2810 2783 2849 2869 2800 2878 2666 2847 2868 2775 2802 2797 2756 2752 2852 2812 2843 2756 2819 2848 2839 2765 2847 2812 2907 2757 2785 2728 2770 2898 2744 2840 2700 2737 2765 2715 2733 2773 2769 2665 2737 2774 2699 2710 2781 2706 2674 2719 2746 2665 2798 2728 2683 2756 2740 2729 2680 2668 2647 2710 2687 2692 2711 2717 2613 2691 2698 2679 2554 2760 2713 2690 2691 2627 2603 2681 2685 2647 2622 2762 2730 2566 2615 2660 2673 2625 2703 2594 2640 2587 2609 2642 2673 2698 2595 2604 2605 2659 2523 2575 2564 2648 2533 2569 2559 2555 2548 2607 2575 2561 2548 2555 2519 2594 2503 2638 2577 2517 2501 2508 2586 2600 2560 2554 2621 2515 2519 2536 2444 2531 2598 2543 2534 2417 2438 2487 2585 2573 2475 2504 2533 2511 2603 2595 2512 2458 2468 2591 2478 2420 2413 2504 2440 2430 2471 2476 2546 2356 2504 2480 2497 2470 2543 2479 2464 2523 2469 2421 2515 2539 2435 2340 2485 2323 2481 2396 2321 2381 2463 2405 2501 2408 2329 2306 2382 2396 2518 2388 2354 2442 2362 2514 2367 2435 2444 2396 2371 2461 2379 2395 2260 2499 2407 2491 2455 2419 2327 2417 2479 2441 2377 2410 2306 2525 2411 2432 2507 2334 2384 2385 2474 2412 2451 2457 2455 2509 2446 2335 2495 2527 2519 2437 2377 2377 2439 2481 2457 2457 2400 2447 2504 2417 2463 2464 2533 2462 2526 2576 2603 2585 2600 2553 2645 2602 2663 2678 2595 2559 2567 2654 2446 2498 2645 2579 2600 2562 2622 2515 2516 2471 2584 2564 2594 2538 2492 2574 2649 2443 2578 2604 2480 2521 2488 2407 2529 2434 2503 2505 2341 2413 2423 2405 2410 2324 2380 2263 2266 2444 2378 2283 2316 2265 2236 2371 2312 2357 2290 2295 2234 2230 2326 2306 2288 2252 2150 2216 2199 2155 2219 2282 2262 2213 2212 2241 2125 2228 2277 2239 2354 2239 2231 2223 2278 2222 2335 2288 2222 2323 2269 2198 2261 2309 2227 2356 2303 2376 2331 2443 2357 2434 2327 2474 2438 2576 2536 2477 2468 2531 2500 2574 2542 2564 2529 2508 2683 2587 2627 2639 2526 2693 2686 2563 2649 2763 2763 2753 2724 2660 2785 2764 2729 2679 2676 2675 2717 2690 2675 2638 2623 2716 2523 2614 2632 2534 2492 2410 2508 2549 2431 2427 2358 2389 2398 2399 2401 2299 2419 2289 2337 2371 2312 2380 2349 2279 2255 2189 2160 2273 2316 2245 2239 2255 2152 2245 2205 2132 2151 2233 2138 2143 2124 2072 2168 2094 2150 2159 2086 2203 2181 2096 2130 2115 2174 2084 2168 2136 2161 2111 2112 2139 2087 2139 2130 2135 2102 2153 2012 2152 2062 2078 2214 2072 2063 2090 2143 2056 2081 2078 2131 2071 2112 2061 2028 2087 2159 2162 2051 2109 2030 2027 2083 2117 2006 2056 2106 2064 1978 2127 2095 2013 2127 2045 2038 2065 2020 2003 2125 2060 2064 2106 1991 2063 2108 2088 2053 2021 2068 2051 2031 1997 1958 2022 2026 2042 1979 2066 2016 2107 2034 2004 2049 1980 2047 2058 1999 2128 2114 1986 1994 2000 2040 2093 2011 1946 2001 2064 2000 1946 2109 1977 2092 2023 1985 2023 2056 1986 2048 2049 2092 2115 2072 2022 1951 2000 2040 2018 1988 2038 2026 2082 1901 2064 1987 1989 2017 2026 1968 2049 2091 1999 2039 2067 2109 1997 2042 2027 2113 2019 2030 2043 2065 2037 1992 1965 2028 2043 1984 2010 1987 2072 2156 2065 1992 1971 2150 2036 2098 2106 2126 2117 2159 2088 2166 2028 2137 2080 2175 2100 2108 2193 2212 2123 2240 2202 2176 2188 2131 2168 2186 2085 2119 2123 2207 2156 2154 2203 2208 2142 2138 2051 2123 2134 2231 2068 2079 2151 2137 2107 2110 2096 2047 2070 2042 2032 2087 2074 1981 2153 2079 2089 2090 1960 2075 2071 2015 2061 2058 2052 2045 1944 1976 2049 2008 2071 2091 2042 2036 2035 2081 1934 2074 1978 2002 2068 2022 2056 2066 2120 2035 2086 2083 2042 1953 1992 2049 2034 2033 2039 1873 2100 2118 2031 1926 2050 2105 2061 2096 2008 2060 1994 1997 2101 2023 2053 2018 2040 2003 2058 2024 2141 2044 1987 2059 2093 2034 2015 1946 1957 1973 2007 1989 1999 1879 2054 2035 2005 2140 1945 1988 1968 1967 1991 1980 2035 1959 2008 2011 2058 1994 2032 2040 1984 1963 1940 2027 2005 2086 2065 1942 2022 2027 2040 2120 2091 2009 1921 2053 2079 2054 2047 2087 2031 2050 2101 1967 2152 2175 2114 2161 2056 2144 2189 2200 2196 2251 2202 2253 2219 2276 2303 2339 2499 2522 2510 2469 2569 2582 2637 2696 2791 2810 2808 2847 2877 2951 2927 3036 3025 3090 3178 3061 3112 3149 3199 3199 3322 3341 3289 3337 3410 3419 3485 3490 3599 3521 3527 3548 3537 3545 3573 3565 3526 3501 3483 3418 3210 3378 3299 3315 3254 3225 3279 3192 3371 3273 3158 3125 2982 3082 2882 2923 2897 2918 2791 2655 2785 2677 2720 2437 2548 2415 2392 2271 2276 2286 2266 2145 2154 2299 2083 2129 2157 2135 2119 2045 2037 2050 2009 2039 1933 2019 1974 2009 1991 1984 1985 1956 1927 1888 1929 1881 1896 1978 1902 1902 1931 1910 1908 2038 1916 1993 1889 1894 1965 1906 1859 1892 1865 1935 1888 1837 1936 1960 2033 1863 1967 1829 1868 1950 1939 1918 1929 1888 1917 1790 1867 1881 1944 1993 1908 1933 1898 1870 2025 1936 1872 1908 1867 1925 1857 1867 1865 1833 1847 1858 1884 1879 1839 1813 1824 1878 1825 1851 1832 1854 1769 1772 1854 1886 1848 1866 1944 1819 1859 1854 1844 1812 1797 1862 1938 1823 1843 1909 1831 1904 1886 1845 1848 1768 1791 1896 1892 1826 1804 1795 1840 1825 1798 1873 1851 1865 1818 1798 1912 1781 1818 1727 1824 1790 1862 1783 1862 1869 1809 1844 1865 1853 1809 1818 1834 1823 1827 1791 1849 1836 1870 1798 1811 1706 1896 1809 1820 1770 1745 1778 1804 1736 1768 1824 1792 1834 1827 1754 1768 1813 1755 1807 1833 1856 1801 1736 1777 1823 1756 1818 1812 1855 1741 1817 1906 1761 1870 1868 1794 1705 1748 1696 1872 1756 1839 1744 1845 1805 1834 1808 1856 1783 1823 1799 1822 1811 1811 1795 1896 1813 1760 1734 1759 1825 1766 1820 1791 1803 1869 1812 1773 1805 1780 1722 1724 1809 1849 1779 1792 1731 1745 1742 1785 1738 1777 1795 1747 1739 1795 1722 1670 1803 1773 1827 1859 1850 1857 1861 1863 1851 1838 1812 1825 1832 1848 1885 1808 1837 1757 1854 1743 1897 1786 1784 1876 1776 1863 1797 1810 1867 1878 1852 1834 1865 1882 1882 1822 1835 1830 1799 1857 1756 1769 1799 1809 1812 1844 1738 1787 1815 1747 1787 1769 1787 1759 1760 1772 1818 1813 1781 1781 1721 1824 1787 1831 1772 1779 1786 1828 1800 1776 1788 1807 1748 1768 1813 1741 1798 1713 1727 1742 1773 1795 1719 1774 1758 1748 1714 1735 1684 1763 1717 1818 1811 1750 1811 1754 1756 1746 1788 1735 1797 1736 1807 1717 1744 1777 1842 1714 1827 1781 1812 1788 1847 1936 1765 1853 1805 1805 1788 1796 1851 1748 1793 1822 1846 1829 1880 1809 1738 1841 1794 1908 1800 1758 1814 1818 1801 1754 1710 1780 1786 1777 1802 1767 1787 1763 1814 1668 1786 1719 1745 1673 1793 1766 1710 1612 1789 1682 1693 1723 1787 1731 1793 1759 1762 1718 1765 1780 1767 1790 1758 1748 1679 1807 1706 1774 1712 1701 1696 1710 1716 1760 1711 1683 1734 1667 1699 1768 1757 1781 1795 1822 1712 1690 1793 1756 1725 1697 1693 1721 1670 1714 1748 1792 1713 1676 1769 1727 1671 1743 1699 1692 1689 1725 1639 1723 1744 1643 1716 1691 1721 1722 1666 1713 1715 1722 1729 1707 1704 1742 1664 1702 1783 1767 1710 1761 1792 1712 1679 1711 1686 1721 1662 1720 1813 1809 1668 1787 1713 1685 1730 1720 1731 1724 1697 1764 1731 1623 1706 1729 1684 1638 1698 1754 1749 1681 1699 1677 1678 1682 1740 1669 1605 1654 1674 1723 1613 1696 1682 1670 1646 1729 1646 1775 1737 1695 1670 1747 1678 1658 1713 1724 1704 1626 1698 1741 1748 1775 1728 1751 1738 1662 1739 1718 1668 1751 1713 1699 1650 1677 1695 1691 1708 1688 1803 1690 1684 1753 1682 1713 1694 1741 1694 1730 1742 1686 1654 1739 1715 1744 1744 1687 1731 1665 1676 1665 1607 1664 1653 1697 1752 1716 1680 1696 1657 1741 1754 1671 1718 1701 1672 1674 1702 1650 1712 1716 1645 1693 1707 1712 1633 1671 1675 1667 1649 1751 1664 1699 1739 1683 1703 1688 1628 1649 1729 1610 1628 1710 1667 1773 1707 1697 1633 1673 1729 1642 1670 1633 1733 1694 1649 1670 1612 1689 1679 1634 1641 1729 1687 1665 1685 1756 1725 1615 1559 1677 1680 1660 1693 1693 1664 1656 1701 1623 1727 1631 1678 1538 1712 1616 1587 1608 1667 1576 1691 1652 1667 1684 1695 1732 1688 1690 1647 1654 1697 1644 1683 1711 1682 1676 1683 1686 1700 1665 1670 1764 1727 1682 1708 1695 1672 1704 1739 1662 1705 1723 1662 1704 1669 1736 1703 1671 1697 1799 1725 1686 1692 1693 1643 1695 1724 1695 1782 1692 1671 1801 1702 1725 1678 1633 1736 1668 1748 1693 1688 1642 1630 1672 1718 1713 1612 1710 1649 1661 1673 1667 1661 1665 1653 1720 1674 1685 1670 1662 1674 1596 1592 1617 1615 1627 1662 1641 1640 1598 1750 1662 1669 1576 1740 1569 1646 1605 1616 1675 1651 1611 1652 1619 1603 1619 1604 1613 1655 1742 1560 1687 1662 1642 1637 1706 1706 1682 1607 1542 1604 1662 1645 1730 1624 1685 1625 1618 1652 1645 1572 1640 1637 1659 1633 1667 1739 1673 1689 1638 1631 1677 1624 1651 1634 1604 1578 1626 1651 1629 1560 1631 1716 1717 1627 1588 1667 1587 1708 1635 1669 1710 1664 1680 1668 1697 1632 1655 1653 1632 1704 1706 1646 1663 1623 1668 1590 1713 1577 1630 1695 1712 1623 1720 1744 1635 1645 1701 1700 1597 1723 1634 1627 1658 1595 1670 1730 1664 1631 1581 1667 1635 1619 1576 1643 1663 1647 1683 1610 1579 1666 1599 1645 1655 1657 1719 1642 1634 1642 1656 1673 1704 1681 1632 1689 1612 1642 1596 1622 1664 1571 1655 1623 1683 1616 1642 1594 1624 1623 1616 1666 1601 1654 1538 1609 1573 1588 1664 1551 1535 1672 1552 1583 1644 1607 1678 1632 1656 1613 1605 1657 1675 1615 1661 1603 1647 1695 1602 1677 1616 1694 1616 1720 1649 1682 1650 1765 1768 1740 1714 1786 1747 1674 1709 1793 1685 1695 1724 1720 1718 1680 1709 1654 1686 1749 1775 1792 1811 1764 1738 1737 1693 1748 1744 1703 1715 1759 1741 1761 1740 1800 1751 1708 1799 1732 1806 1719 1750 1744 1742 1678 1747 1744 1778 1767 1708 1748 1748 1750 1681 1733 1704 1670 1708 1707 1670 1666 1643 1673 1675 1647 1684 1626 1648 1629 1571 1543 1561 1624 1633 1682 1563 1656 1552 1573 1554 1582 1648 1600 1643 1637 1598 1634 1706 1624 1596 1608 1646 1618 1601 1567 1645 1617 1619 1606 1600 1587 1612 1599 1627 1582 1516 1623 1588 1646 1599 1542 1605 1543 1553 1554 1647 1621 1662 1547 1567 1599 1611 1622 1653 1586 1608 1580 1588 1558 1552 1589 1553 1628 1523 1649 1584 1648 1610 1627 1559 1590 1637 1674 1567 1621 1575 1616 1478 1508 1632 1564 1645 1595 1553 1541 1641 1593 1602 1611 1632 1575 1565 1634 1574 1515 1587 1612 1578 1624 1611 1546 1562 1552 1611 1550 1640 1516 1617 1568 1626 1589 1582 1617 1585 1589 1504 1522 1511 1626 1638 1571 1544 1580 1607 1586 1558 1626 1558 1601 1657 1534 1511 1643 1608 1616 1607 1654 1611 1627 1628 1488 1503 1503 1529 1610 1483 1609 1572 1543 1630 1610 1546 1575 1609 1559 1577 1629 1553 1631 1563 1583 1595 1600 1560 1557 1607 1514 1489 1565 1589 1481 1526 1667 1566 1565 1667 1579 1603 1578 1555 1510 1579 1539 1621 1610 1567 1605 1599 1585 1549 1613 1527 1541 1521 1545 1628 1446 1531 1589 1579 1577 1592 1568 1593 1571 1581 1656 1586 1571 1581 1500 1560 1608 1629 1544 1577 1648 1580 1481 1584 1655 1514 1616 1563 1583 1574 1546 1569 1556 1573 1517 1553 1603 1552 1502 1559 1580 1657 1516 1589 1588 1547 1547 1592 1525 1605 1627 1564 1575 1527 1544 1523 1568 1597 1576 1536 1550 1574 1607 1556 1552 1536 1605 1578 1588 1594 1559 1566 1555 1583 1584 1528 1602 1526 1563 1532 1623 1636 1533 1589 1647 1533 1572 1540 1532 1564 1604 1593 1555 1586 1615 1514 1580 1602 1605 1538 1544 1601 1665 1555 1584 1613 1556 1640 1639 1564 1606 1652 1536 1572 1588 1619 1611 1631 1687 1717 1709 1636 1597 1705 1730 1686 1642 1693 1682 1626 1679 1677 1726 1742 1709 1812 1742 1831 1732 1776 1834 1958 1908 2029 1909 1979 1968 2076 2085 2099 2162 2147 2175 2225 2151 2162 2210 2150 2231 2210 2397 2315 2378 2348 2270 2311 2284 2293 2261 2378 2326 2278 2336 2190 2164 2056 2097 2133 2150 2100 2165 2009 2023 1960 1921 1938 1891 1938 1902 1877 1877 1850 1902 1900 1861 1866 1770 1857 1813 1823 1749 1759 1715 1765 1739 1750 1686 1685 1760 1803 1732 1736 1733 1703 1717 1839 1779 1748 1675 1712 1657 1711 1670 1725 1666 1570 1678 1692 1612 1651 1630 1551 1602 1611 1604 1629 1600 1628 1568 1595 1608 1579 1562 1539 1513 1604 1582 1672 1524 1595 1548 1560 1462 1580 1533 1466 1498 1571 1605 1545 1522 1521 1553 1547 1530 1559 1496 1634 1564 1579 1505 1533 1571 1504 1502 1578 1497 1557 1539 1552 1533 1572 1525 1470 1572 1531 1594 1482 1468 1500 1490 1560 1531 1569 1501 1538 1483 1616 1549 1587 1527 1603 1610 1495 1556 1548 1610 1524 1491 1519 1537 1554 1565 1474 1527 1562 1494 1514 1527 1576 1486 1509 1459 1544 1494 1532 1558 1561 1529 1511 1502 1483 1528 1548 1541 1636 1585 1591 1553 1501 1516 1470 1526 1532 1489 1578 1510 1509 1546 1497 1556 1535 1538 1585 1532 1512 1469 1561 1560 1532 1506 1556 1569 1605 1650 1521 1519 1487 1588 1588 1621 1526 1511 1528 1607 1524 1603 1586 1565 1613 1495 1639 1557 1626 1647 1652 1570 1643 1581 1581 1574 1611 1666 1623 1536 1601 1628 1605 1625 1588 1631 1600 1626 1599 1562 1665 1590 1576 1634 1549 1594 1586 1500 1647 1576 1575 1624 1563 1560 1616 1609 1617 1548 1581 1531 1564 1595 1555 1653 1603 1564 1612 1540 1598 1593 1607 1560 1530 1511 1567 1571 1610 1600 1612 1551 1510 1552 1586 1599 1613 1484 1516 1555 1590 1498 1545 1595 1510 1436 1620 1527 1507 1450 1566 1447 1456 1496 1504 1424 1540 1469 1571 1550 1601 1567 1528 1519 1535 1490 1525 1481 1446 1493 1494 1520 1511 1477 1476 1467 1467 1493 1429 1510 1537 1489 1546 1488 1491 1466 1497 1540 1430 1509 1479 1549 1529 1488 1476 1536 1467 1536 1493 1499 1470 1546 1464 1468 1492 1488 1576 1536 1518 1448 1549 1557 1440 1499 1490 1461 1514 1474 1531 1481 1494 1546 1492 1474 1445 1456 1473 1508 1467 1538 1433 1573 1421 1473 1499 1508 1533 1557 1488 1497 1557 1439 1400 1477 1453 1509 1486 1528 1424 1542 1467 1439 1445 1490 1434 1466 1456 1453 1493 1469 1443 1423 1498 1445 1458 1438 1465 1444 1538 1480 1429 1538 1512 1486 1508 1458 1441 1503 1456 1441 1468 1454 1408 1498 1468 1520 1468 1489 1456 1382 1460 1433 1463 1519 1383 1449 1498 1396 1542 1418 1464 1490 1486 1515 1454 1481 1476 1453 1530 1518 1457 1487 1473 1454 1431 1469 1485 1470 1452 1454 1465 1513 1498 1442 1477 1482 1477 1458 1506 1395 1521 1513 1541 1467 1487 1519 1493 1441 1469 1490 1433 1461 1487 1398 1475 1528 1462 1420 1396 1483 1461 1447 1425 1501 1460 1506 1453 1413 1472 1485 1502 1468 1457 1551 1431 1434 1439 1507 1444 1452 1444 1455 1463 1496 1416 1508 1441 1456 1456 1455 1498 1456 1423 1499 1390 1481 1477 1498 1448 1451 1481 1464 1425 1445 1427 1440 1462 1430 1465 1458 1444 1514 1459 1437 1501 1398 1453 1385 1374 1460 1445 1464 1421 1467 1441 1464 1458 1400 1449 1394 1431 1457 1453 1482 1480 1468 1498 1418 1477 1437 1478 1451 1490 1502 1529 1496 1477 1497 1500 1440 1477 1545 1438 1469 1467 1458 1459 1447 1536 1431 1452 1496 1456 1435 1516 1501 1480 1490 1477 1520 1514 1440 1382 1511 1460 1433 1487 1471 1517 1447 1547 1469 1449 1393 1477 1472 1414 1500 1428 1489 1479 1407 1399 1460 1514 1401 1485 1434 1399 1435 1509 1594 1493 1410 1444 1457 1479 1448 1413 1422 1367 1405 1483 1491 1447 1488 1511 1443 1452 1468 1360 1563 1466 1463 1434 1443 1419 1429 1452 1432 1408 1484 1437 1408 1447 1417 1400 1418 1488 1416 1444 1483 1497 1438 1505 1479 1404 1435 1449 1450 1480 1450 1509 1427 1397 1443 1374 1515 1396 1443 1373 1428 1453 1392 1366 1401 1410 1464 1411 1434 1432 1421 1380 1444 1417 1426 1479 1408 1490 1462 1395 1418 1427 1404 1470 1438 1425 1485 1392 1479 1432 1390 1406 1467 1469 1442 1476 1401 1396 1493 1442 1484 1461 1455 1413 1454 1445 1483 1397 1528 1450 1479 1464 1457 1407 1428 1401 1378 1408 1490 1425 1477 1460 1431 1456 1387 1430 1434 1471 1479 1446 1437 1519 1485 1463 1355 1467 1448 1501 1473 1484 1426 1435 1398 1470 1476 1469 1408 1452 1444 1448 1503 1436 1416 1536 1455 1470 1404 1433 1450 1393 1385 1481 1369 1427 1428 1491 1461 1384 1464 1446 1507 1462 1391 1395 1427 1402 1424 1517 1526 1459 1441 1512 1492 1493 1492 1522 1486 1444 1458 1465 1424 1443 1464 1454 1482 1437 1469 1496 1575 1490 1488 1408 1517 1447 1539 1479 1427 1522 1533 1492 1499 1529 1533 1494 1520 1508 1463 1453 1396 1516 1575 1498 1514 1501 1451 1507 1469 1533 1510 1544 1453 1500 1502 1480 1574 1567 1495 1494 1514 1490 1510 1480 1501 1461 1470 1480 1509 1512 1494 1473 1516 1473 1477 1507 1455 1436 1503 1495 1528 1433 1493 1468 1472 1441 1504 1465 1475 1447 1432 1442 1500 1449 1451 1375 1478 1542 1479 1435 1395 1458 1468 1437 1441 1506 1438 1413 1445 1442 1461 1530 1397 1525 1425 1413 1424 1512 1382 1450 1473 1398 1462 1485 1405 1439 1439 1464 1368 1391 1493 1460 1406 1422 1479 1450 1401 1450 1450 1436 1408 1404 1410 1484 1416 1344 1422 1379 1350 1420 1348 1406 1454 1470 1386 1477 1415 1390 1398 1407 1447 1475 1422 1444 1432 1406 1399 1339 1389 1391 1401 1443 1424 1419 1443 1370 1360 1421 1433 1330 1416 1402 1402 1442 1398 1379 1410 1384 1382 1420 1374 1363 1383 1431 1464 1446 1444 1389 1401 1423 1355 1389 1436 1403 1423 1396 1446 1394 1437 1447 1403 1497 1431 1389 1415 1519 1467 1390 1479 1376 1477 1406 1446 1392 1456 1366 1497 1432 1417 1420 1414 1407 1431 1416 1430 1404 1397 1438 1465 1430 1399 1381 1370 1405 1433 1366 1387 1465 1468 1485 1397 1350 1453 1482 1391 1377 1450 1437 1400 1396 1420 1360 1399 1407 1446 1412 1383 1408 1426 1455 1406 1435 1372 1457 1513 1424 1376 1471 1417 1448 1372 1485 1430 1454 1398 1417 1461 1392 1385 1431 1424 1459 1461 1508 1421 1419 1440 1457 1449 1474 1517 1466 1497 1465 1590 1498 1541 1497 1544 1532 1493 1509 1548 1486 1459 1500 1521 1561 1489 1554 1614 1483 1522 1576 1449 1461 1545 1541 1557 1544 1524 1635 1560 1543 1530 1519 1484 1499 1524 1536 1546 1454 1559 1480 1566 1480 1593 1484 1554 1582 1537 1532 1481 1535 1483 1536 1481 1555 1469 1545 1580 1495 1556 1463 1516 1525 1498 1521 1446 1537 1449 1508 1465 1400 1441 1446 1422 1501 1409 1432 1424 1567 1424 1441 1484 1416 1409 1396 1470 1379 1417 1373 1366 1383 1362 1354 1362 1394 1478 1338 1393 1327 1411 1332 1330 1375 1363 1413 1445 1398 1413 1488 1397 1364 1366 1417 1375 1390 1345 1348 1399 1379 1353 1438 1382 1336 1423 1383 1418 1352 1352 1347 1349 1467 1387 1376 1326 1337 1396 1309 1325 1402 1398 1415 1405 1404 1391 1411 1313 1333 1376 1309 1375 1367 1399 1407 1452 1378 1458 1438 1364 1386 1430 1369 1372 1365 1383 1391 1380 1379 1401 1319 1459 1334 1316 1403 1387 1395 1432 1400 1387 1362 1446 1360 1388 1445 1414 1396 1370 1328 1398 1335 1377 1375 1359 1359 1428 1399 1471 1365 1428 1359 1400 1370 1419 1425 1438 1401 1465 1442 1473 1452 1425 1490 1441 1479 1438 1432 1430 1421 1451 1395 1444 1474 1445 1461 1442 1505 1412 1448 1442 1412 1438 1423 1396 1354 1527 1472 1423 1411 1403 1496 1401 1415 1395 1414 1407 1448 1440 1416 1449 1407 1375 1417 1382 1390 1350 1356 1363 1367 1409 1348 1430 1376 1410 1373 1433 1415 1368 1438 1398 1317 1434 1341 1360 1425 1398 1332 1389 1440 1377 1362 1400 1386 1407 1445 1375 1400 1380 1341 1338 1371 1377 1375 1404 1387 1359 1318 1418 1372 1409 1399 1362 1414 1379 1373 1334 1359 1413 1335 1334 1370 1358 1397 1352 1332 1371 1395 1379 1358 1363 1319 1344 1368 1340 1368 1389 1361 1288 1341 1389 1359 1336 1376 1320 1391 1391 1399 1343 1332 1361 1369 1325 1336 1355 1374 1354 1342 1427 1384 1412 1290 1339 1427 1368 1408 1431 1359 1421 1343 1331 1339 1414 1359 1335 1328 1381 1393 1271 1372 1354 1344 1359 1357 1348 1317 1303 1315 1363 1368 1408 1371 1414 1359 1326 1281 1350 1353 1348 1292 1290 1342 1400 1395 1361 1414 1382 1323 1381 1376 1362 1335 1390 1339 1397 1345 1318 1341 1419 1418 1372 1344 1324 1330 1348 1261 1355 1354 1331 1376 1330 1362 1289 1346 1291 1298 1373 1365 1399 1400 1343 1349 1320 1397 1309 1367 1355 1287 1306 1326 1359 1278 1360 1333 1386 1328 1394 1229 1350 1365 1307 1363 1356 1314 1293 1261 1355 1319 1378 1295 1364 1346 1328 1301 1377 1336 1309 1380 1326 1319 1353 1431 1349 1349 1340 1356 1322 1325 1321 1384 1346 1378 1350 1345 1288 1356 1339 1347 1350 1349 1363 1324 1392 1310 1371 1343 1361 1270 1339 1274 1335 1305 1335 1334 1305 1344 1380 1347 1328 1289 1331 1326 1415 1358 1412 1358 1315 1408 1282 1307 1354 1295 1332 1299 1364 1294 1308 1280 1411 1336 1400 1365 1301 1305 1311 1333 1367 1353 1376 1355 1278 1370 1328 1329 1426 1370 1408 1359 1373 1366 1352 1304 1402 1432 1395 1322 1287 1353 1396 1387 1349 1293 1360 1326 1353 1370 1347 1419 1419 1418 1299 1342 1343 1277 1321 1355 1304 1369 1384 1422 1319 1312 1292 1317 1371 1401 1315 1361 1323 1357 1338 1337 1380 1298 1377 1338 1390 1333 1333 1418 1344 1374 1309 1305 1346 1340 1345 1340 1333 1328 1289 1372 1282 1383 1270 1326 1340 1364 1315 1360 1354 1367 1333 1349 1378 1394 1310 1304 1330 1309 1400 1347 1337 1384 1337 1328 1383 1356 1316 1332 1404 1308 1329 1325 1344 1351 1336 1360 1301 1292 1332 1331 1377 1295 1344 1380 1330 1304 1369 1432 1394 1328 1344 1342 1290 1321 1297 1323 1341 1348 1296 1327 1277 1292 1350 1369 1346 1364 1329 1305 1345 1307 1372 1281 1300 1349 1358 1308 1336 1353 1340 1306 1260 1316 1365 1342 1265 1309 1277 1280 1299 1306 1330 1337 1366 1348 1365 1306 1332 1335 1324 1330 1331 1296 1319 1301 1405 1304 1318 1373 1398 1315 1305 1319 1357 1349 1349 1292 1376 1311 1338 1334 1364 1386 1407 1285 1252 1375 1330 1286 1369 1365 1369 1285 1344 1340 1416 1355 1293 1368 1376 1294 1359 1365 1335 1310 1375 1242 1345 1307 1319 1326 1350 1404 1358 1334 1359 1281 1418 1287 1345 1285 1303 1414 1318 1338 1341 1311 1358 1299 1264 1332 1261 1374 1307 1329 1286 1372 1374 1297 1270 1340 1434 1311 1336 1337 1399 1326 1317 1383 1312 1388 1361 1331 1301 1294 1297 1310 1381 1339 1344 1345 1312 1270 1309 1330 1306 1291 1307 1385 1353 1389 1324 1357 1349 1365 1312 1350 1311 1304 1322 1311 1350 1310 1311 1281 1329 1238 1315 1349 1327 1278 1339 1316 1313 1416 1306 1412 1365 1315 1242 1321 1304 1292 1325 1353 1369 1286 1402 1358 1300 1292 1364 1299 1303 1288 1341 1278 1317 1342 1281 1271 1335 1393 1305 1294 1281 1341 1285 1345 1303 1292 1275 1263 1250 1248 1327 1336 1320 1334 1350 1284 1328 1410 1316 1321 1246 1336 1370 1293 1308 1274 1223 1379 1291 1262 1311 1249 1287 1319 1390 1292 1294 1319 1272 1322 1308 1324 1334 1362 1285 1322 1339 1358 1306 1357 1358 1350 1283 1264 1354 1316 1366 1394 1335 1288 1311 1263 1358 1312 1337 1324 1281 1381 1205 1381 1384 1284 1356 1307 1374 1279 1351 1364 1299 1359 1288 1282 1265 1329 1276 1297 1335 1335 1278 1272 1275 1271 1376 1344 1321 1328 1369 1321 1290 1359 1333 1278 1341 1381 1313 1326 1328 1316 1318 1333 1299 1308 1351 1294 1346 1307 1331 1396 1318 1282 1258 1266 1383 1303 1363 1344 1305 1323 1326 1318 1343 1404 1399 1346 1310 1433 1332 1305 1311 1368 1273 1372 1325 1409 1371 1328 1390 1445 1338 1306 1262 1418 1383 1424 1417 1329 1351 1375 1298 1288 1296 1382 1374 1331 1346 1346 1347 1351 1364 1354 1342 1390 1366 1390 1334 1332 1355 1347 1355 1323 1332 1323 1340 1358 1295 1377 1408 1377 1279 1270 1292 1310 1377 1305 1283 1301 1370 1335 1340 1357 1316 1369 1387 1318 1391 1380 1371 1374 1330 1315 1366 1406 1314 1469 1330 1343 1393 1391 1370 1379 1355 1347 1302 1367 1350 1400 1338 1377 1328 1271 1251 1341 1347 1368 1347 1371 1342 1390 1305 1356 1336 1309 1311 1267 1323 1286 1369 1347 1335 1305 1344 1348 1328 1289 1347 1349 1335 1287 1302 1335 1281 1272 1293 1303 1329 1284 1239 1270 1292 1305 1328 1332 1303 1245 1313 1343 1283 1338 1276 1284 1269 1306 1313 1363 1367 1297 1324 1325 1333 1322 1324 1389 1291 1309 1310 1320 1332 1304 1300 1278 1332 1298 1335 1314 1288 1269 1330 1260 1379 1269 1232 1270 1307 1282 1177 1316 1300 1336 1329 1313 1305 1251 1286 1308 1296 1270 1218 1278 1259 1302 1362 1271 1298 1345 1275 1336 1264 1292 1298 1295 1319 1313 1334 1285 1332 1360 1321 1377 1275 1326 1234 1363 1284 1319 1338 1262 1361 1272 1304 1321 1327 1283 1287 1327 1289 1347 1330 1303 1266 1261 1349 1294 1295 1256 1275 1331 1310 1359 1340 1353 1294 1337 1242 1327 1241 1310 1300 1306 1293 1375 1321 1304 1342 1314 1306 1197 1302 1336 1262 1268 1314 1261 1338 1303 1334 1279 1342 1290 1298 1343 1333 1238 1284 1295 1343 1292 1292 1304 1270 1357 1305 1298 1319 1347 1291 1343 1319 1325 1351 1363 1296 1260 1301 1329 1302 1297 1337 1266 1329 1293 1278 1261 1311 1311 1291 1320 1282 1322 1315 1327 1303 1331 1237 1350 1356 1305 1281 1323 1307 1347 1333 1365 1345 1354 1328 1331 1253 1278 1358 1260 1253 1271 1284 1317 1280 1348 1222 1259 1307 1287 1333 1360 1291 1340 1286 1291 1242 1347 1344 1355 1329 1343 1312 1296 1275 1259 1315 1315 1298 1336 1215 1296 1265 1302 1393 1334 1283 1318 1264 1319 1319 1302 1200 1293 1343 1325 1261 1340 1318 1331 1298 1327 1331 1294 1299 1370 1343 1343 1289 1274 1277 1303 1261 1282 1355 1308 1296 1262 1257 1263 1289 1306 1315 1317 1258 1333 1301 1326 1313 1290 1338 1340 1366 1263 1318 1312 1333 1338 1248 1275 1266 1258 1318 1214 1338 1329 1313 1317 1313 1340 1280 1258 1267 1315 1274 1326 1249 1293 1312 1292 1248 1331 1349 1291 1326 1275 1234 1224 1241 1294 1288 1319 1276 1324 1292 1308 1359 1289 1238 1308 1328 1293 1328 1280 1368 1290 1328 1274 1301 1303 1277 1277 1269 1274 1306 1292 1332 1271 1329 1360 1329 1222 1314 1295 1311 1304 1263 1319 1262 1273 1297 1307 1285 1271 1296 1375 1276 1347 1342 1310 1252 1312 1300 1293 1324 1301 1252 1322 1326 1256 1292 1264 1240 1313 1268 1307 1272 1286 1286 1288 1331 1281 1300 1334 1278 1256 1259 1294 1302 1320 1259 1258 1321 1269 1305 1366 1271 1262 1251 1280 1307 1245 1294 1307 1318 1291 1314 1260 1305 1311 1318 1360 1298 1220 1274 1347 1365 1311 1320 1317 1268 1260 1306 1322 1320 1274 1302 1361 1292 1300 1283 1297 1307 1283 1355 1330 1270 1273 1309 1296 1298 1352 1308 1299 1284 1297 1289 1356 1297 1327 1290 1254 1276 1333 1278 1293 1315 1307 1305 1331 1244 1280 1344 1235 1328 1325 1332 1295 1278 1343 1287 1251 1341 1296 1308 1306 1368 1319 1293 1290 1298 1300 1328 1329 1262 1325 1284 1306 1358 1289 1295 1252 1318 1319 1321 1352 1266 1367 1232 1251 1290 1294 1239 1251 1352 1266 1276 1354 1338 1328 1252 1264 1286 1324 1329 1311 1272 1376 1260 1322 1313 1277 1313 1242 1264 1317 1320 1283 1247 1310 1302 1274 1274 1282 1239 1311 1315 1310 1284 1294 1344 1299 1322 1304 1286 1313 1267 1314 1346 1288 1327 1366 1329 1353 1299 1330 1313 1327 1225 1316 1215 1368 1329 1266 1299 1291 1347 1304 1324 1269 1300 1374 1414 1275 1271 1320 1381 1306 1342 1297 1304 1325 1304 1292 1305 1248 1304 1329 1314 1338 1300 1275 1304 1317 1294 1329 1261 1324 1300 1342 1273 1296 1292 1283 1306 1287 1356 1310 1355 1309 1320 1312 1345 1291 1361 1325 1279 1355 1239 1295 1305 1290 1397 1336 1313 1284 1323 1315 1279 1401 1336 1296 1282 1382 1352 1356 1343 1368 1323 1386 1317 1371 1325 1322 1325 1379 1345 1258 1303 1303 1309 1353 1271 1334 1378 1332 1314 1316 1259 1312 1290 1273 1298 1274 1303 1276 1353 1295 1359 1299 1273 1293 1258 1293 1335 1306 1283 1338 1351 1316 1235 1261 1332 1261 1320 1333 1274 1320 1326 1307 1295 1272 1321 1323 1333 1294 1284 1311 1401 1268 1318 1350 1302 1293 1290 1324 1290 1250 1281 1297 1291 1307 1314 1287 1313 1345 1413 1352 1299 1289 1257 1242 1219 1347 1329 1293 1298 1273 1263 1317 1321 1262 1287 1322 1288 1336 1255 1330 1353 1260 1231 1314 1358 1374 1317 1275 1256 1232 1303 1289 1285 1293 1351 1296 1300 1372 1313 1302 1293 1328 1305 1305 1309 1335 1372 1334 1304 1307 1326 1292 1308 1238 1305 1308 1246 1248 1294 1284 1252 1313 1266 1269 1296 1208 1295 1257 1336 1264 1303 1295 1316 1352 1252 1300 1283 1279 1364 1309 1324 1265 1342 1361 1310 1334 1310 1288 1309 1360 1272 1314 1353 1309 1304 1346 1271 1252 1316 1310 1416 1336 1293 1417 1322 1317 1292 1358 1328 1349 1355 1293 1314 1335 1338 1343 1325 1347 1384 1390 1389 1387 1373 1240 1407 1336 1366 1317 1420 1395 1380 1321 1402 1365 1379 1421 1405 1345 1423 1398 1470 1353 1410 1369 1395 1413 1333 1386 1388 1383 1392 1289 1438 1395 1484 1374 1351 1363 1376 1396 1411 1393 1369 1370 1344 1460 1351 1374 1415 1335 1382 1362 1317 1389 1448 1381 1418 1349 1405 1432 1347 1420 1409 1318 1363 1343 1378 1353 1367 1379 1335 1363 1332 1348 1397 1384 1344 1390 1309 1389 1382 1318 1277 1346 1346 1352 1317 1342 1388 1320 1337 1251 1293 1295 1283 1357 1370 1368 1385 1326 1319 1327 1374 1302 1277 1361 1341 1374 1251 1279 1310 1294 1375 1328 1333 1298 1364 1401 1302 1238 1251 1376 1317 1338 1343 1345 1242 1294 1312 1322 1313 1324 1318 1332 1349 1274 1307 1315 1357 1237 1304 1255 1314 1326 1306 1314 1266 1331 1275 1248 1257 1288 1302 1302 1361 1246 1279 1279 1245 1299 1286 1251 1308 1335 1259 1270 1323 1288 1259 1346 1287 1346 1268 1319 1285 1350 1301 1276 1300 1302 1303 1301 1267 1347 1304 1321 1313 1334 1318 1271 1330 1242 1202 1301 1255 1273 1279 1299 1274 1284 1203 1254 1238 1301 1253 1269 1261 1278 1219 1233 1251 1245 1246 1300 1217 1314 1280 1347 1198 1228 1239 1322 1273 1314 1239 1297 1323 1250 1270 1245 1299 1216 1278 1299 1259 1292 1269 1339 1350 1260 1273 1336 1345 1323 1261 1281 1253 1308 1306 1319 1277 1240 1296 1222 1261 1277 1251 1248 1303 1325 1274 1251 1263 1205 1317 1255 1250 1279 1240 1237 1287 1329 1284 1278 1290 1274 1301 1267 1301 1236 1293 1346 1277 1253 1236 1261 1294 1265 1308 1213 1279 1294 1252 1307 1276 1269 1334 1287 1275 1261 1315 1285 1203 1184 1306 1295 1239 1256 1250 1276 1232 1255 1283 1205 1265 1257 1303 1256 1228 1313 1259 1231 1231 1270 1289 1244 1327 1298 1242 1264 1296 1250 1253 1257 1166 1276 1272 1259 1303 1318 1191 1245 1259 1216 1209 1317 1324 1237 1278 1250 1309 1244 1276 1260 1199 1259 1159 1232 1172 1239 1282 1313 1285 1299 1272 1205 1236 1215 1263 1279 1314 1198 1188 1288 1234 1299 1249 1249 1221 1228 1333 1247 1236 1264 1257 1275 1256 1228 1251 1266 1286 1272 1238 1234 1261 1232 1287 1285 1277 1267 1217 1276 1227 1322 1246 1243 1188 1221 1232 1218 1230 1252 1181 1211 1265 1216 1208 1233 1263 1226 1259 1194 1231 1225 1264 1203 1219 1310 1267 1201 1245 1298 1252 1206 1176 1313 1275 1252 1219 1234 1256 1285 1277 1271 1224 1219 1243 1215 1238 1298 1211 1225 1301 1214 1264 1240 1267 1283 1275 1216 1298 1181 1253 1179 1331 1316 1287 1265 1229 1186 1267 1285 1208 1317 1313 1208 1206 1279 1208 1204 1229 1230 1277 1232 1278 1216 1225 1262 1273 1270 1274 1253 1238 1227 1211 1243 1264 1337 1327 1265 1267 1219 1220 1282 1225 1225 1214 1271 1203 1236 1289 1322 1279 1291 1170 1276 1342 1225 1226 1206 1206 1292 1249 1209 1248 1178 1319 1222 1210 1215 1252 1240 1194 1236 1244 1246 1236 1199 1213 1260 1285 1299 1213 1210 1242 1238 1253 1240 1222 1123 1199 1254 1213 1247 1233 1219 1246 1231 1243 1243 1264 1278 1227 1276 1266 1291 1248 1298 1227 1197 1238 1220 1279 1265 1222 1227 1185 1223 1229 1268 1288 1259 1256 1219 1264 1285 1240 1234 1257 1234 1221 1233 1212 1218 1331 1247 1285 1247 1216 1224 1203 1269 1194 1226 1244 1222 1287 1248 1266 1266 1295 1206 1213 1145 1247 1193 1231 1244 1256 1224 1265 1276 1223 1213 1221 1249 1183 1286 1281 1283 1231 1255 1176 1231 1241 1243 1244 1219 1302 1224 1269 1231 1256 1244 1259 1251 1317 1276 1237 1203 1349 1294 1198 1254 1252 1235 1216 1279 1281 1276 1253 1262 1269 1287 1288 1297 1267 1162 1262 1182 1228 1252 1257 1231 1253 1231 1274 1246 1235 1246 1261 1304 1323 1222 1243 1242 1337 1257 1241 1190 1224 1226 1252 1217 1351 1227 1222 1244 1282 1276 1245 1256 1183 1214 1219 1215 1233 1228 1290 1193 1262 1239 1163 1219 1291 1230 1213 1226 1261 1313 1316 1310 1252 1274 1241 1269 1225 1134 1246 1293 1276 1318 1236 1250 1264 1270 1265 1293 1201 1281 1207 1236 1218 1326 1211 1273 1277 1279 1270 1262 1264 1270 1263 1223 1247 1285 1342 1233 1238 1197 1239 1258 1229 1246 1276 1288 1230 1242 1184 1182 1266 1218 1179 1293 1323 1189 1272 1245 1280 1220 1229 1265 1221 1247 1179 1200 1255 1251 1158 1221 1249 1228 1234 1255 1253 1261 1257 1252 1245 1196 1298 1307 1165 1288 1277 1302 1227 1206 1181 1275 1203 1224 1340 1249 1222 1227 1210 1171 1240 1229 1202 1318 1263 1305 1197 1204 1192 1219 1264 1256 1285 1312 1237 1257 1256 1176 1275 1205 1298 1186 1234 1233 1228 1203 1182 1246 1215 1302 1256 1320 1266 1203 1287 1240 1183 1253 1266 1220 1255 1202 1152 1267 1238 1186 1171 1227 1281 1174 1239 1296 1264 1228 1229 1278 1299 1222 1282 1260 1306 1213 1165 1289 1239 1253 1227 1305 1291 1268 1218 1257 1280 1242 1178 1234 1315 1292 1206 1290 1202 1203 1289 1244 1255 1278 1253 1252 1210 1213 1258 1239 1247 1243 1236 1274 1197 1251 1265 1204 1228 1257 1238 1228 1207 1268 1206 1239 1272 1258 1265 1246 1276 1243 1266 1320 1257 1256 1304 1278 1257 1293 1227 1209 1274 1273 1234 1319 1304 1270 1295 1270 1288 1335 1266 1329 1301 1304 1318 1261 1262 1291 1262 1280 1273 1286 1267 1265 1289 1249 1326 1291 1361 1280 1290 1357 1271 1293 1298 1285 1266 1299 1322 1273 1247 1333 1314 1232 1269 1284 1333 1375 1315 1334 1295 1274 1305 1279 1291 1248 1313 1309 1288 1312 1270 1305 1300 1297 1227 1265 1312 1271 1296 1252 1325 1246 1233 1307 1269 1235 1238 1319 1328 1206 1294 1268 1306 1247 1289 1235 1253 1298 1252 1261 1222 1191 1238 1311 1257 1313 1276 1290 1212 1297 1258 1370 1351 1291 1269 1282 1251 1252 1258 1230 1266 1328 1290 1279 1316 1319 1260 1311 1306 1249 1286 1282 1230 1285 1276 1246 1267 1269 1272 1298 1287 1285 1242 1213 1255 1253 1247 1247 1248 1375 1209 1301 1268 1278 1321 1246 1328 1259 1286 1280 1251 1219 1224 1235 1183 1230 1273 1186 1274 1250 1265 1241 1266 1229 1243 1248 1239 1202 1241 1226 1238 1247 1197 1254 1180 1236 1248 1257 1206 1283 1332 1260 1292 1244 1177 1182 1205 1268 1269 1204 1199 1212 1227 1253 1182 1256 1227 1215 1284 1260 1262 1178 1260 1147 1290 1221 1179 1223 1250 1226 1236 1194 1227 1227 1191 1313 1215 1237 1238 1294 1255 1277 1264 1204 1219 1260 1238 1238 1259 1215 1200 1219 1193 1244 1221 1244 1277 1235 1217 1278 1260 1174 1341 1255 1262 1250 1244 1181 1260 1271 1202 1244 1233 1284 1223 1181 1211 1191 1253 1179 1230 1265 1232 1305 1207 1189 1249 1243 1255 1249 1213 1220 1240 1331 1269 1236 1199 1267 1240 1284 1199 1213 1246 1198 1256 1213 1315 1246 1269 1236 1163 1280 1224 1181 1260 1249 1217 1213 1264 1201 1304 1278 1256 1236 1243 1215 1207 1191 1232 1234 1262 1258 1291 1206 1269 1215 1212 1190 1229 1176 1215 1221 1239 1193 1284 1206 1211 1281 1194 1212 1241 1164 1220 1251 1265 1190 1215 1264 1169 1249 1230 1225 1274 1245 1219 1246 1221 1256 1219 1256 1181 1252 1222 1187 1252 1228 1181 1214 1173 1278 1152 1227 1145 1221 1250 1138 1246 1223 1199 1294 1296 1213 1198 1245 1157 1277 1218 1192 1258 1215 1228 1199 1246 1175 1154 1181 1231 1242 1267 1292 1205 1144 1278 1232 1228 1135 1230 1254 1235 1241 1258 1200 1229 1236 1240 1200 1255 1278 1248 1185 1280 1192 1209 1270 1181 1230 1185 1227 1183 1238 1249 1250 1193 1286 1221 1270 1260 1210 1182 1227 1218 1196 1255 1176 1152 1156 1275 1211 1234 1208 1156 1207 1225 1191 1250 1218 1263 1189 1203 1171 1241 1235 1154 1252 1169 1238 1216 1268 1212 1271 1204 1185 1191 1213 1240 1280 1186 1221 1185 1258 1134 1228 1200 1222 1235 1194 1214 1235 1245 1178 1271 1243 1215 1226 1212 1233 1224 1219 1150 1244 1247 1267 1235 1211 1297 1204 1180 1212 1180 1179 1227 1199 1174 1221 1178 1292 1188 1203 1247 1225 1273 1221 1210</counts>
			</dataPoints>
		</scan>
	</xrdMeasurement>
</xrdMeasurements>
