<?xml version="1.0"?>
<xrdMeasurements xmlns="http://www.xrdml.com/XRDMeasurement/2.3" xmlns:xsi="http://www.w3.org/2001/XMLSchema-instance" xsi:schemaLocation="http://www.xrdml.com/XRDMeasurement/2.3 http://www.xrdml.com/XRDMeasurement/2.3/XRDMeasurement.xsd" status="Completed" recordIdentifier="{BCA112B5-BC3F-4171-ADF0-F918FB374129}">
	<comment>
		<entry/>
	</comment>
	<sample type="To be analyzed">
		<id>GPSS_Li1p5Mn0p3Fe0p2Y0p35In0p15Cl4_122625_694efed0ae15af25ac374c5f</id>
		<name></name>
		<preparedBy></preparedBy>
	</sample>
	<xrdMeasurement measurementType="Scan" status="Completed" sampleMode="Reflection">
		<usedWavelength intended="K-Alpha 1">
			<kAlpha1 unit="Angstrom">1.5405980</kAlpha1>
			<kAlpha2 unit="Angstrom">1.5444260</kAlpha2>
			<kBeta unit="Angstrom">1.3922500</kBeta>
			<ratioKAlpha2KAlpha1>0.5000</ratioKAlpha2KAlpha1>
		</usedWavelength>
		<incidentBeamPath>
			<radius unit="mm">145.00</radius>
			<xRayTube id="1010048" name="Empyrean Cu LFF HR (9430 033 7310x)">
				<tension unit="kV">40.0</tension>
				<current unit="mA">15.0</current>
				<anodeMaterial>Cu</anodeMaterial>
				<focus type="Line">
					<length unit="mm">12.0</length>
					<width unit="mm">0.4</width>
					<takeOffAngle unit="deg">6.0</takeOffAngle>
				</focus>
			</xRayTube>
			<sollerSlit id="21010002" name="Soller slits 0.04 rad.">
				<opening unit="rad">0.0400</opening>
			</sollerSlit>
			<mask id="22031000" name="Fixed mask 13 mm">
				<width unit="mm">9.00</width>
			</mask>
			<divergenceSlit id="22120001" name="Divergence slit 1°" xsi:type="fixedDivergenceSlitType">
				<distanceToSample unit="mm">50.00</distanceToSample>
				<height unit="mm">1.52</height>
			</divergenceSlit>
		</incidentBeamPath>
		<sampleMovement xsi:type="spinningSampleMovementType">
			<spinnerRevolutionTime unit="seconds">1.0</spinnerRevolutionTime>
		</sampleMovement>
		<diffractedBeamPath>
			<radius unit="mm">145.00</radius>
			<antiScatterSlit id="22090040" name="AS slit 9 mm (PIXcel)" xsi:type="fixedAntiScatterSlitType">
				<height unit="mm">9.00</height>
			</antiScatterSlit>
			<sollerSlit id="21020003" name="Large Soller slits 0.04 rad.">
				<opening unit="rad">0.0400</opening>
			</sollerSlit>
			<filter id="20030001" name="Large beta-filter Nickel">
				<material>Ni</material>
				<thickness unit="mm">0.020</thickness>
			</filter>
			<detector id="7010019" name="PIXcel1D-Medipix3 detector" xsi:type="rtmsDetectorType">
				<phd unit="keV">
					<lowerLevel>4.02</lowerLevel>
					<upperLevel>11.27</upperLevel>
				</phd>
				<mode>Scanning</mode>
				<activeLength unit="deg">5.542</activeLength>
			</detector>
		</diffractedBeamPath>
		<scan appendNumber="0" mode="Continuous" scanAxis="Gonio" status="Completed">
			<header>
				<startTimeStamp>2025-12-29T11:24:01-08:00</startTimeStamp>
				<endTimeStamp>2025-12-29T11:32:08-08:00</endTimeStamp>
				<author>
					<name>AutomatedUser</name>
				</author>
				<source>
					<applicationSoftware version="1.7b (136)">PANalytical Aeris Instrument Suite</applicationSoftware>
					<instrumentControlSoftware version="3.2.00000000 20240306">AERIS</instrumentControlSoftware>
					<instrumentID>950485</instrumentID>
				</source>
			</header>
			<dataPoints>
				<positions axis="2Theta" unit="deg">
					<startPosition>10.00943322</startPosition>
					<endPosition>99.99442286</endPosition>
				</positions>
				<positions axis="Omega" unit="deg">
					<startPosition>5.00471661</startPosition>
					<endPosition>49.99721143</endPosition>
				</positions>
				<commonCountingTime unit="seconds">12.495</commonCountingTime>
				<counts unit="counts">2935 2945 2859 2936 3007 2895 2959 3059 2932 3039 2959 2970 2952 2943 3069 3057 3057 3050 3023 3054 2997 2952 2962 2940 3015 3073 2963 3016 3024 3083 3000 2961 3037 2974 3087 3107 2867 2967 3027 3099 2975 3065 2947 2985 3158 3001 3050 2941 3075 3109 3098 3118 3123 3098 3088 2987 3109 3043 3161 3112 3116 3101 3034 3122 3181 3074 3145 3079 3057 3164 3103 3184 3194 3102 3197 3129 3169 3140 3022 3295 3122 3221 3157 3129 3278 3170 3107 3117 3279 3156 3246 3142 3237 3102 3208 3165 3198 3206 3258 3181 3259 3223 3201 3178 3182 3241 3284 3241 3255 3305 3208 3258 3242 3219 3221 3209 3208 3241 3190 3304 3267 3137 3347 3198 3298 3255 3199 3239 3331 3373 3357 3422 3234 3269 3397 3325 3318 3259 3251 3297 3302 3272 3347 3319 3425 3321 3290 3323 3427 3277 3328 3245 3258 3347 3360 3264 3413 3267 3231 3209 3365 3263 3444 3247 3278 3214 3373 3311 3314 3226 3263 3400 3335 3248 3359 3282 3353 3271 3242 3263 3363 3284 3290 3263 3245 3258 3266 3269 3302 3250 3302 3251 3369 3393 3290 3242 3311 3365 3280 3355 3239 3252 3277 3328 3212 3315 3283 3339 3290 3171 3309 3281 3177 3268 3148 3280 3221 3328 3275 3273 3064 3222 3243 3340 3218 3145 3296 3265 3198 3165 3069 3160 3235 3138 3196 3239 3095 3210 3125 3121 3064 3154 3148 3103 3146 3198 3051 3086 3148 3194 3048 3109 3127 3179 3095 3134 3184 3091 3165 3101 3238 3125 3143 3167 3136 3078 3135 3111 3074 3282 3086 3149 3063 3141 3022 3140 3089 3170 3080 3078 3083 3089 3102 3027 3150 3045 3102 3066 3100 3110 3113 3138 2986 3133 3037 3127 3118 3085 3099 3093 3033 2989 3106 3076 2991 3063 3028 2996 3042 3032 3103 3111 3097 3205 3219 3177 2938 3088 3078 3161 3097 3113 3080 3151 3158 3210 3095 3095 3128 3066 3107 3054 2968 3122 3047 3235 3150 3212 3097 3172 3185 3134 3205 3181 3148 3285 3122 3147 3261 3277 3235 3268 3207 3228 3173 3186 3230 3267 3287 3264 3306 3314 3339 3220 3224 3229 3341 3354 3197 3275 3287 3263 3288 3339 3271 3253 3301 3324 3394 3225 3290 3267 3353 3285 3273 3306 3347 3274 3289 3225 3455 3366 3374 3443 3328 3404 3391 3518 3392 3427 3425 3270 3469 3473 3550 3377 3404 3406 3488 3341 3417 3458 3416 3457 3621 3545 3475 3623 3378 3512 3499 3600 3554 3568 3579 3536 3593 3712 3610 3717 3606 3575 3551 3656 3679 3716 3674 3657 3658 3629 3508 3809 3696 3607 3729 3777 3700 3874 3923 3781 3849 3812 3902 3833 3861 4020 3805 3860 3889 3786 3901 3815 3790 3884 3836 3647 3737 3549 3566 3437 3474 3391 3282 3406 3405 3344 3249 3494 3277 3197 3303 3265 3463 3227 3387 3338 3407 3355 3322 3237 3262 3190 3282 3312 3257 3259 3309 3266 3344 3291 3331 3284 3246 3257 3346 3108 3116 3322 3201 3242 3230 3196 3264 3248 3243 3177 3194 3124 3184 3249 3227 3225 3305 3201 3156 3186 3231 3165 3137 3160 3163 3366 3341 3182 3245 3229 3239 3227 3224 3159 3197 3198 3274 3213 3238 3333 3175 3272 3239 3230 3191 3256 3166 3176 3218 3243 3243 3289 3269 3268 3361 3210 3386 3251 3280 3362 3276 3288 3365 3271 3227 3048 3113 3113 3079 2975 2993 2952 2964 2848 2955 2851 2896 2837 2918 2833 3012 2867 3054 2940 2845 2871 2989 2892 2877 2888 2879 2773 2904 2851 2821 2874 2843 2841 2867 2907 2834 2870 2890 2843 2707 2864 2779 2843 2807 2843 2718 2882 2867 2783 2772 2785 2921 2830 2843 2782 2886 2792 2753 2753 2761 2816 2794 2788 2710 2725 2749 2748 2760 2765 2711 2791 2827 2849 2786 2824 2774 2617 2879 2731 2750 2817 2932 2832 2833 2863 2755 2881 2926 2835 2954 2831 2783 2870 2933 2876 2951 2886 2841 2927 2867 2967 2898 2889 3021 2845 2993 2882 2981 2915 3101 2970 2990 2993 2995 2998 3106 3038 3168 3045 3132 3068 3078 3048 3173 3270 3187 3154 3166 3295 3191 3160 3248 3078 3151 3084 3006 3079 2995 2937 2803 2856 2806 2771 2763 2655 2694 2684 2690 2567 2637 2678 2731 2581 2852 2621 2671 2588 2640 2709 2615 2546 2637 2595 2655 2706 2602 2717 2565 2627 2685 2629 2690 2581 2630 2666 2614 2636 2593 2558 2530 2577 2657 2647 2533 2603 2499 2672 2574 2542 2608 2623 2570 2600 2608 2574 2612 2572 2483 2630 2571 2618 2559 2589 2524 2620 2581 2528 2630 2527 2605 2612 2602 2554 2515 2505 2476 2618 2480 2498 2509 2594 2615 2521 2593 2557 2467 2484 2521 2509 2520 2531 2539 2614 2625 2521 2452 2643 2544 2493 2526 2560 2556 2447 2530 2482 2545 2478 2510 2452 2478 2475 2555 2560 2520 2474 2566 2548 2494 2507 2470 2471 2452 2468 2455 2477 2511 2553 2387 2446 2525 2472 2497 2444 2629 2432 2488 2433 2586 2441 2453 2442 2466 2352 2427 2425 2510 2457 2482 2455 2422 2454 2407 2404 2453 2412 2436 2445 2542 2481 2485 2520 2359 2443 2382 2349 2474 2422 2417 2432 2483 2319 2339 2487 2339 2420 2448 2463 2402 2421 2352 2425 2343 2475 2365 2510 2400 2423 2452 2403 2504 2387 2345 2361 2368 2433 2281 2460 2376 2438 2411 2356 2291 2375 2389 2479 2379 2421 2364 2302 2399 2339 2439 2375 2384 2258 2220 2277 2322 2306 2343 2358 2298 2374 2399 2327 2306 2291 2317 2378 2345 2394 2365 2352 2406 2418 2313 2313 2311 2317 2382 2249 2275 2273 2292 2267 2253 2313 2241 2211 2386 2291 2298 2311 2372 2188 2273 2347 2282 2312 2301 2326 2328 2336 2319 2328 2306 2390 2318 2299 2293 2309 2317 2320 2279 2353 2283 2337 2346 2322 2283 2276 2340 2262 2262 2248 2272 2235 2282 2231 2369 2322 2383 2257 2365 2297 2268 2362 2270 2207 2320 2157 2262 2189 2242 2250 2306 2267 2347 2241 2256 2252 2352 2262 2240 2240 2252 2300 2263 2279 2289 2328 2348 2284 2213 2141 2312 2298 2318 2253 2314 2304 2322 2323 2308 2305 2272 2269 2249 2286 2279 2414 2176 2232 2285 2383 2319 2285 2310 2341 2254 2357 2190 2339 2309 2304 2430 2312 2321 2254 2282 2336 2468 2320 2403 2363 2291 2244 2323 2284 2273 2377 2359 2340 2242 2423 2264 2273 2389 2237 2306 2338 2244 2387 2276 2274 2283 2344 2311 2372 2370 2353 2350 2337 2313 2255 2301 2230 2302 2205 2256 2249 2276 2262 2311 2279 2257 2219 2246 2408 2332 2282 2290 2208 2193 2260 2206 2329 2177 2183 2181 2248 2170 2211 2223 2174 2167 2186 2171 2212 2265 2177 2212 2229 2140 2253 2185 2103 2202 2270 2106 2129 2161 2314 2199 2241 2235 2114 2219 2217 2138 2217 2121 2122 2162 2161 2182 2187 2027 2095 2161 2151 2087 2174 2113 2067 2055 2126 2105 2115 2011 2079 2126 1976 2088 2077 2070 2079 2100 2014 2041 1984 2015 2013 2049 2043 2045 2134 2052 2030 2004 2075 2044 2021 1999 1990 2064 2009 1911 1962 2015 2021 2007 2083 2002 2035 1988 1916 1895 1934 1961 1947 1923 1991 1957 1951 2002 1996 1976 1959 2081 1986 2022 2074 2082 2099 2088 2027 1939 2026 1985 1973 2018 2011 1997 2049 1969 1901 2066 1894 2013 2030 2030 1963 1998 2040 1957 1977 1936 2030 2044 1998 2044 1990 1971 1998 1994 2039 2038 2056 2093 2076 2047 2048 2073 2162 1998 2019 2026 2037 2001 2023 1921 1881 1945 1850 1881 1845 1736 1764 1861 1811 1751 1813 1778 1805 1742 1816 1745 1703 1719 1678 1756 1741 1819 1738 1724 1743 1739 1715 1634 1681 1768 1679 1726 1782 1730 1651 1742 1669 1748 1689 1669 1690 1618 1704 1663 1682 1675 1679 1783 1712 1746 1721 1703 1654 1685 1680 1651 1711 1715 1675 1711 1653 1702 1728 1590 1669 1638 1716 1650 1658 1668 1663 1688 1685 1695 1628 1698 1636 1691 1615 1652 1666 1615 1811 1678 1715 1668 1808 1673 1729 1714 1639 1582 1685 1598 1616 1597 1609 1732 1700 1644 1625 1654 1674 1633 1680 1611 1705 1647 1663 1579 1602 1649 1606 1673 1576 1697 1626 1666 1655 1607 1758 1684 1673 1763 1620 1668 1678 1639 1592 1644 1680 1687 1699 1650 1595 1709 1680 1647 1629 1697 1658 1636 1673 1686 1666 1725 1666 1637 1601 1605 1715 1606 1655 1622 1745 1615 1672 1674 1649 1594 1690 1674 1669 1592 1697 1690 1675 1625 1621 1702 1557 1604 1651 1652 1595 1653 1700 1640 1719 1659 1693 1737 1668 1742 1682 1622 1641 1592 1737 1648 1705 1664 1633 1688 1690 1681 1707 1707 1713 1710 1620 1700 1747 1731 1676 1684 1635 1623 1628 1695 1701 1666 1660 1734 1608 1613 1588 1673 1647 1712 1706 1701 1702 1682 1574 1587 1643 1598 1611 1627 1654 1671 1569 1640 1689 1657 1685 1643 1646 1538 1601 1615 1607 1594 1658 1638 1704 1612 1601 1638 1655 1556 1573 1584 1608 1569 1646 1592 1593 1593 1654 1570 1594 1584 1633 1663 1576 1576 1560 1574 1537 1572 1586 1557 1460 1555 1526 1571 1490 1565 1523 1578 1549 1527 1559 1564 1562 1515 1514 1489 1498 1514 1489 1566 1442 1526 1477 1508 1496 1527 1571 1462 1487 1459 1525 1527 1455 1484 1404 1486 1507 1498 1538 1397 1489 1417 1504 1429 1417 1538 1445 1503 1413 1479 1452 1440 1404 1517 1434 1521 1471 1449 1422 1386 1429 1421 1471 1511 1419 1449 1440 1357 1423 1400 1443 1352 1449 1457 1398 1440 1424 1429 1472 1340 1410 1389 1421 1417 1424 1416 1448 1326 1465 1394 1344 1362 1297 1429 1374 1422 1407 1351 1386 1395 1428 1387 1412 1390 1462 1292 1378 1434 1412 1381 1401 1408 1473 1404 1456 1447 1437 1402 1458 1500 1409 1438 1504 1548 1523 1464 1472 1513 1472 1630 1423 1570 1452 1518 1549 1653 1537 1648 1574 1532 1601 1568 1576 1597 1523 1671 1559 1623 1604 1583 1644 1620 1642 1641 1618 1513 1659 1622 1630 1608 1730 1609 1598 1686 1636 1559 1620 1602 1584 1575 1565 1587 1555 1551 1510 1487 1438 1487 1396 1405 1404 1463 1433 1351 1358 1315 1346 1283 1322 1248 1205 1222 1294 1232 1219 1305 1310 1257 1250 1193 1237 1250 1248 1228 1226 1300 1252 1187 1155 1177 1196 1272 1285 1273 1257 1244 1297 1265 1197 1226 1260 1272 1220 1237 1313 1268 1275 1267 1371 1328 1342 1374 1453 1411 1397 1387 1442 1445 1407 1436 1404 1500 1496 1516 1465 1537 1487 1439 1449 1507 1425 1429 1537 1460 1450 1466 1466 1482 1501 1551 1561 1511 1606 1544 1626 1660 1634 1718 1654 1725 1624 1659 1559 1667 1526 1613 1556 1657 1580 1609 1477 1465 1424 1311 1327 1324 1335 1252 1176 1212 1187 1205 1185 1131 1091 1146 1225 1155 1113 1146 1151 1103 1114 1132 1130 1149 1058 1132 1130 1083 1109 1147 1160 1052 1146 1075 1072 1077 1052 1079 1125 1097 1177 1098 1110 1088 1098 1050 1075 1120 1070 1122 1075 1081 1068 1179 1057 1088 1142 1115 1139 1140 1092 1114 1118 1047 1102 1086 1056 1058 1108 1105 1090 1107 1086 1059 1093 1081 1093 1132 1096 1040 1130 1087 1043 1060 1068 1024 1087 1060 1075 1096 1063 1111 1140 1123 1120 1109 1119 1077 1143 1099 1092 1121 1084 1155 1104 1146 1172 1121 1180 1228 1256 1342 1401 1349 1414 1469 1556 1553 1657 1635 1721 1640 1830 1809 1800 1775 1944 1844 1909 1841 1877 1871 1829 1814 1898 1779 1789 1796 1805 1771 1809 1810 1885 1989 1968 2011 2066 2130 2142 2268 2262 2289 2371 2393 2616 2462 2547 2501 2436 2521 2423 2397 2324 2299 2137 1997 1823 1724 1665 1570 1529 1429 1399 1327 1212 1209 1137 1147 1204 1211 1137 1115 1083 1105 1134 1139 1122 1136 1155 1064 1156 1133 1152 1122 1173 1169 1105 1105 1111 1131 1136 1145 1121 1123 1138 1136 1114 1164 1063 1179 1103 1057 1136 1093 1121 1099 1124 1060 1120 1076 1028 1069 1053 1002 1075 1022 992 973 993 948 1054 982 973 1043 976 973 974 960 1014 1005 996 990 960 1030 989 1034 968 994 967 975 986 991 1002 900 981 983 1010 957 992 1064 928 1003 1000 958 1016 1050 970 979 913 999 1036 1018 964 999 1023 971 952 993 988 981 964 920 986 935 958 987 915 1034 944 935 955 973 951 938 1000 941 987 1006 1017 998 947 1005 1003 996 916 1056 982 924 911 976 975 997 1011 953 1032 965 943 1009 1018 958 1010 978 995 1006 990 1002 962 981 991 1089 1038 1066 1068 1164 1073 1115 1052 1088 1068 1156 1099 1058 1081 1110 1129 1128 1103 1135 1172 1108 1088 1108 1135 1076 1118 1088 1203 1184 1159 1097 1204 1215 1175 1273 1231 1252 1262 1271 1319 1350 1362 1292 1372 1493 1367 1423 1472 1469 1440 1478 1518 1588 1473 1527 1538 1523 1538 1628 1551 1692 1748 1681 1733 1820 1764 1757 1767 1830 1809 1866 1827 1744 1821 1883 1838 1869 1906 1926 2059 1975 2094 2054 2032 2095 2126 2030 2138 2001 2056 2068 2041 2048 2085 1981 1995 1976 1926 1933 1817 1844 1633 1650 1652 1646 1478 1485 1358 1388 1306 1260 1181 1222 1181 1182 1169 1093 1111 1067 1056 1047 1028 1012 1044 1073 956 1032 1004 960 963 994 1048 1000 985 999 976 1053 1025 934 980 983 1008 962 953 930 995 978 938 994 954 1010 942 967 956 989 983 1020 947 974 1011 940 978 941 999 922 958 976 984 950 1014 989 1022 1050 991 987 926 1028 1024 975 995 949 1005 1012 1040 989 1007 1049 1013 939 1015 1061 1035 1039 983 1015 967 984 991 986 1022 988 994 1019 974 1023 938 997 999 893 972 861 965 996 949 924 956 946 904 1042 939 933 970 979 930 943 924 926 921 935 927 986 874 934 927 893 932 919 938 930 957 969 894 969 879 900 929 892 893 914 923 991 950 905 907 900 937 949 932 879 927 940 945 984 983 993 883 958 969 1000 961 1024 982 973 1039 1023 1043 999 964 1005 1075 994 966 1001 961 1017 1034 1075 1057 975 1068 1005 1040 1090 1086 1049 1075 1024 1029 1045 1038 1094 1116 1104 1137 1064 1099 1064 1091 1110 1115 1066 999 1060 1028 967 1005 955 984 971 952 971 923 915 926 907 927 855 934 874 905 897 879 920 865 920 916 906 901 1000 900 896 883 917 915 939 907 916 924 919 913 877 898 874 914 933 869 899 949 922 860 881 899 871 928 900 894 933 918 876 889 908 896 889 902 885 937 872 937 933 957 872 895 905 917 897 928 913 933 907 942 866 903 868 868 840 887 890 878 865 843 908 925 903 848 846 835 918 839 838 840 910 838 794 809 831 882 874 918 885 853 844 834 764 938 837 869 850 830 770 850 830 844 882 870 875 847 865 858 811 789 837 895 799 848 783 824 851 868 888 844 818 880 857 898 859 820 865 875 846 873 826 819 817 898 858 784 827 800 809 768 805 776 868 844 875 805 841 886 849 914 881 868 863 838 883 863 816 786 820 812 903 845 852 797 816 828 862 810 864 833 835 830 829 806 826 882 822 850 854 842 867 772 802 831 820 828 871 866 830 852 782 836 901 912 842 874 808 847 862 845 863 836 850 873 832 837 818 868 905 821 847 835 827 827 882 847 802 860 821 852 847 899 873 847 846 874 847 865 816 834 885 775 820 816 849 825 849 846 789 876 891 814 833 895 832 840 841 851 840 836 817 782 823 877 858 850 889 868 900 833 856 830 909 831 853 843 847 834 859 854 859 840 843 867 868 837 909 912 864 871 852 888 831 811 899 932 890 875 912 817 899 913 896 858 924 886 908 899 841 948 840 860 888 926 893 845 864 873 855 817 880 804 902 849 834 813 833 832 862 852 914 881 907 865 902 952 986 917 1007 1000 1021 1058 1010 1104 1106 1157 1149 1187 1176 1241 1200 1271 1341 1340 1402 1445 1430 1461 1444 1426 1428 1435 1386 1428 1392 1343 1391 1474 1400 1423 1483 1477 1416 1535 1500 1563 1540 1569 1619 1612 1618 1625 1709 1566 1710 1683 1597 1591 1532 1518 1471 1420 1357 1328 1273 1210 1156 1208 1102 1079 1085 1040 930 940 890 874 877 874 834 850 872 915 818 832 778 860 761 854 844 835 878 875 855 824 816 847 799 839 814 831 779 813 860 880 872 848 837 837 782 799 775 829 793 872 789 875 826 819 852 821 782 789 819 827 910 839 826 817 816 799 852 806 837 831 843 813 841 802 763 765 814 818 817 806 815 814 814 841 805 875 831 874 810 817 834 771 751 826 832 885 766 804 822 860 792 824 811 840 800 826 841 806 868 800 852 804 811 813 819 862 843 857 802 862 914 813 837 858 924 930 949 873 921 968 915 916 900 904 892 910 925 882 865 880 894 926 887 911 897 878 904 884 916 904 972 906 936 972 907 912 949 906 919 926 923 924 943 962 968 915 887 872 840 879 904 916 887 958 891 880 874 869 885 856 877 825 943 927 994 935 870 925 1009 866 917 964 848 911 885 915 932 938 877 912 935 888 967 966 960 951 963 902 968 962 1000 967 955 935 945 910 940 1004 1007 882 951 921 863 902 865 911 865 890 865 827 828 816 884 845 820 795 820 866 864 794 846 831 794 825 831 808 849 795 812 787 830 821 804 827 823 808 835 928 886 901 890 860 857 787 894 833 862 904 894 849 864 873 912 916 893 919 929 961 971 938 887 909 835 908 896 915 840 832 866 884 877 823 824 860 814 783 820 821 871 843 877 780 829 874 809 840 844 811 855 791 812 790 839 829 850 887 819 801 821 854 875 811 823 886 900 812 852 805 817 854 855 829 904 904 887 980 945 944 916 930 911 962 974 894 878 1000 897 970 954 952 953 963 907 962 955 978 928 978 916 971 1012 946 963 998 932 962 910 1016 943 906 894 891 936 971 919 966 935 870 847 906 882 927 880 868 883 876 895 888 902 820 820 824 877 837 826 866 847 829 845 832 820 826 814 794 809 854 798 790 794 841 853 843 794 783 805 803 754 776 794 822 817 792 829 793 795 832 867 784 792 777 812 789 775 836 854 781 789 788 837 800 771 806 801 838 777 794 811 758 816 797 844 817 840 812 782 817 808 859 825 839 811 787 805 817 806 751 784 798 812 789 823 784 812 716 791 830 835 880 800 829 842 776 783 786 814 839 798 825 827 689 746 793 784 773 835 816 832 788 711 808 769 794 813 792 815 806 806 874 784 804 816 761 775 841 824 806 824 761 837 788 814 774 821 735 781 844 767 790 810 772 756 795 791 800 783 774 797 779 797 741 727 809 764 806 804 792 821 815 779 776 770 771 817 777 826 737 751 847 762 767 750 768 797 807 777 783 752 779 784 760 793 836 825 820 836 767 824 807 817 840 849 768 769 802 768 821 840 757 821 802 763 780 773 817 797 816 772 799 793 781 864 825 827 825 825 789 813 818 779 767 861 786 820 849 813 847 860 808 805 816 803 817 800 825 724 823 805 839 820 802 855 873 806 822 874 837 837 832 826 851 839 854 833 815 785 868 829 879 814 814 825 876 831 867 853 801 824 823 831 868 897 851 877 801 869 879 804 920 924 892 925 928 888 870 958 954 1009 995 1067 1007 998 1028 1054 1084 1080 1109 1219 1171 1162 1162 1232 1223 1245 1150 1287 1316 1251 1378 1202 1290 1310 1336 1332 1400 1397 1426 1385 1478 1518 1512 1584 1505 1490 1640 1531 1594 1505 1649 1534 1560 1563 1527 1524 1569 1430 1478 1468 1500 1579 1555 1508 1513 1559 1541 1579 1598 1687 1758 1734 1805 1760 1883 1874 1927 1902 1917 1927 1893 1823 1777 1827 1797 1824 1817 1769 1784 1685 1691 1666 1610 1508 1565 1474 1421 1430 1434 1385 1357 1298 1291 1258 1240 1068 1141 1095 1083 1055 1061 957 980 955 967 888 942 879 865 875 852 956 842 837 856 841 854 808 847 832 843 828 841 813 844 809 855 758 851 826 822 856 835 805 862 797 813 829 858 841 773 814 771 813 795 812 792 853 827 784 835 799 811 773 804 849 732 781 795 806 739 758 792 776 776 818 840 751 774 782 773 769 795 764 834 829 726 777 766 760 824 799 805 768 780 804 739 791 800 826 805 808 873 785 764 768 770 756 764 751 768 752 795 769 794 740 767 757 784 741 798 802 845 755 789 798 752 801 827 787 735 802 740 808 781 745 808 761 774 793 801 817 822 806 798 802 757 835 776 812 764 774 819 756 774 767 817 826 793 800 779 740 802 754 804 769 833 792 807 747 851 809 796 851 800 879 807 871 845 789 845 894 902 977 902 925 909 944 877 885 898 936 953 989 915 1017 877 972 890 962 1027 979 933 946 937 972 956 1030 976 1009 982 959 950 1004 941 962 924 990 977 913 1064 922 970 970 966 994 1003 962 964 967 978 919 953 959 898 894 855 902 909 913 906 872 905 876 859 846 919 865 865 838 866 871 904 872 899 900 854 810 846 823 883 854 814 836 818 778 775 769 845 796 802 783 780 784 820 826 841 822 807 760 828 795 796 793 803 831 812 868 847 829 839 810 838 782 826 879 897 821 842 829 862 801 881 868 879 887 846 819 849 843 881 836 880 876 850 877 874 844 845 844 849 924 870 894 846 871 861 809 789 822 788 799 802 864 785 793 812 793 808 812 792 844 783 791 812 796 814 796 754 817 774 831 814 869 806 818 882 816 847 897 886 865 856 850 902 863 867 908 917 867 955 856 839 903 942 896 908 954 913 989 933 933 913 955 955 995 979 1001 988 1007 953 908 992 969 972 977 944 917 879 957 900 895 917 921 862 823 818 847 838 834 871 847 769 786 763 824 780 819 759 735 757 744 764 750 783 734 756 664 769 799 769 794 763 789 785 731 760 746 721 747 783 720 757 724 694 768 742 734 736 732 773 721 767 776 751 753 729 761 755 742 717 745 713 733 801 793 742 815 768 784 756 763 768 752 802 787 763 777 763 841 731 848 821 788 795 769 809 715 844 727 732 778 800 840 750 814 804 760 778 805 792 756 805 780 835 864 771 797 862 746 748 838 747 836 755 813 731 708 710 824 799 775 775 724 711 783 731 761 740 829 717 770 749 701 701 814 735 735 751 720 731 723 743 711 724 762 711 765 796 754 716 699 743 747 712 727 730 767 690 670 740 776 709 747 700 702 723 764 741 739 743 721 702 719 685 755 764 747 731 746 728 741 688 715 709 726 710 727 765 748 740 704 768 730 765 766 716 740 751 707 755 734 752 768 768 744 734 707 750 734 761 704 705 688 755 763 791 740 740 727 774 765 736 746 725 742 707 716 675 780 733 718 691 710 742 704 741 714 761 727 776 734 712 735 798 704 722 714 721 715 728 726 711 704 740 789 721 745 721 739 684 728 733 746 654 710 732 739 734 721 724 744 706 748 705 739 744 716 811 736 763 786 749 727 775 747 756 795 762 763 804 727 785 743 745 725 738 753 767 774 802 746 700 739 706 775 745 747 753 763 805 804 701 763 774 775 748 724 763 784 752 770 785 763 796 734 776 824 784 769 765 771 754 797 748 799 754 772 765 772 785 764 743 762 776 741 747 830 756 782 750 748 754 738 796 781 759 845 755 822 741 823 767 757 791 749 760 752 757 764 732 746 780 822 824 792 796 812 775 811 763 758 787 753 783 797 790 782 834 793 762 800 806 825 775 776 772 782 823 814 796 774 806 825 791 820 773 785 841 791 799 781 836 791 820 848 771 809 849 807 854 815 812 832 815 787 782 755 861 800 834 849 814 862 801 814 830 821 794 818 852 770 767 778 800 818 793 810 794 751 794 807 819 791 767 789 776 776 784 783 782 820 758 770 776 835 771 865 780 815 837 775 861 850 819 830 868 844 875 844 836 820 860 894 858 877 880 872 921 919 959 898 914 899 913 918 885 908 836 959 894 922 930 903 917 852 863 853 884 907 853 848 905 817 878 833 839 829 836 794 874 790 893 890 801 814 773 831 798 753 790 778 809 851 822 809 770 806 807 786 771 796 794 842 787 803 774 805 825 833 792 792 797 783 798 788 791 836 803 854 778 797 768 799 732 762 749 818 766 839 813 775 825 805 807 742 806 725 797 713 795 804 782 798 709 753 787 732 758 745 743 765 722 787 760 731 737 749 735 689 730 752 770 773 778 732 732 797 735 755 742 714 687 740 713 716 758 750 738 712 741 714 792 732 726 791 754 764 808 731 678 760 709 738 732 758 753 723 746 778 765 738 750 745 715 781 708 788 747 747 759 777 771 780 720 743 756 781 779 818 775 819 817 813 803 833 898 836 843 870 860 871 877 885 901 917 932 888 927 936 921 932 991 976 971 962 968 978 990 1063 1010 987 975 976 1016 997 1000 1093 968 1037 947 1032 1011 994 992 1019 956 1016 1034 968 1060 993 959 1009 998 992 955 849 925 909 879 817 937 846 854 864 881 825 823 845 850 800 867 820 814 815 807 765 788 792 769 791 755 776 778 724 720 732 769 762 774 787 722 720 775 772 742 706 744 769 775 733 755 718 711 763 697 788 729 722 747 778 726 761 692 813 703 739 735 747 751 729 765 737 733 730 712 742 729 737 701 747 694 759 762 782 760 714 699 721 677 686 775 667 698 745 761 725 709 740 730 664 762 713 717 704 745 722 788 730 668 758 718 728 736 698 689 695 765 769 685 683 742 732 769 766 741 750 757 748 722 770 728 736 711 756 728 719 739 703 727 682 720 763 715 753 730 777 750 770 733 791 700 762 790 748 738 816 779 738 740 759 774 729 753 733 786 749 736 774 769 812 776 792 810 763 775 774 728 757 783 787 754 754 775 789 794 802 776 775 766 751 828 789 804 795 802 791 810 761 770 766 808 826 713 770 785 786 750 858 757 759 717 772 779 743 774 758 745 736 769 742 726 715 758 760 750 739 791 779 738 799 717 742 740 780 756 799 746 770 753 752 789 787 710 713 719 711 667 727 711 720 704 714 728 732 767 682 763 710 744 717 701 775 709 689 687 739 697 742 726 700 737 689 714 692 737 718 710 709 766 700 719 732 693 672 711 694 702 735 681 711 713 729 694 769 748 706 785 809 785 719 765 736 769 743 704 714 748 754 765 720 727 717 742 748 766 678 745 746 712 734 783 765 798 743 772 749 755 724 782 732 805 779 793 792 710 780 794 784 759 768 804 831 870 824 848 831 845 839 809 885 818 875 806 834 818 801 872 811 907 883 888 873 864 868 882 887 854 921 895 873 906 876 894 860 810 871 851 871 838 832 786 791 795 779 825 742 746 787 830 828 761 747 747 785 748 778 736 753 747 750 717 699 707 750 702 668 747 727 749 701 731 706 678 671 709 724 743 761 701 732 703 721 717 722 700 728 696 672 716 691 719 723 672 697 740 699 710 699 700 662 697 709 701 704 713 697 697 676 712 682 684 733 693 644 702 682 731 722 714 732 695 683 730 651 724 758 729 656 776 697 746 777 757 745 702 736 794 753 774 745 707 704 729 687 739 757 710 681 767 712 697 703 744 720 696 733 692 727 723 745 733 748 709 736 702 755 726 741 787 786 732 773 811 715 752 788 742 717 735 725 757 757 707 743 700 706 699 761 718 738 724 708 694 725 701 744 693 714 711 681 711 687 685 704 692 723 704 706 755 748 692 730 651 741 716 754 739 780 728 732 768 681 707 705 761 724 755 726 748 741 735 775 764 710 765 764 721 761 738 773 752 751 816 714 768 795 850 790 732 761 789 724 773 741 752 710 774 773 777 738 716 741 758 692 717 714 741 728 688 754 690 733 790 726 714 710 732 693 700 725 746 730 701 670 687 766 641 639 691 743 712 674 718 702 755 676 703 688 715 700 725 711 754 745 715 688 731 750 707 703 732 713 722 713 779 746 737 792 792 726 702 710 745 678 729 752 702 760 724 752 760 746 816 769 771 762 777 756 754 744 778 779 753 741 764 784 775 707 808 712 748 709 755 733 765 719 700 692 743 726 768 729 742 725 749 738 698 709 764 709 776 753 730 729 767 781 757 757 813 758 754 716 729 785 773 741 776 741 745 764 750 744 680 769 757 750 734 789 803 828 754 766 707 744 745 768 775 821 726 735 708 758 768 748 732 716 724 774 778 772 739 764 750 729 744 744 767 737 728 676 708 683 662 677 713 718 714 727 638 738 668 788 706 683 689 638 798 727 733 691 713 785 721 697 670 728 717 730 711 758 664 687 697 681 650 690 705 656 701 720 736 758 737 717 682 723 705 690 711 711 736 726 690 704 726 736 724 712 689 735 724 723 702 761 690 758 666 729 689 766 738 729 702 699 761 702 691 692 740 731 761 729 725 746 688 730 722 716 743 707 740 717 775 737 744 674 693 705 727 714 736 706 722 706 732 780 739 704 714 694 779 690 689 740 742 688 714 720 743 737 722 721 736 728 700 743 674 735 675 702 705 718 743 721 721 715 714 731 738 709 702 740 745 715 714 750 700 699 754 698 760 700 738 744 746 720 804 755 786 740 790 700 732 742 715 765 775 716 746 769 761 756 763 790 738 765 766 835 806 782 880 786 762 757 780 742 819 819 805 766 844 782 872 784 840 855 793 822 757 811 825 765 808 850 848 872 760 824 821 806 784 789 803 736 822 824 795 752 796 909 785 837 806 767 783 820 774 790 778 795 736 734 802 764 780 682 715 742 751 707 724 758 750 740 703 707 713 693 719 708 767 757 694 694 748 711 722 770 734 689 761 738 754 710 772 719 757 704 694 713 734 744 675 716 753 674 696 689 699 719 718 722 690 698 697 739 691 657 641 709 745 727 692 734 744 695 695 658 674 713 724 718 730 656 758 728 711 760 686 682 702 730 647 757 712 707 709 659 716 699 701 740 728 681 692 708 720 683 740 730 709 701 670 754 660 738 737 804 739 746 778 724 754 744 691 712 739 711 712 717 726 710 769 750 795 690 749 732 703 680 717 721 761 661 704 746 722 696 720 719 760 753 724 711 705 750 784 695 723 725 750 687 722 673 693 750 734 683 728 677 737 721 727 744 688 698 726 638 692 652 688 674 680 724 714 708 731 733 710 722 669 742 745 731 726 743 699 745 701 732 736 699 780 798 713 801 672 753 768 711 730 719 765 758 728 728 774 743 706 750 741 785 751 732 774 711 752 742 727 712 755 744 687 725 742 729 703 725 721 736 702 731 732 768 778 738 724 748 722 692 741 710 750 751 705 740 724 746 742 768 691 730 802 743 740 744 775 777 774 795 732 815 729 751 736 775 770 734 713 765 768 817 777 817 818 757 814 712 783 786 779 823 792 766 762 799 804 833 753 789 759 782 795 750 793 770 722 712 745 704 731 754 757 721 748 710 714 729 757 787 664 702 751 721 769 731 745 716 793 731 735 729 711 721 707 754 728 731 718 761 736 749 696 746 757 744 744 731 714 714 745 720 688 737 753 722 783 749 744 737 691 741 704 785 776 762 678 734 707 710 731 743 746 680 709 717 742 739 730 698 720 722 711 732 706 759 723 714 778 693 685 712 726 682 757 729 740 662 701 641 708 723 749 720 716 702 734 713 720 697 735 707 756 763 728 732 712 720 726 671 700 693 698 676 720 690 671 712 693 723 685 702 763 714 749 708 680 774 726 707 720 737 728 753 708 726 732 706 734 736 736 730 706 695 801 691 697 738 741 717 729 742 701 670 751 720 710 742 736 750 741 730 670 739 724 757 698 764 722 748 787 788 744 785 689 816 782 739 767 719 717 730 792 712 771 793 787 779 792 732 770 772 734 715 770 751 789 776 763 720 743 749 774 740 729 757 683 718 748 759 745 723 741 760 743 726 780 736 758 706 723 718 730 741 724 748 751 791 704 764 706 758 668 650 687 745 751 738 748 692 752 737 622 757 702 775 747 807 707 719 730 733 751 698 716 751 704 800 749 740 781 725 755 716 718 721 738 770 723 712 762 729 758 733 803 691 725 709 756 761 718 719 767 750 711 694 766 742 736 766 708 763 753 722 761 737 718 730 728 761 779 801 801 786 753 800 730 748 736 725 706 725 730 690 778 785 731 701 731 725 766 710 761 743 733 760 785 755 744 771 770 723 715 764 764 742 727 787 743 775 777 766 743 700 785 740 759 755 762 794 692 733 783 731 774 737 788 737 795 726 755 739 743 770 750 787 758 791 811 737 750 777 777 797 768 853 788 763 832 769 809 751 814 837 803 792 830 824 810 877 844 885 823 819 858 828 800 879 846 902 870 884 872 912 934 872 909 888 891 876 839 919 831 889 889 873 845 791 915 846 834 826 877 860 888 813 837 839 850 835 814 815 814 821 847 818 814 868 780 787 766 826 746 861 836 782 718 810 771 747 819 844 757 810 765 768 777 799 783 740 838 723 777 754 813 785 777 740 776 745 750 761 751 746 782 752 711 717 771 725 770 829 766 760 774 794 766 768 720 761 793 755 782 711 779 704 716 788 757 754 745 777 784 732 756 754 722 786 729 708 788 770 742 813 741 780 791 710 758 817 790 724 765 751 766 802 801 756 720 772 769 808 757 779 765 872 774 741 813 779 759 767 742 780 793 694 780 800 781 792 745 859 751 825 771 812 810 797 765 748 743 792 770 797 768 813 824 835 864 833 826 860 880 837 871 848 919 925 896 885 931 961 943 861 924 983 959 949 988 1008 1021 1016 999 991 1038 1006 1033 1029 1031 986 970 991 1008 1047 1021 1051 1067 1010 1046 1044 1014 985 1010 955 975 1044 1009 983 966 1077 921 1040 1009 1008 957 975 919 971 999 952 949 971 960 882 939 918 951 928 953 843 922 872 880 914 925 878 861 903 809 801 794 857 817 805 803 823 811 850 770 810 820 786 807 799 736 831 825 784 782 848 802 798 758 744 748 779 777 799 774 805 814 777 752 708 753 759 796 772 731 774 728 797 719 778 741 784 765 798 732 776 744 754 785 802 786 773 745 777 714 744 698 742 745 710 702 684 718 756 792 776 754 761 741 725 801 700 722 685 722 749 747 729 706 758 744 748 765 763 706 779 725 719 654 718 766 745 729 702 725 753 766 751 735 772 773 764 777 724 757 755 738 739 726 725 769 752 766 780 796 726 755 756 725 697 765 781 718 779 724 800 767 823 741 755 741 757 726 744 741 730 744 734 733 777 737 769 744 771 716 732 735 763 763 779 757 718 754 660 766 749 760 726 785 746 738 709 777 762 759 728 730 778 789 819 776 750 766 800 697 745 771 758 735 748 690 703 718 723 699 758 758 749 768 773 772 696 717 799 760 807 740 792 752 730 789 803 701 765 735 737 787 747 778 761 723 740 723 729 767 729 773 761 716 723 716 748 749 756 782 722 735 745 765 747 707 701 732 731 777 761 729 778 826 756 775 823 709 768 792 728 776 812 791 787 782 793 777 821 788 780 810 883 792 863 870 856 853 798 925 881 833 844 830 947 787 945 891 880 856 892 855 885 878 869 870 940 889 902 832 883 930 887 883 834 829 821 816 827 861 798 850 878 838 810 804 868 843 807 795 806 836 780 769 781 768 812 785 779 761 770 745 721 754 794 740 791 746 707 771 770 756 788 761 747 724 712 741 730 771 758 753 742 724 715 731 717 725 690 739 719 730 681 714 736 701 756 740 718 739 723 672 752 702 759 753 736 749 727 736 759 764 746 729 741 719 733 717 752 782 759 722 747 706 704 768 750 796 700 763 803 793 781 692 819 791 737 783 742 767 749 754 801 783 764 770 817 764 797 746 804 774 742 746 754 725 731 783 744 797 731 799 688 834 729 720 713 784 755 772 728 770 740 826 728 676 729 776 753 776 715 713 785 727 761 754 742 756 728 701 734 768 746 780 725 761 757 692 727 722 721 709 768 754 729 679 713 756 725 762 715 787 668 775 677 716 744 702 749 682 741 742 751 736 735 749 722 766 762 745 724 706 703 751 712 726 793 743 756 705 721 703 739 781 723 768 752 749 737 731 776 752 698 757 695 712 735 724 713 724 760 687 770 772 706 755 759 715 788 687 741 758 738 740 703 768 697 747 756 689 718 721 778 692 798 728 798 802 703 736 728 730 750 731 717 753 710 776 712 771 742 751 771 725 757 748 757 716 765 777 801 731 811 805 756 754 744 748 742 800 798 780 750 780 793 767 775 749 763 712 793 730 742 779 770 834 803 827 770 747 805 793 803 730 777 737 764 766 744 774 721 796 778 769 783 765 792 755 751 765 753 775 819 753 720 793 784 774 805 761 794 844 765 789 757 737 773 756 740 704 735 743 808 756 745 755 718 756 710 785 735 751 742 753 755 748 821 724 718 758 787 724 753 694 721 744 711 761 715 742 803 739 719 773 756 786 763 728 664 682 705 745 736 714 743 758 749 731 744 771 827 727 737 703 751 750 732 720 743 716 722 775 801 758 774 712 705 696 751 755 774 723 730 723 760 717 693 728 772 751 743 775 727 750 750 690 758 741 727 803 743 757 741 775 715 742 739 803 770 751 729 733 714 760 720 768 720 758 787 745 694 773 727 767 789 806 729 685 717 791 726 819 752 751 760 754 785 758 757 771 744 740 777 796 760 782 773 795 783 857 847 744 814 820 863 789 770 812 847 824 790 783 791 814 772 812 816 840 753 812 771 800 852 800 799 779 756 761 725 859 805 808 755 774 764 800 773 778 804 770 762 801 768 784 792 736 805 802 735 789 735 761 770 758 781 734 755 736 781 753 782 825 823 804 859 811 763 773 714 795 805 836 854 885 860 811 825 827 862 818 821 837 854 828 870 835 883 862 829 875 862 896 787 866 871 856 875 841 856 856 839 889 902 858 885 876 880 805 899 830 904 862 888 849 862 861 878 806 842 871 874 875 868 838 878 860 872 818 821 835 826 819 841 829 814 788 813 819 842 834 771 757 851 822 801 867 782 807 802 813 753 751 778 798 801 771 781 827 789 816 790 796 772 716 795 737 775 782 769 831 750 787 858 785 801 791 772 766 746 758 799 760 809 740 770 732 764 731 770 758 775 804 769 791 800 755 765 754 754 788 740 812 752 823 767 758 811 739 746 764 773 773 743 791 780 734 775 705 757 734 776 754 743 763 813 803 774 771 783 815 799 748 786 746 789 817 775 805 795 746 755 798 708 752 737 754 720 725 775 756 773 746 755 763 750 757 769 754 808 715 777 759 799 744 752 779 742 805 731 760 725 756 751 786 757 759 696 757 705 812 801 782 750 740 735 817 747 766 736 728 746 784 765 755 765 745 770 764 761 715 775 771 754 734 760 792 743 751 722 734 719 776 735 775 700 776 765 753 798 742 723 787 779 732 796 724 759 766 724 774 760 778 818 811 710 731 689 746 742 738 775 727 773 721 749 803 751 794 806 769 821 786 774 752 783 773 839 753 745 770 781 764 809 810 833 832 801 820 768 780 791 772 701 732 778 783 774 782 760 728 778 733 752 737 718 752 815 791 787 777 770 810 720 794 802 752 696 821 707 738 753 776 809 706 787 715 716 749 736 689 750 736 800 691 722 756 730 739 808 752 770 769 719 689 743 702 697 728 726 757 710 754 719 743 698 766 754 726 759 735 758 704 674 791 752 752 706 721 712 751 739 715 763 694 708 748 707 745 723 741 735 682 741 758 725 809 740 783 739 757 755 737 717 741 699 741 736 712 767 792 808 743 712 724 723 707 710 719 738 757 716 688 713 762 711 727 724 739 703 732 719 748 772 705 713 720 691 711 738 710 742 755 751 700 761 723 711 777 707 728 729 720 683 711 723 718 710 710 710 735 710 734 725 766 724 708 656 729 725 767 768 699 729 767 748 697 762 767 752 723 714 689 744 769 741 748 776 711 761 746 724 711 703 701 758 742 718 718 700 717 748 706 729 704 747 782 742 759 742 820 745 766 845 794 781 713 750 735 744 671 689 781 740 684 719 732 715 735 739 758 717 770 723 742 714 786 740 709 737 754 733 795 773 718 804 730 715 710 738 773 754 727 754 678 765 730 726 697 765 684 696 740 733 802 720 744 780 738 736 769 727 721 816 699 796 760 733 782 700 702 724 736 748 717 743 723 766 791 713 759 750 718 717 757 744 718 722 746 715 717 744 709 733 772 678 757 705 727 683 748 712 673 740 769 728 733 771 715 773 684 742 745 734 700 788 721 754 716 773 721 761 794 752 740 746 740 784 739 793 740 771 756 803 736 761 757 781 752 777 746 717 798 803 730 748 734 766 749 725 758 787 809 733 759 765 739 812 728 816 732 802 789 823 710 727 730 765 798 769 794 732 781 740 765 752 767 779 758 751 705 787 811 777 799 795 794 809 762 727 779 761 766 846 798 771 766 801 799 816 738 788 750 772 811 771 755 764 773 785 840 766 840</counts>
			</dataPoints>
		</scan>
	</xrdMeasurement>
</xrdMeasurements>
