<?xml version="1.0"?>
<xrdMeasurements xmlns="http://www.xrdml.com/XRDMeasurement/2.3" xmlns:xsi="http://www.w3.org/2001/XMLSchema-instance" xsi:schemaLocation="http://www.xrdml.com/XRDMeasurement/2.3 http://www.xrdml.com/XRDMeasurement/2.3/XRDMeasurement.xsd" status="Completed" recordIdentifier="{3B405C14-92FA-4E15-82DD-E3E4AEE7D907}">
	<comment>
		<entry/>
	</comment>
	<sample type="To be analyzed">
		<id>GPSS_Li1p5Mg0p7Zr0p2Sc0p1Cl4_121225_693c5ab8f4d05ae3d6974f22</id>
		<name></name>
		<preparedBy></preparedBy>
	</sample>
	<xrdMeasurement measurementType="Scan" status="Completed" sampleMode="Reflection">
		<usedWavelength intended="K-Alpha 1">
			<kAlpha1 unit="Angstrom">1.5405980</kAlpha1>
			<kAlpha2 unit="Angstrom">1.5444260</kAlpha2>
			<kBeta unit="Angstrom">1.3922500</kBeta>
			<ratioKAlpha2KAlpha1>0.5000</ratioKAlpha2KAlpha1>
		</usedWavelength>
		<incidentBeamPath>
			<radius unit="mm">145.00</radius>
			<xRayTube id="1010048" name="Empyrean Cu LFF HR (9430 033 7310x)">
				<tension unit="kV">40.0</tension>
				<current unit="mA">15.0</current>
				<anodeMaterial>Cu</anodeMaterial>
				<focus type="Line">
					<length unit="mm">12.0</length>
					<width unit="mm">0.4</width>
					<takeOffAngle unit="deg">6.0</takeOffAngle>
				</focus>
			</xRayTube>
			<sollerSlit id="21010002" name="Soller slits 0.04 rad.">
				<opening unit="rad">0.0400</opening>
			</sollerSlit>
			<mask id="22031000" name="Fixed mask 13 mm">
				<width unit="mm">9.00</width>
			</mask>
			<divergenceSlit id="22120001" name="Divergence slit 1°" xsi:type="fixedDivergenceSlitType">
				<distanceToSample unit="mm">50.00</distanceToSample>
				<height unit="mm">1.52</height>
			</divergenceSlit>
		</incidentBeamPath>
		<sampleMovement xsi:type="spinningSampleMovementType">
			<spinnerRevolutionTime unit="seconds">1.0</spinnerRevolutionTime>
		</sampleMovement>
		<diffractedBeamPath>
			<radius unit="mm">145.00</radius>
			<antiScatterSlit id="22090040" name="AS slit 9 mm (PIXcel)" xsi:type="fixedAntiScatterSlitType">
				<height unit="mm">9.00</height>
			</antiScatterSlit>
			<sollerSlit id="21020003" name="Large Soller slits 0.04 rad.">
				<opening unit="rad">0.0400</opening>
			</sollerSlit>
			<filter id="20030001" name="Large beta-filter Nickel">
				<material>Ni</material>
				<thickness unit="mm">0.020</thickness>
			</filter>
			<detector id="7010019" name="PIXcel1D-Medipix3 detector" xsi:type="rtmsDetectorType">
				<phd unit="keV">
					<lowerLevel>4.02</lowerLevel>
					<upperLevel>11.27</upperLevel>
				</phd>
				<mode>Scanning</mode>
				<activeLength unit="deg">5.542</activeLength>
			</detector>
		</diffractedBeamPath>
		<scan appendNumber="0" mode="Continuous" scanAxis="Gonio" status="Completed">
			<header>
				<startTimeStamp>2025-12-16T11:17:02-08:00</startTimeStamp>
				<endTimeStamp>2025-12-16T11:25:09-08:00</endTimeStamp>
				<author>
					<name>AutomatedUser</name>
				</author>
				<source>
					<applicationSoftware version="1.7b (136)">PANalytical Aeris Instrument Suite</applicationSoftware>
					<instrumentControlSoftware version="3.2.00000000 20240306">AERIS</instrumentControlSoftware>
					<instrumentID>950485</instrumentID>
				</source>
			</header>
			<dataPoints>
				<positions axis="2Theta" unit="deg">
					<startPosition>10.00943322</startPosition>
					<endPosition>99.99442286</endPosition>
				</positions>
				<positions axis="Omega" unit="deg">
					<startPosition>5.00471661</startPosition>
					<endPosition>49.99721143</endPosition>
				</positions>
				<commonCountingTime unit="seconds">12.495</commonCountingTime>
				<counts unit="counts">2723 2601 2587 2761 2680 2678 2678 2722 2730 2714 2750 2797 2694 2746 2556 2752 2727 2544 2758 2678 2663 2668 2696 2788 2638 2699 2580 2665 2695 2737 2661 2683 2648 2663 2632 2657 2655 2697 2686 2650 2673 2667 2768 2643 2698 2693 2730 2699 2620 2647 2703 2703 2696 2648 2612 2647 2581 2576 2625 2652 2648 2670 2642 2643 2625 2699 2604 2679 2625 2741 2671 2712 2671 2548 2586 2572 2680 2700 2622 2721 2641 2635 2791 2652 2704 2759 2720 2583 2658 2513 2769 2714 2658 2610 2582 2691 2749 2713 2680 2708 2739 2694 2785 2709 2620 2700 2612 2767 2702 2660 2673 2677 2684 2686 2758 2637 2737 2729 2700 2632 2645 2671 2740 2651 2628 2743 2717 2709 2748 2669 2703 2709 2698 2619 2650 2739 2754 2678 2667 2761 2731 2725 2633 2667 2622 2679 2690 2634 2760 2689 2683 2676 2657 2730 2624 2704 2657 2739 2679 2681 2699 2717 2634 2703 2672 2793 2675 2555 2741 2635 2601 2751 2670 2637 2628 2623 2683 2619 2622 2607 2694 2630 2701 2682 2742 2693 2637 2669 2599 2783 2678 2731 2727 2585 2696 2721 2629 2581 2671 2539 2681 2645 2715 2599 2685 2604 2602 2666 2672 2658 2738 2592 2538 2636 2626 2716 2662 2633 2618 2544 2629 2650 2650 2597 2626 2591 2586 2568 2573 2557 2544 2544 2685 2585 2589 2694 2610 2613 2631 2550 2585 2517 2592 2537 2652 2555 2579 2694 2609 2631 2529 2608 2519 2642 2561 2584 2588 2641 2541 2541 2508 2605 2551 2572 2567 2572 2506 2478 2510 2483 2502 2586 2513 2622 2521 2551 2538 2582 2571 2458 2490 2579 2611 2602 2606 2553 2611 2593 2540 2519 2671 2527 2548 2510 2588 2627 2486 2556 2537 2462 2422 2579 2543 2555 2689 2489 2666 2549 2679 2679 2567 2623 2584 2577 2597 2677 2678 2617 2665 2629 2707 2645 2617 2632 2568 2658 2664 2621 2717 2595 2668 2708 2759 2747 2773 2710 2698 2650 2681 2686 2684 2761 2775 2685 2743 2699 2723 2790 2728 2778 2691 2695 2725 2805 2799 2833 2780 2738 2726 2729 2759 2758 2711 2791 2739 2811 2870 2826 2759 2814 2813 2804 2806 2846 2717 2782 2789 2866 2776 2824 2966 2937 2973 2890 2932 2859 2979 2989 3019 2814 2848 2960 2979 2928 2900 2954 2939 3033 3033 3028 2900 2963 3100 3065 2972 3063 2998 3088 3143 3056 3046 3161 3103 3123 3217 3183 3279 3290 3116 3366 3291 3305 3373 3211 3498 3352 3320 3395 3338 3335 3229 3258 3299 3272 3398 3278 3397 3389 3433 3419 3290 3424 3236 3448 3363 3331 3425 3409 3407 3382 3373 3421 3548 3583 3571 3462 3453 3420 3527 3549 3508 3554 3512 3581 3556 3616 3601 3565 3479 3463 3540 3507 3455 3453 3401 3360 3377 3445 3346 3316 3330 3497 3379 3425 3322 3339 3409 3298 3278 3289 3225 3231 3257 3165 3180 3161 3105 3117 3154 3149 3116 3005 3039 2949 3136 2975 3145 2983 2985 2940 3066 2912 3164 3036 2850 2965 2923 2976 2884 2883 2817 2872 2881 2796 2898 2959 3012 2800 2777 2798 2817 2841 2723 2835 2819 2717 2843 2778 2885 2777 2768 2837 2801 2746 2743 2840 2784 2764 2720 2756 2835 2804 2639 2682 2729 2716 2689 2717 2673 2776 2671 2706 2652 2891 2709 2785 2705 2700 2721 2750 2741 2630 2655 2719 2732 2622 2657 2683 2674 2626 2715 2530 2659 2595 2561 2603 2709 2746 2708 2628 2626 2588 2690 2609 2560 2600 2585 2685 2579 2648 2660 2603 2555 2531 2585 2591 2594 2582 2640 2634 2602 2637 2629 2561 2626 2588 2585 2513 2492 2489 2659 2560 2536 2551 2500 2564 2572 2608 2577 2573 2533 2528 2516 2493 2597 2494 2484 2429 2496 2553 2502 2532 2457 2509 2560 2438 2495 2539 2454 2623 2483 2570 2529 2446 2538 2559 2542 2469 2531 2536 2459 2496 2456 2531 2578 2540 2384 2418 2439 2411 2502 2489 2483 2471 2447 2437 2463 2482 2468 2450 2390 2567 2477 2525 2451 2476 2375 2431 2425 2478 2432 2523 2518 2412 2444 2454 2509 2407 2448 2337 2493 2402 2384 2477 2372 2344 2466 2425 2289 2506 2445 2407 2396 2427 2381 2440 2346 2375 2476 2394 2397 2267 2342 2336 2401 2438 2365 2383 2439 2417 2385 2344 2365 2373 2368 2342 2399 2322 2433 2382 2450 2344 2462 2330 2321 2392 2326 2423 2369 2413 2447 2395 2343 2377 2375 2432 2355 2343 2439 2412 2395 2410 2315 2454 2409 2358 2393 2324 2360 2304 2435 2390 2362 2399 2375 2324 2282 2384 2287 2359 2283 2317 2323 2286 2366 2395 2380 2372 2244 2405 2361 2346 2344 2362 2307 2332 2403 2447 2414 2282 2368 2230 2346 2315 2338 2445 2225 2340 2386 2358 2263 2322 2283 2242 2246 2310 2195 2312 2329 2250 2272 2359 2309 2285 2296 2329 2245 2297 2304 2234 2258 2351 2221 2244 2243 2264 2284 2288 2328 2204 2344 2319 2284 2235 2351 2320 2334 2342 2280 2320 2265 2401 2214 2336 2292 2237 2264 2300 2274 2143 2264 2199 2247 2209 2237 2196 2204 2166 2247 2292 2308 2262 2113 2226 2218 2285 2244 2223 2280 2240 2191 2231 2244 2209 2179 2228 2144 2240 2212 2194 2192 2112 2191 2206 2233 2190 2172 2197 2202 2112 2154 2171 2164 2098 2199 2229 2112 2190 2292 2150 2132 2138 2203 2157 2144 2111 2135 2148 2151 2140 2120 2134 2196 2129 2081 2160 2043 2161 2114 2106 2052 2152 2163 2131 2113 2126 2158 2101 2191 2100 2077 2211 2165 2058 2091 2110 2066 2134 2104 2148 2131 2135 2061 2101 2070 2183 2037 2054 2079 2138 2087 2130 2105 2098 2200 2127 2159 2093 2075 2122 2095 2126 2037 2119 2126 2038 2097 2034 2088 2122 2177 2102 2084 2028 2089 2062 1979 2080 2104 2084 2191 2021 2082 2066 2112 2019 2054 2151 2039 2148 2095 2080 2049 2007 2026 2131 2180 2052 2061 2036 2042 2014 2134 2018 2162 2120 2061 2022 2046 1995 1973 2124 2039 2043 2101 2085 2177 2047 2113 2084 2083 2080 1997 2067 2105 2059 2097 2056 2149 2115 2092 2085 2058 2070 2145 1971 2162 2089 1975 2142 2095 2034 2193 2051 2142 2115 2065 2139 2149 2063 2107 2096 2064 2096 2120 2101 2200 2040 2060 2066 2180 2044 2005 2030 1982 2122 2107 2115 2184 2060 2093 2107 2132 2162 2090 2166 2050 2065 2053 2021 2094 2165 2023 2067 2095 2097 2087 2057 2110 2013 2104 2106 2036 2079 2043 2009 2033 2028 2032 2115 2127 2093 1997 2072 2082 2089 2111 2101 2114 2122 2027 2017 2062 2092 2085 2144 2051 2052 2056 1966 2071 2075 2027 2073 2038 2046 2110 2017 2008 2096 2004 1947 1946 1961 2030 2035 2061 1940 1958 2060 2029 2008 1961 1982 1970 1953 1981 1862 2038 1981 1938 1966 1893 1858 1877 1910 1977 1936 1935 1922 1900 1882 1980 1903 1959 1862 1939 1877 1975 1920 1894 1890 1863 1880 1834 1870 1855 1865 1874 1918 1830 1931 1866 1850 1839 1828 1958 1858 1738 1905 1846 1811 1812 1768 1795 1735 1816 1803 1759 1777 1787 1823 1706 1803 1842 1781 1772 1702 1758 1768 1768 1774 1739 1761 1677 1724 1705 1671 1775 1749 1708 1741 1710 1718 1645 1752 1650 1665 1681 1654 1677 1604 1645 1698 1677 1647 1612 1674 1670 1618 1631 1701 1607 1613 1618 1588 1542 1517 1613 1566 1611 1588 1539 1603 1562 1602 1599 1604 1610 1579 1562 1591 1649 1616 1588 1618 1444 1486 1555 1527 1550 1534 1498 1532 1541 1502 1521 1508 1483 1527 1551 1541 1494 1569 1599 1443 1546 1433 1468 1481 1503 1506 1493 1517 1515 1548 1507 1495 1499 1452 1475 1465 1491 1479 1466 1496 1440 1475 1436 1494 1399 1439 1527 1426 1464 1480 1429 1482 1565 1432 1490 1392 1503 1451 1461 1474 1483 1401 1485 1435 1517 1430 1474 1418 1431 1401 1358 1442 1375 1481 1454 1505 1462 1416 1375 1341 1480 1374 1420 1467 1400 1421 1470 1387 1426 1446 1371 1487 1378 1419 1393 1396 1425 1471 1340 1397 1365 1357 1391 1375 1350 1353 1385 1381 1363 1328 1429 1406 1397 1362 1340 1405 1359 1409 1452 1365 1368 1415 1370 1406 1415 1385 1390 1407 1362 1422 1432 1354 1385 1321 1356 1409 1372 1426 1399 1340 1320 1350 1361 1419 1350 1375 1428 1366 1405 1453 1353 1359 1397 1407 1403 1418 1387 1378 1396 1412 1409 1430 1425 1444 1360 1399 1394 1414 1444 1424 1440 1445 1439 1435 1377 1379 1403 1389 1383 1335 1433 1383 1390 1378 1430 1412 1407 1423 1453 1415 1424 1388 1404 1342 1393 1398 1379 1438 1439 1417 1456 1415 1361 1410 1354 1346 1410 1394 1388 1426 1426 1432 1350 1471 1455 1390 1360 1424 1349 1351 1346 1329 1410 1415 1411 1427 1427 1353 1442 1292 1399 1355 1406 1401 1378 1418 1387 1406 1415 1425 1416 1413 1422 1376 1416 1322 1408 1409 1389 1386 1384 1374 1355 1423 1402 1411 1409 1391 1427 1397 1438 1418 1308 1384 1364 1355 1284 1410 1323 1303 1417 1334 1335 1348 1391 1335 1266 1266 1365 1358 1305 1303 1382 1328 1246 1337 1336 1289 1297 1342 1376 1416 1311 1299 1280 1282 1271 1267 1272 1261 1332 1308 1275 1294 1276 1294 1265 1276 1284 1301 1304 1247 1199 1244 1244 1232 1304 1265 1283 1260 1213 1274 1210 1264 1213 1236 1242 1149 1291 1196 1241 1232 1196 1168 1254 1164 1183 1173 1226 1184 1217 1113 1171 1215 1165 1142 1222 1215 1123 1205 1127 1155 1087 1131 1126 1185 1136 1150 1104 1199 1181 1113 1105 1133 1172 1072 1091 1100 1052 1127 1183 1126 1145 1099 1150 1096 1195 1118 1102 1092 1122 1099 1094 1035 1138 1090 1154 1096 1087 1101 1050 1050 1113 1173 1110 1186 1114 1091 1111 1171 1210 1155 1213 1173 1181 1223 1234 1229 1231 1154 1179 1239 1184 1161 1138 1180 1164 1082 1062 1138 1099 1073 1035 1085 1098 1050 1120 1097 1076 1077 1133 1104 1106 1175 1095 1100 1098 1120 1179 1118 1207 1228 1134 1125 1138 1149 1043 1140 1110 1105 1089 1125 1135 1032 1041 1063 1060 1092 1003 1094 1075 1048 1031 991 1021 1017 983 1025 1046 1022 1028 1029 1016 1043 1027 977 1045 979 989 1014 995 983 954 1009 1020 993 1007 993 978 1010 1009 993 1041 975 966 1020 1076 1034 1018 1040 1078 1078 1049 1127 1136 1157 1127 1248 1188 1302 1357 1390 1554 1626 1658 1900 1966 2148 2312 2548 2678 2842 3060 3199 3327 3517 3494 3600 3360 3366 3335 3202 2933 2942 2693 2510 2485 2324 2299 2071 2068 2033 1956 1989 2084 2012 2055 2133 2240 2267 2342 2471 2536 2705 2708 2854 3024 3050 3092 3286 3199 3213 3393 3338 3286 3222 3103 3241 3102 3008 2906 2844 2557 2629 2527 2388 2270 2212 1998 1944 1894 1792 1817 1762 1668 1589 1673 1615 1530 1569 1482 1527 1556 1433 1495 1499 1446 1425 1462 1449 1384 1427 1370 1372 1402 1214 1279 1263 1218 1204 1130 1147 1134 1137 1109 1053 1113 1041 998 988 1056 1016 952 1014 1014 997 999 964 960 947 958 962 923 885 897 912 840 936 911 884 826 913 852 898 831 808 825 893 789 833 807 799 867 852 795 757 802 799 812 781 833 819 839 749 857 799 768 795 804 768 765 747 764 785 765 775 784 787 760 800 769 769 777 770 766 778 757 781 799 768 709 674 757 749 744 766 768 748 707 764 686 714 742 756 777 718 772 754 817 824 819 784 788 784 760 814 781 780 818 749 873 767 831 856 886 902 811 879 811 840 804 799 824 802 802 765 783 763 752 742 773 785 798 795 745 738 780 764 769 789 788 740 715 747 757 778 793 699 820 722 757 770 743 756 732 757 739 793 759 726 706 696 743 700 717 684 687 704 766 700 658 747 694 698 715 740 674 662 672 718 675 692 696 685 659 656 673 674 710 602 719 700 640 680 619 668 652 712 680 659 657 658 722 683 696 632 673 644 609 665 644 654 677 679 643 691 609 707 654 666 628 673 684 633 641 671 571 653 632 659 661 632 607 680 647 643 685 658 664 617 617 647 641 656 674 619 661 682 682 647 676 697 671 652 652 668 664 655 707 634 694 673 626 608 698 655 639 669 629 667 608 647 645 615 694 673 673 607 674 649 644 719 668 657 639 654 621 627 637 669 683 657 683 678 664 622 648 686 688 617 692 708 668 668 694 720 668 722 724 741 730 696 715 704 829 759 778 817 748 748 764 747 760 817 864 887 879 886 880 944 997 1023 1122 1154 1199 1279 1377 1463 1551 1704 1804 1994 2112 2228 2556 2580 2794 2870 3045 3140 3198 3256 3387 3337 3150 3138 2986 3008 2802 2794 2832 2620 2486 2381 2291 2179 2103 2084 2148 1988 2040 2062 2083 2174 2115 2158 2344 2374 2459 2542 2719 2736 2845 2953 3027 3051 3084 3287 3217 3158 3241 3296 3118 3033 2914 2945 2700 2735 2445 2350 2332 2165 2071 1901 1880 1709 1720 1617 1464 1505 1382 1345 1309 1323 1213 1300 1294 1216 1264 1236 1234 1247 1185 1249 1147 1222 1210 1176 1194 1148 1120 1136 1082 1044 1058 1025 1051 1006 1013 945 932 901 814 849 758 791 834 750 782 745 706 719 687 729 700 702 728 670 652 631 648 649 611 649 614 601 651 593 619 657 583 599 618 611 568 632 610 605 592 582 635 558 601 593 593 623 625 625 624 563 605 595 607 587 593 641 600 543 640 577 557 560 523 590 632 572 554 560 577 575 617 548 565 621 551 583 579 567 549 543 561 568 535 561 541 529 583 575 557 581 569 613 523 588 522 560 592 568 530 581 528 582 530 559 538 568 584 547 566 555 529 551 558 529 524 581 581 555 514 548 519 560 528 559 560 532 550 527 523 517 556 515 516 534 569 524 541 538 520 547 554 553 524 550 515 600 516 551 484 498 558 524 555 541 545 537 533 533 571 547 527 558 553 529 598 521 534 475 569 529 539 541 524 560 514 536 521 467 506 529 542 542 518 467 567 505 502 507 528 559 516 535 481 533 529 544 512 542 503 535 525 492 471 544 502 500 525 510 504 518 528 521 483 483 485 532 516 524 525 489 490 485 484 518 492 454 515 498 492 515 486 462 502 500 519 539 520 479 438 491 476 528 498 516 433 510 477 488 461 478 487 486 494 480 469 503 470 509 470 484 503 498 510 493 468 464 474 528 463 459 504 453 481 520 458 517 506 488 461 446 446 500 436 447 492 506 480 464 454 509 451 450 426 437 461 483 448 432 481 460 450 488 491 462 474 461 477 460 423 484 459 457 500 417 459 458 448 494 445 483 461 459 465 485 460 495 456 505 459 511 476 462 469 494 446 452 432 442 469 463 454 442 492 447 427 464 446 419 469 417 433 475 460 451 509 449 465 461 400 478 448 434 422 452 437 449 439 452 453 460 448 450 475 498 440 476 466 450 483 466 468 467 448 467 466 436 432 424 459 449 443 441 419 458 403 462 449 423 449 449 454 447 425 463 451 464 431 456 452 442 480 426 449 448 456 463 429 460 425 407 484 459 436 407 444 450 476 453 451 439 404 452 407 430 428 443 418 476 409 465 434 448 446 437 416 434 425 452 426 430 448 432 454 440 437 404 419 413 446 410 421 443 419 423 426 401 426 444 414 428 462 417 417 439 448 419 432 412 418 411 429 427 460 425 463 422 442 427 404 497 422 406 414 420 410 444 420 414 440 427 468 413 459 404 418 427 399 412 447 421 431 433 429 475 463 412 458 415 434 418 431 459 435 457 432 436 401 410 401 414 410 449 407 442 419 414 458 403 423 405 406 451 421 389 412 451 424 444 410 401 412 453 426 442 459 433 464 421 433 444 409 464 485 434 444 489 440 464 481 495 436 454 453 443 488 437 439 453 462 445 441 431 422 429 408 398 442 467 447 440 474 470 406 423 434 443 451 439 451 448 406 414 495 422 450 424 463 427 443 450 469 446 411 428 408 434 459 429 413 416 429 395 404 395 396 429 454 393 414 422 440 398 393 446 427 409 396 430 400 423 410 438 383 423 390 414 430 444 432 455 408 409 401 377 341 407 393 433 387 417 405 425 420 431 418 409 395 424 439 419 395 423 406 409 390 405 432 394 426 400 416 431 385 417 429 389 376 371 440 399 373 390 405 398 397 403 400 457 419 394 414 379 370 403 414 405 365 411 434 425 402 368 392 415 383 383 407 414 387 425 446 388 399 401 393 387 399 400 386 395 378 380 386 387 409 386 366 355 404 360 410 401 410 375 431 409 414 350 432 377 396 412 335 414 382 390 384 407 429 372 394 380 411 369 360 392 399 391 371 368 389 404 358 380 390 399 366 433 400 393 398 387 368 365 400 426 374 359 382 364 413 388 403 406 371 387 362 415 422 389 392 387 437 367 384 424 378 405 380 419 393 383 403 360 388 335 406 367 420 385 361 372 378 397 383 373 400 358 395 393 378 390 374 378 381 412 340 365 396 388 385 378 372 404 348 385 376 387 358 394 410 369 379 399 374 371 407 399 358 337 374 374 385 373 375 365 356 385 368 362 392 405 395 407 384 376 386 379 396 414 395 431 367 400 388 452 379 426 454 412 421 428 459 483 476 495 533 513 529 539 557 559 585 582 604 629 651 633 581 611 639 603 582 598 580 516 564 501 518 538 492 528 503 454 453 493 446 527 499 472 439 479 476 481 474 479 463 451 485 501 515 489 453 478 474 440 464 431 444 439 422 425 481 430 440 462 408 423 404 384 412 397 411 385 364 387 416 418 413 375 382 399 390 384 408 399 352 391 391 393 385 397 386 403 343 395 369 399 386 392 388 395 357 381 394 407 369 396 375 344 354 406 408 395 392 342 367 367 331 366 350 369 397 402 383 343 396 363 375 377 347 354 381 338 348 377 380 321 362 387 356 374 373 341 346 355 352 350 382 374 376 362 358 401 380 371 374 319 372 343 405 362 328 376 352 378 347 386 381 348 353 388 372 317 375 386 375 324 332 335 356 334 365 361 356 345 346 386 329 372 343 352 327 362 342 354 341 387 349 391 342 359 343 322 354 342 335 386 360 378 324 377 344 377 344 338 401 378 346 318 315 335 373 352 347 367 369 345 358 340 336 380 341 373 343 359 354 341 320 360 364 391 335 354 347 324 358 363 372 377 379 336 362 360 390 398 365 364 371 387 324 373 331 393 340 354 365 367 320 383 351 377 375 361 334 356 374 355 324 353 385 335 397 356 335 317 343 379 359 343 348 320 398 368 367 354 372 359 330 347 352 350 412 352 329 346 334 366 331 366 328 357 317 339 362 389 353 384 402 362 373 366 357 362 385 381 375 428 364 365 347 356 361 334 397 353 323 352 342 385 374 383 380 355 427 354 382 391 347 386 363 370 390 352 396 352 394 363 343 376 403 397 364 402 394 424 441 439 447 407 398 436 455 421 424 448 411 452 421 447 513 437 486 510 494 494 548 595 611 648 631 708 756 798 886 957 1071 1127 1168 1247 1336 1351 1429 1535 1560 1623 1650 1779 1764 1846 1789 1727 1646 1735 1686 1623 1548 1558 1445 1562 1401 1454 1345 1306 1273 1214 1229 1214 1141 1162 1161 1169 1202 1104 1133 1137 1174 1114 1128 1200 1187 1067 1174 1165 1085 1067 1098 1051 1076 1130 1039 1081 1037 1029 1034 984 1054 992 1049 1029 989 972 1019 924 969 1017 971 921 919 930 912 891 850 840 856 810 822 796 793 716 752 721 700 748 704 703 685 660 668 645 672 674 665 593 645 611 608 617 559 570 532 585 571 556 535 528 555 570 512 517 532 531 503 491 500 463 497 434 480 473 462 441 468 427 447 447 445 453 418 400 453 400 462 434 425 437 401 406 432 392 389 420 380 391 397 346 370 374 378 383 364 355 343 388 393 362 388 340 338 376 347 325 347 388 363 358 374 344 365 390 336 359 343 330 340 301 333 355 347 350 324 331 306 334 323 330 357 323 319 337 324 347 304 315 301 312 333 363 340 329 315 336 328 334 336 329 328 353 314 332 357 373 336 329 352 360 364 360 366 351 360 376 409 362 392 386 391 384 371 362 437 402 378 426 406 388 419 420 395 351 388 379 376 385 385 368 376 376 390 361 375 328 379 327 363 376 356 371 363 349 387 339 373 345 399 382 368 371 371 365 358 365 317 347 346 328 366 359 334 386 343 373 356 386 344 337 320 318 330 369 320 316 351 396 320 338 309 293 295 317 307 327 305 319 337 320 297 355 345 344 309 319 322 312 311 313 282 329 280 307 317 292 298 310 308 301 328 305 320 279 308 300 300 298 316 309 320 308 326 306 325 294 305 234 310 298 271 312 323 318 291 277 321 283 258 270 296 314 318 318 288 303 285 303 318 258 294 277 306 284 297 279 276 305 286 292 295 309 297 301 303 269 282 313 267 279 290 291 287 309 271 298 284 322 281 310 295 270 303 304 261 287 297 323 305 286 288 276 284 276 279 275 264 282 274 309 298 291 288 278 319 296 283 263 282 304 283 280 269 284 293 313 268 283 296 276 298 308 288 284 311 298 313 282 283 290 299 298 301 285 280 278 298 291 269 276 291 316 315 281 303 332 298 309 318 295 302 319 296 287 287 299 326 327 325 318 353 309 348 360 325 272 323 291 317 292 333 286 271 307 298 303 310 320 306 293 292 300 306 325 305 303 292 292 303 313 279 319 289 317 269 257 279 320 269 317 324 296 296 307 296 270 290 300 282 263 286 263 264 256 296 239 281 290 294 268 249 271 268 298 300 294 264 296 285 268 284 264 292 281 245 297 269 270 298 290 268 244 290 289 297 270 258 263 262 256 262 248 266 312 285 268 287 289 307 300 268 289 269 272 292 256 279 259 299 273 282 273 282 241 269 234 250 300 232 241 268 250 261 266 246 258 269 277 287 268 280 270 291 264 229 243 247 250 274 259 282 243 288 263 258 278 272 266 259 233 276 232 266 256 263 238 282 267 237 248 270 267 282 265 287 270 287 284 264 271 246 284 241 267 280 258 271 245 263 279 291 269 284 246 276 274 271 250 286 286 256 280 270 268 226 288 247 264 272 284 262 304 244 264 238 288 275 276 278 256 259 242 288 282 277 275 274 269 251 240 227 285 260 260 230 239 261 269 260 265 261 282 226 282 257 248 294 258 259 244 279 247 286 261 232 262 247 262 283 259 286 248 287 273 276 261 316 273 272 268 260 276 256 263 265 214 248 226 242 265 264 257 245 267 257 236 230 247 235 234 276 221 243 298 241 261 263 263 273 242 256 241 263 243 266 260 270 241 247 274 256 240 228 260 266 278 241 282 280 247 262 244 264 257 271 282 272 285 284 290 272 272 236 300 243 287 286 272 269 271 291 301 280 291 308 272 278 287 288 308 324 263 311 277 314 295 280 294 324 319 288 315 327 277 297 280 302 323 344 322 325 307 336 310 320 375 347 365 382 351 372 405 430 422 440 474 522 534 570 550 592 626 580 593 609 601 699 669 645 631 665 671 650 618 682 677 599 620 638 615 582 583 611 592 575 542 575 573 556 527 523 520 487 501 498 510 441 497 481 466 452 487 458 457 466 445 422 433 439 414 384 387 394 431 440 413 402 421 417 412 399 384 374 392 400 434 400 391 380 406 403 434 388 433 380 433 376 406 412 413 406 428 428 400 395 413 397 401 400 401 396 426 386 410 389 386 371 387 374 351 358 373 320 347 352 337 362 361 326 366 367 354 363 341 357 312 308 335 294 334 349 353 329 337 339 313 331 333 283 317 346 334 319 297 281 309 332 338 328 301 279 294 298 292 287 316 311 310 311 296 304 286 299 263 264 301 287 258 288 271 248 290 278 312 269 269 285 280 284 277 280 271 267 233 264 283 265 280 230 258 264 248 272 279 272 242 258 282 270 267 262 285 273 213 242 238 221 232 249 226 270 249 249 275 272 230 243 267 235 243 235 266 238 250 290 242 272 234 268 261 270 236 300 266 233 268 247 245 241 233 238 280 245 247 287 250 236 248 268 269 262 266 292 266 270 264 287 266 295 269 289 262 287 277 327 316 338 309 337 393 388 387 415 463 482 520 520 516 509 547 553 560 591 565 602 575 608 585 646 581 572 533 520 538 505 546 547 517 553 470 502 508 487 470 486 440 445 437 408 435 407 458 427 412 416 363 381 411 382 389 359 399 374 371 345 368 313 361 361 366 302 339 326 309 334 336 343 333 325 289 310 317 291 329 331 325 289 284 337 306 319 270 320 289 337 337 345 361 339 361 366 376 306 319 314 343 305 324 324 339 315 323 348 303 337 310 312 313 302 333 291 289 288 271 269 279 316 278 278 272 286 279 289 312 280 272 287 274 315 322 299 285 320 260 275 267 308 284 266 272 273 257 246 264 257 245 286 250 263 273 239 273 248 263 267 259 224 234 219 262 248 244 232 228 291 232 232 271 235 229 260 228 249 250 208 250 231 286 234 266 245 220 237 229 235 233 234 247 236 235 266 260 247 259 284 278 279 248 310 278 302 284 266 302 278 264 261 270 281 295 304 287 245 291 303 277 263 269 257 266 275 287 288 283 296 296 287 281 248 272 248 250 302 280 232 271 264 287 249 237 263 237 219 265 233 241 243 229 242 239 224 259 235 257 279 242 206 223 248 239 242 212 229 228 232 218 233 228 213 225 197 241 205 205 199 215 214 224 248 243 236 212 188 214 219 245 226 216 205 218 197 240 199 222 240 234 216 236 221 185 230 223 233 235 245 227 221 203 226 227 194 187 214 188 202 229 215 235 225 242 227 220 230 212 244 232 211 221 192 224 195 215 212 190 211 224 232 208 213 227 209 215 230 197 214 213 236 207 204 208 176 217 225 197 223 193 191 195 222 210 201 229 214 227 191 213 212 211 227 234 222 200 224 236 224 201 220 183 219 211 214 206 196 177 196 209 226 193 203 195 232 209 222 217 195 192 244 219 207 204 227 235 197 236 216 205 223 227 190 201 211 228 181 232 204 233 204 194 175 192 190 206 196 225 200 210 225 204 242 215 214 195 196 224 205 201 174 195 230 188 226 190 178 216 226 197 202 212 199 215 211 180 247 200 205 216 188 201 197 190 221 194 233 230 204 203 206 191 222 198 202 224 195 193 220 175 240 218 206 209 217 223 226 200 193 208 190 192 212 209 203 194 221 207 205 193 196 227 193 240 201 200 199 185 221 202 216 197 207 186 203 216 204 233 216 199 195 223 179 199 171 247 212 222 190 219 192 205 213 210 214 199 184 235 196 197 204 211 194 182 202 228 226 206 197 194 184 212 211 194 224 189 185 201 183 201 178 189 203 184 219 186 200 192 213 188 175 198 208 206 203 184 179 194 180 200 220 202 189 226 234 240 192 195 206 198 214 181 190 209 199 198 215 189 202 201 183 196 218 205 186 184 198 211 182 191 211 187 175 207 175 212 189 178 200 214 231 197 196 208 173 201 188 180 190 198 195 168 173 176 191 189 191 177 194 183 203 201 201 200 232 188 182 222 222 205 184 208 191 198 209 172 203 192 206 191 208 215 207 198 208 212 205 170 199 225 190 196 196 209 210 198 218 190 202 184 193 176 198 198 182 220 196 185 206 203 178 202 201 213 209 216 223 214 197 216 215 193 200 190 209 220 223 209 208 239 234 236 211 257 200 214 218 235 244 243 258 243 246 206 224 205 208 196 238 236 229 241 236 221 221 238 205 226 224 218 203 204 222 234 219 216 235 222 205 182 225 177 218 208 246 227 191 225 207 193 203 181 229 216 177 185 198 201 184 202 184 193 213 203 192 224 201 214 205 183 191 189 193 207 193 223 213 176 212 189 202 185 212 181 212 196 203 189 196 202 205 204 195 206 190 247 186 180 184 189 178 160 218 183 194 196 210 209 231 222 192 225 190 196 202 203 198 228 187 205 210 206 185 212 213 219 199 215 189 219 175 197 190 201 176 220 208 209 190 194 197 188 206 175 206 178 197 168 195 187 175 184 206 197 218 162 183 175 184 173 180 189 190 213 190 206 197 227 195 228 196 193 195 193 187 188 177 171 204 157 186 181 173 205 186 172 228 180 212 166 170 196 165 201 201 192 194 191 178 226 190 163 185 201 180 209 218 181 171 193 204 179 203 197 159 203 175 189 202 183 212 190 203 183 184 193 216 194 191 190 189 199 222 170 200 201 213 200 179 183 191 203 195 219 174 214 188 195 199 185 178 175 180 195 202 202 194 210 193 201 206 193 194 174 202 206 198 186 204 184 213 196 215 202 227 209 236 206 221 211 213 225 208 201 199 226 201 214 242 233 209 200 203 202 228 256 242 273 248 240 260 245 242 261 266 233 273 271 305 274 277 300 300 298 274 300 303 290 281 300 306 284 274 293 247 319 263 284 262 263 275 276 261 295 335 260 261 264 288 249 275 272 260 241 240 242 227 264 235 256 212 232 258 235 236 247 240 228 218 229 247 220 241 209 224 221 217 228 229 235 277 227 218 241 206 236 215 200 183 216 214 208 204 250 214 222 198 228 189 256 201 228 214 224 233 219 216 236 263 273 223 182 260 219 211 237 220 202 242 202 215 220 219 238 239 241 247 219 223 232 222 245 234 240 239 240 259 249 210 233 216 239 204 226 218 208 222 223 205 229 191 231 206 235 219 212 215 203 204 204 188 195 261 211 244 210 229 198 195 211 229 207 218 203 214 193 206 214 223 226 211 191 183 204 185 236 199 209 193 204 208 214 190 193 207 213 188 207 175 190 226 172 203 195 228 203 214 210 222 198 182 181 215 196 182 219 180 185 202 183 201 199 214 176 163 206 222 203 184 224 208 190 201 216 202 210 211 205 190 179 189 190 196 193 196 206 190 223 176 198 224 195 161 213 195 211 191 193 160 179 187 196 193 180 199 180 163 175 177 192 206 191 203 188 210 177 188 170 215 208 190 173 175 191 194 201 200 205 188 196 213 188 195 187 188 197 194 209 193 181 167 186 187 172 182 190 184 219 177 187 206 190 204 197 205 217 199 145 170 192 176 193 218 199 190 174 193 204 199 190 197 189 196 206 194 195 204 201 206 202 194 237 178 193 184 167 176 201 187 240 174 179 195 180 192 199 178 205 188 177 189 219 209 187 182 183 180 184 198 197 195 192 197 175 226 172 213 178 180 191 182 196 179 183 199 212 187 229 204 213 214 222 177 206 181 205 193 215 190 199 190 210 166 207 215 203 210 211 221 219 210 231 218 185 227 187 216 191 193 201 195 194 170 225 215 218 191 198 209 180 204 193 176 194 200 200 167 220 197 182 189 209 204 191 229 178 227 191 190 216 214 215 196 198 206 198 200 216 205 192 218 213 206 212 197 210 189 189 203 230 218 198 189 206 191 195 200 181 200 195 217 203 194 203 183 205 181 218 178 180 179 215 196 218 200 192 197 206 171 207 202 202 209 203 201 183 201 211 207 215 184 200 217 177 203 184 216 178 210 177 197 198 153 221 175 183 194 222 171 192 212 202 184 198 231 194 188 183 209 195 197 220 178 210 216 190 201 216 190 172 189 203 187 201 195 184 184 184 182 218 209 180 209 187 207 184 220 190 199 184 196 202 224 208 198 184 188 187 189 196 207 211 201 200 193 211 213 193 206 210 230 201 204 224 208 194 192 196 196 190 192 215 196 177 212 205 225 217 206 221 219 207 219 226 194 214 195 204 193 194 231 190 193 191 203 211 206 205 207 203 203 206 205 216 178 177 203 219 189 195 203 198 219 217 203 195 233 211 199 232 222 216 195 191 216 188 207 229 202 206 221 239 226 225 207 219 222 193 224 212 237 229 234 241 201 239 248 212 226 227 241 248 217 230 219 229 218 228 218 259 226 258 207 217 246 226 242 267 225 181 214 198 203 238 222 213 240 244 240 240 231 233 218 250 269 294 241 270 276 241 269 287 262 246 277 251 275 250 290 288 287 292 305 282 290 274 303 275 265 316 303 296 291 305 285 314 306 278 287 271 300 283 308 313 316 302 300 293 277 260 269 285 280 258 284 301 268 298 259 297 262 248 273 290 241 307 245 264 248 251 236 230 257 218 244 248 270 247 248 261 248 193 240 234 237 233 247 239 241 219 231 235 260 221 266 224 216 242 264 236 234 218 241 237 233 238 239 236 242 261 213 258 224 237 212 243 245 272 264 268 221 258 240 269 239 263 227 240 263 275 280 223 268 260 231 274 240 258 237 257 276 251 269 237 243 256 245 268 249 256 217 224 246 257 258 222 267 276 257 246 261 209 237 240 236 228 266 246 230 256 264 231 221 224 228 259 228 262 292 246 242 213 230 237 219 230 217 258 227 209 262 236 245 277 259 269 231 231 242 266 259 229 215 216 237 239 247 234 217 223 222 270 247 237 265 246 258 230 218 226 258 245 240 237 275 232 269 241 257 262 241 269 276 236 248 297 283 299 274 341 286 318 322 270 355 351 351 333 380 345 371 364 336 357 401 383 404 403 371 384 403 415 406 403 387 409 369 417 408 413 419 391 400 393 426 387 422 425 379 405 378 382 400 382 377 382 404 410 383 355 349 352 330 333 299 317 377 308 340 315 303 288 294 303 304 324 290 278 285 299 290 247 258 304 284 268 280 286 286 256 285 276 250 273 278 275 259 270 244 273 278 244 242 233 265 282 278 269 238 248 287 241 264 242 281 270 273 256 276 264 249 277 305 265 245 274 277 265 238 257 289 236 293 281 275 242 283 279 328 261 271 281 263 302 273 292 262 311 288 273 270 260 278 284 298 285 278 289 266 278 272 296 239 274 286 262 298 235 232 276 244 274 274 280 276 264 265 246 278 248 269 278 275 249 238 280 302 262 239 256 256 260 268 263 244 237 234 236 264 221 234 250 256 272 249 258 258 231 236 206 239 233 217 233 218 233 210 238 232 223 234 193 223 210 232 239 224 243 222 232 219 237 193 205 225 228 200 230 228 229 199 232 229 230 222 244 222 204 214 247 209 225 229 240 229 214 221 245 236 236 226 213 200 199 209 202 203 207 187 219 194 217 181 213 223 207 191 180 210 174 212 194 193 197 209 202 210 202 220 214 226 214 209 219 191 180 197 189 180 208 224 208 191 194 207 211 206 197 190 217 217 172 197 189 205 208 206 223 204 206 205 223 194 218 209 215 223 195 205 195 177 199 233 210 210 213 210 192 204 186 224 179 177 223 196 231 182 175 180 190 207 232 201 198 215 176 194 191 187 179 192 219 209 202 200 205 209 199 217 207 208 192 196 194 201 171 200 164 214 214 210 197 201 190 184 186 202 174 178 179 186 191 181 188 206 210 186 179 201 191 195 190 189 222 191 178 184 193 199 181 199 193 198 175 203 200 181 179 220 176 202 211 214 214 222 196 198 218 184 189 184 189 185 196 198 197 233 201 223 212 222 159 203 183 196 183 173 223 182 212 209 206 214 223 200 193 200 208 221 197 184 222 183 191 202 175 178 188 208 185 180 211 188 179 179 169 184 199 192 198 183 217 197 181 171 194 213 155 193 184 172 176 204 171 193 188 204 188 181 205 182 201 167 188 180 175 189 194 204 191 177 193 190 182 169 215 172 184 182 192 168 194 189 178 202 205 193 195 194 196 235 202 204 203 215 182 203 200 184 188 176 211 181 213 203 191 187 180 174 191 175 202 175 194 194 186 181 168 193 191 204 197 208 193 196 207 217 186 174 194 182 187 188 216 190 184 183 188 195 184 172 189 179 192 181 188 172 205 191 194 192 183 180 200 187 194 168 205 182 189 194 177 188 165 187 201 201 183 188 200 200 201 179 204 190 188 215 173 180 197 186 192 174 185 193 175 207 198 204 184 193 184 195 175 187 198 188 214 205 182 180 218 186 190 197 216 193 218 215 210 204 197 201 219 196 172 204 182 211 176 205 188 179 195 189 208 205 198 198 185 204 223 203 191 205 183 202 180 213 204 191 206 220 207 185 191 188 170 195 184 189 186 199 193 195 222 219 180 214 202 193 196 190 178 203 181 184 194 183 206 182 161 183 196 175 186 159 159 182 177 168 206 191 205 214 180 203 180 213 175 207 178 204 199 188 195 182 185 181 173 146 163 170 189 173 226 181 191 191 204 191 181 194 173 193 185 178 189 220 182 187 199 212 191 186 182 185 215 188 180 195 194 173 184 189 193 179 192 200 182 191 196 203 188 187 182 197 198 153 173 187 179 200 193 191 213 170 199 184 183 159 198 182 189 179 193 172 210 154 201 201 181 187 170 207 179 189 204 182 188 174 189 199 181 218 207 186 180 185 153 202 185 185 170 184 172 183 166 185 151 201 191 184 176 201 180 175 202 188 211 160 199 193 181 172 181 165 194 199 185 177 166 177 171 153 175 163 162 205 203 174 208 183 194 190 196 190 172 214 191 199 209 183 190 182 193 190 191 175 185 181 196 199 177 197 197 177 183 190 183 189 186 179 193 173 202 192 172 203 213 183 224 213 199 210 218 203 200 216 203 193 207 209 257 233 178 216 202 240 231 246 236 243 240 248 301 242 250 259 265 262 267 284 264 241 249 274 287 296 306 308 282 299 292 310 324 344 328 343 319 330 329 355 335 306 305 370 300 344 314 355 333 377 309 340 323 298 311 302 278 314 333 277 292 279 306 271 281 288 281 299 314 305 267 295 256 264 258 266 269 235 249 222 294 256 229 265 271 273 236 261 243 239 222 230 197 235 204 210 213 200 239 223 214 194 191 206 223 222 193 194 207 190 196 210 208 199 224 199 230 172 205 201 209 199 207 179 225 212 215 212 201 216 191 208 209 216 197 231 203 217 218 191 201 212 215 215 204 198 211 234 218 228 212 216 215 193 196 207 216 223 224 186 207 214 191 176 216 210 223 229 234 200 207 219 262 213 231 233 219 234 228 210 215 219 221 201 210 235 228 214 199 211 192 186 256 213 201 210 203 246 243 240 249 212 185 196 219 217 236 215 190 203 203 227 188 203 213 196 237 220 207 188 225 200 197 236 205 228 192 197 206 212 198 221 214 227 234 208 208 235 234 213 213 208 189 219 171 187 181 196 219 175 182 190 210 192 176 218 208 192 177 201 202 187 182 167 158 181 188 184 191 169 173 186 166 175 180 194 183 179 209 194 178 191 183 189 178 175 165 186 196 193 178 200 197 193 192 188 207 196 178 203 157 185 194 207 208 183 229 188 170 175 212 172 193 183 179 178 203 180 190 163 175 207 180 171 191 202 189 183 188 210 190 206 179 179 176 192 172 177 176 196 195 200 165 206 196 182 168 160 186 177 186 198 165 191 169 209 191 196 206 187 186 196 185 177 165 179 169 216 177 190 180 213 182 209 192 205 181 178 194 182 189 203 195 187 192 186 170 185 175 184 206 198 194 207 158 190 168 182 174 170 191 196 185 187 192 176 205 204 183 177 222 177 211 183 188 164 203 185 175 202 180 177 154 185 211 189 197 161 184 161 166 173 188 188 169 164 184 211 174 188 163 166 163 188 175 200 196 161 171 188 180 189 176 196 191 195 175 185 168 174 170 170 175 187 162 180 182 182 185 194 161 152 172 185 161 147 212 184 192 179 191 155 177 198 181 177 186 161 200 194 172 157 185 168 188 190 161 207 168 172 178 182 195 173 183 188 203 164 165 203 160 161 168 145 177 190 170 190 167 183 156 166 175 187 183 197 174 181 178 183 195 181 197 175 190 180 162 166 193 158 191 183 185 170 174 209 235 171 186 182 156 201 166 186 185 168 176 167 177 167 196 171 187 180 178 195 198 179 165 175 195 184 175 199 173 191 170 188 186 203 143 169 166 185 145 182 197 160 194 203 219 186 167 161 197 169 176 184 185 169 182 179 170 171 174 176 191 174 192 150 184 197 160 172 164 181 167 200 168 171 203 185 194 187 204 170 213 176 185 186 174 205 200 219 195 194 206 196 207 194 173 207 190 199 192 211 209 209 184 203 187 171 194 202 171 194 226 208 201 186 211 200 186 211 221 181 227 230 194 215 203 216 218 194 206 195 205 208 224 206 218 212 207 217 242 217 225 218 218 207 211</counts>
			</dataPoints>
		</scan>
	</xrdMeasurement>
</xrdMeasurements>
