<?xml version="1.0"?>
<xrdMeasurements xmlns="http://www.xrdml.com/XRDMeasurement/2.3" xmlns:xsi="http://www.w3.org/2001/XMLSchema-instance" xsi:schemaLocation="http://www.xrdml.com/XRDMeasurement/2.3 http://www.xrdml.com/XRDMeasurement/2.3/XRDMeasurement.xsd" status="Completed" recordIdentifier="{C10F5606-D5A5-45AC-8E1E-FCE6DA16287E}">
	<comment>
		<entry/>
	</comment>
	<sample type="To be analyzed">
		<id>GPSS_Li1p5Zn0p75Zr0p25Cl4_122625_694efed0ae15af25ac374c50</id>
		<name></name>
		<preparedBy></preparedBy>
	</sample>
	<xrdMeasurement measurementType="Scan" status="Completed" sampleMode="Reflection">
		<usedWavelength intended="K-Alpha 1">
			<kAlpha1 unit="Angstrom">1.5405980</kAlpha1>
			<kAlpha2 unit="Angstrom">1.5444260</kAlpha2>
			<kBeta unit="Angstrom">1.3922500</kBeta>
			<ratioKAlpha2KAlpha1>0.5000</ratioKAlpha2KAlpha1>
		</usedWavelength>
		<incidentBeamPath>
			<radius unit="mm">145.00</radius>
			<xRayTube id="1010048" name="Empyrean Cu LFF HR (9430 033 7310x)">
				<tension unit="kV">40.0</tension>
				<current unit="mA">15.0</current>
				<anodeMaterial>Cu</anodeMaterial>
				<focus type="Line">
					<length unit="mm">12.0</length>
					<width unit="mm">0.4</width>
					<takeOffAngle unit="deg">6.0</takeOffAngle>
				</focus>
			</xRayTube>
			<sollerSlit id="21010002" name="Soller slits 0.04 rad.">
				<opening unit="rad">0.0400</opening>
			</sollerSlit>
			<mask id="22031000" name="Fixed mask 13 mm">
				<width unit="mm">9.00</width>
			</mask>
			<divergenceSlit id="22120001" name="Divergence slit 1°" xsi:type="fixedDivergenceSlitType">
				<distanceToSample unit="mm">50.00</distanceToSample>
				<height unit="mm">1.52</height>
			</divergenceSlit>
		</incidentBeamPath>
		<sampleMovement xsi:type="spinningSampleMovementType">
			<spinnerRevolutionTime unit="seconds">1.0</spinnerRevolutionTime>
		</sampleMovement>
		<diffractedBeamPath>
			<radius unit="mm">145.00</radius>
			<antiScatterSlit id="22090040" name="AS slit 9 mm (PIXcel)" xsi:type="fixedAntiScatterSlitType">
				<height unit="mm">9.00</height>
			</antiScatterSlit>
			<sollerSlit id="21020003" name="Large Soller slits 0.04 rad.">
				<opening unit="rad">0.0400</opening>
			</sollerSlit>
			<filter id="20030001" name="Large beta-filter Nickel">
				<material>Ni</material>
				<thickness unit="mm">0.020</thickness>
			</filter>
			<detector id="7010019" name="PIXcel1D-Medipix3 detector" xsi:type="rtmsDetectorType">
				<phd unit="keV">
					<lowerLevel>4.02</lowerLevel>
					<upperLevel>11.27</upperLevel>
				</phd>
				<mode>Scanning</mode>
				<activeLength unit="deg">5.542</activeLength>
			</detector>
		</diffractedBeamPath>
		<scan appendNumber="0" mode="Continuous" scanAxis="Gonio" status="Completed">
			<header>
				<startTimeStamp>2025-12-28T10:54:16-08:00</startTimeStamp>
				<endTimeStamp>2025-12-28T11:02:24-08:00</endTimeStamp>
				<author>
					<name>AutomatedUser</name>
				</author>
				<source>
					<applicationSoftware version="1.7b (136)">PANalytical Aeris Instrument Suite</applicationSoftware>
					<instrumentControlSoftware version="3.2.00000000 20240306">AERIS</instrumentControlSoftware>
					<instrumentID>950485</instrumentID>
				</source>
			</header>
			<dataPoints>
				<positions axis="2Theta" unit="deg">
					<startPosition>10.00943322</startPosition>
					<endPosition>99.99442286</endPosition>
				</positions>
				<positions axis="Omega" unit="deg">
					<startPosition>5.00471661</startPosition>
					<endPosition>49.99721143</endPosition>
				</positions>
				<commonCountingTime unit="seconds">12.495</commonCountingTime>
				<counts unit="counts">3087 3119 3122 3103 3105 3052 3029 3101 3004 3115 3146 3053 3134 3159 3175 3094 3089 3115 3046 3120 3149 3088 3078 3135 3054 3147 3104 3154 3193 3251 3079 3044 3148 3083 3202 3044 3206 3191 3102 3117 3172 3077 3127 3173 3171 3152 3185 3175 3203 3143 3159 3262 3233 3123 3170 3154 3146 3186 3252 3206 3100 3212 3190 3234 3070 3200 3246 3159 3170 3216 3176 3240 3230 3083 3251 3153 3114 3146 3205 3115 3200 3173 3287 3203 3285 3386 3179 3278 3226 3204 3284 3277 3074 3347 3227 3420 3241 3372 3313 3293 3364 3324 3366 3347 3276 3311 3288 3368 3436 3243 3289 3381 3272 3393 3411 3468 3383 3432 3304 3461 3362 3399 3375 3380 3295 3342 3413 3407 3425 3325 3431 3413 3321 3412 3436 3329 3355 3423 3501 3331 3393 3495 3440 3350 3446 3384 3410 3259 3404 3422 3388 3432 3315 3300 3391 3433 3372 3358 3381 3380 3445 3340 3379 3406 3371 3417 3391 3422 3372 3406 3321 3431 3410 3248 3455 3353 3435 3372 3415 3388 3377 3395 3255 3399 3268 3356 3345 3403 3302 3397 3272 3263 3338 3357 3393 3294 3375 3253 3396 3301 3278 3290 3293 3276 3304 3189 3322 3390 3280 3420 3392 3335 3290 3304 3356 3229 3253 3251 3288 3262 3106 3305 3309 3329 3393 3160 3194 3195 3221 3253 3277 3272 3197 3095 3264 3149 3188 3230 3165 3220 3194 3188 3305 3259 3145 3185 3190 3091 3107 3223 3179 3192 3247 3302 3252 3167 3153 3150 3242 3182 3157 3144 3083 3134 3090 3156 3085 3169 3242 3238 3183 3162 3144 3253 3082 3028 3065 3212 3168 3060 3086 3072 3177 3169 3019 2997 3048 3142 3089 3118 3115 3171 3031 3169 3171 3085 3087 3074 2992 3160 3177 3000 3107 3092 3131 3164 3042 3196 3142 3088 3131 3089 3141 3191 3061 3124 3179 3114 3124 3186 3086 3192 3172 3014 3092 3211 3232 3104 3329 3147 3222 3101 3196 3261 3320 3128 3157 3196 3250 3196 3232 3156 3268 3233 3326 3316 3253 3308 3207 3307 3271 3338 3270 3275 3329 3296 3369 3387 3500 3297 3439 3474 3471 3430 3459 3418 3540 3603 3710 3610 3680 3599 3814 3506 3588 3556 3673 3583 3652 3477 3535 3540 3474 3476 3372 3473 3309 3344 3308 3385 3543 3340 3350 3415 3354 3389 3487 3377 3448 3434 3485 3425 3446 3367 3390 3381 3525 3438 3369 3431 3419 3412 3386 3374 3437 3392 3453 3435 3462 3402 3314 3391 3402 3370 3484 3381 3416 3442 3544 3499 3452 3399 3412 3390 3437 3505 3359 3438 3401 3473 3434 3527 3478 3324 3462 3330 3361 3446 3386 3330 3422 3375 3340 3437 3420 3376 3400 3394 3389 3277 3423 3304 3311 3334 3336 3338 3337 3447 3367 3297 3250 3263 3315 3284 3336 3248 3342 3225 3341 3302 3242 3205 3167 3140 3330 3169 3197 3112 3204 3108 3188 3272 3201 3220 3259 3120 3219 3112 3125 3084 3153 3177 3076 3197 3071 3108 3050 3020 3150 3094 3102 3025 3080 3098 3101 3000 3160 2981 3032 3113 3094 3106 3089 3073 2981 3026 3049 3079 2968 3163 2936 2979 3060 3045 2972 2943 2981 2946 3011 2997 2891 3087 2998 2907 3045 3072 3049 3079 2977 3038 3043 3114 3074 3161 3129 3106 3222 3049 3094 3167 3171 3228 3207 3256 3239 3331 3402 3382 3343 3394 3315 3438 3476 3421 3318 3443 3504 3404 3552 3416 3504 3480 3293 3379 3272 3090 3243 3139 3178 3066 3110 3071 2914 2963 2974 2901 2932 2933 2861 2954 2843 2792 2834 2796 2897 2713 2701 2753 2760 2784 2653 2723 2748 2815 2646 2795 2643 2695 2621 2668 2681 2774 2701 2742 2737 2698 2595 2657 2643 2668 2662 2596 2734 2629 2594 2737 2620 2645 2684 2600 2588 2730 2700 2636 2682 2588 2717 2681 2657 2756 2743 2675 2654 2780 2657 2713 2709 2687 2763 2836 2629 2706 2742 2699 2887 2708 2778 2817 2776 2826 2767 2814 2864 2877 2770 2869 2865 2782 2866 2892 2908 2897 2923 2892 2849 2909 2809 2861 2720 2826 2846 2718 2810 2689 2695 2717 2694 2621 2679 2576 2702 2594 2566 2610 2610 2616 2638 2523 2614 2515 2506 2607 2534 2580 2561 2612 2682 2667 2508 2612 2559 2513 2571 2581 2629 2579 2584 2600 2590 2596 2649 2579 2653 2666 2554 2577 2670 2660 2673 2592 2720 2756 2801 2761 2800 2850 2897 2876 2854 2878 2937 3033 2921 2924 2841 2923 2847 2895 2893 2870 2904 2940 2974 2920 2989 3133 3174 3131 3121 3169 3355 3413 3424 3605 3548 3521 3680 3651 3681 3592 3647 3675 3594 3692 3609 3639 3689 3627 3559 3398 3353 3237 3190 2972 2869 2880 2809 2750 2656 2690 2697 2707 2729 2686 2672 2625 2689 2601 2794 2712 2691 2728 2756 2631 2569 2621 2759 2700 2692 2720 2640 2733 2688 2775 2812 2620 2791 2736 2712 2803 2794 2719 2718 2749 2645 2629 2548 2421 2433 2460 2402 2453 2415 2392 2421 2311 2392 2302 2410 2373 2339 2274 2315 2289 2348 2268 2327 2351 2369 2294 2397 2302 2297 2387 2278 2362 2304 2317 2231 2363 2329 2327 2394 2376 2365 2318 2228 2374 2244 2259 2196 2369 2199 2250 2192 2282 2295 2274 2337 2264 2215 2337 2250 2206 2259 2267 2317 2319 2208 2292 2295 2202 2315 2305 2339 2290 2294 2196 2382 2289 2334 2244 2287 2266 2230 2310 2278 2261 2303 2381 2350 2397 2418 2392 2425 2394 2469 2416 2438 2401 2416 2469 2518 2497 2573 2531 2619 2485 2621 2598 2613 2649 2732 2694 2660 2743 2629 2675 2612 2547 2538 2564 2427 2451 2345 2457 2329 2288 2250 2225 2285 2229 2239 2273 2216 2231 2231 2146 2196 2197 2171 2188 2236 2190 2160 2255 2149 2139 2145 2154 2233 2174 2139 2138 2136 2196 2162 2138 2138 2208 2239 2113 2075 2176 2128 2187 2145 2099 2091 2187 2152 2123 2091 2065 2077 2160 2157 2143 2110 2128 2089 2233 2090 2128 2207 2086 2166 2168 2098 2124 2086 2094 2142 2105 2108 2078 2182 2309 2178 2100 2173 2101 2118 2175 2137 2143 2051 2154 2085 2170 2102 2144 2187 2220 2122 2172 2247 2207 2182 2188 2122 2135 2143 2114 2134 2266 2188 2221 2240 2177 2185 2149 2115 2258 2225 2099 2241 2148 2217 2315 2151 2103 2152 2164 2114 2244 2167 2187 2135 2199 2148 2078 2139 2109 2138 2153 2145 2191 2168 2227 2145 2151 2213 2212 2172 2199 2218 2143 2166 2188 2286 2278 2260 2301 2221 2328 2265 2205 2286 2315 2334 2208 2277 2171 2393 2324 2298 2337 2264 2354 2268 2287 2332 2275 2235 2276 2246 2187 2245 2258 2173 2230 2223 2248 2203 2237 2147 2205 2101 2167 2111 2123 2068 2114 2103 2129 2108 2058 2047 2013 2028 2036 1989 2021 2051 2069 2020 2042 1920 1965 1975 2045 1961 2026 1963 1981 2007 2023 2067 1955 1947 1959 1971 1987 2014 2050 2033 2015 1926 2015 2004 1935 1895 1935 1946 1951 1924 2000 1885 1919 1981 2033 2012 1930 1928 2015 1940 2026 1931 1932 1969 1932 1917 1853 1946 1937 1855 1978 1813 1890 1887 1894 1856 1962 1849 1836 1875 1860 1901 1923 1875 1864 1917 1877 1973 1891 1926 1905 1895 1923 1919 1919 1914 1947 1850 1934 1928 1960 1939 1898 1932 1898 1921 1882 1951 1962 1943 1859 1970 1879 1934 1909 1941 1760 1838 1818 1820 1743 1742 1660 1801 1693 1738 1665 1774 1613 1734 1724 1692 1661 1690 1675 1709 1704 1730 1601 1690 1704 1678 1630 1691 1684 1646 1685 1710 1750 1730 1768 1786 1835 1809 1780 1834 1812 1896 1923 2000 1940 2008 1924 1979 1861 1992 1955 1875 1882 1892 1865 1817 1771 1701 1679 1769 1701 1693 1634 1611 1636 1526 1496 1580 1566 1521 1521 1490 1482 1501 1428 1462 1542 1536 1471 1520 1561 1471 1468 1525 1531 1537 1562 1556 1469 1478 1488 1493 1530 1535 1470 1437 1486 1570 1533 1512 1430 1525 1513 1544 1469 1491 1450 1422 1459 1523 1448 1451 1470 1419 1430 1433 1493 1498 1474 1492 1481 1495 1448 1519 1484 1445 1464 1469 1394 1522 1472 1404 1418 1426 1403 1431 1411 1387 1402 1410 1516 1449 1495 1535 1478 1467 1493 1430 1444 1536 1382 1442 1511 1486 1503 1433 1433 1450 1440 1574 1472 1493 1489 1521 1513 1468 1511 1543 1508 1475 1498 1530 1510 1521 1476 1564 1460 1589 1528 1591 1518 1581 1520 1501 1569 1476 1501 1539 1576 1535 1547 1444 1477 1555 1527 1475 1518 1520 1514 1498 1444 1438 1528 1436 1437 1477 1474 1525 1515 1526 1401 1425 1563 1461 1442 1460 1568 1502 1453 1500 1443 1503 1497 1455 1430 1459 1486 1491 1491 1456 1497 1530 1529 1467 1416 1497 1494 1435 1534 1432 1469 1399 1391 1489 1489 1404 1458 1389 1367 1454 1433 1469 1492 1428 1428 1480 1457 1443 1452 1423 1429 1429 1503 1424 1432 1457 1410 1404 1428 1455 1467 1395 1437 1445 1433 1390 1438 1364 1435 1423 1361 1418 1468 1437 1397 1375 1349 1503 1450 1350 1432 1390 1450 1366 1377 1368 1416 1384 1353 1436 1398 1449 1446 1445 1456 1411 1474 1374 1476 1452 1466 1542 1399 1567 1552 1537 1593 1574 1579 1616 1593 1633 1571 1693 1683 1699 1676 1655 1618 1676 1611 1645 1568 1528 1480 1473 1513 1506 1521 1534 1503 1576 1530 1581 1648 1619 1604 1595 1568 1533 1673 1549 1658 1606 1670 1692 1656 1576 1632 1652 1614 1534 1520 1460 1503 1557 1417 1493 1511 1495 1603 1560 1646 1711 1847 1941 1860 1902 1886 2068 2086 2238 2272 2294 2334 2410 2498 2624 2560 2563 2604 2796 2771 2828 3034 3080 2999 3097 3165 3077 3317 3252 3236 3263 3339 3208 3183 3079 3168 3047 2967 2930 2765 2727 2624 2498 2343 2392 2255 2152 2106 2002 1909 1889 1859 1666 1796 1714 1743 1855 1872 1903 1855 1974 1999 1987 2018 2141 2120 2148 2168 2152 2101 2091 1911 1860 1765 1764 1731 1613 1532 1510 1374 1402 1355 1331 1323 1335 1297 1278 1206 1195 1321 1193 1279 1207 1315 1209 1196 1210 1253 1231 1291 1211 1264 1297 1270 1325 1328 1331 1323 1328 1367 1315 1421 1399 1404 1440 1422 1417 1413 1334 1519 1496 1444 1458 1502 1428 1516 1497 1594 1516 1540 1574 1722 1683 1683 1764 1811 1843 1937 1860 1997 1889 2016 1959 1986 1985 2070 2049 2042 2089 2116 1987 2043 2044 2159 2203 2206 2291 2308 2311 2417 2265 2141 2031 2069 2002 2056 1939 2019 1756 1626 1475 1492 1387 1373 1285 1310 1288 1221 1122 1125 1122 1046 1066 1072 1069 1062 1083 1108 1156 1119 1063 1082 1127 1189 1178 1126 1146 1218 1252 1255 1289 1269 1326 1288 1499 1517 1522 1638 1586 1674 1738 1839 1905 1910 2039 2074 2107 2176 2295 2180 2282 2250 2344 2311 2414 2369 2519 2352 2431 2507 2403 2349 2390 2461 2502 2494 2455 2579 2547 2570 2429 2411 2301 2265 2196 2098 2019 1984 1906 1874 1761 1668 1572 1496 1561 1455 1554 1459 1497 1456 1425 1426 1405 1426 1485 1376 1499 1376 1450 1461 1425 1418 1383 1381 1421 1388 1362 1311 1241 1249 1199 1219 1219 1250 1145 1152 1154 1156 1094 1145 1141 1131 1143 1105 1089 1064 1046 1063 1016 1063 1041 1033 1033 1020 1001 1032 1011 1022 1023 984 1029 1061 1038 1020 1004 1012 1044 1069 1115 1048 1088 1078 1060 1084 1083 1110 1077 1210 1181 1153 1125 1283 1219 1271 1289 1331 1379 1520 1397 1460 1477 1584 1621 1783 1743 1899 1893 2062 2026 2182 2388 2334 2537 2639 2770 2790 2999 3059 3051 3140 3187 3282 3314 3394 3338 3423 3413 3460 3396 3453 3328 3396 3298 3205 3179 3078 2877 2849 2684 2557 2709 2484 2234 2134 1973 1762 1742 1550 1528 1419 1317 1213 1154 1085 1025 954 978 919 857 929 891 872 881 937 850 910 827 790 823 885 794 867 836 853 851 854 841 782 800 850 814 903 810 912 888 901 902 917 973 958 957 924 999 948 1067 980 995 1115 1106 1118 1195 1126 1248 1266 1364 1359 1449 1465 1506 1506 1511 1589 1610 1687 1637 1683 1619 1662 1546 1642 1502 1471 1369 1349 1279 1206 1189 1121 1073 1010 914 927 931 861 807 824 815 794 811 797 763 813 789 777 774 743 800 762 784 763 732 779 772 782 805 833 767 821 779 766 824 798 806 798 804 777 763 827 759 746 767 769 717 799 793 729 763 739 765 747 765 764 743 759 782 728 748 763 779 742 748 807 806 776 824 765 739 755 760 705 764 784 735 669 688 734 726 682 718 722 735 755 704 701 694 728 686 717 717 715 716 668 687 676 738 692 657 701 735 759 717 681 694 707 721 739 715 714 707 699 695 714 694 718 694 729 722 681 713 725 729 703 657 697 671 698 765 730 692 768 666 709 685 730 687 728 681 719 710 701 709 708 651 735 727 669 747 785 731 714 735 749 719 726 795 812 781 763 774 779 784 861 890 888 858 850 937 827 862 969 922 1015 971 973 1016 1053 1034 1067 1039 1129 1099 1188 1085 1232 1225 1397 1407 1516 1518 1584 1547 1521 1526 1576 1619 1642 1633 1706 1714 1761 1687 1789 1816 1802 1826 1832 1877 1889 1904 1993 1966 1878 1863 1770 1678 1524 1505 1459 1442 1357 1256 1238 1193 1152 987 983 975 912 909 836 882 823 869 747 797 799 731 789 748 703 738 754 702 776 740 704 710 712 734 741 688 698 687 673 679 710 712 659 642 724 629 729 662 678 664 634 673 715 620 638 682 632 631 624 605 656 655 589 606 650 652 634 648 636 652 655 627 687 669 658 647 658 710 653 753 659 717 748 719 676 802 763 768 777 728 750 765 724 798 780 836 846 837 853 827 909 907 899 888 822 901 904 899 931 976 995 1002 990 1039 1019 988 937 955 926 921 856 821 831 729 815 802 697 689 618 641 707 638 654 620 580 596 585 602 621 650 574 601 603 619 578 620 602 562 547 634 560 599 603 617 644 552 573 563 566 594 589 563 586 621 589 589 593 578 613 565 574 636 589 652 591 588 569 657 561 615 641 662 635 607 631 642 646 715 691 633 667 655 678 680 683 680 677 671 697 665 672 705 663 635 639 654 577 643 608 633 621 630 602 595 608 594 607 562 564 568 589 610 568 577 605 600 590 558 596 648 605 579 575 623 611 606 640 632 584 633 643 638 621 582 610 637 633 607 683 577 586 654 657 655 646 632 636 680 630 589 611 637 685 702 642 687 668 688 733 647 685 699 643 687 673 668 737 744 770 708 738 735 752 749 793 748 832 871 866 828 863 813 819 888 864 875 855 893 795 764 810 743 783 763 646 736 692 674 664 655 623 629 638 595 562 599 607 571 589 567 588 588 567 549 596 578 598 636 615 615 630 579 617 594 622 590 638 643 564 623 682 687 656 605 694 702 716 673 721 768 726 726 756 740 703 762 699 765 740 695 714 721 722 765 699 764 696 765 720 675 689 689 668 696 653 676 671 679 619 626 647 636 680 660 662 581 633 601 637 639 598 580 575 567 547 553 560 554 546 548 573 563 579 557 586 590 534 532 548 530 536 526 504 525 556 527 497 571 498 508 534 591 495 511 520 514 521 516 542 514 520 518 530 497 525 549 574 579 561 549 538 542 535 555 563 598 549 568 591 646 593 633 595 632 636 629 671 604 691 652 720 714 658 720 639 715 688 681 674 661 651 670 682 650 656 661 636 655 686 627 588 623 645 642 620 642 623 598 584 614 584 592 622 576 615 587 609 601 615 616 600 552 622 577 647 611 632 697 698 660 718 726 770 712 749 755 861 870 907 897 970 957 955 1007 1037 1023 1107 1120 1044 1097 1117 1105 1117 1109 1103 1111 1075 1069 1069 1058 1030 946 919 924 813 854 893 846 754 773 694 701 694 639 666 604 604 575 624 570 601 563 570 573 497 531 537 522 567 548 530 513 509 543 532 498 508 519 531 591 512 539 577 516 531 544 528 493 571 554 535 516 510 532 488 545 513 505 522 475 548 496 539 540 503 500 468 486 535 496 519 500 515 504 528 523 546 469 541 546 558 508 534 563 561 556 562 581 584 547 551 538 575 560 543 584 544 545 564 542 517 517 498 509 525 540 526 505 512 554 524 530 534 536 570 564 524 544 518 560 523 545 536 561 564 550 549 567 533 567 604 607 597 588 650 633 589 654 623 656 669 676 661 611 651 646 682 678 668 673 690 623 629 637 707 678 681 646 668 662 672 615 691 681 665 639 698 709 694 750 675 699 744 733 708 702 713 661 674 641 645 645 605 633 628 574 618 604 565 591 559 586 561 574 581 514 569 591 548 554 555 601 503 543 492 522 529 503 502 490 498 474 466 480 490 517 536 447 476 460 465 450 520 460 475 449 448 524 470 478 482 488 480 494 448 489 458 494 498 499 520 506 490 527 568 553 542 577 526 561 510 579 590 603 560 618 635 614 725 669 685 724 744 755 770 804 787 870 938 899 966 936 909 873 951 947 912 915 941 908 923 894 867 838 822 734 713 732 694 705 656 671 634 620 597 587 588 535 563 572 494 550 514 538 586 556 623 530 545 560 600 591 538 586 540 557 550 535 551 562 541 517 525 548 518 485 512 518 475 490 461 457 479 499 469 448 466 445 508 495 515 506 534 542 514 581 542 592 553 573 615 574 604 626 593 645 637 608 643 628 620 682 671 678 668 665 734 688 732 675 718 720 692 639 651 626 685 669 663 655 664 618 607 569 639 600 583 602 592 518 590 572 526 552 551 522 491 547 472 488 493 507 476 480 524 487 477 531 462 503 548 487 528 474 577 532 556 565 534 550 571 576 545 625 580 638 573 608 627 658 656 633 668 639 637 693 651 639 654 671 616 611 560 594 539 570 589 547 530 557 525 561 504 540 524 498 476 509 525 534 524 526 506 540 522 527 568 534 553 513 562 527 554 562 526 555 559 533 560 612 569 589 614 619 607 622 619 596 610 623 665 677 657 698 672 680 709 746 680 719 734 710 710 739 693 760 681 727 645 701 639 655 668 642 621 698 571 641 586 629 608 535 597 502 564 568 609 579 541 567 537 556 557 596 588 573 627 554 614 594 633 595 682 638 677 668 693 687 682 648 664 578 604 619 550 613 605 530 520 566 574 526 565 545 580 509 511 521 506 536 503 502 499 467 511 497 501 487 518 492 560 534 512 493 500 500 522 494 525 528 458 517 514 486 505 495 475 511 541 513 505 519 498 480 533 520 488 519 491 476 516 505 508 512 529 550 546 592 566 601 665 636 620 607 577 667 698 668 676 721 763 770 743 777 801 814 863 917 943 905 950 1000 965 937 1050 964 1072 1091 1135 1089 1113 1086 1098 1058 1059 1023 1022 941 976 960 953 948 950 898 843 900 897 845 798 816 819 810 788 823 808 846 861 918 845 890 885 859 879 795 874 844 818 832 842 856 859 800 804 778 814 814 822 831 857 819 922 818 777 830 771 784 783 718 754 754 708 736 698 712 715 684 696 651 578 590 616 614 583 598 617 577 647 607 583 605 634 649 616 633 650 672 694 754 715 798 850 821 876 894 910 943 995 1083 1086 1182 1182 1402 1344 1534 1465 1548 1447 1554 1508 1502 1575 1543 1586 1633 1636 1765 1822 1839 1773 1888 1781 1886 1801 1799 1702 1694 1741 1687 1742 1660 1711 1597 1583 1532 1505 1512 1447 1363 1353 1224 1200 1157 1126 1059 989 965 981 912 919 860 807 787 770 760 767 711 713 677 675 658 660 637 631 714 624 692 684 672 701 722 718 713 715 669 801 789 785 858 808 827 851 835 900 951 885 884 921 992 890 972 967 968 1000 1034 1093 1007 1142 1141 1213 1124 1148 1159 1137 1105 1167 1159 1113 1088 1090 1058 1045 1028 989 964 987 873 923 911 903 849 857 785 844 775 754 748 780 708 723 664 680 687 598 650 675 635 627 583 623 588 607 622 594 635 576 597 609 592 592 555 617 576 616 541 613 535 575 577 553 597 558 592 527 572 537 521 528 520 525 522 570 522 502 501 502 523 512 536 518 526 534 504 521 519 507 522 524 527 500 516 513 539 570 574 564 509 574 568 571 554 575 502 541 574 517 565 530 548 538 535 559 529 590 539 529 558 523 539 506 555 462 524 476 552 498 507 505 473 461 475 498 449 501 484 459 476 485 511 492 470 466 445 486 496 455 494 483 500 485 495 476 504 459 482 449 463 488 464 538 463 493 537 460 509 496 497 507 509 506 514 510 523 526 580 525 566 543 636 573 544 551 550 517 488 533 526 530 558 517 488 543 570 536 525 551 555 530 562 565 585 479 506 570 528 535 519 554 565 575 565 496 541 545 538 529 517 556 584 519 503 548 518 526 488 505 564 558 543 555 646 611 589 626 635 630 634 682 619 656 686 655 650 689 637 657 650 670 603 659 634 644 683 695 685 775 716 732 783 784 788 804 873 870 901 926 943 1059 1068 1114 1254 1207 1318 1382 1422 1536 1513 1685 1828 1806 1994 2094 2204 2280 2242 2256 2262 2351 2379 2503 2397 2465 2467 2562 2522 2501 2465 2418 2278 2248 1964 1952 1850 1773 1603 1519 1508 1390 1354 1268 1236 1149 1052 969 909 783 864 687 755 652 651 641 610 595 584 587 593 593 577 537 487 513 550 542 544 514 512 481 512 523 486 500 509 499 480 464 541 487 557 493 448 533 450 483 495 473 456 486 472 427 438 436 438 472 447 427 466 461 427 425 438 408 401 427 431 436 450 394 447 436 458 459 459 426 451 416 421 451 448 472 437 447 413 414 419 432 498 442 434 399 418 432 440 429 449 460 406 412 462 443 460 463 414 480 434 416 462 421 486 452 436 449 446 457 460 481 501 488 508 471 469 496 554 511 509 473 511 528 506 524 504 474 501 469 495 495 474 503 483 438 469 454 444 479 448 466 442 455 432 436 427 426 417 460 428 418 465 450 436 380 442 429 365 375 379 373 394 449 458 423 415 450 398 413 384 434 448 430 439 428 475 445 422 426 438 429 465 450 415 428 438 416 451 432 440 443 420 451 435 434 395 440 439 466 452 435 439 430 467 427 401 409 425 453 433 413 445 385 451 425 444 398 392 407 431 442 430 389 408 410 384 444 395 397 386 376 432 405 403 391 376 377 403 409 388 406 384 411 405 390 450 424 444 453 413 401 456 440 421 444 451 432 450 509 434 465 520 424 453 466 434 428 476 422 448 433 418 460 396 439 431 407 390 418 442 404 397 421 384 405 387 397 406 449 416 384 398 391 399 421 362 398 364 406 391 384 376 408 405 434 384 429 406 408 445 385 358 418 393 401 404 410 371 405 449 421 430 462 424 423 416 449 391 412 492 437 449 454 457 446 457 522 440 531 496 522 549 526 504 531 487 562 550 569 555 607 566 613 599 656 665 650 603 635 655 611 643 644 669 667 609 628 625 631 609 642 619 626 630 651 616 654 633 643 620 577 596 592 541 569 600 597 616 589 573 560 553 543 525 544 521 553 497 507 530 505 496 492 505 506 495 486 449 526 463 534 537 486 512 544 556 523 539 592 602 566 608 563 582 639 659 665 658 657 646 655 692 645 702 731 746 723 773 734 725 753 769 761 796 791 749 834 801 833 832 776 696 746 664 640 686 655 644 708 636 653 684 657 655 672 641 621 633 592 598 600 564 580 570 575 547 608 540 531 528 592 526 578 520 561 561 527 520 516 559 552 538 494 575 513 561 565 522 506 520 563 552 512 560 555 605 643 588 661 610 597 640 648 701 705 690 663 691 694 747 674 707 726 683 703 772 741 737 744 721 729 776 820 775 812 788 800 790 825 868 888 830 834 980 894 923 952 981 1085 981 1051 1062 1007 1157 1094 1068 1087 1120 1081 1088 1168 1115 1061 1144 994 982 1016 1004 923 950 909 880 852 917 870 869 894 858 804 803 754 726 681 648 643 671 652 611 631 649 611 627 614 624 625 630 609 622 654 619 627 623 654 618 592 581 660 597 655 700 669 670 620 670 690 651 626 693 676 645 610 695 606 620 668 665 627 628 570 598 633 590 560 557 547 556 602 538 558 606 529 578 566 580 532 589 565 533 536 562 559 538 551 551 501 526 504 480 472 462 450 470 473 449 453 429 420 413 448 471 414 441 423 426 378 391 372 411 382 381 402 385 390 376 415 366 344 352 373 318 389 354 388 344 377 374 380 374 347 349 399 382 403 431 394 356 432 358 384 364 394 401 374 381 394 361 386 371 372 374 401 354 366 335 319 327 346 403 361 346 357 350 330 359 345 337 350 348 320 349 353 322 329 334 374 319 298 341 320 332 330 347 339 338 376 354 358 321 332 347 394 344 328 357 332 321 368 359 345 366 381 352 373 382 344 354 382 362 361 395 351 400 405 369 383 353 349 343 366 419 368 422 358 428 379 402 396 414 395 441 431 492 421 472 471 477 466 463 519 499 514 509 598 531 592 548 577 570 550 593 569 612 560 591 628 604 593 614 581 571 597 646 598 549 516 534 523 551 527 517 498 464 471 458 452 428 451 484 450 422 410 434 390 402 391 403 384 408 374 390 367 358 366 397 363 381 391 385 376 375 387 370 346 365 387 388 392 399 397 349 373 345 357 365 383 351 341 350 329 297 380 333 383 329 359 324 334 331 367 338 381 359 314 367 338 336 336 343 331 343 321 331 347 335 363 294 353 365 319 366 314 320 332 355 353 309 398 375 378 381 358 420 419 355 367 379 381 361 417 393 371 395 409 404 438 380 396 385 363 418 376 378 420 406 436 413 432 390 379 419 391 439 410 377 439 388 367 431 377 362 338 394 340 381 378 379 383 401 390 374 345 403 370 372 377 373 398 419 420 392 393 411 402 437 452 447 469 472 519 506 463 463 512 504 517 513 536 534 528 505 606 550 615 574 559 539 499 555 519 465 472 490 453 457 389 445 463 471 480 464 390 425 413 400 409 391 398 369 354 394 410 380 386 377 320 319 363 363 371 358 383 359 360 375 392 361 304 337 360 333 332 301 349 334 344 374 329 345 346 368 390 385 334 355 346 331 368 346 374 367 325 326 359 370 400 399 400 371 375 399 330 371 351 366 346 346 332 360 349 374 354 336 345 355 373 385 367 359 370 367 356 336 316 376 347 351 386 384 358 373 349 364 390 392 404 351 375 354 375 350 383 381 392 358 377 378 333 372 368 430 385 417 345 401 463 417 395 380 393 352 389 393 408 334 428 377 386 413 381 404 415 435 425 384 399 379 410 417 367 377 357 323 409 364 383 370 350 328 332 362 366 327 339 338 355 331 342 340 333 354 359 332 329 355 346 301 328 336 313 341 320 323 320 319 322 318 295 269 310 338 328 325 351 332 344 352 334 355 320 345 297 359 323 345 349 359 324 303 303 340 329 306 330 283 312 304 319 316 280 311 329 331 320 318 283 299 282 304 300 301 286 301 292 275 295 271 305 322 306 307 296 288 294 291 299 289 327 329 287 312 307 313 267 290 283 306 306 297 263 270 268 282 263 298 296 295 287 309 321 297 318 304 301 292 274 284 296 279 278 293 297 308 272 294 321 298 278 332 314 307 328 341 325 284 302 308 291 322 315 362 370 346 374 309 305 318 322 320 313 331 281 323 317 300 289 342 292 283 305 297 297 307 308 320 326 323 321 325 291 313 321 298 312 299 306 284 311 314 291 259 303 325 306 281 306 278 330 305 259 286 281 307 324 282 278 314 285 287 287 293 343 280 329 351 320 328 323 354 329 350 348 335 339 337 312 344 311 317 312 352 338 300 344 345 363 326 376 322 371 334 335 341 344 331 337 312 344 341 369 318 308 354 351 353 363 327 338 306 333 315 316 319 346 321 350 318 350 331 349 340 370 325 332 324 324 340 310 350 362 342 332 340 337 330 347 337 310 337 342 299 319 358 298 301 310 289 288 299 281 299 305 318 295 318 293 313 307 285 288 348 282 335 324 286 291 302 337 317 339 283 290 310 304 315 314 316 332 323 338 339 318 330 355 358 296 313 368 343 341 370 300 370 399 390 339 409 385 363 389 405 420 403 377 394 388 401 384 381 389 423 372 389 384 420 356 336 377 376 362 349 321 324 344 333 361 341 371 329 296 313 343 285 311 302 289 295 307 273 285 304 297 289 290 283 295 281 271 246 273 291 279 248 286 313 283 300 265 280 298 296 302 294 315 301 291 320 304 327 318 360 314 301 315 331 311 291 316 303 296 316 313 293 344 319 333 347 336 333 290 297 348 328 330 340 344 345 327 338 384 322 320 364 330 344 355 350 369 334 356 327 331 293 321 310 300 321 285 321 297 296 321 247 292 277 306 289 296 266 324 294 303 295 301 321 293 298 282 277 283 283 276 274 245 248 269 269 299 248 232 279 256 301 320 309 274 296 279 300 247 307 273 292 274 261 264 279 272 281 279 286 296 261 278 281 273 287 267 270 275 295 289 305 286 279 280 260 283 289 289 290 270 292 298 287 303 264 299 292 259 287 285 271 243 284 273 290 272 310 301 283 272 247 257 290 263 280 292 302 291 295 266 239 305 282 287 310 289 281 262 250 290 328 271 244 267 269 293 308 289 302 267 299 260 294 278 283 289 259 294 295 276 288 248 272 288 316 295 320 309 299 298 307 331 319 336 336 313 278 318 320 276 283 291 275 336 307 311 325 339 356 344 367 345 353 304 329 342 366 355 354 354 358 345 367 344 326 361 346 372 351 410 358 404 396 379 407 394 375 372 399 389 417 373 382 414 384 389 402 399 407 426 426 421 389 401 418 435 418 408 382 395 406 395 413 399 424 396 449 389 422 407 345 382 342 356 404 370 346 340 345 337 329 320 320 354 317 307 340 329 307 331 333 341 335 280 323 348 344 299 325 310 344 319 328 297 317 305 320 315 321 300 340 322 308 304 339 316 315 347 335 344 342 355 331 369 351 425 353 322 385 331 342 359 380 378 351 384 378 388 357 387 341 371 362 391 425 366 337 418 349 371 373 341 383 361 356 366 364 337 358 357 345 355 372 361 379 347 342 338 325 350 350 317 387 365 338 368 368 326 350 388 378 344 351 365 382 382 370 403 390 419 359 419 364 441 410 423 409 403 453 396 468 467 485 495 528 504 517 564 606 537 603 603 610 593 612 611 631 641 643 690 700 721 662 643 598 625 627 604 613 633 622 617 617 593 609 600 664 630 668 609 616 562 582 561 531 518 507 506 510 463 458 463 437 506 447 417 402 408 369 433 353 382 392 352 373 363 366 329 356 313 356 299 355 291 311 304 309 295 285 307 309 301 282 307 334 295 278 299 333 287 278 281 267 309 294 331 287 266 282 289 268 301 289 291 286 294 304 263 286 225 297 285 295 266 278 277 266 293 312 287 288 320 284 291 283 300 281 317 274 320 264 283 300 273 289 305 316 293 295 316 276 277 281 271 280 299 307 301 295 309 300 268 341 312 278 294 313 292 266 307 302 317 327 308 303 320 322 279 302 295 309 311 301 301 315 322 326 326 322 331 331 290 304 300 295 290 318 299 306 318 268 292 321 330 356 302 338 325 333 297 313 349 306 346 330 332 303 295 307 311 322 327 336 327 284 293 294 292 323 282 298 286 309 297 268 303 294 299 279 283 311 250 307 285 280 312 310 270 284 273 302 299 267 270 283 258 266 299 280 284 287 293 248 288 260 323 280 299 265 276 282 277 301 249 316 324 287 273 275 295 286 241 307 295 272 292 314 287 291 286 282 281 301 299 298 318 277 346 263 320 308 327 303 298 321 335 339 326 317 381 347 319 318 344 374 372 382 379 382 394 381 359 377 325 385 359 372 402 369 344 354 309 376 405 336 344 372 405 374 363 355 391 348 336 369 395 339 345 392 364 359 324 324 325 356 308 359 356 347 342 342 355 338 348 369 330 359 351 389 362 376 379 383 384 407 374 387 409 438 406 426 403 426 428 453 406 423 406 414 422 393 390 417 419 393 385 372 398 378 397 360 354 356 336 387 363 373 324 346 310 337 335 331 321 391 311 372 313 339 333 345 341 359 352 315 345 346 338 363 347 361 348 341 345 350 331 327 318 344 336 344 321 382 383 306 363 321 330 321 331 308 318 346 343 323 348 329 332 321 338 309 371 345 332 336 342 365 298 365 309 317 301 314 324 325 351 290 316 326 340 291 336 307 335 318 282 293 325 301 341 361 370 315 291 317 342 336 341 354 341 375 372 360 378 383 375 411 368 367 399 394 360 373 378 367 401 373 347 360 370 390 386 389 380 414 386 394 378 411 355 436 398 437 406 446 419 448 423 441 426 470 484 447 452 437 460 450 472 445 446 453 461 422 474 476 435 425 432 473 477 454 428 442 419 450 448 426 460 455 445 445 447 440 463 434 471 427 439 427 476 455 471 467 435 465 474 507 461 543 489 503 520 512 509 470 471 514 510 497 516 474 491 551 519 561 475 496 496 484 530 475 515 496 481 502 521 496 464 446 479 420 472 451 404 431 398 418 456 400 391 357 409 414 382 398 411 406 371 379 383 369 380 337 359 347 335 347 355 338 311 338 364 309 326 304 321 301 351 311 340 303 313 330 329 296 317 331 305 352 298 304 330 329 322 320 308 349 291 275 343 323 303 293 327 344 293 288 347 351 283 329 314 287 288 338 351 338 334 307 327 331 302 354 332 354 332 310 339 334 330 322 317 335 332 317 342 340 358 349 321 290 339 317 368 322 338 338 337 318 358 341 321 369 339 318 345 326 393 381 395 417 380 408 362 395 333 374 378 368 412 390 359 361 413 345 411 389 343 332 342 345 334 370 394 367 378 344 390 386 398 397 372 394 367 359 384 366 384 397 374 385 370 399 358 386 351 392 321 390 356 364 370 340 357 360 332 346 396 371 370 354 353 332 359 373 408 348 360 360 358 374 379 353 396 371 406 363 349 360 360 386 377 399 418 392 421 388 369 448 425 427 414 429 429 413 404 408 378 414 360 380 410 402 367 383 379 406 392 397 378 383 412 395 365 417 354 378 389 370 390 383 337 327 362 336 338 339 385 325 398 345 334 337 327 410 406 362 352 356 337 373 336 373 352 339 391 373 376 382 378 397 377 359 361 393 347 423 413 373 353 427 405 406 368 381 382 367 385 411 368 368 372 388 359 367 348 370 339 363 366 376 347 387 345 396 325 353 329 366 383 313 340 319 318 335 298 297 309 291 323 330 343 351 318 344 331 302 306 348 332 301 311 321 284 329 280 318 305 293 323 320 302 301 291 299 284 294 260 299 294 282 324 326 315 316 347 274 283 260 304 270 301 284 298 287 282 275 321 292 312 287 293 317 284 299 278 276 304 303 300 242 272 312 284 301 312 303 301 309 295 345 340 299 305 286 307 295 293 321 308 330 319 289 311 304 284 320 314 302 298 330 331 309 329 343 336 367 323 335 366 338 366 342 347 335 337 318 323 368 347 341 331 310 312 321 318 293 326 325 324 299 311 306 297 311 307 288 295 347 323 304 303 321 297 309 317 330 304 290 305 302 300 294 297 313 299 289 271 258 271 285 300 298 256 286 272 260 234 293 264 266 258 262 264 244 263 282 290 245 290 272 284 246 292 286 287 257 312 305 263 266 291 286 280 286 271 283 289 271 278 267 275 280 245 270 250 268 284 259 279 257 291 279 259 292 270 288 293 249 267 271 242 307 251 250 288 276 315 293 296 275 269 284 266 288 268 295 267 304 283 288 287 256 263 288 287 291 290 288 259 267 307 297 271 307 259 282 303 288 304 300 311 277 294 281 294 290 283 318 300 309 311 275 309 310 318 332 314 272 303 313 304 325 310 321 323 316 316 300 314 320 267 310 299 279 326 325 348 319 283 288 295 334 351 339 328 321 335 299 333 321 331 331 341 291 291 297 301 326 325 323 340 311 304 333 298 299 327 276 310 287 327 294 335 297 331 298 348 312 335 304 296 294 301 276 316 313 282 294 284 240 266 289 281 283 298 335 313 275 286 285 291 270 296 268 295 316 295 262 299 258 298 257 306 292 302 306 271 277 297 281 305 267 281 293 307 317 300 271 298 295 314 275 307 281 316 319 298 279 286 314 336 295 287 281 319 288 312 291 321 301 304 321 326 317 304 301 357 314 338 324 308 296 336 315 336 323 341 349 317 310 290 314 332 281 302 303 305 347 327 312 289 312 308 310 317 295 306 350 309 307 343 338 328 325 288 306 291 308 300 313 322 299 293 310 292 327 288 295 295 299 292 281 276 323 297 304 282 295 279 324 282 316 268 298 297 293 289 286 306 293 283 270 283 277 285 249 279 279 289 267 289 297 260 297 282 306 261 257 295 271 270 285 308 273 325 273 296 239 290 274 300 286 306 276 278 305 295 295 245 285 286 294 271 307 297 278 316 274 293 308 299 305 347 297 283 286 285 306 299 298 295 293 316 303 312 307 291 297 285 297 331 335 339 325 298 290 309 318 303 293 277 319 300 318 315 287 317 317 312 334 325 278 322 320 330 330 340 362 322 322 340 328 325 316 327 354 356 326 328 313 327 311 347 338 297 350 321 374 355 352 340 354 368 337 382 357 391 372 348 357 350 402 392 386 391 381 410 411 400 434 386 406 434 416 381 384 398 463 463 424 427 432 416 406 397 382 406 392 353 422 436 376 399 379 398 355 418 377 362 399 388 398 396 379 386 427 377 371 403 376 365 380 405 356 375 396 344 396 390 373 366 367 375 334 350 359 361 330 348 304 319 353 346 339 366 343 367 346 322 368 323 321 337 338 331 349 362 346 342 380 362 334 346 312 341 393 345 377 373 372 404 384 397 368 390 334 326 347 365 354 370 343 293 341 328 331 346 314 323 326 322 365 347 344 371 371 371 384 347 375 392 353 396 366 398 354 399 385 354 391 367 377 375 381 392 397 388 383 406 420 357 407 378 380 408 400 374 353 370 370 364 391 381 357 395 348 360 358 361 351 367 376 357 438 359 341 354 368 416 364 351 390 366 400 365 380 346 364 377 374 394 345 304 370 350 333 343 364 353 386 372 350 360 350 319 358 393 365 378 389 375 374 377 382 388 375 351 384 370 389 398 397 456 405 396 374 399 370 414 385 383 397 371 405 422 419 329 402 386 422 361 384 369 368 401 366 402 347 371 387 374 379 391 357 359 399 388 387 358 384 394 361 355 370 395 372 402 359 381 397 380 392 390 383 403 417 359 363 394 376 395 438 399 376 346 422 397 374 422 423 456 418 449 424 466 454 437 474 439 480 462 470 532 475 453 442 468 464 456 445 506 477 474 469 481 489 480 506 482 513 532 562 550 562 591 570 575 617 596 564 615 612 543 590 513 590 553 551 491 520 551 564 530 510 504 484 464 499 476 470 475 461 435 515 491 481 441 464 449 403 438 443 424 440 377 423 415 379 388 414 428 406 392 431 402 356 353 360 378 321 358 356 310 353 336 371 341 335 345 288 323 245 284 338 304 284 307 288 282 263 318 296 272 294 327 307 290 282 295 285 293 299 267 318 306 308 318 294 268 304 303 305 312 265 321 301 320 304 308 287 264 280 258 265 286 307 300 286 251 290 295 274 315 284 293 305 266 263 305 265 275 270 282 270 290 282 298 287 316 264 268 256 281 274 302 288 267 309 282 277 280 261 298 270 312 289 320 277 317 266 259 289 287 278 258 275 296 243 236 270 284 303 301 271 261 287 298 277 269 291 256 260 285 268 277 285 296 284 287 286 309 295 271 247 284 283 278 271 299 281 277 298 280 274 289 277 300 317 268 297 300 301 268 289 284 223 292 310 294 309 266 284 260 273 296 264 266 273 270 249 313 298 271 262 282 248 315 297 326 282 275 275 310 284 314 287 283 287 335 294 281 321 284 352 325 345 345 383 355 339 362 364 348 342 346 342 330 365 362 350 332 333 311 323 322 333 308 331 311 287 310 335 324 320 306 317 319 316 363 316 348 328 330 323 351 336 339 357 322 285 341 304 323 316 304 303 337 304 321 329 277 298 313 311 305 308 285 279 298 298 290 335 264 309 296 312 263 274 304 298 288 284 298 263 306 273 316 304 317 301 357 339 314 312 333 294 302 267 287 304 295 303 315 317 321 322 307 311 331 318 330 331 335 338 343 327 315 343 337 329 329 350 307 321 365 335 323 310 300 310 316 355 303 313 307 307 319 313 320 340 313 313 351 319 367 365 344 338 345 343 343 314 361 347 333 352 354 377 327 385 362 353 347 359 337</counts>
			</dataPoints>
		</scan>
	</xrdMeasurement>
</xrdMeasurements>
