<?xml version="1.0"?>
<xrdMeasurements xmlns="http://www.xrdml.com/XRDMeasurement/2.3" xmlns:xsi="http://www.w3.org/2001/XMLSchema-instance" xsi:schemaLocation="http://www.xrdml.com/XRDMeasurement/2.3 http://www.xrdml.com/XRDMeasurement/2.3/XRDMeasurement.xsd" status="Completed" recordIdentifier="{FA03AC52-D5F1-4D2B-B228-B709BD8E5C93}">
	<comment>
		<entry/>
	</comment>
	<sample type="To be analyzed">
		<id>GPSS_Li1p8Mg0p8In0p2Cl4_101325_68ed62dd07cf888582f978b1</id>
		<name></name>
		<preparedBy></preparedBy>
	</sample>
	<xrdMeasurement measurementType="Scan" status="Completed" sampleMode="Reflection">
		<usedWavelength intended="K-Alpha 1">
			<kAlpha1 unit="Angstrom">1.5405980</kAlpha1>
			<kAlpha2 unit="Angstrom">1.5444260</kAlpha2>
			<kBeta unit="Angstrom">1.3922500</kBeta>
			<ratioKAlpha2KAlpha1>0.5000</ratioKAlpha2KAlpha1>
		</usedWavelength>
		<incidentBeamPath>
			<radius unit="mm">145.00</radius>
			<xRayTube id="1010048" name="Empyrean Cu LFF HR (9430 033 7310x)">
				<tension unit="kV">40.0</tension>
				<current unit="mA">15.0</current>
				<anodeMaterial>Cu</anodeMaterial>
				<focus type="Line">
					<length unit="mm">12.0</length>
					<width unit="mm">0.4</width>
					<takeOffAngle unit="deg">6.0</takeOffAngle>
				</focus>
			</xRayTube>
			<sollerSlit id="21010002" name="Soller slits 0.04 rad.">
				<opening unit="rad">0.0400</opening>
			</sollerSlit>
			<mask id="22031000" name="Fixed mask 13 mm">
				<width unit="mm">9.00</width>
			</mask>
			<divergenceSlit id="22120001" name="Divergence slit 1°" xsi:type="fixedDivergenceSlitType">
				<distanceToSample unit="mm">50.00</distanceToSample>
				<height unit="mm">1.52</height>
			</divergenceSlit>
		</incidentBeamPath>
		<sampleMovement xsi:type="spinningSampleMovementType">
			<spinnerRevolutionTime unit="seconds">1.0</spinnerRevolutionTime>
		</sampleMovement>
		<diffractedBeamPath>
			<radius unit="mm">145.00</radius>
			<antiScatterSlit id="22090040" name="AS slit 9 mm (PIXcel)" xsi:type="fixedAntiScatterSlitType">
				<height unit="mm">9.00</height>
			</antiScatterSlit>
			<sollerSlit id="21020003" name="Large Soller slits 0.04 rad.">
				<opening unit="rad">0.0400</opening>
			</sollerSlit>
			<filter id="20030001" name="Large beta-filter Nickel">
				<material>Ni</material>
				<thickness unit="mm">0.020</thickness>
			</filter>
			<detector id="7010019" name="PIXcel1D-Medipix3 detector" xsi:type="rtmsDetectorType">
				<phd unit="keV">
					<lowerLevel>4.02</lowerLevel>
					<upperLevel>11.27</upperLevel>
				</phd>
				<mode>Scanning</mode>
				<activeLength unit="deg">5.542</activeLength>
			</detector>
		</diffractedBeamPath>
		<scan appendNumber="0" mode="Continuous" scanAxis="Gonio" status="Completed">
			<header>
				<startTimeStamp>2025-10-17T15:12:58-07:00</startTimeStamp>
				<endTimeStamp>2025-10-17T15:21:05-07:00</endTimeStamp>
				<author>
					<name>AutomatedUser</name>
				</author>
				<source>
					<applicationSoftware version="1.7b (136)">PANalytical Aeris Instrument Suite</applicationSoftware>
					<instrumentControlSoftware version="3.2.00000000 20240306">AERIS</instrumentControlSoftware>
					<instrumentID>950485</instrumentID>
				</source>
			</header>
			<dataPoints>
				<positions axis="2Theta" unit="deg">
					<startPosition>10.00943322</startPosition>
					<endPosition>99.99442286</endPosition>
				</positions>
				<positions axis="Omega" unit="deg">
					<startPosition>5.00471661</startPosition>
					<endPosition>49.99721143</endPosition>
				</positions>
				<commonCountingTime unit="seconds">12.495</commonCountingTime>
				<counts unit="counts">2672 2790 2739 2678 2711 2689 2920 2826 2816 2765 2759 2728 2693 2731 2723 2765 2660 2753 2704 2806 2776 2684 2702 2715 2760 2783 2766 2719 2758 2888 2723 2697 2618 2779 2786 2753 2696 2761 2671 2696 2853 2814 2732 2766 2703 2824 2820 2722 2718 2859 2668 2772 2846 2782 2696 2749 2793 2730 2716 2806 2715 2751 2799 2845 2798 2794 2755 2901 2783 2833 2786 2865 2745 2859 2707 2750 2789 2787 2840 2852 2993 2815 2933 2825 2936 2910 2991 2961 2881 2880 2923 2817 2862 2918 2938 3071 2840 3004 2986 2907 2979 2948 2914 3046 2923 2977 2864 2992 2970 2838 2952 2800 2896 2803 2862 2850 2800 2931 2741 2734 2775 2830 2790 2780 2787 2888 2797 2846 2784 2697 2944 2752 2766 2787 2738 2823 2749 2731 2854 2792 2746 2811 2784 2825 2776 2777 2765 2799 2917 2855 2724 2816 2746 2744 2786 2726 2736 2703 2717 2766 2787 2825 2776 2720 2784 2828 2809 2667 2667 2749 2788 2873 2689 2855 2781 2764 2753 2760 2697 2737 2743 2726 2697 2776 2704 2710 2666 2733 2636 2664 2855 2749 2639 2675 2708 2736 2719 2694 2694 2665 2614 2782 2683 2730 2778 2807 2756 2673 2735 2744 2694 2679 2758 2670 2668 2597 2707 2710 2670 2705 2659 2681 2742 2645 2730 2637 2684 2642 2748 2727 2688 2619 2725 2625 2626 2617 2531 2763 2716 2621 2654 2689 2640 2709 2734 2661 2674 2649 2591 2781 2676 2638 2624 2791 2590 2724 2741 2736 2701 2643 2617 2700 2704 2676 2671 2634 2573 2711 2668 2726 2724 2641 2735 2732 2720 2721 2769 2679 2664 2667 2727 2723 2802 2622 2749 2731 2632 2706 2715 2700 2639 2778 2746 2706 2756 2798 2755 2757 2698 2898 2658 2753 2732 2737 2810 2795 2773 2793 2762 2756 2826 2816 2792 2782 2869 2836 2842 2808 2787 2810 2838 2856 2771 2829 2794 2820 2896 2821 2855 2777 2930 2833 2882 2844 2900 2798 3032 3056 2857 2894 2930 2905 2980 2987 2844 2948 3013 2910 2998 2961 2892 2981 3041 2988 3048 3104 2991 3015 3038 2953 3023 3007 2981 2972 3168 3095 3007 3069 3025 3097 3147 3030 3031 3135 3128 3184 3164 3064 3143 3028 3124 3090 3053 3133 3107 3251 3231 3091 3137 3098 3132 3090 3147 3083 3172 3190 3197 3245 3185 3196 3224 3284 3250 3181 3082 3321 3253 3391 3306 3323 3443 3395 3475 3470 3452 3543 3653 3645 3700 3832 3798 3991 4062 3888 3767 3892 3828 3809 3804 3772 3598 3689 3665 3707 3744 3605 3829 3716 3806 3796 3799 3699 3716 3767 3732 3734 3700 3734 3775 3723 3721 3754 3683 3631 3582 3720 3615 3596 3507 3388 3424 3277 3331 3152 3184 3207 3252 3066 3186 3021 3128 3098 3116 3084 3137 3033 2964 3124 3008 2983 3004 3146 2958 2968 3014 3058 2998 3029 3079 2944 2968 2966 2969 3024 3032 2853 3006 2977 3003 2960 2838 2905 3030 2995 2992 2926 2975 2988 2818 2942 2921 2922 2923 2912 2855 2849 2825 2917 2857 2964 2875 2903 2889 2845 2797 2948 2914 2709 2800 2822 2789 2767 2812 2755 2763 2750 2823 2764 2739 2716 2810 2840 2795 2802 2845 2789 2795 2715 2799 2817 2727 2759 2701 2706 2721 2688 2742 2791 2783 2756 2661 2632 2654 2672 2673 2650 2736 2822 2724 2633 2668 2678 2633 2605 2653 2590 2758 2670 2590 2727 2701 2620 2673 2649 2646 2715 2660 2591 2675 2684 2728 2603 2618 2589 2562 2687 2624 2595 2615 2636 2617 2603 2539 2701 2701 2668 2591 2647 2679 2663 2672 2615 2539 2613 2622 2572 2648 2635 2614 2665 2548 2581 2623 2714 2496 2615 2597 2611 2548 2563 2507 2596 2597 2530 2598 2536 2541 2586 2555 2511 2669 2604 2581 2379 2500 2568 2561 2552 2550 2515 2590 2520 2500 2586 2556 2457 2508 2531 2567 2564 2498 2543 2602 2531 2486 2489 2471 2446 2605 2385 2439 2570 2518 2556 2516 2491 2478 2393 2557 2585 2537 2431 2562 2589 2455 2520 2487 2526 2489 2477 2521 2482 2499 2540 2367 2507 2402 2478 2443 2582 2500 2458 2470 2461 2502 2337 2383 2373 2446 2469 2456 2433 2533 2539 2493 2549 2469 2438 2415 2457 2461 2381 2447 2481 2415 2439 2472 2524 2469 2429 2497 2406 2519 2506 2373 2391 2449 2408 2396 2383 2311 2466 2379 2374 2458 2451 2449 2390 2444 2437 2460 2500 2450 2429 2407 2397 2347 2452 2486 2380 2461 2381 2522 2442 2374 2407 2411 2367 2366 2458 2422 2378 2388 2456 2329 2337 2313 2405 2451 2444 2517 2364 2344 2416 2322 2377 2452 2348 2311 2378 2330 2272 2366 2280 2399 2305 2438 2329 2358 2393 2407 2419 2434 2288 2392 2324 2321 2351 2329 2412 2342 2329 2376 2461 2317 2284 2340 2371 2447 2259 2317 2332 2309 2318 2250 2331 2317 2360 2275 2407 2385 2346 2353 2326 2321 2299 2344 2361 2285 2277 2381 2239 2364 2343 2307 2331 2259 2240 2259 2311 2201 2246 2278 2302 2314 2344 2301 2362 2193 2240 2213 2373 2344 2243 2241 2358 2272 2322 2300 2331 2229 2253 2214 2202 2232 2219 2254 2283 2224 2365 2335 2193 2286 2272 2221 2232 2228 2235 2259 2214 2173 2253 2115 2298 2271 2250 2176 2248 2317 2233 2102 2228 2193 2167 2189 2268 2209 2258 2238 2276 2260 2241 2117 2229 2181 2305 2183 2224 2251 2187 2221 2290 2175 2222 2237 2166 2275 2206 2168 2210 2206 2104 2220 2237 2212 2131 2167 2191 2124 2113 2132 2192 2170 2186 2232 2123 2166 2188 2127 2183 2150 2219 2241 2160 2216 2106 2161 2184 2181 2141 2142 2217 2208 2127 2158 2083 2103 2109 2088 2075 2136 2148 2081 2124 2088 2150 2176 2191 2125 2091 2117 2119 2088 2150 2098 2128 2124 2121 2072 2066 2115 2162 2086 2036 2189 2156 2119 2086 2176 2222 2140 2087 2130 2090 2076 2167 2096 2037 2235 2141 2099 2224 2137 2078 2056 2140 2148 2181 2162 2202 2105 2122 2171 2144 2108 2056 2182 2129 2048 2153 2164 2151 2124 2173 2086 2152 2147 2107 2175 2050 2184 2185 2190 2157 2087 2279 2123 2125 2182 2111 2097 2197 2158 2201 2116 2101 2174 2159 2204 2091 2221 2179 2211 2118 2198 2164 2167 2245 2129 2118 2182 2173 2095 2166 2157 2162 2112 2175 1979 2037 2089 2152 2072 2091 2152 2050 2112 2166 2075 2170 2113 2183 2115 2168 2122 2137 2059 2248 2199 2170 2002 2148 2058 2172 2180 2084 2168 2164 2145 2058 2062 2110 2145 2097 1981 2037 2083 2061 2001 1997 2067 2067 2017 2033 2029 2042 2094 2043 1968 2021 2064 2073 2106 2072 2030 2074 2052 1902 2020 2020 2110 2005 2037 2051 2047 2059 2003 2036 2007 1973 1981 2035 1978 1929 2003 1948 1929 1957 1935 2012 1946 1975 1867 1988 1941 1929 1954 1879 1904 1914 1935 1905 1891 1963 1874 1944 1908 1879 1938 1994 1966 1847 1884 1881 1925 1851 1808 1826 1741 1806 1829 1814 1783 1784 1780 1766 1784 1751 1719 1712 1791 1829 1794 1881 1680 1777 1788 1808 1862 1816 1814 1727 1737 1730 1778 1736 1747 1749 1732 1698 1821 1735 1721 1677 1707 1692 1654 1691 1689 1762 1628 1742 1737 1692 1688 1740 1678 1665 1650 1664 1539 1611 1607 1625 1595 1599 1686 1576 1724 1542 1639 1634 1552 1726 1574 1632 1676 1639 1605 1576 1604 1578 1518 1589 1600 1573 1583 1607 1588 1542 1586 1560 1619 1541 1564 1564 1508 1447 1584 1575 1579 1567 1523 1617 1566 1578 1584 1631 1587 1525 1472 1541 1541 1571 1548 1548 1475 1549 1568 1496 1608 1515 1506 1467 1510 1525 1500 1520 1501 1542 1473 1518 1494 1547 1541 1596 1511 1484 1535 1517 1518 1509 1512 1450 1537 1480 1468 1455 1502 1518 1516 1450 1469 1376 1497 1440 1470 1503 1472 1446 1546 1506 1490 1455 1520 1493 1456 1480 1518 1464 1479 1444 1436 1469 1427 1473 1459 1453 1472 1474 1416 1438 1470 1391 1429 1404 1359 1499 1445 1400 1473 1474 1460 1502 1395 1360 1483 1447 1440 1413 1469 1413 1417 1451 1453 1449 1422 1431 1499 1453 1475 1470 1465 1472 1398 1428 1430 1374 1442 1387 1418 1451 1487 1511 1469 1450 1449 1462 1448 1517 1446 1434 1475 1469 1460 1408 1446 1476 1467 1391 1433 1465 1443 1416 1504 1525 1394 1500 1502 1455 1489 1454 1496 1500 1430 1554 1484 1466 1430 1507 1468 1477 1437 1485 1510 1499 1439 1467 1512 1507 1469 1451 1456 1497 1420 1404 1455 1428 1413 1477 1484 1527 1453 1552 1489 1443 1496 1432 1459 1422 1471 1492 1450 1375 1486 1444 1500 1428 1439 1434 1438 1403 1445 1457 1441 1434 1458 1453 1472 1411 1410 1472 1384 1369 1428 1388 1454 1476 1460 1403 1402 1421 1439 1442 1511 1467 1412 1493 1426 1446 1412 1438 1434 1331 1449 1349 1410 1404 1399 1423 1408 1425 1460 1383 1338 1318 1334 1391 1446 1389 1419 1352 1444 1362 1326 1385 1364 1381 1368 1301 1326 1382 1294 1327 1302 1273 1329 1309 1332 1360 1258 1280 1301 1270 1305 1333 1294 1325 1257 1326 1335 1336 1312 1301 1326 1341 1258 1315 1316 1319 1310 1273 1263 1287 1314 1244 1320 1240 1252 1277 1216 1272 1205 1313 1215 1283 1179 1212 1215 1209 1219 1197 1247 1222 1136 1226 1196 1181 1167 1121 1148 1195 1163 1190 1144 1143 1170 1216 1220 1175 1176 1172 1156 1127 1177 1148 1106 1168 1098 1145 1115 1162 1100 1154 1168 1130 1146 1159 1138 1121 1087 1106 1148 1201 1106 1172 1077 1227 1177 1082 1128 1096 1112 1211 1078 1112 1141 1128 1090 1079 1110 1081 1056 1092 1142 1102 1150 1174 1053 1069 1103 1100 1102 1094 1048 1122 1082 1133 1124 1136 1130 1078 1163 1155 1144 1164 1256 1187 1309 1225 1338 1341 1262 1237 1236 1266 1248 1253 1246 1285 1210 1221 1326 1236 1164 1150 1226 1118 1199 1165 1209 1176 1196 1145 1169 1135 1170 1115 1114 1130 1098 1141 1123 1040 1068 1035 1048 1009 1065 989 1011 959 1042 1043 1014 1019 1053 1015 1023 1062 1030 1011 1025 1027 927 1028 1056 1036 994 988 957 982 1057 995 941 1028 1021 1000 987 1032 977 1042 1007 1034 1041 1052 1009 1048 1103 1064 1019 1056 1057 1134 1066 1070 1085 1040 1062 998 1079 1041 1047 1079 1098 1165 1107 1165 1174 1125 1269 1283 1303 1330 1430 1492 1555 1648 1820 1934 2156 2388 2938 3081 3556 4281 4825 5261 5692 6031 6081 5775 5676 5765 5677 5883 5454 5378 5160 4904 4697 4580 4552 4295 4158 4176 3903 3917 3822 3713 3614 3514 3478 3502 3416 3369 3454 3389 3320 3375 3410 3307 3256 3275 3130 2935 2825 2719 2555 2489 2331 2043 2065 1942 1875 1791 1639 1706 1487 1499 1545 1418 1481 1395 1339 1314 1262 1158 1252 1226 1183 1178 1159 1135 1054 1097 1069 1106 1010 1035 944 1003 981 931 896 912 901 966 827 926 853 866 837 872 831 860 834 860 825 864 853 776 868 835 818 823 753 840 827 804 789 826 812 827 848 833 864 860 786 819 774 805 778 817 784 784 862 826 824 814 827 858 770 789 789 768 774 747 776 773 774 826 722 741 792 837 777 731 827 767 753 781 828 780 757 790 736 778 738 788 753 758 780 780 743 749 786 828 746 798 748 711 769 735 766 763 762 724 750 737 695 724 705 730 734 756 739 732 716 746 755 710 776 692 719 789 711 747 707 749 725 708 719 718 729 717 702 731 695 722 721 711 752 718 736 718 758 785 722 731 738 727 685 711 691 706 737 662 726 737 704 755 708 706 721 707 716 725 745 763 692 754 702 720 723 758 756 718 686 738 664 748 706 740 701 721 719 723 729 732 756 754 732 706 738 728 675 726 731 757 731 722 722 712 674 708 719 720 713 742 709 675 696 699 712 737 675 672 676 695 738 725 664 737 682 699 648 680 768 675 663 720 639 723 693 658 693 749 697 691 726 690 662 665 678 697 677 670 713 694 637 716 666 691 691 686 647 673 672 726 655 652 645 688 666 646 602 673 668 662 651 674 679 634 689 673 656 680 658 665 688 673 653 657 741 661 687 661 686 678 691 680 650 689 720 750 723 754 700 713 713 755 696 710 680 701 730 670 709 704 685 687 708 697 711 715 657 729 683 650 700 727 682 650 690 717 685 686 687 727 688 678 703 682 688 773 727 716 750 731 693 717 713 756 770 831 790 792 755 801 823 832 820 837 863 934 954 888 973 1018 1079 1140 1202 1404 1520 1774 1958 2222 2472 2838 3267 3493 3902 4147 4336 4428 4527 4505 4419 4424 4371 4485 4489 4327 4240 4027 3930 3643 3518 3426 3247 3109 2968 2811 2714 2624 2660 2476 2343 2327 2163 2249 2127 2065 1994 1969 1875 1860 1881 1795 1807 1792 1718 1650 1712 1716 1575 1588 1566 1457 1436 1449 1289 1270 1301 1257 1222 1197 1150 1139 1020 1027 1001 1021 971 926 932 973 885 907 846 802 782 814 794 738 749 735 700 766 707 688 663 690 699 645 677 642 656 667 672 584 662 583 624 630 639 621 664 633 626 588 577 663 693 675 604 633 603 584 628 607 603 616 593 645 594 627 609 575 592 555 606 571 563 604 541 625 573 622 629 557 593 588 581 615 573 613 569 600 595 551 589 563 602 607 578 594 588 591 580 571 589 580 601 542 589 607 540 568 565 591 591 563 589 538 580 534 547 602 580 587 527 552 525 562 530 577 579 577 568 523 533 558 543 544 520 614 553 565 553 554 565 579 561 535 534 547 562 555 563 581 512 547 545 556 559 585 550 522 534 536 568 537 565 559 591 571 530 526 535 563 547 533 569 546 561 528 517 539 556 563 538 561 541 525 509 547 558 504 546 565 574 542 535 548 552 544 564 557 514 551 516 575 592 503 524 532 527 508 530 519 542 484 530 493 551 559 511 569 507 494 516 488 517 492 527 563 514 553 492 523 521 483 513 530 538 495 478 558 521 526 495 550 493 518 507 520 508 534 511 497 511 539 507 527 492 522 521 502 521 466 535 441 499 538 514 520 485 500 488 507 489 506 565 509 512 473 491 549 490 539 488 474 494 469 527 469 510 512 555 478 449 509 482 496 472 503 523 477 505 462 464 502 469 517 522 463 507 464 461 509 501 485 513 504 516 474 472 473 454 497 455 475 497 468 468 431 517 468 469 481 460 542 498 495 486 521 479 499 498 453 479 470 521 470 438 492 500 514 472 452 507 468 445 438 436 445 443 470 465 434 491 465 501 490 437 476 460 444 461 468 474 480 456 460 458 457 486 461 437 473 479 466 460 429 468 498 489 488 423 468 429 476 462 492 471 456 449 410 450 435 450 451 456 478 465 494 467 471 458 454 462 477 435 452 478 465 502 442 449 458 480 464 469 482 452 487 454 465 440 469 449 448 457 458 462 434 420 471 474 495 464 451 440 438 457 480 472 471 450 415 454 445 410 449 465 439 468 397 417 446 462 464 482 477 434 451 432 491 486 442 434 396 451 412 461 463 447 448 445 456 449 456 436 485 415 469 417 436 426 442 458 450 442 411 437 464 438 456 442 390 428 451 409 440 446 490 455 451 435 467 432 449 443 450 410 435 419 450 399 453 389 420 418 419 440 447 464 471 444 456 442 434 413 460 453 434 466 456 416 485 435 469 471 453 450 474 443 504 438 462 404 469 440 493 440 501 427 509 453 493 414 466 433 465 454 405 439 470 442 436 446 469 450 438 429 458 464 443 418 516 468 424 433 406 455 445 467 454 459 389 432 461 410 453 416 440 420 488 436 404 430 462 407 423 391 455 400 429 420 440 444 434 426 435 400 442 399 452 391 438 425 422 438 423 404 422 416 427 376 440 420 379 372 455 424 412 410 427 386 409 418 446 426 463 412 418 423 420 414 412 389 458 406 443 411 349 417 404 410 397 432 433 441 397 392 426 428 438 443 458 379 442 415 426 440 406 437 427 427 456 422 431 436 417 416 398 415 391 379 432 429 463 413 461 426 417 417 413 441 466 452 442 445 413 464 427 408 397 438 416 460 434 448 442 433 432 443 449 435 450 444 402 453 435 419 414 407 411 421 436 450 473 446 435 430 439 452 445 434 448 485 464 446 442 408 438 440 414 416 424 451 416 427 444 433 432 440 414 393 428 411 442 409 396 405 448 412 405 413 375 448 395 420 420 388 383 431 396 392 407 392 464 421 346 429 389 404 383 437 427 423 402 375 461 347 400 405 380 425 410 381 411 380 418 421 387 386 422 423 387 422 379 380 378 401 426 427 389 428 415 381 375 379 393 434 390 393 407 421 417 396 386 393 367 372 403 403 380 431 391 414 388 409 411 369 405 417 389 396 356 370 398 383 367 396 349 390 401 380 412 392 394 420 375 356 413 383 408 386 388 402 391 374 392 402 398 376 416 402 378 419 421 404 425 399 401 390 407 363 359 387 378 393 418 402 386 354 382 382 421 407 409 421 418 415 421 385 376 351 436 410 425 393 380 416 400 365 377 432 408 417 383 366 396 388 381 403 427 435 384 435 404 454 441 462 470 482 499 503 534 615 667 647 692 688 707 710 687 725 740 711 707 712 676 650 609 659 610 665 683 636 616 618 565 579 541 529 504 509 515 488 503 440 481 453 447 470 431 442 422 415 434 427 422 424 377 393 391 428 378 382 361 398 379 395 362 362 374 375 368 386 373 362 364 365 376 375 363 376 365 353 370 355 365 356 409 377 371 390 380 358 354 350 363 350 367 368 370 399 375 336 386 412 348 392 339 354 363 343 357 370 384 366 347 382 351 360 390 364 358 404 360 369 395 332 372 363 350 358 366 356 358 366 366 336 345 391 382 376 336 387 348 352 361 358 356 354 372 377 367 349 347 366 374 384 354 383 345 358 405 353 357 356 364 364 341 378 374 360 374 384 357 396 362 363 350 377 357 364 342 368 337 370 319 376 354 375 371 389 349 357 360 351 378 353 359 339 360 354 353 375 339 360 324 354 384 361 400 363 378 385 353 329 335 337 401 347 327 360 370 358 346 364 343 371 331 354 371 400 411 365 389 353 363 314 383 364 346 346 380 375 337 371 340 340 379 339 347 352 360 356 337 413 382 366 399 371 370 374 402 357 369 387 369 376 378 377 361 405 332 377 381 384 355 377 354 369 365 331 350 352 347 353 383 362 343 361 355 398 350 402 392 383 375 399 392 384 347 385 405 362 327 393 365 351 347 366 328 347 349 341 361 361 330 362 312 349 399 378 368 368 353 361 368 333 356 374 363 361 383 379 341 371 374 336 348 355 383 332 364 391 341 343 377 365 350 380 363 371 357 390 397 406 347 375 347 377 388 356 368 405 404 400 373 413 384 405 425 413 433 419 388 409 419 371 454 444 368 457 431 468 463 482 441 417 448 424 462 436 530 515 493 550 520 610 652 728 789 934 1098 1230 1403 1576 1784 2040 2257 2371 2362 2363 2360 2203 2258 2226 2211 2282 2161 2204 2258 2291 2152 2084 1942 1989 1796 1685 1655 1519 1492 1384 1317 1270 1220 1142 1075 1063 1042 959 939 818 850 804 740 673 704 587 598 595 567 559 596 556 532 501 516 515 497 520 494 502 542 505 532 567 562 555 577 548 617 595 618 664 664 647 635 623 625 582 587 561 566 600 583 554 543 515 566 521 470 497 485 510 477 415 478 440 419 457 394 423 398 400 448 417 407 363 395 354 368 382 350 347 379 358 367 344 354 375 347 311 332 344 344 346 315 324 357 349 369 298 336 335 347 373 310 350 345 372 319 346 367 302 325 328 334 333 332 330 350 332 327 340 287 329 336 325 346 307 331 369 311 364 324 356 323 373 341 330 362 358 357 346 348 304 350 320 316 322 302 343 320 311 315 328 313 320 311 335 334 305 342 355 314 308 311 302 318 315 343 341 303 372 345 348 315 329 321 340 317 322 340 336 330 310 323 348 356 334 349 336 333 386 344 381 375 391 395 419 397 408 440 403 440 436 457 416 429 456 381 421 423 432 438 418 389 414 434 408 447 340 415 388 353 358 397 371 391 300 365 364 356 330 363 324 313 337 351 352 319 365 301 369 309 336 292 315 326 318 338 304 316 333 305 288 303 343 314 355 294 332 291 285 323 307 313 322 319 329 289 301 295 305 300 300 309 319 336 308 286 321 314 315 307 307 320 328 290 341 293 294 296 318 316 299 301 333 318 298 297 317 287 309 303 293 314 308 333 333 283 279 277 330 320 321 296 335 322 299 288 299 274 303 310 305 311 280 311 321 304 309 309 272 306 291 326 318 312 310 294 286 313 296 311 310 309 265 298 298 300 320 285 283 287 333 300 304 292 331 261 310 294 322 284 280 274 293 312 293 326 262 293 295 315 296 260 297 266 307 288 305 315 329 296 306 306 276 290 310 277 305 306 270 279 270 274 298 294 305 302 304 327 276 269 316 301 298 307 288 273 297 332 307 289 314 325 297 297 292 238 300 279 280 298 272 297 299 283 308 298 291 306 302 287 321 284 316 311 274 344 313 295 299 317 310 288 278 299 294 298 264 294 301 312 306 296 245 318 304 244 285 286 302 300 276 267 290 265 266 309 270 289 274 276 290 319 240 288 268 282 263 279 273 293 272 291 280 304 268 250 292 285 290 294 298 283 297 286 287 277 274 271 273 299 236 278 285 265 272 246 260 292 294 271 294 284 332 310 293 266 267 258 281 266 273 292 279 260 246 274 261 223 281 280 287 282 288 299 285 292 272 269 258 318 271 305 262 281 309 267 263 272 311 291 317 268 293 243 274 279 292 235 280 240 275 245 268 275 268 282 280 284 271 260 267 264 262 290 242 230 239 269 229 256 273 266 270 244 263 241 272 273 266 229 280 298 280 275 263 278 280 227 303 261 277 267 265 290 236 244 251 294 271 274 278 247 263 287 280 288 281 247 265 244 260 263 272 268 248 269 265 267 259 262 269 245 276 287 284 267 311 247 299 276 274 278 241 249 275 280 277 274 267 243 283 289 268 290 289 278 278 277 288 277 289 284 265 278 270 266 299 262 300 271 269 272 276 249 274 295 277 239 265 259 290 235 287 263 288 283 244 312 260 250 274 290 257 269 261 259 295 269 270 275 269 232 265 257 262 270 239 245 240 270 298 277 225 249 264 260 275 257 288 269 294 286 261 249 248 283 270 257 284 248 241 284 261 263 277 262 283 289 230 265 259 279 293 244 260 234 257 277 256 240 278 240 274 259 265 283 284 302 278 296 282 250 286 281 294 274 297 297 266 271 283 289 281 278 299 268 313 270 289 282 322 279 293 298 289 297 297 271 294 258 275 318 242 308 250 290 266 280 319 262 266 321 302 314 296 264 280 304 282 308 293 313 306 311 329 319 347 359 340 330 411 432 463 530 529 624 674 726 856 826 815 835 805 802 829 806 798 763 838 775 746 804 802 783 799 807 718 686 680 698 675 611 610 580 525 521 506 519 488 462 439 461 402 395 383 359 352 367 343 350 325 325 372 311 303 308 313 298 304 284 301 323 305 286 306 291 311 306 311 289 333 332 350 316 333 311 312 363 316 332 359 394 376 388 385 398 381 371 376 393 357 384 357 352 378 388 375 385 391 353 359 349 337 357 355 363 312 346 349 356 296 292 332 321 313 315 274 281 261 301 296 264 274 244 270 270 287 291 289 243 294 262 281 273 278 227 267 250 245 264 279 246 267 261 264 279 235 265 237 265 256 246 268 240 266 229 261 236 282 235 256 259 213 274 218 224 243 232 280 239 227 235 224 243 260 259 283 230 279 256 242 245 261 258 257 266 237 229 269 250 244 272 278 239 261 248 230 262 224 283 235 274 243 215 276 271 256 269 270 242 221 227 250 266 244 312 268 268 292 283 229 276 243 281 269 244 227 236 266 244 234 243 271 244 295 224 259 270 278 244 262 266 286 257 257 286 262 262 249 249 264 258 296 337 292 299 266 280 260 320 289 311 299 333 348 382 401 414 455 546 595 669 771 806 768 857 809 786 743 743 777 723 724 707 687 723 710 802 750 758 762 724 717 736 683 680 619 535 569 539 527 486 507 471 448 439 429 413 429 425 403 385 398 354 311 309 308 300 293 291 298 280 292 280 274 243 284 314 263 263 278 271 289 257 249 279 246 291 291 291 266 280 285 267 302 311 319 283 298 305 315 332 321 316 322 321 325 318 327 315 301 323 299 335 313 311 334 356 305 301 310 300 293 319 283 287 262 298 267 295 267 268 268 257 280 249 260 241 246 276 266 269 230 243 225 229 233 249 244 235 227 284 228 272 228 248 248 242 264 234 213 232 227 271 260 260 247 257 290 214 248 218 270 238 189 238 234 222 237 267 259 228 271 236 228 229 233 230 262 260 201 203 230 243 243 222 212 209 245 239 234 257 230 257 220 284 216 239 215 238 221 264 240 263 278 290 281 308 265 360 314 325 298 306 334 308 298 281 287 308 281 324 275 333 303 311 323 311 307 270 267 290 309 298 246 233 257 273 290 270 279 257 281 265 250 279 238 232 233 269 217 258 233 234 223 193 237 242 235 239 240 240 234 223 230 206 228 216 223 220 237 225 208 248 229 222 196 225 239 219 211 240 201 203 233 218 225 223 216 212 249 208 219 209 238 208 181 220 217 229 223 230 189 167 229 215 213 261 229 244 221 216 226 244 203 224 215 218 233 196 222 213 188 226 213 211 214 227 225 206 209 216 227 222 229 243 207 213 188 220 206 215 205 220 233 196 228 221 215 238 222 217 183 199 227 214 218 202 219 197 227 226 223 196 212 211 228 184 196 216 202 209 222 208 230 196 206 229 246 224 199 227 240 244 209 205 239 193 235 191 238 207 192 217 229 209 192 195 206 207 214 202 209 181 211 206 197 227 222 188 199 240 211 235 232 213 218 237 206 232 220 204 215 220 187 210 192 202 230 217 219 195 227 206 206 205 213 193 236 210 202 190 175 174 187 214 206 243 204 231 205 224 198 187 194 219 192 194 178 192 221 238 204 214 175 204 207 200 218 227 193 245 205 240 223 238 225 229 214 197 204 242 220 202 210 171 191 210 193 195 216 207 211 220 216 191 192 200 197 202 202 218 213 192 182 211 191 215 211 239 180 177 230 198 197 200 213 190 210 202 228 181 194 223 205 211 202 212 203 217 238 206 192 199 199 212 216 207 181 200 229 209 200 181 205 242 196 218 222 233 204 224 213 202 217 172 203 186 193 204 207 207 196 213 230 196 207 204 215 201 206 186 185 173 220 219 221 182 234 189 223 236 209 222 207 199 226 186 216 223 227 218 200 219 198 190 199 205 219 231 205 228 194 208 206 200 229 170 202 205 195 209 221 183 204 221 185 225 205 188 199 208 201 188 235 203 209 203 187 204 194 197 198 205 202 226 225 214 194 204 186 231 208 205 190 220 190 193 222 208 219 225 193 214 175 210 194 211 198 210 197 204 164 209 202 191 216 223 194 211 196 181 195 190 199 226 217 209 204 219 205 205 242 213 211 197 225 192 203 220 206 227 217 244 172 214 226 192 216 213 215 183 200 250 207 222 217 243 214 249 247 269 268 229 273 280 272 218 235 267 251 221 233 280 279 248 232 243 197 260 237 239 221 263 233 230 224 261 193 236 258 227 228 232 249 222 199 232 234 182 234 197 214 221 199 184 209 208 183 228 216 217 229 202 203 258 191 203 183 173 206 196 194 213 189 195 216 226 222 187 185 180 192 209 200 200 179 198 218 197 191 203 175 192 204 207 208 228 202 197 222 191 208 176 215 202 232 192 235 217 186 226 211 181 198 190 237 219 205 196 199 204 205 225 204 198 205 218 191 208 179 201 197 213 199 222 197 205 188 215 212 234 211 183 199 181 205 189 215 200 206 180 212 179 219 204 223 214 205 189 228 210 206 194 194 201 196 174 200 202 184 202 184 208 188 223 178 196 214 215 198 201 211 185 181 188 214 188 214 188 196 218 207 230 225 193 175 236 204 209 205 202 201 209 208 217 190 177 183 219 224 208 215 203 190 193 193 185 205 189 179 230 203 196 196 208 223 212 222 222 176 202 182 193 202 202 217 200 196 180 189 209 202 205 204 201 215 230 218 230 205 206 204 202 200 209 198 199 202 191 223 189 194 178 196 193 196 214 178 188 201 197 178 192 194 211 188 216 199 210 206 213 210 211 174 197 237 209 193 194 211 205 194 195 197 210 213 225 230 235 206 219 226 208 222 218 226 247 245 240 261 298 238 277 300 293 309 305 342 369 320 349 325 344 335 376 287 304 349 297 341 315 339 327 309 324 349 314 317 299 311 298 311 274 305 283 281 294 266 295 289 270 241 244 225 231 241 239 242 239 236 241 218 239 235 228 210 230 213 203 220 228 226 207 220 197 231 188 206 198 219 209 199 172 212 199 224 210 228 208 230 223 204 215 204 181 189 211 196 192 193 213 195 222 212 222 214 188 202 223 217 216 227 193 185 219 191 224 228 223 215 215 225 241 221 212 201 232 233 230 229 227 237 236 206 213 230 212 209 195 215 230 198 208 244 201 195 202 196 219 221 216 227 198 209 194 186 185 235 171 206 206 192 212 200 192 221 214 207 193 197 209 213 206 203 214 197 164 186 176 208 187 216 192 220 216 193 217 239 203 216 198 187 218 219 200 228 213 195 266 241 235 201 222 225 231 203 205 230 188 216 217 211 235 203 200 225 226 231 206 190 216 186 215 187 183 221 204 213 197 226 187 203 206 199 195 196 199 189 204 210 205 208 212 185 195 197 200 182 195 222 192 190 229 179 212 206 189 213 182 202 198 189 179 189 204 202 235 235 194 217 213 211 217 193 199 212 206 210 190 182 178 199 188 199 171 213 192 220 217 194 187 219 205 204 205 195 203 187 215 236 168 196 199 227 199 208 206 215 221 216 226 202 233 188 198 190 176 175 216 195 181 183 203 197 205 182 197 206 201 225 184 185 209 220 210 227 220 207 190 177 257 182 211 202 205 176 207 169 208 182 191 203 224 202 204 214 204 208 203 188 196 216 192 235 224 192 198 203 186 186 203 200 195 197 223 220 233 218 215 201 207 223 194 214 169 193 198 176 203 180 216 187 198 206 193 199 199 200 214 185 176 215 197 230 208 204 215 192 213 184 216 189 223 193 197 198 229 225 218 223 200 204 182 198 197 188 204 206 221 220 231 210 232 185 209 204 200 192 183 212 218 210 203 186 186 210 213 188 184 215 183 195 195 194 210 210 188 200 220 219 208 235 204 181 202 197 202 190 193 217 200 188 200 222 211 197 208 202 189 220 206 227 199 198 211 186 199 210 204 206 204 206 207 192 182 207 194 196 183 184 203 237 192 211 192 219 211 184 218 209 191 205 217 174 192 223 225 207 193 199 208 209 192 219 214 220 219 177 192 185 223 185 213 193 214 168 219 221 204 219 215 269 196 223 211 188 207 219 221 211 204 233 219 231 214 209 205 211 208 229 206 225 207 214 220 208 223 225 240 230 197 217 224 201 219 225 196 221 208 196 211 236 201 200 199 231 224 231 200 200 227 216 225 206 203 213 203 238 233 203 225 200 224 195 219 174 221 213 212 199 261 232 239 184 214 203 205 219 214 212 215 215 209 201 209 199 209 208 209 220 211 195 189 213 197 229 219 247 220 187 216 224 213 226 203 223 198 195 245 257 201 214 223 236 201 224 190 201 216 219 248 243 227 222 245 251 239 244 263 268 271 257 261 289 236 262 238 270 263 229 230 228 241 260 285 240 247 214 246 275 247 233 267 222 217 235 229 207 246 219 240 259 257 241 248 241 226 244 208 230 219 276 264 261 238 220 240 230 232 259 243 228 303 296 283 316 348 333 353 338 417 337 372 360 351 353 350 319 309 340 331 346 313 351 321 316 334 323 316 310 339 339 353 333 324 328 310 322 281 286 296 305 284 296 269 313 258 270 264 268 239 249 273 250 242 264 233 245 229 235 238 271 226 209 230 225 228 228 259 218 215 229 246 238 204 215 226 188 239 210 234 239 224 219 270 224 223 224 222 208 211 219 211 228 214 223 216 233 222 264 219 266 203 234 242 221 232 248 262 204 235 219 270 226 234 247 263 248 242 220 263 243 259 240 269 270 278 261 242 242 248 243 241 261 246 245 262 248 276 206 245 232 243 236 232 233 221 262 242 259 244 230 263 241 238 233 247 228 270 236 262 267 234 236 225 210 236 215 224 234 223 245 212 243 232 230 188 247 241 263 272 221 227 232 242 224 239 242 242 209 220 224 238 219 203 244 259 212 211 226 210 237 229 240 215 243 231 236 256 263 234 238 256 262 223 220 250 260 268 263 277 227 248 244 241 278 283 282 236 238 277 259 304 339 311 342 352 380 419 403 441 498 512 479 511 499 531 482 506 515 515 488 438 500 468 432 456 442 426 408 460 425 488 456 444 468 458 427 440 402 429 437 414 408 386 381 355 351 351 359 354 302 365 281 282 285 290 268 259 278 261 237 273 238 256 237 240 222 240 225 223 247 238 244 211 228 232 217 247 195 235 229 220 246 245 239 244 227 236 210 238 210 237 239 198 232 214 233 209 216 225 230 210 227 225 259 238 264 239 237 231 245 229 217 242 235 291 202 274 258 232 258 196 245 225 273 273 271 249 264 270 262 243 250 242 233 234 279 285 264 262 281 237 264 262 268 273 283 219 296 285 279 283 237 215 275 247 257 236 224 259 239 246 240 231 246 222 243 250 216 216 240 225 257 256 244 242 200 221 200 236 228 261 227 269 240 219 257 258 224 258 229 260 235 226 211 258 233 246 239 263 233 222 256 196 217 267 240 229 228 235 224 234 226 260 228 220 234 225 249 215 210 223 208 247 231 213 247 248 183 238 212 227 236 241 224 224 229 239 200 214 195 185 210 210 235 216 197 214 174 226 218 233 217 210 225 222 231 207 219 205 199 191 217 217 226 212 187 192 219 205 217 198 227 161 199 193 200 213 203 222 220 242 198 206 199 202 232 234 226 213 214 228 211 211 208 204 229 183 209 196 194 200 195 236 202 201 204 190 195 206 200 222 184 259 199 221 211 203 201 196 188 207 196 224 170 204 212 203 219 184 192 179 186 199 187 185 203 194 208 241 194 200 209 214 193 211 170 230 201 211 204 190 195 191 208 202 193 207 210 193 184 206 200 161 197 202 201 221 178 202 190 184 218 199 194 188 208 206 189 232 196 205 201 223 188 212 213 184 199 173 203 235 184 203 180 221 203 208 223 195 219 216 189 203 164 195 180 197 177 174 221 195 210 186 204 194 188 182 200 175 198 199 188 194 205 228 203 190 204 201 207 199 218 207 193 203 192 163 202 170 190 182 192 203 212 190 197 191 198 179 203 187 189 187 211 169 231 194 230 193 213 196 227 211 184 205 207 218 178 189 215 205 226 181 201 201 189 213 189 185 204 209 212 217 189 176 203 185 214 217 210 175 191 180 191 195 201 187 188 213 211 197 172 192 209 186 202 198 207 193 214 222 193 189 196 199 195 183 195 204 194 201 214 178 188 197 198 178 211 195 173 203 190 201 193 168 218 168 198 174 217 163 194 222 207 185 187 201 159 219 199 196 208 176 207 190 207 191 215 165 184 185 189 214 209 180 194 156 190 163 164 188 199 197 181 187 208 192 208 181 165 180 156 212 200 198 188 170 207 184 211 195 187 184 191 168 187 205 186 186 181 203 213 176 199 202 185 171 191 163 225 192 203 168 202 173 202 186 199 199 190 201 184 240 209 204 197 188 181 191 213 187 193 178 169 216 193 169 200 214 198 229 195 220 183 220 205 221 238 209 236 189 206 220 205 234 211 207 231 213 205 208 205 211 220 211 218 215 194 239 194 209 199 213 211 184 208 193 205 225 202 190 211 168 190 189 208 195 177 206 209 207 210 184 209 217 199 186 176 189 168 195 203 221 207 185 199 187 183 191 207 196 184 207 202 197 193 174 182 201 205 171 173 162 178 200 174 195 215 187 196 202 197 220 182 199 189 195 203 198 189 171 195 171 188 186 171 212 199 188 156 161 186 197 200 191 209 182 208 174 178 214 189 231 213 191 159 188 191 203 180 186 172 172 203 178 216 166 189 192 183 178 172 191 184 192 211 177 170 180 195 195 174 187 195 182 200 185 193 185 203 198 165 188 166 215 173 180 163 201 182 175 195 192 193 198 208 184 180 175 195 211 199 190 212 216 189 196 181 217 226 168 197 172 193 178 188 209 190 197 201 201 178 201 182 188 190 177 186 188 189 201 197 180 208 196 197 207 170 196 186 176 198 196 188 194 187 202 195 196 174 220 169 175 197 204 184 168 183 170 233 191 177 212 214 202 200 200 215 198 186 201 205 194 223 196 192 212 197 179 203 185 201 204 192 188 212 181 211 202 193 210 219 242 217 215 260 202 201 206 223 215 242 266 243 234 258 290 287 283 314 382 339 358 378 387 426 392 412 417 411 445 401 392 398 369 355 353 363 307 358 335 342 362 358 305 306 345 342 331 339 321 313 353 348 318 350 309 308 326 324 328 285 310 312 313 282 244 276 294 246 242 274 221 248 283 213 237 194 205 248 227 241 195 216 222 186 202 192 209 196 207 192 211 198 191 195 234 177 199 181 220 225 148 182 186 193 188 183 199 229 172 208 207 213 220 186 165 216 192 174 194 203 189 211 176 204 214 213 194 206 207 198 193 214 197 224 204 199 198 216 203 191 210 221 189 212 190 225 167 207 217 211 198 173 199 207 212 209 203 206 218 217 205 187 196 199 230 223 227 216 213 216 208 231 212 179 172 256 228 216 211 215 212 204 190 224 186 219 209 226 214 231 234 213 230 219 238 233 218 212 222 220 215 220 198 228 204 202 199 222 185 194 215 199 215 177 198 179 210 205 185 200 210 215 188 186 184 204 210 181 180 221 179 199 210 196 194 211 196 194 183 217 180 183 181 179 184 166 173 172 201 180 165 216 181 208 202 207 197 186 181 192 176 186 193 182 184 170 196 203 188 175 175 188 172 186 175 195 177 206 192 189 207 177 159 190 176 214 191 175 187 171 200 212 183 173 176 171 178 197 196 177 161 189 194 205 181 189 153 186 187 167 196 199 159 175 192 186 178 196 207 175 187 190 187 168 195 185 193 180 190 185 168 181 198 184 185 188 188 172 177 173 211 193 202 199 187 178 176 191 170 180 177 199 168 166 184 170 203 195 183 185 185 196 179 198 172 183 186 145 171 183 193 167 180 183 190 196 203 176 191 192 152 181 186 183 188 155 196 174 188 155 196 207 211 203 178 200 185 183 172 169 213 178 174 177 179 202 169 175 162 191 187 168 176 188 216 229 179 183 184 190 172 163 178 174 183 207 164 201 183 198 172 196 192 184 191 186 209 204 167 189 198 199 179 194 203 201 186 176 157 180 167 188 186 172 180 179 183 186 176 194 176 200 181 209 179 167 177 157 207 172 181 198 165 190 186 162 190 190 192 149 172 196 181 207 141 179 198 199 172 203 163 196 171 186 198 170 198 197 193 192 173 198 177 200 199 178 187 187 173 172 176 177 190 191 155 188 174 166 213 177 187 191 178 166 188 184 175 194 172 188 202 190 184 187 176 183 176 221 167 192 183 192 199 169 213 189 176 187 176 208 183 174 203 187 174 178 172 191 169 166 178 181 180 177 180 192 173 190 181 205 196 203 153 186 161 181 185 188 197 170 185 179 192 214 208 206 176 174 177 168 202 194 198 159 184 178 202 190 169 175 208 199 202 192 183 198 193 178 195 173 197 193 187 171 175 193 179 197 212 170 196 183 191 189 194 197 176 180 154 182 198 194 218 184 183 199 204 183 182 200 180 186 205 174 215 192 201 184 191 198 218 211 209 206 186 201 217 206 217 236 205 227 246 220 237 241 235 280 278 233 263 236 242 214 228 187 225 244 208 216 193 245 200 232 205 194 275 197 212 222 235 236 215</counts>
			</dataPoints>
		</scan>
	</xrdMeasurement>
</xrdMeasurements>
