<?xml version="1.0"?>
<xrdMeasurements xmlns="http://www.xrdml.com/XRDMeasurement/2.3" xmlns:xsi="http://www.w3.org/2001/XMLSchema-instance" xsi:schemaLocation="http://www.xrdml.com/XRDMeasurement/2.3 http://www.xrdml.com/XRDMeasurement/2.3/XRDMeasurement.xsd" status="Completed" recordIdentifier="{FD694033-0D97-4FBA-AC9C-D356DBB8880D}">
	<comment>
		<entry/>
	</comment>
	<sample type="To be analyzed">
		<id>GPSS_Li1p5Mg0p55Mn0p15Y0p2Nb0p1Cl4_111825_691cd5d8f3837ac4a0a99fce</id>
		<name></name>
		<preparedBy></preparedBy>
	</sample>
	<xrdMeasurement measurementType="Scan" status="Completed" sampleMode="Reflection">
		<usedWavelength intended="K-Alpha 1">
			<kAlpha1 unit="Angstrom">1.5405980</kAlpha1>
			<kAlpha2 unit="Angstrom">1.5444260</kAlpha2>
			<kBeta unit="Angstrom">1.3922500</kBeta>
			<ratioKAlpha2KAlpha1>0.5000</ratioKAlpha2KAlpha1>
		</usedWavelength>
		<incidentBeamPath>
			<radius unit="mm">145.00</radius>
			<xRayTube id="1010048" name="Empyrean Cu LFF HR (9430 033 7310x)">
				<tension unit="kV">40.0</tension>
				<current unit="mA">15.0</current>
				<anodeMaterial>Cu</anodeMaterial>
				<focus type="Line">
					<length unit="mm">12.0</length>
					<width unit="mm">0.4</width>
					<takeOffAngle unit="deg">6.0</takeOffAngle>
				</focus>
			</xRayTube>
			<sollerSlit id="21010002" name="Soller slits 0.04 rad.">
				<opening unit="rad">0.0400</opening>
			</sollerSlit>
			<mask id="22031000" name="Fixed mask 13 mm">
				<width unit="mm">9.00</width>
			</mask>
			<divergenceSlit id="22120001" name="Divergence slit 1°" xsi:type="fixedDivergenceSlitType">
				<distanceToSample unit="mm">50.00</distanceToSample>
				<height unit="mm">1.52</height>
			</divergenceSlit>
		</incidentBeamPath>
		<sampleMovement xsi:type="spinningSampleMovementType">
			<spinnerRevolutionTime unit="seconds">1.0</spinnerRevolutionTime>
		</sampleMovement>
		<diffractedBeamPath>
			<radius unit="mm">145.00</radius>
			<antiScatterSlit id="22090040" name="AS slit 9 mm (PIXcel)" xsi:type="fixedAntiScatterSlitType">
				<height unit="mm">9.00</height>
			</antiScatterSlit>
			<sollerSlit id="21020003" name="Large Soller slits 0.04 rad.">
				<opening unit="rad">0.0400</opening>
			</sollerSlit>
			<filter id="20030001" name="Large beta-filter Nickel">
				<material>Ni</material>
				<thickness unit="mm">0.020</thickness>
			</filter>
			<detector id="7010019" name="PIXcel1D-Medipix3 detector" xsi:type="rtmsDetectorType">
				<phd unit="keV">
					<lowerLevel>4.02</lowerLevel>
					<upperLevel>11.27</upperLevel>
				</phd>
				<mode>Scanning</mode>
				<activeLength unit="deg">5.542</activeLength>
			</detector>
		</diffractedBeamPath>
		<scan appendNumber="0" mode="Continuous" scanAxis="Gonio" status="Completed">
			<header>
				<startTimeStamp>2025-11-20T20:21:38-08:00</startTimeStamp>
				<endTimeStamp>2025-11-20T20:29:46-08:00</endTimeStamp>
				<author>
					<name>AutomatedUser</name>
				</author>
				<source>
					<applicationSoftware version="1.7b (136)">PANalytical Aeris Instrument Suite</applicationSoftware>
					<instrumentControlSoftware version="3.2.00000000 20240306">AERIS</instrumentControlSoftware>
					<instrumentID>950485</instrumentID>
				</source>
			</header>
			<dataPoints>
				<positions axis="2Theta" unit="deg">
					<startPosition>10.00943322</startPosition>
					<endPosition>99.99442286</endPosition>
				</positions>
				<positions axis="Omega" unit="deg">
					<startPosition>5.00471661</startPosition>
					<endPosition>49.99721143</endPosition>
				</positions>
				<commonCountingTime unit="seconds">12.495</commonCountingTime>
				<counts unit="counts">3075 3072 3008 3059 3052 3075 3058 3079 3005 3055 2997 3052 3084 2986 3020 3002 3090 2985 3030 2962 2999 3033 3002 3098 3058 2982 2991 2961 3051 3066 3031 3095 3013 3042 2995 2984 3027 3063 3053 2988 3100 3073 3195 3062 3055 3042 3079 2930 3009 3035 3056 3082 3153 3093 3202 3171 3248 3054 3128 3153 3112 3159 3087 3153 3008 2939 2997 3074 3120 3215 3065 3171 3140 3113 3199 3154 3141 3080 3151 3020 3114 3151 3142 3160 3210 3092 3193 3083 3107 3176 3203 3134 3128 3209 3199 3121 3162 3265 3151 3143 3187 3202 3213 3163 3192 3191 3135 3130 3072 3186 3223 3094 3264 3197 3226 3213 3202 3223 3102 3145 3172 3165 3217 3152 3232 3192 3286 3215 3274 3121 3270 3198 3284 3194 3352 3184 3146 3221 3187 3358 3195 3244 3189 3197 3319 3224 3126 3326 3234 3267 3335 3181 3180 3368 3231 3279 3226 3291 3321 3214 3267 3263 3132 3267 3189 3327 3170 3265 3343 3237 3246 3325 3305 3208 3327 3287 3315 3372 3298 3253 3222 3210 3330 3145 3220 3268 3324 3348 3318 3248 3177 3229 3166 3272 3250 3359 3278 3303 3165 3225 3135 3276 3268 3272 3173 3233 3184 3112 3144 3237 3295 3328 3215 3231 3214 3332 3196 3178 3142 3267 3247 3148 3256 3200 3232 3172 3209 3118 3249 3114 3231 3082 3189 3196 3158 3229 3146 3167 3157 3183 3086 3202 3114 3238 3159 3204 3157 3102 3089 3138 3050 3106 3145 3183 3191 3174 3026 3185 3209 3166 3239 3276 3247 3142 3163 3193 3109 3096 3132 3141 3178 3215 3116 3095 3106 3095 3103 3219 3216 3214 3236 3063 3138 3211 3169 3100 3210 3176 3173 3169 3112 3149 3042 3247 3127 3135 3093 3172 3182 3253 3158 3260 3220 3190 3088 3329 3201 3124 3263 3272 3250 3165 3164 3195 3208 3276 3212 3288 3335 3271 3345 3250 3289 3302 3203 3224 3333 3339 3272 3275 3191 3245 3302 3351 3417 3386 3301 3378 3403 3413 3185 3314 3420 3305 3262 3442 3445 3389 3395 3407 3342 3444 3395 3368 3369 3358 3448 3446 3324 3499 3345 3349 3398 3497 3453 3553 3504 3457 3611 3505 3559 3533 3461 3629 3500 3560 3490 3542 3656 3600 3532 3602 3529 3448 3536 3592 3543 3570 3583 3493 3515 3491 3509 3660 3639 3689 3659 3685 3786 3812 3734 3739 3768 3823 3843 3947 3931 4069 4080 4023 4070 4212 4241 4275 4303 4356 4411 4482 4645 4647 4626 4614 4633 4642 4687 4614 4588 4397 4389 4528 4455 4357 4280 4253 4142 4123 4140 4126 4066 4086 3854 4095 4063 4048 3876 3930 3953 4004 3959 4047 3860 3880 3946 3913 3889 3939 3773 3823 3806 3726 3736 3807 3788 3753 3645 3786 3593 3653 3557 3539 3604 3609 3622 3537 3506 3730 3522 3618 3477 3515 3500 3557 3596 3521 3485 3571 3469 3590 3491 3465 3486 3604 3495 3424 3496 3557 3463 3432 3356 3515 3457 3370 3507 3417 3368 3394 3349 3399 3449 3584 3418 3385 3350 3510 3406 3430 3574 3512 3465 3464 3484 3662 3591 3564 3623 3688 3645 3599 3734 3614 3543 3652 3455 3551 3493 3454 3400 3460 3338 3303 3309 3235 3269 3241 3136 3214 3195 3213 3276 3160 3263 3268 3121 3209 3121 3215 3159 3206 3207 3068 3137 3091 3102 3134 3038 3108 3132 3069 3025 3079 3100 3008 3134 3022 3123 3034 3147 2932 3066 3096 3094 3049 3064 3008 3001 3045 3032 3105 2990 3045 2953 3059 2943 2971 2939 2959 3031 3033 2957 2952 3041 3010 3042 2988 2999 2975 2909 2996 2892 2948 2895 2995 2941 2942 2912 2939 3037 3024 2937 2945 2990 2848 2912 2963 3038 2992 2988 2992 2886 2873 2913 2861 2897 2916 2943 2963 2852 2917 2851 2916 2865 2879 2893 2874 2930 2798 2929 2944 2949 2999 3005 3007 2990 3071 2915 3064 3078 3143 3127 3135 3200 3170 3201 3377 3244 3269 3290 3262 3222 3159 3082 3117 3045 3059 2993 3052 3020 2875 2911 2961 2854 2949 2961 2877 2833 2946 2839 2916 2927 2849 2902 2948 2838 2893 2827 2781 2820 2759 2881 2792 2812 2870 2856 2830 2780 2834 2742 2915 2843 2870 2763 2832 2818 2824 2778 2910 2834 2818 2794 2903 2794 2878 2873 2808 2861 2700 2869 2859 2924 2819 2819 2841 2809 2743 2828 2831 2703 2770 2870 2874 2800 2788 2807 2753 2828 2726 2725 2882 2725 2818 2933 2823 2784 2765 2787 2781 2731 2814 2759 2879 2876 2800 2731 2704 2835 2839 2751 2795 2709 2838 2763 2795 2692 2770 2737 2851 2763 2666 2683 2719 2701 2663 2623 2619 2694 2843 2693 2679 2709 2658 2706 2713 2584 2724 2747 2616 2667 2548 2706 2639 2624 2680 2692 2746 2671 2701 2628 2645 2687 2660 2626 2632 2729 2640 2626 2756 2673 2639 2570 2632 2574 2598 2582 2592 2620 2575 2551 2541 2551 2593 2645 2619 2608 2503 2634 2600 2617 2595 2619 2616 2540 2649 2581 2667 2486 2567 2631 2532 2516 2569 2550 2429 2584 2667 2548 2593 2645 2582 2654 2639 2556 2490 2536 2576 2597 2572 2484 2561 2587 2527 2580 2549 2543 2589 2539 2469 2611 2491 2571 2520 2551 2547 2553 2608 2567 2539 2620 2598 2501 2581 2641 2470 2578 2526 2562 2453 2503 2468 2569 2491 2492 2588 2537 2474 2551 2568 2495 2510 2532 2592 2571 2512 2476 2523 2544 2484 2555 2467 2553 2543 2508 2484 2489 2526 2534 2533 2533 2556 2527 2523 2591 2534 2527 2532 2595 2468 2592 2470 2597 2557 2595 2581 2523 2512 2584 2530 2478 2509 2560 2451 2504 2425 2486 2475 2447 2521 2482 2376 2401 2457 2517 2445 2458 2498 2500 2393 2356 2461 2424 2458 2441 2448 2362 2454 2411 2469 2402 2404 2454 2437 2362 2430 2357 2369 2506 2322 2422 2450 2420 2439 2413 2492 2458 2394 2426 2405 2356 2449 2380 2404 2406 2509 2374 2408 2412 2408 2344 2333 2368 2443 2526 2441 2572 2454 2394 2416 2483 2495 2458 2410 2430 2395 2439 2375 2373 2328 2404 2442 2434 2411 2341 2449 2335 2449 2513 2457 2392 2334 2546 2360 2256 2513 2428 2374 2326 2398 2501 2422 2427 2438 2356 2423 2367 2483 2534 2331 2425 2425 2520 2508 2539 2419 2497 2387 2507 2495 2403 2578 2490 2486 2449 2512 2474 2358 2377 2468 2388 2453 2411 2422 2336 2457 2332 2316 2327 2412 2391 2327 2334 2358 2411 2514 2473 2446 2454 2545 2396 2380 2389 2413 2342 2362 2431 2368 2406 2432 2374 2383 2413 2316 2371 2309 2256 2389 2391 2348 2456 2356 2267 2336 2287 2302 2352 2341 2319 2331 2286 2309 2286 2318 2351 2420 2237 2316 2325 2260 2374 2332 2343 2299 2333 2289 2320 2225 2301 2253 2340 2346 2302 2286 2353 2231 2349 2345 2290 2236 2209 2199 2248 2407 2209 2303 2300 2218 2206 2225 2210 2236 2238 2265 2265 2159 2233 2201 2224 2227 2236 2200 2207 2195 2194 2130 2059 2037 2107 2209 2107 2152 2027 2164 2132 2124 2091 2103 2213 2082 2082 2086 2037 1990 2140 1961 2067 1987 2009 2008 2011 2111 2020 1958 2026 2059 2122 2063 2042 2074 2023 2057 2015 2024 2010 2064 2047 2079 2029 2046 2040 2042 1972 2089 1988 2225 2197 2191 2150 2124 2191 2218 2291 2215 2155 2158 2158 2090 2015 1985 2017 2017 2018 2006 1961 1969 1923 2006 2005 1956 1984 1842 1847 1923 1835 1844 1856 1831 1924 1933 1878 1856 1833 1832 1782 1866 1810 1828 1893 1906 1795 1838 1861 1820 1739 1841 1752 1848 1875 1817 1851 1819 1806 1797 1784 1794 1840 1759 1777 1804 1781 1760 1858 1781 1881 1725 1800 1773 1779 1828 1757 1802 1724 1742 1830 1702 1744 1782 1735 1732 1798 1726 1730 1696 1789 1720 1735 1738 1781 1790 1750 1740 1705 1744 1732 1737 1771 1731 1686 1761 1738 1817 1808 1751 1802 1746 1774 1724 1754 1669 1707 1719 1768 1809 1728 1751 1705 1698 1785 1848 1776 1800 1656 1786 1736 1709 1671 1713 1674 1695 1629 1729 1786 1690 1733 1704 1764 1730 1682 1688 1672 1715 1687 1666 1696 1806 1653 1736 1735 1769 1707 1748 1741 1747 1709 1708 1714 1646 1698 1734 1676 1628 1796 1701 1771 1688 1722 1756 1758 1700 1713 1752 1688 1799 1765 1691 1691 1768 1707 1710 1725 1703 1669 1661 1669 1699 1717 1667 1698 1734 1761 1689 1763 1725 1681 1725 1703 1743 1732 1700 1723 1735 1663 1658 1743 1649 1743 1714 1727 1711 1734 1691 1742 1712 1634 1634 1707 1708 1680 1756 1648 1595 1743 1618 1760 1679 1809 1658 1749 1749 1758 1630 1673 1757 1661 1735 1659 1755 1663 1738 1672 1678 1813 1690 1688 1723 1738 1768 1782 1795 1725 1831 1715 1771 1748 1765 1767 1791 1757 1757 1776 1735 1753 1744 1829 1775 1804 1821 1741 1808 1804 1746 1797 1724 1683 1678 1726 1680 1723 1685 1749 1654 1722 1710 1734 1613 1712 1712 1698 1627 1616 1654 1592 1583 1637 1662 1632 1699 1650 1637 1680 1642 1638 1615 1687 1591 1561 1549 1688 1550 1543 1532 1637 1642 1606 1616 1546 1479 1664 1501 1608 1558 1534 1567 1592 1553 1522 1506 1504 1567 1480 1539 1459 1510 1556 1522 1580 1518 1518 1477 1483 1521 1463 1489 1499 1466 1525 1561 1465 1529 1575 1486 1406 1415 1455 1473 1429 1453 1466 1468 1437 1463 1462 1436 1356 1499 1460 1439 1460 1386 1426 1544 1435 1475 1373 1482 1491 1437 1366 1433 1458 1526 1456 1439 1395 1455 1330 1384 1410 1401 1397 1360 1406 1466 1343 1387 1417 1358 1346 1404 1337 1392 1404 1351 1364 1341 1399 1443 1314 1336 1364 1353 1347 1378 1485 1380 1344 1409 1330 1436 1394 1405 1355 1450 1413 1495 1537 1499 1581 1605 1617 1639 1663 1755 1746 1854 1865 1870 1844 1954 1927 1961 1828 1920 1923 1832 1812 1858 1723 1751 1744 1737 1729 1772 1701 1689 1662 1697 1713 1620 1650 1648 1617 1455 1500 1407 1475 1456 1355 1299 1419 1332 1391 1320 1334 1376 1313 1238 1379 1324 1318 1272 1246 1338 1294 1328 1312 1303 1352 1320 1304 1324 1239 1261 1225 1302 1251 1255 1312 1316 1243 1320 1231 1326 1265 1281 1226 1321 1255 1298 1304 1299 1336 1306 1313 1267 1237 1271 1327 1273 1416 1294 1314 1322 1267 1357 1357 1316 1311 1456 1362 1374 1437 1428 1451 1569 1483 1573 1590 1660 1808 1928 2073 2222 2363 2564 2730 2895 3132 3435 3850 4134 4466 4919 5180 5451 5670 6098 6107 6160 6085 6079 5877 5696 5293 5191 4972 4696 4284 4029 3857 3375 3239 3007 2830 2702 2474 2311 2260 2131 2114 1945 2008 1946 1816 1902 1829 1767 1760 1736 1808 1711 1757 1669 1665 1646 1631 1705 1619 1580 1664 1616 1591 1569 1560 1549 1492 1525 1466 1508 1288 1458 1421 1413 1395 1410 1404 1329 1429 1278 1296 1343 1313 1270 1254 1235 1281 1266 1269 1312 1175 1211 1287 1176 1251 1159 1175 1180 1179 1196 1205 1137 1104 1094 1156 1144 1129 1132 1136 1097 1128 1092 1109 1082 1067 1054 1137 1059 1112 1128 1166 1161 1088 1147 1078 1131 1101 1116 1094 1130 1095 1145 1097 1089 1133 1151 1173 1062 1060 1111 1069 1114 1093 1087 1032 1116 1047 1159 1070 1090 1164 1117 1079 1096 1108 1111 1074 1140 1079 1065 1123 1093 1132 1161 1230 1210 1204 1261 1312 1425 1385 1508 1553 1663 1714 1939 2116 2394 2381 2515 2727 2766 2851 2875 2922 2840 2849 2873 2645 2614 2470 2425 2294 2217 1955 1949 1779 1686 1648 1537 1482 1469 1433 1362 1331 1298 1312 1265 1198 1227 1260 1167 1218 1138 1159 1137 1070 1078 1089 1097 1115 1086 1081 1050 1081 1115 1073 1135 1114 1134 1131 1160 1182 1198 1247 1152 1180 1168 1124 1134 1148 1128 1154 1147 1132 1097 1079 1065 1041 1024 1031 1058 1009 1022 1037 1017 991 974 1014 1048 1003 1004 941 1005 961 1023 991 1007 957 968 1035 997 1063 962 961 985 1036 976 937 982 1019 965 1015 1031 1003 1003 1016 1001 1012 1001 1047 1043 1087 1055 1071 1067 1088 1120 1092 1141 1142 1192 1055 1146 1111 1178 1275 1192 1250 1327 1248 1336 1235 1362 1264 1240 1306 1236 1279 1239 1205 1136 1246 1121 1133 1112 1157 1116 1053 1095 1093 1004 1033 1049 1059 1073 1046 1040 1007 1045 1028 1035 1036 1030 1085 1116 1099 1053 996 1092 1039 1088 1111 1057 1039 1011 1036 1073 1067 1043 1010 1021 1070 1045 992 1014 1012 1056 1021 1061 981 1021 1043 1010 1007 1025 955 1017 1069 1019 1042 1023 1076 1015 1071 1076 1046 1014 1091 1091 1139 1174 1184 1216 1243 1258 1283 1300 1302 1362 1285 1317 1403 1352 1365 1354 1323 1302 1331 1232 1330 1301 1290 1384 1341 1291 1283 1242 1293 1254 1311 1265 1307 1255 1295 1312 1374 1509 1570 1543 1649 1779 1893 2005 2182 2316 2588 2865 2983 3370 3721 3991 4448 4910 5491 6351 6824 7616 8115 8350 8485 8504 8351 8154 8091 7909 7630 7211 7029 6573 6146 5782 5306 4719 4376 4072 3836 3365 3087 3070 2645 2503 2312 2278 2117 2055 1905 1894 1805 1766 1711 1658 1637 1513 1544 1489 1486 1490 1421 1527 1413 1372 1462 1456 1342 1440 1456 1505 1426 1479 1454 1407 1417 1417 1403 1469 1402 1468 1361 1342 1287 1310 1238 1234 1224 1243 1120 1084 1118 1079 1074 1031 1034 1043 975 977 1007 955 971 941 952 889 1039 901 916 929 996 889 935 945 947 921 968 932 988 956 932 949 852 915 929 957 931 955 896 893 909 876 936 883 940 904 899 933 870 884 879 903 844 862 944 868 938 896 875 847 905 890 870 849 857 905 837 868 920 867 856 927 889 885 858 878 883 893 879 875 884 892 831 851 903 878 892 841 864 906 863 854 842 874 794 820 912 910 845 851 864 847 860 932 903 869 875 892 908 881 889 907 855 892 861 867 882 811 876 885 911 940 911 819 896 888 904 910 897 852 851 908 850 925 899 999 903 966 944 955 951 933 1032 1028 1033 1030 973 992 996 965 959 984 953 970 896 905 857 875 916 830 866 855 887 824 820 845 871 825 800 882 843 810 835 814 837 825 871 895 874 831 860 805 858 793 812 807 809 772 790 766 859 850 835 809 796 844 800 757 786 787 775 799 781 732 806 861 791 759 794 780 756 806 783 768 761 805 762 786 754 773 783 801 793 808 776 793 786 816 695 774 736 817 842 729 788 752 771 795 774 800 820 782 721 798 771 791 779 750 763 759 766 829 768 758 810 757 798 747 736 749 746 780 758 761 734 768 769 804 800 762 695 795 740 745 731 746 779 763 779 753 782 800 781 688 754 799 720 738 776 741 769 757 763 730 776 747 737 789 748 738 758 749 735 720 774 744 784 780 731 712 667 750 766 772 668 732 758 760 760 733 777 748 750 733 815 735 756 711 679 750 696 768 750 667 720 685 737 751 724 764 786 724 761 747 690 758 667 715 719 746 741 711 706 726 694 719 744 705 718 724 685 733 693 727 720 753 736 766 682 725 701 740 703 740 704 703 674 687 720 704 692 727 730 671 757 698 687 741 663 715 740 723 721 729 726 703 686 682 732 732 667 703 662 700 714 698 737 769 726 665 667 666 690 701 678 746 684 711 650 757 662 745 719 700 731 662 686 713 682 666 702 678 738 678 703 728 721 780 726 690 735 688 683 711 697 761 755 670 755 718 778 735 763 676 683 731 720 730 699 759 774 769 791 771 721 737 747 725 741 715 764 716 751 782 711 765 733 748 743 670 693 677 708 668 672 673 744 674 718 664 723 708 665 687 743 682 744 730 699 732 702 698 730 720 705 677 672 691 736 719 725 743 714 728 751 697 724 715 749 774 739 717 812 731 767 784 779 824 807 830 853 873 906 1034 1047 1064 1265 1269 1321 1333 1474 1507 1635 1564 1587 1597 1628 1588 1551 1580 1531 1532 1553 1454 1380 1293 1317 1263 1171 1144 1047 1072 1046 964 931 911 893 890 892 856 828 816 789 774 800 830 798 769 751 735 731 782 741 736 715 768 763 700 689 736 668 725 682 724 667 709 650 693 664 625 714 684 715 685 657 674 694 757 674 667 692 675 677 673 695 708 686 697 660 644 706 643 669 676 659 706 665 718 658 653 682 630 639 597 677 630 665 659 673 694 660 644 663 693 689 693 650 592 693 650 677 688 685 608 658 673 636 696 678 661 663 720 648 634 650 668 649 659 670 691 701 684 677 614 653 689 705 660 689 734 701 691 659 699 673 625 692 663 684 688 669 702 657 644 713 674 663 711 687 701 716 725 769 786 737 791 823 812 773 791 726 742 792 789 749 774 788 783 706 746 749 788 762 712 713 677 730 677 665 689 652 725 676 737 655 693 734 650 711 604 650 647 672 639 652 674 647 671 685 678 711 594 645 710 702 698 711 679 763 735 805 751 796 719 766 730 755 751 732 772 774 743 766 732 740 685 680 724 716 709 663 714 644 704 669 687 633 675 645 675 669 675 658 628 654 625 643 659 709 609 611 667 651 677 676 665 677 658 654 672 630 649 673 654 670 655 625 672 634 629 642 701 660 668 701 653 660 707 697 692 725 706 730 680 701 791 754 710 798 740 772 718 759 734 718 759 742 737 704 716 716 749 722 746 668 694 698 708 673 670 653 655 671 665 690 693 631 590 660 618 668 683 598 630 652 634 664 590 678 606 620 618 654 667 659 630 629 631 675 669 657 619 638 672 676 644 682 654 707 637 654 669 692 688 677 660 728 734 745 785 788 858 848 937 909 879 995 988 1001 1086 1138 1130 1081 1133 1162 1113 1134 1147 1123 1194 1182 1135 1073 1161 1012 1040 1026 979 993 981 909 889 866 876 826 821 844 758 740 734 702 743 689 670 759 691 736 735 739 703 645 678 693 650 681 608 669 713 678 678 729 648 675 723 683 699 687 729 691 714 705 685 708 706 718 712 692 701 718 741 699 728 712 666 674 697 675 660 704 690 714 648 622 625 635 672 640 615 675 637 620 657 615 628 651 695 654 686 664 642 657 664 606 633 650 635 637 632 636 642 602 648 625 569 610 653 618 574 643 633 657 647 631 608 632 590 645 600 564 646 619 599 658 583 566 630 613 594 650 610 621 562 642 572 652 608 583 601 642 598 602 636 595 589 589 586 600 582 558 622 612 587 625 600 616 624 564 607 553 612 586 606 621 607 631 609 640 571 554 597 590 561 549 590 609 613 580 581 591 588 565 609 594 561 626 592 571 611 586 582 608 640 617 626 576 587 620 570 572 603 599 580 581 597 613 588 620 620 577 639 564 740 592 663 570 599 603 611 603 567 634 593 639 608 646 614 639 591 653 650 615 617 615 605 599 639 628 564 609 589 672 590 623 588 607 598 624 599 623 565 649 614 670 627 618 622 603 620 644 591 595 602 638 552 651 625 676 608 636 645 635 659 659 640 641 618 664 644 688 652 662 671 686 675 674 688 658 690 711 664 682 706 719 638 710 703 744 705 744 691 734 702 775 726 711 694 742 771 723 723 667 716 743 761 712 711 706 750 724 729 752 669 770 743 774 808 830 864 920 895 963 1082 1008 1054 1170 1167 1160 1206 1185 1138 1179 1150 1144 1133 1107 1179 1107 1114 1144 1052 1077 988 992 1026 944 957 943 949 962 959 991 976 976 1029 1116 1155 1258 1174 1306 1341 1462 1586 1627 1822 1962 2081 2331 2549 2753 2900 3217 3276 3506 3547 3635 3678 3729 3811 3789 3791 3583 3603 3569 3257 3326 3211 3057 2926 2843 2617 2508 2438 2230 2136 2006 1864 1712 1683 1484 1347 1286 1307 1184 1107 1068 975 914 929 863 862 838 811 846 785 817 755 746 711 785 741 715 774 684 751 754 724 751 731 687 746 686 729 738 706 733 752 765 737 743 819 763 722 753 755 778 796 793 783 790 826 850 800 796 826 799 756 802 766 724 782 728 752 746 759 691 752 669 657 663 716 642 665 639 635 637 663 661 648 670 632 610 624 622 613 612 664 567 578 575 634 582 568 592 561 628 619 563 614 561 625 569 574 612 545 584 554 582 546 582 568 560 636 604 598 558 592 594 541 602 627 591 613 602 593 577 557 568 545 559 563 548 585 566 593 565 514 549 548 524 582 553 548 561 529 564 551 565 530 595 542 517 531 542 568 558 587 574 559 565 525 563 554 524 584 550 553 588 545 516 584 544 602 582 580 586 572 583 535 563 636 628 574 622 600 634 619 595 630 671 715 671 724 735 712 667 756 746 775 763 798 760 731 812 810 772 724 770 768 787 741 746 718 719 740 700 713 717 681 695 680 686 662 657 643 625 613 637 651 624 594 613 637 602 598 590 644 595 638 579 604 577 603 569 589 538 587 521 591 611 560 550 570 554 560 563 570 586 497 499 526 508 526 533 535 578 555 580 535 527 514 496 554 504 521 507 543 511 514 506 583 562 567 581 551 571 517 585 515 541 542 538 564 537 549 562 559 589 601 556 575 591 626 653 625 593 612 555 647 569 562 556 580 602 572 562 528 527 544 574 579 544 560 519 460 511 551 522 530 523 551 488 536 454 523 510 540 548 566 528 560 517 547 473 518 547 502 456 518 489 574 506 508 518 532 515 559 545 523 529 522 515 506 549 483 554 539 579 559 596 587 650 588 612 636 625 715 674 686 726 700 739 695 631 671 587 655 644 667 652 670 643 613 675 672 648 596 630 550 597 570 589 566 519 533 554 533 542 516 500 561 519 572 515 537 524 515 564 537 524 548 567 513 490 488 472 544 496 513 498 476 455 462 483 508 499 466 469 517 469 482 524 495 477 499 488 500 468 488 491 467 511 455 476 497 475 517 479 485 469 524 538 468 482 524 511 460 514 478 489 506 456 472 492 502 492 523 495 492 522 504 506 507 546 492 454 497 486 494 494 532 489 485 507 508 539 541 490 540 500 512 506 500 506 474 519 507 468 476 475 498 488 513 503 473 500 476 527 497 440 476 409 479 466 448 464 471 453 444 487 479 460 485 471 472 490 461 478 466 461 460 475 491 443 471 428 448 503 475 483 493 503 486 453 479 464 516 469 501 479 519 455 493 494 483 476 481 458 481 499 480 478 484 450 455 467 495 452 446 500 426 499 526 508 490 486 468 457 487 502 530 506 479 454 488 473 474 475 485 487 450 453 486 484 474 485 477 475 522 464 427 478 476 508 472 470 453 464 474 472 493 473 455 456 465 480 511 453 487 476 461 472 460 481 473 495 463 467 453 501 439 457 438 478 442 451 460 426 501 477 440 451 497 407 442 503 495 468 464 446 487 461 503 498 455 447 444 482 506 475 468 476 494 465 465 453 494 452 479 478 480 479 480 467 470 454 496 461 482 446 472 490 507 477 484 470 452 497 448 528 436 506 483 502 490 493 494 472 481 484 507 490 527 465 489 474 475 482 513 510 445 528 548 497 477 497 529 492 531 478 512 474 458 489 488 467 470 487 496 481 552 507 475 469 464 466 475 437 452 499 483 485 510 516 501 493 510 476 505 487 515 480 487 440 496 490 485 537 519 524 529 518 523 547 513 514 516 537 515 556 540 525 497 494 507 499 512 563 508 507 480 495 495 513 498 560 535 529 554 583 533 533 527 527 549 534 588 533 573 569 597 570 659 709 708 716 768 776 875 851 925 878 1001 974 999 999 1138 1193 1059 1109 1131 1152 1138 1150 1125 1159 1125 1040 1072 1101 1045 1006 1046 959 981 959 913 896 869 835 791 778 783 728 754 709 684 679 668 589 583 583 599 599 580 547 578 558 487 551 536 531 567 540 586 522 563 596 601 643 599 633 582 605 650 584 602 597 604 575 569 575 598 537 591 597 557 609 602 591 561 534 555 588 539 551 526 563 571 577 549 612 533 583 572 610 615 547 540 531 564 587 608 584 578 570 612 588 534 580 588 523 560 552 591 527 537 531 516 473 478 497 497 513 513 468 493 472 500 559 469 523 502 492 484 469 504 521 463 496 512 491 430 461 526 444 457 478 483 473 481 485 500 446 483 489 466 500 451 475 432 473 429 438 466 475 485 426 399 459 421 426 444 440 479 467 479 458 428 478 476 480 448 443 436 434 439 442 422 448 444 454 453 427 451 446 410 425 419 446 457 433 446 490 450 447 424 459 441 480 468 464 424 470 441 433 434 421 433 435 443 419 443 453 456 453 461 452 455 456 465 432 486 465 444 492 464 488 463 458 454 514 456 478 462 470 488 473 487 498 532 509 584 556 556 571 576 656 613 614 671 710 733 818 700 830 818 882 905 879 959 1008 1074 1023 1165 1095 1224 1194 1190 1140 1174 1158 1096 1096 1070 1021 997 954 1000 938 1033 920 952 882 896 872 843 775 771 688 716 662 648 693 588 624 586 624 618 583 537 541 500 568 507 471 520 494 505 483 484 507 487 432 443 465 458 432 482 406 449 473 396 439 464 443 415 440 461 475 447 450 469 493 465 477 463 452 459 464 482 477 446 465 462 531 465 413 500 483 476 489 483 439 470 428 452 487 445 450 481 489 479 487 440 460 464 480 476 437 477 494 430 483 417 451 452 470 410 458 413 441 447 431 393 430 477 428 467 458 425 450 424 446 447 459 443 431 417 459 443 493 465 499 463 484 451 481 440 473 489 441 448 447 430 474 422 449 431 446 472 465 433 464 401 459 466 464 420 438 430 448 412 409 442 401 440 459 419 478 447 413 481 433 477 470 460 508 524 531 475 474 527 551 496 493 543 551 547 512 531 544 566 523 532 508 522 559 509 473 479 471 467 555 513 526 462 455 478 442 488 466 454 510 483 426 436 434 434 412 458 420 433 464 452 420 461 478 471 410 425 423 440 417 473 445 439 431 389 392 428 387 440 426 401 419 417 422 426 404 411 448 413 412 419 413 407 400 418 398 450 425 442 420 400 403 396 398 400 414 413 382 403 404 410 389 418 427 395 378 380 427 413 399 414 395 453 402 476 443 399 376 425 378 408 405 438 405 405 446 422 404 434 374 412 386 428 407 409 392 449 383 447 405 446 393 394 435 435 410 414 445 404 434 392 402 395 423 430 436 412 384 395 424 409 438 411 379 417 432 425 406 395 402 412 414 397 421 399 428 441 432 427 466 464 487 429 461 441 470 481 493 530 478 528 495 496 472 523 492 453 512 474 495 398 436 454 471 468 482 499 467 493 444 463 424 467 462 462 450 426 458 450 444 446 430 436 424 369 428 404 395 447 450 406 380 410 382 371 422 409 375 395 383 436 397 409 398 393 379 397 390 394 380 377 406 385 350 414 404 385 442 424 348 381 393 372 380 425 389 360 394 405 408 391 393 394 369 424 381 368 424 354 386 400 418 370 387 404 392 418 377 392 376 380 384 381 380 433 403 379 394 365 397 410 348 435 403 410 362 394 377 426 377 383 411 385 407 408 405 408 373 375 390 353 371 367 416 381 378 409 408 413 391 395 400 406 383 401 393 408 414 434 419 443 441 414 363 418 377 387 375 401 391 399 414 419 386 349 381 396 414 374 390 399 386 373 443 367 389 386 373 387 411 406 362 426 413 391 424 398 385 410 400 405 360 380 423 390 340 408 374 374 348 373 401 365 374 382 419 386 400 415 418 414 390 416 427 414 426 403 433 395 403 427 405 419 401 398 426 387 397 377 406 348 385 423 399 431 429 422 433 415 401 401 404 406 396 380 396 411 387 400 401 399 395 429 437 353 358 364 379 350 380 418 391 397 357 414 359 402 398 393 348 394 388 406 400 380 401 380 413 428 396 392 389 389 366 390 400 396 378 401 363 418 369 376 387 396 410 420 371 356 388 390 439 427 378 376 385 393 402 386 400 425 426 428 407 412 411 411 410 481 390 441 466 434 401 456 422 449 493 470 489 454 442 458 460 443 408 432 445 450 453 432 416 412 404 432 432 428 410 399 410 456 404 411 443 407 428 394 379 391 386 420 371 394 409 389 381 410 415 385 404 426 424 393 370 400 414 438 420 393 443 382 401 432 415 383 420 397 443 394 409 369 363 385 376 373 382 401 391 384 414 433 414 385 400 359 379 367 371 361 400 377 394 362 369 336 378 355 367 371 383 375 356 394 338 387 379 389 343 430 381 390 369 353 379 384 374 396 390 378 372 353 384 400 374 359 382 351 365 367 417 434 399 399 353 378 371 350 384 364 390 387 388 370 414 348 381 368 350 387 357 367 376 371 374 389 355 377 365 399 350 365 378 362 362 421 365 365 379 410 343 378 379 385 376 425 359 381 374 336 368 389 416 388 377 379 357 365 407 400 396 383 410 371 395 393 386 389 372 372 388 389 354 371 376 399 344 350 372 386 351 372 388 381 375 414 384 446 385 354 351 382 360 382 376 385 367 392 385 351 392 388 387 369 400 447 394 424 361 356 377 325 357 376 369 363 390 383 351 376 333 338 400 369 378 371 408 363 423 375 377 378 406 379 385 407 384 385 414 387 385 438 371 415 440 370 405 374 377 367 394 402 380 442 465 435 428 447 390 431 433 450 426 467 460 461 479 543 490 566 542 608 558 595 638 647 654 602 661 647 623 670 584 609 619 644 583 589 591 590 581 628 628 540 549 572 581 539 561 589 537 523 516 532 497 536 482 529 460 489 468 421 469 434 468 450 426 427 408 406 419 458 447 443 356 396 393 396 410 418 428 417 373 381 392 369 396 370 373 365 389 422 366 400 391 400 404 381 388 382 389 386 389 410 365 388 385 393 377 360 365 388 381 397 391 359 379 346 353 390 399 389 345 373 335 376 362 378 341 369 350 381 375 379 380 388 359 358 338 428 373 391 412 377 366 396 395 400 409 397 399 400 414 375 416 386 400 398 354 363 387 398 388 420 379 387 364 385 426 385 393 393 389 388 394 354 419 388 379 384 372 395 372 355 384 369 380 386 400 363 393 374 378 348 381 383 380 358 386 327 389 350 335 384 397 364 363 379 364 383 406 391 414 359 377 396 398 393 384 352 347 375 396 360 389 372 408 351 370 348 330 381 359 339 398 386 327 389 403 352 377 344 370 332 394 362 416 347 395 376 426 361 369 377 360 399 372 389 373 396 390 379 376 401 366 352 388 334 390 374 356 375 394 401 352 341 390 342 382 364 362 355 371 383 379 425 368 357 356 347 350 378 386 383 365 376 384 398 384 350 348 386 352 347 357 353 370 357 379 382 398 402 376 377 395 410 362 392 406 385 377 370 409 381 416 374 392 368 378 341 363 346 383 375 408 399 417 405 400 380 440 388 331 384 376 387 373 412 387 361 373 390 365 326 352 407 382 355 356 357 374 366 390 386 386 372 386 356 359 391 361 385 399 359 385 392 372 345 431 360 337 368 365 388 363 373 381 357 401 414 381 373 361 323 374 379 408 385 389 351 362 366 393 363 369 388 377 365 398 355 362 373 333 394 349 370 420 374 360 355 377 350 384 377 364 370 306 353 369 349 435 412 369 402 388 377 374 387 360 342 412 354 362 348 390 359 382 396 388 390 364 368 378 359 366 409 415 332 380 354 350 383 363 371 363 355 361 338 384 366 326 346 340 370 356 365 369 336 386 357 414 371 374 362 378 349 375 372 365 358 359 350 384 378 368 373 378 374 381 357 358 386 385 381 358 375 346 392 361 370 392 414 370 373 371 394 340 338 364 384 349 338 396 373 388 367 376 377 414 411 367 357 368 384 364 402 369 409 380 438 408 375 403 375 383 409 362 403 403 363 380 362 351 403 376 389 388 373 367 358 354 374 345 353 344 367 361 397 350 348 356 333 366 356 383 373 356 341 372 368 363 354 400 365 389 358 375 340 401 378 423 363 338 381 393 349 323 356 378 372 350 401 392 390 387 360 349 367 360 366 374 375 380 368 373 392 389 380 348 360 392 375 372 390 335 381 376 355 368 391 385 382 390 375 365 355 363 337 354 335 384 393 413 383 400 392 386 381 403 410 396 377 407 365 374 397 398 403 376 407 399 355 388 406 323 368 421 346 402 360 416 385 387 411 389 408 423 379 434 416 395 433 396 389 462 375 410 371 391 407 415 395 428 437 424 433 423 422 392 396 402 452 420 380 445 451 406 378 397 432 421 432 427 417 425 444 422 396 415 455 424 422 486 455 475 416 509 524 503 486 463 492 488 473 504 461 500 497 520 597 513 540 531 574 571 562 574 610 559 581 549 550 563 552 574 537 520 536 514 510 523 523 514 501 520 481 486 532 517 503 509 483 498 507 509 475 460 437 457 469 455 388 436 427 427 434 434 448 450 414 443 401 411 409 430 413 386 391 384 442 402 394 449 416 436 407 396 387 371 406 383 433 449 375 417 416 387 410 394 388 378 399 339 413 392 371 385 399 396 385 371 386 414 411 392 385 403 341 347 374 399 386 376 375 390 414 382 410 392 380 381 438 413 437 391 393 406 382 418 394 415 416 392 392 442 415 405 370 385 437 461 427 419 411 445 479 482 451 457 429 422 427 418 418 412 408 428 424 392 456 392 419 425 406 389 426 404 431 444 418 382 403 406 365 454 421 407 354 397 397 407 399 384 378 372 402 416 392 383 403 403 394 457 409 425 469 451 387 396 467 479 490 495 483 445 503 482 537 533 518 505 525 515 531 518 535 546 538 548 518 564 506 539 575 612 613 633 667 650 662 713 666 664 658 668 714 669 646 729 693 767 814 742 777 759 731 764 771 773 788 707 713 813 763 749 745 752 706 709 668 684 683 672 659 664 693 690 648 632 619 620 605 599 580 635 578 544 543 562 553 483 472 471 510 503 467 509 465 441 511 454 428 430 410 452 418 441 412 461 425 407 400 465 393 406 417 425 415 437 393 339 397 397 402 425 391 380 396 372 392 398 419 387 341 388 380 381 397 377 367 393 395 414 365 410 365 375 382 421 345 375 396 358 404 367 432 385 433 387 414 380 403 399 427 388 395 379 371 395 383 428 414 377 401 363 398 404 471 389 416 404 383 444 433 446 405 413 427 374 456 393 447 377 387 422 417 406 392 476 421 396 424 426 460 443 444 414 397 443 414 410 428 428 435 398 420 423 415 449 450 433 469 459 425 393 376 424 432 423 420 449 445 411 440 423 402 387 417 393 435 375 419 393 406 403 381 418 396 369 428 421 381 427 423 400 377 398 392 399 407 371 397 401 424 403 389 401 384 416 372 383 397 378 368 431 334 354 392 417 379 383 394 376 387 370 362 372 346 382 355 348 396 390 371 340 356 334 337 345 374 416 354 384 364 395 395 381 357 386 345 392 369 338 364 353 360 383 352 407 325 350 306 388 377 338 377 331 354 371 346 368 355 376 404 407 382 388 361 394 382 384 367 394 386 402 413 452 439 433 433 446 394 421 417 401 401 391 390 410 408 372 412 394 407 436 440 416 399 381 421 379 441 420 396 436 384 408 386 445 402 363 395 381 407 364 421 383 352 358 386 341 360 382 420 394 377 361 385 390 396 372 375 386 392 418 385 398 376 344 378 341 378 342 416 346 379 351 342 378 344 368 371 320 357 355 387 351 357 393 326 396 398 412 417 381 363 348 351 356 355 356 389 338 356 319 345 357 394 380 356 305 377 364 375 362 339 355 331 332 345 344 382 324 363 353 355 381 336 362 347 347 303 370 358 381 357 363 330 327 373 339 334 330 391 331 352 326 361 323 357 336 364 326 346 364 365 366 374 339 343 378 355 382 366 351 337 355 326 348 357 309 367 315 356 350 365 370 370 327 346 346 354 413 332 388 389 320 382 310 328 351 371 349 374 333 307 325 317 311 350 374 337 363 363 366 388 369 333 364 344 329 360 331 345 348 331 367 336 334 386 345 349 345 346 364 352 373 322 359 322 358 352 346 334 319 334 355 349 331 313 412 306 367 337 358 347 369 380 374 344 366 348 344 333 373 339 354 342 333 338 363 344 376 366 369 313 358 365 332 330 354 339 314 338 343 354 349 356 313 357 349 353 294 360 357 358 380 343 347 384 373 380 348 373 384 342 372 342 326 349 370 390 365 370 373 332 341 379 374 333 346 366 353 349 375 354 366 340 344 365 366 331 350 336 384 360 363 345 411 364 359 347 386 325 379 374 402 364 384 366 360 352 342 380 395 389 370 384 373 382 372 355 392 349 407 368 384 407 332 364 388 387 394 376 333 406 359 344 370 371 355 393 342 370 364 319 358 346 372 346 345 369 387 362 369 343 361 363 344 358 348 325 319 360 348 341 344 337 365 303 373 345 373 333 340 335 352 358 335 359 312 356 331 369 342 386 381 380 339 348 343 310 326 336 323 343 344 322 344 336 335 343 335 321 322 331 333 350 350 316 332 350 367 359 372 356 335 337 304 341 385 353 373 324 348 344 331 344 368 344 376 381 338 392 341 365 370 319 352 352 344 317 324 344 361 344 322 349 361 356 376 346 322 336 340 339 341 333 322 300 328 341 352 313 348 350 358 339 369 352 351 341 350 359 310 370 304 350 380 384 370 387 354 355 369 358 337 351 374 386 396 340 360 363 364 326 376 370 370 363 339 360 391 388 395 343 366 353 353 363 329 351 356 368 364 374 354 377 350 358 413 345 340 354 358 355 319 366 353 355 385 352 340 372 348 340 337 375 373 332 410 346 325 349 352 380 379 383 368 347 321 335 350 420 354 392 337 343 365 386 381 388 365 384 372 369 436 403 397 400 427 404 355 385 385 437 466 423 417 428 421 396 400 458 481 465 444 484 494 486 467 497 470 523 502 535 495 545 537 496 527 585 560 582 559 586 578 616 614 557 613 605 564 575 620 569 603 520 606 544 542 517 545 506 560 519 538 502 486 557 514 495 528 507 466 501 509 462 471 419 425 460 476 450 436 435 401 411 420 436 372 403 394 377 372 383 358 402 367 387 383 378 380 381 393 369 340 359 336 354 340 361 349 326 347 355 368 368 353 364 336 399 336 333 393 332 319 325 354 354 384 391 340 371 362 394 341 322 346 407 321 371 339 391 435 355 334 364 310 320 353 369 356 355 326 351 357 342 328 357 377 346 383 360 347 350 358 376 329 363 382 335 335 366 362 347 322 357 331 384 332 378 354 379 361 343 359 318 326 363 376 354 368 323 377 356 337 370 361 364 368 317 368 333 384 347 374 384 360 329 363 353 396 353 383 385 371 355 342 364 329 369 376 356 346 346 339 336 355 367 344 347 356 330 363 317 334 351 339 349 357 345 345 355 370 333 360 366 374 333 348 345 342 384 370 329 375 355 351 338 409 357 372 315 343 380 347 375 387 345 346 380 341 352 343 367 338 365 358 357 358 338 325 369 375 361 382 365 360 374 340 314 353 353 373 307 344 335 374 339 340 337 328 352 352 326 339 341 335 346 377 330 329 334 357 330 343 344 341 341 367 359 367 328 306 342 302 322 340 316 363 357 356 349 356 366 330 333 334 354 331 342 321 296 304 338 312 282 316 350 316 318 296 352 307 346 348 335 328 351 320 329 320 315 388 317 313 288 315 295 315 310 325 311 330 334 329 315 359 339 316 338 287 308 300 350 322 350 327 347 288 366 344 318 321 308 333 319 368 330 322 294 356 361 315 322 309 307 311 309 304 323 335 315 322 307 311 308 313 351 328 314 344 319 332 333 352 289 303 321 279 322 342 310 353 296 357 331 303 307 319 331 351 322 333 318 352 315 304 341 346 307 351 302 326 327 352 324 327 314 318 311 324 333 301 343 335 337 309 357 320 318 339 311 292 356 355 312 293 319 304 359 333 341 317 311 289 327 325 344 323 329 319 331 324 323 335 308 329 316 323 299 329 327 304 322 342 340 357 315 353 309 293 315 346 339 331 325 340 335 322 347 312 367 279 309 320 339 341 330 317 309 345 313 347 325 336 363 304 335 335 327 327 350 338 321 338 348 301 346 300 332 353 339 338 315 345 334 349 326 305 303 302 328 304 326 332 319 289 329 287 301 296 348 317 304 307 317 286 353 296 319 320 351 320 331 324 342 358 338 326 321 332 307 297 340 309 314 320 313 316 317 350 342 322 340 307 334 300 330 296 320 311 336 314 354 323 308 308 360 319 320 338 353 335 346 344 324 367 331 357 343 321 320 336 326 307 299 314 357 370 325 376 339 327 369 350 351 361 344 316 334 322 345 347 345 358 335 338 343 353 328 377 378 339 355 397 355 345 362 362 377 356 385 409 344 376 384 401 386 393 405 388 407 375 372 403 404 367 401 370 402 355 383 371 398 381 415 365 417 394 416 394 399 385 377 402 408 380 390 390 404 380 390 384 370 372 398 405 385 436 392 408 390 390 392 389 409 375 403 390 382 381 438 437 439 417 445</counts>
			</dataPoints>
		</scan>
	</xrdMeasurement>
</xrdMeasurements>
