<?xml version="1.0"?>
<xrdMeasurements xmlns="http://www.xrdml.com/XRDMeasurement/2.3" xmlns:xsi="http://www.w3.org/2001/XMLSchema-instance" xsi:schemaLocation="http://www.xrdml.com/XRDMeasurement/2.3 http://www.xrdml.com/XRDMeasurement/2.3/XRDMeasurement.xsd" status="Completed" recordIdentifier="{3EA817F4-1DDE-4CB4-BF84-ED1A92F211FD}">
	<comment>
		<entry/>
	</comment>
	<sample type="To be analyzed">
		<id>GPSS_Li1p8Mn0p8Bi0p2Cl4_121825_6943d914f4d05ae3d69790b6</id>
		<name></name>
		<preparedBy></preparedBy>
	</sample>
	<xrdMeasurement measurementType="Scan" status="Completed" sampleMode="Reflection">
		<usedWavelength intended="K-Alpha 1">
			<kAlpha1 unit="Angstrom">1.5405980</kAlpha1>
			<kAlpha2 unit="Angstrom">1.5444260</kAlpha2>
			<kBeta unit="Angstrom">1.3922500</kBeta>
			<ratioKAlpha2KAlpha1>0.5000</ratioKAlpha2KAlpha1>
		</usedWavelength>
		<incidentBeamPath>
			<radius unit="mm">145.00</radius>
			<xRayTube id="1010048" name="Empyrean Cu LFF HR (9430 033 7310x)">
				<tension unit="kV">40.0</tension>
				<current unit="mA">15.0</current>
				<anodeMaterial>Cu</anodeMaterial>
				<focus type="Line">
					<length unit="mm">12.0</length>
					<width unit="mm">0.4</width>
					<takeOffAngle unit="deg">6.0</takeOffAngle>
				</focus>
			</xRayTube>
			<sollerSlit id="21010002" name="Soller slits 0.04 rad.">
				<opening unit="rad">0.0400</opening>
			</sollerSlit>
			<mask id="22031000" name="Fixed mask 13 mm">
				<width unit="mm">9.00</width>
			</mask>
			<divergenceSlit id="22120001" name="Divergence slit 1°" xsi:type="fixedDivergenceSlitType">
				<distanceToSample unit="mm">50.00</distanceToSample>
				<height unit="mm">1.52</height>
			</divergenceSlit>
		</incidentBeamPath>
		<sampleMovement xsi:type="spinningSampleMovementType">
			<spinnerRevolutionTime unit="seconds">1.0</spinnerRevolutionTime>
		</sampleMovement>
		<diffractedBeamPath>
			<radius unit="mm">145.00</radius>
			<antiScatterSlit id="22090040" name="AS slit 9 mm (PIXcel)" xsi:type="fixedAntiScatterSlitType">
				<height unit="mm">9.00</height>
			</antiScatterSlit>
			<sollerSlit id="21020003" name="Large Soller slits 0.04 rad.">
				<opening unit="rad">0.0400</opening>
			</sollerSlit>
			<filter id="20030001" name="Large beta-filter Nickel">
				<material>Ni</material>
				<thickness unit="mm">0.020</thickness>
			</filter>
			<detector id="7010019" name="PIXcel1D-Medipix3 detector" xsi:type="rtmsDetectorType">
				<phd unit="keV">
					<lowerLevel>4.02</lowerLevel>
					<upperLevel>11.27</upperLevel>
				</phd>
				<mode>Scanning</mode>
				<activeLength unit="deg">5.542</activeLength>
			</detector>
		</diffractedBeamPath>
		<scan appendNumber="0" mode="Continuous" scanAxis="Gonio" status="Completed">
			<header>
				<startTimeStamp>2025-12-21T14:21:53-08:00</startTimeStamp>
				<endTimeStamp>2025-12-21T14:30:00-08:00</endTimeStamp>
				<author>
					<name>AutomatedUser</name>
				</author>
				<source>
					<applicationSoftware version="1.7b (136)">PANalytical Aeris Instrument Suite</applicationSoftware>
					<instrumentControlSoftware version="3.2.00000000 20240306">AERIS</instrumentControlSoftware>
					<instrumentID>950485</instrumentID>
				</source>
			</header>
			<dataPoints>
				<positions axis="2Theta" unit="deg">
					<startPosition>10.00943322</startPosition>
					<endPosition>99.99442286</endPosition>
				</positions>
				<positions axis="Omega" unit="deg">
					<startPosition>5.00471661</startPosition>
					<endPosition>49.99721143</endPosition>
				</positions>
				<commonCountingTime unit="seconds">12.495</commonCountingTime>
				<counts unit="counts">2916 3034 2978 3051 3058 2939 3049 3076 3042 2939 2968 2904 3041 3011 2951 3017 3083 2915 3059 2939 2942 3004 3003 2968 2994 3061 3074 2984 3055 3071 3069 2915 3080 2967 3111 3094 3054 3124 2983 3020 3101 3096 3018 3083 3047 3052 3034 3112 2962 3064 3087 3061 3208 2965 3077 3044 3124 3167 3175 3174 3139 3232 3132 3241 3106 3159 3206 3136 3081 3335 3151 3243 3275 3274 3351 3281 3301 3355 3401 3479 3406 3336 3401 3431 3375 3527 3408 3534 3446 3502 3484 3624 3541 3450 3517 3569 3565 3615 3519 3587 3521 3535 3463 3503 3396 3551 3533 3388 3289 3502 3375 3333 3363 3315 3265 3255 3070 3170 3180 3249 3120 3249 3282 3129 3204 3330 3238 3070 3226 3227 3177 3212 3151 3130 3190 3219 3197 3141 3231 3184 3220 3192 3187 3123 3150 3215 3145 3312 3129 3125 3163 3194 3131 3265 3253 3095 3231 3263 3119 3258 3149 3163 3161 3108 3229 3179 3259 3219 3270 3210 3201 3156 3213 3184 3215 3207 3108 3125 3268 3134 3216 3227 3166 3240 3172 3241 3329 3293 3215 3215 3318 3287 3432 3306 3207 3251 3223 3336 3240 3307 3202 3197 3139 3231 3283 3199 3242 3079 3142 3197 3091 3086 3113 3151 3185 3101 3164 3134 3143 3099 3122 3154 3020 3138 3156 3119 3136 3153 3112 3195 3133 3160 3125 3151 3134 3073 3097 3044 3087 3133 3144 3122 3088 3105 3156 3182 3064 3016 3004 3055 3014 3075 3115 3090 3052 3058 3124 3111 3012 3083 3047 3191 2977 3098 3102 3071 3051 3022 3169 3113 3135 3155 3036 3052 3117 3186 3103 3172 3128 3094 3055 3107 3085 3109 3130 3072 3188 3011 3091 3149 3148 3141 3093 3126 3095 3112 3224 3123 3095 3067 3157 3195 3102 3109 3052 3278 3047 3160 3155 3154 3116 3191 3122 3160 3132 3146 3107 3139 3237 3202 3259 3157 3150 3257 3207 3275 3254 3200 3193 3259 3132 3221 3194 3281 3211 3263 3296 3292 3253 3248 3279 3297 3278 3281 3318 3505 3410 3296 3398 3266 3426 3405 3313 3524 3276 3348 3334 3351 3285 3382 3410 3321 3407 3336 3415 3446 3387 3388 3485 3350 3457 3335 3541 3417 3443 3385 3512 3653 3525 3384 3514 3484 3542 3551 3521 3617 3497 3526 3563 3477 3539 3551 3534 3697 3590 3579 3558 3561 3677 3608 3765 3725 3664 3685 3877 3834 3835 3858 3945 3900 4026 4149 4225 4343 4215 4212 4238 4358 4324 4259 4328 4242 4192 4319 4290 4319 4240 4269 4276 4282 4333 4268 4206 4305 4309 4242 4301 4022 4187 4365 4077 4192 4103 4081 4143 4037 3908 3872 3708 3691 3747 3626 3698 3694 3509 3537 3623 3511 3659 3660 3650 3675 3716 3692 3729 3783 3656 3666 3677 3667 3735 3784 3881 3802 3803 3908 3840 3883 3862 3924 3935 3991 3956 4010 4106 4060 4048 3951 4214 4034 4186 4061 4140 4048 4010 3997 4013 4128 4139 4067 4091 4210 3964 4035 3979 3955 3839 3936 3860 3780 3816 3613 3598 3625 3435 3565 3375 3509 3323 3356 3406 3372 3339 3245 3199 3267 3241 3200 3174 3154 3290 3036 3159 3191 3101 3181 3109 3156 3128 3130 3167 3114 3189 3098 3071 3154 3085 3072 3121 3064 3010 3030 3166 3009 3083 2944 3072 3099 3106 3054 3035 3138 3042 3103 3043 3006 3036 3029 2887 2924 3033 3063 3020 3021 2974 3019 2972 3018 3034 2949 3064 2985 2924 2958 3017 2980 3014 3004 2975 2989 2881 3040 2882 2958 3042 2967 3003 2939 3068 2915 2924 2909 2996 2930 3005 3024 2943 2989 2837 2942 3028 3016 2982 3023 2910 2952 2900 2892 3008 3001 2957 2910 2941 2875 2906 2939 2819 2985 2910 2938 2867 2924 2909 2854 2862 2935 2851 2878 2959 2992 2894 2890 2941 2909 2962 2899 2833 2789 2818 2872 2892 2905 2883 2813 2836 2840 2954 2801 2838 2828 2887 2873 2786 2857 2890 2868 2906 2833 2843 2879 2845 2752 2785 2887 2873 2870 2803 2806 2937 2874 2946 2767 2800 2755 2824 2824 2882 2875 2827 2891 2876 2840 2848 2806 2851 2931 2935 2830 2878 2893 2839 2854 2717 2856 2794 2855 2837 2766 2867 2820 2784 2893 2912 2928 2888 2802 2817 2818 2908 2821 2762 2682 2716 2759 2835 2794 2842 2787 2866 2788 2788 2778 2792 2789 2778 2821 2804 2820 2796 2714 2703 2656 2709 2716 2775 2833 2745 2781 2839 2878 2819 2761 2743 2778 2908 2856 2845 2781 2753 2720 2829 2800 2739 2750 2795 2813 2831 2732 2763 2792 2763 2744 2789 2920 2737 2803 2776 2710 2816 2676 2769 2748 2686 2586 2659 2867 2770 2693 2760 2686 2795 2707 2791 2754 2721 2704 2748 2766 2679 2811 2737 2697 2695 2779 2753 2753 2792 2722 2715 2734 2747 2618 2697 2741 2793 2628 2725 2636 2760 2728 2706 2747 2660 2698 2614 2700 2812 2796 2661 2706 2720 2706 2636 2766 2835 2727 2652 2666 2644 2624 2689 2750 2700 2715 2710 2659 2662 2695 2752 2658 2688 2715 2769 2643 2649 2717 2705 2785 2650 2745 2577 2593 2615 2637 2657 2682 2653 2715 2726 2717 2685 2727 2647 2678 2559 2672 2626 2663 2757 2686 2595 2649 2641 2581 2559 2651 2756 2671 2673 2754 2567 2579 2632 2638 2461 2655 2622 2584 2654 2578 2670 2618 2543 2625 2603 2619 2576 2573 2628 2622 2580 2508 2635 2516 2605 2636 2627 2639 2604 2505 2526 2525 2520 2582 2639 2572 2630 2623 2566 2589 2608 2612 2564 2560 2504 2638 2556 2615 2584 2557 2564 2563 2621 2584 2609 2568 2526 2574 2592 2601 2660 2610 2612 2595 2621 2508 2562 2575 2499 2604 2674 2575 2561 2572 2647 2574 2551 2647 2619 2564 2569 2571 2496 2490 2589 2548 2562 2595 2643 2601 2627 2532 2604 2539 2599 2579 2532 2472 2551 2605 2584 2526 2550 2440 2680 2528 2511 2569 2497 2554 2599 2558 2508 2492 2575 2544 2525 2504 2528 2488 2427 2568 2569 2569 2593 2599 2545 2569 2509 2501 2481 2518 2579 2536 2495 2513 2513 2461 2558 2602 2532 2513 2537 2523 2553 2582 2495 2572 2504 2495 2548 2435 2536 2542 2475 2499 2588 2498 2502 2535 2577 2451 2567 2532 2459 2568 2585 2469 2604 2611 2575 2506 2472 2451 2461 2544 2618 2451 2426 2484 2581 2558 2634 2495 2605 2531 2435 2565 2527 2526 2556 2550 2469 2547 2600 2501 2451 2493 2510 2550 2524 2553 2489 2411 2475 2496 2617 2554 2538 2556 2601 2516 2413 2467 2500 2503 2468 2500 2487 2596 2597 2446 2538 2466 2554 2456 2620 2522 2498 2601 2548 2450 2482 2494 2365 2505 2483 2417 2466 2416 2479 2454 2396 2530 2438 2378 2467 2459 2478 2446 2374 2497 2400 2397 2426 2408 2304 2462 2337 2336 2453 2269 2406 2367 2413 2395 2335 2348 2423 2422 2369 2434 2407 2293 2385 2285 2424 2360 2417 2209 2342 2274 2356 2297 2337 2387 2305 2316 2245 2306 2330 2228 2295 2352 2302 2301 2348 2291 2176 2262 2297 2293 2160 2255 2237 2210 2219 2345 2265 2213 2235 2260 2135 2242 2232 2255 2171 2221 2180 2113 2165 2197 2101 2225 2209 2195 2137 2094 2044 2144 2140 2134 2203 2157 2016 2058 2255 2107 2168 2037 2089 2120 2074 2025 2135 2102 2078 2099 2111 2046 2071 2059 2092 2010 2141 2082 1993 2012 2132 2078 2079 2066 2046 2022 1998 2004 2025 2005 2007 1995 2009 2109 2050 1943 2012 1959 2024 2021 1944 1951 2021 2026 2056 1930 2040 2045 2098 1993 2072 2093 2052 1918 1923 2036 1984 2003 1991 1942 1982 1951 1926 1992 2003 1981 2007 1916 1990 1941 2003 2057 1990 1975 1876 1975 1950 1926 1969 1938 1993 1962 1950 1999 1925 1916 2061 1979 1945 1983 1887 1951 2038 1837 1975 1953 1882 1947 1905 1907 1967 1815 1864 1891 1870 1912 1899 1975 1844 1823 1872 1899 1850 1898 1948 1926 1920 1887 1881 1835 1898 1776 1941 1920 1882 1911 1892 1919 1801 1862 1952 1851 1873 1879 1835 1907 1973 1852 1895 1838 1878 1911 1917 1840 1812 1816 1828 1826 1914 1909 1888 1818 1927 1799 1925 1930 1830 1917 1857 1997 1873 1799 1945 1914 1822 1941 1992 1907 1849 1888 1861 1889 1830 1882 1842 1854 1948 1931 1913 1811 1869 1875 1904 1913 1937 1905 1993 1932 1943 1976 1942 1904 1956 1915 1839 1860 1841 1928 1949 1959 1877 1922 1979 1938 1891 1881 1895 1815 1912 1928 1925 1938 1950 1961 1890 2011 1981 1980 1997 2022 1960 2058 2080 2066 2026 2040 2017 2046 2094 2041 2024 2023 2041 2113 1957 1999 2020 2054 2014 2050 1962 2094 2012 2059 2042 1986 2021 1928 1956 2004 2062 2000 1952 2041 1948 1982 1977 2005 1913 1900 1835 1925 1925 1856 1869 1878 1890 1937 1865 1924 1780 1913 1836 1865 1807 1830 1907 1925 1906 1864 1857 1843 1839 1886 1922 1947 1848 1886 1908 1843 1856 1762 1785 1793 1855 1907 1867 1907 1901 1904 1807 1847 1795 1819 1911 1938 1877 1855 1828 1864 1791 1843 1880 1789 1873 1799 1826 1808 1876 1843 1791 1770 1731 1795 1833 1748 1791 1726 1698 1825 1777 1723 1747 1723 1703 1930 1788 1756 1854 1832 1722 1747 1858 1766 1814 1769 1736 1799 1834 1752 1778 1815 1786 1797 1760 1789 1772 1751 1710 1706 1745 1749 1784 1762 1813 1691 1699 1708 1711 1672 1717 1722 1670 1777 1758 1650 1667 1707 1663 1702 1681 1673 1674 1632 1683 1669 1734 1638 1659 1629 1613 1658 1625 1629 1688 1547 1604 1617 1706 1614 1618 1649 1641 1640 1655 1603 1659 1656 1630 1638 1621 1611 1559 1671 1684 1607 1576 1619 1696 1624 1619 1613 1632 1688 1738 1777 1774 1811 1879 1948 1923 2006 2003 2074 2223 2203 2239 2190 2229 2250 2153 2229 2329 2287 2198 2225 2202 2186 2115 2075 2096 2143 2029 2033 2068 2041 1976 1978 1951 1966 1911 1976 1867 1915 1849 1908 1824 1807 1772 1789 1713 1651 1741 1689 1559 1676 1567 1603 1592 1576 1519 1491 1493 1569 1559 1514 1533 1426 1452 1458 1558 1450 1560 1481 1454 1509 1474 1467 1479 1494 1477 1426 1491 1445 1422 1494 1522 1487 1428 1429 1422 1518 1505 1443 1472 1487 1458 1475 1456 1443 1500 1472 1393 1451 1383 1501 1449 1455 1390 1464 1547 1476 1420 1466 1501 1484 1485 1547 1618 1521 1634 1725 1782 1733 2023 2080 2091 2189 2275 2452 2623 2717 2740 2810 2947 2938 2958 2997 3033 3023 2881 2937 2953 2924 2716 2723 2690 2780 2592 2596 2575 2544 2528 2447 2445 2396 2499 2441 2316 2355 2300 2292 2297 2127 2124 1996 1915 1886 1802 1865 1749 1663 1767 1703 1671 1568 1612 1626 1660 1654 1709 1749 1789 1972 1874 1915 2027 2082 2183 2265 2166 2222 2266 2341 2217 2295 2273 2367 2146 2172 2091 2110 2070 2049 2070 1993 2024 2080 1876 1896 1976 1942 1846 1889 1929 1757 1779 1850 1849 1768 1750 1772 1713 1682 1603 1655 1575 1650 1655 1544 1568 1583 1496 1498 1466 1557 1509 1483 1452 1426 1432 1404 1362 1379 1322 1390 1328 1389 1356 1333 1291 1316 1258 1263 1326 1360 1244 1281 1335 1259 1263 1342 1237 1343 1343 1306 1313 1280 1308 1250 1257 1310 1289 1283 1305 1199 1224 1267 1217 1297 1224 1207 1298 1240 1285 1275 1184 1266 1250 1200 1242 1175 1208 1270 1266 1223 1267 1290 1248 1206 1244 1164 1230 1206 1185 1226 1218 1318 1256 1224 1180 1229 1192 1213 1220 1266 1271 1228 1221 1232 1130 1183 1232 1237 1201 1288 1217 1211 1265 1259 1194 1149 1161 1282 1249 1159 1197 1243 1243 1239 1195 1181 1296 1196 1199 1155 1182 1169 1167 1232 1187 1198 1179 1189 1211 1177 1220 1249 1220 1269 1203 1183 1247 1194 1241 1229 1270 1210 1222 1198 1230 1207 1216 1190 1176 1212 1193 1246 1206 1256 1190 1266 1234 1176 1180 1256 1244 1289 1227 1327 1225 1282 1291 1303 1257 1303 1288 1327 1329 1357 1358 1415 1372 1381 1382 1508 1456 1485 1493 1552 1567 1603 1628 1553 1664 1535 1563 1589 1638 1567 1702 1601 1556 1548 1520 1630 1524 1682 1616 1652 1643 1625 1707 1551 1537 1597 1523 1533 1604 1533 1559 1516 1401 1535 1467 1424 1485 1408 1359 1317 1302 1310 1353 1304 1310 1298 1198 1258 1255 1269 1295 1183 1200 1240 1207 1202 1310 1202 1269 1164 1243 1193 1200 1211 1189 1243 1217 1213 1252 1236 1211 1154 1255 1234 1162 1291 1240 1226 1180 1180 1259 1254 1325 1283 1242 1346 1387 1263 1376 1432 1346 1385 1479 1391 1390 1407 1495 1414 1445 1446 1401 1448 1459 1440 1452 1413 1454 1442 1455 1474 1443 1488 1460 1393 1499 1482 1485 1488 1410 1398 1397 1501 1429 1438 1365 1334 1322 1409 1403 1355 1329 1327 1403 1414 1469 1504 1519 1546 1509 1537 1759 1811 1821 2047 2073 2321 2509 2716 3111 3427 3716 4136 4458 4744 4892 4699 4883 4811 4857 4878 4942 4779 4896 4766 4542 4567 4417 4094 3914 3800 3738 3579 3495 3496 3353 3382 3315 3259 3208 3052 3111 2958 2826 2710 2633 2543 2345 2301 2226 2064 2024 1936 1831 1907 1707 1629 1701 1593 1583 1553 1572 1619 1558 1561 1584 1528 1605 1569 1492 1645 1645 1703 1681 1737 1796 1866 1962 1873 1988 1938 1998 1941 1984 1930 1921 1971 1859 1871 1784 1784 1724 1756 1630 1626 1638 1602 1499 1530 1576 1590 1431 1417 1523 1384 1376 1414 1441 1371 1414 1373 1376 1361 1294 1286 1272 1293 1277 1271 1329 1199 1179 1211 1219 1241 1152 1145 1183 1206 1198 1214 1149 1163 1101 1130 1207 1174 1221 1152 1112 1150 1120 1192 1134 1183 1176 1199 1177 1199 1117 1158 1105 1141 1129 1132 1120 1177 1182 1227 1143 1152 1151 1198 1189 1195 1120 1219 1195 1290 1206 1184 1156 1137 1126 1133 1156 1182 1237 1139 1151 1233 1194 1204 1178 1203 1163 1211 1199 1281 1204 1164 1189 1234 1145 1191 1201 1185 1202 1235 1263 1227 1203 1203 1192 1226 1216 1185 1255 1261 1234 1219 1185 1156 1139 1214 1204 1222 1220 1279 1215 1192 1212 1241 1225 1224 1258 1197 1177 1240 1260 1225 1208 1232 1235 1247 1328 1252 1171 1258 1138 1209 1177 1173 1165 1151 1223 1152 1175 1103 1219 1119 1152 1179 1074 1111 1156 1115 1115 1102 1131 1115 1175 1152 1086 1140 1165 1075 1126 1070 1090 1090 1065 1061 1118 1083 1100 1026 1039 1108 1049 1056 1047 1054 1063 1028 1026 1083 1018 1066 1048 995 1062 1013 975 1027 1058 1030 1067 1082 1074 1041 1108 1059 1060 1088 1094 1102 1066 1071 1096 1123 1069 1070 1070 1094 1070 1005 1095 1082 1051 1065 1107 1138 1089 1051 1040 1041 1057 1074 993 1054 1048 1009 1051 1091 1051 1028 1078 1042 1037 1047 1028 1047 945 1066 1014 1011 1005 1036 1014 1018 1079 951 1046 1024 1039 1080 1114 1007 997 1032 1068 1045 1031 1033 1097 1064 1048 1110 1079 966 1024 1041 1087 1075 1076 1059 1087 1057 1052 1040 1032 1094 1061 1026 989 1025 1067 1073 1055 1022 1042 1086 995 983 998 1017 1057 943 995 1019 1017 1004 1045 1021 1008 1014 984 1011 952 989 1044 1087 1049 958 1022 1008 1018 1006 986 975 1066 992 979 968 1044 976 1016 973 1019 969 927 981 988 945 975 953 994 1046 1011 1055 980 969 970 1005 950 1009 1002 954 927 905 983 1013 996 929 993 940 960 942 936 922 1021 1008 986 1001 956 966 998 968 957 998 980 1015 991 1000 969 953 959 990 923 975 1009 972 933 1031 930 983 1003 959 997 1043 969 971 971 993 942 1040 983 957 964 984 1002 951 981 943 978 948 989 947 938 1023 937 974 1021 1060 972 1002 1029 989 987 931 1018 968 960 978 982 997 954 966 948 1001 967 966 949 940 961 971 981 959 1017 1036 980 948 932 1020 912 995 981 954 955 985 985 1017 943 1007 969 936 909 981 945 972 954 1012 967 960 909 897 941 939 965 959 940 932 935 951 922 944 905 972 935 895 960 964 973 943 950 941 1005 929 905 991 962 954 881 961 954 907 884 940 948 946 950 953 952 942 913 951 872 936 920 881 939 937 960 950 918 917 964 928 953 915 932 929 869 879 956 904 983 949 941 970 1013 948 963 1014 941 984 956 988 915 968 945 967 983 938 927 963 1007 1026 955 1007 963 934 989 937 928 1003 933 945 929 1016 917 970 973 946 980 997 950 914 973 955 982 929 938 999 970 944 931 998 930 911 874 923 926 945 962 912 929 989 1023 918 922 923 924 918 913 893 932 940 961 983 953 932 908 962 915 976 927 938 875 948 961 932 975 918 936 957 912 933 883 930 925 905 880 920 907 933 953 919 911 921 881 904 873 962 931 965 917 795 865 884 899 893 972 937 910 960 893 914 919 923 903 961 923 889 950 939 940 937 924 923 904 951 904 898 926 931 951 965 932 970 942 967 967 951 952 928 937 963 961 962 1010 942 959 980 921 941 980 949 874 934 990 967 957 974 998 962 899 1011 936 946 995 951 939 937 946 953 934 944 957 972 856 889 944 947 879 870 856 952 907 898 878 843 884 910 872 854 984 904 910 890 960 914 910 869 906 893 897 891 930 925 882 878 958 901 907 887 960 933 940 844 945 940 896 939 918 910 971 906 910 949 920 960 935 944 944 913 922 933 900 938 953 915 897 914 930 925 885 911 914 941 906 911 904 921 950 925 936 945 892 864 944 961 892 902 927 922 940 919 924 945 956 917 953 933 958 953 891 916 904 871 963 994 879 847 973 943 898 950 977 894 960 957 959 986 964 1030 1010 953 967 919 956 1001 960 991 1008 984 984 948 946 931 924 957 1008 1026 950 1031 936 981 958 1021 1065 980 1076 1000 995 952 943 1040 983 988 1037 949 994 931 972 954 960 1017 940 989 1011 950 985 979 971 1008 1019 1026 917 1027 1000 995 972 921 1006 998 998 1064 1001 1074 1056 1120 1102 1173 1223 1278 1309 1356 1248 1301 1252 1332 1286 1292 1276 1376 1253 1370 1265 1304 1331 1278 1255 1211 1262 1211 1187 1183 1152 1222 1185 1058 1112 1123 1134 1101 1104 1022 1040 1005 1042 962 1027 960 963 951 940 860 892 912 895 920 948 905 940 905 872 892 857 876 896 883 916 911 915 868 903 883 897 937 875 898 826 913 815 849 924 905 917 827 904 834 913 900 848 815 855 855 865 848 921 853 917 914 947 903 859 876 897 904 908 846 904 902 822 922 923 884 899 898 927 929 866 926 869 875 927 882 936 831 883 872 861 915 881 920 868 912 868 867 866 892 856 840 837 921 872 869 892 882 925 864 839 867 944 857 819 845 857 828 837 925 855 853 882 863 881 856 886 897 862 878 881 911 849 851 907 935 870 919 889 919 933 894 854 909 881 903 910 930 921 883 903 901 890 936 907 967 908 893 865 863 960 897 960 866 948 904 899 879 859 836 904 881 917 901 884 892 883 878 928 889 907 866 908 883 959 975 922 911 889 861 861 823 921 874 848 919 835 888 852 847 828 929 940 892 879 881 902 954 917 922 919 916 920 872 863 921 923 874 881 913 917 937 913 922 925 989 960 850 883 860 909 879 892 884 908 868 897 877 894 870 941 944 923 875 901 892 917 881 874 862 897 953 834 920 828 914 848 916 868 912 867 891 897 848 866 900 844 864 836 840 852 889 917 953 935 903 869 879 906 866 881 919 862 831 827 917 828 863 873 833 834 967 873 849 908 859 866 835 915 877 873 884 817 909 893 851 911 825 958 878 835 840 897 941 828 865 920 927 925 908 904 892 940 917 908 886 970 938 911 893 897 997 930 952 948 975 938 956 944 982 980 989 970 1011 1020 988 1058 981 1136 1068 1174 1234 1192 1273 1375 1369 1501 1645 1881 2091 2204 2572 2778 3089 3133 3209 3174 3208 3200 3152 3211 3177 3230 3271 3521 3273 3424 3309 3075 3028 2819 2812 2615 2466 2434 2416 2543 2429 2325 2236 2271 2132 2065 1899 1850 1740 1638 1541 1545 1464 1488 1397 1385 1380 1350 1332 1223 1162 1149 1114 1047 1072 1030 1025 1013 1022 1016 1015 949 981 1024 981 1015 921 912 938 944 959 938 978 910 982 963 924 963 975 941 983 967 950 970 919 963 951 991 1010 949 1009 1000 986 1004 935 1010 1028 967 1011 1082 1082 1077 1181 1108 1190 1156 1151 1249 1298 1199 1228 1174 1235 1190 1219 1191 1202 1198 1209 1167 1236 1148 1183 1109 1109 1082 1120 1111 1051 1018 993 1013 1040 986 1017 1045 1004 968 977 980 1022 1009 1006 1020 1045 978 907 979 863 925 962 950 900 899 890 860 946 905 833 827 936 854 871 879 889 881 928 837 865 894 828 825 871 895 842 880 783 896 819 802 823 871 815 765 819 854 857 834 873 863 864 838 844 853 824 823 842 845 841 824 847 873 818 829 820 842 813 821 820 863 890 852 839 839 887 792 791 868 840 884 843 917 929 904 978 909 1000 1016 1024 992 1034 1033 1021 1045 1068 1052 1015 1066 1085 1016 1095 1057 1049 1088 1109 1025 1025 1004 976 1052 1005 1015 1048 1049 949 943 993 958 969 920 918 858 910 901 891 895 876 906 928 876 876 932 939 841 912 858 836 837 912 859 864 802 875 879 869 841 904 843 859 863 852 874 877 845 868 933 876 858 859 860 794 853 852 850 860 867 876 874 842 867 837 874 869 842 840 843 806 869 858 819 852 862 840 822 894 827 815 866 872 901 891 901 855 920 913 924 867 845 896 885 875 836 881 882 899 878 890 826 850 909 875 874 874 861 873 855 848 861 878 873 871 860 875 892 899 901 821 822 820 885 833 786 870 777 866 861 808 800 802 824 835 796 793 828 811 796 828 839 760 797 826 772 882 757 804 769 796 786 827 789 797 770 781 768 748 850 813 844 781 778 828 767 806 788 773 751 759 704 822 736 775 820 815 776 765 767 832 789 824 843 804 762 753 798 796 854 810 810 763 777 790 837 782 818 818 798 783 747 775 777 814 782 710 829 723 803 822 814 735 740 780 727 843 806 787 801 804 768 831 781 872 826 800 813 858 819 813 845 780 832 857 841 811 818 834 792 772 818 808 867 805 827 811 827 769 825 842 847 816 814 808 800 741 788 780 807 738 829 840 889 769 804 777 800 788 779 761 833 761 793 814 807 735 797 794 855 785 811 840 719 831 802 741 786 814 756 795 769 778 810 785 791 838 799 813 861 856 782 791 760 813 825 831 772 831 797 783 773 766 775 858 837 830 804 796 832 828 785 836 846 859 813 865 854 822 834 800 895 817 791 865 847 776 877 795 855 814 797 794 786 811 844 831 850 799 832 814 848 759 761 760 805 807 769 767 808 799 765 765 741 779 760 791 772 817 772 790 775 778 833 753 776 798 780 763 768 750 743 753 761 744 776 753 793 730 742 704 742 777 768 757 758 766 754 787 784 740 746 726 763 784 756 778 735 747 737 805 766 722 790 784 755 750 792 754 725 767 755 780 771 753 729 787 790 797 794 754 797 761 763 785 765 728 722 780 722 752 763 763 727 781 721 754 759 770 782 750 771 767 796 714 788 770 690 799 744 790 744 782 766 812 755 815 751 778 763 767 766 758 712 771 768 751 753 749 776 766 745 727 760 817 756 814 735 763 758 773 769 722 811 767 745 777 746 765 765 729 785 684 768 816 799 762 772 747 730 807 728 776 733 775 747 747 767 727 782 745 775 743 718 760 761 746 780 761 795 781 787 699 830 814 770 788 791 784 761 790 798 788 784 796 781 804 788 861 789 822 782 846 837 818 826 797 809 807 818 814 772 762 826 845 777 794 795 841 809 771 785 800 761 821 770 786 792 801 746 792 722 823 821 841 811 784 761 768 764 814 766 792 760 824 813 817 832 844 833 807 835 909 939 929 945 930 980 1011 1079 1055 987 1038 1058 1081 1034 1053 1026 1075 1068 1102 1070 1070 1027 1070 1063 1001 1026 919 999 995 964 985 953 982 944 927 907 904 899 892 889 839 873 927 840 872 817 874 827 821 873 856 825 835 811 847 853 808 824 804 777 819 791 789 820 829 775 815 803 827 812 782 776 789 745 771 748 727 744 758 857 788 721 756 772 729 716 759 750 783 738 821 726 765 773 818 757 776 757 780 737 782 726 802 797 831 793 803 762 801 704 757 772 803 851 779 825 756 800 791 838 885 866 882 902 876 877 856 838 927 899 903 907 902 925 925 907 854 880 903 876 866 863 868 862 810 850 891 841 848 867 801 805 867 827 803 783 779 797 801 760 817 755 784 781 798 750 761 743 777 737 755 748 757 731 779 721 770 747 729 783 716 809 755 761 744 790 779 740 785 756 766 754 771 726 736 722 731 786 823 765 773 704 761 803 746 758 740 748 791 763 783 727 784 791 751 813 749 825 750 742 783 796 758 769 764 751 780 787 794 770 751 775 707 760 755 763 737 754 765 767 778 775 792 785 781 765 770 764 827 835 777 726 768 814 802 860 849 790 835 888 847 848 887 940 993 1053 1077 1166 1210 1245 1358 1339 1322 1321 1278 1231 1279 1221 1215 1263 1237 1255 1194 1268 1237 1289 1183 1196 1294 1165 1164 1150 1137 1183 1166 1133 1143 1029 997 987 981 904 899 875 890 898 852 925 892 883 876 869 833 871 837 827 837 799 811 759 844 802 752 718 786 766 724 717 777 794 780 757 763 742 779 771 771 699 699 744 707 760 727 791 728 728 764 795 765 715 789 716 765 690 748 738 797 756 691 776 815 732 731 723 700 729 717 737 694 711 752 713 734 707 708 732 741 723 752 724 757 738 704 777 726 722 745 744 784 773 781 809 822 790 829 818 781 812 856 800 833 849 806 811 809 813 768 821 844 781 841 848 800 797 797 817 805 739 806 773 750 798 732 790 772 787 785 775 761 731 745 724 743 755 711 768 737 744 769 702 742 793 715 740 765 788 723 740 746 703 749 719 716 780 733 774 791 799 797 832 908 829 832 868 866 793 841 866 840 812 851 847 817 806 758 865 816 831 825 838 774 798 852 836 821 790 794 858 831 759 738 798 770 803 761 779 719 753 723 738 728 767 718 808 749 762 726 728 725 720 738 730 702 708 670 714 697 721 729 697 706 710 690 707 735 693 705 713 729 704 685 726 680 724 726 728 728 718 754 703 699 730 712 704 701 709 695 732 666 697 686 701 758 727 761 695 728 710 741 721 739 704 703 698 715 679 712 683 704 686 749 771 667 701 638 671 715 690 716 750 722 689 724 748 685 693 717 770 670 755 737 663 657 722 816 726 692 730 722 720 722 753 798 742 732 750 673 688 667 739 695 767 709 716 744 701 711 723 704 758 635 678 639 696 691 725 725 664 686 724 664 665 669 715 722 735 701 663 677 718 696 665 706 670 697 741 705 697 685 676 658 677 732 686 708 738 660 679 702 678 674 700 706 705 694 725 691 746 761 722 711 685 673 709 710 718 704 721 699 686 683 677 727 688 684 676 705 696 682 698 718 688 724 681 709 706 704 685 696 719 672 712 702 750 712 702 708 729 710 668 712 726 739 699 747 731 713 768 704 650 683 683 697 667 716 683 686 676 655 695 687 667 662 675 719 645 660 661 681 699 685 642 698 702 701 688 700 675 733 653 688 688 710 714 662 635 699 666 689 677 675 654 697 676 706 728 683 689 687 683 645 716 680 624 723 729 650 667 685 711 681 659 728 645 712 692 644 683 737 635 721 673 700 703 687 699 682 671 707 629 677 665 679 733 713 703 694 675 675 726 660 660 619 666 673 681 693 652 693 706 712 717 731 636 737 688 722 687 691 682 673 677 669 690 671 667 625 681 700 700 691 661 690 693 693 688 708 687 694 668 733 684 676 688 648 683 682 673 698 718 678 664 632 666 703 692 653 711 688 684 634 662 638 702 711 716 680 689 620 729 638 682 657 681 648 670 657 648 680 706 684 730 675 654 684 703 687 715 738 651 704 692 691 668 667 671 706 732 687 677 693 707 735 696 702 695 698 732 703 647 666 723 692 716 720 689 663 750 703 721 673 660 665 678 672 701 726 678 743 677 721 719 718 744 679 707 675 733 727 647 698 764 654 710 724 717 715 715 751 828 774 742 750 762 726 757 797 726 751 713 744 778 761 720 762 797 798 743 758 743 727 721 761 774 725 754 760 745 744 724 723 733 683 725 709 647 636 670 707 682 687 688 680 728 662 630 689 692 692 749 703 642 722 692 665 658 670 646 688 663 652 708 641 717 664 687 658 669 656 711 647 675 662 703 728 692 668 660 746 662 646 705 681 717 665 725 667 691 683 662 650 697 687 657 636 726 685 656 684 674 665 641 695 730 708 643 667 641 670 652 643 667 618 671 691 715 679 719 647 670 707 652 653 683 630 620 685 674 687 666 673 671 662 630 607 640 683 685 676 657 660 697 660 680 643 671 696 682 677 679 692 644 654 645 655 639 676 693 677 677 684 627 705 623 642 699 646 617 671 697 727 664 696 659 670 653 658 682 667 670 698 646 700 696 708 661 713 682 679 706 675 663 661 717 679 656 684 664 684 642 750 694 699 656 751 650 648 643 681 649 640 635 707 642 656 656 651 671 712 678 670 681 689 617 643 651 688 651 677 667 625 686 686 670 617 658 677 718 661 660 651 652 686 666 643 661 652 632 667 655 691 690 690 645 697 696 690 683 642 717 672 660 652 594 700 640 698 670 633 688 674 633 663 641 680 688 652 648 639 687 652 673 682 631 689 726 710 707 707 695 662 700 742 690 757 753 766 777 794 838 790 872 843 849 840 892 826 847 845 890 798 833 802 831 830 854 848 799 816 833 783 850 826 844 796 799 764 791 762 821 809 750 750 745 694 728 700 706 710 706 709 707 739 712 709 681 669 656 739 714 668 735 696 676 673 665 623 715 651 673 704 631 649 695 623 689 668 686 690 683 621 680 654 634 664 686 662 686 750 673 661 686 673 628 666 666 679 685 678 720 636 669 704 694 652 690 670 667 669 645 665 704 751 684 685 702 657 673 640 720 694 686 662 700 663 685 670 701 705 704 707 720 680 703 704 690 687 690 650 675 701 693 633 697 661 672 733 698 669 657 642 704 651 622 649 705 691 639 671 670 691 667 701 662 719 668 722 661 676 636 749 666 721 758 661 691 707 684 739 726 658 684 677 663 693 657 734 647 716 682 658 684 653 720 698 711 607 670 694 651 666 642 641 687 664 675 661 673 664 694 653 651 641 691 679 681 657 636 678 710 673 696 645 694 627 704 721 648 651 714 705 695 672 659 655 644 613 678 619 664 676 627 612 662 701 636 664 636 647 689 630 662 647 670 662 615 650 663 641 662 632 641 630 700 661 694 655 644 637 687 648 651 700 705 697 712 682 688 670 642 649 649 627 657 676 649 615 673 623 705 670 638 618 684 668 684 636 685 634 675 668 637 685 676 663 675 677 621 696 653 695 662 703 637 670 689 616 720 697 670 734 724 672 666 666 633 631 677 651 667 644 648 641 669 643 640 644 634 622 708 673 642 674 659 629 663 637 667 629 649 655 672 615 644 614 644 634 680 633 670 668 661 655 696 640 708 653 714 666 641 601 624 633 662 621 673 668 678 628 641 691 659 715 661 715 687 677 621 664 642 655 689 664 683 662 681 637 606 604 672 677 674 674 643 649 684 647 671 637 677 655 684 663 656 652 614 648 632 674 631 660 612 654 672 613 712 678 610 631 630 646 654 643 622 641 649 657 640 645 626 616 646 587 657 673 648 672 653 659 657 641 667 685 694 685 642 694 667 680 691 673 651 674 618 618 647 675 634 635 613 654 667 670 676 656 653 652 658 642 686 663 678 683 722 648 626 616 671 680 634 691 694 655 659 708 652 703 690 686 640 648 700 676 647 662 658 733 686 663 668 674 677 588 647 663 653 635 672 641 669 706 626 714 678 688 648 641 620 678 731 684 701 628 698 635 641 667 645 693 647 648 691 665 682 667 623 688 737 660 655 647 652 636 692 691 652 646 661 654 652 681 657 683 641 643 672 652 653 682 704 657 683 657 626 680 689 695 649 669 689 690 662 700 636 656 686 660 662 644 619 647 709 708 680 685 705 630 625 634 673 684 637 676 630 678 671 659 699 657 607 697 669 618 666 666 651 664 664 685 678 667 656 723 648 652 646 606 695 684 672 671 667 661 644 660 677 661 673 621 650 676 673 655 663 678 620 691 646 685 700 693 712 715 670 756 688 759 724 767 739 720 756 708 728 701 695 701 686 740 734 716 678 693 755 683 699 756 690 696 734 703 739 673 776 709 741 628 680 684 710 698 710 723 691 702 643 710 672 682 718 684 695 702 670 708 722 657 689 718 746 697 770 769 716 776 732 758 779 738 767 767 737 738 731 709 739 760 767 718 707 698 652 705 676 727 713 757 733 771 750 747 747 785 720 770 730 677 732 694 675 684 655 672 687 701 665 695 678 703 673 622 668 669 630 715 673 629 640 671 666 681 666 689 667 672 655 702 677 658 692 688 660 683 656 657 646 676 687 645 714 659 723 634 602 682 732 659 672 663 668 677 697 672 703 683 693 668 643 666 650 638 706 667 691 660 634 657 691 694 675 695 663 689 719 702 630 705 652 679 682 659 667 633 662 630 722 658 658 606 649 654 629 645 666 648 645 626 612 644 655 662 614 715 650 652 663 634 662 685 703 643 634 647 583 675 697 667 647 670 678 710 700 655 650 643 660 729 678 614 708 660 700 694 688 669 693 710 717 709 693 723 725 685 725 768 753 667 718 701 680 723 677 727 718 739 721 772 738 733 730 758 773 732 658 750 736 719 752 729 708 713 736 777 726 726 740 738 740 723 744 809 787 705 796 807 815 774 789 817 860 905 912 994 959 1011 1043 1088 1060 1167 1178 1182 1170 1120 1148 1102 1034 1063 1107 1082 1048 965 986 1018 1017 984 943 997 1020 1070 1008 1049 1038 1032 928 1012 1011 911 940 864 888 862 866 920 834 804 823 743 814 794 805 731 790 754 746 766 710 718 721 757 764 732 747 727 677 709 659 710 684 682 721 710 664 743 654 721 682 667 681 623 714 654 693 672 744 655 632 686 709 677 707 674 695 680 651 694 682 708 694 697 634 669 702 673 680 694 654 656 708 669 722 638 645 679 689 644 677 649 693 689 677 656 711 679 672 669 668 676 665 678 654 659 659 698 662 671 666 685 660 670 725 643 628 686 680 695 672 694 657 679 691 663 708 673 666 689 689 656 716 635 657 672 676 658 662 745 723 621 680 657 697 689 727 736 706 697 668 708 696 727 687 721 720 708 753 749 724 733 738 777 732 738 782 783 807 770 783 769 814 773 791 826 755 776 768 685 747 799 736 740 744 771 764 714 697 796 782 720 722 768 702 766 696 709 687 721 720 721 685 689 644 722 694 718 678 686 663 695 695 658 679 686 666 729 695 696 662 668 652 700 686 623 670 619 641 685 666 683 692 685 667 666 604 665 619 672 639 643 680 671 690 629 675 631 638 626 641 611 611 628 638 728 622 644 684 620 658 649 616 654 598 663 637 646 633 629 654 615 645 704 618 616 652 614 632 642 664 639 675 634 671 669 665 633 656 668 674 640 691 664 645 655 650 683 642 645 664 619 661 656 628 642 642 613 608 679 657 668 650 699 660 619 644 595 648 640 642 634 650 670 650 634 638 687 675 607 679 590 656 643 635 641 630 646 646 656 612 698 578 667 613 678 649 648 633 665 660 670 628 646 635 640 673 616 683 627 667 657 642 639 638 640 650 681 650 640 670 660 639 660 653 629 679 611 651 595 665 691 704 689 675 643 601 637 646 665 623 616 692 647 705 607 680 620 632 619 666 617 646 625 626 670 612 630 646 640 704 660 676 678 622 617 709 671 644 648 692 667 649 645 659 617 629 668 618 683 645 639 648 658 675 605 647 633 644 659 649 678 638 689 625 636 622 667 688 681 655 632 629 682 657 634 606 647 672 633 652 684 667 661 675 641 705 652 610 657 620 598 612 691 641 660 681 707 645 652 651 631 627 676 667 620 611 669 617 638 687 653 641 628 658 678 613 606 651 642 596 600 678 662 625 644 670 617 669 679 642 619 656 669 670 608 675 669 653 640 657 665 670 669 686 656 682 609 681 643 674 673 630 698 609 664 624 702 712 659 650 692 599 665 661 617 710 637 650 656 660 672 684 631 645 623 702 640 704 647 697 619 713 700 726 675 628 673 641 624 602 648 685 656 666 633 660 672 650 669 657 635 621 613 619 608 612 684 661 613 643 671 605 708 651 702 675 683 689 701 716 676 666 663 700 761 702 669 678 699 698 716 752 721 693 713 746 679 703 687 670 691 669 682 698 665 678 696 672 734 706 668 710 722 714 697 652 689 672 707 676 697 641 656 697 657 702 699 658 669 631 661 698 685 638 682 695 665 676 629 688 634 671 679 645 614 634 692 638 600 646 659 650 665 627 654 659 643 650 615 642 665 622 603 616 652 583 703 676 662 626 624 603 612 645 664 676 606 696 644 632 697 670 617 655 636 665 632 646 676 658 695 639 668 662 659 664 626 634 609 650 638 627 585 613 596 625 647 674 631 643 660 652 591 655 627 667 714 636 617 645 653 659 626 642 607 651 643 639 682 620 628 598 634 666 599 607 619 669 615 641 642 650 648 615 660 678 671 651 685 640 651 631 635 679 647 637 639 653 597 614 670 610 685 656 633 630 656 691 643 671 656 634 682 598 671 659 670 644 650 655 657 652 678 644 635 658 641 668 667 649 658 707 689 642 632 622 668 634 636 621 641 651 635 616 646 621 613 688 598 671 642 617 630 684 646 673 591 648 654 617 658 619 631 662 662 671 620 669 637 710 655 709 680 614 648 642 670 645 659 598 641 672 661 660 693 678 676 631 669 636 699 679 656 675 686 765 645 667 730 691 710 717 790 784 730 792 799 866 804 862 889 947 995 922 965 971 986 948 957 946 952 931 929 875 878 829 831 825 904 812 864 774 847 784 804 891 847 824 874 853 848 837 831 866 833 813 846 806 814 743 755 775 719 744 715 751 715 717 739 719 731 697 682 712 729 715 698 719 669 710 693 698 667 636 687 647 689 645 688 694 664 624 691 689 656 653 644 653 617 664 628 637 638 666 628 673 654 665 653 686 679 624 633 678 608 680 606 628 636 594 675 673 650 631 609 626 656 657 621 659 626 642 658 646 642 648 707 657 597 613 622 631 627 629 614 636 689 649 660 631 656 681 684 692 631 671 664 630 657 652 649 646 609 672 628 680 660 707 639 620 610 626 624 627 629 631 611 641 655 624 643 668 663 648 613 667 619 669 625 635 666 607 641 647 633 705 644 635 669 675 620 627 613 645 632 663 650 687 625 663 624 655 600 678 640 650 661 676 672 656 664 682 660 640 639 666 675 670 653 650 627 633 722 699 666 685 684 671 639 610 697 644 658 635 654 692 691 659 713 700 625 680 619 689 669 686 667 646 610 661 729 621 639 643 665 655 673 686 655 669 573 668 685 650 664 629 647 672 673 649 652 636 638 625 635 608 638 602 671 636 664 653 652 655 661 665 634 612 630 676 574 675 631 632 610 619 627 626 623 663 653 614 611 602 592 599 666 656 624 584 622 648 619 638 668 597 600 647 673 614 629 565 610 619 615 636 696 663 625 621 631 647 663 635 660 646 589 637 635 656 687 617 589 614 638 657 619 645 652 622 643 654 651 680 645 656 629 644 681 627 629 637 673 673 620 625 631 650 596 626 669 613 633 681 644 609 665 629 628 677 659 624 627 662 602 622 646 640 626 643 589 622 657 690 603 588 661 659 583 658 642 662 733 658 678 636 648 674 603 615 608 615 585 635 681 650 613 613 652 618 636 577 642 628 610 613 609 622 634 617 657 646 626 639 639 593 657 673 611 644 609 604 625 603 610 652 582 664 630 624 623 638 603 647 600 614 610 616 586 621 651 666 658 623 621 588 637 613 583 598 645 667 660 642 591 625 625 612 632 607 622 623 626 615 601 662 637 631 647 598 623 646 592 619 604 675 590 633 659 660 654 635 600 613 643 638 605 609 602 622 640 607 666 632 609 635 613 645 649 645 619 597 701 663 594 631 643 617 632 690 627 594 608 622 631 651 662 635 635 624 617 607 630 644 634 651 600 632 645 639 628 614 616 647 600 612 616 638 615 638 615 606 597 630 627 662 609 618 650 637 602 590 658 615 628 611 659 630 599 673 693 603 594 629 653 608 672 637 598 623 619 625 608 649 606 661 603 638 635 629 624 665 652 662 669 616 580 603 650 652 592 670 623 626 609 636 663 649 616 602 629 593 657 646 660 599 658 632 648 653 606 658 637 653 659 687 652 691 688 698 686 708 661 707 694 664 707 695 667 702 712 625 684 740 638 658 723 626 660 646 665 664 657 680 676 656 680 661 615 692 676 653 642 682 667 652 671 707 649 663 664 713 688 670 672 661 647 647 647 638 676 678 634 683 713 673 738 681 669 701 692 691 678 640 623 710 668 653 678 616 656 602 678 687 640 670 646 673 654 667 639 697 652 668 670 651 679 605 714 639 693 708 689 629 688 633 624 681 654 616 638 628 614 619 630 655 616 643 609 631 647 661 623 623 664 640 667 624 637 629 608</counts>
			</dataPoints>
		</scan>
	</xrdMeasurement>
</xrdMeasurements>
