<?xml version="1.0"?>
<xrdMeasurements xmlns="http://www.xrdml.com/XRDMeasurement/2.3" xmlns:xsi="http://www.w3.org/2001/XMLSchema-instance" xsi:schemaLocation="http://www.xrdml.com/XRDMeasurement/2.3 http://www.xrdml.com/XRDMeasurement/2.3/XRDMeasurement.xsd" status="Completed" recordIdentifier="{82D25DD1-AD53-4051-B2EB-5981EED3E9BE}">
	<comment>
		<entry/>
	</comment>
	<sample type="To be analyzed">
		<id>GPSS_Li1p5Mn0p5Cr0p5Cl4_101825_68f3c986028f64128e25b359</id>
		<name></name>
		<preparedBy></preparedBy>
	</sample>
	<xrdMeasurement measurementType="Scan" status="Completed" sampleMode="Reflection">
		<usedWavelength intended="K-Alpha 1">
			<kAlpha1 unit="Angstrom">1.5405980</kAlpha1>
			<kAlpha2 unit="Angstrom">1.5444260</kAlpha2>
			<kBeta unit="Angstrom">1.3922500</kBeta>
			<ratioKAlpha2KAlpha1>0.5000</ratioKAlpha2KAlpha1>
		</usedWavelength>
		<incidentBeamPath>
			<radius unit="mm">145.00</radius>
			<xRayTube id="1010048" name="Empyrean Cu LFF HR (9430 033 7310x)">
				<tension unit="kV">40.0</tension>
				<current unit="mA">15.0</current>
				<anodeMaterial>Cu</anodeMaterial>
				<focus type="Line">
					<length unit="mm">12.0</length>
					<width unit="mm">0.4</width>
					<takeOffAngle unit="deg">6.0</takeOffAngle>
				</focus>
			</xRayTube>
			<sollerSlit id="21010002" name="Soller slits 0.04 rad.">
				<opening unit="rad">0.0400</opening>
			</sollerSlit>
			<mask id="22031000" name="Fixed mask 13 mm">
				<width unit="mm">9.00</width>
			</mask>
			<divergenceSlit id="22120001" name="Divergence slit 1°" xsi:type="fixedDivergenceSlitType">
				<distanceToSample unit="mm">50.00</distanceToSample>
				<height unit="mm">1.52</height>
			</divergenceSlit>
		</incidentBeamPath>
		<sampleMovement xsi:type="spinningSampleMovementType">
			<spinnerRevolutionTime unit="seconds">1.0</spinnerRevolutionTime>
		</sampleMovement>
		<diffractedBeamPath>
			<radius unit="mm">145.00</radius>
			<antiScatterSlit id="22090040" name="AS slit 9 mm (PIXcel)" xsi:type="fixedAntiScatterSlitType">
				<height unit="mm">9.00</height>
			</antiScatterSlit>
			<sollerSlit id="21020003" name="Large Soller slits 0.04 rad.">
				<opening unit="rad">0.0400</opening>
			</sollerSlit>
			<filter id="20030001" name="Large beta-filter Nickel">
				<material>Ni</material>
				<thickness unit="mm">0.020</thickness>
			</filter>
			<detector id="7010019" name="PIXcel1D-Medipix3 detector" xsi:type="rtmsDetectorType">
				<phd unit="keV">
					<lowerLevel>4.02</lowerLevel>
					<upperLevel>11.27</upperLevel>
				</phd>
				<mode>Scanning</mode>
				<activeLength unit="deg">5.542</activeLength>
			</detector>
		</diffractedBeamPath>
		<scan appendNumber="0" mode="Continuous" scanAxis="Gonio" status="Completed">
			<header>
				<startTimeStamp>2025-10-21T11:38:55-07:00</startTimeStamp>
				<endTimeStamp>2025-10-21T11:47:02-07:00</endTimeStamp>
				<author>
					<name>AutomatedUser</name>
				</author>
				<source>
					<applicationSoftware version="1.7b (136)">PANalytical Aeris Instrument Suite</applicationSoftware>
					<instrumentControlSoftware version="3.2.00000000 20240306">AERIS</instrumentControlSoftware>
					<instrumentID>950485</instrumentID>
				</source>
			</header>
			<dataPoints>
				<positions axis="2Theta" unit="deg">
					<startPosition>10.00943322</startPosition>
					<endPosition>99.99442286</endPosition>
				</positions>
				<positions axis="Omega" unit="deg">
					<startPosition>5.00471661</startPosition>
					<endPosition>49.99721143</endPosition>
				</positions>
				<commonCountingTime unit="seconds">12.495</commonCountingTime>
				<counts unit="counts">2748 2770 2749 2717 2742 2848 2855 2785 2791 2731 2869 2799 2818 2833 2832 2882 2805 2859 2744 2791 2787 2794 2801 2815 2903 2766 2791 2817 2727 2876 2849 2800 2779 2836 2794 2891 2836 2736 2932 2816 2826 2893 2827 2748 2819 2749 2823 2820 2821 2771 2819 2842 2757 2754 2716 2753 2775 2717 2768 2860 2849 2862 2780 2755 2778 2759 2816 2811 2815 2682 2782 2842 2840 2827 2850 2771 2845 2837 2732 2839 2798 2800 2863 2764 2897 2857 2827 2756 2859 2803 2786 2798 2876 2815 2838 2751 2827 2980 2818 2803 2784 2733 2862 2698 2740 2779 2867 2670 2847 2760 2833 2723 2882 2887 2834 2861 2821 2858 2797 2776 2803 2743 2706 2781 2765 2778 2880 2788 2738 2783 2778 2912 2832 2850 2798 2789 2890 2829 2740 2850 2903 2860 2803 2675 2801 2806 2768 2794 2876 2714 2789 2784 2827 2905 2805 2827 2893 2781 2898 2782 2788 2779 2829 2673 2761 2925 2788 2797 2821 2825 2716 2781 2791 2871 2787 2800 2800 2889 2811 2714 2758 2832 2745 2839 2772 2830 2723 2814 2864 2808 2843 2908 2809 2899 2870 2797 2762 2776 2763 2801 2740 2850 2836 2805 2838 2739 2867 2775 2848 2780 2859 2819 2799 2798 2863 2796 2708 2800 2781 2877 2728 2778 2845 2808 2835 2741 2762 2780 2747 2736 2788 2728 2798 2694 2856 2804 2726 2683 2709 2767 2789 2807 2819 2735 2770 2873 2772 2834 2788 2827 2816 2894 2776 2755 2753 2766 2863 2773 2802 2716 2846 2739 2782 2778 2884 2890 2695 2735 2818 2885 2823 2692 2786 2862 2785 2769 2755 2940 2787 2788 2790 2768 2847 2770 2723 2903 2913 2869 2752 2858 2943 2827 2874 2820 2895 2700 2821 2861 2937 2911 2868 2937 2880 2948 2899 2976 2929 2923 2851 2968 2945 2857 2968 2942 3001 2997 2916 2988 2955 2983 2884 2930 2967 2918 2997 2906 2967 3029 3008 2995 3004 2983 3039 2955 3012 3063 3025 3112 3112 2954 3038 3062 3107 3099 3146 3096 3108 2994 3045 3170 3173 3177 3168 3120 3133 3129 3264 3077 3244 3122 3110 3161 3274 3193 3252 3330 3315 3274 3248 3271 3048 3262 3244 3233 3256 3208 3223 3369 3224 3329 3284 3302 3277 3309 3313 3386 3305 3417 3499 3502 3355 3354 3320 3305 3475 3400 3343 3357 3387 3385 3431 3498 3616 3465 3517 3614 3601 3557 3650 3700 3547 3659 3715 3767 3775 3708 3789 3934 3887 3777 3818 4008 4101 4012 4122 4146 4150 4371 4290 4398 4471 4409 4461 4483 4505 4501 4496 4450 4395 4550 4529 4468 4557 4413 4593 4410 4505 4501 4471 4548 4335 4548 4499 4531 4494 4571 4557 4595 4578 4597 4639 4670 4661 4762 4954 4795 4935 4865 4905 4951 5166 5082 5077 5244 5459 5505 5745 5868 5932 6021 6149 6352 6455 6540 6732 7027 7034 7307 7389 7505 7688 7940 7922 7602 7911 7623 7648 7308 7332 7282 7102 6837 6818 6686 6654 6315 6403 6210 5844 5725 5548 5573 5298 5266 5045 5096 4901 4742 4728 4687 4704 4586 4501 4511 4311 4224 4162 4020 4012 3949 3749 3780 3590 3604 3537 3453 3516 3431 3440 3446 3357 3245 3412 3353 3407 3351 3274 3403 3284 3387 3281 3300 3260 3313 3369 3242 3206 3308 3232 3234 3255 3214 3218 3202 3157 3229 3154 3164 3294 3125 3241 3081 3178 3223 3109 3176 3148 3164 3207 3203 3110 3107 3090 3126 3159 3174 3092 3128 3043 3018 2958 3143 3039 3164 3101 3217 3016 3039 3120 3157 3126 3001 3151 3113 3035 3139 3042 3110 2989 3093 3015 3065 2992 3009 3113 3144 3111 3037 3094 3069 3024 3138 3084 2995 2986 3042 3055 3075 3048 3129 3044 3017 3108 3006 2990 2983 3027 3102 3032 2913 2925 2979 3044 2936 3075 2995 3054 2998 2995 3007 3024 3020 3092 3022 2964 3027 3079 3148 3020 3076 3045 3077 3146 2980 3036 3090 3190 3196 3000 3109 2913 3065 3052 3146 3139 3074 3144 3122 3139 3043 3047 3053 2977 3023 3096 2998 3037 3045 3069 3046 3007 2971 3018 3090 3049 3145 3045 3027 2985 3096 2956 2958 3052 3079 3013 3065 3049 2992 3024 2992 3068 3054 2957 3020 2992 2978 2997 2956 2940 3000 2988 2985 2939 3063 2955 2917 2930 2953 3039 2941 3015 2968 3057 2927 2960 2990 2951 2884 2944 2921 2929 2905 3013 2951 2919 2944 2888 2968 3011 2970 2939 2930 2940 2917 3036 2904 2962 3043 3024 2934 2976 3045 2882 2860 2844 2961 3001 3029 2836 2973 2977 2927 2868 2895 2861 2977 2853 2944 2913 3032 3031 2972 2898 2870 3037 2850 2828 2913 2845 2856 2939 2847 2858 2966 3018 2915 2897 2870 2790 2942 2993 2912 2868 2866 2844 2787 3007 2792 2861 2804 2930 2829 2879 2908 2740 2824 2929 2801 2800 2810 2863 2928 2880 2915 2759 2842 2945 2814 2870 2934 2765 2809 2818 2838 2823 2880 2812 2765 2829 2738 2895 2846 2846 2897 2895 2887 2797 2800 2803 2873 2772 2754 2804 2776 2840 2755 2701 2822 2747 2740 2823 2855 2819 2867 2836 2773 2799 2771 2774 2825 2759 2857 2841 2790 2792 2779 2746 2751 2850 2852 2681 2747 2750 2784 2831 2769 2723 2747 2780 2740 2758 2687 2730 2784 2661 2746 2835 2653 2771 2688 2612 2775 2740 2673 2869 2746 2739 2797 2734 2813 2791 2718 2744 2851 2804 2740 2658 2710 2731 2667 2772 2756 2822 2686 2687 2749 2762 2752 2760 2791 2699 2773 2763 2655 2687 2752 2620 2830 2698 2801 2720 2652 2634 2633 2649 2705 2688 2649 2695 2696 2725 2624 2667 2658 2679 2723 2624 2698 2654 2682 2657 2555 2745 2684 2697 2675 2671 2583 2670 2697 2598 2605 2577 2619 2639 2686 2729 2600 2565 2650 2683 2716 2605 2716 2653 2530 2670 2612 2739 2658 2630 2586 2598 2596 2720 2642 2697 2676 2612 2543 2646 2625 2629 2647 2695 2581 2608 2699 2628 2740 2843 2741 2699 2641 2669 2710 2624 2591 2658 2677 2636 2613 2555 2619 2677 2717 2621 2667 2633 2742 2723 2632 2715 2688 2627 2602 2604 2656 2614 2610 2647 2666 2639 2535 2701 2729 2643 2771 2731 2737 2644 2638 2614 2683 2632 2729 2611 2710 2528 2635 2649 2629 2679 2664 2697 2581 2598 2605 2726 2710 2697 2676 2636 2551 2669 2636 2656 2689 2726 2666 2615 2725 2597 2686 2725 2552 2626 2654 2668 2598 2632 2628 2629 2631 2700 2645 2713 2685 2671 2666 2678 2693 2598 2589 2587 2624 2580 2602 2593 2567 2654 2524 2721 2625 2580 2670 2635 2640 2592 2711 2557 2542 2639 2577 2628 2668 2635 2534 2598 2606 2674 2536 2586 2596 2502 2663 2554 2593 2554 2588 2604 2579 2601 2576 2617 2530 2577 2494 2518 2481 2467 2489 2519 2417 2548 2459 2566 2462 2465 2497 2551 2529 2448 2516 2498 2485 2450 2523 2507 2416 2405 2356 2372 2407 2353 2417 2485 2415 2428 2377 2495 2469 2444 2443 2498 2563 2418 2350 2329 2324 2330 2416 2426 2475 2348 2378 2395 2390 2423 2390 2438 2336 2368 2435 2308 2331 2428 2334 2302 2337 2209 2244 2291 2316 2297 2308 2275 2340 2268 2204 2215 2306 2274 2267 2358 2358 2274 2297 2272 2248 2255 2220 2258 2204 2158 2164 2263 2146 2229 2306 2181 2252 2170 2163 2217 2125 2096 2187 2240 2138 2070 2212 2207 2134 2182 2118 2135 2181 2037 2178 2210 2163 2126 2158 2094 2095 2161 2280 2117 2193 2078 2155 2095 2060 2162 2097 2055 2071 2135 2064 2233 2049 2008 2069 2025 2077 2023 2032 2180 2076 1996 1997 2090 2025 2122 2019 1966 2064 2057 2044 2024 1967 2019 2038 2049 2003 2087 2035 2109 2004 2021 1994 2075 1924 2043 2020 1911 2003 1979 2044 2061 1924 2055 1875 1983 1991 1922 1984 2048 2135 1972 2016 2002 1988 2050 1977 2080 2011 2083 2087 2025 1999 2024 1974 2026 2032 2009 1978 1979 1944 1964 2043 1940 1932 2006 1936 2000 1986 1929 1916 1999 1986 2090 1923 2031 1984 1952 1930 1996 1994 1961 1953 2004 1975 1881 1850 1939 1857 1865 1968 1958 1954 1967 1975 1863 1989 1896 1915 1949 1950 1995 1930 1992 1962 1936 1908 1967 1945 1971 1957 1911 1917 1931 1969 1938 1981 1931 1966 1960 1963 1987 1960 1868 2004 1962 1969 1947 1957 1915 1929 1875 2065 2017 1955 1993 1937 1967 1908 1898 1963 1954 1982 1880 1936 1976 1948 1860 1969 1960 1878 2000 1989 1994 1928 2064 1879 1972 1960 1917 1916 1940 1902 1970 1972 1952 1998 1919 2010 2005 1973 1894 2001 2003 1993 2012 1956 2001 1971 1941 2079 2002 1959 2010 1941 1947 2014 1918 1908 1936 1919 1924 1948 2064 1955 1911 1947 1946 1959 2021 1895 1892 2001 1975 1968 1922 1929 1960 1896 1975 1959 2002 1884 1993 1931 1970 1932 1981 2003 1912 1952 1950 1870 1966 1941 1885 1891 2024 1883 1981 1968 1926 2023 1952 1895 1785 1880 1969 1919 1961 1930 1908 1885 1928 1957 1940 1967 1899 1879 1886 1939 1982 1941 1903 1964 1896 1853 1921 1900 1848 1850 1870 1921 1894 1936 1874 1928 1866 1908 1915 1853 1855 1941 1862 1830 1913 1781 1851 1823 1799 1841 1798 1851 1823 1815 1788 1887 1897 1773 1789 1882 1791 1867 1785 1808 1878 1841 1852 1753 1794 1726 1747 1846 1738 1780 1817 1787 1776 1693 1742 1791 1708 1695 1700 1740 1719 1744 1760 1767 1715 1772 1826 1652 1803 1769 1719 1734 1746 1765 1745 1736 1707 1741 1740 1771 1717 1766 1743 1694 1729 1685 1718 1799 1686 1672 1645 1725 1701 1784 1687 1721 1756 1674 1757 1682 1707 1654 1688 1717 1644 1709 1763 1694 1745 1719 1726 1700 1744 1723 1708 1715 1782 1809 1785 1808 1864 1801 1790 1907 1856 1916 1940 1961 2079 2069 2161 2116 2185 2179 2210 2359 2421 2395 2446 2378 2427 2427 2409 2455 2353 2268 2447 2318 2225 2331 2315 2250 2210 2170 2182 2102 2086 2096 2091 2091 2032 2049 1978 1966 1982 1947 1997 1975 1929 1921 1849 1808 1809 1895 1838 1816 1790 1770 1710 1747 1675 1667 1682 1701 1648 1642 1672 1612 1611 1579 1597 1603 1646 1538 1615 1615 1547 1602 1550 1633 1493 1595 1547 1573 1545 1512 1563 1552 1552 1487 1542 1554 1548 1522 1501 1484 1563 1498 1598 1486 1521 1546 1507 1548 1539 1616 1516 1541 1508 1550 1622 1576 1698 1622 1675 1562 1624 1634 1584 1742 1744 1795 1808 1917 1938 1990 2037 2206 2160 2306 2280 2390 2398 2419 2638 2634 2680 2734 2764 2705 2638 2579 2620 2546 2591 2644 2530 2473 2439 2339 2346 2444 2356 2280 2309 2212 2206 2177 2270 2193 2148 2145 2118 2082 2205 2048 2114 2105 2116 2110 2110 2084 2175 2231 2122 2200 2170 2375 2422 2323 2572 2575 2616 2674 2709 2672 2835 2818 2745 2801 2818 2849 2746 2739 2695 2564 2585 2468 2483 2388 2346 2328 2212 2192 2188 2071 2087 2140 2044 2093 2020 1992 2025 1967 1909 1973 1810 1766 1752 1751 1743 1707 1742 1690 1655 1642 1699 1586 1642 1623 1708 1516 1582 1568 1581 1506 1564 1549 1475 1644 1587 1592 1590 1641 1661 1742 1746 1775 1825 1860 1986 1991 2030 2033 2123 2255 2324 2304 2350 2377 2379 2267 2273 2268 2116 2089 2026 1992 1993 1846 1929 1817 1699 1747 1761 1767 1728 1605 1611 1585 1644 1658 1564 1686 1507 1513 1599 1531 1472 1540 1518 1442 1459 1430 1414 1384 1446 1390 1433 1395 1384 1355 1325 1442 1322 1381 1325 1306 1384 1283 1316 1331 1255 1372 1263 1304 1300 1296 1302 1306 1329 1316 1233 1286 1314 1322 1341 1265 1340 1281 1317 1383 1288 1351 1315 1237 1395 1367 1385 1385 1358 1379 1320 1313 1321 1345 1347 1319 1298 1332 1416 1324 1339 1355 1310 1364 1334 1339 1313 1297 1277 1323 1397 1295 1365 1329 1313 1249 1253 1336 1257 1288 1331 1224 1281 1329 1345 1275 1251 1302 1236 1295 1276 1296 1323 1352 1263 1350 1237 1285 1238 1301 1316 1242 1237 1268 1323 1282 1359 1275 1309 1322 1243 1270 1249 1220 1269 1204 1316 1258 1170 1289 1253 1294 1249 1217 1228 1268 1228 1300 1264 1261 1252 1272 1179 1187 1196 1286 1222 1330 1265 1269 1278 1224 1225 1251 1268 1223 1282 1295 1274 1246 1267 1247 1238 1262 1336 1308 1293 1265 1320 1248 1220 1196 1259 1269 1185 1281 1222 1179 1228 1253 1218 1193 1267 1243 1294 1192 1235 1215 1268 1240 1231 1314 1250 1302 1277 1276 1183 1302 1226 1337 1296 1239 1250 1218 1267 1195 1235 1278 1221 1290 1214 1313 1317 1311 1298 1242 1353 1269 1242 1282 1329 1327 1253 1281 1346 1270 1337 1360 1289 1355 1311 1322 1377 1268 1384 1381 1425 1375 1382 1435 1394 1418 1424 1447 1395 1422 1425 1479 1455 1444 1576 1552 1580 1517 1500 1558 1637 1635 1668 1721 1791 1764 1880 1903 1999 2034 2147 2156 2247 2277 2443 2386 2637 2668 2921 3006 3228 3505 3652 3779 3962 4182 4416 4583 4760 4943 5107 5245 5217 5305 5199 5314 5350 5191 5191 5134 5100 4997 4804 4753 4836 4675 4510 4550 4498 4325 4338 4241 4217 4218 4060 4203 4059 4034 4019 3938 3900 3904 3830 3857 3766 3625 3704 3578 3482 3489 3416 3330 3301 3248 3323 3291 3293 3350 3336 3448 3444 3552 3733 3768 3861 3773 4130 4298 4287 4492 4441 4427 4439 4591 4541 4596 4492 4501 4217 4227 4164 4053 3899 3718 3477 3409 3191 3127 2954 2828 2714 2704 2474 2483 2408 2265 2064 2116 2051 2062 1950 1958 1940 1848 1746 1742 1744 1738 1633 1621 1606 1600 1504 1523 1518 1540 1447 1515 1455 1440 1474 1440 1437 1387 1382 1374 1380 1405 1344 1365 1403 1338 1382 1401 1397 1334 1374 1353 1388 1376 1375 1352 1351 1328 1355 1407 1303 1373 1273 1372 1318 1307 1311 1336 1330 1280 1301 1257 1390 1268 1333 1312 1339 1365 1335 1324 1309 1412 1272 1339 1269 1381 1397 1300 1360 1335 1364 1349 1366 1367 1334 1331 1325 1394 1274 1376 1355 1433 1382 1390 1358 1349 1437 1333 1389 1406 1386 1368 1331 1402 1484 1415 1470 1421 1414 1475 1438 1471 1396 1445 1522 1491 1550 1560 1492 1473 1565 1563 1452 1581 1500 1529 1499 1495 1521 1480 1505 1523 1534 1424 1448 1489 1446 1473 1497 1370 1402 1380 1380 1362 1368 1400 1367 1326 1314 1411 1286 1352 1284 1303 1231 1306 1286 1308 1186 1248 1243 1289 1230 1182 1189 1217 1213 1226 1216 1256 1233 1190 1139 1162 1237 1203 1239 1151 1225 1184 1243 1110 1161 1163 1138 1163 1205 1193 1168 1191 1137 1147 1159 1200 1137 1169 1107 1134 1159 1152 1230 1146 1225 1200 1145 1186 1183 1208 1137 1174 1206 1158 1207 1219 1233 1191 1201 1159 1176 1139 1205 1135 1145 1187 1142 1154 1150 1119 1154 1104 1180 1125 1164 1152 1121 1139 1125 1156 1129 1124 1100 1211 1128 1140 1192 1109 1204 1133 1122 1170 1177 1132 1144 1159 1189 1145 1191 1151 1183 1141 1179 1133 1172 1163 1160 1135 1150 1148 1095 1136 1137 1182 1139 1070 1118 1130 1170 1093 1068 1111 1076 1116 1065 1045 1072 1111 1103 1083 1135 1057 1056 1080 1137 1137 1064 1088 1095 1109 1037 1084 1078 999 1035 1050 1106 1026 1052 1094 1087 1077 1078 1046 1143 1150 1024 1057 1094 1058 1039 1062 1054 1138 1017 1084 1065 1091 1036 1040 1042 1034 1035 1073 1047 1081 1026 1058 971 1063 1069 1024 1029 1041 1013 1030 1016 1054 1040 1049 1016 1013 1024 1058 1037 1081 1101 1061 1077 1080 1098 1076 1017 1008 1036 1020 1041 1070 1095 1061 1098 1055 1050 1005 1091 1030 1044 1034 1036 1026 1077 1032 1086 1084 1037 1035 1008 1062 1058 1024 1068 1011 1039 1040 1087 999 1016 1016 1045 1069 1060 1051 989 1008 1033 1048 1035 1036 1049 1015 979 933 945 1036 1122 1002 1065 1032 1038 1013 1075 1032 1011 1018 1052 1044 1030 1094 987 1033 968 1061 996 946 1023 974 1025 980 1044 1017 999 1012 1016 976 985 1036 981 980 990 1030 1023 1058 1005 1015 1065 1017 1042 1022 999 971 1003 1048 978 1015 1002 1033 1010 1049 990 1057 976 992 1003 934 1003 1000 1015 1017 1056 1013 1012 1019 1028 1034 993 1029 1013 1083 993 1016 1093 1000 1066 1027 1010 1056 1026 1059 979 1016 991 1016 1032 980 1001 1064 948 1027 1004 1032 1017 976 977 999 989 1073 965 969 992 1046 1001 1036 1034 1025 998 1020 1002 1005 971 964 995 964 967 1030 937 991 985 941 1046 985 1010 920 1077 971 1056 1012 992 974 1021 1014 986 1013 953 937 1047 987 1012 1006 995 1031 1066 982 1023 1023 1016 1006 912 1004 982 979 991 983 1012 993 929 951 967 948 1028 1032 1015 947 1017 951 1013 977 1000 946 1004 975 972 948 1037 973 957 950 964 916 991 972 1034 968 1001 916 1013 957 1000 963 1025 962 1015 986 938 1003 953 945 986 1036 991 1023 949 975 1010 1023 983 960 1007 971 945 1015 1026 986 959 1004 987 1014 944 979 1019 956 935 966 971 964 955 1015 954 947 954 970 974 1015 962 990 1005 990 966 997 993 1028 982 1012 966 964 1016 956 988 1003 986 985 1020 999 972 915 969 965 971 959 982 973 934 915 982 1013 1015 1026 975 983 942 939 1003 1005 1013 1013 956 995 975 976 945 997 983 954 998 962 964 1016 974 1037 1030 940 1012 952 1066 969 1004 992 1004 1000 1034 995 1023 956 1006 1014 981 989 942 1016 1006 939 954 944 964 976 944 930 947 976 992 1017 983 976 1027 943 988 988 1030 952 984 996 964 1027 987 1002 980 958 948 932 960 936 932 978 939 925 952 963 999 1011 958 936 954 932 934 1001 972 945 987 953 948 982 1017 982 957 928 920 979 989 964 958 999 967 925 934 985 923 951 984 990 953 1024 1038 915 973 969 933 979 985 941 997 947 956 947 933 930 959 959 991 886 962 966 906 973 970 961 980 994 975 993 945 962 957 957 980 954 983 956 1009 953 965 957 939 986 980 969 986 948 974 986 1029 978 965 958 950 988 973 961 1027 1029 936 984 1015 1036 963 1005 993 1005 996 974 1035 1076 1015 1003 986 1032 1060 1000 1021 1066 1014 1009 1017 985 992 997 1021 1056 1046 1067 1094 1122 1170 1183 1174 1212 1214 1226 1239 1297 1298 1286 1258 1332 1288 1340 1334 1306 1289 1317 1336 1352 1338 1282 1243 1255 1309 1255 1252 1283 1214 1167 1169 1217 1193 1221 1251 1164 1159 1190 1134 1147 1172 1107 1173 1056 1115 1123 1116 1050 1128 1030 1058 1018 1075 1057 1001 1065 1047 968 992 1040 974 1039 997 987 989 986 1027 978 964 1020 993 1028 1018 980 989 986 1022 1033 995 1052 1005 1059 1016 1112 1066 1023 1015 1067 1015 1043 1115 1077 1067 1082 1004 1094 1090 1073 1137 1135 1100 1077 1118 1074 1068 1023 1067 999 1045 1123 1062 1092 1028 983 1072 1041 1010 1015 982 1030 1056 1026 1051 1038 1052 1057 1002 1064 961 982 1016 1071 1029 985 1078 1018 977 1010 1007 1002 982 1018 1002 955 1048 973 950 949 998 1018 914 952 944 996 925 991 939 1021 990 970 1034 998 1002 960 1002 1008 967 951 971 1020 980 977 966 977 947 1015 984 952 954 962 1052 1037 977 1013 935 993 1007 982 950 956 1005 1051 969 959 1077 995 976 992 976 958 988 1009 1058 979 1036 982 1082 1038 1003 1012 914 1042 986 1018 1012 1011 957 1020 929 971 986 975 960 983 976 997 1017 964 1015 991 991 1024 962 1002 1004 958 1000 1011 980 1045 1011 1030 1037 977 976 948 1047 984 1030 1071 1030 1000 1029 1057 1042 1068 995 1056 1033 1076 1050 1020 1015 960 1053 1028 1003 998 989 1007 983 1025 1009 937 1000 965 963 1012 968 1026 898 969 979 1008 1026 1032 965 1003 1000 932 1035 913 977 920 1004 946 970 976 952 993 1018 1035 1012 950 944 964 910 926 907 909 941 935 969 950 918 992 980 971 967 953 987 1015 966 968 960 974 979 940 961 951 975 966 1008 922 902 955 963 1066 1011 966 942 982 1023 890 986 937 977 1033 983 1010 1073 988 1043 1000 1067 997 1030 1028 1067 1056 1058 1086 1090 1169 1088 1057 1124 1125 1090 1097 1178 1216 1166 1224 1145 1202 1262 1299 1298 1233 1345 1434 1383 1592 1586 1620 1792 1910 2007 2031 2180 2223 2449 2454 2647 2697 2758 2897 2914 2985 2976 3067 3165 3195 3219 3072 3093 3092 2916 3062 2967 2913 2817 2822 2701 2807 2628 2516 2548 2464 2390 2389 2283 2207 2220 2121 2094 1976 1938 1904 1875 1855 1792 1709 1676 1652 1637 1574 1508 1488 1373 1379 1419 1285 1307 1175 1225 1308 1240 1228 1126 1199 1179 1216 1194 1210 1150 1126 1185 1179 1097 1128 1153 1157 1105 1176 1125 1179 1182 1205 1295 1202 1252 1234 1224 1300 1293 1360 1383 1496 1554 1488 1488 1483 1575 1664 1729 1793 1818 1888 1876 1825 1872 1866 1828 1914 1955 1923 1937 1822 1881 1869 1809 1766 1807 1707 1754 1663 1655 1586 1518 1611 1521 1438 1474 1485 1406 1386 1413 1336 1359 1364 1260 1300 1232 1241 1167 1125 1208 1236 1145 1157 1115 1139 1118 1104 1098 1049 1088 1124 1087 1093 1103 1020 1012 988 1031 1024 1033 1043 1005 983 935 995 989 954 995 1026 992 1049 984 985 985 948 952 997 957 913 986 948 940 1011 944 948 970 969 960 925 934 900 910 986 993 929 933 990 954 1019 976 969 930 976 993 1017 1039 932 978 945 1007 960 963 1033 1009 990 1039 1044 999 1016 1003 996 1038 1041 1100 1039 979 1117 1120 1170 1145 1147 1187 1158 1235 1198 1144 1224 1221 1237 1223 1281 1247 1257 1189 1243 1211 1269 1272 1230 1240 1255 1295 1155 1268 1246 1178 1272 1202 1219 1186 1181 1184 1123 1218 1140 1107 1176 1088 1185 1140 1126 1160 1216 1126 1153 1147 1105 1161 1085 1189 1175 1119 1140 1158 1127 1163 1146 1097 1095 1106 1090 1110 1135 1077 1058 1138 1020 1117 1101 1077 1067 1004 1042 1065 1044 1081 1087 1100 1080 981 1063 962 1048 1012 1011 1064 988 1019 997 1026 1057 1017 981 1004 1043 961 941 1040 1007 976 1005 934 977 1005 1015 1022 1029 964 971 935 941 961 980 1001 1002 1014 903 945 1005 956 952 969 964 950 985 965 925 953 987 935 949 967 935 964 951 923 944 1033 1034 1013 964 961 997 1000 1015 1048 1064 1031 1080 1088 1094 1116 1113 1098 1143 1172 1115 1108 1195 1132 1136 1125 1106 1046 1151 1089 1098 1097 1121 1081 1082 1087 1083 1097 1042 1032 1045 1074 960 1055 986 1018 939 983 962 984 998 961 1027 955 981 962 925 983 929 979 944 939 919 899 935 919 870 924 960 909 931 925 900 911 855 907 866 913 894 878 886 901 861 906 888 841 924 892 893 921 874 913 863 919 876 971 865 854 877 899 912 890 874 891 903 909 866 833 923 889 890 858 966 881 847 903 852 863 851 821 878 901 872 890 853 892 855 826 902 873 874 885 875 882 833 857 904 864 892 892 886 870 916 857 857 861 895 870 906 816 842 828 886 884 887 815 892 898 921 879 901 871 894 841 862 853 913 817 904 891 874 820 841 834 863 871 834 932 876 874 898 838 842 887 840 882 840 857 931 886 858 865 906 832 868 794 831 869 860 858 815 861 877 872 925 838 876 839 793 882 848 856 939 845 851 774 894 910 876 854 888 867 907 899 817 828 858 853 881 884 830 884 826 894 921 892 882 858 895 900 877 884 940 927 899 882 924 939 950 878 911 882 911 873 858 845 914 917 940 933 935 897 953 843 886 824 882 896 873 866 871 925 859 891 886 849 837 834 872 806 866 874 857 838 794 857 848 851 826 857 822 837 813 837 849 862 848 815 782 840 823 841 817 866 827 830 842 838 810 844 843 849 815 836 875 868 837 814 848 844 898 834 878 872 844 828 825 849 797 867 810 876 841 810 845 891 787 861 817 769 795 875 872 811 806 839 844 816 853 860 847 845 904 772 834 801 808 827 812 834 781 865 823 865 832 890 795 830 809 867 794 828 844 823 793 761 823 826 832 835 793 838 806 862 760 829 840 809 833 841 840 844 874 878 845 777 787 857 860 855 834 869 819 814 899 822 855 886 826 930 864 867 849 865 861 871 849 875 910 835 864 870 881 877 894 882 861 877 883 810 956 911 896 934 861 862 876 925 885 936 887 932 952 884 867 887 841 872 932 915 901 911 840 897 923 863 872 872 847 882 829 836 843 877 840 836 918 883 842 858 840 895 859 869 901 841 889 947 852 911 868 907 929 933 1019 954 1017 954 938 1010 993 1032 982 1000 1085 1047 1054 1017 1059 1041 1103 1066 1035 1102 1074 1062 1048 1015 984 1062 984 988 1023 1027 985 959 945 992 956 948 947 886 970 988 987 936 907 918 908 870 882 919 907 902 809 886 881 898 915 846 874 891 894 890 816 876 839 812 890 795 830 838 876 817 833 890 853 873 878 830 857 839 812 824 815 867 824 829 860 835 907 865 858 881 888 874 877 846 915 935 916 911 926 931 930 898 937 948 1033 973 974 994 1042 1031 1087 1080 1105 1060 1146 1168 1234 1191 1114 1186 1258 1216 1237 1251 1256 1224 1210 1204 1153 1157 1133 1152 1092 1093 1166 1090 1086 1095 1099 1086 1044 1063 985 989 992 933 1041 963 1016 968 897 953 937 952 933 921 880 938 870 909 945 888 836 867 864 862 900 873 784 862 826 907 849 814 846 816 820 859 792 858 832 827 810 845 794 847 792 882 886 825 796 821 812 872 766 785 833 833 812 841 835 840 841 824 771 787 845 770 812 818 800 815 788 815 824 796 774 755 810 779 849 805 834 799 843 851 885 789 855 859 779 866 858 879 814 820 848 853 834 820 847 866 850 837 863 859 885 867 831 872 877 910 927 855 891 917 862 976 976 960 986 1040 989 1059 1105 1170 1157 1150 1118 1177 1280 1247 1195 1292 1264 1305 1303 1249 1286 1289 1330 1366 1358 1326 1327 1266 1301 1280 1350 1305 1311 1335 1245 1286 1241 1270 1192 1182 1182 1175 1167 1129 1205 1188 1101 1070 1086 1053 1107 1075 1007 1037 986 1061 977 960 1029 971 1006 972 962 944 952 938 942 902 941 881 853 913 943 913 858 895 882 917 905 883 880 940 808 898 865 871 867 840 886 869 799 855 842 879 847 830 892 827 861 864 886 848 844 884 894 840 833 817 917 869 825 880 857 912 904 887 919 877 895 930 958 941 982 988 981 975 968 1002 969 1012 1015 1012 1062 1084 1048 1035 998 984 1022 1036 1007 1024 1052 1042 972 1031 1029 965 1017 956 1022 927 934 927 938 955 948 939 914 916 944 954 946 944 883 895 889 833 847 871 913 871 851 809 849 851 872 807 841 878 869 839 861 857 857 861 828 862 821 869 857 867 820 943 921 930 893 888 820 891 879 873 905 901 913 968 932 923 948 954 937 960 957 962 952 967 1006 908 914 1005 965 962 1016 869 952 924 946 929 922 939 898 881 845 928 924 984 951 928 894 865 919 942 923 838 951 909 900 922 921 855 871 827 873 880 921 897 891 893 856 850 871 877 906 920 825 860 840 889 864 861 872 873 905 865 886 911 951 974 1029 1067 1140 1151 1233 1274 1407 1365 1465 1526 1605 1561 1449 1452 1390 1339 1253 1222 1179 1180 1156 1151 1210 1228 1223 1268 1261 1250 1276 1188 1163 1196 1128 1088 1051 1035 999 976 1001 946 947 882 961 883 919 923 852 920 879 882 859 849 876 902 819 893 842 793 866 828 850 845 813 786 826 854 841 799 787 830 835 804 802 800 758 799 757 791 806 834 854 781 872 881 798 793 855 785 787 773 862 849 852 888 825 841 861 825 849 836 867 838 803 855 826 815 832 829 835 856 847 842 838 882 857 821 816 843 766 855 865 874 853 863 769 815 795 848 794 832 829 779 790 811 788 779 871 809 817 810 836 824 829 823 830 823 828 709 786 781 795 817 825 800 824 814 796 774 828 812 827 799 804 839 821 736 808 868 753 806 803 824 850 801 772 864 778 808 848 786 819 796 835 822 860 795 816 829 817 836 844 830 794 843 852 799 852 858 823 797 791 847 812 795 871 795 811 854 818 836 790 776 847 819 852 827 831 781 763 838 800 856 759 876 806 846 807 861 821 763 855 775 814 828 819 813 848 807 847 838 808 834 808 859 784 791 823 809 831 830 804 805 858 817 805 789 786 866 845 825 875 849 813 857 885 838 840 817 826 796 843 825 847 791 839 798 857 813 814 856 883 825 834 812 854 796 797 809 815 815 771 839 784 872 811 829 828 828 756 784 881 832 826 782 828 813 764 806 792 831 855 756 786 801 805 766 824 886 812 808 850 774 793 800 813 752 819 753 799 777 778 777 797 776 808 798 836 782 792 791 753 779 771 740 814 782 817 805 724 824 776 769 770 791 777 770 736 792 788 783 787 776 763 787 785 790 775 737 785 768 766 758 757 854 758 760 794 781 771 779 743 729 736 743 777 772 764 737 742 779 715 810 755 777 789 733 747 694 774 762 771 778 721 780 738 762 771 788 777 780 792 775 741 811 813 782 838 832 841 796 788 781 795 776 744 830 796 878 812 835 842 820 873 854 864 875 810 823 873 815 827 812 837 836 812 839 801 824 851 811 817 821 807 842 802 810 834 824 859 834 827 764 778 761 821 787 770 788 787 746 767 778 800 772 758 785 828 792 782 804 774 759 802 785 779 797 778 781 729 778 839 827 795 808 776 734 776 771 771 789 783 807 786 756 849 762 825 810 845 760 717 815 856 770 722 787 785 801 728 783 792 787 777 780 777 803 745 743 791 770 793 783 761 773 789 754 803 746 775 792 789 711 819 750 764 751 738 743 737 769 770 791 757 776 742 748 802 762 812 811 773 732 785 731 807 803 739 784 722 765 812 789 754 798 752 773 711 766 801 779 739 749 736 827 787 722 762 774 723 709 731 742 707 749 721 750 729 804 750 743 757 737 706 769 684 790 822 759 738 788 743 803 778 759 801 785 730 739 747 799 749 795 765 779 748 774 719 749 713 713 806 750 788 759 731 759 758 797 752 761 750 732 760 744 754 740 739 744 722 813 781 724 712 781 772 696 746 775 750 822 794 769 781 749 802 776 763 785 750 766 747 841 790 772 774 791 772 807 732 788 774 784 797 740 783 801 749 784 820 794 764 804 746 749 805 774 777 789 758 822 788 812 743 800 799 845 763 785 776 843 781 795 792 816 867 852 808 811 824 813 890 833 836 892 863 859 863 872 914 942 867 892 914 865 935 908 979 956 949 915 932 964 920 940 901 929 886 943 943 903 919 942 900 891 899 868 936 900 870 842 877 888 836 804 847 827 868 844 839 887 810 867 859 831 871 835 832 843 808 740 836 789 792 828 794 795 804 805 843 826 818 803 791 803 736 759 808 845 769 777 855 813 791 780 814 870 816 857 843 819 874 838 783 823 851 836 841 823 822 828 831 774 805 761 805 808 798 775 792 772 861 811 783 810 807 814 776 782 799 752 822 815 780 773 769 843 794 795 775 836 831 817 803 790 803 825 766 816 808 819 818 823 857 827 868 867 844 875 873 882 919 840 891 895 861 884 889 879 896 880 903 897 882 859 889 916 868 860 791 870 873 863 905 872 864 820 852 860 900 866 854 860 784 836 822 791 873 818 855 790 842 818 826 804 839 835 759 737 809 832 853 759 754 712 771 771 799 743 774 758 796 752 821 794 837 759 748 759 758 797 793 765 767 720 753 718 749 774 743 717 783 795 776 707 811 733 764 732 706 806 757 738 803 733 783 754 753 754 743 802 714 795 772 719 721 731 766 763 787 775 722 802 752 791 732 749 754 694 746 711 732 764 764 706 723 746 707 756 763 755 736 723 766 781 745 782 759 750 777 741 758 710 761 774 746 743 754 774 701 746 751 730 731 745 748 736 743 735 758 757 718 727 761 800 786 724 758 762 713 723 782 737 733 786 783 750 732 747 732 774 786 781 728 711 785 723 694 773 721 690 749 736 739 715 728 748 688 788 713 745 752 762 764 759 733 746 763 780 741 753 734 759 793 769 726 773 777 712 711 701 805 753 764 729 723 743 758 758 741 730 786 746 728 746 728 732 761 722 740 782 767 776 678 733 736 722 775 722 710 725 725 807 747 787 819 740 759 774 731 749 736 741 740 761 766 719 805 699 755 747 766 790 730 723 742 725 733 753 761 749 740 747 768 745 718 716 768 725 696 730 741 744 765 759 739 755 727 752 776 724 781 784 795 744 736 776 678 810 776 694 756 752 739 726 755 741 767 779 715 709 767 726 735 691 730 706 778 733 710 741 736 713 689 751 770 734 768 775 717 714 792 702 787 792 731 732 732 786 743 747 794 745 759 790 733 773 751 783 750 752 735 707 771 756 729 762 758 723 747 696 803 775 742 778 769 750 757 759 783 770 782 750 763 785 758 719 754 768 714 722 743 773 732 780 756 742 798 781 747 748 730 788 755 797 775 711 729 786 787 848 720 778 781 758 747 757 820 773 752 755 757 733 772 797 833 748 801 745 789 766 790 777 693 784 763 761 760 757 795 741 744 774 707 788 724 752 735 703 747 741 763 759 747 719 751 760 797 789 804 727 811 712 792 742 713 768 754 731 808 760 789 809 736 702 752 716 724 767 745 771 754 752 806 783 783 769 736 783 802 789 827 777 799 756 765 788 748 805 749 783 774 841 762 808 785 838 834 756 775 784 821 798 800 798 799 789 766 773 771 805 837 815 872 843 802 817 839 835 775 860 791 795 819 790 843 796 806 840 807 823 770 786 794 825 774 811 765 811 812 787 786 772 780 753 773 769 811 803 809 839 830 767 862 845 806 812 800 807 810 817 812 805 769 778 797 776 740 839 791 796 818 843 807 830 791 817 860 779 823 791 799 784 797 795 752 872 829 805 825 799 798 806 796 793 745 806 790 792 720 754 757 820 819 781 804 733 815 770 748 747 780 749 805 764 813 779 817 789 779 767 747 780 794 828 719 763 739 742 775 787 751 748 822 744 713 764 692 755 739 747 800 770 797 754 790 762 810 763 746 830 802 789 822 816 777 714 760 725 746 768 733 762 761 731 785 731 810 790 751 785 738 739 795 763 769 809 774 785 779 807 768 767 754 781 763 839 775 775 775 769 759 813 772 755 811 788 745 805 831 793 846 761 777 787 781 775 804 814 797 833 813 786 792 825 847 889 835 919 882 869 836 843 894 908 831 920 872 931 876 893 880 822 877 873 870 901 855 853 825 861 853 914 870 888 821 871 859 860 885 870 917 889 905 877 873 891 860 861 878 807 852 883 847 888 857 856 894 892 896 880 988 907 956 996 937 981 954 1043 1080 1007 1020 1096 1061 1077 1036 1118 1098 1104 1132 1137 1084 1102 1141 1162 1155 1122 1148 1162 1120 1104 1139 1127 1158 1083 1183 1115 1173 1193 1056 1101 1082 1113 1080 1089 1081 1110 1026 983 998 988 1009 1014 1011 1024 1017 982 945 959 909 954 934 971 883 949 942 866 929 839 832 816 875 859 887 891 844 835 835 800 851 823 880 869 849 840 818 845 838 789 800 811 785 832 806 833 817 784 859 815 812 800 805 876 811 876 849 905 879 884 935 998 955 962 1035 948 942 846 884 885 860 926 856 869 849 843 836 838 886 864 824 842 866 893 900 938 882 922 888 950 897 883 869 880 897 832 893 795 825 838 858 810 836 847 795 774 823 788 783 840 811 850 831 801 826 843 817 839 846 869 795 811 858 922 797 935 895 913 897 947 904 964 945 981 947 977 988 1072 1002 1040 1061 986 1002 1079 1068 1022 1058 1039 1032 1051 1031 981 979 967 1000 995 1026 953 988 1019 987 1004 1002 983 952 965 937 965 998 961 917 913 950 973 905 921 942 916 949 879 847 915 869 879 894 851 851 859 874 803 797 783 834 820 818 818 763 842 782 825 813 827 795 837 771 802 750 791 746 801 793 786 841 756 818 777 774 803 796 765 791 738 777 755 761 849 792 838 713 767 789 763 765 775 799 735 751 748 719 777 730 757 745 776 786 733 764 820 792 777 766 787 798 813 770 767 717 816 762 772 723 740 713 768 738 791 743 828 801 802 786 786 744 748 754 783 768 768 739 759 774 744 746 787 731 791 752 785 746 771 762 771 730 769 792 823 772 738 791 802 761 778 739 792 793 718 751 761 760 785 769 788 805 744 768 755 781 744 772 751 769 731 764 768 747 769 767 704 808 764 799 768 737 817 735 782 811 739 748 774 765 756 743 778 808 747 739 768 750 790 723 780 716 771 757 748 774 759 708 775 764 781 726 753 746 720 758 786 734 764 716 737 800 782 768 794 740 747 730 771 730 739 743 772 797 754 729 777 737 694 820 798 716 715 704 754 752 758 776 728 809 809 784 797 742 760 798 774 799 744 777 748 788 768 801 765 677 784 752 755 792 784 747 717 744 720 763 830 764 778 768 734 750 710 783 743 778 735 752 777 772 760 735 768 813 816 784 754 742 753 763 758 800 734 812 775 782 737 772 740 757 761 756 773 799 820 729 779 776 740 714 785 766 791 803 719 765 747 743 716 720 797 822 862 795 761 795 784 839 776 813 782 779 766 802 790 795 797 871 823 781 859 801 888 810 834 852 811 853 803 880 867 860 832 772 858 837 884 869 817 872 832 851 851 814 796 839 829 899 865 815 849 794 813 778 803 830 864 829 855 776 798 785 787 782 762 773 820 780 807 820 759 806 821 795 762 798 760 818 814 811 746 796 803 774 784 792 799 845 723 790 806 721 687 784 761 770 740 757 735 790 758 773 759 768 808 792 774 843 766 781 774 754 814 837 821 819 785 802 803 802 766 807 738 803 764 828 785 772 820 783 773 787 754 767 739 845 798 745 797 818 849 801 803 844 853 742 816 752 818 802 832 767 795 784 821 767 770 804 824 768 853 818 764 796 765 733 787 775 723 819 740 790 761 789 771 809 814 794 788 804 766 825 828 783 818 800 778 829 784 809 756 767 857 795 771 798 740 806 785 766 805 808 768 789 747 817 805 811 847 801 753 769 727 723 748 771 792 770 768 765 793 792 764 754 763 777 800 744 776 755 800 807 758 760 813 801 771 773 704 748 729 777 783 726 801 775 739 768 817 788 770 763 771 787 726 773 752 732 758 746 724 752 749 804 762 755 764 761 833 753 728 776 764 756 803 746 850 735 776 717 778 767 749 737 743 776 749 774 741 746 747 732 747 748 761 788 784 774 733 805 778 794 759 784 792 808 736 806 698 707 736 747 723 769 723 671 766 774 770 748 755 743 786 809 797 775 825 730 757 831 770 806 748 735 803 728 762 785 765 777 743 753 797 732 764 756 766 799 724 767 760 829 755 741 763 767 776 722 783 790 798 827 791 803 782 823 775 782 768 805 828 869 827 801 847 850 806 840 837 801 851 913 850 848 907 874 856 875 871 921 906 939 921 931 985 939 1000 967 985 957 958 989 983 1007 1004 928 973 1016 992 953 992 965 953 965 1012 930 1004 974 962 959 980 960 1000 973 959 918 897 998 968 990 898 880 893 904 884 918 899 885 909 866 885 930 829 863 851 881 868 897 874 854 877 834 829 881 831 899 855 810 835 818 812 855 774 793 808 824 836 811 831 812 823 850 831 786 835 896 815 790 815 784 798 781 839 805 790 800 760 779 803 783 803 777 790 819 814 793 825 768 802 843 774 809 763 805 779 798 833 817 807 746 807 753 765 764 780 827 811 760 754 797 776 761 780 746 768 776 763 791 811 753 790 776 773 764 767 792 781 815 780 817 766 754 790 775 796 717 804 765 822 790 775 790 757 798 728 826 785 739 783 800 815 768 843 785 789 852 785 824 768 827 836 800 866 808 786 830 818 799 771 801 792 786 845 820 876 800 841 756 842 830 838 803 868 800 784 834 800 860 879 858 797 805 840 797 822 893 878 842 843 811 880 847 921 869 860 870 859 880 832 856 844 855 849 834 814 843 809 871 874 856 845 807 849 850 900 786 816 794 764 836 839 826 809 812 807 803 757 809 821 814 759 777 789 789 783 827 800 770 787 727 810 763 791 794 802 763 782 722 742 762 846 737 774 773 794 742 754 757 749 749 772 785 741 755 802 724 836 759 728 771 777 735 786 772 782 775 784 747 743 779 774 768 789 783 724 750 800 786 737 760 835 756 774 784 829 808 733 782 770 795 805 742 737 804 720 817 736 759 723 770 738 781 754 806 833 730 798 734 780 817 749 780 777 728 845 773 776 781 808 777 778 738 793 792 818 721 760 824 779 744 754 748 743 785 764 750 765 746 731 828 733 822 825 730 753 757 758 773 772 783 717 790 757 742 772 748 757 723 731 733 708 754 730 735 745 742 785 754 787 712 723 733 760 780 716 761 731 815 775 721 755 772 746 736 787 747 742 723 719 762 742 760 780 737 767 779 714 799 759 772 772 776 745 754 781 734 709 727 773 769 739 772 785 744 753 810 758 747 762 691 773 747 712 742 784 798 748 722 754 733 736 755 772 797 776 757 791 755 758 789 805 781 772 805 750 766 775 789 767 752 794 829 812 750 779 781 785 752 764 751 720 757 740 771 738 771 798 797 810 734 776 783 781 789 786 777 800 738 801 783 796 773 796 790 782 775 794 811 763 794 799 763 796 824 784 784 823 763 817 822 774 795 800 832 768 782 803 801 823 836 878 831 781 766 808 804 753 788 806 804 796 843 827 767 765 741 788 795 824 807 780 782 807 790 764 746 800 766 784 746 759 776 817 732 814 734 752 747 767 832 772 774 698 767 741 763 798 739 769 744 826 728 761 768 776 775 764 794 782 806 780 768 770 770 759 735 790 755 820 770 764 754 756 768 748 807 795 759 739 802 795 744 760 747 817 818 791 811 798 800 776 816 795 803 768 814 790 792 813 802 786 821 829 776 798 819 798 787 774 768 849 755 813 774 764 788 806 792 801 793 742 803 815 779 812 803 821 765 755 770 744 773 809 871 768 816 780 797 807 745 828 763 762 783 852 802 769 753 765 806 772 812 812 783 843 718 777 792 734 829 787 834 772 803 783 809 757 809 774 755 784 743 741 750 838 802 785 801 743 670 750 781</counts>
			</dataPoints>
		</scan>
	</xrdMeasurement>
</xrdMeasurements>
