<?xml version="1.0"?>
<xrdMeasurements xmlns="http://www.xrdml.com/XRDMeasurement/2.3" xmlns:xsi="http://www.w3.org/2001/XMLSchema-instance" xsi:schemaLocation="http://www.xrdml.com/XRDMeasurement/2.3 http://www.xrdml.com/XRDMeasurement/2.3/XRDMeasurement.xsd" status="Completed" recordIdentifier="{EE7CB0E9-5DCB-4A1B-B50B-E697263AD232}">
	<comment>
		<entry/>
	</comment>
	<sample type="To be analyzed">
		<id>GPSS_Li1p5Co0p5Sc0p5Cl4_110125_69065e22e3432ed06b655fa7</id>
		<name></name>
		<preparedBy></preparedBy>
	</sample>
	<xrdMeasurement measurementType="Scan" status="Completed" sampleMode="Reflection">
		<usedWavelength intended="K-Alpha 1">
			<kAlpha1 unit="Angstrom">1.5405980</kAlpha1>
			<kAlpha2 unit="Angstrom">1.5444260</kAlpha2>
			<kBeta unit="Angstrom">1.3922500</kBeta>
			<ratioKAlpha2KAlpha1>0.5000</ratioKAlpha2KAlpha1>
		</usedWavelength>
		<incidentBeamPath>
			<radius unit="mm">145.00</radius>
			<xRayTube id="1010048" name="Empyrean Cu LFF HR (9430 033 7310x)">
				<tension unit="kV">40.0</tension>
				<current unit="mA">15.0</current>
				<anodeMaterial>Cu</anodeMaterial>
				<focus type="Line">
					<length unit="mm">12.0</length>
					<width unit="mm">0.4</width>
					<takeOffAngle unit="deg">6.0</takeOffAngle>
				</focus>
			</xRayTube>
			<sollerSlit id="21010002" name="Soller slits 0.04 rad.">
				<opening unit="rad">0.0400</opening>
			</sollerSlit>
			<mask id="22031000" name="Fixed mask 13 mm">
				<width unit="mm">9.00</width>
			</mask>
			<divergenceSlit id="22120001" name="Divergence slit 1°" xsi:type="fixedDivergenceSlitType">
				<distanceToSample unit="mm">50.00</distanceToSample>
				<height unit="mm">1.52</height>
			</divergenceSlit>
		</incidentBeamPath>
		<sampleMovement xsi:type="spinningSampleMovementType">
			<spinnerRevolutionTime unit="seconds">1.0</spinnerRevolutionTime>
		</sampleMovement>
		<diffractedBeamPath>
			<radius unit="mm">145.00</radius>
			<antiScatterSlit id="22090040" name="AS slit 9 mm (PIXcel)" xsi:type="fixedAntiScatterSlitType">
				<height unit="mm">9.00</height>
			</antiScatterSlit>
			<sollerSlit id="21020003" name="Large Soller slits 0.04 rad.">
				<opening unit="rad">0.0400</opening>
			</sollerSlit>
			<filter id="20030001" name="Large beta-filter Nickel">
				<material>Ni</material>
				<thickness unit="mm">0.020</thickness>
			</filter>
			<detector id="7010019" name="PIXcel1D-Medipix3 detector" xsi:type="rtmsDetectorType">
				<phd unit="keV">
					<lowerLevel>4.02</lowerLevel>
					<upperLevel>11.27</upperLevel>
				</phd>
				<mode>Scanning</mode>
				<activeLength unit="deg">5.542</activeLength>
			</detector>
		</diffractedBeamPath>
		<scan appendNumber="0" mode="Continuous" scanAxis="Gonio" status="Completed">
			<header>
				<startTimeStamp>2025-11-04T14:03:56-08:00</startTimeStamp>
				<endTimeStamp>2025-11-04T14:12:03-08:00</endTimeStamp>
				<author>
					<name>AutomatedUser</name>
				</author>
				<source>
					<applicationSoftware version="1.7b (136)">PANalytical Aeris Instrument Suite</applicationSoftware>
					<instrumentControlSoftware version="3.2.00000000 20240306">AERIS</instrumentControlSoftware>
					<instrumentID>950485</instrumentID>
				</source>
			</header>
			<dataPoints>
				<positions axis="2Theta" unit="deg">
					<startPosition>10.00943322</startPosition>
					<endPosition>99.99442286</endPosition>
				</positions>
				<positions axis="Omega" unit="deg">
					<startPosition>5.00471661</startPosition>
					<endPosition>49.99721143</endPosition>
				</positions>
				<commonCountingTime unit="seconds">12.495</commonCountingTime>
				<counts unit="counts">3569 3504 3499 3533 3420 3483 3528 3454 3548 3465 3448 3479 3578 3446 3509 3504 3425 3510 3467 3606 3483 3525 3454 3612 3504 3539 3518 3501 3481 3569 3477 3510 3514 3460 3463 3632 3597 3655 3530 3691 3586 3533 3727 3511 3634 3655 3697 3595 3630 3664 3677 3625 3580 3533 3685 3650 3655 3674 3631 3679 3672 3754 3694 3723 3762 3746 3776 3773 3602 3759 3727 3677 3640 3702 3580 3709 3698 3703 3708 3783 3579 3719 3624 3790 3782 3941 3634 3718 3745 3747 3794 3721 3788 3878 3673 3701 3651 3598 3608 3599 3637 3723 3636 3718 3728 3669 3608 3651 3577 3738 3540 3714 3552 3655 3693 3661 3683 3653 3719 3682 3601 3677 3597 3581 3556 3600 3664 3659 3543 3574 3580 3630 3738 3717 3674 3602 3556 3605 3515 3571 3623 3577 3580 3546 3667 3700 3642 3739 3662 3540 3687 3656 3592 3558 3624 3679 3671 3610 3721 3607 3685 3632 3637 3684 3591 3590 3581 3673 3683 3572 3672 3683 3588 3602 3626 3503 3670 3702 3614 3715 3614 3635 3543 3542 3597 3524 3637 3585 3605 3625 3494 3559 3558 3641 3574 3645 3703 3656 3596 3433 3636 3604 3597 3576 3614 3562 3555 3558 3616 3551 3571 3605 3737 3613 3600 3625 3680 3596 3525 3552 3528 3607 3604 3689 3683 3531 3524 3613 3504 3460 3568 3633 3527 3631 3621 3557 3511 3562 3610 3608 3541 3574 3617 3562 3658 3560 3574 3484 3638 3579 3584 3567 3595 3528 3477 3637 3597 3603 3511 3800 3740 3488 3586 3614 3618 3663 3548 3563 3717 3695 3622 3592 3609 3673 3585 3655 3680 3618 3561 3699 3670 3690 3602 3687 3624 3563 3625 3717 3707 3711 3766 3642 3766 3739 3699 3756 3702 3645 3651 3662 3826 3739 3733 3698 3820 3715 3741 3606 3674 3705 3651 3761 3844 3862 3775 3770 3862 3861 3838 3868 3753 3712 3695 3797 3844 3781 3792 3814 3859 3867 3882 3894 3910 3984 3876 3826 3857 3838 3838 4001 3907 4003 3861 3959 4041 3901 4028 3897 3864 4064 4027 4008 3888 3977 4047 3934 3945 4044 4067 4100 4093 4145 4100 4129 4005 4134 4173 4095 4105 4022 4124 4118 4007 3998 4221 4102 4144 4098 4162 4193 4223 4211 4323 4237 4115 4159 4077 4209 4186 4239 4142 4228 4288 4259 4257 4175 4212 4201 4277 4239 4305 4249 4383 4285 4230 4382 4374 4305 4372 4308 4336 4460 4385 4360 4394 4397 4327 4581 4656 4504 4494 4523 4657 4570 4573 4620 4684 4687 4920 4708 4832 4839 4934 4976 5106 5142 5286 5378 5437 5616 5723 5719 6028 6056 6126 6168 6488 6534 6519 6748 6842 7093 7196 7529 7565 7654 8065 8131 8155 8502 8572 8681 8756 8868 8674 8834 8619 8874 8629 8611 8480 8359 8178 8014 7891 7398 7251 6952 6553 6415 5894 5834 5678 5492 5303 5227 5254 5149 5275 5185 5133 5210 5240 5249 5286 5290 5117 5241 5402 5305 5377 5405 5230 5174 5178 5064 4924 4935 4902 4858 4685 4547 4490 4547 4476 4304 4374 4301 4293 4222 4191 4183 4291 4083 4072 4189 4067 4189 4106 4118 4021 4119 4143 4024 4039 4090 4091 4148 4034 4182 3975 4124 4013 4038 3923 4112 3980 4037 4095 3999 4020 4021 4021 4097 3956 3975 3986 3963 3914 3949 4034 4051 4021 4042 3931 4029 4148 3997 3914 4159 3929 4074 3977 4158 4026 4053 4067 4033 4081 4041 4019 3932 4082 4041 4019 3987 4011 3915 3855 3835 3843 3889 3971 3858 3896 3878 3893 3958 3879 3930 3851 3981 4004 4013 3973 3908 3944 4129 3851 3895 3852 3824 3851 3873 3885 3817 3831 3867 3891 3839 3970 3940 3932 3811 3866 3930 3847 3929 3860 3931 3933 3877 3862 3872 3923 3977 4082 3838 4010 3926 4170 3907 4021 3909 3991 3892 3960 3844 3980 3952 4074 3913 4026 3937 4031 4047 3924 3930 3957 3863 3956 4047 4092 3920 4016 3992 3970 3972 4009 3990 4080 4075 3978 3924 3915 4103 3889 3955 3992 3961 3889 3947 3871 3872 3982 3820 3780 3865 3904 3836 3817 3848 3810 3678 3796 3784 3719 3837 3743 3830 3738 3633 3744 3719 3819 3762 3690 3736 3812 3610 3766 3840 3689 3764 3719 3752 3831 3704 3643 3719 3578 3736 3799 3823 3844 3755 3808 3633 3792 3750 3666 3824 3777 3717 3815 3666 3629 3721 3704 3810 3820 3747 3801 3694 3574 3694 3727 3699 3772 3650 3684 3671 3607 3717 3716 3809 3623 3707 3804 3659 3733 3589 3733 3735 3783 3691 3631 3719 3708 3752 3660 3644 3640 3751 3680 3721 3640 3813 3673 3670 3693 3706 3634 3859 3827 3770 3622 3693 3670 3733 3725 3684 3715 3685 3759 3680 3723 3687 3650 3586 3674 3682 3705 3731 3640 3678 3723 3674 3664 3622 3679 3700 3684 3730 3631 3613 3683 3586 3729 3692 3778 3766 3722 3697 3720 3827 3578 3576 3632 3670 3742 3711 3613 3582 3705 3603 3578 3596 3655 3641 3640 3805 3684 3665 3675 3653 3577 3735 3751 3788 3615 3663 3549 3599 3549 3646 3670 3672 3601 3616 3476 3605 3557 3509 3518 3695 3565 3493 3496 3631 3574 3524 3532 3608 3627 3622 3576 3473 3477 3583 3528 3559 3510 3464 3508 3691 3646 3622 3590 3540 3507 3613 3619 3710 3423 3486 3474 3634 3499 3599 3458 3513 3473 3549 3350 3533 3458 3532 3487 3569 3529 3580 3528 3580 3491 3466 3425 3515 3516 3439 3510 3541 3542 3509 3461 3581 3506 3496 3408 3505 3583 3555 3426 3509 3538 3494 3496 3393 3474 3495 3541 3414 3498 3462 3495 3540 3567 3523 3549 3399 3482 3441 3402 3398 3433 3575 3431 3503 3401 3475 3449 3520 3382 3420 3449 3463 3496 3475 3421 3503 3452 3466 3452 3558 3484 3323 3481 3510 3433 3566 3627 3517 3466 3543 3443 3490 3419 3491 3527 3417 3514 3587 3408 3461 3425 3495 3538 3476 3458 3483 3344 3444 3425 3504 3490 3451 3523 3451 3459 3430 3445 3414 3387 3496 3400 3349 3410 3434 3472 3427 3463 3531 3503 3485 3471 3508 3502 3495 3425 3429 3475 3437 3529 3372 3430 3469 3546 3613 3469 3470 3486 3465 3489 3460 3492 3468 3500 3441 3532 3540 3523 3466 3504 3451 3464 3457 3418 3498 3469 3585 3547 3489 3393 3552 3431 3493 3424 3476 3471 3538 3414 3528 3553 3521 3563 3552 3503 3417 3526 3649 3449 3503 3550 3602 3575 3379 3530 3469 3433 3484 3528 3486 3535 3488 3606 3445 3546 3553 3605 3551 3557 3465 3544 3580 3587 3579 3468 3624 3545 3640 3569 3503 3467 3490 3449 3505 3491 3574 3618 3528 3512 3556 3484 3458 3511 3542 3529 3398 3418 3476 3374 3505 3434 3502 3417 3429 3465 3470 3476 3390 3432 3347 3422 3419 3349 3441 3391 3486 3349 3468 3280 3415 3351 3397 3420 3361 3376 3357 3326 3353 3420 3326 3356 3434 3396 3273 3349 3277 3266 3373 3290 3381 3342 3360 3348 3320 3267 3203 3292 3370 3368 3276 3313 3287 3312 3212 3243 3164 3310 3254 3254 3268 3236 3227 3272 3252 3225 3315 3225 3308 3298 3145 3316 3218 3088 3269 3116 3258 3213 3220 3244 3158 3215 3223 3207 3199 3164 3102 3127 3096 3154 3106 3169 3097 3170 3127 3077 3227 3161 3184 3103 3056 3065 3082 3143 3060 3081 3227 3060 3207 2997 3002 3052 3166 3028 3080 3000 3111 3029 3021 3001 3054 3017 3170 3027 2934 3021 3111 3070 2980 3005 3041 3031 3008 3102 2972 2997 2992 3014 2956 3058 2945 2937 2949 2983 3010 2916 3003 3028 2883 3013 3024 2945 2988 3009 2861 3005 2968 3009 2917 2871 3008 3040 2890 3030 2941 2959 3006 2913 2975 2843 2858 2911 2840 2965 2919 2902 2936 2914 2974 2956 3063 3018 3097 2991 2897 3020 2877 2891 3014 3045 2894 3018 2903 2979 3033 2964 2979 2884 2956 2979 2955 2913 3021 3044 3023 3025 3048 3004 3080 2905 3032 3063 3097 3066 2933 3105 3062 2961 2964 2980 3058 3070 3095 3109 3018 3000 3063 3036 3001 3075 2975 3057 3040 3000 3067 2998 3011 3086 3048 2974 3110 2998 2897 2981 2934 2963 2951 2881 2918 2939 3018 2879 2925 2965 2963 2934 2936 3017 2890 2894 2918 2790 2993 2957 3003 2930 2876 2918 3063 2957 2889 2949 2856 2917 2854 2954 2819 2931 2925 2923 2977 2834 2853 2883 2852 2939 2890 2857 2975 3054 2868 2824 2948 2954 2909 2929 2878 2789 2970 2866 2960 2967 2889 3033 2924 2931 2971 2777 2950 2966 2905 2916 3003 2936 2992 2940 2855 2999 2903 2939 2979 2988 2938 2887 3000 2910 3084 3044 3007 2930 2913 3003 2953 2949 2924 2930 2941 2943 2926 2856 2952 2950 2993 2971 2976 2884 2812 2792 3013 2886 2856 2904 2951 2936 2908 2970 2848 2927 2893 2797 2879 2926 2939 2933 2912 2886 2958 2930 2911 2870 2949 2927 2802 2972 2817 2909 2948 2867 2931 2864 2917 2935 2858 2930 2911 2907 2835 2938 2912 2936 2822 2780 2799 2890 2869 2839 2890 2825 2859 2774 2860 2938 2747 2880 2922 2888 2698 2840 2864 2860 2731 2754 2800 2911 2941 2847 2779 2874 2880 2851 2864 2843 2724 2798 2852 2843 2793 2785 2812 2710 2760 2818 2869 2755 2802 2814 2689 2766 2766 2699 2855 2838 2811 2733 2691 2820 2839 2743 2781 2839 2740 2733 2754 2767 2745 2721 2758 2783 2627 2763 2765 2737 2733 2696 2635 2700 2801 2759 2674 2767 2738 2771 2780 2714 2618 2707 2639 2705 2752 2586 2741 2647 2679 2673 2602 2691 2712 2679 2596 2648 2638 2651 2803 2657 2655 2512 2643 2726 2672 2644 2798 2706 2507 2665 2666 2563 2704 2646 2670 2664 2678 2642 2747 2572 2581 2632 2552 2645 2560 2532 2722 2648 2528 2585 2616 2592 2567 2547 2549 2650 2608 2676 2626 2607 2599 2696 2561 2587 2636 2566 2637 2647 2516 2528 2571 2506 2622 2611 2640 2515 2613 2604 2558 2630 2579 2626 2649 2641 2637 2587 2615 2613 2581 2592 2646 2553 2665 2661 2601 2668 2601 2657 2601 2649 2737 2654 2695 2555 2633 2646 2645 2759 2698 2725 2752 2716 2679 2652 2656 2764 2730 2742 2612 2781 2841 2795 2862 2700 2773 2854 2838 2830 2890 2859 2717 2789 2750 2750 2784 2862 2704 2811 2897 2731 2764 2887 2682 2834 2815 2774 2853 2772 2702 2744 2813 2884 2904 2841 2752 2766 2827 2699 2736 2765 2717 2670 2761 2718 2672 2622 2589 2670 2650 2653 2598 2593 2641 2656 2665 2673 2522 2701 2701 2529 2699 2716 2669 2599 2590 2712 2635 2703 2691 2683 2678 2763 2727 2737 2690 2803 2907 2819 2776 2737 2733 2845 2772 2823 2894 2861 2840 2937 3026 3026 3010 3046 3079 3189 3102 3186 3277 3309 3344 3360 3525 3577 3575 3741 3687 3900 3935 4025 4257 4206 4271 4388 4491 4752 4599 4686 4720 4689 4766 4719 4798 4713 4812 4646 4611 4468 4607 4559 4575 4474 4466 4452 4403 4549 4567 4549 4570 4651 4717 4575 4602 4701 4543 4567 4465 4375 4371 4155 4101 3820 3769 3549 3246 3270 3167 3093 2930 2906 2792 2736 2687 2673 2634 2688 2602 2424 2543 2591 2585 2575 2456 2425 2484 2529 2548 2466 2475 2364 2326 2491 2441 2367 2551 2403 2477 2463 2487 2408 2424 2479 2478 2489 2531 2425 2457 2414 2353 2435 2503 2433 2447 2307 2404 2373 2451 2406 2414 2480 2502 2446 2376 2398 2389 2465 2487 2534 2418 2435 2421 2425 2416 2373 2429 2390 2417 2450 2453 2355 2401 2226 2387 2406 2430 2406 2391 2390 2362 2400 2417 2408 2378 2416 2281 2297 2371 2424 2444 2383 2456 2396 2392 2479 2333 2382 2414 2374 2402 2477 2444 2293 2407 2462 2462 2514 2443 2446 2431 2575 2572 2564 2479 2599 2555 2539 2592 2548 2493 2567 2732 2569 2674 2729 2710 2717 2718 2671 2804 2698 2893 2794 2837 2774 2788 2801 2831 2758 2798 2982 2859 2829 2829 2857 2814 2892 2822 2746 2799 2738 2725 2825 2724 2650 2658 2473 2634 2433 2489 2516 2485 2476 2573 2534 2479 2548 2395 2441 2443 2352 2488 2439 2485 2389 2377 2265 2469 2312 2369 2382 2284 2440 2348 2385 2424 2349 2374 2413 2350 2433 2366 2378 2460 2356 2435 2334 2336 2483 2311 2374 2321 2418 2315 2435 2272 2401 2408 2339 2418 2347 2338 2442 2432 2402 2357 2354 2426 2384 2352 2375 2303 2375 2308 2395 2370 2319 2369 2334 2364 2430 2373 2354 2371 2365 2362 2355 2390 2417 2343 2396 2394 2313 2308 2412 2404 2360 2398 2436 2395 2379 2429 2375 2394 2387 2361 2443 2378 2247 2394 2362 2414 2361 2352 2363 2419 2313 2431 2365 2367 2332 2382 2395 2328 2385 2409 2360 2387 2424 2390 2366 2508 2340 2392 2384 2369 2363 2510 2471 2395 2435 2431 2461 2431 2364 2442 2432 2461 2486 2391 2399 2454 2523 2422 2296 2316 2406 2413 2434 2459 2391 2382 2406 2411 2383 2461 2413 2497 2473 2437 2400 2445 2443 2410 2491 2523 2453 2451 2412 2351 2431 2471 2510 2458 2429 2502 2399 2487 2608 2618 2497 2517 2476 2458 2531 2570 2550 2592 2606 2554 2675 2667 2715 2677 2678 2720 2787 2854 2906 2868 2942 2853 2836 2900 3026 3023 3211 3177 3116 3293 3245 3393 3525 3449 3482 3638 3727 3728 3589 3749 3881 3975 3998 3946 4062 4087 4196 4194 4176 4344 4444 4434 4525 4628 4720 4712 4854 5092 5033 4978 5027 4938 4912 4916 4773 4739 4886 4767 4721 4520 4723 4728 4680 4542 4634 4752 4815 4677 4708 4820 4923 4828 4887 4878 4917 5079 5016 5017 4966 4804 4646 4838 4706 4588 4735 4578 4614 4477 4436 4430 4337 4439 4337 4316 4104 4172 4009 4058 3881 3796 3818 3626 3623 3512 3264 3267 3092 3173 3097 3058 2939 2829 2743 2833 2660 2728 2809 2658 2627 2682 2604 2591 2621 2685 2610 2652 2641 2537 2536 2634 2658 2566 2658 2589 2560 2582 2644 2575 2608 2655 2664 2656 2569 2622 2724 2701 2762 2628 2617 2716 2671 2626 2558 2576 2628 2654 2485 2642 2524 2509 2464 2398 2494 2456 2491 2441 2500 2369 2480 2401 2360 2407 2348 2396 2384 2477 2355 2349 2310 2340 2418 2356 2326 2406 2344 2278 2345 2278 2347 2409 2366 2350 2328 2372 2242 2336 2226 2322 2238 2323 2292 2271 2188 2328 2302 2343 2296 2271 2325 2288 2325 2319 2312 2295 2207 2315 2362 2352 2201 2361 2295 2319 2270 2300 2259 2238 2286 2320 2293 2299 2233 2259 2264 2244 2397 2410 2338 2250 2244 2227 2265 2220 2272 2289 2248 2287 2301 2222 2293 2158 2256 2314 2244 2343 2194 2264 2211 2286 2209 2266 2224 2262 2243 2190 2233 2259 2207 2240 2240 2209 2163 2210 2159 2234 2174 2326 2295 2213 2244 2208 2109 2159 2288 2286 2261 2280 2293 2201 2281 2254 2181 2271 2238 2173 2204 2187 2308 2229 2275 2255 2188 2267 2177 2188 2272 2222 2149 2174 2276 2117 2242 2219 2268 2270 2291 2253 2164 2235 2218 2290 2212 2279 2207 2181 2269 2213 2260 2281 2247 2318 2249 2201 2277 2174 2235 2162 2209 2172 2236 2289 2196 2189 2242 2272 2262 2205 2248 2315 2297 2223 2184 2212 2282 2260 2288 2206 2191 2244 2173 2330 2314 2380 2162 2245 2269 2249 2218 2210 2295 2232 2314 2355 2270 2246 2273 2218 2235 2236 2238 2292 2256 2276 2322 2279 2256 2231 2283 2225 2346 2236 2170 2140 2276 2252 2177 2161 2256 2230 2160 2308 2281 2195 2233 2193 2219 2218 2177 2278 2112 2181 2208 2205 2161 2171 2198 2153 2179 2208 2237 2171 2203 2233 2215 2271 2158 2205 2196 2113 2197 2232 2219 2199 2255 2155 2146 2145 2229 2170 2281 2209 2232 2166 2252 2270 2302 2263 2214 2070 2214 2239 2292 2156 2310 2197 2242 2159 2218 2290 2180 2351 2290 2179 2307 2269 2245 2219 2197 2210 2222 2205 2244 2287 2240 2203 2287 2277 2306 2234 2317 2276 2221 2248 2253 2212 2272 2170 2213 2255 2174 2276 2078 2083 2139 2212 2174 2197 2197 2157 2213 2171 2249 2150 2174 2120 2239 2248 2186 2200 2128 2184 2187 2130 2195 2219 2108 2136 2127 2170 2204 2102 2122 2164 2257 2151 2173 2225 2188 2128 2204 2195 2157 2204 2215 2127 2180 2134 2157 2111 2119 2094 2132 2100 2129 2215 2161 2013 2167 2138 2154 2138 2164 2145 2114 2155 2110 2138 2255 2153 2128 2138 2135 2114 2190 2136 2241 2087 2180 2163 2141 2163 2195 2133 2178 2175 2139 2232 2115 2112 2207 2152 2181 2103 2151 2150 2075 2164 2103 2160 2177 2215 2206 2134 2229 2145 2169 2150 2111 2162 2208 2217 2129 2177 2161 2135 2210 2107 2205 2221 2249 2149 2165 2088 2203 2145 2216 2160 2054 2143 2207 2117 2121 2197 2179 2165 2172 2122 2158 2156 2194 2060 2084 2160 2183 2182 2179 2236 2170 2112 2081 2143 2135 2156 2146 2131 2175 2186 2249 2168 2201 2198 2127 2166 2187 2201 2146 2222 2259 2325 2133 2309 2239 2370 2368 2251 2328 2292 2302 2327 2370 2347 2310 2480 2435 2393 2345 2367 2501 2500 2409 2522 2509 2519 2435 2487 2428 2524 2590 2550 2599 2497 2443 2479 2456 2493 2419 2465 2479 2362 2362 2282 2379 2309 2255 2296 2304 2332 2210 2233 2237 2147 2251 2204 2183 2193 2142 2275 2134 2209 2141 2136 2131 2225 2134 2180 2214 2162 2174 2187 2182 2163 2152 2068 2196 2161 2259 2227 2130 2128 2100 2120 2134 2099 2109 2088 2137 2071 2138 2119 2068 2154 2135 2049 2112 2102 2079 2108 2094 2144 2143 2083 2181 2092 2198 2082 2130 2151 2164 2180 2145 2192 2120 2111 2148 2180 2112 2145 2050 2081 2184 2087 2110 2087 2122 2099 2080 2168 2171 2145 2158 2103 2165 2201 2112 2151 2161 2022 2102 2170 2155 2077 2145 2156 2164 2096 2154 2150 2143 2213 2114 2256 2115 2196 2177 2123 2186 2201 2086 2090 2106 2209 2154 2219 2134 2142 2135 2164 2096 2222 2120 2138 2070 2143 2107 2156 2082 2172 2146 2151 2140 2099 2187 2141 2025 2131 2114 2134 2090 2072 2166 2136 2153 2133 2162 2177 2193 2150 2146 2116 2109 2082 2159 2152 2124 2141 2099 2151 2122 2056 2005 2066 2180 2155 2053 2085 2079 2105 2116 2203 2101 2089 2163 2072 2207 2135 2098 2132 2188 2101 2160 2013 2097 2183 2120 2162 2108 2072 2153 2079 2154 2069 2201 2143 2191 2134 2125 2065 2129 2103 2165 2208 2130 2114 2133 2136 2102 2103 2170 2116 2080 2132 2054 2136 2161 2170 2116 2156 2136 2166 2085 2128 2109 2087 2196 2084 2053 2105 2043 2095 2022 2108 2111 2040 2088 2214 2133 2110 2065 2075 2159 2116 2050 2096 2098 2114 2138 2147 2139 2098 2143 2100 2093 2129 2128 2115 2151 2164 2208 2216 2206 2183 2143 2060 2093 2132 2053 2178 2162 2118 2110 2104 2198 2095 2170 2122 2132 2225 2182 2117 2104 2123 2189 2152 2211 2184 2064 2175 2180 2113 2145 2182 2127 2129 2143 2161 2141 2123 2145 2051 2125 2221 2291 2129 2234 2139 2175 2216 2095 2121 2198 2185 2233 2195 2192 2202 2294 2256 2092 2202 2164 2221 2227 2156 2189 2239 2245 2279 2246 2278 2214 2251 2261 2276 2241 2237 2313 2288 2344 2327 2405 2378 2371 2271 2284 2349 2327 2309 2293 2366 2249 2271 2265 2238 2238 2286 2331 2309 2225 2328 2243 2335 2212 2339 2222 2316 2427 2264 2289 2328 2272 2312 2377 2350 2438 2376 2477 2437 2334 2314 2300 2378 2262 2342 2358 2302 2277 2348 2356 2385 2356 2300 2383 2244 2293 2251 2316 2283 2282 2330 2254 2298 2191 2242 2248 2254 2201 2195 2212 2208 2258 2189 2261 2143 2163 2199 2105 2086 2129 2133 2091 2167 2134 2147 2106 2034 2117 2164 2136 2120 2094 2034 2225 2202 2110 2121 2149 2165 2139 2143 2175 2164 2104 2158 2099 2178 2119 2172 2156 2247 2092 2156 2055 2208 2264 2246 2073 2203 2167 2175 2128 2089 2127 2085 2109 2058 2111 2161 2177 2124 2123 2175 2146 2147 2252 2099 2186 2165 2210 2133 2128 2158 2190 2151 2138 2120 2178 2109 2197 2151 2090 2074 2140 2130 2068 2127 2078 2136 2140 2159 2044 2159 2089 2109 2097 2108 2106 2072 2152 2126 2163 2128 2160 2101 2114 2124 2185 2121 2083 2155 2120 2055 2134 2090 2151 2141 2185 2015 2093 2087 2161 2103 2067 2103 2076 2154 2122 2121 2115 2092 2073 2151 2124 2147 2143 2079 2141 2101 2073 2092 2143 2086 2109 2112 2181 2103 2094 2135 2170 2152 2108 2095 2167 2018 2198 2106 2168 2092 2144 2069 2156 2109 2217 2097 2135 2193 2169 2138 2131 2204 2082 2168 2151 2087 2160 2171 2134 2165 2131 2139 2154 2180 2147 2172 2122 2079 2165 2205 2123 2137 2224 2254 2146 2123 2153 2119 2186 2111 2081 2069 2146 2169 2138 2123 2152 2065 2167 2177 2082 2131 2108 2168 2054 2166 2125 2145 2109 2211 2197 2189 2148 2059 2161 2230 2063 2153 2154 2115 2121 2167 2181 2108 2052 2240 2171 2165 2150 2148 2154 2075 2160 2155 2148 2126 2104 2103 2268 2162 2174 2126 2135 2149 2156 2171 2177 2212 2240 2166 2170 2163 2086 2216 2237 2130 2196 2217 2258 2158 2321 2267 2163 2254 2309 2197 2314 2326 2342 2304 2364 2282 2350 2380 2478 2531 2461 2444 2515 2543 2572 2488 2580 2621 2680 2669 2788 2726 2852 2779 2831 2902 3012 2917 2889 2936 2939 3037 2950 2930 2986 3040 3130 3117 3012 3078 3116 3039 3020 2975 3021 3057 3066 2979 2968 2995 2870 3017 2951 2924 2885 2994 2903 2836 2953 2929 2887 2935 2898 2958 2981 2932 2933 3067 3138 3137 2961 3059 3087 3144 3098 3141 3319 3210 3192 3207 3282 3223 3269 3362 3409 3337 3503 3321 3229 3268 3121 3131 3102 3023 3002 2963 3026 2947 2951 2939 2893 2869 2757 2677 2777 2792 2619 2605 2593 2509 2604 2649 2504 2493 2515 2471 2435 2370 2529 2449 2512 2467 2356 2508 2468 2465 2382 2403 2481 2414 2421 2350 2358 2278 2342 2281 2301 2319 2331 2243 2272 2270 2332 2277 2235 2274 2140 2276 2213 2237 2283 2282 2288 2182 2275 2231 2209 2251 2184 2220 2210 2206 2244 2165 2334 2172 2160 2313 2259 2299 2312 2385 2212 2283 2154 2215 2337 2172 2288 2251 2319 2258 2343 2337 2381 2432 2470 2338 2427 2403 2499 2427 2436 2422 2542 2438 2414 2440 2511 2483 2487 2378 2426 2376 2439 2389 2368 2337 2360 2279 2272 2316 2267 2320 2271 2298 2228 2249 2309 2250 2258 2171 2115 2198 2170 2082 2143 2116 2203 2193 2153 2163 2150 2162 2239 2099 2115 2249 2192 2184 2137 2104 2177 2210 2136 2203 2159 2237 2190 2107 2204 2176 2207 2255 2143 2131 2226 2189 2225 2174 2204 2200 2105 2218 2203 2185 2186 2176 2247 2102 2120 2117 2169 2224 2192 2162 2113 2164 2107 2211 2090 2166 2171 2175 2196 2210 2157 2230 2146 2117 2241 2151 2218 2219 2263 2289 2198 2153 2233 2180 2234 2231 2214 2221 2124 2206 2226 2254 2115 2228 2297 2203 2183 2181 2174 2177 2097 2225 2213 2179 2127 2179 2197 2190 2206 2187 2188 2233 2195 2211 2198 2178 2230 2139 2258 2194 2127 2058 2077 2177 2193 2160 2125 2118 2164 2191 2221 2303 2096 2140 2130 2160 2172 2088 2181 2112 2198 2146 2176 2255 2228 2063 2113 2214 2168 2100 2200 2111 2137 2196 2142 2144 2235 2149 2127 2004 2214 2263 2049 2062 2165 2206 2134 2083 2126 2095 2060 2105 2196 2066 2068 2175 2133 2191 2111 2104 2172 2099 2154 2173 2260 2176 2241 2160 2124 2112 2184 2210 2181 2175 2127 2117 2101 2161 2235 2155 2200 2133 2243 2147 2233 2229 2218 2237 2165 2175 2181 2292 2163 2235 2180 2217 2251 2240 2153 2206 2217 2179 2151 2217 2182 2223 2182 2187 2253 2129 2209 2216 2180 2111 2148 2067 2072 2073 2082 2109 2145 2132 2184 2141 2113 2214 2243 2146 2266 2189 2127 2191 2128 2236 2156 2244 2260 2254 2193 2210 2261 2271 2291 2267 2269 2275 2293 2394 2368 2364 2418 2341 2399 2440 2346 2417 2355 2457 2360 2281 2392 2386 2284 2272 2308 2333 2300 2300 2242 2337 2165 2167 2218 2198 2112 2193 2145 2232 2148 2199 2121 2118 2058 2139 2173 2177 2092 2130 2015 2056 2010 2097 2145 2129 2121 2081 2176 2063 2140 2080 2102 2033 2043 2010 2071 2093 2045 1988 2070 2026 2023 2060 2088 2044 2105 2103 2088 1966 2063 2090 2099 2073 2069 2128 2051 2048 2050 2058 2136 2015 2143 2045 2070 2108 2054 2074 2030 2006 2027 2081 2098 2042 2034 2001 2076 1992 2103 2054 2138 2080 2113 2081 2048 2102 2035 2085 2041 2016 2050 2063 2013 2094 2010 2072 2051 2160 2113 2040 1930 2115 2063 2089 2028 2075 2111 2049 2084 2110 2038 2001 2009 2081 2101 2160 2065 2015 2092 2084 2122 2174 1998 2061 2038 2053 2117 2076 2028 2059 2079 2050 2033 2006 2045 1995 2010 1979 2050 2043 2041 2068 2025 2020 2103 2083 2080 2051 2056 2080 2011 2021 2108 2010 2042 2104 2091 2051 2012 2071 2047 2130 1995 2119 2118 2182 2127 2084 2113 2018 2027 2097 2022 2078 2148 2107 2100 2092 2076 2052 2174 2057 2150 2054 2049 2010 2061 2077 2096 2041 2095 2077 1965 2024 2116 2051 1990 2060 2118 2145 2077 2085 2065 1989 2006 2085 2017 2121 2039 2034 2040 2087 2099 1982 2055 2167 2002 2117 2058 2003 2050 2027 2113 2075 2107 2152 2017 2025 2093 2070 2101 1990 2093 2171 2042 2042 2038 2015 2008 2083 2048 2096 2070 2044 2022 2063 2006 2090 1904 1990 2019 2084 2028 2068 2104 2124 2068 2051 2053 2020 1992 1922 2024 2069 2039 2054 2006 2021 2125 2051 2049 2126 2016 2044 2078 2089 2089 2106 2067 2135 2071 2062 2080 2062 2061 2133 2113 2095 2026 2119 2031 1982 2031 2047 2068 2151 2055 1954 2063 2080 2046 2016 2106 2057 2055 2127 2116 1926 2149 2048 2114 2056 2061 2044 2102 2082 2151 2085 2174 2035 2060 2020 2031 2050 2016 2118 2106 2000 2045 2088 2095 2045 2085 2072 2042 2113 2183 2010 2064 2057 2159 2087 2091 2039 2181 2100 2054 2022 2087 2054 2175 2139 2159 2098 2120 2117 2125 2130 2109 2138 2161 2189 2122 2202 2156 2123 2174 2097 2146 2252 2146 2179 2128 2204 2167 2317 2124 2178 2168 2213 2167 2259 2224 2183 2182 2267 2211 2330 2255 2225 2209 2320 2209 2268 2258 2299 2332 2286 2234 2271 2168 2237 2285 2256 2252 2233 2173 2244 2172 2224 2249 2248 2178 2249 2188 2284 2159 2273 2249 2299 2191 2326 2245 2236 2250 2268 2275 2261 2289 2348 2282 2203 2328 2235 2220 2240 2299 2212 2317 2335 2215 2276 2249 2310 2250 2190 2293 2340 2366 2207 2315 2303 2409 2255 2371 2314 2321 2330 2274 2254 2327 2252 2305 2181 2292 2211 2273 2176 2208 2291 2224 2278 2241 2236 2165 2237 2185 2154 2177 2174 2234 2167 2066 2267 2167 2195 2206 2214 2209 2180 2081 2189 2173 2166 2197 2144 2071 2158 2160 2177 2200 2206 2120 2171 2150 2087 2158 2180 2160 2082 2096 2089 2055 2060 2069 2108 2079 2076 2100 2093 2071 2075 2186 2170 2101 2076 2060 2009 2155 2084 2081 2051 2045 2032 2048 2049 2101 2041 2075 2010 2055 2084 2067 2060 2072 2091 2069 2091 2139 2059 2017 2040 2102 2143 2072 2070 2069 2042 2102 2002 2064 2138 2082 2021 2077 2078 2117 2082 2054 2036 2041 2066 2108 2043 2107 2095 2152 2116 2078 2146 2006 2056 2075 1952 2063 2088 2050 2071 2087 2110 2101 2039 2081 2053 2057 2044 2093 2132 2082 2035 2070 2136 2084 2106 2096 2022 2136 2103 2056 2049 2113 2013 2016 2201 2038 2090 2080 2076 2169 1992 2083 2128 2125 2076 2050 2102 2151 2077 2072 2121 2149 2161 2157 2152 2149 2170 2153 2110 2093 2245 2149 2235 2240 2196 2262 2148 2187 2206 2249 2181 2242 2222 2253 2199 2251 2242 2219 2300 2140 2226 2285 2292 2334 2294 2282 2247 2205 2284 2272 2351 2210 2301 2233 2330 2335 2368 2283 2302 2344 2220 2195 2289 2186 2308 2183 2264 2205 2130 2338 2210 2291 2262 2150 2226 2161 2233 2217 2325 2230 2368 2350 2287 2305 2319 2319 2400 2288 2422 2364 2384 2411 2412 2461 2470 2422 2552 2558 2559 2579 2472 2617 2665 2705 2639 2714 2699 2732 2754 2672 2682 2614 2628 2540 2604 2461 2496 2568 2428 2407 2422 2395 2386 2408 2476 2361 2427 2301 2222 2234 2300 2236 2244 2154 2256 2207 2177 2110 2198 2109 2141 2209 2149 2086 2155 2133 2123 2128 2179 2097 2127 2101 2137 1982 2087 2135 2041 2080 2080 2074 1992 2064 2029 2095 2010 2093 2094 2012 2000 2092 2078 2118 2093 2066 2045 2065 1984 2104 2116 2039 1999 2027 2044 2084 2153 2057 2067 2128 2105 2150 2106 1978 2155 2046 2112 2097 2080 2053 2040 2069 2063 2134 1997 2087 2134 2063 2122 2012 2049 2008 2162 2093 2092 2084 2008 2084 2017 2131 2061 2069 2005 2085 2119 2116 2086 2095 2085 2156 2170 2142 2127 2171 2167 2098 2121 2174 2219 2175 2105 2074 2148 2151 2189 2157 2117 2176 2086 2147 2115 2159 2138 2144 2138 2068 2118 2166 2190 2097 1999 2194 2156 2140 2182 2094 2153 2144 2114 2144 2098 2085 2175 2145 2079 2119 2098 2125 2147 2077 2098 2122 2144 2134 2221 2145 2175 2181 2125 2119 2186 2053 2174 2113 2215 2195 2095 2075 2046 2170 2113 2057 2087 2075 2031 2117 2075 2034 2178 2173 2085 2130 2081 2177 2048 2049 2163 2112 2076 2132 2089 2079 2114 2058 2150 2113 2109 2131 2005 2112 2171 2078 2069 2122 2058 2077 2148 2090 2126 2079 1987 2097 2059 2086 2037 2046 2109 2018 2011 2060 2042 2078 2124 2040 2126 2053 2027 1966 2137 2091 2109 2070 1925 1998 2092 2050 2116 2094 2097 2063 2054 2106 2034 2088 2064 2032 2086 2037 2108 1995 2019 1985 2006 2016 2034 2077 2075 1968 1992 2052 2009 1981 2076 1995 2038 2142 2007 2030 1975 2086 2061 2029 2029 2041 2009 2103 2074 2045 1973 2042 2007 2013 2058 1965 2066 2070 2053 2036 2025 2036 2046 2024 2012 1954 2107 2023 2056 2033 2118 1969 2039 2055 1961 2012 2015 2065 2024 2000 2021 2020 2045 2033 1992 2016 2028 2153 2011 2002 2078 1962 2088 1995 2086 1987 2048 2012 2070 2010 2093 2102 2110 2110 2037 2097 2000 2031 2051 1994 2075 2050 2045 2019 2052 2044 2075 2121 2097 2082 1928 2082 2055 2057 2032 1980 2019 2006 2024 2019 2100 2026 2050 1963 2065 2011 2073 1993 2057 2011 2010 2060 1979 2051 1986 2081 1927 2015 2041 2057 2001 1970 2006 1981 2014 2055 1989 2016 2023 2042 2019 2001 2030 2014 2008 1909 2082 2018 2018 1938 1995 2010 2029 2078 2024 1973 1996 2043 1949 1952 1990 1964 2017 1988 2029 2016 1925 1988 1993 2044 1976 2044 2016 1930 1975 2035 2100 2084 1971 2008 1971 2015 1974 2070 2017 2074 1997 2108 1960 2046 2075 2029 2057 1976 2078 2039 2064 2007 2074 2163 2000 1909 2060 1960 1997 2034 1960 2009 1984 1992 2071 1968 1941 1926 2036 2009 2001 2039 2071 2006 2003 2000 2041 2076 2038 1996 2015 1938 2028 2047 2008 1997 2047 1992 2010 2015 2085 2015 2024 2008 2006 2071 2045 1973 2074 2018 2148 2047 2005 2048 2036 1952 2006 2031 2107 2040 2053 2040 2066 1966 2010 1997 2067 2009 2012 1967 2105 1948 2056 2045 2025 2075 1979 2067 1989 2048 2024 1989 2067 2061 2078 1976 1972 2035 1959 2013 2033 1994 2057 2105 2100 1963 2022 2010 1999 2033 1958 2031 2027 2014 1960 2093 2017 1968 1999 2077 2024 2019 2038 2031 2026 2033 2071 1956 1964 1994 1995 2012 1977 2026 2017 2033 2070 2048 1992 2075 2011 2064 2056 2134 2090 2073 1987 2016 1983 2005 2025 2049 2091 2046 2074 1958 2051 2052 2025 2013 2101 2082 2063 1985 1980 2006 2036 2084 1988 2077 2042 1992 1989 2016 2022 2059 2055 1965 2027 2028 1979 1992 2062 2035 1993 2044 1958 1971 1988 2002 2059 2050 1934 2039 2018 2028 2013 2059 2032 2039 1993 1970 2071 2048 2003 2053 1998 1993 2015 2073 1923 2041 2053 2019 2048 2066 2124 1991 2077 2028 2144 1913 2100 2069 2031 2046 2069 2027 2067 2085 2091 1976 1988 2023 1944 2017 1954 2074 2091 2054 2038 2057 2025 2049 2061 2025 1966 1978 1999 2048 2054 2101 2116 2040 2037 2006 2058 2041 2109 1999 2060 2023 2005 2028 2063 2003 2032 2032 2042 2025 2010 2026 2033 2077 2110 1991 2094 2014 2052 2031 1996 2124 2028 2052 2049 2021 2039 1989 2065 2083 2030 1988 2034 1974 2093 1978 2021 1957 2020 2045 2002 2000 2008 2007 2032 2015 2034 2011 2009 1995 2020 2083 1999 2013 1990 2025 2000 1991 2035 2001 2006 2011 1985 1986 1950 1956 1948 2015 1944 2060 1991 2008 2041 1993 2031 1978 1918 1977 2020 1996 1985 1968 2061 1940 2066 2031 1949 1990 1995 1937 2023 1982 2040 2061 2000 1925 1948 2087 1999 1901 1952 2003 2014 2013 2013 1965 2057 2059 2001 1974 2072 1997 1944 2112 2060 2018 2002 2038 2060 2007 2088 2069 1984 2083 2043 2001 1948 2035 2037 2073 2005 2057 1999 2061 2098 1929 2053 2064 1974 1993 2018 2125 2053 2006 2070 2064 1947 2065 1973 2024 1927 1962 2073 2112 1957 2066 2041 2034 1983 2073 2081 2096 2105 2075 2086 2045 2044 2038 2080 2016 2026 2062 2106 2029 2035 2035 1987 2108 2097 2076 1984 2020 2020 2017 2073 1926 2089 2046 2070 2024 2073 2024 2101 2014 2035 1982 1975 2039 2083 2065 2027 2142 2019 2014 2040 2034 2069 2046 2077 2049 2022 2172 2060 2068 2058 1996 2007 2020 2091 2188 2116 2116 2085 2054 2082 2092 2050 2053 1999 2031 2063 2061 2078 2092 2110 2144 2125 2130 2063 2078 2094 2061 2066 2082 2061 2084 2101 2101 2164 2122 2175 2064 2033 2109 2188 2066 2047 2052 2094 2071 2049 2143 2126 2027 2131 2062 2018 2111 2058 2026 2163 2020 2147 2112 2129 2098 2137 2087 2133 2040 2129 2065 2080 2204 2042 2075 2032 2094 2073 2176 2118 2065 2088 2053 2038 2135 2097 2131 2236 2176 2055 2120 2141 2139 2140 2113 2043 2093 2169 2125 2067 2088 2026 2104 2253 2096 2101 2115 2058 2075 2132 2040 2090 2001 2034 2056 2118 2072 2085 2080 2024 2063 2035 2028 2003 2091 2141 2041 2094 2058 2098 1988 2063 2102 2074 2083 2138 2167 2119 2123 2043 2159 2038 2100 2110 2035 2154 2031 2022 2146 2031 2007 2019 2185 2081 2121 2090 2060 2017 1996 2093 2075 2054 2022 2089 2019 2119 1992 2090 2004 2130 2080 2025 1948 2016 2101 2083 1895 2033 1993 1979 1931 1913 1965 1983 2024 2004 2031 2062 2026 2060 2027 1998 2023 1988 2030 2031 2144 2046 2069 2047 1973 2081 2059 2052 1953 2020 1995 2021 2008 2090 2061 2032 1985 2012 2014 2008 1954 1988 2087 1916 2036 1952 1940 1972 2011 1962 2017 2030 2042 2002 2034 1882 2067 2066 1998 2098 1997 2024 1957 2037 2086 2029 2101 2064 2056 2002 2029 2046 1953 2015 2055 1966 1891 1994 2104 2077 1987 2024 2110 1976 2019 1995 1974 1997 2053 1994 1994 2000 1990 2027 2028 2047 1994 2026 2029 2082 2036 2074 2074 1941 2018 2013 1937 2014 2023 2034 1925 2033 1938 1949 1989 1996 2052 1956 2007 2028 2035 2147 1956 2045 2082 2011 2064 2096 2038 1974 2022 2045 1988 2007 2079 2017 2026 2016 2028 2035 2040 1965 2047 2047 2048 1992 1998 2049 1980 2070 1989 2024 2009 2002 2063 1995 2089 2060 2042 2045 2031 1990 1981 2016 1990 1944 2033 2041 2001 1962 2035 2028 2010 2019 2092 1983 2028 2092 2055 2065 2066 2037 2002 2069 1943 2028 1987 2111 2059 2086 2077 2072 1994 1947 2102 2088 2023 1998 2009 2049 2107 2042 1986 2028 2021 2040 2112 2009 2008 2018 2041 1945 2048 1989 2081 2043 1999 2044 2007 1987 2096 2037 2026 1967 2016 2049 2072 1932 2142 2048 2017 1989 2021 2047 2031 2065 2051 1997 2048 2080 2040 2020 1918 1961 1974 2063 2040 2016 1915 1979 1993 2084 1992 2039 2022 2086 2063 2023 2058 1999 1996 2066 2068 2048 2044 2020 2045 1969 2080 2058 1999 1979 2016 2010 2090 1949 2023 2069 1964 2002 2058 1973 2040 2006 2014 1923 1944 2004 1952 1908 2011 2015 2012 1998 2007 2018 1960 2069 2046 2075 1988 1944 2014 2013 1960 1992 2045 1967 2000 1968 1994 2093 2056 1995 1957 2125 1992 1988 2025 2013 1998 2066 2010 2080 2036 1905 1969 1970 2003 2021 2020 2010 2028 2011 1999 1993 2055 1981 1977 2053 2049 1981 2010 1939 2056 2076 2045 2090 1983 2098 2037 1993 2018 2020 2007 1963 2082 1948 2115 1995 1956 1963 2007 2023 2038 2000 2109 2077 2005 2011 2057 1968 2045 2088 2004 2013 1983 1958 2037 2038 1999 2141 2006 2014 2018 1981 2018 2020 2072 1987 2116 2066 1966 1925 1989 2010 2050 2027 2039 2023 2032 2003 1944 2028 2055 1948 2057 2041 2036 1987 2053 2038 2027 2027 1986 2028 1922 2030 2077 2090 2000 1978 2030 1994 2007 2026 2047 1991 1948 2084 2028 1965 2050 1915 2112 1989 2003 2007 2121 2029 1997 1927 2061 2009 2026 1987 2084 2052 2003 1998 1954 1969 2034 1955 2077 1936 2033 1943 1954 2035 1988 2061 2063 2076 2050 2061 2056 2029 2077 2026 2033 1985 1982 2016 1997 1978 2041 1995 2059 2000 2019 2124 1964 2048 1990 1954 2015 2029 2064 1998 2092 2000 2010 2007 2052 2061 2056 2051 2089 2037 2032 1994 2045 2029 2028 1995 2081 2015 2001 1999 2017 2099 2010 2041 2005 2022 2095 2110 2094 2039 2059 2042 1983 2081 2022 2058 2156 2065 2045 2084 1965 2011 2042 2044 2014 2057 2136 2139 2002 2129 2020 2018 2110 2077 2074 2034 2084 2091 2013 2054 2067 2089 2111 2117 2124 2046 2055 2109 2042 2058 2064 2069 2119 1962 2084 2106 2082 2059 2034 2066 2038 2080 2144 2116 2034 2069 2063 2073 2016 2187 2049 2061 2065 2060 2176 2105 2118 2199 2179 2125 2126 2081 2168 2160 2116 2104 2125 2103 2110 2020 2043 2135 2149 2101 2098 2113 2105 2106 2135 2072 2071 2038 2116 2040 2116 2210 2141 2040 2088 2074 2096 2105 2169 2100 2097 2079 2131 2001 2109 2130 2184 2084 2151 2075 2118 2081 2118 2139 2086 2002 2129 2087 2141 2114 2054 2132 2193 2052 2115 2080 2027 2150 2079 2049 2117 2086 2055 2007 2102 2026 2083 2071 2108 2082 2072 2057 2066 2088 2088 2147 2116 2042 2085 2046 2022 1964 2030 2102 2093 2085 1983 2044 2048 2034 2125 2080 2017 2004 2107 2020 2097 2000 2062 1983 2130 2084 1969 2123 2000 2030 2075 2057 1955 2087 2000 2073 2003 2003 2023 2071 1993 2097 2039 2004 2071 2123 2172 2049 2078 1959 2057 2093 2096 2063 1970 2042 2047 2056 1991 2051 2043 2056 1975 2057 1995 2082 2051 2055 2136 2088 2053 2050 2048 2173 2114 2139 2054 2108 2019 2076 2114 2109 2181 2178 2108 2083 2116 2121 2188 2153 2171 2120 2128 2031 2245 2139 2081 2077 2002 2063 2070 2132 2205 2084 2127 2054 2128 2153 2182 2201 2119 2138 2149 2223 2135 2233 2095 2150 2137 2148 2217 2257 2162 2148 2171 2191 2119 2227 2230 2185 2195 2251 2204 2209 2177 2281 2233 2191 2180 2143 2253 2196 2169 2156 2174 2267 2139 2133 2232 2170 2174 2176 2152 2210 2198 2283 2169 2210 2290 2234 2153 2298 2164 2189 2288 2275 2240 2199 2239 2181 2225 2324 2201 2264 2221 2299 2259 2293 2221 2229 2258 2268 2150 2181 2102 2183 2164 2097 2185 2343 2161 2274 2215 2216 2211 2116 2199 2222 2210 2195 2245 2234 2190 2259 2271 2154 2191 2195 2226 2180 2248 2103 2240 2171 2188 2138 2211 2243 2246 2177 2200 2265 2190 2167 2241 2211 2209 2175 2308 2237 2227 2219 2152 2205 2143 2145 2230 2216 2133 2177 2158 2158 2200 2147 2132 2166 2136 2235 2175 2151 2180 2192 2142 2090 2103 2089 2110 2195 2105 2081 2151 2186 2166 2213 2155 2200 2163 2154 2129 2113 2110 2108 2161 2109 2122 2078 2118 2112 2178 2083 1991 2148 2131 2116 2125 2102 2137 2147 2124 2146 2129 2118 2137 2123 2099 2169 2053 2116 2088 2176 2035 2094 2085 2056 2104 2031 2019 2103 2146 2039 2152 2042 2120 2044 2082 2133 2107 2073 2090 2097 2068 2032 2090 2075 2107 2004 2044 2078 2072 2102 2031 2043 2173 2142 2137 2052 1987 2002 2079 2057 1982 2008 2059 2083 2088 2101 2080 2111 2054 1986 2080 2174 2031 2073 2000 2120 2134 2116 2073 2012 2039 2004 2075 2028 2002 2074 2066 2111 2055 2060 2101 1985 2074 2074 2098 2047 2066 2039 2100 2018 2019 2067 2013 2081 2106 2063 2095 2147 2069 2067 2080 2061 2023 2078 2065 2110 2157 2128 2111 2062 2123 2135 2034 2118 2035 2076 2095 2029 2169 2040 2129 2121 2155 2141 2095 2207 2085 2120 2087 2166 2142 2138 2079 2185 2242 2140 2087 2157 2104 2150 2151 2218 2125 2039 2162 2067 2051 2113 2103 2139 2152 2103 2108 2106 2120 2120 2072 2110 2116 2211 2087 2165 2084 2019 2139 2120 2070 2099 2099 2118 2115 2060 2067 2031 2135 2076 2117 2007 2068 2007 2062 2108 2110 2066 2047 2088 2043 2100 2129 2122 2047 2011 2079 2083 2013 2056 2086 2151 2108 2188 2035 2092 2173 2007 2106 2054 2121 2058 2151 2022 2095 2130 2042 2105 2070 2104 2067 2091 2063 2045 2034 2064 2053 2161 2150 2083 2060 2187 2074 2096 2033 2090 2074 2010 2213 2040 2123 2177 2047 2080 2092 2118 2125 2200 2091 2117 2141 2133 2164 2138 2146 2107 2067 2096 2122 2082 2087 2121 2107 2198 2058 2100 2155 1993 2151 1988 2157 2075 2073 2040 2068 2021 2095 1974 2060 2060 2083 2071 2013 2068 2046 2032 2022 2131 2034 2019 2111 2006 2011 2005 2019 2041 2090 1975 1999 2096 2013 1995 2020 2073 2034 1988 2052 2059 1964 2109 2067 2045 2048 2066 1991 2015 2091 2072 2127 2066 2053 2084 2093 2082 2056 2047 2067 2056 2016 2072 2061 2069 2021 1985 1991 2024 2039 2043 2063 2010 2049 2061 2041 2038 2073 2110 2086 2015 2148 2093 2058 1952 2039 1995 2064 2053 2078 1971 1975 2017 2109 1950 2087 2005 2098 2079 2012 2107 2019 2046 2074 2055 2037 1999 1941 2039 2042 2019 1989 1993 2009 1980 2084 2035 2059 1915 1968 2114 2149 2032 2076 2007 2073 2046 2013 2060 2044 2028 2025 2035 2027 2051 2052 1982 2037 2063 2046 2035 1974 2081 2010 2035 1997 2067 2079 2067 2075 1955 2095 2108 2018 1985 2063 1999 2065 2055 1995 2092 2071 1965 1979 2010 2056 1972 2020 2013 2052 2004 1959 1971 2022 1938 2052 2120 2118 2066 2008 2016 2040 1994 2042 2041 1970 1963 2032 2071 2137 1977 2074 1972 2093 2058 2065 2096 1948 2008 1987 2036 2118 2010 2076 2014 2004 2053 2129 2044 2019 1997 2059 2024 2101 1995 2097 2056 1965 2022 1968 2096 2050 2095 2021 2008 2108 2018 2015 2045 1950 2023 2106 2122 2018 1966 2048 2081 2105 2047 2025 2038 1968 2102 2139 2049 1995 1978 2028 1979 2054 2016 2052 1961 2134 2051 1981 2046 2058 2098 2040 2030 2031 2017 2029 2101 2014 2036 2105 2037 2029 2030 1988 2072 2087 2007 2136 2034 2005 1970 2061 2067 2091 2115 2079 2036 1988 2018 2066 2069 2072 2019 2043 2047 2081 2056 1969 2059 2057 1945 1961 2024 2029 2049 2052 2082 2007 2021 2050 2030 2080 1991 2073 2045 2023 2030 2166 2097 1978 1968 2085 1939 2068 2030 2011 2015 2090 2047 2034 2027 2067 1976 2075 2028 2115 2013 1965 2058 2040 2111 2008 2062 1992 2016 1989 2079 2022 2037 2052 2017 1982 2117 2165 1983 2059 2104 2085 2025 2080 2075 2062 2010 2101 2038 2042 2093 2051 1926 2045 2005 2041 2035 2050 2063 1999 2009 2019 2159 2016 2129 2076 2080 2099 2013 2060 1941 2022 2053 2067 2013 2074 2063 2057 2016 2045 2050 2065 2032 2072 2071 2013 2084 2025 2068 2048 2103 2048 2002 2088 2052 2093 1998 2048 1954 2047 2042 2075 2023 2013 2053 2044 2040 2057 2093 2032 2032 2075 2091 2026 2070 2065 2114 1989 2064 2022 2101 2120 2051 2052 2026 2088 2091 2163 2096 2014 2079 2055 2057 2051 2025 2071 2113 2040 2023 2112 2060 2020 2140 2111 2121 2037 2128 2061 2091 2073 2129 2064 2103 2111 2081 2049 2101 2025 2116 2147 2064 2028 2042 2047 2101 2130 2052 2268 2073 2172 2178 2178 2040 2021 2079 2116 2139 2120 2166 2102 2160 2142 2113 2086 2021 2125 2211 2188 2095 2098 2191 2088 2095 2137 2122 2135 2051 2131 2095 2101 2029 2068 2087 2138 2130 2101 2111 2141 2143 2155 2082 2084 2067 2076 2095 2067 2062 2081 2100 2103 2058 2067 2152 2093 2115 2114 2114 2121 2110 2091 2048 2090 2088 2054 2083 2089 2058 2102 2133 2141 2168 2131 2142 2092 2134 2115 2063 2134 2080 2125 2170 2120 2148 2070 2131 2110 2119 2087 2128 2104 2089 2081 2140 2175 2157 2069 2192 2165 2124 2000 2090 2203 2133 2116 2193 2108 2116 2137 2109 2144 2157 2153 2118 2195 2184 2136 2150 2205 2227 2127 2193 2115 2029 2164 2122 2216 2106 2155 2133 2084 2102 2175 2178 2144 2109 2087 2162 2095 2162 2172 2158 2143 2100 2165 2275 2048 2231 2209 2147 2117 2081 2134 2108 2121 2084 2079 2171 2116 2177 2193 2151 2122 2169 2132 2149 2215 2165 2076 2245 2137 2129 2109 2106 2088 2118 2104 2142 2106 2026 2061 2163 2158 2126 2054 2103 2128 2106 2092 2074 2031 2000 2093 2035 2123 2168 2039 2130 2119 2145 2061 2148 2195 1987 2087 2059 2070 2076 2054 2094 2027 2056 2146 2175 2121 1986 1998 2083 2059 2093 2011 2035 2004 2084 2158 2043 2049 2107 2040 2032 1986 2047 2066 2074 2089 1967 2024 2056 2119 2043 2167 2056 1946 2061 2022 2045 1989 2011 2035 2089 2018 2075 1969 2038 2074 2098 2059 2066 2097 1953 2032 2031 2120 2049 2097 2053 2049 2096 2065 2049 2064 2058 2057 2004 2075 2025 2104 2119 1953 2055 2014 2005 2125 2019 2091 2044 2108 2067 2081 2044 1942 2090 2024 2042 2094 2024 2084 1958 2061 2047 2110 2128 2110 2032 2050 1929 2081 2016 2008 2070 2077 2108 2039 1965 2045 2072 1995 2067 2052 2029 2051 2128 2105 2151 2063 2058 2044 1996 2014 2103 2109 2090 2084 2069 2068 2076 2107 2038 1972 2085 2152 2031 2050 2021 2076 2054 2066 2102 2071 2044 2115 2006 2132 2060 1981 2147 2040 2049 2145 2133 2071 2085 2096 2140 2096 2123 2092 2069 2008 2004 2086 2075 2051 2050 2101 2056 2073 2063 2060 2011 2118 2093 2141 2013 1980 2052 2044 2113 2117 2148 2122 2080 1987 1973 2057 2051 2053 2058 2184 2043 2055 2130 2011 2041 2038 2061 2025 2040 2110 1982 1973 2071 2048 2184 2048 2035 2061 2056 2051 1992 2074 2040 2051 2014 2077 2086 2059 1973 2061 2019 2028 2023 2013 2090 2065 2019 2065 2107 2063 1980 1983 2010 2035 1970 1977 1968 2048 1993 2114 2043 1994 2005 2168 2126 2060 1984 2046 2107 2045 2013 2026 2004 2052 2035 2090 2012 2033 2085 2002 2015 2000 2043 2049 1957 2066 1992 2086 1975 1964 2026 2035 2042 1992 1974 1973 2120 2005 2029 1999 2024 2008 1988 1985 2053 2120 2069 2065 2045 2079 2058 2068 2048 1960 2076 2060 1985 2056 2043 2082 1976 2059 2009 2079 2035 2051 2034 2034 2075 2036 2127 2040 1981 2118 2120 2072 2046 2039 1960 2022 2028 2022 1947 2024 2097 2033 2118 2067 2013 2027 1998 2050 2053 2026 2029 2140 2046 2008 2102 2102 1994 2153 2076 2053 2072 1977 2071 2094 2138 2039 2067 2040 2078 2100 2026 2107 2128 2107 2013 2055 2042 2025 2036 2047 2015 2088 2127 2111 2030 2036 2185 1991 2024 2051 2004 2122 1981 1952 2035 1990 2008 2054 2029 2102 1957 2005 1975 2007 2053 1935 2118 1987 2002 2045 2009 2016 2063 2048 2005 2006 2028 2102 1980 2047 2115 2018 2060 2069 2052 2002 2090</counts>
			</dataPoints>
		</scan>
	</xrdMeasurement>
</xrdMeasurements>
