<?xml version="1.0"?>
<xrdMeasurements xmlns="http://www.xrdml.com/XRDMeasurement/2.3" xmlns:xsi="http://www.w3.org/2001/XMLSchema-instance" xsi:schemaLocation="http://www.xrdml.com/XRDMeasurement/2.3 http://www.xrdml.com/XRDMeasurement/2.3/XRDMeasurement.xsd" status="Completed" recordIdentifier="{D41BC91A-B8C0-41A0-A36C-61722B3B23CE}">
	<comment>
		<entry/>
	</comment>
	<sample type="To be analyzed">
		<id>GPSS_Li1p8Cr0p6Fe0p2Y0p2Cl4_102025_68f7253b028f64128e25d08f</id>
		<name></name>
		<preparedBy></preparedBy>
	</sample>
	<xrdMeasurement measurementType="Scan" status="Completed" sampleMode="Reflection">
		<usedWavelength intended="K-Alpha 1">
			<kAlpha1 unit="Angstrom">1.5405980</kAlpha1>
			<kAlpha2 unit="Angstrom">1.5444260</kAlpha2>
			<kBeta unit="Angstrom">1.3922500</kBeta>
			<ratioKAlpha2KAlpha1>0.5000</ratioKAlpha2KAlpha1>
		</usedWavelength>
		<incidentBeamPath>
			<radius unit="mm">145.00</radius>
			<xRayTube id="1010048" name="Empyrean Cu LFF HR (9430 033 7310x)">
				<tension unit="kV">40.0</tension>
				<current unit="mA">15.0</current>
				<anodeMaterial>Cu</anodeMaterial>
				<focus type="Line">
					<length unit="mm">12.0</length>
					<width unit="mm">0.4</width>
					<takeOffAngle unit="deg">6.0</takeOffAngle>
				</focus>
			</xRayTube>
			<sollerSlit id="21010002" name="Soller slits 0.04 rad.">
				<opening unit="rad">0.0400</opening>
			</sollerSlit>
			<mask id="22031000" name="Fixed mask 13 mm">
				<width unit="mm">9.00</width>
			</mask>
			<divergenceSlit id="22120001" name="Divergence slit 1°" xsi:type="fixedDivergenceSlitType">
				<distanceToSample unit="mm">50.00</distanceToSample>
				<height unit="mm">1.52</height>
			</divergenceSlit>
		</incidentBeamPath>
		<sampleMovement xsi:type="spinningSampleMovementType">
			<spinnerRevolutionTime unit="seconds">1.0</spinnerRevolutionTime>
		</sampleMovement>
		<diffractedBeamPath>
			<radius unit="mm">145.00</radius>
			<antiScatterSlit id="22090040" name="AS slit 9 mm (PIXcel)" xsi:type="fixedAntiScatterSlitType">
				<height unit="mm">9.00</height>
			</antiScatterSlit>
			<sollerSlit id="21020003" name="Large Soller slits 0.04 rad.">
				<opening unit="rad">0.0400</opening>
			</sollerSlit>
			<filter id="20030001" name="Large beta-filter Nickel">
				<material>Ni</material>
				<thickness unit="mm">0.020</thickness>
			</filter>
			<detector id="7010019" name="PIXcel1D-Medipix3 detector" xsi:type="rtmsDetectorType">
				<phd unit="keV">
					<lowerLevel>4.02</lowerLevel>
					<upperLevel>11.27</upperLevel>
				</phd>
				<mode>Scanning</mode>
				<activeLength unit="deg">5.542</activeLength>
			</detector>
		</diffractedBeamPath>
		<scan appendNumber="0" mode="Continuous" scanAxis="Gonio" status="Completed">
			<header>
				<startTimeStamp>2025-10-26T17:20:29-07:00</startTimeStamp>
				<endTimeStamp>2025-10-26T17:28:36-07:00</endTimeStamp>
				<author>
					<name>AutomatedUser</name>
				</author>
				<source>
					<applicationSoftware version="1.7b (136)">PANalytical Aeris Instrument Suite</applicationSoftware>
					<instrumentControlSoftware version="3.2.00000000 20240306">AERIS</instrumentControlSoftware>
					<instrumentID>950485</instrumentID>
				</source>
			</header>
			<dataPoints>
				<positions axis="2Theta" unit="deg">
					<startPosition>10.00943322</startPosition>
					<endPosition>99.99442286</endPosition>
				</positions>
				<positions axis="Omega" unit="deg">
					<startPosition>5.00471661</startPosition>
					<endPosition>49.99721143</endPosition>
				</positions>
				<commonCountingTime unit="seconds">12.495</commonCountingTime>
				<counts unit="counts">2814 2801 2850 2793 2800 2744 2890 2896 2871 2739 2762 2806 2888 2774 2734 2825 2755 2808 2862 2776 2686 2755 2802 2773 2760 2752 2813 2759 2837 2843 2741 2745 2741 2684 2849 2722 2799 2763 2824 2777 2730 2790 2807 2805 2833 2784 2817 2785 2721 2710 2708 2741 2811 2836 2685 2843 2792 2779 2815 2716 2728 2709 2770 2654 2681 2797 2769 2847 2762 2760 2724 2743 2729 2711 2706 2716 2803 2716 2713 2794 2741 2821 2790 2787 2808 2756 2820 2722 2760 2743 2767 2815 2687 2828 2825 2733 2846 2843 2845 2864 2812 2858 2809 2748 2723 2786 2777 2816 2750 2783 2756 2708 2797 2731 2688 2776 2752 2747 2740 2715 2696 2707 2783 2772 2682 2594 2825 2658 2826 2751 2647 2725 2681 2785 2641 2817 2756 2686 2733 2746 2765 2695 2775 2704 2684 2838 2692 2726 2805 2713 2744 2698 2676 2763 2675 2731 2816 2668 2718 2670 2815 2725 2716 2678 2707 2681 2666 2657 2659 2647 2753 2625 2753 2770 2714 2772 2843 2661 2688 2729 2621 2806 2691 2724 2785 2717 2658 2699 2819 2659 2725 2700 2674 2575 2587 2772 2712 2704 2660 2716 2695 2653 2729 2611 2714 2705 2722 2758 2630 2586 2692 2721 2642 2672 2748 2685 2633 2677 2765 2634 2747 2706 2740 2636 2677 2713 2609 2658 2691 2697 2682 2620 2735 2662 2687 2579 2665 2774 2707 2667 2687 2643 2689 2635 2778 2651 2733 2732 2745 2640 2735 2624 2615 2659 2629 2582 2654 2674 2770 2749 2631 2643 2643 2632 2615 2714 2616 2639 2669 2665 2717 2648 2672 2642 2755 2752 2694 2737 2778 2751 2633 2643 2710 2671 2775 2734 2745 2803 2637 2704 2752 2798 2741 2753 2744 2789 2796 2714 2813 2868 2837 2687 2811 2744 2784 2806 2824 2936 2862 2793 2820 2720 2838 2863 2704 2768 2891 2796 2968 2902 2880 2935 2842 2918 2855 2898 2860 2818 2872 2875 2890 3018 2860 2925 2970 2932 3026 2928 2938 2939 2982 2926 2911 2970 2898 3047 3026 2955 2971 2928 3094 2927 2926 3043 3097 3022 3152 2921 3081 2944 3039 3082 3055 3099 3037 3215 3055 3112 2959 3124 3214 3146 3222 3067 3202 3229 3219 3134 3091 3204 3244 3184 3115 3030 3148 3165 3245 3299 3244 3194 3195 3336 3191 3370 3320 3392 3375 3308 3273 3297 3394 3318 3413 3415 3391 3365 3381 3378 3545 3433 3573 3543 3578 3554 3662 3568 3664 3742 3718 3736 3824 3815 3916 3936 4041 4046 4084 4060 4099 4092 4279 4217 4221 4336 4305 4268 4398 4529 4515 4508 4586 4529 4633 4597 4505 4530 4530 4506 4569 4535 4405 4485 4539 4511 4537 4471 4472 4495 4400 4358 4366 4353 4371 4216 4233 4175 4150 4002 3978 4017 3921 3935 3759 3799 3919 3826 3731 3749 3754 3563 3758 3611 3586 3562 3593 3454 3456 3470 3367 3490 3476 3444 3418 3417 3482 3325 3279 3488 3306 3441 3312 3531 3277 3303 3245 3367 3250 3277 3234 3309 3099 3222 3171 3278 3281 3296 3229 3215 3177 3265 3262 3227 3139 3237 3237 3177 3218 3293 3250 3193 3209 3216 3192 3154 3200 3241 3149 3197 3172 3252 3095 3169 3185 3113 3165 3211 3127 3139 3167 3282 3162 3129 3080 3141 3135 3157 3069 3185 3212 3042 3139 3211 3130 3121 2984 2973 3141 3015 3016 3154 3085 3019 3035 3036 3111 2977 2944 3020 3046 3085 2891 2992 2985 3083 2977 3021 3075 3016 2911 3065 3039 2938 3099 2900 2986 3034 2955 2994 2905 2908 2954 2950 3046 2922 2954 3027 2939 2921 2988 2899 2932 2876 2910 2946 2927 2900 2925 2906 2935 3049 2930 2849 2846 2884 2991 3013 2965 2915 2900 3040 2847 2932 2917 2942 2870 2820 2928 2899 3034 2974 2896 2853 2819 2876 2845 2781 2934 2890 2822 2888 2878 2883 2874 2960 2879 2938 2958 2982 2910 2982 2881 2848 2928 2848 2903 2835 2894 2912 2914 2972 2951 3019 2971 2867 2999 3011 2908 2926 2918 2968 3064 2979 2960 2965 2907 3014 2974 2990 2935 2951 2943 2981 3041 2899 2974 2923 3018 2951 3024 2920 2942 2876 2957 2905 2862 2775 2891 2838 2869 2846 2838 2904 2832 2836 2822 2870 2818 2921 2806 2838 2758 2786 2765 2798 2792 2834 2777 2774 2774 2796 2817 2808 2818 2826 2750 2701 2723 2850 2617 2743 2766 2832 2846 2687 2810 2812 2735 2668 2796 2729 2767 2731 2743 2778 2721 2734 2740 2765 2639 2811 2725 2703 2718 2767 2703 2802 2716 2717 2668 2761 2727 2727 2744 2796 2703 2771 2690 2779 2662 2711 2683 2655 2790 2814 2719 2746 2722 2733 2675 2668 2728 2658 2707 2762 2715 2592 2729 2639 2795 2682 2696 2710 2736 2752 2750 2662 2625 2718 2677 2713 2645 2658 2691 2653 2606 2715 2640 2714 2695 2668 2636 2669 2573 2718 2642 2636 2803 2638 2736 2725 2723 2692 2706 2617 2724 2664 2700 2638 2645 2664 2685 2608 2618 2581 2609 2604 2569 2617 2673 2594 2692 2590 2550 2540 2607 2601 2523 2550 2536 2690 2653 2530 2696 2639 2704 2707 2566 2610 2573 2583 2604 2581 2687 2753 2572 2664 2532 2559 2579 2520 2538 2620 2616 2554 2586 2649 2631 2611 2707 2537 2566 2510 2593 2578 2500 2587 2515 2543 2476 2638 2550 2454 2517 2628 2538 2594 2605 2596 2540 2576 2553 2570 2552 2494 2544 2554 2508 2540 2523 2606 2591 2486 2624 2573 2563 2579 2644 2593 2583 2474 2522 2497 2572 2488 2555 2554 2546 2594 2566 2617 2565 2517 2537 2549 2526 2575 2589 2534 2597 2516 2583 2565 2537 2584 2567 2486 2491 2519 2531 2498 2486 2551 2553 2511 2574 2517 2496 2474 2480 2542 2426 2519 2497 2542 2428 2533 2524 2553 2504 2499 2383 2430 2507 2527 2511 2579 2462 2477 2492 2513 2585 2483 2537 2454 2438 2538 2427 2586 2543 2441 2484 2396 2507 2444 2454 2518 2488 2512 2444 2481 2415 2512 2519 2486 2493 2502 2490 2616 2481 2530 2481 2511 2533 2449 2500 2432 2460 2433 2540 2428 2550 2507 2424 2519 2494 2563 2490 2576 2389 2462 2471 2411 2435 2509 2507 2493 2567 2517 2497 2515 2470 2496 2511 2578 2424 2452 2434 2563 2427 2577 2449 2478 2468 2496 2583 2544 2512 2422 2498 2452 2470 2535 2605 2457 2509 2511 2498 2468 2407 2553 2458 2438 2462 2522 2554 2492 2536 2438 2492 2505 2450 2512 2394 2504 2503 2463 2467 2478 2468 2444 2547 2407 2424 2476 2435 2472 2520 2370 2490 2463 2515 2454 2548 2436 2497 2498 2408 2462 2581 2477 2514 2428 2478 2505 2492 2478 2541 2527 2354 2505 2508 2516 2418 2492 2329 2497 2349 2406 2424 2384 2555 2374 2461 2341 2428 2411 2400 2395 2502 2442 2456 2430 2369 2377 2388 2266 2381 2504 2479 2383 2305 2410 2373 2402 2382 2361 2314 2294 2355 2337 2332 2445 2325 2450 2352 2393 2359 2346 2283 2306 2354 2269 2360 2179 2361 2318 2305 2312 2232 2300 2304 2302 2343 2301 2301 2325 2427 2313 2215 2264 2323 2249 2259 2321 2312 2213 2221 2169 2290 2251 2203 2229 2247 2274 2163 2259 2309 2154 2182 2206 2184 2136 2195 2204 2211 2261 2192 2185 2248 2202 2080 2193 2184 2076 2266 2147 2072 2085 2127 2223 2202 2103 2129 2151 2215 2105 2137 2189 2179 2175 2183 2190 2148 2187 2074 2183 2163 2217 2035 2129 2100 2135 2228 2108 2143 2162 2182 2167 2137 2133 2145 2229 2158 2147 2165 2217 2132 2091 2066 2117 2164 2200 2111 2136 2129 2207 2078 2123 2077 2061 2137 2122 2159 2086 2193 2133 2160 2154 2137 2115 2065 2048 2211 2063 2094 2047 2007 2098 2093 2075 2002 2061 2099 2049 2060 1989 2143 2027 2032 2125 2035 2018 2089 2001 2086 2061 2013 2047 1978 2037 1951 1991 1927 1909 2052 2007 2100 2013 2046 2014 1934 1973 2005 1950 1932 1979 2005 1931 1926 1986 1965 2005 2039 1932 2051 1947 2011 1970 2002 2040 2033 1965 1974 1863 2058 1858 2019 2000 1987 2009 1963 1992 1878 1932 1890 1988 1843 2028 1982 1857 1921 1893 1954 1900 2016 1948 1943 1970 1946 1958 1961 1859 1900 1913 1982 1861 1972 1946 1991 1888 1904 1885 1905 1893 1874 1948 1885 1876 1917 1915 1906 1938 1852 1872 1927 1803 1906 1924 1820 1968 1821 1963 1889 1846 1935 1934 1946 1945 1869 1930 1839 1842 1898 1944 1878 1887 1871 1873 1896 2023 1942 1884 1886 1937 1909 1873 1830 1857 1894 1903 1878 1938 1886 1958 2006 1971 1923 1887 1956 1866 1895 1859 1949 1931 1898 1911 1975 1890 1874 1882 1923 1925 1926 1875 1990 1890 1921 1885 1974 1951 1854 1879 1919 1924 1870 1868 1914 1844 1877 1892 1925 1933 1926 1858 1808 1966 2005 1948 1912 1964 1965 1943 1878 1985 1877 1963 1930 1937 1959 1932 1964 1943 1932 1896 1902 1950 1960 1928 1950 1984 1911 2039 1901 2045 1944 1973 1928 1971 1908 1948 1884 1937 1948 1963 1842 1894 1821 1867 1868 1983 1890 1930 1942 1890 1939 1927 1849 1910 1858 1920 1933 1932 1880 1894 1900 1854 1899 1881 1902 1953 1919 1951 1879 1910 1947 1900 1831 1857 1832 1953 1851 1962 1981 1946 1889 1915 1981 2013 1873 1994 1952 1923 1945 1905 1955 1969 1973 1948 1946 1978 2037 1935 1988 1927 1955 1923 1858 1954 1940 1884 2000 2055 1895 1929 1987 1942 1986 2023 1938 1933 1927 1943 1884 1920 1955 1935 1986 1883 1925 1900 1911 1964 1909 2027 1885 1950 1978 1919 1863 1926 1930 1869 1956 1901 1936 1929 1862 1865 1944 1864 1809 1956 1972 1860 1940 1849 1862 1888 1895 1784 1886 1839 1854 1831 1895 1845 1823 1818 1829 1861 1826 1823 1862 1787 1815 1752 1827 1804 1821 1889 1888 1813 1873 1867 1831 1864 1761 1888 1811 1805 1864 1806 1831 1798 1808 1851 1810 1899 1784 1800 1794 1810 1860 1873 1852 1840 1862 1767 1826 1955 1837 1819 1811 1833 1846 1850 1854 1882 1748 1981 1928 1889 1903 1826 1910 1932 1866 1842 1836 1829 1867 1870 1871 1832 1944 1920 1878 1896 1885 1783 1820 1800 1857 1832 1857 1857 1853 1835 1882 1779 1794 1786 1775 1819 1777 1794 1771 1753 1767 1788 1713 1746 1761 1852 1672 1756 1684 1749 1821 1737 1723 1705 1624 1649 1641 1741 1738 1713 1766 1733 1722 1700 1785 1764 1792 1768 1795 1657 1862 1831 1907 1991 1883 1944 1964 2067 2005 2115 2106 2181 2208 2293 2375 2255 2305 2446 2517 2459 2605 2629 2636 2585 2637 2651 2766 2780 2808 2797 2786 2885 2795 2868 2879 2899 2840 2885 2870 2832 2740 2906 2808 2743 2804 2769 2750 2771 2670 2610 2613 2522 2495 2558 2435 2517 2336 2399 2231 2264 2215 2230 2204 2204 2045 2167 2010 2083 2049 2017 2011 1957 2004 1959 1825 1887 1821 1843 1844 1746 1727 1802 1774 1728 1772 1702 1759 1748 1649 1693 1617 1581 1635 1616 1583 1534 1611 1604 1636 1547 1529 1516 1656 1555 1524 1491 1464 1527 1432 1456 1450 1491 1470 1496 1423 1474 1481 1370 1398 1440 1415 1433 1402 1417 1446 1426 1412 1403 1423 1415 1375 1436 1352 1418 1370 1465 1316 1415 1380 1387 1321 1403 1399 1402 1393 1346 1412 1452 1426 1397 1363 1420 1451 1385 1362 1290 1478 1424 1373 1369 1370 1367 1418 1417 1338 1383 1327 1437 1407 1379 1400 1433 1378 1390 1370 1430 1471 1467 1355 1421 1364 1421 1405 1409 1440 1417 1404 1382 1441 1507 1459 1489 1452 1507 1556 1501 1427 1480 1485 1470 1436 1426 1455 1465 1476 1516 1446 1444 1495 1440 1422 1518 1409 1485 1474 1431 1423 1409 1378 1426 1396 1397 1451 1389 1389 1366 1377 1428 1382 1386 1444 1324 1387 1379 1353 1323 1335 1238 1385 1242 1364 1356 1371 1379 1276 1345 1283 1402 1324 1404 1386 1380 1347 1307 1371 1391 1316 1309 1420 1393 1321 1337 1379 1310 1332 1405 1409 1447 1364 1379 1330 1419 1420 1462 1461 1372 1454 1447 1435 1426 1479 1458 1430 1516 1512 1509 1557 1490 1514 1515 1497 1542 1542 1490 1513 1518 1584 1633 1620 1599 1663 1642 1656 1684 1620 1627 1619 1672 1569 1698 1642 1676 1691 1675 1735 1688 1691 1644 1646 1712 1682 1823 1751 1711 1661 1705 1690 1696 1701 1711 1740 1803 1787 1765 1736 1772 1680 1715 1729 1849 1791 1802 1749 1830 1787 1708 1805 1794 1712 1819 1863 1813 1854 1797 1795 1806 1823 1775 1771 1802 1788 1776 1778 1749 1771 1747 1743 1757 1845 1826 1843 1713 1755 1711 1801 1831 1809 1911 1761 1781 1807 1793 1795 1958 1829 1858 1823 1879 1748 1884 1887 1895 1833 1844 1954 1917 1865 1973 1937 1908 1917 1963 1914 1973 1865 1936 2014 1904 1975 1937 1926 1938 1946 1902 1914 1947 1837 1852 1943 1873 1878 1896 1898 1868 1941 1930 1912 1869 1870 1871 1846 1840 1930 1833 1819 1899 1843 1862 1797 1895 1864 1731 1876 1838 1808 1892 1726 1778 1873 1907 1851 1831 1929 1830 1922 1880 1866 1958 1921 1937 1958 2025 1836 1958 1912 1994 2005 2029 2011 1977 2000 2028 2022 1999 1994 2155 2077 2227 2105 2232 2109 2191 2204 2283 2171 2326 2312 2296 2296 2324 2413 2432 2427 2377 2467 2463 2583 2432 2410 2474 2645 2616 2575 2535 2671 2618 2492 2675 2659 2806 2687 2684 2731 2664 2734 2648 2804 2626 2646 2711 2622 2706 2624 2577 2639 2646 2579 2546 2599 2600 2552 2519 2561 2573 2560 2398 2580 2451 2460 2431 2414 2419 2451 2378 2304 2390 2265 2266 2307 2274 2164 2230 2224 2174 2223 2138 2129 2187 2186 2087 1993 2052 2041 2067 2082 1949 1917 1950 1884 1954 1859 1832 1808 1931 1762 1891 1852 1823 1805 1776 1802 1742 1757 1645 1667 1684 1656 1701 1583 1664 1617 1570 1552 1616 1519 1464 1515 1524 1602 1492 1504 1463 1435 1439 1452 1412 1379 1364 1423 1300 1378 1420 1374 1309 1261 1321 1260 1310 1353 1358 1374 1329 1232 1304 1309 1281 1219 1237 1220 1253 1270 1314 1357 1309 1286 1284 1248 1249 1356 1303 1241 1282 1314 1267 1315 1221 1259 1252 1208 1270 1258 1259 1299 1225 1237 1284 1245 1224 1195 1257 1187 1268 1163 1241 1268 1234 1201 1207 1152 1153 1147 1228 1204 1273 1196 1206 1242 1161 1211 1173 1129 1170 1231 1130 1239 1186 1203 1216 1190 1129 1220 1243 1258 1165 1148 1200 1170 1140 1192 1198 1199 1242 1179 1170 1159 1211 1241 1171 1175 1157 1219 1178 1259 1191 1226 1242 1224 1199 1158 1161 1209 1182 1197 1187 1267 1224 1184 1187 1215 1153 1263 1214 1220 1254 1259 1224 1220 1304 1216 1181 1187 1207 1221 1256 1241 1249 1240 1253 1216 1254 1202 1257 1290 1265 1204 1263 1285 1183 1289 1190 1309 1295 1198 1271 1227 1201 1231 1158 1153 1273 1184 1238 1159 1212 1142 1141 1206 1217 1181 1190 1197 1160 1143 1226 1201 1167 1189 1125 1122 1188 1159 1137 1179 1211 1100 1150 1128 1159 1077 1085 1116 1131 1120 1173 1149 1102 1137 1137 1122 1100 1121 1074 1031 1122 1116 1155 1133 1167 1082 1118 1148 1057 1080 1104 1080 1124 1012 1094 1031 1129 1039 1062 1104 1139 1114 1141 1086 1096 1068 1166 1129 1123 1081 1074 1127 1098 1061 1125 1061 1128 1095 1107 1190 1106 1119 1134 1057 1134 1110 1061 1095 1135 1112 1097 1088 1060 1153 1050 1134 1098 1111 1052 1108 1111 1105 1122 1058 1104 1067 1053 1069 1074 1086 1148 1102 1111 1086 1193 1113 1101 1063 1046 1059 1086 1105 1090 1028 1072 1134 1079 1060 1083 1134 1045 1049 1094 1087 1125 1082 1027 1096 1103 1108 1058 1060 1038 1009 1063 1041 1110 1044 1091 1028 1073 1068 1065 1095 1024 1105 1016 1061 1062 1059 997 1068 1103 1069 1086 1082 1029 1091 1111 1142 1120 1019 1143 1091 1103 1009 999 1055 1001 1014 1051 1035 1137 1051 1018 1075 1008 1100 1119 1042 1049 1142 1037 1073 1109 1077 1010 1083 1053 1043 1119 1082 1058 1036 1108 1057 1026 1015 1073 1035 1033 1050 1117 1055 1090 1092 1044 1070 1064 1083 1041 1101 1056 1077 1038 984 988 1049 1039 1039 1006 1003 1019 1069 1042 1044 1017 996 1039 1066 1062 989 1052 1020 1088 1068 1029 1085 1034 1051 1093 992 993 1031 1033 1024 1076 1089 1087 1030 1043 967 1049 1050 1097 1079 1022 1017 1072 985 1055 1026 1009 1060 1062 1027 1119 1032 1086 1079 1094 1149 1042 1099 1038 1066 1071 1043 1096 1114 1109 1102 1110 1107 1097 1150 1059 1137 1090 1077 1056 1096 1121 1097 1121 1138 1112 1112 1094 1098 1155 1113 1139 1113 1112 1055 1087 1141 1090 1092 1087 1047 1101 1093 1070 1042 1025 1151 974 1103 1026 1016 1092 1097 999 1057 1043 1120 1083 1134 1069 1075 1053 997 1085 1054 1048 1064 1009 1130 1041 1110 1042 1110 1065 1073 1084 1093 1095 1090 1082 1077 1005 1007 1036 1016 1116 1044 1053 1101 1096 1013 1115 1036 997 1062 1040 1022 1048 1061 1010 1071 1015 1007 1076 1056 1021 1017 1065 1042 1077 1058 1026 1042 1062 1058 1020 1034 1041 1036 1075 1049 1036 1052 1031 1069 1070 1054 1085 1068 1052 1086 1025 1057 1039 1043 1116 1052 1144 1054 1069 1091 1007 1005 1006 1022 1074 1031 1080 1075 986 1098 1056 1047 1068 1039 1035 1026 1079 1095 1075 1084 1058 1078 1061 1075 1090 1109 1177 1028 1064 1093 1104 1104 1068 1087 1081 1130 1058 1123 1113 1068 1057 1070 1117 1108 1152 1107 1103 1117 1126 1189 1089 1151 1109 1090 1102 1058 1134 1197 1095 1075 1129 1138 1161 1094 1110 1099 1115 1123 1115 1178 1111 1094 1020 1124 1106 1063 1177 1114 1164 1115 1073 1083 1071 1124 1087 1039 1139 1122 1114 1044 1090 1083 1114 1093 1015 1044 1104 1108 1088 1095 1038 1147 1074 1088 1085 1033 1007 1063 1088 1016 1059 1027 1107 1059 1088 1032 1032 1094 993 1026 1031 1097 1074 1016 1035 989 1044 1035 1039 1038 1049 1061 973 1032 1059 1088 1055 1066 1046 1072 1082 1059 1065 1027 1017 1041 1060 1087 1005 1065 1038 1045 991 1097 1064 1066 1085 1081 1050 1072 1062 1098 1019 1053 1005 1028 1120 1119 1030 1059 1064 1078 1067 1025 1080 1048 1032 1080 1039 1159 1014 1097 1084 1140 1114 1063 1034 1055 1045 1080 1024 977 1079 1096 1031 1035 1078 1036 1106 1046 1057 1076 1093 1021 1094 1053 1042 1102 1055 1035 1060 1064 1108 1042 1010 1060 1013 1023 1071 1045 1105 1079 1088 1090 1052 1092 1074 1057 1050 1027 1037 1086 995 1056 1044 1105 1032 1089 1033 1122 1019 1045 1032 1076 1048 1106 1103 1118 1087 1062 1077 1067 1156 967 1059 1081 1062 1108 1104 1127 1019 1064 1073 1083 1051 1108 1082 1155 1092 1098 1159 1058 1081 1045 1081 1120 1092 1136 1122 1138 1008 1089 1085 995 1120 1055 1091 1081 1058 1125 1079 1120 1178 1082 1073 1189 1138 1150 1107 1093 1215 1091 1107 1125 1199 1125 1113 1163 1095 1174 1149 1159 1158 1162 1145 1077 1150 1180 1162 1147 1181 1156 1133 1136 1146 1198 1122 1151 1201 1141 1212 1125 1127 1141 1135 1108 1150 1128 1158 1109 1084 1100 1067 1101 1093 1167 1097 1206 1131 1155 1102 1139 1104 1140 1094 1124 1077 1097 1113 1106 1118 1084 1123 1095 1104 1101 1071 1161 1072 1111 999 1148 1164 1073 1066 1151 1058 980 1085 1080 1094 1086 1104 1147 1012 1104 1094 1104 1033 1063 1040 1123 1045 1072 1125 1049 1052 1064 1131 1010 1017 1069 1075 1091 1121 1058 1062 1059 1061 1076 1027 1059 1113 1063 1080 1045 1026 1082 1008 1067 1040 1058 1029 1123 1085 1012 965 990 1068 980 1004 966 1004 944 1035 1002 1020 1034 972 1024 1015 1010 968 1005 1006 1002 998 1001 932 1003 990 984 955 1016 934 1007 1039 970 915 972 1012 933 1011 965 1013 983 983 934 994 958 1001 997 1002 951 1056 981 1024 1050 995 1033 945 1037 974 979 1034 980 998 984 918 1067 987 1034 1061 998 1013 1036 1038 1056 1016 1086 1028 980 996 1062 1043 1010 1053 1100 1052 1070 1092 1043 1061 1062 1119 1097 1100 1068 1135 1109 1088 1145 1211 1193 1097 1101 1161 1159 1209 1143 1125 1181 1239 1173 1164 1231 1243 1243 1153 1292 1251 1214 1275 1318 1235 1250 1155 1231 1312 1205 1286 1355 1319 1333 1307 1395 1265 1400 1349 1430 1414 1409 1409 1338 1408 1456 1431 1435 1421 1429 1548 1477 1496 1519 1553 1543 1575 1513 1601 1569 1629 1555 1683 1643 1662 1608 1702 1704 1672 1684 1666 1708 1758 1752 1716 1773 1804 1817 1892 1942 1870 1884 1841 1870 1938 1909 2022 1967 1920 1873 1982 1906 2001 1910 1975 2002 1974 2025 2072 1988 2102 2048 2011 2055 2067 2100 2061 2127 2100 2152 1983 2027 2025 2055 2014 2006 2043 1952 2050 2046 2024 2117 1939 1882 1890 1910 1818 1952 1817 1914 1851 1790 1888 1729 1730 1819 1714 1687 1688 1756 1719 1740 1721 1572 1624 1637 1546 1578 1584 1547 1593 1524 1533 1511 1539 1476 1558 1453 1547 1489 1479 1426 1484 1426 1420 1552 1432 1417 1386 1430 1426 1404 1367 1356 1402 1367 1414 1419 1457 1400 1483 1396 1382 1367 1510 1444 1421 1405 1474 1430 1398 1327 1426 1431 1457 1360 1334 1362 1368 1400 1467 1339 1415 1430 1431 1358 1366 1371 1408 1392 1444 1304 1474 1366 1384 1351 1372 1380 1342 1400 1366 1383 1316 1471 1289 1341 1270 1347 1296 1331 1269 1323 1320 1289 1384 1182 1292 1248 1323 1270 1252 1270 1263 1306 1167 1253 1258 1222 1236 1215 1223 1171 1299 1222 1243 1250 1149 1162 1195 1222 1179 1229 1179 1172 1117 1148 1160 1151 1146 1102 1207 1094 1197 1108 1062 1098 1145 1122 1117 1123 1092 1125 1076 1104 1043 1090 1024 1090 1051 1036 1024 1104 1121 1030 1048 1032 1091 1063 1114 1013 1028 1004 1057 1050 1027 1057 999 1052 1042 1017 1026 1052 994 1049 1031 1013 969 1052 989 1031 1053 1019 1010 959 1029 1058 1007 1007 1062 1055 1032 1061 1076 973 1032 1037 1029 1089 1017 1074 1034 1051 1000 1080 1006 1085 1041 1019 1068 1081 1073 1054 1035 1051 1054 1098 1046 1096 1094 1068 1139 1077 1060 1081 1098 1151 1081 1025 1168 1140 1067 1179 1069 1149 1036 1156 1048 1118 1039 1161 1079 1078 1087 1026 1078 1037 1057 1015 1079 1097 1068 1014 1102 1006 1077 1076 1028 1064 1044 985 1061 1057 1067 972 1023 1001 1054 990 1063 966 1012 1003 988 990 1036 1045 1085 1049 1044 954 1025 912 999 952 948 1034 975 981 1023 1029 1017 1007 1030 980 1009 945 1009 964 990 990 966 1042 986 951 969 968 1004 907 968 993 986 992 1005 947 1045 933 937 985 976 926 918 966 966 915 946 993 983 983 982 985 935 895 949 998 931 964 958 932 991 984 969 938 970 949 946 941 980 1006 991 935 964 1019 940 1007 967 931 962 974 952 914 934 901 921 1011 924 947 936 922 937 960 985 873 987 977 971 899 913 906 960 944 949 940 930 884 955 903 890 941 944 877 875 954 944 926 863 965 953 867 888 930 945 938 854 967 885 945 917 941 971 896 929 952 927 916 842 905 948 886 915 940 870 885 841 841 905 892 877 899 908 843 851 841 877 831 859 891 865 839 859 879 873 870 879 907 913 912 908 887 842 916 914 842 846 861 860 893 908 928 854 932 901 914 890 941 864 902 865 862 877 959 878 909 868 904 860 842 883 891 909 935 965 903 932 939 892 915 912 956 901 924 934 949 928 912 950 943 966 975 908 976 939 1003 989 960 916 991 953 938 961 938 962 995 968 954 909 973 1018 904 936 892 926 901 923 905 919 938 898 866 883 857 855 906 904 842 873 904 843 828 875 883 854 874 913 882 815 876 892 907 924 862 841 883 889 793 904 872 878 864 908 884 871 895 874 861 842 869 890 892 819 850 916 849 887 907 905 888 874 902 835 844 797 872 940 834 873 887 898 875 898 859 884 915 834 882 911 925 909 920 856 843 836 902 814 894 923 833 857 866 845 899 931 882 893 903 851 916 882 890 957 949 911 895 935 868 889 887 911 866 866 976 960 932 894 865 891 877 905 880 904 890 901 857 934 888 906 899 877 886 923 923 931 848 911 924 913 872 905 914 891 902 953 939 889 851 836 887 898 981 928 827 916 896 902 910 910 954 897 893 959 900 958 906 856 902 977 968 985 916 919 907 900 870 904 862 904 888 940 917 890 944 924 963 881 901 883 917 882 872 928 905 919 923 966 892 883 860 868 963 906 820 973 883 941 900 869 910 904 847 891 841 827 864 913 912 920 860 934 916 940 958 880 895 850 909 852 892 883 865 864 910 961 888 882 889 905 853 855 912 923 857 905 890 815 839 867 978 875 903 879 894 889 967 920 838 869 938 905 905 996 953 918 916 911 899 885 896 984 873 940 851 814 928 933 944 972 910 928 865 931 843 965 882 930 903 927 925 919 920 930 923 883 907 961 935 927 890 917 932 960 980 894 922 910 926 898 942 888 921 929 853 930 937 1000 958 933 875 944 939 953 901 954 952 942 928 925 892 983 914 917 925 914 941 884 946 875 879 915 894 920 937 896 929 911 923 929 947 968 920 974 956 927 924 889 948 954 919 890 923 850 951 916 940 915 930 975 969 905 975 974 981 980 981 927 923 954 960 953 977 915 1012 988 949 965 946 891 936 943 915 916 931 910 928 951 976 953 972 928 912 941 939 934 953 1013 956 974 959 960 965 972 1030 910 940 998 958 956 993 970 1025 984 932 935 923 945 941 953 988 911 975 1008 1004 952 941 966 991 982 1038 952 1012 966 954 1000 981 1001 983 1003 929 999 974 931 999 984 957 957 914 1025 996 1022 987 965 963 885 900 917 884 945 974 895 922 1022 916 895 867 932 907 896 905 957 894 926 885 860 860 881 929 887 929 847 858 890 868 878 877 858 858 938 820 905 853 890 839 920 868 876 905 866 856 918 871 932 895 865 931 908 918 895 896 899 894 907 917 921 934 893 891 858 943 915 911 968 976 969 927 955 909 986 996 965 922 997 952 1031 1030 1012 1053 962 1014 993 1082 1045 1059 1110 1106 1057 1056 1070 1156 1117 1102 1104 1121 1093 1102 1180 1170 1140 1214 1158 1185 1136 1200 1174 1207 1265 1272 1152 1212 1216 1177 1216 1188 1226 1203 1141 1143 1258 1194 1270 1212 1271 1167 1211 1216 1204 1198 1232 1137 1121 1196 1120 1127 1160 1163 1176 1119 1110 1065 1126 1112 1201 1155 1183 1084 1147 1098 1122 1124 1153 1168 1162 1103 1118 1089 1059 1104 1086 1104 1082 1085 1066 1066 1008 1078 1026 1029 1052 1006 999 1009 1007 1015 1047 971 1011 966 1004 983 953 997 922 896 966 973 916 910 891 1010 965 976 941 850 939 923 910 924 854 939 952 889 946 887 933 847 887 851 906 885 888 899 879 864 896 836 941 872 787 871 868 898 894 879 884 911 932 936 875 862 914 901 874 888 927 812 886 894 876 903 871 884 908 844 903 901 878 887 867 843 853 895 915 824 868 900 880 840 878 864 877 871 849 894 857 913 884 903 864 881 845 938 839 914 873 908 896 854 833 927 880 916 889 915 892 893 921 933 935 874 899 871 929 879 929 908 872 912 931 926 932 950 908 926 926 866 946 902 898 893 901 936 917 890 876 960 881 913 896 903 989 896 904 877 873 885 882 883 935 902 860 835 862 874 868 875 830 841 872 906 868 876 849 856 860 877 890 850 874 865 889 876 880 831 867 806 780 850 796 912 846 872 793 846 838 890 838 824 847 816 808 831 810 864 859 879 824 848 801 879 826 782 837 851 856 841 852 816 844 810 796 809 828 848 840 815 839 835 817 887 865 850 823 879 924 835 900 862 827 858 861 842 843 857 812 862 822 819 870 811 840 805 836 792 890 831 827 871 850 778 812 829 815 857 863 806 843 819 853 824 871 826 830 880 776 820 823 878 892 861 816 923 785 904 865 880 888 884 806 897 873 896 900 910 861 847 835 863 869 904 848 861 851 848 842 858 837 838 864 895 864 860 886 861 856 832 895 846 815 822 840 852 809 829 846 803 858 860 846 816 852 854 803 833 832 794 810 851 797 842 820 860 853 769 788 818 805 849 790 799 859 855 809 798 801 797 881 842 841 821 833 810 805 815 820 864 827 831 852 838 818 775 789 799 848 823 803 802 757 824 760 825 830 823 824 813 804 765 787 841 819 789 784 839 750 746 810 812 779 764 821 771 813 767 785 808 791 810 803 837 823 812 766 841 839 782 808 819 788 794 778 771 773 856 816 790 752 785 797 815 784 793 818 799 728 863 780 857 776 863 792 803 755 803 847 860 794 817 804 787 791 838 824 778 781 797 809 781 773 795 804 796 823 798 775 827 745 821 816 844 798 786 791 791 811 833 808 805 782 792 860 892 797 761 705 746 776 828 776 860 766 771 794 802 851 845 739 792 774 837 782 796 810 765 780 790 762 818 796 806 794 847 804 787 788 817 785 802 764 867 782 762 793 855 806 720 810 815 822 771 828 830 818 758 799 793 797 802 887 784 815 784 825 825 871 838 834 787 865 829 872 826 806 826 799 818 840 833 824 744 844 773 803 844 837 837 804 788 813 846 822 865 880 786 808 838 833 844 844 838 835 783 788 758 836 803 798 790 856 868 813 825 827 834 840 840 857 839 824 823 821 791 850 831 822 854 814 829 829 913 852 880 770 815 801 828 842 812 791 827 822 820 838 785 809 818 815 840 818 870 794 873 818 865 794 875 814 861 788 793 792 881 802 826 863 838 798 821 837 806 838 845 862 824 815 837 792 873 781 778 831 796 836 775 794 795 887 846 867 801 852 816 783 834 831 855 822 787 841 839 783 856 760 772 873 819 830 788 847 828 812 786 842 849 863 819 873 827 758 828 841 823 869 833 820 813 828 831 798 859 847 845 785 798 787 776 799 809 830 774 769 822 768 797 808 780 801 812 829 708 808 735 833 820 820 829 790 744 823 773 755 855 768 824 794 816 810 832 814 832 783 795 794 793 784 862 798 816 768 834 815 751 807 733 800 833 815 727 865 802 796 762 782 822 776 811 803 825 810 776 817 810 804 785 777 762 768 812 860 794 759 811 809 808 780 779 776 793 815 821 791 741 744 789 758 804 819 757 776 831 788 791 820 772 777 788 779 794 791 770 788 825 803 821 824 755 804 820 738 834 843 817 840 817 778 731 796 767 808 756 776 777 798 789 806 762 822 766 766 813 830 771 723 789 764 789 715 777 774 770 848 808 788 806 812 776 799 834 752 771 790 770 805 793 770 809 806 743 760 765 859 765 802 832 769 821 750 777 786 733 769 791 798 813 743 787 773 781 767 820 750 793 782 770 820 805 802 781 722 799 787 820 767 780 782 781 801 768 789 797 754 808 780 806 758 766 788 750 744 776 755 748 772 717 779 774 780 743 806 795 772 744 679 795 759 714 804 833 768 726 767 791 768 780 771 791 768 785 789 836 753 782 794 735 754 770 765 795 840 786 786 845 784 839 800 807 795 725 766 796 793 756 839 799 776 873 803 832 786 809 774 801 774 802 786 814 788 748 815 820 833 825 811 783 830 817 796 758 825 792 806 818 817 829 848 836 847 757 793 813 787 817 830 789 795 787 847 868 859 845 812 791 777 847 846 825 832 797 841 813 728 812 784 788 787 791 771 836 783 821 855 799 793 773 816 834 804 772 793 830 808 837 759 802 808 815 812 779 810 804 799 751 825 837 806 819 789 774 780 771 819 758 777 802 777 831 770 827 793 799 829 799 813 794 757 836 781 751 763 877 781 818 847 765 760 793 804 762 799 797 822 783 865 837 772 799 767 862 824 846 794 802 790 812 840 822 798 772 818 751 802 801 859 790 849 855 783 851 738 790 846 805 807 847 830 815 869 824 861 743 823 772 779 752 748 767 809 755 751 751 782 853 776 770 813 799 765 807 760 797 788 797 750 788 755 810 815 825 856 861 824 781 764 782 767 746 761 785 802 808 870 806 785 764 786 757 813 742 764 802 781 793 777 815 785 800 753 803 819 791 755 749 779 809 770 819 794 777 776 791 811 817 776 801 769 818 737 766 764 820 797 742 800 766 761 795 816 713 786 777 817 709 768 739 738 829 754 831 834 792 765 737 798 746 793 825 785 776 782 822 796 796 779 821 789 782 805 726 822 783 783 732 800 729 767 754 823 747 772 747 791 758 775 793 827 803 808 772 790 821 803 851 772 732 768 805 773 821 809 746 761 730 706 795 738 798 738 811 754 752 761 788 787 742 776 766 763 822 728 711 696 756 738 864 798 780 808 778 760 784 737 737 833 780 813 739 755 705 754 803 792 769 764 724 799 776 787 736 832 787 811 831 837 775 804 813 761 804 789 821 827 796 812 787 788 803 803 747 767 798 787 787 792 788 819 778 873 785 800 792 852 767 780 747 798 794 764 847 810 780 843 792 787 765 771 808 827 802 791 794 809 802 811 785 792 809 818 764 812 768 841 819 815 766 782 838 785 833 771 755 833 761 767 820 799 753 781 844 753 697 802 772 816 779 813 775 796 783 818 788 822 837 796 731 759 825 779 769 791 775 813 835 809 756 837 768 843 765 794 756 755 743 805 815 751 780 787 755 752 765 774 779 766 760 735 783 834 813 758 813 749 775 788 724 783 759 793 810 762 763 796 791 819 759 762 781 813 804 816 810 802 767 812 786 814 767 798 793 827 825 766 815 835 769 833 804 777 839 798 769 778 784 803 794 876 766 837 784 819 781 820 819 786 792 808 803 831 838 802 817 845 818 859 815 799 855 781 861 801 798 876 827 802 811 829 797 845 827 806 829 810 828 877 850 885 828 859 823 876 856 864 911 841 844 892 848 910 840 827 872 869 832 791 809 849 809 819 819 863 825 853 852 836 825 863 846 850 851 873 958 851 867 917 864 859 781 847 865 886 874 899 831 840 909 808 867 822 882 858 910 853 873 863 894 843 867 900 847 889 912 898 820 853 872 898 866 787 929 894 871 886 885 911 848 901 837 899 914 852 864 906 841 870 816 923 922 933 843 884 885 851 886 870 932 907 923 826 915 802 938 899 895 886 904 914 916 885 857 885 893 898 867 872 840 870 845 847 844 915 871 882 829 915 818 878 845 834 835 847 837 879 852 867 828 874 812 833 888 863 847 833 845 828 865 875 847 829 886 844 752 855 819 906 821 852 812 863 854 830 868 851 809 834 778 834 835 828 826 806 826 835 812 863 835 884 825 818 839 802 835 802 874 850 852 796 832 828 849 789 871 779 867 816 828 815 836 854 856 830 840 876 855 865 859 851 826 810 825 840 806 771 849 817 761 831 838 850 860 852 829 840 867 820 832 836 860 892 847 884 848 863 794 846 833 845 825 860 872 835 831 807 785 841 828 839 872 847 816 841 829 863 853 857 821 825 816 816 814 859 806 858 843 834 836 812 819 831 791 853 826 836 841 799 785 758 846 885 832 791 830 784 805 841 775 863 843 820 898 854 829 819 813 831 865 801 827 868 782 844 805 828 873 828 873 861 868 890 836 856 840 831 843 865 860 881 815 884 806 856 897 854 861 872 871 825 861 892 837 825 870 834 842 832 878 888 802 889 841 885 880 834 895 839 865 860 896 861 894 848 845 770 873 884 857 854 868 787 879 862 833 851 908 902 827 895 904 892 854 862 920 871 820 870 822 841 850 861 896 838 890 861 873 881 847 923 903 852 802 872 824 863 880 828 877 871 885 824 879 848 895 868 849 873 814 907 861 898 815 824 861 845 870 824 846 975 879 871 866 921 873 877 886 856 855 857 841 855 855 861 861 875 886 898 896 836 875 842 863 881 938 859 834 879 840 910 858 870 889 863 867 919 834 887 820 745 884 810 867 861 879 839 852 894 875 830 845 869 830 887 848 871 859 854 842 834 869 891 808 871 797 858 872 836 856 826 803 844 842 865 882 806 776 808 835 806 889 877 854 781 808 823 851 813 838 813 894 817 799 818 891 868 824 832 809 879 821 827 866 891 830 844 857 834 844 814 815 833 813 883 786 849 810 836 870 834 780 859 850 815 869 860 869 810 839 829 845 789 824 811 794 752 855 792 765 799 801 777 775 850 856 755 790 790 847 786 823 804 829 798 879 791 841 766 783 831 782 824 809 793 776 845 790 805 796 838 778 807 873 805 815 788 740 807 795 817 808 807 859 835 792 820 783 807 757 814 770 777 781 829 855 811 798 780 791 827 857 794 785 814 755 809 781 861 794 774 828 786 793 830 812 777 796 765 810 789 783 743 803 802 783 799 806 782 782 779 829 796 841 769 784 775 751 780 800 822 804 827 776 770 760 816 787 813 774 769 799 793 756 804 788 835 764 740 763 750 743 800 770 774 761 828 847 778 859 769 757 792 776 748 766 848 783 749 779 798 772 747 804 822 840 797 744 738 775 815 805 780 813 743 717 750 739 767 680 820 830 782 781 769 786 794 761 749 810 818 742 766 766 785 737 799 755 744 759 743 768 825 783 738 792 722 797 795 721 819 761 841 815 815 805 762 810 751 804 828 763 774 832 740 780 821 756 736 771 728 793 778 752 790 801 761 803 799 749 780 738 800 768 767 719 792 786 781 736 788 745 759 778 786 813 766 748 752 760 765 856 724 834 737 738 717 759 740 741 786 774 806 811 771 745 750 791 695 781 726 752 797 746 804 769 785 754 758 726 824 774 785 747 741 756 738 804 736 705 735 739 760 724 740 733 797 716 777 792 759 762 757 788 787 823 741 748 806 758 781 770 774 775 782 793 756 778 716 799 729 728 774 802 732 771 764 748 774 774 752 707 724 750 746 732 753 773 761 745 777 770 739 821 810 764 771 737 757 756 780 763 702 828 791 768 807 780 764 806 776 724 734 754 795 806 733 796 809 771 761 805 782 778 792 790 815 723 773 794 755 784 818 777 795 794 779 817 750 760 719 746 769 795 811 791 807 749 778 811 768 780 793 780 744 792 801 815 792 769 785 793 812 769 747 793 782 813 780 798 798 782 733 859 836 835 792 801 801 756 814 805 824 777 792 821 839 788 797 823 803 821 819 844 802 804 787 865 866 794 807 817 835 824 794 797 855 767 772 845 758 812 783 800 818 802 784 741 844 804 833 796 822 778 786 835 819 846 810 758 819 781 803 760 845 738 763 815 782 790 841 855 840 828 810 801 913 839 820 747 788 783 781 823 803 807 828 749 816 807 822 886 856 832 799 815 805 869 809 789 842 800 822 778 781 803 792 833 825 789 810 793 746 795 816 845 835 833 811 819 800 823 803 824 864 803 884 766 773 818 780 770 824 783 802 828 815 852 831 822 779 819 787 844 794 857 815 832 839 825 806 836 825 798 827 810 807 823 835 824 823 794 811 782 834 780 882 790 748 836 807 768 740 786 815 803 810 828 824 796 756 805 812 800 837 794 812 800 801 792 863 791 850 771 828 837 816 819 802 811 866 787 822 833 869 814 789 848 811 834 797 791 841 803 803 774 747 806 810 798 803 819 848 775 857 833 822 824 835 818 808 835 854 782 847 789 784 789 852 827 845 804 788 854 794 833 787 874 800 813 837 806 828 826 840 805 774 804 838 855 835 807 792 835 858 831 838 818 836 790 783 798 809 820 833 839 825 851 794 793 823 840 828 865 841 796 810 866 819 807 829 898 832 826 841 807 859 742 847 850 828 813 842 819 810 822 883 827 859 837 821 809 824 857 867 868 883 814 832 819 793 870 848 855 803 788 827 862 877 848 817 847 897 884 822 885 796 833 853 836 833 882 836 856 807 837 863 857 909 847 857 896 876 842 847 807 841 856 838 858 834 889 910 799 841 788 837 860 824 820 829 839 833 808 804 903 838 891 802 856 813 839 841 813 863 859 794 872 830 802 819 812 802 812 871 812 797 766 830 833 827 866 822 809 805 824 795 843 797 815 797 855 785 865 862 821 809 799 835 818 793 799 773 751 780 801 895 788 797 797 820 821 797 832 776 814 757 863 803 816 847 767 795 870 868 848 789 766 848 785 835 786 786 789 826 844 853 780 842 791 807 776 853 779 826 807 806 794 791 751 777 814 816 751 772 816 863 805 760 796 810 763 885 780 844 810 827 833 753 799 719 788 797 831 767 774 788 799 796 789 816 744 755 820 807 825 776 828 756 802 761 773 736 753 776 800 851 795 808 816 766 782 793 776 776 800 819 770 785 775 806 794 795 848 818 738 768 814 770 800 768 763 821 747 775 777 709 757 781 741 773 744 763 754 783 805 766 823 819 770 807 714 795 741 746 791 792 774 741 737 727 834 788 774 729 792 771 807 770 754 752 794 795 749 751 747 785 712 809 789 784 752 818 729 780 744 785 771 768 741 793 815 731 788 802 736 724 732 730 752 761 752 755 720 815 728 786 736 713 715 781 741 717 762 791 768 798 682 702 753 787 798 802 777 776 747 771 797 724 750 784 754 766 754 728 798 699 753 768 773 767 799 765 743 742 786 824 762 744 801 808 784 753 755 789 761 718 711 812 736 766 757 810 788 778 731 786 733 744 769 766 756 744 747 768 787 730 801 751 728 785 763 786 783 787 784 815 807 795 706 731 754 787 797 784 788 800 828 767 781 780 740 790 781 719 747 751 790 782 828 771 761 758 775 743 790 797 734 776 764 746 802 715 770 814 762 772 736 793 753 735 753 821 765 766 778 817 701 804 804 737 748 732 744 768 739 743 758 836 741 789 778 784 754 736 727 778 725 781 798 776 799 736 746 810 764 724 761 749 747 753 750 754 748 770 760 727 676 743 796 731 750 771 709 731 817 745 722 785 802 749 820 716 755 802 773 769 724 809 754 740 712 757 720 771 808 704 762 760 734 702 744 765 727 756 781 809 760 766 797 745 788 813 783 805 733 747 742 729 758 783 694 756 712 752 753 743 731 751 774 721 724 735 802 732 745 720 753 776 737 724 763 753 737 747 766 813 754 766 700 791 749 809 766 760 790 810 766 800 787 691 784 797 723 833 728 802 745 753 739 793 770 765 784 770 733 726 773 769 716 791 801 770 777 770 746 751 754 821 757 741 789 731 766 776 727 785 760 711 728 773 746 759 744 766 806 753 775 763 753 763 683 788 750 794 737 765 785 775 796 755 726 802 735 735 775 748 792 777 784 804 794 779 746 754 740 793 749 729</counts>
			</dataPoints>
		</scan>
	</xrdMeasurement>
</xrdMeasurements>
