<?xml version="1.0"?>
<xrdMeasurements xmlns="http://www.xrdml.com/XRDMeasurement/2.3" xmlns:xsi="http://www.w3.org/2001/XMLSchema-instance" xsi:schemaLocation="http://www.xrdml.com/XRDMeasurement/2.3 http://www.xrdml.com/XRDMeasurement/2.3/XRDMeasurement.xsd" status="Completed" recordIdentifier="{2FEF35F5-3A9C-4890-9CCF-2221B4359B65}">
	<comment>
		<entry/>
	</comment>
	<sample type="To be analyzed">
		<id>GPSS_Li1p4Mn0p3Zr0p1Ni0p1Nb0p2Fe0p2Cl4_122325_694ae824ae15af25ac37278a</id>
		<name></name>
		<preparedBy></preparedBy>
	</sample>
	<xrdMeasurement measurementType="Scan" status="Completed" sampleMode="Reflection">
		<usedWavelength intended="K-Alpha 1">
			<kAlpha1 unit="Angstrom">1.5405980</kAlpha1>
			<kAlpha2 unit="Angstrom">1.5444260</kAlpha2>
			<kBeta unit="Angstrom">1.3922500</kBeta>
			<ratioKAlpha2KAlpha1>0.5000</ratioKAlpha2KAlpha1>
		</usedWavelength>
		<incidentBeamPath>
			<radius unit="mm">145.00</radius>
			<xRayTube id="1010048" name="Empyrean Cu LFF HR (9430 033 7310x)">
				<tension unit="kV">40.0</tension>
				<current unit="mA">15.0</current>
				<anodeMaterial>Cu</anodeMaterial>
				<focus type="Line">
					<length unit="mm">12.0</length>
					<width unit="mm">0.4</width>
					<takeOffAngle unit="deg">6.0</takeOffAngle>
				</focus>
			</xRayTube>
			<sollerSlit id="21010002" name="Soller slits 0.04 rad.">
				<opening unit="rad">0.0400</opening>
			</sollerSlit>
			<mask id="22031000" name="Fixed mask 13 mm">
				<width unit="mm">9.00</width>
			</mask>
			<divergenceSlit id="22120001" name="Divergence slit 1°" xsi:type="fixedDivergenceSlitType">
				<distanceToSample unit="mm">50.00</distanceToSample>
				<height unit="mm">1.52</height>
			</divergenceSlit>
		</incidentBeamPath>
		<sampleMovement xsi:type="spinningSampleMovementType">
			<spinnerRevolutionTime unit="seconds">1.0</spinnerRevolutionTime>
		</sampleMovement>
		<diffractedBeamPath>
			<radius unit="mm">145.00</radius>
			<antiScatterSlit id="22090040" name="AS slit 9 mm (PIXcel)" xsi:type="fixedAntiScatterSlitType">
				<height unit="mm">9.00</height>
			</antiScatterSlit>
			<sollerSlit id="21020003" name="Large Soller slits 0.04 rad.">
				<opening unit="rad">0.0400</opening>
			</sollerSlit>
			<filter id="20030001" name="Large beta-filter Nickel">
				<material>Ni</material>
				<thickness unit="mm">0.020</thickness>
			</filter>
			<detector id="7010019" name="PIXcel1D-Medipix3 detector" xsi:type="rtmsDetectorType">
				<phd unit="keV">
					<lowerLevel>4.02</lowerLevel>
					<upperLevel>11.27</upperLevel>
				</phd>
				<mode>Scanning</mode>
				<activeLength unit="deg">5.542</activeLength>
			</detector>
		</diffractedBeamPath>
		<scan appendNumber="0" mode="Continuous" scanAxis="Gonio" status="Completed">
			<header>
				<startTimeStamp>2025-12-24T15:17:44-08:00</startTimeStamp>
				<endTimeStamp>2025-12-24T15:25:51-08:00</endTimeStamp>
				<author>
					<name>AutomatedUser</name>
				</author>
				<source>
					<applicationSoftware version="1.7b (136)">PANalytical Aeris Instrument Suite</applicationSoftware>
					<instrumentControlSoftware version="3.2.00000000 20240306">AERIS</instrumentControlSoftware>
					<instrumentID>950485</instrumentID>
				</source>
			</header>
			<dataPoints>
				<positions axis="2Theta" unit="deg">
					<startPosition>10.00943322</startPosition>
					<endPosition>99.99442286</endPosition>
				</positions>
				<positions axis="Omega" unit="deg">
					<startPosition>5.00471661</startPosition>
					<endPosition>49.99721143</endPosition>
				</positions>
				<commonCountingTime unit="seconds">12.495</commonCountingTime>
				<counts unit="counts">3312 3375 3322 3414 3525 3399 3408 3344 3316 3318 3398 3325 3482 3378 3394 3310 3535 3378 3425 3404 3457 3330 3480 3526 3338 3459 3405 3410 3371 3522 3431 3468 3492 3436 3586 3400 3567 3470 3577 3442 3382 3482 3428 3492 3546 3566 3543 3556 3426 3508 3429 3509 3529 3608 3450 3538 3544 3541 3502 3633 3579 3653 3583 3600 3700 3726 3627 3830 3760 3708 3556 3705 3716 3801 3685 3697 3570 3921 3724 4007 3814 3914 3841 3967 3886 3864 3925 3948 3922 3889 3953 3927 4036 3966 4008 4067 4104 4000 3965 4052 4092 4072 4139 4136 4230 4079 4053 4068 4009 4128 4008 3973 3923 3891 3884 3849 3878 3997 4009 4001 3898 3897 3900 3901 3819 3883 3760 3900 3894 3850 3908 3868 3864 3894 3843 3794 3766 3756 3893 3815 3842 3827 3878 3808 3803 3817 3755 3890 3858 3842 3940 3871 3917 3892 3886 3893 3903 3819 3845 3940 3931 3917 3949 3932 3814 3925 3908 3922 3837 3994 3849 3851 3813 3853 3823 3906 3852 3925 3845 3860 3840 3822 3878 3836 3910 3893 3934 3789 3830 3743 3951 3906 3883 3715 3811 3856 3815 3829 3815 3807 3738 3802 3838 3913 3816 3905 3684 3845 3643 3697 3828 3758 3809 3865 3860 3669 3726 3830 3759 3804 3770 3811 3754 3676 3707 3745 3756 3774 3793 3839 3778 3911 3792 3707 3764 3627 3755 3733 3713 3708 3623 3581 3664 3711 3672 3636 3674 3632 3662 3608 3765 3671 3698 3658 3728 3710 3686 3742 3678 3704 3650 3648 3603 3646 3807 3574 3631 3650 3771 3604 3525 3523 3608 3615 3479 3498 3672 3613 3528 3600 3581 3642 3659 3620 3648 3491 3625 3689 3512 3559 3666 3595 3553 3584 3633 3610 3596 3736 3541 3597 3617 3600 3635 3560 3522 3595 3687 3635 3639 3599 3623 3664 3651 3615 3606 3681 3559 3621 3547 3565 3713 3737 3548 3777 3593 3521 3583 3593 3654 3568 3647 3636 3748 3643 3686 3688 3670 3654 3745 3635 3751 3697 3631 3665 3745 3830 3707 3700 3637 3807 3638 3661 3711 3793 3764 3790 3903 3779 3722 3724 3588 3760 3763 3784 3662 3803 3733 3784 3748 3783 3889 3632 3778 3812 3781 3753 3987 3812 3821 3793 3906 3743 3846 3740 3836 3857 3859 3873 3850 3877 3809 3745 3776 3771 3856 3810 3791 3775 3933 3764 3896 3845 3787 3812 3841 3840 3883 3849 3938 3825 3913 3870 3913 3824 3895 4039 3845 3856 3968 3857 4061 3895 3873 4011 4002 3928 3943 4009 3989 4050 4015 3973 4060 4098 4063 4081 4059 4002 4273 4155 4301 4288 4294 4284 4345 4466 4403 4545 4439 4691 4614 4709 4800 4908 4849 4882 4853 4792 4841 4780 4802 4818 4691 4661 4531 4436 4258 4212 4050 4049 4036 3902 3949 4018 3984 3827 3884 4004 3887 3862 3940 3946 3967 3731 3825 3833 3837 3905 3843 3859 3856 3887 3925 3919 3962 3806 3878 3902 3784 3849 3842 3858 4038 3929 3885 3720 3808 3794 3829 3878 3657 3677 3740 3734 3666 3621 3529 3578 3641 3565 3543 3661 3552 3545 3618 3518 3523 3512 3489 3460 3488 3451 3446 3552 3470 3454 3517 3455 3459 3433 3450 3442 3355 3401 3409 3470 3375 3325 3427 3405 3296 3433 3403 3396 3284 3389 3395 3343 3364 3366 3336 3309 3280 3388 3265 3312 3274 3319 3254 3364 3284 3316 3219 3354 3316 3271 3279 3278 3311 3183 3261 3244 3389 3310 3337 3300 3162 3231 3198 3184 3295 3263 3136 3240 3274 3216 3264 3233 3270 3161 3311 3058 3291 3161 3292 3235 3148 3186 3148 3114 3183 3135 3201 3171 3102 3153 3225 3113 3221 3142 3069 3257 3271 3205 3150 3119 3126 3041 3024 3085 3195 3161 3085 3038 3088 3099 3076 3059 3053 3157 3118 3140 3128 3136 3135 2990 3163 3115 3131 3113 3143 3186 3091 3106 3070 2969 3117 3008 3099 3081 3018 2912 2999 3164 3082 3036 3084 3064 3031 2966 3079 2987 3153 3033 3189 3086 3033 3101 3081 3136 3170 3016 3056 2947 3056 3087 3024 3076 3005 3021 3065 3073 3073 3055 3071 3052 3021 3104 2911 2981 2935 3049 2923 3019 3015 2918 3082 2891 2880 3044 3082 3153 2929 2898 2983 3069 2902 3022 3010 3094 2915 2999 2971 2954 2944 3030 3022 2897 2935 2945 2913 3045 2917 3016 2971 3032 2854 2948 2836 3054 3002 2985 2971 2993 2816 2979 2921 2976 2971 2865 2816 3031 3023 2992 2880 2949 2942 2893 2979 2884 2964 2986 2991 2877 2909 2864 2904 2938 2963 2932 2822 2910 2906 2998 2965 2945 2926 2936 2834 2929 2949 2920 2929 2890 2906 2959 2906 2902 2920 2845 2856 2857 2915 2893 2963 2822 3019 2840 2888 2872 2873 2936 2803 2803 2847 2910 2903 2953 2892 2939 2814 2804 2910 2811 2927 2874 2832 2810 2906 2750 2816 2790 2827 2908 2940 2847 2881 2931 2872 2879 2805 2797 2908 2763 2887 2798 2814 2847 2726 2811 2877 2829 2857 2757 2784 2894 2806 2939 2904 2860 2848 2897 2826 2789 2807 2897 2665 2808 2740 2892 2815 2892 2782 2806 2708 2829 2808 2777 2795 2779 2766 2855 2841 2823 2755 2823 2705 2755 2756 2626 2801 2804 2797 2685 2681 2707 2791 2657 2697 2743 2763 2751 2742 2725 2748 2731 2800 2756 2795 2766 2798 2698 2787 2651 2727 2823 2717 2733 2705 2709 2799 2675 2620 2767 2820 2682 2684 2719 2725 2680 2714 2753 2691 2681 2831 2709 2678 2721 2732 2640 2732 2735 2620 2719 2639 2613 2673 2737 2683 2711 2676 2655 2572 2702 2659 2640 2669 2628 2711 2625 2651 2660 2667 2627 2651 2628 2648 2752 2665 2656 2618 2623 2667 2638 2720 2633 2644 2745 2680 2617 2625 2590 2710 2507 2587 2663 2637 2603 2630 2534 2633 2681 2629 2637 2546 2765 2556 2755 2566 2617 2643 2567 2535 2542 2668 2596 2576 2614 2670 2626 2629 2607 2629 2620 2545 2646 2689 2653 2602 2573 2616 2659 2652 2589 2680 2565 2502 2625 2691 2556 2620 2728 2665 2628 2628 2576 2612 2684 2569 2598 2569 2632 2626 2620 2594 2612 2677 2591 2581 2632 2667 2642 2658 2522 2558 2717 2643 2685 2667 2647 2545 2621 2612 2525 2659 2577 2674 2677 2668 2595 2691 2609 2655 2607 2593 2592 2505 2523 2677 2624 2603 2642 2607 2624 2564 2679 2732 2645 2598 2714 2663 2640 2686 2664 2602 2712 2693 2599 2587 2629 2601 2516 2687 2677 2697 2699 2640 2642 2687 2565 2587 2682 2548 2598 2725 2552 2576 2610 2609 2600 2554 2521 2592 2638 2469 2664 2570 2587 2645 2609 2620 2484 2565 2648 2554 2630 2542 2551 2547 2602 2549 2565 2573 2616 2592 2532 2510 2470 2532 2474 2534 2560 2518 2475 2497 2530 2504 2564 2493 2449 2507 2555 2502 2620 2410 2434 2434 2467 2585 2438 2397 2552 2472 2426 2424 2422 2416 2453 2554 2455 2481 2380 2424 2364 2309 2368 2438 2351 2448 2417 2351 2394 2380 2411 2455 2433 2454 2399 2407 2341 2267 2412 2405 2339 2235 2450 2325 2348 2357 2261 2277 2412 2325 2367 2327 2279 2293 2318 2323 2279 2363 2273 2321 2381 2232 2244 2144 2295 2223 2205 2224 2239 2195 2243 2278 2264 2208 2160 2318 2164 2219 2162 2187 2218 2216 2214 2296 2222 2220 2281 2191 2143 2191 2152 2187 2178 2172 2209 2209 2127 2251 2146 2076 2169 2178 2112 2168 2178 2055 2164 2099 2110 2143 2197 2210 2067 2160 2128 2098 2108 2079 1991 2074 2093 2042 2050 2082 2140 2099 2055 2081 2096 2049 2124 2087 2085 2091 2014 2054 2054 2060 2114 2090 2076 2047 2050 2097 1983 1966 2053 2048 2092 2051 2012 2112 1980 1995 2005 2046 2020 2014 2062 2007 1965 2126 1990 2105 2092 2059 2062 2007 1983 2023 2022 2091 1990 1969 1955 1939 2000 1954 2040 1989 2127 1987 1948 1999 2022 2029 1956 1980 1967 1980 1931 1984 2031 2038 2009 1888 2044 1985 1902 2020 1924 2010 2003 1958 1962 1886 2022 1951 2087 1865 1981 1985 2010 1933 1891 2007 1975 1929 1925 2113 1918 2029 1960 1957 2061 1932 2063 1982 1972 1953 2007 1914 2042 1883 1992 1975 2061 1952 1992 1844 1985 2009 1948 2000 1910 1914 1964 1913 1891 2000 2011 1954 1986 1999 2029 1971 1977 1976 2005 2016 1952 2082 2087 1933 1950 1926 1985 1983 1991 2022 2004 1978 1927 2018 2049 1945 2071 2015 2025 2000 2083 1993 1937 1877 1950 2053 1989 1948 1962 1955 2079 2022 2029 2042 1943 2007 1981 1952 1903 1972 1969 2007 1994 1946 1997 2040 2035 2031 1885 1970 2013 2012 1934 1955 1937 1888 2002 2047 1979 1928 2030 1932 1924 2007 1986 2044 1922 1927 1929 1906 1972 1923 2013 2027 1970 1967 1964 1907 1975 1974 1989 1908 1937 1975 1989 1983 1998 2007 1967 2051 1990 1939 2004 1942 1986 1953 1973 1926 1920 2008 1990 1938 1869 1992 1931 1941 1931 1938 1964 1872 1947 2039 1991 1916 1896 1989 1961 1836 1912 1938 1960 1863 2010 1943 1967 1928 1906 1927 1962 1916 1876 1886 1858 1901 1870 1894 1876 1918 1888 1856 1853 1838 1849 1833 1918 1860 1866 1844 1891 1962 1849 1933 1898 1911 1841 1854 1864 1915 1862 1823 1744 1865 1805 1818 1814 1795 1809 1879 1832 1804 1791 1850 1812 1807 1762 1824 1786 1780 1819 1837 1862 1817 1794 1750 1779 1869 1742 1749 1700 1794 1775 1809 1744 1884 1644 1770 1788 1758 1792 1788 1666 1777 1708 1703 1807 1745 1710 1764 1728 1736 1717 1690 1776 1801 1791 1836 1725 1724 1753 1671 1623 1693 1736 1717 1678 1729 1778 1689 1770 1776 1724 1727 1768 1728 1665 1700 1671 1712 1704 1764 1694 1715 1754 1693 1720 1695 1668 1639 1795 1720 1644 1659 1740 1699 1691 1753 1680 1694 1655 1690 1700 1710 1689 1684 1778 1707 1784 1735 1765 1755 1716 1775 1821 1746 1818 1869 1845 1765 1775 1879 1796 1914 1879 1823 1939 1928 2003 2010 1953 1975 2057 2125 2132 2163 2136 2191 2218 2242 2189 2234 2281 2246 2150 2239 2287 2181 2249 2160 2102 2089 2054 1984 1980 1930 1865 1805 1810 1772 1849 1740 1753 1767 1711 1658 1664 1643 1732 1658 1637 1682 1643 1659 1600 1657 1649 1580 1688 1599 1655 1550 1588 1595 1574 1578 1569 1605 1614 1585 1608 1548 1557 1588 1609 1475 1589 1588 1622 1501 1560 1509 1592 1510 1525 1537 1508 1629 1482 1535 1547 1555 1590 1538 1555 1542 1596 1578 1599 1647 1547 1585 1607 1655 1654 1610 1632 1677 1675 1708 1712 1722 1681 1878 1820 1787 1859 1939 1895 1979 1934 1885 1930 1936 2026 2037 2140 2213 2314 2261 2316 2440 2397 2502 2562 2568 2656 2759 2803 2674 2713 2790 2801 2809 2749 2727 2634 2647 2689 2573 2641 2620 2517 2513 2442 2426 2386 2319 2225 2246 2224 2126 2220 2061 1922 2092 2110 2064 2023 2145 1978 2089 2119 2114 2132 2145 2126 2167 2146 2009 2105 2022 1974 1809 1792 1801 1762 1736 1726 1704 1684 1621 1592 1569 1507 1600 1589 1498 1529 1484 1482 1478 1442 1471 1497 1417 1512 1537 1455 1501 1400 1488 1576 1461 1462 1509 1488 1486 1459 1453 1477 1427 1472 1451 1491 1445 1457 1447 1457 1453 1502 1484 1494 1479 1474 1459 1455 1548 1419 1487 1403 1403 1391 1519 1414 1440 1420 1462 1385 1390 1429 1384 1409 1388 1431 1408 1351 1345 1426 1363 1368 1419 1452 1442 1415 1413 1416 1434 1362 1389 1324 1427 1421 1384 1416 1381 1300 1412 1419 1449 1433 1378 1379 1371 1445 1431 1395 1397 1403 1384 1374 1363 1349 1425 1417 1359 1474 1431 1432 1425 1408 1382 1344 1428 1461 1371 1408 1385 1389 1390 1327 1459 1423 1411 1381 1483 1321 1349 1381 1336 1359 1416 1376 1389 1377 1364 1395 1379 1378 1404 1349 1383 1388 1352 1325 1390 1400 1337 1470 1404 1429 1311 1333 1315 1410 1438 1371 1372 1378 1383 1419 1402 1422 1363 1412 1358 1403 1428 1350 1390 1399 1451 1429 1461 1400 1488 1456 1521 1564 1456 1483 1513 1471 1511 1501 1509 1520 1614 1549 1600 1516 1592 1623 1630 1605 1609 1656 1627 1603 1625 1671 1715 1716 1709 1759 1713 1638 1694 1731 1744 1721 1748 1730 1662 1773 1662 1709 1638 1686 1725 1751 1632 1702 1707 1674 1729 1794 1701 1635 1706 1693 1699 1673 1665 1607 1673 1632 1649 1598 1537 1570 1584 1608 1601 1544 1525 1566 1526 1488 1469 1479 1545 1490 1493 1462 1495 1508 1453 1390 1436 1434 1480 1470 1384 1409 1452 1455 1425 1420 1460 1353 1419 1404 1552 1481 1383 1415 1443 1411 1425 1418 1407 1396 1428 1504 1405 1367 1466 1445 1382 1418 1432 1421 1408 1399 1408 1441 1445 1387 1466 1373 1384 1351 1360 1399 1412 1434 1372 1429 1317 1423 1529 1436 1431 1425 1467 1374 1438 1311 1431 1368 1389 1408 1405 1397 1409 1431 1415 1379 1399 1455 1468 1456 1488 1430 1414 1459 1502 1480 1533 1505 1537 1499 1548 1583 1487 1584 1710 1702 1745 1701 1845 1856 1868 1907 1959 1998 2089 2078 2168 2303 2324 2421 2436 2528 2678 2666 2819 2901 3010 3204 3201 3408 3522 3703 3819 4010 4068 4219 4275 4520 4721 4644 4808 4856 5061 4955 4923 4893 4947 4852 4872 4816 4609 4576 4273 4138 3833 3761 3606 3484 3325 3134 2951 2809 2542 2653 2540 2374 2409 2232 2275 2349 2189 2262 2217 2289 2198 2182 2238 2248 2273 2285 2322 2384 2295 2417 2399 2281 2316 2250 2311 2158 2150 1994 2041 1861 1859 1916 1859 1776 1756 1705 1732 1566 1597 1573 1585 1574 1543 1492 1547 1507 1454 1472 1439 1457 1470 1443 1435 1470 1403 1469 1367 1374 1489 1397 1363 1396 1398 1386 1395 1373 1383 1400 1332 1351 1391 1471 1396 1424 1327 1408 1357 1405 1399 1412 1413 1356 1351 1394 1402 1394 1381 1360 1406 1387 1434 1467 1352 1392 1412 1453 1393 1403 1451 1404 1353 1400 1440 1405 1457 1400 1449 1380 1408 1351 1473 1380 1425 1395 1449 1399 1429 1349 1416 1379 1484 1460 1403 1352 1442 1410 1401 1349 1354 1399 1419 1380 1363 1445 1410 1420 1492 1386 1368 1427 1405 1378 1332 1396 1412 1361 1336 1356 1417 1315 1332 1335 1353 1378 1305 1326 1302 1430 1333 1305 1292 1356 1375 1327 1357 1390 1301 1259 1269 1328 1296 1229 1281 1418 1324 1281 1334 1268 1331 1237 1278 1305 1345 1233 1276 1231 1300 1287 1328 1337 1276 1285 1352 1274 1366 1306 1346 1316 1305 1251 1275 1217 1280 1281 1280 1355 1319 1286 1283 1350 1287 1211 1246 1261 1310 1287 1236 1279 1265 1240 1269 1291 1249 1288 1210 1331 1319 1368 1308 1228 1290 1272 1272 1303 1281 1305 1237 1218 1305 1267 1271 1332 1260 1271 1282 1286 1305 1296 1388 1235 1272 1282 1302 1378 1286 1300 1308 1252 1261 1248 1272 1330 1328 1288 1322 1404 1348 1322 1290 1302 1328 1324 1277 1264 1346 1295 1221 1315 1337 1263 1281 1238 1372 1297 1363 1210 1308 1300 1254 1226 1315 1322 1313 1293 1320 1377 1236 1315 1290 1251 1260 1294 1263 1301 1247 1248 1277 1270 1241 1207 1251 1242 1209 1253 1350 1312 1300 1275 1273 1374 1225 1240 1328 1237 1235 1337 1309 1233 1286 1288 1235 1261 1225 1342 1240 1263 1233 1202 1325 1251 1214 1282 1258 1207 1229 1253 1214 1341 1266 1223 1283 1228 1240 1263 1233 1213 1224 1250 1273 1198 1266 1224 1241 1274 1190 1291 1233 1196 1268 1263 1275 1234 1201 1261 1268 1234 1193 1203 1230 1284 1249 1227 1279 1187 1223 1260 1181 1286 1248 1224 1178 1212 1243 1201 1257 1217 1218 1202 1226 1179 1253 1193 1175 1232 1207 1252 1191 1229 1238 1260 1202 1257 1216 1259 1288 1182 1261 1246 1295 1262 1269 1263 1282 1211 1249 1172 1269 1170 1250 1222 1250 1206 1211 1192 1184 1242 1201 1226 1205 1267 1249 1242 1346 1230 1258 1202 1236 1233 1211 1245 1206 1202 1232 1204 1242 1177 1208 1253 1248 1269 1224 1282 1214 1264 1211 1220 1206 1253 1308 1205 1202 1167 1300 1188 1317 1218 1253 1205 1197 1277 1194 1202 1208 1163 1226 1238 1189 1239 1182 1250 1202 1215 1199 1215 1206 1277 1195 1228 1173 1158 1271 1193 1282 1201 1234 1180 1176 1213 1341 1202 1133 1170 1257 1205 1220 1229 1202 1231 1226 1239 1216 1225 1207 1165 1231 1192 1185 1175 1195 1162 1225 1214 1180 1210 1217 1238 1206 1173 1162 1174 1309 1213 1272 1248 1203 1162 1192 1282 1253 1219 1247 1169 1163 1249 1200 1213 1240 1220 1231 1198 1207 1240 1273 1234 1205 1244 1226 1153 1261 1183 1236 1248 1266 1240 1208 1181 1282 1257 1185 1247 1252 1208 1211 1211 1162 1255 1150 1184 1171 1197 1240 1155 1214 1236 1182 1179 1249 1237 1274 1133 1214 1168 1235 1239 1157 1161 1217 1239 1143 1206 1264 1209 1246 1251 1223 1164 1210 1202 1178 1206 1198 1244 1225 1193 1165 1159 1207 1267 1217 1221 1241 1203 1240 1248 1190 1209 1170 1191 1261 1216 1156 1232 1198 1219 1184 1231 1265 1171 1242 1210 1168 1236 1232 1228 1231 1234 1259 1185 1180 1213 1203 1178 1144 1155 1161 1196 1180 1168 1213 1255 1231 1173 1212 1189 1165 1194 1264 1223 1256 1230 1283 1217 1201 1228 1208 1228 1274 1226 1216 1220 1225 1278 1246 1251 1262 1226 1234 1188 1244 1232 1165 1138 1229 1210 1133 1124 1192 1189 1162 1226 1212 1233 1177 1174 1182 1182 1158 1159 1232 1195 1212 1278 1224 1128 1188 1262 1238 1170 1224 1167 1263 1147 1168 1236 1201 1230 1202 1173 1240 1167 1213 1185 1295 1183 1271 1296 1167 1195 1202 1222 1194 1224 1238 1208 1216 1212 1232 1171 1193 1240 1161 1251 1181 1176 1228 1255 1215 1224 1191 1207 1197 1240 1257 1183 1237 1247 1215 1243 1219 1232 1223 1294 1185 1241 1222 1244 1167 1168 1184 1194 1274 1229 1254 1244 1265 1184 1205 1252 1157 1208 1256 1265 1206 1104 1203 1197 1169 1245 1236 1217 1181 1252 1214 1247 1241 1234 1206 1230 1254 1169 1307 1241 1260 1192 1255 1207 1286 1206 1247 1184 1273 1214 1166 1246 1266 1160 1273 1226 1226 1252 1194 1276 1238 1185 1208 1228 1240 1258 1194 1206 1213 1228 1280 1322 1225 1235 1203 1243 1208 1334 1285 1252 1246 1269 1243 1313 1264 1225 1226 1269 1247 1329 1204 1298 1168 1252 1260 1277 1225 1262 1272 1277 1245 1187 1316 1227 1273 1245 1235 1225 1258 1252 1265 1235 1252 1270 1275 1227 1226 1221 1264 1241 1216 1175 1247 1252 1270 1248 1302 1246 1259 1239 1258 1218 1244 1254 1301 1233 1200 1215 1238 1153 1257 1286 1224 1241 1246 1290 1214 1322 1226 1256 1280 1185 1264 1280 1297 1312 1258 1248 1243 1321 1343 1309 1340 1353 1444 1420 1371 1433 1400 1460 1481 1406 1397 1478 1514 1525 1558 1537 1583 1589 1557 1563 1588 1525 1609 1585 1734 1614 1612 1628 1583 1639 1572 1619 1645 1654 1548 1538 1606 1466 1476 1469 1502 1461 1398 1364 1398 1371 1352 1338 1384 1348 1332 1329 1286 1260 1277 1276 1159 1168 1244 1236 1269 1221 1247 1259 1232 1253 1187 1250 1203 1181 1222 1280 1256 1224 1244 1205 1139 1204 1203 1251 1249 1350 1232 1188 1226 1219 1255 1203 1207 1211 1222 1199 1246 1229 1255 1220 1222 1194 1175 1220 1195 1232 1231 1160 1192 1232 1186 1194 1184 1199 1212 1217 1210 1209 1256 1135 1146 1243 1170 1177 1138 1152 1206 1197 1217 1187 1234 1205 1233 1256 1248 1229 1220 1185 1190 1221 1162 1208 1184 1157 1226 1144 1193 1269 1223 1200 1233 1236 1265 1116 1224 1127 1190 1233 1167 1153 1199 1193 1221 1210 1163 1234 1224 1242 1242 1194 1216 1223 1223 1205 1237 1295 1215 1231 1134 1223 1240 1252 1243 1229 1248 1261 1219 1246 1187 1178 1183 1265 1212 1222 1209 1167 1161 1189 1222 1138 1241 1259 1202 1252 1224 1193 1149 1239 1213 1145 1173 1165 1192 1263 1232 1173 1191 1263 1167 1162 1175 1210 1189 1230 1202 1207 1220 1203 1212 1186 1217 1226 1155 1265 1178 1267 1163 1182 1222 1214 1219 1202 1195 1161 1175 1192 1222 1265 1196 1224 1250 1125 1271 1197 1248 1201 1222 1245 1232 1197 1172 1185 1212 1180 1207 1260 1242 1248 1281 1223 1266 1238 1245 1185 1210 1199 1208 1233 1211 1248 1277 1173 1218 1203 1244 1254 1258 1166 1142 1220 1216 1236 1251 1241 1168 1263 1242 1220 1274 1197 1192 1259 1242 1246 1185 1174 1258 1214 1204 1304 1207 1235 1272 1248 1207 1242 1215 1214 1141 1268 1249 1180 1225 1213 1216 1243 1196 1167 1233 1192 1239 1244 1208 1238 1220 1268 1188 1218 1232 1200 1193 1258 1214 1228 1297 1194 1212 1276 1268 1234 1228 1296 1205 1146 1248 1212 1254 1211 1271 1259 1263 1204 1242 1285 1328 1273 1355 1317 1284 1306 1317 1288 1284 1357 1343 1301 1363 1383 1368 1408 1360 1474 1445 1486 1479 1512 1539 1601 1644 1690 1683 1748 1694 1830 1965 1940 2001 2065 2169 2202 2215 2313 2347 2501 2533 2576 2604 2800 2873 2956 2874 2952 2910 2983 3105 3090 3149 3260 3308 3366 3362 3453 3399 3318 3362 3296 3359 3380 3223 3154 3093 3085 3079 2910 2870 2767 2638 2595 2495 2509 2336 2256 2266 2211 2180 2026 1983 1897 1796 1841 1741 1742 1705 1711 1675 1638 1582 1618 1586 1594 1614 1603 1541 1622 1617 1639 1557 1565 1565 1687 1642 1709 1618 1779 1727 1736 1791 1868 1760 1684 1732 1839 1784 1761 1764 1689 1673 1670 1658 1673 1647 1589 1545 1503 1519 1522 1532 1479 1443 1468 1422 1439 1406 1359 1309 1289 1326 1325 1249 1313 1258 1271 1305 1353 1294 1320 1294 1291 1293 1359 1276 1287 1277 1256 1299 1299 1232 1294 1254 1264 1241 1261 1235 1246 1222 1301 1250 1230 1209 1263 1256 1236 1278 1249 1255 1296 1330 1242 1227 1283 1257 1282 1248 1233 1219 1276 1276 1230 1223 1198 1246 1239 1153 1234 1254 1204 1252 1202 1205 1254 1213 1266 1198 1186 1197 1217 1190 1251 1222 1292 1241 1196 1239 1232 1285 1219 1224 1230 1261 1214 1202 1230 1192 1215 1136 1225 1204 1187 1192 1228 1289 1236 1251 1177 1239 1256 1241 1232 1165 1172 1209 1193 1301 1255 1261 1295 1240 1269 1284 1366 1336 1304 1322 1341 1350 1314 1376 1415 1375 1387 1345 1412 1380 1338 1448 1394 1433 1454 1483 1440 1460 1466 1419 1469 1490 1496 1518 1481 1456 1447 1468 1468 1459 1453 1411 1451 1410 1417 1426 1367 1491 1376 1460 1363 1350 1289 1330 1339 1334 1287 1352 1272 1349 1260 1297 1271 1299 1276 1255 1243 1272 1227 1274 1232 1336 1303 1272 1257 1266 1270 1262 1253 1211 1218 1202 1224 1247 1301 1181 1273 1232 1202 1154 1235 1184 1223 1241 1196 1143 1225 1213 1242 1200 1169 1137 1249 1267 1201 1191 1162 1192 1218 1127 1222 1176 1148 1154 1199 1209 1198 1202 1236 1176 1127 1183 1129 1132 1244 1173 1220 1136 1186 1158 1126 1191 1162 1162 1141 1217 1234 1177 1143 1138 1202 1191 1182 1216 1205 1159 1202 1194 1171 1216 1194 1183 1146 1146 1190 1211 1185 1210 1268 1194 1201 1149 1170 1167 1171 1242 1157 1156 1203 1199 1195 1105 1148 1214 1143 1118 1167 1145 1166 1188 1165 1179 1179 1178 1211 1211 1139 1119 1214 1061 1143 1208 1208 1150 1123 1103 1167 1159 1138 1197 1122 1210 1179 1171 1156 1200 1174 1207 1213 1208 1206 1237 1182 1136 1119 1203 1160 1163 1168 1157 1092 1184 1197 1187 1138 1190 1170 1191 1185 1134 1178 1144 1139 1190 1108 1166 1133 1145 1251 1195 1171 1126 1192 1225 1135 1169 1162 1122 1152 1164 1154 1189 1152 1152 1171 1153 1251 1156 1187 1151 1207 1161 1153 1163 1091 1111 1116 1110 1170 1156 1118 1151 1194 1148 1185 1102 1145 1118 1147 1116 1171 1109 1153 1126 1209 1199 1204 1147 1212 1153 1158 1206 1138 1191 1203 1156 1279 1176 1232 1182 1182 1203 1201 1139 1180 1162 1221 1254 1175 1219 1174 1204 1270 1161 1105 1162 1174 1170 1180 1174 1165 1181 1207 1211 1119 1218 1091 1106 1136 1109 1121 1170 1204 1135 1154 1139 1155 1135 1146 1143 1170 1159 1178 1104 1171 1121 1101 1112 1072 1105 1225 1146 1116 1163 1110 1123 1184 1115 1204 1153 1104 1081 1170 1131 1099 1119 1074 1230 1173 1154 1110 1122 1156 1159 1092 1151 1151 1148 1117 1158 1160 1144 1164 1130 1138 1109 1154 1132 1124 1128 1148 1163 1059 1123 1145 1130 1159 1086 1157 1162 1118 1150 1147 1137 1065 1145 1154 1187 1128 1118 1123 1107 1146 1096 1151 1113 1091 1126 1087 1116 1205 1155 1144 1161 1145 1121 1093 1189 1188 1169 1156 1162 1148 1133 1171 1192 1139 1130 1105 1184 1132 1128 1141 1137 1107 1115 1141 1097 1091 1123 1176 1101 1143 1148 1106 1143 1175 1110 1108 1131 1119 1073 1095 1138 1161 1119 1112 1125 1074 1170 1135 1118 1160 1167 1165 1157 1205 1097 1134 1171 1123 1154 1141 1115 1184 1133 1106 1187 1152 1135 1191 1182 1209 1132 1160 1066 1132 1103 1136 1148 1170 1132 1128 1121 1127 1192 1149 1113 1170 1087 1133 1130 1138 1119 1162 1103 1153 1185 1215 1121 1110 1144 1124 1125 1108 1144 1202 1119 1145 1069 1172 1172 1092 1160 1207 1138 1142 1188 1131 1139 1131 1200 1188 1167 1128 1177 1168 1216 1116 1123 1122 1040 1159 1136 1161 1120 1150 1179 1200 1198 1125 1161 1169 1140 1132 1170 1153 1156 1107 1139 1173 1162 1141 1107 1176 1203 1125 1159 1180 1139 1189 1206 1226 1231 1169 1251 1263 1179 1213 1195 1194 1179 1107 1182 1206 1181 1240 1193 1177 1148 1154 1206 1263 1172 1229 1177 1242 1147 1189 1169 1213 1187 1182 1185 1206 1237 1196 1240 1245 1227 1225 1201 1175 1215 1236 1253 1215 1166 1206 1240 1163 1256 1205 1229 1268 1268 1244 1234 1197 1168 1181 1193 1284 1270 1302 1272 1369 1336 1334 1257 1369 1306 1286 1246 1337 1327 1377 1274 1351 1365 1349 1372 1379 1383 1381 1435 1488 1397 1428 1361 1293 1378 1348 1379 1339 1295 1361 1337 1285 1293 1317 1260 1281 1293 1276 1261 1206 1261 1301 1295 1279 1253 1200 1215 1253 1224 1208 1246 1282 1175 1226 1214 1272 1265 1236 1206 1271 1279 1152 1283 1290 1307 1289 1316 1264 1280 1276 1283 1360 1356 1357 1352 1348 1317 1279 1304 1308 1404 1339 1364 1351 1389 1344 1397 1375 1358 1304 1360 1314 1342 1327 1281 1303 1363 1387 1326 1258 1339 1319 1252 1266 1279 1239 1288 1218 1244 1271 1226 1165 1153 1202 1258 1161 1181 1181 1188 1161 1135 1118 1155 1187 1158 1149 1159 1091 1166 1162 1126 1225 1190 1146 1130 1136 1132 1128 1111 1127 1125 1144 1144 1101 1163 1222 1109 1162 1249 1152 1174 1198 1118 1099 1224 1121 1101 1095 1105 1149 1146 1186 1162 1182 1177 1129 1155 1126 1114 1188 1128 1152 1204 1122 1200 1177 1124 1099 1188 1191 1132 1118 1124 1162 1192 1164 1144 1137 1154 1160 1163 1205 1098 1191 1194 1142 1128 1115 1188 1137 1205 1182 1156 1213 1158 1177 1131 1182 1123 1186 1171 1127 1143 1195 1178 1154 1203 1183 1166 1111 1206 1135 1160 1191 1146 1084 1154 1226 1152 1158 1199 1232 1179 1196 1231 1204 1152 1267 1231 1215 1148 1178 1314 1228 1263 1262 1258 1253 1340 1334 1267 1377 1268 1294 1298 1402 1332 1402 1452 1420 1414 1528 1433 1414 1436 1435 1490 1553 1549 1533 1565 1535 1551 1488 1563 1548 1588 1643 1622 1634 1686 1684 1668 1686 1699 1616 1681 1581 1686 1593 1598 1542 1497 1571 1579 1518 1587 1533 1536 1447 1499 1456 1478 1435 1463 1356 1329 1356 1335 1322 1290 1293 1350 1328 1269 1307 1204 1241 1281 1284 1194 1170 1139 1216 1185 1188 1245 1251 1257 1250 1215 1187 1184 1200 1136 1199 1174 1177 1290 1226 1217 1252 1285 1242 1245 1261 1269 1258 1276 1251 1315 1208 1317 1222 1296 1297 1382 1281 1235 1290 1267 1301 1219 1273 1242 1182 1225 1337 1241 1249 1209 1250 1221 1259 1237 1234 1244 1216 1183 1225 1149 1148 1220 1139 1165 1214 1139 1146 1157 1196 1186 1159 1151 1136 1143 1144 1147 1191 1138 1171 1145 1092 1143 1155 1128 1188 1151 1169 1133 1121 1165 1163 1078 1166 1092 1084 1149 1131 1157 1133 1144 1168 1170 1203 1128 1208 1145 1227 1127 1180 1184 1196 1115 1127 1124 1190 1219 1142 1129 1112 1100 1209 1130 1167 1198 1123 1153 1115 1182 1140 1240 1227 1256 1255 1188 1256 1211 1224 1193 1269 1259 1164 1259 1292 1313 1192 1269 1266 1274 1299 1302 1228 1250 1262 1247 1261 1210 1313 1282 1269 1275 1288 1263 1238 1237 1297 1215 1164 1194 1217 1247 1258 1239 1261 1234 1244 1179 1252 1237 1227 1239 1197 1218 1176 1176 1192 1191 1171 1183 1174 1186 1156 1234 1229 1190 1144 1179 1174 1124 1115 1178 1158 1181 1161 1180 1187 1189 1134 1122 1146 1149 1106 1108 1154 1106 1114 1158 1103 1143 1157 1195 1127 1090 1165 1152 1082 1167 1105 1158 1159 1155 1156 1128 1208 1171 1163 1114 1127 1131 1122 1117 1151 1142 1104 1135 1135 1120 1164 1065 1137 1097 1126 1134 1172 1145 1139 1125 1099 1091 1065 1107 1056 1129 1088 1132 1113 1135 1142 1170 1154 1159 1128 1157 1180 1114 1103 1102 1170 1107 1079 1080 1172 1183 1152 1144 1133 1121 1208 1095 1154 1148 1195 1079 1166 1118 1118 1113 1135 1113 1100 1115 1118 1167 1123 1151 1128 1129 1100 1143 1169 1153 1083 1113 1164 1150 1100 1054 1113 1136 1090 1159 1075 1095 1142 1172 1208 1183 1082 1095 1140 1121 1134 1140 1130 1116 1173 1075 1165 1086 1071 1093 1162 1098 1121 1056 1113 1123 1115 1098 1069 1077 1111 1074 1148 1131 1119 1150 1089 1129 1120 1124 1159 1135 1089 1079 1090 1132 1127 1169 1127 1124 1127 1065 1126 1147 1060 1072 1186 1084 1104 1141 1177 1108 1135 1109 1146 1114 1089 1168 1127 1162 1105 1077 1069 1134 1048 1076 1049 1127 1072 1114 1105 1112 1118 1129 1126 1105 1181 1132 1112 1114 1119 1055 1093 1175 1118 1090 1105 1084 1154 1158 1205 1158 1149 1149 1188 1096 1135 1167 1154 1119 1163 1074 1159 1078 1111 1112 1087 1067 1084 1165 1069 1159 1079 1146 1125 1071 1079 1136 1116 1140 1156 1045 1086 1114 1160 1117 1071 1116 1170 1117 1087 1135 1126 1189 1068 1116 1081 1142 1071 1135 1087 1132 1083 1158 1082 1125 1164 1086 1087 1135 1086 1086 1107 1144 1092 1037 1127 1115 1114 1107 1094 1099 1095 1123 1187 1052 1125 1192 1086 1158 1109 1057 1054 1128 1119 1093 1148 1091 1130 1107 1109 1096 1081 1143 1128 1146 1119 1106 1079 1077 1142 1136 1091 1160 1123 1069 1070 1143 1135 1051 1148 1123 1047 1071 1109 1115 1104 1158 1161 1128 1159 1123 1108 1144 1137 1085 1152 1135 1092 1078 1078 1096 1104 1049 1129 1101 1140 1106 1086 1142 1153 1112 1162 1121 1103 1104 1128 1173 1124 1111 1120 1096 1126 1107 1101 1167 1145 1080 1085 1128 1112 1142 1052 1103 1107 1098 1061 1090 1140 1127 1119 1127 1076 1099 1112 1091 1107 1147 1070 1121 1130 1167 1146 1093 1123 1133 1147 1175 1090 1091 1110 1125 1141 1086 1177 1135 1150 1123 1096 1152 1135 1191 1164 1187 1187 1159 1127 1179 1182 1169 1129 1133 1123 1152 1156 1138 1155 1153 1115 1213 1135 1113 1141 1166 1216 1183 1174 1176 1174 1133 1156 1221 1187 1193 1208 1121 1121 1179 1130 1188 1174 1209 1178 1214 1124 1187 1189 1171 1127 1172 1081 1201 1141 1204 1188 1206 1198 1113 1141 1125 1198 1157 1137 1104 1175 1175 1158 1186 1156 1188 1147 1180 1142 1107 1132 1084 1115 1128 1145 1136 1157 1159 1146 1170 1129 1125 1176 1104 1096 1130 1136 1115 1100 1134 1064 1062 1167 1168 1111 1113 1141 1195 1170 1141 1112 1097 1103 1065 1099 1117 1114 1147 1119 1107 1164 1072 1081 1102 1158 1048 1082 1086 1111 1080 1111 1098 1059 1021 1176 1128 1144 1087 1065 1042 1096 1104 1061 1117 1088 1087 1090 1133 1104 1097 1090 1064 1157 1123 1112 1065 1127 1088 1167 1088 1164 1111 1115 1200 1136 1113 1062 1114 1098 1166 1118 1076 1048 1135 1100 1101 1039 1151 1140 1186 1118 1155 1083 1114 1104 1138 1097 1097 1071 1128 1097 1088 1134 1081 1161 1088 1155 1054 1049 1141 1099 1073 1083 1128 1064 1134 1094 1125 1128 1147 1141 1151 1125 1027 1109 1071 1119 1138 1079 1078 1116 1135 1058 1107 1143 1091 1113 1083 1141 1131 1074 1045 1186 1076 1118 1130 1099 1057 1075 1091 1109 1094 1175 1175 1068 1081 1069 1143 1081 1130 1151 1093 1137 1179 1139 1155 1104 1099 1063 1075 1153 1106 1078 1162 1100 1073 1055 1101 1080 1090 1132 1076 1061 1092 1082 1142 1074 1126 1070 1096 1109 1156 1079 1091 1107 1202 1092 1107 1094 1066 1112 1056 1129 1129 1131 1084 1105 1050 1078 1062 1104 1192 1166 1109 1106 1145 1132 1172 1141 1151 1147 1181 1075 1127 1126 1143 1166 1189 1172 1192 1183 1185 1160 1242 1161 1207 1283 1183 1205 1209 1182 1180 1206 1204 1192 1231 1235 1215 1299 1213 1291 1231 1150 1313 1244 1310 1252 1249 1346 1328 1230 1337 1221 1257 1266 1230 1272 1217 1300 1255 1247 1270 1278 1303 1254 1275 1298 1255 1264 1241 1233 1233 1273 1259 1225 1259 1197 1201 1154 1190 1181 1137 1197 1127 1214 1191 1203 1139 1152 1102 1218 1143 1173 1167 1135 1142 1129 1128 1170 1108 1131 1128 1168 1103 1111 1078 1088 1140 1135 1147 1133 1104 1134 1111 1134 1181 1117 1157 1171 1095 1167 1188 1150 1113 1166 1129 1109 1112 1164 1132 1130 1166 1191 1166 1208 1174 1214 1192 1145 1137 1174 1197 1232 1152 1171 1151 1159 1188 1116 1157 1116 1144 1124 1160 1134 1174 1124 1112 1178 1139 1156 1183 1177 1152 1030 1119 1167 1181 1105 1116 1167 1118 1122 1104 1118 1080 1114 1144 1128 1137 1126 1085 1145 1106 1142 1117 1097 1106 1112 1089 1020 1136 1032 1158 1079 1112 1088 1121 1074 1122 1137 1110 1077 1085 1157 1124 1101 1090 1098 1154 1113 1122 1085 1019 1117 1110 1124 1106 1081 1112 1130 1131 1097 1081 1086 1122 1091 1075 1086 1143 1141 1130 1143 1138 1127 1129 1162 1044 1079 1101 1186 1131 1109 1129 1106 1058 1139 1132 1069 1092 1079 1147 1123 1128 1188 1065 1120 1086 1107 1052 1134 1078 1124 1079 1085 1155 1149 1086 1109 1087 1104 1128 1077 1080 1145 1145 1101 1156 1095 1116 1030 1117 1105 1101 1079 1178 1097 1109 1112 1073 1076 1038 1150 1104 1092 1114 1100 1143 1082 1047 1136 1087 1069 1090 1081 1091 1131 1059 1143 1164 1135 1086 1126 1126 1119 1142 1127 1151 1128 1083 1158 1135 1114 1142 1145 1090 1169 1088 1054 1112 1100 1140 1165 1080 1048 1108 1133 1094 1115 1094 1118 1192 1071 1120 1101 1119 1166 1069 1161 1082 1174 1185 1119 1126 1115 1143 1140 1130 1096 1102 1121 1126 1116 1114 1077 1124 1069 1090 1110 1119 1101 1095 1099 1080 1046 1067 1110 1064 1039 1121 1106 1060 1090 1087 1128 1099 1074 1163 1139 1102 1123 1115 1166 1136 1118 1115 1062 1141 1131 1094 1084 1076 1059 1082 1101 1107 1135 1050 1118 1159 1082 1124 1154 1112 1115 1090 1065 1084 1177 1131 1160 1065 1126 1087 1135 1082 1134 1094 1076 1145 1157 1085 1121 1115 1141 1152 1081 1051 1111 1157 1134 1149 1163 1141 1158 1073 1073 1113 1092 1098 1110 1123 1035 1133 1132 1119 1133 1123 1145 1107 1150 1186 1119 1151 1095 1129 1120 1095 1125 1139 1081 1039 1121 1198 1102 1068 1087 1111 1070 1144 1178 1124 1133 1133 1145 1063 1138 1082 1115 1116 1114 1124 1039 1064 1114 1112 1060 1181 1083 1080 1124 1139 1102 1139 1096 1126 1165 1098 1146 1036 1130 1056 1109 1063 1145 1078 1111 1104 1142 1084 1085 1138 1059 1118 1102 1118 1108 1141 1117 1163 1116 1148 1113 1114 1121 1137 1127 1119 1093 1116 1102 1063 1122 1078 1081 1067 1182 1158 1052 1059 1061 1121 1101 1110 1143 1110 1132 1095 1114 1122 1080 1094 1137 1024 1134 1069 1103 1139 1148 1067 1157 1109 1144 1139 1072 1031 1144 1131 1102 1084 1096 1086 1186 1142 1169 1105 1133 1124 1184 1078 1179 1091 1108 1075 1081 1181 1143 1083 1152 1097 1135 1056 1147 1117 1080 1090 1128 1109 1107 1124 1089 1139 1098 1138 1116 1107 1159 1106 1099 1137 1115 1127 1154 1112 1104 1192 1132 1146 1214 1127 1137 1178 1157 1111 1085 1128 1148 1148 1135 1133 1095 1166 1175 1086 1135 1060 1096 1146 1100 1151 1086 1098 1144 1098 1171 1144 1165 1153 1163 1094 1112 1136 1150 1125 1105 1123 1147 1160 1113 1127 1149 1152 1213 1142 1100 1149 1170 1217 1157 1185 1130 1162 1223 1147 1136 1180 1161 1135 1105 1148 1095 1266 1231 1135 1179 1202 1225 1167 1165 1233 1207 1187 1183 1170 1189 1149 1193 1180 1195 1194 1162 1183 1199 1170 1208 1183 1235 1175 1146 1239 1142 1125 1170 1187 1162 1123 1211 1206 1174 1185 1172 1216 1179 1235 1160 1205 1246 1155 1160 1162 1117 1242 1160 1182 1121 1173 1153 1173 1151 1225 1151 1209 1218 1171 1177 1233 1176 1212 1166 1167 1199 1254 1204 1164 1215 1163 1242 1184 1133 1219 1188 1162 1185 1135 1152 1173 1144 1222 1095 1186 1159 1139 1123 1099 1137 1171 1171 1158 1139 1185 1139 1140 1092 1172 1219 1145 1147 1167 1128 1122 1130 1159 1248 1195 1113 1183 1145 1100 1130 1168 1088 1189 1117 1152 1127 1139 1175 1146 1176 1129 1137 1113 1154 1105 1170 1144 1191 1079 1162 1144 1120 1179 1099 1212 1168 1193 1164 1171 1181 1207 1125 1100 1135 1191 1179 1154 1178 1204 1117 1165 1176 1195 1234 1181 1161 1239 1180 1175 1200 1215 1197 1222 1220 1181 1150 1277 1209 1173 1169 1206 1173 1149 1203 1188 1225 1181 1206 1106 1166 1161 1201 1194 1151 1167 1173 1207 1135 1201 1137 1225 1171 1151 1087 1233 1217 1150 1175 1213 1119 1165 1163 1170 1189 1161 1166 1196 1183 1149 1145 1115 1192 1157 1185 1178 1134 1153 1156 1221 1228 1132 1116 1112 1194 1164 1197 1164 1192 1150 1166 1164 1139 1150 1130 1191 1177 1163 1167 1219 1177 1162 1282 1194 1246 1263 1211 1223 1270 1199 1208 1162 1255 1200 1234 1172 1248 1288 1312 1285 1325 1243 1317 1284 1332 1286 1321 1327 1342 1290 1376 1343 1377 1387 1336 1441 1432 1353 1446 1428 1432 1498 1455 1477 1427 1516 1589 1484 1472 1523 1516 1528 1456 1528 1549 1500 1545 1421 1486 1539 1568 1546 1484 1498 1509 1431 1512 1589 1471 1474 1490 1427 1469 1453 1393 1474 1406 1363 1397 1378 1382 1382 1398 1435 1395 1365 1354 1365 1332 1297 1329 1311 1290 1349 1312 1241 1311 1283 1224 1164 1270 1196 1240 1187 1245 1216 1200 1131 1140 1238 1217 1181 1173 1159 1217 1164 1182 1170 1162 1187 1144 1201 1126 1145 1139 1240 1188 1174 1158 1180 1160 1162 1142 1215 1143 1176 1207 1202 1176 1113 1213 1083 1234 1187 1228 1167 1212 1186 1192 1229 1173 1246 1253 1158 1244 1195 1142 1191 1194 1218 1202 1228 1218 1246 1168 1219 1188 1229 1263 1181 1250 1274 1258 1194 1283 1236 1253 1244 1221 1245 1182 1169 1247 1232 1254 1192 1149 1231 1191 1226 1246 1243 1204 1244 1250 1210 1203 1143 1239 1217 1254 1175 1237 1164 1219 1204 1194 1175 1137 1200 1173 1193 1177 1211 1213 1229 1175 1160 1241 1197 1142 1150 1226 1131 1155 1105 1181 1174 1157 1216 1202 1138 1189 1183 1192 1209 1161 1155 1135 1123 1216 1183 1106 1194 1216 1165 1206 1128 1142 1142 1132 1137 1159 1119 1160 1162 1163 1161 1151 1164 1145 1156 1129 1137 1155 1210 1216 1215 1168 1131 1153 1134 1101 1122 1144 1132 1165 1160 1123 1120 1193 1134 1167 1060 1139 1158 1096 1160 1147 1123 1195 1165 1177 1123 1145 1178 1138 1134 1160 1181 1169 1084 1180 1159 1067 1139 1177 1094 1139 1162 1167 1151 1158 1114 1157 1137 1160 1191 1117 1100 1045 1097 1151 1131 1147 1123 1153 1103 1129 1086 1093 1165 1097 1083 1187 1206 1145 1125 1115 1105 1155 1200 1158 1125 1165 1162 1088 1057 1076 1117 1089 1129 1104 1146 1095 1139 1138 1164 1125 1209 1137 1121 1162 1188 1073 1147 1094 1090 1098 1064 1129 1137 1073 1145 1166 1124 1082 1130 1176 1134 1098 1140 1193 1145 1152 1134 1165 1125 1149 1146 1094 1149 1170 1142 1083 1126 1097 1099 1165 1093 1088 1180 1117 1055 1124 1114 1129 1121 1196 1126 1097 1114 1124 1095 1155 1072 1094 1139 1178 1141 1157 1189 1119 1108 1072 1132 1178 1064 1158 1110 1087 1209 1093 1157 1153 1183 1151 1131 1174 1129 1147 1132 1133 1127 1139 1106 1179 1153 1131 1199 1156 1144 1159 1166 1164 1083 1159 1157 1152 1141 1126 1123 1139 1149 1166 1158 1179 1160 1116 1114 1092 1127 1231 1127 1171 1101 1172 1138 1197 1177 1087 1177 1165 1176 1264 1164 1166 1144 1141 1167 1190 1130 1139 1132 1171 1168 1113 1210 1163 1139 1100 1145 1135 1125 1119 1115 1134 1230 1076 1163 1201 1140 1133 1137 1130 1168 1167 1152 1155 1106 1129 1103 1143 1124 1172 1118 1160 1103 1083 1133 1137 1157 1123 1078 1121 1133 1120 1097 1133 1100 1096 1165 1098 1147 1157 1210 1106 1166 1157 1115 1047 1126 1138 1172 1148 1173 1149 1141 1077 1167 1153 1120 1066 1171 1092 1069 1165 1184 1139 1189 1084 1191 1073 1116 1168 1156 1087 1108 1106 1096 1156 1117 1114 1108 1114 1167 1098 1117 1104 1122 1092 1060 1134 1156 1107 1182 1149 1131 1126 1160 1215 1117 1133 1121 1060 1131 1139 1105 1137 1096 1141 1135 1125 1133 1083 1093 1109 1151 1223 1189 1080 1140 1128 1076 1113 1145 1156 1165 1113 1142 1097 1141 1129 1137 1154 1169 1165 1083 1093 1161 1170 1150 1101 1144 1209 1147 1169 1087 1074 1195 1144 1168 1187 1136 1126 1150 1163 1176 1159 1134 1158 1157 1199 1148 1194 1128 1137 1122 1167 1162 1161 1152 1173 1096 1145 1163 1118 1191 1245 1179 1203 1140 1152 1231 1259 1168 1189 1230 1176 1185 1203 1258 1111 1176 1160 1189 1233 1194 1152 1218 1207 1149 1196 1156 1116 1107 1154 1152 1194 1207 1149 1221 1155 1129 1187 1151 1253 1129 1161 1206 1172 1134 1174 1080 1202 1122 1171 1126 1201 1199 1175 1168 1149 1141 1130 1193 1179 1149 1133 1014 1172 1170 1159 1133 1127 1160 1148 1132 1200 1125 1172 1201 1181 1156 1151 1114 1185 1154 1144 1092 1081 1175 1119 1189 1145 1203 1127 1159 1125 1153 1118 1135 1101 1208 1175 1110 1152 1131 1161 1114 1153 1132 1146 1111 1119 1180 1145 1110 1095 1089 1129 1120 1091 1140 1153 1129 1118 1151 1123 1165 1167 1169 1189 1130 1118 1150 1123 1130 1110 1094 1160 1172 1126 1136 1142 1063 1113 1211 1105 1114 1056 1169 1111 1123 1101 1143 1138 1147 1163 1123 1189 1128 1104 1094 1069 1145 1066 1044 1111 1092 1118 1094 1201 1180 1172 1105 1085 1148 1087 1122 1145 1102 1111 1131 1097 1099 1110 1129 1179 1234 1096 1192 1112 1061 1062 1111 1147 1148 1189 1095 1116 1133 1061 1142 1142 1149 1139 1152 1098 1104 1154 1142 1188 1129 1161 1131 1163 1175 1133 1101 1191 1143 1110 1111 1152 1120 1090 1193 1171 1117 1121 1143 1087 1168 1142 1197 1171 1198 1162 1143 1147 1125 1181 1143 1288 1203 1188 1162 1186 1170 1182 1240 1256 1182 1211 1208 1258 1216 1188 1118 1202 1229 1214 1232 1251 1256 1205 1228 1278 1239 1230 1223 1294 1247 1216 1211 1288 1275 1216 1262 1285 1244 1272 1342 1323 1366 1331 1271 1274 1382 1331 1339 1304 1279 1302 1336 1358 1393 1380 1429 1348 1307 1281 1338 1291 1342 1353 1375 1312 1323 1416 1348 1347 1414 1317 1325 1354 1412 1384 1315 1361 1338 1307 1355 1353 1388 1304 1376 1272 1375 1388 1344 1350 1327 1281 1326 1296 1390 1310 1293 1322 1337 1329 1253 1210 1197 1240 1227 1299 1234 1270 1239 1242 1225 1204 1201 1215 1203 1266 1170 1206 1170 1186 1138 1200 1220 1195 1183 1239 1152 1167 1164 1140 1170 1216 1183 1195 1167 1149 1163 1098 1219 1179 1144 1153 1145 1113 1127 1189 1129 1174 1154 1202 1159 1174 1103 1172 1148 1156 1177 1167 1166 1153 1167 1200 1117 1138 1233 1242 1165 1189 1172 1150 1181 1137 1201 1189 1135 1137 1202 1211 1183 1129 1235 1111 1150 1242 1193 1140 1212 1162 1177 1192 1173 1197 1162 1257 1243 1243 1265 1241 1247 1229 1188 1282 1194 1314 1193 1202 1233 1269 1226 1244 1200 1231 1207 1175 1214 1140 1241 1246 1221 1188 1148 1195 1226 1232 1171 1214 1227 1200 1204 1147 1191 1211 1164 1177 1145 1161 1202 1138 1184 1169 1181 1204 1212 1138 1247 1214 1178 1169 1100 1211 1233 1145 1156 1171 1139 1132 1159 1184 1131 1165 1192 1118 1157 1171 1177 1129 1121 1150 1191 1141 1163 1123 1094 1168 1121 1176 1126 1172 1160 1158 1183 1091 1152 1144 1171 1108 1148 1154 1140 1144 1162 1089 1098 1123 1079 1152 1141 1148 1140 1160 1096 1118 1093 1199 1182 1167 1177 1163 1151 1150 1127 1113 1129 1060 1208 1103 1151 1110 1103 1089 1199 1115 1082 1102 1106 1171 1130 1152 1093 1174 1178 1161 1252 1121 1091 1123 1115 1122 1094 1102 1155 1093 1176 1092 1055 1160 1170 1158 1160 1131 1176 1179 1065 1156 1069 1182 1188 1130 1153 1114 1113 1135 1151 1170 1151 1107 1135 1128 1113 1101 1136 1122 1108 1174 1091 1161 1067 1142 1110 1123 1133 1110 1228 1096 1210 1124 1150 1114 1117 1112 1066 1073 1114 1096 1155 1050 1123 1151 1158 1184 1130 1192 1123 1183 1208 1140 1125 1153 1120 1083 1101 1155 1076 1177 1100 1149 1160 1164 1133 1125 1117 1146 1156 1123 1196 1181 1169 1149 1120 1194 1151 1115 1125 1134 1119 1169 1181 1085 1146 1110 1040 1143 1101 1126 1114 1112 1136 1154 1154 1225 1105 1098 1105 1115 1108 1132 1134 1156 1118 1076 1158 1142 1130 1077 1095 1114 1162 1096 1149 1129 1097 1132 1107 1146 1135 1136 1020 1155 1094 1140 1092 1099 1075 1117 1154 1198 1137 1080 1149 1137 1151 1099 1149 1165 1191 1155 1051 1150 1140 1092 1097 1127 1083 1108 1102 1057 1102 1117 1077 1132 1140 1137 1110 1123 1085 1117 1135 1124 1148 1084 1208 1145 1112 1157 1127 1145 1110 1120 1144 1141 1165 1126 1085 1084 1069 1140 1131 1152 1083 1166 1210 1088 1111 1137 1140 1135 1107 1108 1158 1143 1217 1188 1135 1093 1100 1118 1129 1066 1225 1135 1147 1124 1148 1203 1065 1166 1165 1148 1122 1111 1157 1104 1140 1113 1126 1083 1128 1119 1103 1060 1125 1121 1173 1136 1119 1124 1087 1194 1185 1100 1148 1083 1138 1090 1084 1102 1105 1180 1117 1130 1092 1176 1185 1110 1136 1070 1190 1143 1151 1153 1188 1081 1091 1071 1124 1136 1184 1158 1126 1168 1117 1144 1121 1157 1134 1101 1156 1102 1175 1085 1136 1138 1140 1106 1209 1183 1143 1138 1170 1186 1122 1162 1149 1161 1144 1179 1156 1175 1186 1190 1225 1186 1162 1190 1199 1154 1144 1170 1174 1131 1155 1146 1200 1196 1219 1161 1182 1216 1178 1161 1112 1181 1152 1162 1180 1139 1167 1141 1212 1132 1147 1205 1154 1143 1156 1207 1259 1117 1185 1174 1134 1201 1142 1231 1173 1196 1216 1194 1163 1213 1182 1236 1207 1194 1190 1156 1214 1224</counts>
			</dataPoints>
		</scan>
	</xrdMeasurement>
</xrdMeasurements>
