<?xml version="1.0"?>
<xrdMeasurements xmlns="http://www.xrdml.com/XRDMeasurement/2.3" xmlns:xsi="http://www.w3.org/2001/XMLSchema-instance" xsi:schemaLocation="http://www.xrdml.com/XRDMeasurement/2.3 http://www.xrdml.com/XRDMeasurement/2.3/XRDMeasurement.xsd" status="Completed" recordIdentifier="{92E9C4E3-6D3E-4110-8C6D-733D5D890154}">
	<comment>
		<entry/>
	</comment>
	<sample type="To be analyzed">
		<id>GPSS_Li1p6Fe0p8Zr0p2Cl4_110125_690658b7e3432ed06b655f34</id>
		<name></name>
		<preparedBy></preparedBy>
	</sample>
	<xrdMeasurement measurementType="Scan" status="Completed" sampleMode="Reflection">
		<usedWavelength intended="K-Alpha 1">
			<kAlpha1 unit="Angstrom">1.5405980</kAlpha1>
			<kAlpha2 unit="Angstrom">1.5444260</kAlpha2>
			<kBeta unit="Angstrom">1.3922500</kBeta>
			<ratioKAlpha2KAlpha1>0.5000</ratioKAlpha2KAlpha1>
		</usedWavelength>
		<incidentBeamPath>
			<radius unit="mm">145.00</radius>
			<xRayTube id="1010048" name="Empyrean Cu LFF HR (9430 033 7310x)">
				<tension unit="kV">40.0</tension>
				<current unit="mA">15.0</current>
				<anodeMaterial>Cu</anodeMaterial>
				<focus type="Line">
					<length unit="mm">12.0</length>
					<width unit="mm">0.4</width>
					<takeOffAngle unit="deg">6.0</takeOffAngle>
				</focus>
			</xRayTube>
			<sollerSlit id="21010002" name="Soller slits 0.04 rad.">
				<opening unit="rad">0.0400</opening>
			</sollerSlit>
			<mask id="22031000" name="Fixed mask 13 mm">
				<width unit="mm">9.00</width>
			</mask>
			<divergenceSlit id="22120001" name="Divergence slit 1°" xsi:type="fixedDivergenceSlitType">
				<distanceToSample unit="mm">50.00</distanceToSample>
				<height unit="mm">1.52</height>
			</divergenceSlit>
		</incidentBeamPath>
		<sampleMovement xsi:type="spinningSampleMovementType">
			<spinnerRevolutionTime unit="seconds">1.0</spinnerRevolutionTime>
		</sampleMovement>
		<diffractedBeamPath>
			<radius unit="mm">145.00</radius>
			<antiScatterSlit id="22090040" name="AS slit 9 mm (PIXcel)" xsi:type="fixedAntiScatterSlitType">
				<height unit="mm">9.00</height>
			</antiScatterSlit>
			<sollerSlit id="21020003" name="Large Soller slits 0.04 rad.">
				<opening unit="rad">0.0400</opening>
			</sollerSlit>
			<filter id="20030001" name="Large beta-filter Nickel">
				<material>Ni</material>
				<thickness unit="mm">0.020</thickness>
			</filter>
			<detector id="7010019" name="PIXcel1D-Medipix3 detector" xsi:type="rtmsDetectorType">
				<phd unit="keV">
					<lowerLevel>4.02</lowerLevel>
					<upperLevel>11.27</upperLevel>
				</phd>
				<mode>Scanning</mode>
				<activeLength unit="deg">5.542</activeLength>
			</detector>
		</diffractedBeamPath>
		<scan appendNumber="0" mode="Continuous" scanAxis="Gonio" status="Completed">
			<header>
				<startTimeStamp>2025-11-03T13:27:11-08:00</startTimeStamp>
				<endTimeStamp>2025-11-03T13:35:18-08:00</endTimeStamp>
				<author>
					<name>AutomatedUser</name>
				</author>
				<source>
					<applicationSoftware version="1.7b (136)">PANalytical Aeris Instrument Suite</applicationSoftware>
					<instrumentControlSoftware version="3.2.00000000 20240306">AERIS</instrumentControlSoftware>
					<instrumentID>950485</instrumentID>
				</source>
			</header>
			<dataPoints>
				<positions axis="2Theta" unit="deg">
					<startPosition>10.00943322</startPosition>
					<endPosition>99.99442286</endPosition>
				</positions>
				<positions axis="Omega" unit="deg">
					<startPosition>5.00471661</startPosition>
					<endPosition>49.99721143</endPosition>
				</positions>
				<commonCountingTime unit="seconds">12.495</commonCountingTime>
				<counts unit="counts">3396 3530 3403 3534 3385 3615 3399 3489 3407 3457 3401 3436 3439 3410 3467 3406 3591 3454 3491 3379 3563 3515 3558 3488 3475 3533 3619 3601 3543 3492 3563 3524 3510 3511 3601 3536 3515 3492 3688 3630 3591 3561 3430 3658 3582 3502 3565 3634 3667 3615 3564 3609 3686 3653 3632 3642 3724 3718 3771 3735 3863 3754 3831 3794 3835 3734 3751 3874 3863 3899 4058 3929 4091 4110 4157 4206 4201 4123 4115 4130 4247 4176 4268 4186 4168 4226 4205 4185 4269 4284 4229 4196 4222 4128 4254 4065 4188 4096 4075 4048 4053 3980 4025 3911 3931 3940 3829 3969 3871 3979 3958 3922 3919 3920 3996 3847 3804 3947 3785 3846 3933 3830 3843 3956 3882 3836 3873 4037 3941 3866 3915 3943 3947 3872 3841 3834 3908 3928 3866 3865 3847 3871 3972 3921 3866 3885 3907 3897 3895 3940 3887 3943 3950 3797 3868 3864 4027 3840 3928 3945 3987 3912 3905 3857 3992 3977 3919 3927 3920 3911 3767 3863 3861 3908 3889 3852 3903 3917 3870 3946 3928 3956 3867 3894 3853 3830 3829 4005 3870 3942 3984 3914 3864 3791 3874 3911 3878 3880 3856 3870 3850 3698 3870 4039 3919 3812 3821 3917 3844 3970 3899 3757 3781 3701 3858 3831 3821 3791 3835 3908 3874 3834 3827 3785 3823 3852 3810 3742 3783 3774 3911 3802 3721 3720 3870 3741 3836 3830 3820 3729 3732 3793 3830 3780 3728 3708 3632 3791 3709 3891 3740 3834 3850 3618 3672 3795 3736 3759 3750 3869 3820 3811 3741 3786 3665 3659 3732 3670 3748 3687 3671 3607 3767 3702 3827 3678 3745 3734 3791 3670 3758 3693 3742 3831 3569 3752 3818 3667 3769 3803 3678 3712 3669 3764 3750 3786 3835 3694 3717 3729 3745 3770 3800 3828 3756 3835 3778 3850 3805 3776 3734 3742 3737 3643 3821 3678 3901 3870 3824 3810 3816 3802 3797 3724 3848 3873 3849 3856 3927 3836 3830 3826 3868 3809 3849 3843 3913 3818 3949 3819 3829 3870 3941 3781 3873 3870 4001 3864 3903 4003 3880 3969 3888 3911 4004 4049 4021 3918 3835 3915 3917 3890 3903 3922 4019 3970 3901 3988 3913 3902 4085 4047 4023 4008 4033 4072 3888 3912 4018 3959 4114 4008 3987 4084 3927 4118 3930 4107 4090 3989 4043 3904 4004 3980 4061 4067 4016 4080 4035 4018 4150 4072 4073 4187 4022 3964 4109 4064 4057 4067 4120 4075 4153 4180 4091 4186 4229 4199 4319 4167 4196 4192 4234 4265 4392 4312 4423 4520 4367 4505 4342 4581 4460 4645 4647 4686 4872 4851 4719 4864 4939 4968 5030 5194 5254 5229 5186 5338 5386 5573 5349 5600 5671 5708 5711 5897 5759 5928 5948 6028 5936 5928 5736 5740 5774 5605 5633 5686 5516 5624 5492 5357 5440 5300 5396 5236 5377 5330 5448 5246 5297 5160 5216 5082 5251 5203 5132 5146 5014 4989 4882 4976 4824 4720 4698 4624 4496 4398 4322 4300 4159 4024 3976 3969 3912 3902 3924 3794 3789 3761 3733 3777 3777 3768 3692 3749 3771 3724 3656 3832 3641 3717 3573 3662 3655 3726 3597 3710 3644 3729 3762 3666 3665 3609 3645 3703 3778 3661 3771 3627 3716 3699 3601 3698 3567 3695 3657 3689 3667 3562 3652 3605 3616 3667 3616 3624 3529 3558 3495 3523 3462 3452 3556 3496 3584 3543 3416 3459 3402 3444 3506 3523 3468 3469 3404 3497 3444 3369 3442 3354 3457 3440 3327 3489 3396 3330 3367 3470 3339 3340 3273 3365 3326 3348 3299 3426 3382 3390 3347 3424 3420 3413 3396 3338 3351 3429 3331 3218 3315 3311 3355 3316 3187 3240 3221 3289 3272 3253 3249 3365 3411 3275 3328 3340 3247 3272 3377 3246 3331 3387 3318 3265 3201 3262 3266 3224 3322 3285 3407 3309 3401 3248 3444 3301 3345 3332 3392 3158 3363 3284 3387 3317 3275 3268 3107 3257 3352 3317 3374 3309 3393 3330 3188 3320 3298 3411 3298 3235 3298 3391 3216 3329 3348 3233 3315 3319 3306 3411 3369 3315 3315 3259 3260 3237 3196 3213 3393 3272 3242 3279 3189 3312 3177 3171 3169 3277 3166 3126 3154 3261 3145 3224 3158 3133 3261 3178 3286 3177 3208 3208 3077 3148 3186 3194 3171 3185 3072 3118 3146 3185 3156 3179 3193 3204 3233 3187 3213 3159 3165 3150 3214 3006 3159 3083 3123 3149 3093 3118 3159 3165 3160 3027 3200 3171 3157 3124 3110 3169 3131 3035 3135 3114 3054 3151 3156 3077 3144 3150 3131 3120 3195 3079 3105 3206 3090 3080 3146 2992 3031 3137 3088 3067 3153 3094 3309 3022 3065 3019 3142 3135 2999 3131 3041 3136 3099 3175 3084 3144 3103 3083 3022 3090 3039 3135 3042 3113 3147 3118 3069 3116 3024 3114 3100 3116 3020 3042 3100 3062 3110 3019 3121 3096 3047 3033 3120 3056 3069 3125 3138 3089 3062 3085 3006 2932 3024 3068 3076 3048 3020 3031 3093 3032 2984 2996 2968 3013 2960 3018 3012 3069 3020 2975 2974 2919 2992 3045 2955 3004 3042 3027 3009 2983 2964 2943 2957 2956 2859 3044 2974 2919 2983 3030 3111 3042 2914 2923 2949 2992 3027 3026 2984 2943 2873 2842 3024 2970 3003 2919 2963 2979 2921 2964 2889 2933 3000 2987 2991 2943 2904 2933 2961 2926 2932 2986 2789 2987 2965 2968 2946 2900 2849 2938 2954 2847 2891 2883 2815 2846 2871 2938 2857 2897 2898 2913 2942 2915 2976 2960 2913 2892 2880 2846 2889 2931 2935 2950 2803 2886 2854 2928 2880 2953 2937 2865 2867 2901 2927 2942 2933 2844 2982 2865 2940 2938 2905 2805 3013 2874 2981 2799 2806 2978 2865 2950 2829 2824 3012 2909 2885 2976 2843 2981 2797 2790 2831 2879 2912 2802 2891 2788 2895 2903 2925 2852 2728 2941 2918 2943 2915 2857 2920 2912 2974 2946 2838 2821 3019 2924 2956 2890 2889 2896 2774 2945 2902 2975 2887 2915 2871 2777 2780 2954 2768 2844 2845 2852 2914 2818 2901 2885 2907 2828 2931 2843 2845 2923 2753 2876 2855 2853 2914 2813 2875 2850 2794 2793 2841 2778 2984 2838 2866 2918 2879 2960 2801 2811 2771 2743 2869 2870 2909 2865 2889 2904 2897 2858 2891 2810 2834 2870 2899 2817 2853 2931 2796 2941 2860 2888 2857 2844 2897 2818 2839 2903 2868 2960 2895 2831 2918 2866 2903 2874 2790 2882 2901 2962 2914 2866 2848 2864 2877 2776 2918 2869 2826 2887 2839 2988 2963 2809 2779 2919 2825 2867 2881 2818 2847 2832 2882 2875 2816 2794 2853 2820 2874 2817 2833 2860 2782 2815 2924 2775 2915 2801 2730 2832 2818 2866 2815 2745 2852 2801 2845 2804 2809 2811 2697 2796 2783 2783 2743 2700 2842 2826 2684 2723 2738 2833 2723 2752 2707 2729 2741 2807 2728 2800 2843 2822 2695 2714 2671 2732 2715 2800 2667 2732 2665 2668 2660 2681 2682 2670 2712 2642 2547 2755 2696 2647 2587 2638 2688 2673 2586 2627 2674 2627 2624 2568 2640 2665 2613 2639 2630 2576 2583 2603 2544 2584 2578 2727 2546 2542 2551 2596 2484 2543 2690 2518 2498 2568 2559 2518 2523 2546 2499 2462 2435 2504 2455 2580 2523 2415 2517 2515 2483 2493 2485 2471 2420 2427 2395 2474 2563 2449 2361 2485 2378 2422 2514 2436 2367 2387 2413 2438 2413 2343 2365 2413 2383 2334 2387 2372 2328 2404 2378 2408 2354 2413 2325 2386 2344 2279 2438 2347 2384 2276 2333 2292 2268 2356 2324 2396 2361 2295 2283 2232 2409 2291 2255 2288 2257 2313 2319 2343 2274 2276 2306 2289 2233 2183 2355 2308 2336 2255 2304 2249 2309 2189 2261 2213 2299 2341 2266 2330 2277 2322 2213 2305 2200 2274 2270 2252 2184 2232 2229 2242 2275 2259 2358 2316 2236 2288 2281 2204 2335 2209 2229 2149 2299 2230 2264 2219 2301 2265 2312 2279 2278 2281 2253 2225 2205 2224 2310 2355 2278 2320 2343 2282 2266 2252 2228 2337 2177 2293 2213 2199 2214 2258 2288 2311 2171 2161 2206 2287 2231 2224 2268 2166 2187 2197 2162 2075 2245 2173 2256 2218 2245 2254 2143 2169 2177 2117 2162 2252 2126 2188 2241 2223 2254 2235 2280 2204 2192 2138 2249 2236 2107 2240 2107 2164 2238 2111 2187 2182 2182 2100 2183 2257 2217 2252 2208 2181 2294 2126 2189 2213 2251 2184 2161 2220 2226 2158 2145 2174 2152 2151 2135 2217 2143 2181 2262 2176 2227 2190 2280 2241 2301 2141 2216 2243 2205 2167 2271 2176 2243 2181 2214 2216 2185 2161 2181 2225 2313 2134 2227 2184 2227 2164 2096 2204 2245 2264 2162 2208 2226 2201 2157 2242 2187 2218 2261 2190 2289 2258 2147 2206 2255 2311 2169 2268 2202 2193 2169 2163 2286 2269 2195 2146 2072 2207 2170 2199 2300 2140 2302 2177 2218 2153 2235 2176 2157 2141 2193 2138 2228 2181 2208 2152 2176 2118 2233 2172 2107 2184 2195 2116 2197 2152 2202 2092 2251 2122 2188 2077 2228 2149 2144 2132 2115 2099 2143 2147 2206 2139 2141 2114 2223 2069 2091 2102 2185 2106 2169 2209 2074 2118 2164 2019 2090 2121 2054 2125 2140 2024 2122 2060 2172 2107 2092 2035 2134 2129 2007 2095 2115 2043 2167 2075 2114 1977 2081 2031 2071 2059 2079 2143 1971 2061 2046 2081 1994 1925 2027 2020 2042 2029 2017 2020 2033 1991 1946 2055 1996 1966 1917 2019 2032 1924 2081 2015 1977 1970 2044 2046 1937 1928 1896 2022 1941 1978 1989 2019 1930 1979 1928 1910 2020 1935 1838 1933 1897 1902 1865 1943 1886 1882 1905 1902 1933 1989 1971 1931 1818 1982 1935 1888 1884 1911 1886 1887 1926 1858 1937 1932 1968 1914 1852 1841 1833 1883 1838 1888 1883 1837 1867 1856 1897 1836 1894 1815 1878 1750 1810 1880 1981 1899 1838 1810 1831 1842 1825 1826 1922 1895 1841 1873 1827 1796 1933 1877 1844 1818 1844 1834 1787 1812 1886 1832 1860 1881 1797 1750 1842 1883 1836 1801 1913 1818 1769 1916 1850 1808 1817 1881 1900 1928 1948 1939 1960 1901 1878 1995 2037 2067 2021 2065 2012 2016 2047 2094 2105 2062 2129 2169 2204 2230 2165 2209 2260 2278 2186 2173 2167 2156 2179 2163 2123 2119 2091 2064 2110 2039 1962 1972 1981 2016 1938 1988 1899 1874 1893 1860 1914 1855 1892 1816 1872 1799 1862 1857 1829 1810 1855 1827 1825 1809 1885 1719 1817 1828 1808 1803 1808 1832 1835 1762 1804 1736 1700 1747 1702 1771 1777 1703 1799 1788 1783 1726 1710 1782 1733 1730 1672 1690 1650 1728 1651 1683 1666 1713 1724 1718 1803 1680 1704 1727 1705 1733 1741 1744 1697 1731 1792 1865 1782 1767 1838 1759 1918 1733 1913 1864 1885 1930 1958 1913 1961 2023 2084 2038 2196 2082 2185 2281 2401 2441 2457 2575 2676 2658 2840 2873 2848 2945 3023 3131 3025 3091 3255 3234 3247 3197 3154 3179 3013 2909 2965 2908 2842 2802 2828 2680 2739 2595 2475 2500 2355 2381 2390 2454 2310 2286 2264 2196 2247 2144 2176 2054 2055 2001 2026 1879 1957 1901 1844 1902 1800 1786 1801 1684 1835 1759 1745 1832 1677 1773 1670 1735 1690 1691 1737 1723 1636 1592 1648 1669 1642 1663 1725 1625 1655 1625 1625 1618 1646 1695 1673 1642 1689 1625 1561 1621 1607 1636 1609 1640 1549 1620 1543 1556 1647 1579 1548 1613 1606 1586 1609 1583 1510 1600 1563 1571 1609 1570 1572 1555 1588 1518 1535 1564 1647 1570 1530 1582 1539 1556 1561 1589 1586 1530 1681 1528 1686 1507 1589 1591 1455 1499 1544 1589 1509 1497 1524 1577 1547 1466 1527 1544 1507 1563 1567 1473 1482 1474 1419 1544 1519 1423 1492 1518 1423 1554 1480 1558 1552 1539 1581 1582 1561 1589 1521 1518 1546 1517 1459 1544 1583 1515 1519 1449 1506 1481 1458 1556 1542 1503 1483 1502 1525 1486 1473 1530 1462 1456 1471 1444 1520 1450 1492 1499 1456 1464 1522 1484 1414 1460 1513 1445 1473 1459 1482 1535 1392 1525 1518 1513 1482 1459 1497 1543 1494 1463 1571 1482 1517 1546 1447 1526 1587 1560 1573 1626 1520 1563 1542 1500 1533 1517 1563 1554 1589 1612 1555 1661 1579 1632 1626 1603 1580 1500 1570 1582 1619 1623 1645 1679 1567 1654 1715 1723 1679 1561 1717 1743 1806 1747 1751 1784 1720 1800 1827 1753 1865 1763 1791 1843 1835 1845 1811 1804 1845 1833 1762 1867 1763 1797 1878 1782 1755 1777 1724 1767 1756 1808 1718 1689 1693 1611 1629 1623 1616 1642 1597 1638 1629 1555 1571 1571 1550 1530 1588 1539 1549 1550 1520 1635 1643 1481 1503 1543 1538 1478 1514 1543 1447 1584 1515 1478 1474 1553 1480 1446 1566 1508 1521 1501 1436 1525 1480 1565 1480 1468 1503 1437 1448 1500 1503 1482 1506 1506 1516 1473 1425 1494 1468 1459 1427 1440 1423 1476 1504 1477 1403 1512 1376 1490 1450 1518 1479 1499 1445 1373 1498 1464 1440 1468 1473 1469 1442 1484 1486 1410 1429 1504 1412 1445 1444 1407 1452 1435 1448 1467 1433 1483 1435 1501 1453 1414 1463 1412 1487 1470 1482 1490 1435 1453 1450 1528 1540 1482 1542 1522 1557 1569 1516 1555 1589 1586 1661 1636 1620 1619 1697 1747 1718 1806 1865 1858 1986 1979 2062 2062 2103 2226 2176 2204 2336 2347 2429 2605 2582 2797 2826 2994 3123 3029 3264 3287 3357 3524 3627 3578 3619 3765 3812 3858 3947 3866 3832 3721 3633 3699 3416 3576 3466 3537 3357 3390 3298 3412 3306 3285 3098 3141 3102 3177 3088 3114 2975 2962 2938 2790 2780 2792 2521 2534 2385 2340 2335 2186 2163 2054 2012 1929 1923 1924 1934 1799 1848 1756 1777 1691 1754 1767 1780 1633 1703 1767 1675 1704 1722 1648 1700 1669 1636 1696 1611 1663 1617 1638 1598 1631 1614 1592 1554 1550 1517 1567 1587 1525 1486 1546 1441 1492 1487 1561 1485 1449 1485 1404 1483 1452 1473 1453 1525 1474 1474 1494 1408 1441 1374 1406 1479 1379 1413 1431 1476 1463 1423 1457 1459 1377 1407 1469 1413 1475 1386 1444 1439 1538 1367 1425 1423 1446 1455 1367 1393 1381 1495 1402 1386 1332 1448 1402 1397 1414 1404 1426 1422 1371 1358 1304 1419 1433 1333 1382 1439 1405 1460 1338 1392 1432 1259 1392 1360 1437 1374 1370 1347 1392 1304 1368 1407 1328 1353 1378 1384 1359 1414 1332 1352 1406 1355 1360 1354 1358 1277 1391 1332 1351 1296 1336 1324 1349 1342 1351 1295 1376 1287 1386 1310 1331 1297 1317 1391 1280 1337 1369 1331 1295 1324 1266 1380 1321 1318 1350 1310 1357 1265 1298 1318 1342 1360 1284 1382 1361 1372 1280 1301 1318 1299 1324 1345 1352 1272 1254 1288 1278 1305 1301 1322 1327 1317 1257 1373 1376 1286 1339 1323 1247 1353 1271 1367 1319 1301 1357 1290 1336 1322 1345 1285 1362 1327 1352 1343 1363 1313 1321 1409 1310 1292 1359 1374 1327 1367 1338 1366 1339 1309 1348 1236 1228 1336 1253 1311 1323 1342 1325 1333 1334 1327 1326 1263 1320 1317 1289 1307 1283 1334 1327 1280 1332 1383 1286 1336 1341 1315 1276 1349 1284 1319 1307 1416 1336 1395 1333 1368 1279 1309 1298 1355 1325 1339 1279 1329 1252 1338 1321 1290 1266 1330 1355 1361 1353 1286 1362 1345 1312 1341 1281 1330 1294 1337 1297 1358 1281 1307 1244 1250 1393 1390 1270 1315 1296 1303 1347 1327 1305 1334 1410 1390 1307 1339 1304 1307 1307 1343 1308 1340 1272 1332 1287 1316 1261 1328 1349 1307 1327 1344 1292 1309 1262 1300 1291 1267 1324 1282 1288 1291 1296 1291 1253 1325 1253 1198 1282 1309 1278 1272 1266 1276 1318 1289 1294 1277 1273 1252 1332 1319 1296 1247 1220 1358 1327 1348 1342 1304 1336 1262 1239 1294 1312 1247 1317 1287 1262 1275 1237 1269 1270 1260 1196 1321 1253 1246 1304 1230 1345 1185 1261 1218 1285 1190 1286 1239 1311 1226 1213 1242 1283 1247 1268 1250 1237 1265 1234 1273 1309 1312 1180 1239 1253 1317 1266 1284 1258 1329 1303 1232 1223 1245 1173 1194 1159 1269 1206 1272 1284 1294 1257 1252 1226 1275 1242 1239 1215 1335 1239 1292 1277 1313 1266 1270 1305 1311 1234 1244 1299 1301 1239 1200 1293 1299 1250 1230 1210 1250 1216 1262 1285 1228 1299 1231 1204 1326 1257 1284 1217 1181 1236 1222 1273 1209 1318 1304 1259 1273 1227 1272 1248 1234 1293 1253 1203 1232 1237 1210 1292 1244 1295 1212 1259 1219 1280 1229 1264 1235 1246 1263 1207 1184 1231 1234 1285 1276 1205 1216 1271 1226 1249 1268 1244 1230 1234 1230 1284 1229 1178 1217 1277 1202 1194 1249 1271 1259 1208 1256 1276 1248 1238 1229 1240 1297 1233 1220 1224 1252 1196 1261 1180 1251 1280 1174 1203 1185 1233 1268 1233 1275 1218 1237 1227 1208 1240 1240 1196 1257 1222 1247 1229 1227 1211 1192 1192 1276 1203 1215 1206 1241 1214 1228 1212 1277 1206 1236 1242 1221 1290 1285 1238 1233 1206 1230 1173 1217 1177 1261 1227 1266 1225 1242 1258 1249 1205 1237 1231 1174 1237 1196 1264 1210 1179 1206 1259 1199 1306 1247 1196 1251 1231 1249 1212 1263 1220 1247 1214 1226 1189 1130 1203 1277 1219 1248 1215 1176 1281 1189 1262 1197 1266 1252 1268 1190 1261 1212 1241 1280 1218 1246 1275 1233 1207 1211 1225 1143 1211 1195 1172 1206 1299 1280 1254 1232 1245 1227 1201 1227 1207 1191 1240 1255 1145 1187 1198 1170 1208 1193 1273 1264 1199 1242 1206 1193 1184 1225 1215 1171 1206 1187 1150 1262 1220 1207 1170 1229 1201 1209 1225 1243 1229 1294 1274 1169 1209 1176 1209 1192 1290 1245 1220 1210 1190 1146 1150 1249 1222 1190 1212 1256 1251 1185 1305 1211 1177 1259 1251 1225 1248 1219 1208 1255 1225 1228 1222 1214 1180 1201 1206 1258 1182 1213 1306 1251 1326 1259 1289 1242 1249 1320 1246 1300 1248 1252 1192 1246 1305 1245 1238 1228 1231 1159 1257 1278 1226 1196 1215 1256 1222 1192 1224 1229 1164 1240 1238 1204 1216 1194 1207 1223 1287 1234 1207 1183 1260 1141 1197 1172 1223 1173 1242 1186 1206 1246 1223 1275 1194 1230 1213 1141 1218 1243 1217 1239 1191 1231 1274 1211 1251 1223 1240 1173 1253 1223 1235 1209 1153 1210 1202 1249 1256 1222 1246 1236 1222 1222 1267 1211 1198 1278 1186 1288 1311 1266 1235 1240 1268 1241 1228 1195 1232 1277 1273 1245 1251 1235 1207 1220 1208 1180 1280 1241 1204 1238 1246 1227 1256 1237 1264 1228 1277 1261 1254 1188 1230 1212 1217 1231 1263 1244 1286 1190 1176 1217 1192 1234 1262 1214 1175 1251 1224 1247 1219 1251 1266 1196 1264 1230 1197 1159 1202 1195 1154 1217 1160 1178 1202 1155 1144 1226 1172 1212 1199 1205 1176 1157 1167 1205 1257 1162 1178 1207 1232 1202 1191 1201 1143 1170 1158 1233 1214 1237 1174 1214 1195 1222 1141 1190 1173 1121 1216 1118 1160 1225 1166 1239 1183 1260 1192 1218 1207 1226 1217 1242 1178 1258 1272 1243 1285 1294 1242 1339 1265 1275 1267 1224 1254 1283 1229 1345 1277 1337 1416 1260 1322 1354 1380 1393 1390 1399 1398 1388 1450 1382 1454 1361 1365 1405 1379 1319 1313 1307 1336 1328 1289 1286 1288 1384 1339 1243 1309 1267 1324 1234 1276 1282 1273 1312 1273 1262 1246 1278 1274 1229 1308 1270 1280 1298 1222 1159 1256 1260 1200 1226 1211 1194 1151 1210 1191 1246 1201 1179 1200 1190 1200 1155 1174 1232 1200 1159 1087 1201 1223 1218 1219 1247 1157 1250 1220 1145 1165 1205 1200 1203 1248 1207 1214 1282 1276 1285 1185 1237 1187 1278 1176 1221 1239 1231 1196 1216 1233 1245 1277 1237 1261 1255 1230 1248 1219 1227 1254 1238 1222 1230 1165 1193 1262 1208 1194 1190 1219 1256 1193 1213 1153 1204 1151 1214 1212 1210 1179 1123 1176 1157 1139 1163 1214 1156 1209 1126 1136 1181 1115 1153 1213 1194 1158 1132 1179 1148 1124 1182 1157 1180 1165 1217 1134 1148 1158 1225 1189 1167 1248 1136 1175 1180 1167 1122 1168 1194 1211 1178 1143 1197 1122 1128 1187 1162 1196 1144 1201 1099 1115 1119 1193 1227 1079 1171 1119 1093 1118 1104 1131 1181 1144 1177 1183 1155 1186 1157 1219 1163 1154 1165 1170 1209 1207 1165 1150 1168 1160 1209 1135 1146 1131 1139 1208 1141 1128 1166 1176 1233 1152 1167 1148 1155 1174 1246 1147 1160 1109 1132 1156 1159 1134 1174 1176 1164 1151 1131 1196 1097 1192 1152 1234 1178 1143 1105 1110 1156 1235 1183 1164 1154 1176 1147 1174 1251 1173 1138 1120 1191 1173 1172 1125 1144 1155 1188 1148 1126 1177 1149 1195 1101 1132 1209 1195 1141 1091 1220 1163 1131 1136 1092 1133 1180 1134 1173 1240 1194 1145 1230 1170 1170 1194 1150 1179 1123 1159 1146 1087 1193 1190 1188 1120 1125 1186 1211 1225 1200 1196 1168 1136 1139 1189 1133 1180 1132 1167 1115 1248 1204 1159 1182 1173 1145 1187 1112 1158 1156 1204 1163 1208 1176 1184 1209 1147 1195 1200 1111 1163 1174 1135 1154 1165 1158 1185 1162 1164 1156 1172 1116 1237 1210 1168 1157 1189 1215 1261 1211 1269 1186 1260 1178 1223 1243 1235 1229 1256 1253 1286 1320 1297 1357 1333 1274 1388 1400 1405 1420 1389 1470 1546 1540 1496 1556 1571 1584 1626 1684 1588 1773 1791 1765 1931 1854 1918 2008 1918 2062 2063 2075 2104 2129 2189 2174 2268 2206 2272 2151 2116 2209 2177 2208 2145 2126 2052 2169 2032 2047 2043 1994 1950 1895 1901 1936 1860 1761 1769 1742 1782 1803 1797 1871 1766 1778 1788 1840 1797 1732 1752 1694 1576 1650 1552 1604 1560 1550 1509 1515 1541 1494 1407 1461 1381 1409 1316 1367 1342 1365 1383 1280 1396 1301 1340 1321 1285 1320 1271 1221 1278 1217 1268 1295 1280 1287 1275 1283 1344 1271 1249 1243 1295 1230 1299 1324 1363 1344 1366 1245 1335 1282 1280 1298 1279 1325 1372 1322 1227 1342 1282 1305 1312 1311 1286 1259 1245 1228 1328 1293 1262 1305 1241 1298 1223 1244 1273 1200 1234 1293 1286 1251 1249 1270 1327 1184 1231 1181 1247 1216 1221 1218 1232 1247 1219 1221 1153 1211 1216 1147 1192 1130 1159 1189 1184 1159 1147 1153 1190 1175 1218 1148 1160 1154 1125 1123 1191 1243 1169 1171 1161 1144 1180 1100 1151 1128 1131 1093 1128 1099 1167 1125 1070 1175 1169 1175 1086 1198 1170 1181 1167 1095 1136 1128 1126 1076 1133 1055 1152 1117 1139 1046 1071 1108 1144 1108 1127 1120 1106 1108 1125 1202 1154 1189 1159 1137 1181 1122 1131 1155 1148 1170 1243 1124 1155 1231 1213 1183 1211 1173 1212 1210 1263 1185 1270 1182 1237 1183 1195 1184 1246 1202 1209 1267 1242 1233 1183 1210 1249 1206 1155 1227 1188 1136 1173 1126 1191 1223 1156 1154 1133 1173 1178 1158 1148 1137 1181 1154 1192 1156 1216 1145 1145 1115 1161 1156 1113 1156 1114 1162 1110 1151 1164 1112 1200 1164 1180 1116 1147 1104 1106 1183 1108 1118 1131 1089 1132 1066 1144 1197 1105 1113 1110 1106 1059 1093 1155 1152 1211 1160 1099 1102 1117 1112 1141 1134 1138 1181 1132 1090 1130 1138 1132 1170 1123 1172 1132 1192 1175 1068 1166 1146 1136 1144 1181 1147 1122 1139 1161 1096 1129 1072 1189 1120 1203 1137 1099 1095 1144 1073 1131 1135 1121 1091 1058 1113 1154 1091 1113 1103 1080 1114 1153 1175 1074 1109 1125 1100 1067 1116 1066 1080 1112 1150 1124 1092 1152 1098 1153 1095 1120 1094 1102 1102 1098 1079 1168 1066 1097 1112 1026 1133 1146 1114 1045 1064 1041 1103 1077 1111 1040 1078 1106 1091 1085 1066 1065 1119 1117 1103 1106 1149 1077 1173 1134 1149 1136 1137 1055 1085 1153 1043 1095 1086 1094 1077 1114 1071 1072 1122 1079 1071 1052 1151 1095 1059 1092 1062 1040 1074 1131 1165 1046 1090 1131 1055 1087 1102 1075 1090 1063 1069 1110 1057 1100 1112 1117 1106 1075 1096 1061 1091 1038 1096 1144 1069 1081 1081 1087 1101 1067 1131 1132 1119 1001 1066 1052 1088 1073 1128 1098 1088 1131 1081 1082 1046 1042 1114 1072 1051 1179 1107 1074 1073 1100 1096 1106 1081 1035 1115 1073 1126 1072 1080 1068 1032 1050 1133 1097 1049 1117 1097 1026 1070 1069 1047 1067 1087 1089 1136 1067 1116 1111 1103 1050 1098 1082 1089 1057 1090 1060 1096 1080 1116 1075 1048 1099 1074 1060 1083 1095 1075 1062 1156 1068 1080 1132 1116 1068 1081 1136 1114 1180 1043 1022 1100 1047 1118 1049 1077 1126 1028 1084 1105 986 1067 1086 1075 1067 1100 1084 1100 1060 1101 1059 1096 1064 1121 1090 1027 1068 1023 1022 1092 1109 1095 1079 1138 1076 1065 1070 1090 1102 1087 1094 1122 1071 1120 1133 1071 1026 1059 1073 1144 1073 1013 1050 1081 1092 1044 1079 1063 1080 1124 1121 1120 1040 1099 1068 1002 1131 1119 1087 1007 1080 1066 1106 1024 1098 1071 1103 1109 1126 1129 1066 1043 1116 1088 1100 1077 1051 1097 1099 1091 1062 1041 1043 1052 1074 1023 1079 1060 1063 1036 1016 1067 1022 1101 1089 1030 1030 1096 1069 1080 1074 1050 1154 1072 1085 1061 1090 1067 1016 1007 1056 1053 1075 1094 1040 1030 1030 1052 1071 1068 1057 1087 1123 1066 1089 1063 1038 1045 1099 1081 1087 1055 1006 1088 1075 1086 1024 1078 1053 1037 1050 1095 1052 1084 1095 1134 1053 1079 1051 1049 1037 1069 1019 1089 1025 1064 1100 1031 1099 1024 1092 1033 1032 1029 1064 1065 1123 1026 1105 1069 1018 1091 1053 1055 1081 1090 1038 1077 1103 1115 1115 1062 1080 1111 1040 1030 1102 1022 1016 1034 1047 1032 1040 1084 1023 1107 1009 1097 1099 1097 1038 1033 1071 1102 1030 1059 1075 1109 1009 1074 1126 1090 1077 1030 1054 1066 1040 1055 1096 1110 1060 1099 1121 1076 1079 1154 1037 1060 1092 1122 1100 1079 1030 1058 1097 1091 1125 1122 1125 1082 1117 1069 1171 1084 1080 1124 1117 1094 1133 1142 1081 1052 1080 1065 1097 1062 1100 1096 1097 1075 1082 1072 1055 1151 1091 1113 1134 1090 999 1047 1121 1076 1097 1124 1125 1107 1062 1078 1125 1129 1045 1134 1125 1103 1070 1127 1139 1078 1122 1161 1134 1214 1111 1180 1108 1136 1168 1167 1064 1180 1199 1116 1208 1150 1215 1172 1193 1182 1194 1194 1167 1179 1202 1197 1187 1184 1134 1229 1157 1195 1113 1173 1125 1246 1177 1219 1202 1150 1216 1176 1183 1162 1190 1208 1268 1291 1239 1196 1271 1193 1139 1203 1266 1174 1198 1269 1206 1210 1182 1192 1256 1220 1190 1194 1159 1230 1166 1192 1229 1179 1201 1117 1151 1125 1167 1163 1124 1152 1086 1138 1123 1126 1099 1138 1112 1127 1088 1012 1109 1030 1068 1083 1084 1082 1033 1085 1043 1084 1064 1113 1153 1094 1074 1078 1087 1083 1067 1085 1067 1091 961 1051 1081 1090 1041 1060 1116 1079 1072 1132 1067 1072 1071 1075 1098 1046 1004 1117 1052 1031 1058 1055 1074 1036 1061 1004 1018 1070 1105 1096 1053 978 1051 1070 1008 1079 1059 1086 1103 1089 1105 1042 1076 1022 1063 1043 1043 1057 1056 1041 1068 1054 1094 1087 1051 1028 1087 1105 1058 1074 1039 1079 1089 1060 1032 1066 1075 1070 1085 1080 1111 1069 1079 1059 1072 1022 1040 1065 1033 1110 1086 1138 1062 1116 1099 993 1076 1050 1052 1055 1027 1015 1147 1038 1069 1076 1078 1028 1084 1109 1030 1039 1007 1057 1087 1029 1097 1051 1047 1131 1029 1029 1026 1065 1040 1117 1072 1130 996 1071 1054 1006 1032 1066 1104 1071 1045 1024 1052 1065 1067 1118 1083 1092 1098 1027 1104 1073 1091 1079 1089 1062 1049 1079 1091 1135 1055 1107 1129 1144 1167 1121 1050 1149 1095 1204 1099 1195 1179 1222 1171 1185 1231 1199 1169 1271 1258 1257 1299 1319 1322 1371 1359 1293 1390 1330 1325 1420 1375 1436 1344 1363 1387 1380 1314 1359 1297 1360 1330 1351 1336 1346 1252 1332 1293 1286 1240 1267 1277 1236 1176 1264 1212 1235 1240 1329 1264 1223 1219 1228 1206 1201 1205 1206 1156 1191 1123 1153 1174 1219 1099 1183 1197 1179 1142 1158 1193 1177 1197 1186 1152 1128 1132 1179 1122 1127 1121 1109 1182 1098 1131 1154 1133 1126 1119 1136 1127 1138 1094 1150 1092 1077 1058 1058 1090 1084 1087 1058 1046 1077 1076 1098 1085 1076 1176 1128 1131 1134 1132 1100 1089 999 1127 1078 1157 1050 1107 1127 1114 1093 1148 1048 1104 1126 1098 1036 1131 1088 1100 1079 1148 1080 1093 1057 1170 1126 1097 1119 1133 1142 1169 1132 1185 1217 1132 1207 1152 1180 1151 1105 1136 1193 1137 1164 1119 1202 1156 1144 1209 1244 1110 1154 1207 1242 1190 1148 1178 1180 1130 1092 1124 1093 1181 1150 1129 1134 1106 1098 1159 1085 1056 1100 1085 1107 1114 1055 1073 1089 1040 1075 1075 1067 1047 1087 1075 1085 1119 1070 1126 1096 1052 1097 1095 1109 1119 1024 1065 1094 1108 1156 1049 1082 1085 1111 1042 1143 1045 1074 1101 1117 1081 1084 1093 1091 1045 1054 987 1132 1065 1043 1038 1050 1065 1029 1101 1102 1016 1057 1116 987 1117 1102 1086 1045 1043 1061 1045 1133 1058 1080 1008 1059 1040 1061 1053 1017 1028 1075 1098 1073 1115 1087 1032 1082 1125 1044 1033 1028 1111 988 1048 1025 995 1059 1009 1054 1073 1055 1074 972 1084 1057 1025 1011 1035 1011 970 977 1085 1047 1039 1007 1032 1079 1066 1037 1042 1056 1023 993 996 1014 1045 1080 1054 1031 1027 1016 995 1041 1085 996 985 971 1027 1074 991 1050 1030 1023 1036 1024 1038 1078 1070 970 1061 1038 1025 1072 992 1046 995 1033 1060 1018 998 1083 1047 1039 1095 991 1043 1046 1081 999 978 1075 1025 1033 1052 1072 1061 1024 1023 1035 1041 1025 1058 1017 1043 990 1091 1051 1023 1075 1042 1042 1134 1016 1081 1013 1039 1049 1047 1043 1032 1058 1060 1058 992 1028 969 1051 1021 1046 1039 1038 984 990 1063 1007 1055 1003 1017 963 986 1034 1046 968 996 1046 1105 1033 1004 1057 1082 1075 1037 1026 1011 971 1016 908 1038 1002 1023 1045 1034 1008 1006 1038 1008 1053 1024 1039 976 1008 983 991 1052 1018 1020 956 1096 1022 1040 1024 1056 1053 1030 991 996 1030 997 1068 1027 981 1019 1004 1019 1038 1020 948 986 958 987 1061 1018 1035 967 986 990 1030 1041 984 1022 1054 999 1050 1053 974 1034 1001 971 1002 987 1009 1015 1029 1048 1036 1034 981 998 976 1002 972 957 1016 1067 1000 1054 1061 1024 1040 1014 1034 976 980 1002 950 989 1005 942 992 959 1017 1029 971 998 949 1021 1030 1003 997 999 983 990 990 919 996 1059 994 1045 1028 988 1037 1009 978 1061 1037 1021 989 1001 970 971 1009 990 953 976 1004 1039 1015 1038 989 1013 1073 1064 1087 1013 1000 1006 960 1032 1023 982 969 1079 1020 1002 1026 1084 983 1039 1004 1023 1072 1048 1004 945 1002 996 1052 984 998 984 1007 1023 1025 1033 1083 1021 1021 1048 1032 977 1001 976 993 1097 1020 977 988 1035 1032 988 1040 975 1012 1024 1008 1065 1029 1042 1012 1000 1020 1023 995 1007 952 1038 967 1003 1009 999 1001 993 988 976 1011 1000 1037 996 990 969 1023 1047 997 1003 1062 1037 1064 1014 963 1043 1060 1058 969 989 1055 999 987 1014 1053 983 1048 1020 1002 1035 986 1029 1031 1035 988 1055 1048 1049 970 979 1043 991 1042 1009 1010 1016 1020 1021 998 1006 957 1006 979 1030 991 999 1004 1015 918 1074 995 1046 945 1062 1053 991 988 1042 1029 962 973 1025 1005 1050 1024 1029 986 1032 998 1031 1020 1050 1030 1032 1117 1025 977 1063 1007 996 1064 1057 1002 1079 992 1040 1081 1033 1056 1053 1050 1056 1022 1020 1007 1018 1088 1034 1076 1033 1057 1019 1026 1096 1051 1017 1046 1048 970 996 1057 1010 1102 1057 1022 1024 1054 1048 1013 1013 1012 993 1035 1050 1028 1012 1009 984 1025 1032 1068 1063 1006 1092 1015 1066 1023 1057 1019 1021 1058 1028 999 979 972 1036 993 999 1083 1009 1058 1009 971 994 1031 1034 1020 1018 982 1090 1000 981 1029 1014 997 989 1033 1037 1022 998 977 998 976 1040 1004 987 1060 995 1018 986 1045 1109 1010 990 1022 1003 997 961 953 1015 998 969 1034 987 974 1055 957 992 992 1010 1063 956 995 985 988 1007 1018 1013 1020 1033 1013 930 1019 1040 1029 1057 1055 982 1029 1069 997 1030 986 977 964 986 1005 973 1077 997 1011 1026 989 1065 1022 1059 1022 986 1051 1030 977 1006 1027 978 994 995 1056 1017 1035 1013 969 1011 978 992 1020 975 1018 992 999 985 978 999 983 1029 1021 1006 1007 976 1028 1011 989 1004 1011 970 1003 1033 934 981 950 951 1007 992 1032 987 986 967 962 981 999 1002 970 983 1040 1090 1003 1018 1061 1070 1025 979 1004 985 944 1055 1016 973 990 899 1042 1018 955 1004 980 1027 1030 977 963 1001 975 1006 979 1056 994 1002 1070 1065 997 943 959 965 986 1000 990 1040 1037 1026 985 985 941 1019 1014 985 1011 970 1010 960 985 1027 1001 992 1025 958 982 986 994 1016 1030 1022 985 1013 996 1023 1015 1007 1022 1026 1049 1013 998 963 1008 1025 1009 1034 1013 1035 1102 991 994 1074 1034 1026 1095 1049 1073 1072 1024 1098 1069 1088 1078 1105 1099 1060 1095 1046 1071 1016 1084 1058 1067 1016 1065 1067 1086 1030 1072 1006 1061 1139 1058 1038 1024 1101 1035 1023 1074 1069 1019 1040 1094 1026 995 1077 1051 1028 1098 1034 1025 1030 1003 1016 1048 1066 1038 994 1058 1014 1027 995 1016 1008 1071 1088 1037 1042 1040 1064 1060 1019 1048 1013 1064 1077 977 1051 1069 1049 1021 1014 1097 1051 1052 1030 1078 1040 1026 946 1036 1044 1089 1008 1060 1004 1011 997 997 1068 988 1069 943 1050 975 1056 1044 957 1008 999 940 1074 1070 1021 1031 1007 1067 1007 1025 1043 1029 1065 1009 995 1007 970 1052 964 990 1014 1048 1020 1011 994 1031 984 951 940 1056 1011 1044 1009 977 987 1084 1034 1042 1034 1045 1046 949 1007 1046 1125 966 1003 1022 1021 1008 987 1002 1028 1031 1000 1074 1032 970 1003 1016 997 1028 1015 1017 1026 988 1039 927 984 1014 1019 986 1029 1058 963 1043 1007 988 1020 1099 966 1017 1060 1031 995 997 972 1012 1046 989 978 1016 1008 1013 1010 1054 1025 1058 977 1054 988 974 976 989 975 1044 996 933 978 1006 971 1004 1025 991 984 1000 1022 911 973 1018 955 1030 990 964 1074 1017 1028 968 966 1031 970 974 960 932 966 981 1017 1010 994 960 946 973 987 983 1007 1035 975 990 906 1011 996 979 965 988 969 961 1005 993 1012 1016 1001 993 993 974 1033 944 953 976 1061 980 1009 939 1003 951 981 1011 1029 1004 964 1016 1006 989 963 954 969 1007 999 970 1016 1024 1039 1019 1031 1022 947 1027 1003 1020 1013 968 1008 1025 984 978 954 946 1029 973 973 963 977 925 1023 988 1057 999 932 1057 1020 959 1016 975 985 915 1076 989 1007 1003 1002 1033 1035 964 962 950 953 1001 998 998 1003 1037 963 1056 1024 1003 1011 973 1018 1011 999 958 979 995 989 1037 992 959 996 1004 1007 1015 948 912 1055 966 1034 1007 987 1022 945 1009 1009 1031 941 1024 1039 1020 983 1005 1069 976 963 965 993 1008 1011 990 990 1053 978 1009 1003 979 1076 998 989 1033 1036 996 1053 996 1015 1033 1027 1073 1021 1019 978 996 1033 1008 966 1063 975 996 1002 979 987 999 980 1015 972 997 1019 990 1031 965 968 954 1025 1023 1016 1008 988 1008 1012 964 1007 991 1059 1013 1034 979 1015 974 1041 983 1008 1025 950 977 988 1038 1007 985 1001 957 987 1018 1044 945 976 974 964 963 1063 987 1032 996 987 1046 1005 1040 979 994 989 995 985 967 1003 1034 1020 1029 1027 1006 1041 984 1042 918 1035 1012 980 1009 990 986 982 922 1026 1035 1023 1047 1009 984 1040 1019 989 1010 1001 1031 1020 1012 979 978 1020 973 990 1061 1051 998 1048 970 958 1012 989 938 1045 1009 1013 948 994 993 1059 1024 1006 1001 1005 1039 953 1017 1021 1009 999 1049 1019 1040 996 1008 1031 987 1037 1051 1032 1009 1010 1062 1039 1036 979 1029 1026 1013 1011 1021 980 993 1013 1003 1002 1026 993 972 1004 1038 1015 1024 971 991 1006 1050 1004 977 984 1025 1037 983 1031 1037 995 1000 963 988 999 1002 980 1032 992 1027 948 1001 1008 1014 1008 1013 1012 1060 1029 1055 1018 1002 1011 1036 1060 967 983 1108 957 1002 1003 994 1038 1062 999 996 1044 946 962 999 1046 1037 1019 1016 986 983 1004 1011 1052 1031 967 1016 1012 1027 1014 988 1000 985 1023 1045 1017 1105 995 1030 1074 1031 987 1027 1004 966 970 951 1065 1045 1050 1021 1052 1036 924 1002 1086 986 1045 1023 1039 1055 997 1010 1037 1040 1045 1038 1023 1013 1043 981 1114 1044 1013 1035 1003 1083 1022 982 1051 1013 1063 1051 1038 1025 968 1015 1007 1055 1038 1044 1059 997 986 1059 963 1107 1054 1074 969 1104 1079 1035 1100 1000 1048 1097 1074 1091 1035 1039 1015 1056 1073 1051 1099 1076 1019 1037 1034 1058 995 1086 1083 1048 1027 1062 999 1101 1042 1098 1039 1043 1022 1034 1078 1069 1071 1045 1000 1046 1005 1043 1058 1061 1013 1028 1008 1041 1088 1070 1080 1031 1026 1076 997 1049 995 1055 1043 1130 1065 1043 1098 1083 1065 989 1002 1065 1049 1098 1062 1010 1118 1065 1041 1100 1048 1075 986 1022 1072 1048 1073 1077 1056 1112 1072 1037 1013 1072 1016 977 1048 1086 1055 1098 1083 1034 1066 1022 1072 1016 990 1021 1033 1064 1063 1039 1014 972 1080 1036 1029 1042 1024 1051 1016 1074 1058 1044 996 1011 1016 1028 1028 973 1042 1004 1001 1040 1053 1004 1028 1045 1004 1056 1005 1016 1095 1011 969 1078 1091 998 1039 1052 1046 1042 1055 1031 1046 965 1006 1018 1037 1031 1023 1046 1072 1071 1029 1015 1013 1061 1022 1122 974 1038 1045 1014 1031 1029 1071 1008 1060 1110 1068 1092 1027 1046 1044 962 1001 1025 980 984 1040 1037 1024 1070 1029 1036 1012 1000 1096 1069 1080 1022 1051 1079 1097 1068 1059 1046 1035 1025 986 1014 1030 1056 1021 1081 1023 1012 1127 1039 1091 1067 1049 1090 1035 1072 1041 1055 1031 1049 1134 1185 1091 1081 1114 1145 1106 1139 1102 1117 1212 1212 1146 1187 1148 1167 1118 1194 1203 1222 1155 1140 1152 1180 1201 1147 1177 1186 1139 1129 1138 1163 1137 1093 1190 1160 1105 1156 1099 1132 1126 1118 1036 1087 1063 1133 1124 1037 1053 1077 1071 1083 1022 1109 1090 1111 1139 1119 1110 1041 1094 1087 1095 1091 1063 1068 1071 1078 1140 1073 1079 1064 1083 1104 1115 1079 1166 1093 1102 1080 1140 1100 1065 1125 1128 1192 1161 1108 1148 1173 1202 1157 1165 1079 1143 1098 1090 1086 1076 1076 1080 1135 1135 1141 1069 1033 1105 1085 1100 1089 1116 1090 1084 1092 1072 1011 1069 1061 1002 1051 1062 1059 1068 1055 993 1090 1038 1036 1054 1000 1073 1008 1080 989 1051 1031 990 1024 1038 980 1034 952 1055 1053 1009 1009 1043 1021 973 1027 1036 984 1051 1006 1029 1057 989 1028 1092 1023 988 1094 1000 1010 1016 1092 1043 1036 992 1038 1036 1026 1077 1048 1038 1018 1076 1045 1003 1046 1026 1022 984 1069 1040 1052 1102 1059 1038 1012 1053 1049 1057 1092 1047 1038 1039 1074 1075 1029 1059 1041 1081 1077 1017 1025 1067 1035 1053 1012 1016 1020 1023 1075 1109 1085 1057 1004 1097 1052 1058 1095 1043 1002 997 1008 1053 994 1072 1052 1045 1014 1029 1049 1043 1014 956 1071 1053 1006 1037 1130 1013 957 1033 975 983 999 1013 1070 984 1014 1039 990 1010 1009 1024 991 1013 1042 1026 1002 1028 1036 1015 1036 947 1025 1021 989 1049 986 1015 995 1011 1000 1009 1010 1017 968 1050 1045 988 1040 1035 975 1002 1075 996 1014 950 1022 997 972 1003 999 1028 1021 999 1008 1011 1030 974 992 965 994 982 976 1055 995 956 974 1010 1022 1035 1028 1018 975 987 982 1010 968 1020 978 1015 958 1035 998 957 980 1031 1028 962 999 981 934 1028 973 967 986 1028 1007 956 986 972 984 952 996 1030 974 996 954 964 1033 963 971 1025 1024 1016 1004 1027 966 978 1018 961 967 1032 979 1039 991 965 1015 996 995 1025 1037 974 1021 975 1001 1027 959 999 991 957 992 1021 987 987 993 971 970 991 1037 992 1026 1023 1000 994 1030 1026 1009 1008 957 1098 945 969 1005 1029 1010 959 982 979 1061 995 1057 1034 978 1033 933 993 991 948 977 944 995 957 1031 979 1044 983 1027 947 1002 966 1002 944 961 993 965 978 961 1030 929 993 990 1033 948 1006 953 1008 983 990 975 973 1016 976 1003 971 999 1009 974 1001 963 1016 1081 1040 1036 1001 959 1007 1000 1051 942 961 942 1017 967 998 976 990 950 989 954 942 1027 987 935 952 1011 964 1006 1002 1029 999 1024 942 996 1040 1002 1022 987 955 989 1008 1008 961 1043 991 1036 1009 1013 997 972 976 967 977 961 974 1003 997 1040 1038 1006 998 991 982 993 986 998 1049 1016 1028 944 1015 1074 1004 958 1004 980 956 1013 992 980 962 957 947 1008 1047 1001 988 1015 991 1034 987 973 1066 1003 962 995 974 955 976 960 968 981 986 1011 992 1017 959 1017 992 1037 1012 956 1001 1032 1016 947 947 922 1001 981 916 1015 996 972 999 971 975 961 984 989 993 991 971 993 986 1007 1019 1030 986 981 1021 1003 1010 966 918 1045 1044 987 963 1023 961 1052 1002 983 989 1035 1002 1002 1031 976 968 964 1034 938 1049 961 974 1017 1036 981 990 992 1020 983 984 964 977 1008 1019 1022 1022 967 963 1003 1040 1001 1053 1044 969 983 1032 997 1002 960 1015 978 1002 978 1015 940 966 1048 1010 1007 975 1008 953 1062 987 1024 949 1063 1044 1016 973 1030 1051 990 1039 992 1024 1024 960 1057 995 957 957 1038 1052 987 991 1006 1001 957 996 1058 1024 935 978 980 990 1016 1037 957 1007 1047 1009 999 1005 1012 1053 975 994 1019 953 1022 1046 932 1028 1035 1050 1046 954 981 997 1042 991 1021 935 983 1019 964 1008 1004 974 1032 1011 1013 953 1046 998 1004 1056 1034 1027 1039 1044 1026 990 1017 952 1003 976 958 1001 1027 968 946 1053 1054 980 1010 985 935 958 972 973 1007 981 981 961 979 997 1027 1008 998 982 979 1009 1060 1013 1074 939 994 975 966 979 960 965 953 966 1003 1011 968 1023 979 1010 1004 967 1009 958 1033 993 1001 1006 968 972 1004 1005 1007 980 973 936 955 998 984 996 982 939 940 1040 1036 966 1023 970 976 980 978 961 1012 985 982 1020 1004 995 990 995 1004 1012 1002 961 993 995 1023 984 944 1007 995 977 974 1043 962 1030 1029 989 984 942 1043 994 993 991 962 1035 962 1002 1030 994 972 999 952 957 997 956 1050 1003 978 1023 1061 1034 1014 969 955 968 973 1026 1062 989 985 1011 1011 966 1052 1008 1007 1004 1002 973 974 1051 1016 1017 1023 951 1039 1045 994 1014 996 1019 966 998 979 987 1009 978 997 967 1044 1037 1020 1058 1097 1056 1005 1058 1090 1008 1046 1061 1047 1094 972 1059 1077 1050 1032 1019 1112 1116 1090 1038 1116 1158 1061 1091 1110 1123 1096 1072 1096 1081 1171 1106 1098 1066 1115 1061 1117 1062 1081 1137 1053 1067 1105 1108 1072 1094 1134 1128 1017 1091 1064 1072 1015 985 1070 1083 1035 1076 1016 1105 996 1102 1023 1044 1072 1058 1045 1055 1022 1023 1031 1071 965 1065 953 1032 1041 1003 1055 1072 1058 1073 989 960 1051 1049 1050 1057 994 1012 1136 1047 1066 1064 1067 1078 1082 1093 1104 1055 1078 1060 1115 1114 1088 1127 1066 1077 1063 1021 1066 1074 1082 1010 1050 1051 1004 1077 1056 1068 1090 1066 1091 1031 1038 1091 1063 1027 1064 1032 1084 1072 1012 1080 989 1020 1103 1062 1015 977 1072 1041 1010 994 1020 1020 1017 1026 1117 1053 990 982 963 1014 996 963 1068 1105 1015 998 991 958 1062 1001 1000 1080 1034 1026 974 958 1031 1034 1036 1003 1007 910 966 889 977 938 995 990 1006 979 1012 978 993 944 964 968 995 993 981 1025 1012 1000 1036 1016 1024 1031 985 1052 1113 1043 958 1042 1087 995 1001 995 1006 1050 1043 1001 1050 1014 976 1016 1020 1031 1016 1049 974 1056 1008 995 1032 1014 987 1025 1028 1009 995 993 1002 1022 993 1040 991 978 980 1052 962 990 1034 1027 990 1053 1009 1020 980 1055 968 1017 1000 1017 959 1020 1045 1054 1004 983 1060 1018 1038 1038 1036 993 1003 1045 1032 1057 1068 991 1008 993 1028 1005 1044 1030 1011 1022 1020 972 1004 1008 1006 1017 988 1039 989 984 964 973 981 1001 996 1039 1054 1023 1003 968 1036 1017 1008 976 956 1046 1035 1035 1050 1024 1011 982 973 958 1019 1007 993 953 995 1023 1019 1007 1018 1045 995 1078 1026 1001 986 1067 1001 1007 938 938 955 972 945 987 965 987 1029 1012 972 995 1051 965 977 1004 958 908 968 998 984 930 951 1015 1065 1030 908 952 952 1016 1014 979 968 973 951 1023 1000 961 991 941 983 1005 999 1013 1039 943 994 998 962 1078 1004 920 1038 975 995 964 968 937 988 985 961 993 962 954 977 982 1005 942 991 934 996 925 1037 984 983 995 1015 1026 957 934 1005 978 920 884 1010 1003 977 952 946 989 976 975 1005 963 978 980 1021 1008 993 942 960 992 1033 1010 1032 958 991 959 994 986 998 975 1020 1006 967 1000 1006 978 1036 972 922 1024 993 1039 1011 977 1004 989 1058 980 1002 1027 981 983 998 983 993 979 983 996 982 967 977 984 946 964 1020 955 973 999 980 975 948 1028 983 948 972 997 972 987 1007 970 966 988 974 1003 982 989 986 949 1033 1002 987 972 983 983 1023 973 963 968 998 982 997 959 983 930 1039 997 1008 944 985 969 1010 944 985 989 967 1028 978 990 996 1053 946 965 946 914 1009 1032 1017 1028 954 972 972 968 936 992 993 985 960 993 1036 1014 1011 920 1018 995 990 1012 966 999 975 981 995 982 987 1002 997 986 986 990 957 1006 955 976 1000 1002 1004 951 1048 931 930 972 979 1010 994 983 999 963 981 972 971 945 974 975 1004 1001 945 1039 1029 969 950 1008 973 1030 1012 1002 993 1082 957 955 1041 964 1032 1021 926 960 995 989 1049 957 1033 955 976 1002</counts>
			</dataPoints>
		</scan>
	</xrdMeasurement>
</xrdMeasurements>
