<?xml version="1.0"?>
<xrdMeasurements xmlns="http://www.xrdml.com/XRDMeasurement/2.3" xmlns:xsi="http://www.w3.org/2001/XMLSchema-instance" xsi:schemaLocation="http://www.xrdml.com/XRDMeasurement/2.3 http://www.xrdml.com/XRDMeasurement/2.3/XRDMeasurement.xsd" status="Completed" recordIdentifier="{098B1DC7-AF6E-415F-A6F9-87ED3188874A}">
	<comment>
		<entry/>
	</comment>
	<sample type="To be analyzed">
		<id>GPSS_Li1p34Fe0p78Ta0p22Cl4_110625_690d9f07f040177efa2b78e5</id>
		<name></name>
		<preparedBy></preparedBy>
	</sample>
	<xrdMeasurement measurementType="Scan" status="Completed" sampleMode="Reflection">
		<usedWavelength intended="K-Alpha 1">
			<kAlpha1 unit="Angstrom">1.5405980</kAlpha1>
			<kAlpha2 unit="Angstrom">1.5444260</kAlpha2>
			<kBeta unit="Angstrom">1.3922500</kBeta>
			<ratioKAlpha2KAlpha1>0.5000</ratioKAlpha2KAlpha1>
		</usedWavelength>
		<incidentBeamPath>
			<radius unit="mm">145.00</radius>
			<xRayTube id="1010048" name="Empyrean Cu LFF HR (9430 033 7310x)">
				<tension unit="kV">40.0</tension>
				<current unit="mA">15.0</current>
				<anodeMaterial>Cu</anodeMaterial>
				<focus type="Line">
					<length unit="mm">12.0</length>
					<width unit="mm">0.4</width>
					<takeOffAngle unit="deg">6.0</takeOffAngle>
				</focus>
			</xRayTube>
			<sollerSlit id="21010002" name="Soller slits 0.04 rad.">
				<opening unit="rad">0.0400</opening>
			</sollerSlit>
			<mask id="22031000" name="Fixed mask 13 mm">
				<width unit="mm">9.00</width>
			</mask>
			<divergenceSlit id="22120001" name="Divergence slit 1°" xsi:type="fixedDivergenceSlitType">
				<distanceToSample unit="mm">50.00</distanceToSample>
				<height unit="mm">1.52</height>
			</divergenceSlit>
		</incidentBeamPath>
		<sampleMovement xsi:type="spinningSampleMovementType">
			<spinnerRevolutionTime unit="seconds">1.0</spinnerRevolutionTime>
		</sampleMovement>
		<diffractedBeamPath>
			<radius unit="mm">145.00</radius>
			<antiScatterSlit id="22090040" name="AS slit 9 mm (PIXcel)" xsi:type="fixedAntiScatterSlitType">
				<height unit="mm">9.00</height>
			</antiScatterSlit>
			<sollerSlit id="21020003" name="Large Soller slits 0.04 rad.">
				<opening unit="rad">0.0400</opening>
			</sollerSlit>
			<filter id="20030001" name="Large beta-filter Nickel">
				<material>Ni</material>
				<thickness unit="mm">0.020</thickness>
			</filter>
			<detector id="7010019" name="PIXcel1D-Medipix3 detector" xsi:type="rtmsDetectorType">
				<phd unit="keV">
					<lowerLevel>4.02</lowerLevel>
					<upperLevel>11.27</upperLevel>
				</phd>
				<mode>Scanning</mode>
				<activeLength unit="deg">5.542</activeLength>
			</detector>
		</diffractedBeamPath>
		<scan appendNumber="0" mode="Continuous" scanAxis="Gonio" status="Completed">
			<header>
				<startTimeStamp>2025-11-08T14:54:40-08:00</startTimeStamp>
				<endTimeStamp>2025-11-08T15:02:48-08:00</endTimeStamp>
				<author>
					<name>AutomatedUser</name>
				</author>
				<source>
					<applicationSoftware version="1.7b (136)">PANalytical Aeris Instrument Suite</applicationSoftware>
					<instrumentControlSoftware version="3.2.00000000 20240306">AERIS</instrumentControlSoftware>
					<instrumentID>950485</instrumentID>
				</source>
			</header>
			<dataPoints>
				<positions axis="2Theta" unit="deg">
					<startPosition>10.00943322</startPosition>
					<endPosition>99.99442286</endPosition>
				</positions>
				<positions axis="Omega" unit="deg">
					<startPosition>5.00471661</startPosition>
					<endPosition>49.99721143</endPosition>
				</positions>
				<commonCountingTime unit="seconds">12.495</commonCountingTime>
				<counts unit="counts">3012 3009 3043 2979 3008 2941 3033 2942 2771 2988 2895 3085 2982 2934 2956 2914 2979 2949 2903 2871 2947 2944 2980 2984 3019 2945 3037 2943 2989 3042 2995 3035 2990 3051 2949 2962 2959 2868 3061 2987 2940 2998 2907 2960 2930 2981 2873 3025 3034 2875 3029 2935 2877 3065 2984 2886 3016 2861 3009 3017 3014 3117 2998 2973 2988 3120 3023 3082 3094 3082 3102 2974 3049 3125 3213 3073 3106 3106 3095 3149 3055 3101 3219 3084 3175 3085 3088 3159 3096 3158 3084 3066 3130 3134 3101 2969 2953 3028 3050 2964 3040 2972 3038 3116 3167 3010 3040 3024 3081 3190 3018 3015 3025 2931 3044 3024 3032 2896 3021 2999 3086 2933 2955 3000 2948 2873 2924 3024 2892 2974 2992 3004 3000 2959 2872 2903 2893 2946 2986 2894 2966 2962 2958 2896 2864 2946 2886 2855 2869 2840 2838 2963 2897 2871 2947 2908 2872 2956 2859 2879 2817 2862 2821 2799 2900 2926 2966 2814 2854 2964 2846 2896 2831 2826 2865 2811 2749 2799 2769 2863 2863 2804 2932 2820 2843 2853 2857 2835 2793 2907 2799 2867 2900 2867 2837 2838 2810 2856 2844 2827 2833 2833 2840 2886 2837 2760 2817 2851 2880 2809 2869 2736 2837 2819 2826 2924 2876 2781 2820 2782 2812 2898 2738 2905 2795 2863 2791 2902 2824 2762 2855 2804 2810 2864 2750 2785 2851 2833 2854 2764 2862 2795 2762 2797 2885 2865 2751 2766 2862 2757 2820 2789 2698 2739 2797 2856 2709 2724 2687 2802 2840 2751 2795 2735 2794 2796 2743 2793 2816 2757 2682 2875 2823 2714 2812 2761 2852 2786 2911 2883 2889 2843 2775 2869 2845 2834 2970 2865 2929 2834 2863 2821 2831 2911 2833 2874 2788 2855 2817 2899 2828 2818 2928 2897 2870 2973 3040 2817 2883 3009 2913 2862 3037 2910 2892 2903 2895 2945 2961 2942 2857 2956 2966 2990 2910 2973 2897 3018 2970 3048 2955 2925 3079 3124 2999 3010 2946 3087 3081 3046 3064 2992 3054 3008 3041 3147 3124 3095 3041 3047 3066 3076 3182 3103 3152 3121 3072 3151 3163 3186 3133 3150 3306 3212 3213 3268 3140 3165 3169 3191 3228 3192 3127 3262 3046 3223 3186 3192 3140 3283 3171 3198 3238 3210 3112 3212 3203 3232 3303 3221 3336 3287 3285 3340 3310 3398 3375 3282 3380 3325 3332 3351 3341 3289 3344 3435 3322 3314 3375 3349 3328 3456 3456 3478 3549 3391 3416 3460 3371 3414 3450 3387 3489 3496 3592 3531 3471 3569 3514 3492 3611 3756 3774 3615 3669 3716 3742 3866 3795 3726 3688 3788 3671 3812 3887 3895 3786 3874 3939 3877 3810 3969 3926 4032 3966 4178 4273 4429 4658 4583 4721 4857 4968 5152 5173 5297 5114 4999 5087 4917 4653 4663 4548 4467 4296 4069 4182 3942 3795 3894 3788 3718 3780 3801 3609 3795 3781 3700 3685 3658 3621 3603 3674 3584 3711 3605 3649 3699 3565 3654 3670 3509 3723 3508 3616 3604 3529 3588 3495 3478 3437 3369 3384 3380 3296 3247 3221 3193 3228 3248 3251 3220 3285 3273 3185 3160 3289 3256 3271 3316 3251 3275 3286 3295 3291 3289 3367 3256 3355 3377 3342 3322 3330 3267 3377 3274 3209 3334 3332 3216 3165 3224 3072 3145 3212 3091 3191 3112 3127 3025 3129 3133 3124 2978 2989 3047 3059 3050 3064 3092 3201 3078 3002 3069 2977 3102 2995 2879 3035 2907 2942 2974 2981 3022 2964 2929 3035 2974 2898 2934 2875 2929 2931 2909 2966 2961 2956 2942 2872 2869 2893 2907 2830 2895 2871 2997 2850 2850 2899 2846 2869 2793 2872 2806 2861 2836 2870 2887 2880 2871 2913 2787 2723 2954 2862 2784 2795 2810 2912 2814 2778 2801 2805 2766 3000 2673 2858 2898 2757 2929 2836 2886 2809 2864 2829 2930 2865 2841 2822 2975 2916 2780 2801 2879 2883 2905 2961 2907 2876 2835 2842 2810 2860 2794 2836 2913 2793 2739 2823 2961 2812 2734 2756 2748 2864 2792 2849 2763 2765 2822 2764 2783 2794 2791 2909 2933 2883 2913 2838 2727 2788 2749 2804 2757 2795 2801 2815 2810 2866 2800 2703 2805 2839 2828 2696 2826 2751 2821 2799 2717 2757 2720 2681 2840 2705 2760 2774 2795 2793 2839 2853 2791 2735 2690 2725 2724 2718 2667 2738 2765 2712 2811 2795 2721 2621 2684 2709 2709 2783 2734 2758 2816 2802 2643 2723 2778 2813 2673 2815 2665 2735 2749 2659 2750 2741 2676 2730 2788 2834 2643 2772 2742 2764 2808 2676 2889 2687 2687 2723 2788 2732 2708 2695 2645 2689 2757 2709 2738 2720 2800 2709 2832 2697 2597 2686 2713 2676 2694 2771 2747 2752 2778 2679 2689 2690 2666 2782 2596 2655 2750 2592 2720 2689 2662 2679 2668 2765 2670 2694 2739 2663 2597 2710 2653 2613 2620 2601 2738 2748 2680 2655 2650 2699 2663 2673 2807 2625 2604 2586 2669 2652 2534 2715 2711 2539 2580 2647 2707 2649 2619 2590 2613 2643 2597 2667 2593 2570 2592 2620 2590 2656 2718 2665 2617 2557 2654 2695 2673 2500 2589 2576 2687 2656 2574 2686 2610 2575 2564 2581 2601 2673 2557 2629 2589 2602 2695 2572 2556 2582 2571 2527 2620 2526 2573 2663 2639 2580 2519 2592 2637 2611 2614 2505 2600 2541 2562 2467 2552 2555 2630 2595 2553 2579 2583 2530 2571 2612 2588 2732 2600 2489 2616 2527 2585 2434 2708 2621 2531 2535 2433 2531 2552 2510 2535 2621 2561 2570 2600 2471 2616 2524 2571 2518 2415 2491 2577 2564 2544 2575 2541 2462 2546 2420 2507 2498 2483 2470 2512 2502 2555 2496 2559 2487 2484 2563 2451 2604 2484 2577 2538 2499 2474 2542 2508 2646 2530 2432 2529 2471 2601 2591 2496 2708 2661 2650 2695 2748 2701 2707 2729 2691 2651 2709 2725 2605 2677 2713 2614 2658 2631 2539 2522 2615 2617 2577 2617 2475 2580 2506 2545 2523 2531 2430 2543 2568 2637 2446 2537 2572 2466 2526 2559 2497 2536 2593 2581 2529 2482 2595 2460 2582 2451 2548 2437 2485 2464 2477 2456 2449 2512 2442 2494 2462 2520 2551 2530 2541 2471 2558 2495 2410 2496 2525 2507 2482 2606 2477 2502 2418 2428 2518 2503 2567 2514 2561 2564 2474 2558 2471 2568 2570 2490 2485 2536 2510 2503 2518 2511 2504 2444 2372 2549 2556 2507 2439 2503 2516 2510 2433 2442 2535 2578 2515 2489 2585 2572 2505 2496 2493 2600 2538 2488 2470 2506 2513 2542 2529 2524 2502 2546 2555 2461 2560 2551 2566 2412 2492 2451 2515 2499 2444 2516 2499 2526 2484 2467 2445 2568 2468 2449 2513 2435 2394 2309 2467 2450 2473 2418 2547 2460 2408 2493 2445 2457 2452 2381 2446 2539 2488 2481 2425 2435 2393 2422 2318 2319 2400 2267 2368 2467 2382 2416 2354 2423 2407 2430 2440 2401 2365 2344 2438 2423 2367 2491 2327 2400 2324 2350 2348 2410 2314 2325 2318 2232 2336 2274 2415 2269 2359 2322 2318 2288 2277 2323 2279 2329 2281 2326 2344 2264 2297 2293 2284 2236 2263 2293 2287 2242 2220 2175 2294 2213 2270 2210 2229 2189 2231 2148 2200 2242 2208 2198 2204 2176 2227 2180 2169 2206 2098 2168 2167 2190 2181 2210 2147 2165 2134 2111 2171 2148 2204 2166 2095 2080 2145 2146 2101 2059 2081 2106 2109 2183 2070 2151 2030 2122 2067 2027 2096 2094 2144 2008 1997 1993 2124 2068 2004 2080 1995 1982 2068 1998 2048 2078 1978 2036 2009 1982 1995 2040 2015 1987 2050 2060 1950 2061 2009 1999 1951 2045 1918 1972 1982 2000 2025 1941 1942 2017 1958 1906 2025 1884 1982 1987 1932 2030 2062 1864 1852 1940 1958 1905 1993 2016 2041 2005 1974 2018 1926 1989 2012 1980 1923 1940 1983 2032 2026 1978 2009 1976 2102 2040 1953 1982 1963 1938 1893 1941 1980 1939 1973 1949 1867 1892 1979 1983 1882 1882 1920 1927 1888 1886 1871 1839 1898 1911 1929 1905 1918 1961 1789 1959 1920 1943 1881 1860 1827 1900 1966 1825 1906 1851 1968 1829 1883 1857 1918 1893 1839 1848 1820 1914 1966 1890 1911 1977 1960 1930 1884 1877 1877 1873 1875 1795 1853 1880 1825 1908 1809 1875 1832 1827 1899 1833 1879 1880 1952 1901 1898 1780 1844 1834 1909 1848 1948 1895 1901 1866 1930 1833 1987 1941 1928 1857 1858 1850 1887 1875 1961 1874 1868 1904 1836 1841 1871 1855 1849 1801 1910 1997 1918 1823 1972 1918 1832 1938 1927 1833 1950 1914 1783 1960 1871 1902 1926 1912 1966 1913 2018 1905 1829 1815 1880 1946 1826 1893 1886 1871 1974 1888 1858 1897 1848 1895 1919 1874 1841 1834 1933 1856 1935 1984 1899 1844 1900 1920 1850 1917 1873 1909 1876 1954 1838 1861 1935 1879 1875 1874 1910 1972 1757 1907 1829 1913 1839 1960 1943 1947 1897 1919 1857 1904 1770 1939 1850 1815 1881 1790 1813 1871 1892 1872 1873 1835 1904 1923 1829 1823 1804 1890 1878 1894 1821 1820 1848 1759 1833 1937 1837 1795 1808 1921 1812 1787 1815 1835 1882 1901 1893 1906 1812 1860 1727 1881 1781 1790 1844 1827 1872 1775 1784 1807 1855 1843 1742 1746 1837 1849 1821 1796 1817 1784 1734 1762 1724 1746 1805 1705 1809 1786 1751 1746 1764 1740 1726 1711 1706 1795 1654 1770 1703 1718 1696 1748 1730 1738 1632 1673 1660 1730 1720 1708 1653 1713 1659 1704 1690 1631 1731 1716 1692 1732 1741 1684 1710 1607 1705 1601 1679 1704 1666 1659 1619 1595 1573 1587 1627 1676 1596 1677 1642 1645 1651 1585 1634 1603 1602 1617 1585 1573 1628 1622 1613 1652 1590 1610 1582 1538 1628 1615 1568 1588 1587 1594 1663 1609 1641 1602 1614 1529 1588 1650 1580 1650 1529 1641 1642 1548 1547 1554 1545 1564 1491 1576 1577 1539 1618 1589 1563 1611 1581 1544 1441 1485 1546 1595 1520 1473 1532 1501 1580 1511 1503 1587 1530 1541 1622 1497 1580 1636 1619 1579 1529 1539 1617 1587 1554 1579 1626 1578 1570 1566 1547 1609 1590 1654 1606 1586 1588 1685 1587 1689 1686 1650 1669 1742 1717 1733 1710 1730 1683 1676 1630 1574 1681 1536 1529 1584 1550 1570 1553 1565 1562 1575 1497 1555 1522 1552 1593 1575 1632 1533 1572 1530 1547 1618 1523 1525 1554 1571 1559 1587 1592 1516 1584 1540 1422 1466 1525 1425 1435 1471 1443 1469 1468 1451 1469 1438 1453 1435 1397 1395 1446 1399 1369 1454 1419 1452 1365 1438 1351 1382 1383 1422 1410 1409 1383 1424 1391 1357 1395 1400 1408 1399 1390 1334 1415 1469 1357 1424 1477 1405 1411 1406 1327 1443 1429 1427 1467 1418 1524 1476 1474 1510 1507 1528 1533 1512 1509 1519 1552 1584 1561 1599 1638 1599 1654 1719 1713 1792 1918 1980 1964 2087 2188 2252 2258 2308 2315 2295 2293 2153 2139 2096 2125 1986 1904 1835 1804 1684 1736 1649 1610 1630 1593 1594 1473 1446 1478 1534 1466 1537 1442 1503 1475 1461 1518 1410 1498 1509 1549 1500 1544 1575 1466 1457 1439 1487 1433 1504 1432 1368 1417 1525 1448 1453 1373 1461 1406 1381 1384 1296 1347 1338 1350 1325 1340 1288 1294 1286 1276 1334 1337 1280 1259 1303 1333 1349 1321 1330 1292 1312 1252 1283 1351 1360 1280 1325 1342 1383 1388 1360 1357 1369 1331 1314 1393 1348 1391 1361 1355 1351 1267 1385 1309 1338 1263 1245 1230 1264 1316 1213 1273 1270 1251 1272 1255 1207 1290 1233 1220 1260 1224 1254 1207 1227 1232 1283 1263 1260 1244 1282 1280 1209 1160 1193 1254 1218 1191 1249 1208 1204 1250 1230 1240 1203 1216 1199 1251 1222 1203 1190 1256 1225 1190 1227 1232 1197 1266 1252 1194 1236 1247 1188 1190 1206 1194 1186 1201 1252 1187 1198 1139 1228 1232 1281 1198 1141 1248 1260 1257 1194 1208 1170 1147 1166 1141 1203 1163 1128 1226 1204 1201 1238 1196 1190 1193 1229 1254 1144 1222 1243 1192 1221 1311 1248 1294 1258 1204 1225 1229 1265 1267 1311 1329 1341 1328 1319 1365 1373 1362 1381 1344 1401 1394 1361 1301 1370 1378 1388 1333 1348 1417 1357 1386 1357 1335 1352 1279 1287 1317 1349 1287 1307 1388 1341 1353 1413 1428 1477 1399 1455 1496 1504 1587 1504 1484 1530 1472 1501 1590 1581 1559 1700 1605 1592 1592 1569 1654 1602 1631 1641 1579 1539 1543 1523 1532 1492 1478 1464 1362 1462 1498 1473 1473 1470 1413 1438 1402 1407 1343 1317 1374 1229 1354 1373 1400 1294 1286 1299 1295 1284 1307 1266 1292 1303 1256 1321 1227 1241 1257 1300 1284 1259 1205 1233 1217 1200 1272 1250 1197 1205 1282 1198 1129 1204 1234 1223 1186 1217 1236 1162 1228 1216 1234 1220 1172 1164 1230 1231 1156 1166 1205 1284 1241 1219 1191 1221 1204 1188 1178 1189 1182 1239 1216 1160 1175 1123 1220 1115 1224 1151 1162 1169 1153 1167 1187 1210 1132 1141 1142 1092 1121 1158 1126 1144 1173 1134 1123 1123 1174 1090 1193 1170 1122 1139 1189 1223 1069 1186 1176 1180 1143 1143 1181 1154 1164 1194 1220 1211 1229 1241 1185 1221 1238 1194 1195 1283 1240 1213 1250 1160 1315 1298 1276 1240 1235 1350 1435 1365 1401 1458 1405 1538 1503 1512 1543 1524 1484 1532 1467 1521 1538 1665 1603 1667 1761 1751 1821 1895 1963 2120 2176 2229 2367 2357 2352 2378 2480 2265 2245 2225 2164 2084 2117 1970 1992 1855 1844 1758 1581 1617 1646 1523 1516 1457 1526 1486 1484 1491 1470 1413 1466 1400 1508 1524 1459 1531 1572 1562 1545 1610 1679 1605 1686 1639 1619 1683 1651 1658 1482 1628 1511 1489 1451 1511 1393 1375 1312 1301 1190 1288 1268 1239 1177 1240 1164 1219 1159 1209 1197 1096 1172 1131 1136 1125 1126 1132 1082 1135 1169 1118 1175 1085 1077 1157 1080 1129 1129 1105 1164 1158 1099 1140 1075 1155 1130 1176 1050 1151 1115 1134 1140 1153 1035 1065 1104 1087 1101 1091 1141 1135 1107 1098 1113 1120 1158 1167 1138 1124 1135 1109 1040 1148 1086 1124 1087 1054 1092 1070 1086 1057 1112 1083 1068 1016 1091 1116 1056 1075 1107 1050 1052 1090 1113 1071 1095 1063 1074 1081 1126 1089 1106 1051 1049 1034 1071 1104 1099 1071 1134 1076 1086 1089 1099 1030 1039 1102 1122 1114 1041 1134 1043 1050 1076 1080 1084 1076 1047 1015 1080 1081 1091 1070 1121 1078 1106 1097 1039 1129 1058 1058 1038 1039 1012 1044 1064 1039 1021 1026 1082 1009 1080 1021 1057 1061 1097 1072 983 1042 1042 1030 1039 1056 1022 1066 1039 1002 1060 1002 1067 1086 1031 1042 1048 1017 1059 943 1046 1007 1053 1041 1118 1021 1020 1076 1025 1062 1058 1054 1109 1080 1014 1086 1060 1071 1080 1189 1161 1134 1100 1153 1164 1129 1125 1134 1155 1146 1114 1102 1140 1083 1163 1120 1039 1030 1068 1016 1037 1033 1071 1096 1073 988 1009 1014 1035 1018 1027 995 1038 1056 1036 1075 1045 1055 1045 1035 1045 1019 1009 1058 1039 1004 1034 1040 1057 1062 1074 987 1029 1077 1088 1040 1053 972 1064 1075 1034 1082 1002 1031 1030 1101 990 1062 1013 1006 1105 1015 991 970 974 990 1039 1033 1029 1008 1030 1013 1006 966 977 1006 1011 951 974 989 1037 995 1067 950 1002 1065 1005 1024 1003 1067 1010 1043 1006 1053 1086 1091 1003 1061 1063 1044 1028 1001 1021 1036 1091 1054 1086 1020 1038 1069 1061 1125 1044 1021 990 1028 1064 1053 1012 1048 1090 1069 1004 1030 1052 1072 1035 1087 1007 1040 1052 999 962 1019 1048 1096 1028 1027 1001 944 1072 1039 1074 1017 954 1025 1045 1016 1024 1048 1019 1011 993 1093 948 987 987 1036 1033 988 1029 977 971 932 988 1004 984 911 968 978 1005 964 985 1007 939 964 932 998 970 955 980 948 948 922 972 967 968 989 1048 984 971 1012 1003 1009 1011 919 1006 951 1038 952 979 970 991 1011 965 937 983 990 966 991 1032 991 962 984 1030 974 1000 945 969 946 922 950 962 978 1015 1011 979 961 965 1018 957 1024 963 965 886 924 937 900 1040 982 960 978 961 961 969 967 944 941 957 911 983 975 1003 919 997 957 963 918 960 953 989 946 1017 986 1012 972 1000 994 963 918 970 946 1011 927 993 914 932 1022 1002 937 1000 930 989 1004 972 992 912 957 984 928 993 947 1008 1016 989 941 916 930 967 1011 987 1014 968 1035 931 966 914 989 934 1010 959 965 939 998 981 930 905 911 925 952 938 979 971 953 987 950 940 946 933 950 1000 921 947 944 972 963 945 915 929 975 952 972 946 938 966 947 939 926 964 975 981 902 974 935 953 948 966 969 941 978 974 932 927 938 943 915 944 981 968 955 966 927 993 892 936 877 949 960 982 960 942 938 967 953 909 1019 939 929 885 993 931 921 969 964 977 967 996 886 976 907 945 905 930 904 950 926 904 986 933 985 950 937 937 930 967 943 973 988 994 1000 1027 1022 1029 988 1062 1020 1032 1033 975 1006 1020 985 1073 1045 1062 1042 962 1005 1008 1035 972 1005 968 989 926 949 962 975 939 920 942 943 972 969 985 986 992 917 974 926 903 959 1009 951 921 1000 1035 920 940 987 927 972 922 929 930 946 944 887 905 945 904 992 974 998 908 956 922 956 935 941 934 994 938 942 977 1034 911 945 956 970 957 978 991 1020 968 1001 951 975 986 961 1004 991 984 1002 999 994 1068 1039 1041 986 994 1011 1052 990 1005 1141 1007 1073 1006 1047 988 1021 986 992 1081 983 966 1036 967 988 965 922 968 892 975 954 1006 977 1012 1006 999 940 968 960 932 947 958 960 945 953 966 978 918 998 961 953 983 996 930 957 929 1010 907 943 987 905 927 918 906 941 938 876 889 923 926 951 914 918 912 959 902 944 924 974 939 933 916 949 958 924 972 926 1020 967 963 1032 946 1000 942 940 935 959 950 908 933 962 982 968 965 993 954 988 900 1029 946 938 1005 966 968 962 915 946 931 960 912 970 891 961 881 962 979 967 948 968 876 940 948 886 963 954 937 921 923 937 926 890 921 911 1021 943 895 895 901 931 936 912 917 950 875 918 902 898 972 902 886 906 900 947 911 955 958 922 914 921 849 893 887 908 940 855 870 898 876 909 861 946 908 936 907 883 875 869 933 918 946 914 926 902 894 917 927 914 901 894 931 940 960 935 906 890 961 979 997 968 934 956 985 914 991 934 1033 981 914 950 956 969 894 976 946 915 925 924 970 984 915 924 985 956 959 984 994 960 951 932 922 994 941 989 958 911 984 993 934 953 902 945 947 956 902 958 901 951 964 925 960 934 875 934 931 912 907 907 920 875 890 931 961 928 990 896 910 896 849 868 876 904 975 949 913 904 924 933 888 911 972 900 895 936 930 952 909 998 909 904 940 975 964 1020 963 985 970 1048 998 1064 1031 961 1021 1000 936 970 951 1006 1002 960 935 956 979 978 937 917 927 924 928 978 898 914 895 909 933 883 892 944 857 890 849 900 860 878 868 890 892 880 885 879 921 935 890 903 911 898 847 860 869 878 919 905 845 909 874 881 813 905 877 914 887 895 890 918 844 902 926 885 899 934 875 915 868 917 920 915 900 939 891 878 935 870 956 893 868 952 928 933 865 951 887 918 866 865 877 869 861 908 918 891 920 902 951 880 902 866 931 888 871 889 888 853 898 849 883 920 898 871 923 915 867 878 914 807 839 851 818 899 869 833 874 842 893 868 905 885 879 909 863 856 855 932 852 910 945 862 888 907 890 840 897 872 887 937 887 909 901 943 863 861 867 850 881 856 934 876 865 875 864 895 847 874 877 848 880 882 823 885 918 841 862 919 905 908 860 857 831 849 932 924 920 882 907 846 902 881 854 846 974 864 873 905 907 869 902 863 887 854 889 940 902 835 864 912 890 920 895 884 918 968 897 907 892 907 929 872 969 891 891 883 884 885 891 888 931 936 839 825 883 943 927 877 927 861 875 954 907 895 855 902 937 891 887 849 967 903 967 933 897 903 884 924 903 904 932 836 902 906 902 924 902 949 917 923 959 903 912 879 963 926 980 1014 1041 1018 957 1059 1048 1090 1063 1117 1113 1110 1073 1028 1127 1146 1140 1138 1060 1046 1115 1178 1131 1155 1144 1112 1147 1111 1055 1106 1083 1146 1140 1151 1141 1188 1171 1192 1106 1220 1325 1286 1314 1374 1437 1411 1570 1538 1563 1597 1704 1657 1696 1698 1755 1717 1669 1609 1531 1446 1484 1395 1452 1289 1368 1352 1286 1204 1345 1240 1125 1118 1115 1073 1054 1003 1039 1002 1025 996 1006 979 979 1015 1064 964 1024 1030 1004 988 980 1013 1070 1087 1136 1059 1112 980 1049 1052 1028 979 1029 1055 1083 1051 1044 999 1036 1022 1060 1006 1063 1066 1120 1055 1064 1079 1024 1013 1071 985 1062 1056 958 1014 1025 1018 1021 1028 963 970 996 1001 929 968 976 975 919 908 900 935 918 962 933 954 945 925 979 902 919 940 884 920 904 915 886 939 908 928 898 883 931 950 924 909 939 894 897 875 921 936 878 878 873 864 918 892 879 875 898 867 913 891 867 888 840 864 805 860 918 900 862 923 919 817 906 859 886 846 847 862 850 892 894 873 902 844 907 896 835 867 845 842 879 902 853 900 857 865 812 855 856 835 848 914 835 872 924 877 873 861 875 866 878 878 854 860 820 862 877 852 848 839 850 819 846 864 904 873 823 869 908 918 842 828 898 874 846 841 855 867 849 857 917 891 849 838 853 852 861 865 892 914 892 873 893 962 883 927 865 967 882 863 919 866 856 875 871 862 860 858 895 871 788 878 883 865 839 867 821 868 848 824 845 871 891 886 863 871 855 925 831 878 855 820 872 857 830 827 913 851 829 893 879 862 859 901 928 906 879 916 899 832 829 884 862 866 878 850 892 875 908 880 852 867 855 907 853 856 880 829 901 883 883 805 910 883 884 812 905 808 831 835 880 845 920 841 905 817 849 864 812 860 797 885 802 882 817 840 850 834 795 836 881 825 808 832 788 799 824 841 825 804 842 800 818 856 809 807 837 860 778 844 832 885 843 891 846 862 823 784 810 888 794 882 854 826 821 833 874 850 838 871 831 887 914 912 888 953 867 904 847 888 865 888 870 855 846 850 909 842 795 848 780 841 900 846 796 808 857 828 834 855 859 806 857 847 820 818 810 800 842 833 860 847 848 839 831 829 825 790 848 838 827 836 872 854 835 841 826 821 830 820 824 824 871 825 860 882 818 864 802 811 793 855 820 797 826 808 795 845 819 872 853 813 820 853 868 798 854 805 867 817 810 843 870 819 789 821 820 829 827 842 829 861 824 813 755 833 779 779 847 889 792 761 797 819 850 825 817 865 803 867 831 869 829 828 810 821 877 826 819 808 833 852 783 784 797 832 824 770 845 833 794 808 881 848 783 796 791 793 807 833 790 819 759 800 796 792 860 809 828 804 848 801 810 737 808 798 779 762 761 841 818 830 860 840 872 811 782 807 800 833 812 786 795 840 787 770 817 796 783 775 824 801 771 820 802 852 827 725 790 763 822 794 787 846 821 855 780 771 809 861 809 771 837 848 834 841 805 828 782 807 851 805 801 781 828 793 850 800 801 815 809 853 792 893 805 848 794 826 779 798 779 767 825 751 753 826 796 826 803 812 803 822 831 752 765 823 770 812 767 767 792 810 805 782 835 820 755 811 820 757 828 788 831 852 826 793 814 756 820 792 808 781 783 807 776 800 777 814 788 766 819 794 791 849 795 892 827 810 722 794 792 795 826 777 781 819 785 822 824 785 826 782 796 828 764 767 812 861 797 835 838 817 880 849 827 860 862 817 861 825 822 760 816 788 769 847 836 827 809 821 790 797 767 806 823 767 839 800 834 846 739 763 767 775 794 803 785 801 770 781 819 790 795 814 825 779 783 751 738 809 736 780 822 792 819 775 792 774 794 748 789 816 810 785 788 813 817 861 782 778 769 813 817 816 819 841 795 769 774 852 865 814 818 808 782 820 839 802 803 832 874 787 827 858 746 808 781 861 798 789 843 819 761 824 842 801 770 894 847 818 840 847 798 869 872 843 832 785 879 848 810 795 857 905 792 863 869 839 811 851 812 810 837 839 837 853 838 866 805 810 810 837 805 775 813 781 851 845 839 790 779 794 845 816 813 839 888 837 845 844 877 921 908 867 944 941 900 950 946 964 993 1002 1003 1008 1052 962 1056 1040 994 990 1022 1028 982 1025 1000 1007 941 942 892 895 904 899 929 919 902 909 878 854 835 900 876 878 835 860 809 836 846 861 783 824 792 780 880 808 754 793 747 843 824 819 798 763 821 745 794 809 792 785 781 779 825 845 837 834 795 825 769 809 796 791 754 788 761 821 763 774 772 760 808 770 807 774 759 763 800 782 776 776 795 794 728 750 774 773 777 800 781 793 793 794 823 821 750 778 757 749 772 825 795 805 809 769 726 790 831 799 744 824 796 795 827 816 765 774 751 787 853 767 787 758 749 748 803 827 794 860 810 822 825 845 795 830 778 802 777 840 809 794 815 808 795 805 803 862 766 753 765 747 734 810 807 779 774 738 797 797 796 776 789 792 810 739 793 783 761 803 803 813 727 784 810 816 847 764 758 795 791 817 782 765 752 793 751 783 813 784 755 761 756 772 777 749 810 752 762 754 797 778 772 820 784 824 784 805 816 737 807 876 820 790 807 820 795 827 804 802 787 868 809 847 827 796 892 816 806 714 794 859 771 813 822 791 821 866 807 790 828 856 831 806 790 806 841 844 817 814 857 857 802 834 783 855 832 818 771 822 866 859 859 846 886 826 839 974 946 900 892 968 876 836 943 866 846 851 874 878 870 880 823 810 813 811 811 777 835 839 803 843 859 805 832 862 850 727 803 800 739 720 804 751 762 764 773 823 763 775 765 800 847 768 832 756 797 822 789 799 784 814 778 809 752 805 758 771 765 769 801 832 782 786 787 810 820 775 805 799 809 773 801 834 781 880 800 823 782 792 854 884 856 806 830 811 862 846 933 892 913 974 975 963 963 1059 984 1014 1049 974 1023 965 948 953 975 910 1002 917 867 950 938 946 921 927 908 859 902 887 893 830 813 838 851 818 808 792 810 805 793 835 784 762 770 753 726 766 774 757 774 798 789 804 797 767 835 794 757 727 761 794 758 773 765 800 783 804 783 725 761 809 814 796 732 768 790 765 745 776 765 729 780 836 757 779 764 738 790 749 785 828 776 746 754 800 793 780 697 763 737 757 783 769 764 799 829 786 721 796 757 814 790 749 783 751 743 753 774 771 812 775 738 766 708 739 767 764 801 792 800 768 796 816 772 768 739 786 786 778 776 771 784 790 795 786 763 762 744 766 749 781 756 738 743 752 740 724 764 778 768 728 744 717 821 734 799 742 774 714 764 778 766 796 683 772 811 774 724 831 753 811 770 761 834 791 720 746 783 723 800 707 746 801 725 764 801 735 791 757 791 779 777 797 796 779 810 804 816 794 838 754 726 751 822 759 732 743 783 760 803 770 737 765 787 788 763 745 770 731 833 786 781 769 774 747 742 714 761 774 761 699 733 773 740 743 712 745 784 709 759 764 753 732 690 718 741 770 725 757 706 768 765 747 720 710 750 791 744 774 744 740 713 704 761 675 730 724 773 766 718 779 755 738 731 737 736 784 700 760 756 748 779 790 764 779 794 747 737 768 744 749 735 762 755 765 736 732 768 781 725 753 736 747 693 748 696 777 786 790 736 703 749 759 764 720 711 727 723 703 722 764 745 758 741 771 723 735 679 796 731 725 740 711 724 743 728 732 724 709 769 677 703 707 755 744 731 751 709 692 683 721 739 748 786 757 750 700 768 732 756 776 726 806 761 717 732 760 729 779 707 729 719 724 787 727 782 782 709 771 722 746 758 740 750 733 756 733 783 754 770 720 772 753 758 814 743 736 740 739 784 716 767 704 725 679 752 812 740 791 774 754 755 783 729 756 751 721 742 752 700 793 763 752 785 734 722 787 719 730 752 762 732 721 773 701 754 747 769 708 735 713 724 734 754 718 708 719 746 792 703 764 786 670 724 732 744 728 778 775 691 718 756 764 786 707 768 710 716 769 741 783 719 716 765 742 736 747 779 787 726 794 741 727 715 804 736 817 721 763 723 724 740 765 791 784 751 768 761 681 762 722 772 743 706 758 714 751 750 743 700 771 691 684 710 753 768 776 715 702 749 687 729 753 762 750 768 713 771 740 718 784 761 781 741 684 799 693 744 699 706 738 760 773 726 769 774 698 718 791 749 731 730 713 783 777 722 768 710 695 752 767 781 742 761 719 748 756 722 706 769 733 716 726 757 724 778 702 741 746 766 696 734 734 723 746 719 727 737 751 750 744 766 714 702 673 727 757 734 744 746 776 745 721 770 758 771 747 762 712 802 765 732 739 703 732 780 734 767 738 715 714 749 812 721 735 751 721 748 784 717 745 766 742 729 745 761 706 756 756 726 698 679 750 720 728 710 725 777 751 683 694 727 741 718 726 763 717 755 764 757 754 695 766 739 686 770 697 701 742 705 744 757 755 710 733 727 725 676 723 752 704 724 777 724 713 735 757 736 716 761 744 713 734 704 755 735 757 730 802 792 725 705 703 754 729 728 703 700 696 716 738 792 713 739 795 723 777 687 749 758 763 674 760 710 752 756 692 707 711 761 668 712 691 741 719 728 753 671 688 756 664 740 722 698 734 711 695 724 746 762 649 696 670 708 715 699 735 698 722 716 692 717 720 768 700 686 727 742 683 752 736 703 773 734 732 719 736 750 735 726 747 807 743 751 710 737 737 702 723 698 735 675 701 722 695 726 695 755 760 733 736 715 663 712 708 768 724 703 702 716 724 677 668 718 720 690 671 771 713 737 733 705 720 739 734 748 715 690 768 789 696 720 767 783 706 757 718 785 728 708 717 694 721 734 718 766 779 684 706 726 743 715 726 757 699 775 770 728 735 765 724 756 711 706 706 706 736 711 737 738 702 757 694 748 745 717 721 760 801 731 721 770 738 698 823 758 758 687 754 704 713 753 739 738 729 728 739 752 766 782 718 741 724 746 752 781 771 747 777 726 752 726 759 748 730 743 754 745 753 762 713 763 789 735 767 736 772 764 786 808 762 743 781 779 803 730 762 761 734 711 752 710 743 682 752 747 743 727 755 736 771 734 737 756 765 766 723 744 766 735 717 734 752 732 723 712 740 721 742 730 739 701 701 666 666 710 726 779 706 735 699 737 740 718 749 736 699 764 714 751 689 748 693 720 739 662 721 755 693 763 756 737 749 769 785 672 721 725 796 757 707 783 750 730 768 730 718 764 758 744 720 699 755 775 737 723 748 738 743 675 758 717 713 720 744 701 742 694 767 741 728 761 731 784 692 729 695 711 696 714 656 696 733 734 697 735 716 735 759 700 690 697 740 736 772 685 687 744 717 685 746 798 738 707 717 694 754 712 709 693 714 757 753 690 690 747 657 745 707 716 732 744 756 759 778 728 714 711 714 741 663 710 779 711 699 726 698 767 724 697 719 701 711 743 700 679 722 748 723 743 673 676 702 686 719 707 679 742 700 733 747 699 724 716 709 765 732 750 735 727 756 757 723 728 699 670 733 741 659 735 759 751 744 711 740 721 709 767 723 735 723 743 725 718 712 746 706 740 714 695 698 722 704 758 739 717 700 737 773 746 723 735 720 686 734 719 706 752 722 779 745 708 701 726 812 708 738 692 723 724 740 744 743 724 666 744 725 726 731 700 682 755 711 755 740 737 730 737 743 730 716 720 702 745 730 720 716 728 761 791 745 731 708 715 737 718 740 695 731 720 767 701 738 725 701 705 715 720 711 673 760 713 689 756 741 716 707 695 701 753 735 743 726 719 756 759 746 718 699 775 681 706 722 789 755 753 726 681 758 763 737 728 692 715 727 733 750 705 758 769 718 694 675 778 733 731 706 697 710 734 727 754 751 757 740 700 728 752 730 742 715 724 745 792 781 740 723 790 787 753 769 743 711 717 742 743 733 759 717 719 763 719 755 729 706 725 763 744 733 751 701 685 739 730 732 720 704 764 748 705 719 795 693 744 704 779 726 759 739 753 720 762 692 747 742 764 740 685 700 756 748 765 735 759 731 715 682 690 715 741 720 714 717 717 686 680 786 714 702 710 731 715 772 737 715 734 689 797 744 680 662 753 736 722 750 678 776 734 694 758 747 723 735 704 748 786 738 745 740 728 736 733 730 746 720 717 744 770 754 749 690 738 753 755 685 694 723 707 753 724 718 746 755 722 705 769 756 768 768 830 756 723 723 792 788 763 744 727 792 755 745 762 687 718 786 736 755 724 769 770 764 751 689 767 739 754 764 705 720 737 744 735 739 705 763 820 762 724 748 737 735 710 726 689 744 753 724 705 716 758 736 716 740 723 686 772 721 778 772 758 747 773 740 745 758 771 705 791 733 767 795 745 729 743 712 728 735 775 692 742 709 741 719 783 745 718 741 706 782 764 744 770 699 741 721 777 747 724 729 699 701 746 713 723 752 740 732 756 750 727 738 729 808 711 735 751 748 693 792 697 755 750 734 741 717 771 755 730 720 713 768 734 746 764 794 761 805 782 761 678 741 730 765 752 760 756 747 731 753 732 768 728 764 769 767 758 764 775 677 730 705 762 759 757 780 746 752 749 750 704 733 770 824 744 772 741 720 782 768 765 764 743 735 735 780 756 761 755 747 754 767 795 771 778 725 749 824 808 807 733 726 786 697 782 740 757 817 762 732 816 782 761 766 768 742 790 805 743 779 723 753 744 734 757 729 789 782 734 754 728 813 749 758 767 765 758 743 756 731 722 800 764 814 768 661 783 747 773 745 757 761 750 712 762 750 772 705 767 771 726 763 736 759 799 762 779 718 782 751 778 795 792 760 799 784 785 769 759 739 763 756 827 788 757 758 767 778 751 722 782 772 767 763 739 732 785 740 807 790 766 731 783 778 789 767 757 740 767 783 747 803 767 776 738 760 751 713 792 763 750 746 744 758 748 715 804 736 729 738 772 730 728 803 743 783 743 725 795 715 737 761 746 750 755 820 734 778 741 746 712 732 706 716 725 736 791 734 787 746 774 741 739 782 688 798 703 802 771 750 729 768 732 737 767 708 740 765 756 755 791 708 754 707 764 715 743 716 760 725 731 723 764 811 714 725 728 740 753 714 757 771 734 789 733 720 769 793 807 720 781 791 734 763 731 741 781 850 770 768 768 750 774 774 753 808 801 814 819 825 832 840 795 762 884 815 806 793 800 810 833 842 786 800 793 802 793 744 830 781 815 755 761 827 759 827 836 829 788 828 824 728 832 765 787 875 757 760 767 804 775 705 758 729 747 764 717 756 778 750 735 697 774 710 767 743 719 714 714 793 726 709 733 734 755 718 785 763 698 738 739 674 740 671 744 682 659 695 730 689 698 686 765 697 752 705 706 758 673 778 765 739 754 757 715 767 698 751 701 794 715 734 713 763 652 724 766 731 754 740 730 730 726 732 723 759 749 723 738 773 751 712 727 791 795 730 721 756 708 707 778 761 746 740 775 813 706 726 724 747 771 791 746 755 768 691 743 710 742 693 672 707 715 746 721 745 732 721 744 766 762 769 760 788 688 742 725 754 726 711 740 703 712 754 716 760 737 758 735 683 680 750 735 754 752 655 657 726 698 718 710 778 697 696 740 730 740 711 774 787 732 723 712 723 703 763 743 731 716 722 737 715 748 760 743 730 745 727 721 736 717 738 719 690 701 706 690 689 756 730 738 665 729 678 714 719 649 702 710 757 716 751 692 695 681 712 768 742 699 668 672 722 787 706 745 706 752 660 687 747 726 688 658 715 702 736 732 683 731 735 748 658 705 717 698 673 723 706 727 713 712 679 673 717 745 707 707 698 756 735 740 748 739 743 747 726 759 684 711 659 701 676 722 713 730 744 768 705 694 697 748 697 721 743 695 742 701 709 717 671 708 699 724 717 714 717 692 692 696 714 710 714 699 721 699 703 659 747 700 681 716 765 741 697 738 684 726 707 700 723 707 646 700 721 752 774 708 727 735 719 733 702 696 735 715 695 722 761 704 676 709 717 708 683 687 701 681 735 704 730 737 727 718 716 728 703 685 752 720 723 713 725 719 705 731 686 715 695 712 722 752 695 734 730 743 693 695 728 720 743 715 698 758 696 740 753 669 741 702 696 701 734 724 746 689 672 728 728 684 728 696 779 702 658 758 710 709 732 749 689 761 684 651 735 679 717 705 699 765 738 764 684 704 692 703 670 734 747 739 780 743 713 701 738 702 717 700 683 756 731 708 772 701 720 650 701 713 662 738 663 698 717 711 699 738 723 752 721 698 730 732 721 672 673 668 762 722 726 694 690 710 715 695 715 719 720 681 718 698 769 721 703 740 719 712 705 669 684 685 730 699 681 718 734 702 726 728 720 690 704 723 688 685 717 688 727 680 719 683 728 732 721 683 680 698 665 712 698 703 696 718 741 629 691 717 709 674 748 696 724 720 731 682 698 748 709 701 713 695 750 683 675 716 731 746 750 733 756 707 730 699 648 724 713 716 740 648 708 744 701 711 717 695 714 717 741 734 667 692 724 726 723 700 699 734 686 672 668 714 703 731 729 725 743 735 750 702 720 739 677 762 695 696 678 700 704 661 731 762 674 687 728 700 721 674 744 732 726 721 671 711 757 713 723 749 702 774 684 717 738 717 692 725 698 705 746 725 692 740 662 738 701 670 717 710 712 675 701 682 701 688 740 704 708 670 719 693 732 672 737 729 775 763 740 738 679 667 695 688 671 669 663 689 716 719 645 690 709 676 717 698 678 675 714 712 735 681 736 763 679 688 690 659 698 721 700 700 684 706 728 713 730 714 714 690 669 702 680 700 705 637 733 689 724 660 709 732 761 749 683 694 714 700 654 709 724 682 724 707 701 686 734 717 691 681 705 707 681 706 675 752 718 781 710 724 731 696 706 681 716 676 683 690 717 705 732 700 715 722 720 740 698 691 737 734 712 713 683 717 738 718 738 763 678 734 696 676 733 727 712 732 653 758 740 664 739 735 690 745 709 722 728 724 720 697 716 723 708 707 732 726 728 694 729 698 718 747 726 702 686 692 697 642 677 721 697 787 689 707 717 732 713 741 718 704 712 763 708 737 745 663 694 715 709 717 750 709 726 711 678 736 745 739 749 741 715 708 702 730 734 735 682 677 721 712 738 719 720 688 693 715 748 721 694 693 696 706 699 741 686 695 747 717 747 728 715 688 742 711 707 680 669 749 746 709 695 742 723 710 742 698 685 712 709 706 694 707 769 716 737 665 751 741 728 667 769 742 732 686 746 720 729 741 752 697 721 733 722 748 725 707 760 704 753 771 703 752 737 797 757 764 761 782 769 809 777 742 770 748 769 734 771 746 769 751 732 801 752 720 719 752 748 755 732 777 784 762 672 779 790 752 771 751 791 760 745 709 722 767 769 725 768 745 746 688 785 713 680 766 739 711 717 673 757 752 725 734 726 782 733 717 738 655 713 741 734 749 743 710 674 731 717 673 726 652 681 722 706 705 757 684 705 660 719 687 747 717 701 697 707 677 662 719 718 703 675 668 684 749 750 756 669 722 763 714 737 723 725 711 708 722 721 677 667 745 707 680 704 744 715 723 740 660 673 688 682 752 718 731 699 697 727 734 690 749 726 739 664 707 695 773 772 738 694 767 758 711 738 723 775 646 707 708 707 715 691 751 693 694 689 745 701 728 731 718 730 743 724 726 668 778 745 764 750 708 781 747 707 750 744 712 741 740 741 742 736 749 696 758 709 730 718 742 738 696 700 718 716 735 801 714 745 680 756 753 745 719 762 722 681 756 738 711 723 755 685 694 680 752 753 711 678 760 727 689 704 649 679 700 719 698 726 754 741 738 678 711 722 687 692 703 705 680 670 685 677 727 682 657 681 711 699 647 725 653 704 699 684 712 749 696 671 696 714 755 716 732 701 677 649 672 693 668 720 712 703 760 705 684 659 666 693 694 678 720 743 726 674 649 726 706 678 663 695 718 687 663 675 675 689 706 702 676 756 734 705 671 735 697 750 652 656 713 733 675 708 702 683 716 647 695 717 721 707 706 664 720 725 708 721 741 678 711 734 665 703 701 662 689 646 690 695 696 732 699 656 676 708 691 682 699 675 745 698 679 675 678 673 655 670 692 684 683 718 669 676 694 710 644 695 685 667 700 655 758 711 664 667 702 714 669 636 692 688 703 656 753 672 715 725 734 658 736 721 682 705 637 715 663 730 715 676 693 688 748 651 726 678 699 738 713 739 692 728 637 668 728 626 654 694 685 697 702 686 680 656 655 659 703 707 696 714 675 676 682 698 666 628 675 703 717 681 712 698 666 684 670 664 715 642 679 678 689 655 614 734 681 695 710 667 685 700 730 691 685 649 719 694 683 706 652 733 701 734 663 660 677 688 696 695 678 743 689 687 772 741 662 715 709 676 723 690 695 690 708 659 666 690 704 698 641 728 739 720 704 651 690 653 697 664 700 717 663 699 676 741 705 703 638 681 629 694 696 703 710 699 647 674 666 704 723 673</counts>
			</dataPoints>
		</scan>
	</xrdMeasurement>
</xrdMeasurements>
