<?xml version="1.0"?>
<xrdMeasurements xmlns="http://www.xrdml.com/XRDMeasurement/2.3" xmlns:xsi="http://www.w3.org/2001/XMLSchema-instance" xsi:schemaLocation="http://www.xrdml.com/XRDMeasurement/2.3 http://www.xrdml.com/XRDMeasurement/2.3/XRDMeasurement.xsd" status="Completed" recordIdentifier="{36E15F00-C116-4818-A934-04B118C7BC92}">
	<comment>
		<entry/>
	</comment>
	<sample type="To be analyzed">
		<id>GPSS_Li1p5Mn0p3Fe0p2Y0p25In0p25Cl4_121225_693c5ab8f4d05ae3d6974f14</id>
		<name></name>
		<preparedBy></preparedBy>
	</sample>
	<xrdMeasurement measurementType="Scan" status="Completed" sampleMode="Reflection">
		<usedWavelength intended="K-Alpha 1">
			<kAlpha1 unit="Angstrom">1.5405980</kAlpha1>
			<kAlpha2 unit="Angstrom">1.5444260</kAlpha2>
			<kBeta unit="Angstrom">1.3922500</kBeta>
			<ratioKAlpha2KAlpha1>0.5000</ratioKAlpha2KAlpha1>
		</usedWavelength>
		<incidentBeamPath>
			<radius unit="mm">145.00</radius>
			<xRayTube id="1010048" name="Empyrean Cu LFF HR (9430 033 7310x)">
				<tension unit="kV">40.0</tension>
				<current unit="mA">15.0</current>
				<anodeMaterial>Cu</anodeMaterial>
				<focus type="Line">
					<length unit="mm">12.0</length>
					<width unit="mm">0.4</width>
					<takeOffAngle unit="deg">6.0</takeOffAngle>
				</focus>
			</xRayTube>
			<sollerSlit id="21010002" name="Soller slits 0.04 rad.">
				<opening unit="rad">0.0400</opening>
			</sollerSlit>
			<mask id="22031000" name="Fixed mask 13 mm">
				<width unit="mm">9.00</width>
			</mask>
			<divergenceSlit id="22120001" name="Divergence slit 1°" xsi:type="fixedDivergenceSlitType">
				<distanceToSample unit="mm">50.00</distanceToSample>
				<height unit="mm">1.52</height>
			</divergenceSlit>
		</incidentBeamPath>
		<sampleMovement xsi:type="spinningSampleMovementType">
			<spinnerRevolutionTime unit="seconds">1.0</spinnerRevolutionTime>
		</sampleMovement>
		<diffractedBeamPath>
			<radius unit="mm">145.00</radius>
			<antiScatterSlit id="22090040" name="AS slit 9 mm (PIXcel)" xsi:type="fixedAntiScatterSlitType">
				<height unit="mm">9.00</height>
			</antiScatterSlit>
			<sollerSlit id="21020003" name="Large Soller slits 0.04 rad.">
				<opening unit="rad">0.0400</opening>
			</sollerSlit>
			<filter id="20030001" name="Large beta-filter Nickel">
				<material>Ni</material>
				<thickness unit="mm">0.020</thickness>
			</filter>
			<detector id="7010019" name="PIXcel1D-Medipix3 detector" xsi:type="rtmsDetectorType">
				<phd unit="keV">
					<lowerLevel>4.02</lowerLevel>
					<upperLevel>11.27</upperLevel>
				</phd>
				<mode>Scanning</mode>
				<activeLength unit="deg">5.542</activeLength>
			</detector>
		</diffractedBeamPath>
		<scan appendNumber="0" mode="Continuous" scanAxis="Gonio" status="Completed">
			<header>
				<startTimeStamp>2025-12-15T16:16:06-08:00</startTimeStamp>
				<endTimeStamp>2025-12-15T16:24:13-08:00</endTimeStamp>
				<author>
					<name>AutomatedUser</name>
				</author>
				<source>
					<applicationSoftware version="1.7b (136)">PANalytical Aeris Instrument Suite</applicationSoftware>
					<instrumentControlSoftware version="3.2.00000000 20240306">AERIS</instrumentControlSoftware>
					<instrumentID>950485</instrumentID>
				</source>
			</header>
			<dataPoints>
				<positions axis="2Theta" unit="deg">
					<startPosition>10.00943322</startPosition>
					<endPosition>99.99442286</endPosition>
				</positions>
				<positions axis="Omega" unit="deg">
					<startPosition>5.00471661</startPosition>
					<endPosition>49.99721143</endPosition>
				</positions>
				<commonCountingTime unit="seconds">12.495</commonCountingTime>
				<counts unit="counts">2836 2681 2750 2924 2735 2905 2792 2853 2805 2752 2797 2728 2785 2807 2734 2707 2762 2701 2740 2703 2794 2854 2772 2820 2792 2715 2840 2882 2830 2846 2715 2774 2722 2700 2840 2762 2772 2702 2778 2818 2727 2852 2782 2813 2797 2732 2759 2841 2773 2807 2718 2768 2752 2669 2734 2753 2746 2819 2756 2731 2745 2815 2788 2768 2754 2675 2751 2852 2827 2862 2791 2788 2831 2842 2690 2832 2757 2807 2724 2848 2747 2817 2851 2766 2806 2885 2744 2822 2750 2841 2715 2802 2797 2787 2786 2822 2892 2886 2810 2815 2734 2769 2735 2779 2815 2828 2851 2701 2793 2774 2829 2877 2750 2674 2857 2768 2827 2738 2791 2763 2791 2815 2814 2817 2757 2833 2747 2719 2721 2814 2895 2884 2746 2737 2766 2799 2815 2830 2975 2807 2834 2791 2767 2916 2800 2713 2801 2951 2801 2937 2788 2811 2825 2859 2854 2833 2752 2873 2796 2871 2872 2764 2860 2728 2829 2839 2897 2882 2806 2886 2854 2865 2888 2896 2798 2844 2798 2834 2807 2812 2714 2837 2844 2887 2800 2839 2799 2858 2922 2819 2912 2905 2847 2815 2904 2920 2831 2847 2867 2890 2828 2801 2867 2711 2779 2915 2822 2870 2831 2924 2845 2808 2914 2719 2850 2818 2888 2805 2854 2804 2885 2765 2805 2759 2828 2882 2912 2794 2878 2887 2851 2840 2753 2786 2822 2912 2847 2789 2863 2842 2843 2792 2784 2877 2749 2902 2834 2922 2812 2858 2848 2893 2833 2834 2802 2894 2826 2802 2705 2900 2764 2756 2835 2923 2797 2740 2861 2906 2839 2836 2824 2761 2763 2807 2870 2799 2800 2902 2847 2859 2934 2774 2892 2896 2867 2787 2917 2862 2826 2964 2858 2855 2826 2935 2909 2842 2877 2844 2927 2958 2944 2896 2919 2978 2879 2991 2988 2834 2933 2902 2946 2935 2997 2930 2941 2999 3034 2969 2920 3069 2983 2903 3010 2989 2947 3065 2986 3046 3001 3042 2996 2926 3001 2931 3037 2974 3063 3016 3029 3045 2913 3047 3021 3166 3094 3060 3091 3008 3129 3096 3085 3094 3111 3127 3088 3139 3169 3128 3094 3175 3221 3122 3244 3195 3268 3145 3215 3226 3287 3221 3200 3220 3237 3200 3338 3228 3310 3167 3300 3401 3261 3304 3229 3388 3272 3288 3495 3384 3481 3381 3503 3376 3450 3457 3465 3582 3503 3534 3514 3482 3553 3675 3561 3678 3721 3800 3786 3866 4046 3886 4139 3969 4254 4259 4277 4299 4220 4358 4227 4189 4079 4014 4059 3892 3909 3848 3641 3698 3648 3677 3571 3662 3641 3661 3591 3622 3715 3738 3712 3650 3707 3611 3723 3723 3713 3753 3741 3781 3780 3721 3931 3746 3837 3703 3726 3777 3849 3851 3792 3754 3764 3638 3680 3756 3675 3597 3641 3732 3719 3693 3664 3620 3691 3558 3565 3611 3617 3577 3566 3601 3545 3480 3659 3551 3532 3531 3598 3471 3426 3524 3455 3521 3393 3629 3442 3443 3509 3473 3456 3364 3398 3413 3372 3529 3425 3486 3407 3454 3456 3567 3508 3459 3612 3607 3668 3583 3601 3745 3677 3752 3757 3753 3844 3788 3889 3928 3816 3618 3642 3616 3594 3468 3460 3330 3479 3423 3442 3369 3318 3303 3373 3270 3258 3342 3307 3376 3322 3325 3256 3251 3209 3314 3264 3304 3391 3239 3301 3332 3361 3323 3340 3315 3214 3290 3320 3196 3276 3170 3196 3366 3359 3252 3227 3223 3351 3242 3230 3115 3140 3205 3126 3166 3254 3137 3184 3212 3087 3096 3050 3158 3032 3051 3005 3196 3181 3015 3066 3102 3036 3086 3066 3093 3124 3063 3008 3010 2960 2986 3002 3070 2999 3060 3059 3032 2940 3033 3103 3058 2972 3005 3088 2963 2944 2997 3010 2999 2920 3033 2938 2966 2997 3029 2978 2991 3018 2971 2959 3029 2982 3009 3041 3083 3006 3101 3162 3102 3224 3087 3248 3110 3224 3276 3203 3283 3184 3364 3363 3344 3391 3363 3385 3412 3265 3359 3264 3205 3121 3160 2966 3065 3032 2991 2933 3055 3007 3071 2967 2741 2995 2938 2968 2955 2890 2946 2927 2870 2988 3023 2967 2979 3033 2956 2996 2858 2939 3072 3007 3026 2959 3051 2957 3052 3035 2977 2937 3038 2988 3011 2923 3108 2934 2926 2958 2998 2995 2988 2854 2974 2820 2925 2954 2908 2911 3018 2869 2726 2918 2886 2849 2917 2863 2840 2883 2899 2842 2924 2799 2948 2799 2892 2820 2810 2813 2879 2786 2854 2797 2796 2768 2886 2767 2712 2768 2805 2857 2830 2809 2872 2747 2723 2795 2782 2843 2815 2711 2830 2767 2807 2752 2810 2772 2938 2806 2842 2743 2762 2730 2810 2824 2837 2722 2737 2770 2822 2716 2859 2850 2735 2900 2788 2803 2737 2797 2672 2798 2764 2851 2861 2852 2785 2688 2840 2785 2741 2795 2719 2698 2773 2725 2652 2825 2749 2705 2762 2840 2852 2774 2631 2773 2717 2703 2728 2728 2679 2730 2710 2650 2781 2624 2677 2758 2700 2738 2626 2670 2684 2659 2647 2652 2643 2629 2736 2726 2622 2738 2636 2581 2682 2571 2688 2647 2684 2613 2659 2699 2731 2575 2640 2639 2595 2691 2637 2593 2709 2586 2597 2663 2564 2636 2526 2652 2613 2678 2581 2541 2660 2758 2620 2676 2632 2535 2734 2526 2644 2617 2600 2725 2557 2562 2694 2601 2631 2595 2613 2524 2611 2532 2567 2601 2614 2515 2576 2592 2609 2520 2587 2573 2577 2576 2558 2526 2588 2525 2451 2547 2602 2545 2494 2600 2576 2498 2494 2550 2517 2485 2543 2450 2458 2600 2519 2525 2534 2521 2411 2528 2557 2604 2455 2505 2570 2430 2427 2479 2488 2453 2478 2528 2523 2556 2520 2481 2534 2529 2492 2438 2442 2511 2469 2482 2468 2527 2492 2528 2375 2463 2413 2483 2453 2495 2480 2342 2538 2494 2501 2453 2456 2479 2451 2494 2518 2375 2433 2408 2510 2456 2507 2455 2578 2525 2491 2507 2481 2467 2377 2467 2448 2350 2386 2563 2442 2417 2446 2394 2432 2481 2417 2435 2346 2451 2438 2437 2460 2455 2464 2479 2474 2500 2470 2454 2490 2478 2443 2377 2418 2512 2524 2365 2488 2506 2465 2441 2353 2407 2379 2420 2423 2491 2400 2420 2416 2376 2420 2455 2438 2485 2357 2487 2544 2534 2497 2443 2541 2523 2501 2471 2436 2593 2516 2550 2420 2498 2489 2573 2486 2520 2467 2466 2511 2412 2371 2446 2490 2449 2469 2503 2405 2435 2496 2460 2454 2470 2470 2586 2450 2584 2456 2485 2528 2564 2439 2480 2567 2402 2382 2446 2366 2392 2397 2406 2480 2466 2419 2430 2420 2483 2506 2424 2428 2403 2539 2469 2486 2388 2492 2404 2537 2523 2468 2418 2558 2418 2467 2530 2401 2429 2369 2354 2405 2377 2389 2413 2379 2397 2298 2288 2321 2349 2477 2446 2465 2441 2374 2374 2466 2382 2311 2359 2271 2376 2382 2386 2414 2326 2409 2322 2426 2386 2416 2339 2331 2429 2243 2367 2382 2311 2403 2341 2268 2306 2324 2203 2324 2289 2295 2331 2312 2304 2297 2282 2308 2336 2300 2192 2258 2247 2232 2215 2323 2214 2240 2269 2229 2253 2174 2153 2241 2214 2223 2303 2167 2197 2230 2177 2243 2267 2119 2204 2196 2151 2148 2120 2132 2143 2153 2222 2137 2161 2156 2184 2296 2285 2251 2150 2215 2217 2205 2239 2351 2309 2276 2361 2343 2235 2310 2320 2325 2257 2284 2229 2167 2089 2228 2070 2147 1985 2046 1916 2084 2022 2057 2021 1920 1951 2039 1955 1995 2026 1942 2073 1952 1996 1929 2027 2041 1985 1887 1911 1828 2013 1976 1972 1881 1960 1966 1833 1848 1985 1916 1981 1977 1976 1944 1918 1958 1904 1931 1889 1800 1864 1913 1937 1869 1879 1847 1916 1837 1869 1836 1848 1872 1837 1914 1873 1798 1873 1812 1912 1844 1816 1899 1754 1934 1807 1813 1826 1815 1758 1794 1817 1751 1808 1849 1815 1819 1854 1854 1861 1789 1889 1799 1800 1780 1763 1742 1797 1797 1772 1819 1941 1750 1771 1753 1783 1813 1795 1697 1751 1769 1831 1755 1804 1700 1718 1721 1869 1733 1802 1814 1754 1775 1786 1652 1748 1752 1801 1766 1829 1746 1766 1775 1762 1745 1717 1818 1775 1794 1685 1754 1791 1775 1816 1755 1813 1746 1777 1690 1717 1756 1811 1768 1728 1759 1688 1738 1784 1708 1719 1797 1733 1757 1688 1743 1826 1829 1802 1681 1733 1734 1718 1702 1672 1746 1733 1737 1707 1713 1733 1718 1834 1780 1714 1734 1752 1775 1668 1749 1775 1724 1802 1820 1832 1869 1773 1798 1745 1760 1754 1768 1721 1734 1875 1804 1760 1767 1695 1716 1783 1775 1762 1835 1802 1749 1861 1734 1762 1740 1881 1747 1831 1780 1843 1759 1686 1798 1688 1672 1757 1780 1724 1810 1764 1834 1708 1704 1804 1810 1760 1778 1816 1656 1722 1784 1792 1705 1771 1848 1750 1781 1739 1785 1800 1811 1773 1790 1702 1669 1836 1777 1738 1759 1713 1762 1728 1738 1633 1698 1761 1818 1774 1777 1729 1735 1807 1796 1806 1764 1806 1721 1747 1790 1849 1747 1727 1774 1760 1673 1752 1733 1683 1758 1694 1777 1769 1708 1670 1654 1674 1696 1717 1647 1560 1675 1650 1751 1744 1669 1665 1700 1669 1702 1655 1625 1611 1690 1632 1672 1657 1621 1644 1665 1740 1756 1711 1682 1686 1558 1588 1673 1642 1652 1604 1600 1684 1605 1608 1535 1606 1622 1602 1641 1550 1630 1634 1559 1563 1570 1547 1561 1472 1618 1593 1495 1525 1489 1584 1565 1559 1511 1550 1622 1630 1609 1585 1490 1501 1566 1491 1599 1466 1522 1478 1503 1475 1527 1488 1610 1551 1513 1520 1551 1571 1557 1526 1611 1504 1590 1437 1523 1575 1507 1520 1519 1521 1526 1540 1477 1464 1548 1563 1569 1453 1513 1578 1495 1516 1505 1583 1404 1604 1489 1405 1558 1518 1560 1591 1630 1591 1664 1711 1729 1760 1774 1782 1838 1877 1841 1932 1910 1969 1904 1930 1862 1846 1863 1873 1905 1731 1796 1767 1708 1743 1706 1686 1720 1655 1659 1584 1714 1585 1609 1630 1596 1513 1547 1570 1602 1464 1481 1473 1502 1502 1473 1449 1387 1383 1387 1464 1422 1422 1415 1429 1422 1357 1385 1426 1332 1402 1367 1430 1350 1423 1375 1379 1355 1350 1382 1375 1368 1351 1358 1419 1354 1296 1291 1396 1327 1295 1262 1284 1306 1316 1322 1307 1343 1343 1265 1276 1375 1377 1233 1259 1250 1306 1372 1283 1285 1310 1341 1304 1348 1319 1303 1372 1276 1336 1383 1353 1383 1386 1409 1357 1476 1529 1511 1630 1618 1783 1704 1917 1949 1989 2025 2099 2159 2227 2219 2268 2208 2266 2220 2097 2120 2051 2005 1896 1812 1686 1722 1609 1630 1567 1420 1371 1456 1372 1353 1293 1276 1337 1268 1372 1390 1326 1321 1318 1325 1257 1365 1308 1440 1393 1315 1316 1432 1365 1353 1412 1450 1425 1392 1367 1414 1320 1352 1331 1307 1396 1255 1337 1322 1277 1237 1294 1315 1265 1209 1180 1226 1187 1204 1180 1126 1188 1169 1100 1187 1129 1172 1123 1128 1156 1190 1191 1121 1136 1137 1139 1155 1062 1194 1174 1153 1080 1113 1161 1151 1156 1141 1168 1178 1154 1133 1150 1103 1156 1109 1125 1050 1158 1101 1121 1148 1107 1050 1086 1115 1092 1077 1104 1128 1099 1168 1056 1159 1111 1103 1102 1146 1112 1097 1155 1120 1065 1143 1094 1169 1090 1168 1066 1158 1072 1103 1102 1059 1118 1156 1091 1167 1184 1150 1146 1164 1082 1244 1188 1215 1288 1298 1330 1480 1426 1552 1576 1669 1724 1854 1946 2054 2249 2343 2432 2512 2596 2762 2737 2755 2795 2618 2670 2548 2496 2281 2166 2018 1877 1776 1681 1625 1512 1455 1358 1264 1305 1233 1265 1161 1166 1170 1186 1138 1171 1231 1161 1249 1246 1195 1194 1182 1144 1197 1144 1147 1218 1251 1265 1250 1217 1189 1278 1234 1271 1170 1285 1293 1316 1194 1256 1195 1278 1189 1287 1241 1193 1174 1142 1172 1139 1155 1074 1109 1111 1051 1047 1079 1019 1027 1073 1036 1013 978 1041 975 961 1068 1044 1029 1009 1029 999 1030 1011 989 931 1012 1017 1004 973 975 1059 1011 998 986 1040 1027 1012 974 962 999 1001 1032 995 998 1033 1010 988 975 977 965 926 970 1025 1013 1047 980 964 986 943 981 952 942 1006 911 965 931 980 980 970 953 968 950 938 974 955 972 977 887 1057 975 977 985 980 974 992 969 941 975 948 985 998 969 1008 980 1003 1013 929 1022 952 1018 927 980 1020 970 929 963 896 928 922 920 947 923 962 963 960 966 931 941 932 980 987 961 966 960 955 945 982 969 919 1001 954 974 958 1026 951 940 1005 996 1040 1038 1055 1047 1085 1030 1156 1127 1139 1162 1170 1170 1125 1286 1222 1292 1232 1194 1164 1193 1208 1150 1165 1130 1142 1083 1080 1108 1075 1037 1138 985 1027 998 1057 979 1023 1057 1065 1108 1080 1107 1169 1215 1285 1284 1334 1477 1519 1618 1708 1840 2014 2123 2246 2503 2600 2872 2997 3093 3251 3400 3416 3627 3393 3556 3527 3333 3169 3040 2875 2774 2636 2485 2278 2186 1985 1936 1838 1670 1581 1520 1374 1406 1343 1319 1237 1307 1265 1218 1182 1219 1308 1170 1235 1221 1146 1258 1255 1227 1213 1240 1228 1282 1195 1206 1168 1194 1142 1122 1100 1085 1045 1109 1056 1107 1155 1059 979 995 959 1003 985 1023 961 1031 978 967 972 999 933 936 941 918 908 922 929 943 919 936 907 931 878 948 897 892 932 932 872 893 932 897 974 915 886 968 905 875 946 877 892 880 923 891 886 945 903 940 963 904 928 872 917 954 898 937 931 960 941 939 921 896 897 949 936 963 892 947 920 914 907 933 900 910 917 897 918 950 905 938 899 914 883 896 891 910 933 939 852 880 918 875 894 893 852 925 883 865 857 907 924 825 821 900 830 890 914 888 897 867 773 800 888 805 848 885 820 870 862 905 869 893 912 877 927 886 852 851 855 892 780 875 831 884 851 887 884 854 878 808 861 899 839 892 871 898 916 876 989 916 947 926 1017 905 935 955 907 949 916 968 931 945 930 896 874 913 852 896 896 927 883 877 825 895 819 786 883 864 876 836 861 912 891 839 820 858 825 882 864 858 863 848 832 826 771 842 824 809 861 814 868 820 845 804 804 842 802 847 809 800 825 809 808 871 828 817 847 864 803 797 822 800 859 831 878 834 865 843 832 830 858 886 853 875 831 825 842 774 881 862 816 853 826 804 850 801 794 813 796 824 821 832 843 835 793 787 804 806 800 759 800 798 809 765 820 761 785 793 741 762 829 723 792 791 796 774 757 779 811 798 746 761 737 779 733 763 748 826 777 738 779 816 754 735 749 758 726 788 806 820 825 734 745 741 771 772 762 743 743 724 738 798 743 796 780 735 794 788 818 764 758 810 765 764 771 695 786 781 766 763 741 746 769 727 771 719 769 770 784 740 755 781 797 756 739 725 775 684 764 748 745 742 773 737 784 801 779 733 773 768 720 721 761 711 770 727 747 733 775 710 724 754 701 759 765 769 733 758 730 753 706 743 743 740 711 739 806 758 742 766 696 683 778 724 745 729 740 746 733 754 741 713 760 732 802 733 735 756 715 759 718 746 741 701 685 720 756 690 749 698 764 722 752 711 748 750 742 743 695 708 762 698 698 712 717 689 721 767 670 739 712 702 753 728 711 726 692 760 680 741 724 731 749 761 723 656 715 755 750 695 707 680 720 766 721 718 702 724 709 779 729 769 721 732 744 739 728 748 756 735 743 753 729 790 695 768 701 707 680 707 725 740 748 682 745 772 748 737 725 738 712 744 716 782 709 725 723 696 769 712 763 711 711 700 705 740 768 737 734 701 688 712 718 804 708 764 753 799 808 747 754 718 788 783 812 777 818 858 783 915 905 925 948 960 1022 1037 1038 1048 1192 1230 1266 1282 1297 1349 1371 1303 1315 1304 1314 1260 1211 1203 1199 1106 1158 1042 1024 987 963 955 900 878 827 894 798 804 812 733 730 804 750 756 774 761 736 766 763 780 761 724 778 794 745 717 786 699 766 805 788 724 733 754 740 736 720 706 728 697 718 696 719 710 673 724 713 701 713 711 717 693 695 706 708 703 715 656 699 682 676 734 695 686 727 694 667 674 724 629 652 677 682 681 653 710 654 681 648 688 653 687 694 713 688 701 645 684 710 743 729 714 681 658 679 650 684 738 672 670 681 689 695 712 685 727 656 676 711 671 676 662 723 735 730 667 695 709 656 654 673 697 690 735 627 692 707 712 677 703 670 660 644 682 716 634 715 745 676 709 716 661 742 693 749 736 752 783 739 744 769 781 762 757 786 781 753 775 796 796 775 766 731 740 784 760 764 696 702 667 744 717 664 647 700 714 709 720 698 702 705 636 730 722 680 712 730 678 694 683 706 711 669 662 702 713 672 710 718 691 755 728 707 678 741 771 743 775 783 742 734 788 762 715 736 774 725 752 710 724 717 686 689 709 698 650 709 663 685 688 629 690 688 695 695 656 686 662 670 675 667 663 657 652 717 653 696 644 681 669 662 663 666 699 658 661 625 696 645 686 664 618 664 698 676 689 671 704 691 670 668 640 705 720 673 665 716 659 717 747 754 681 723 733 721 734 752 713 696 750 694 707 737 733 714 682 694 713 669 665 624 646 656 659 688 681 644 687 694 696 648 662 681 728 667 698 659 661 692 651 672 679 676 663 648 733 729 685 688 645 714 686 634 637 690 689 692 678 654 675 636 653 680 744 672 709 720 703 721 683 762 720 699 729 812 856 773 818 866 830 813 817 885 837 827 954 850 845 847 818 851 816 835 840 797 785 735 757 768 763 791 713 695 708 682 725 719 727 688 730 684 674 658 651 665 686 696 678 633 680 637 701 648 624 658 645 635 643 623 635 702 672 663 612 657 646 599 640 624 670 644 648 675 651 659 644 638 647 632 631 636 582 593 604 641 635 661 664 596 637 625 630 574 631 635 585 671 639 634 566 612 580 614 635 673 628 624 658 644 615 652 611 613 665 660 666 638 620 624 617 647 659 631 642 598 559 655 608 624 587 638 613 628 631 627 627 617 624 647 645 620 640 621 667 658 637 625 608 604 570 590 632 637 597 616 624 565 595 602 633 606 606 572 625 618 617 633 638 610 612 589 613 635 627 637 595 605 632 609 610 591 619 639 614 644 578 642 637 631 581 565 553 597 571 588 606 632 621 595 583 580 636 588 632 637 625 610 611 591 633 607 592 632 624 604 603 595 553 640 636 574 609 585 599 629 668 583 610 635 581 656 637 612 611 621 596 567 581 624 614 611 603 602 625 639 699 583 619 608 596 598 636 594 613 562 623 634 599 648 595 604 607 645 591 577 634 642 590 627 593 679 591 610 611 638 589 609 612 622 602 608 640 619 659 611 651 654 624 616 648 564 599 624 631 662 649 636 670 646 602 630 622 632 580 591 631 635 593 624 621 625 644 645 630 644 670 635 667 651 596 617 610 656 640 640 595 638 641 621 643 622 604 571 667 648 614 629 640 661 655 643 652 667 637 737 669 703 714 747 704 775 807 835 797 841 887 946 928 919 947 955 948 986 921 1016 939 916 921 963 918 903 948 829 879 893 850 801 877 829 820 835 836 798 856 864 851 875 896 988 974 1045 1081 1138 1186 1225 1252 1319 1419 1483 1599 1572 1613 1637 1749 1688 1678 1673 1766 1713 1651 1625 1581 1619 1530 1450 1370 1354 1307 1266 1194 1183 1129 1106 999 1020 961 920 926 893 861 855 838 812 798 817 791 779 753 790 793 751 737 771 734 721 718 694 694 673 725 683 686 688 644 720 691 726 683 642 635 676 629 665 657 654 606 668 600 646 588 616 574 630 632 639 578 608 581 601 588 604 609 610 647 620 666 643 615 584 604 615 600 596 567 563 641 631 594 588 563 570 575 589 608 575 622 560 637 607 651 578 581 581 625 589 612 581 581 546 595 534 594 571 588 602 550 613 578 566 591 580 597 561 583 581 561 580 612 563 584 605 592 596 571 552 585 613 577 577 542 571 551 603 583 635 542 566 554 563 570 574 619 558 569 518 575 544 583 583 604 567 525 568 522 595 601 576 521 523 539 556 595 506 590 568 596 591 547 558 539 557 583 568 559 581 586 551 563 557 555 591 550 574 620 601 593 597 577 560 584 599 580 614 611 599 593 578 612 631 669 644 618 705 701 699 716 736 656 668 688 672 676 670 657 684 641 686 679 683 693 680 733 682 635 613 692 628 624 643 633 604 600 607 611 593 610 572 582 651 627 602 568 581 617 609 599 616 588 615 600 620 606 616 632 583 611 612 563 595 598 575 567 570 575 571 547 551 545 568 536 586 571 559 590 566 557 584 552 580 513 546 555 532 555 558 571 539 585 587 544 514 598 568 567 570 581 590 548 558 596 550 560 549 561 578 600 528 575 577 605 593 618 569 601 605 647 566 596 577 582 587 614 586 604 562 611 577 610 584 579 604 574 588 578 565 573 517 541 498 539 519 535 526 537 532 520 504 527 475 554 543 549 574 545 588 576 519 560 552 553 495 510 503 554 551 512 533 519 565 513 576 536 539 542 541 580 551 567 567 576 602 621 640 633 606 614 586 676 636 659 639 637 608 601 587 604 562 557 589 617 553 583 631 576 557 606 652 552 576 571 593 548 581 506 556 539 573 517 564 576 563 531 504 535 492 501 546 544 531 548 521 537 532 507 552 517 565 529 505 532 483 543 525 562 529 496 518 498 480 510 536 522 532 527 481 487 492 499 515 491 494 528 519 529 481 521 512 493 515 502 536 525 503 511 489 531 494 524 545 519 475 497 516 505 500 493 512 501 525 519 531 495 538 542 534 497 554 500 547 535 508 596 501 516 533 558 522 540 499 532 498 543 521 505 461 500 517 522 523 494 503 494 529 527 534 527 541 537 497 552 494 568 446 509 484 504 462 476 518 486 474 478 490 512 500 486 507 514 498 486 499 477 469 528 514 487 496 492 546 505 506 550 492 500 465 531 498 497 522 512 468 498 497 525 524 544 508 518 528 476 489 478 480 500 510 503 473 477 494 501 523 515 510 504 484 474 486 481 532 500 464 491 466 442 494 516 488 523 481 482 509 509 427 477 485 527 510 533 485 496 500 515 500 476 468 535 499 477 491 500 497 518 481 467 493 473 496 512 476 485 499 511 492 524 509 495 520 499 474 520 507 529 457 515 473 458 511 498 526 471 532 474 508 516 470 519 459 500 492 500 468 491 526 489 512 510 514 478 518 480 486 501 446 519 479 504 495 481 464 493 499 499 492 489 435 486 467 494 500 497 504 491 473 504 488 502 509 507 511 526 509 511 510 517 506 478 489 489 493 483 505 472 492 500 525 487 468 485 489 512 497 511 511 480 549 460 488 511 499 519 472 486 464 503 487 473 510 482 502 486 476 496 504 501 481 488 502 482 492 530 476 532 535 507 511 501 479 520 476 497 532 518 527 487 535 500 504 454 512 475 525 479 502 492 524 500 554 501 491 499 507 506 472 504 541 454 481 502 514 481 516 490 563 487 501 481 505 511 528 460 455 501 501 475 549 536 512 499 521 482 526 567 586 503 562 527 572 515 552 587 599 533 529 542 567 558 552 571 563 583 534 519 552 562 493 530 592 533 524 620 516 581 530 510 522 497 523 513 535 510 485 499 491 500 523 482 505 454 462 480 526 477 475 479 509 482 490 484 519 482 506 490 494 531 532 510 497 547 486 496 481 548 534 616 559 545 578 548 530 504 499 495 531 537 502 516 517 470 512 482 507 538 500 517 539 538 491 530 492 519 510 517 475 461 503 480 489 514 491 488 479 462 502 524 505 501 490 562 509 469 527 516 489 510 449 502 504 473 471 454 479 486 469 468 501 440 454 505 459 453 473 466 499 492 431 494 543 434 472 463 433 520 470 479 539 508 523 475 453 467 470 445 500 461 481 449 457 481 469 474 465 473 437 496 487 466 487 487 463 470 485 469 485 503 439 466 463 470 473 470 472 456 456 453 457 477 492 414 497 433 484 478 455 445 484 426 494 459 470 461 503 468 473 459 498 483 469 502 438 492 441 425 468 487 458 495 449 448 464 442 468 469 403 475 446 479 483 488 444 437 474 509 448 454 507 473 452 457 462 454 458 516 519 452 517 474 456 495 480 536 490 559 565 556 564 549 615 626 586 608 638 627 645 639 719 640 689 660 660 645 703 676 643 671 672 594 609 632 616 662 603 645 582 614 597 586 566 563 561 547 536 557 563 515 569 480 529 523 555 512 513 519 559 478 493 506 502 469 475 463 513 510 512 466 464 506 492 487 473 497 430 467 502 443 489 403 501 447 468 484 469 481 480 460 427 453 477 500 453 437 461 480 442 462 453 490 431 489 436 482 427 440 433 447 398 455 483 437 451 416 430 486 460 443 447 512 478 466 491 469 432 464 460 469 432 459 457 459 470 438 420 442 428 437 412 457 437 449 444 421 456 449 489 432 453 451 431 434 464 460 464 441 419 399 440 419 460 444 457 420 430 413 420 428 477 463 466 438 489 445 435 504 436 469 427 464 468 438 442 490 432 449 435 410 447 461 441 406 502 430 453 435 439 471 451 471 503 540 457 462 477 441 489 497 485 453 484 473 458 498 512 478 525 521 519 498 484 542 443 518 473 490 517 482 489 490 471 463 417 445 498 455 465 476 474 470 465 458 471 470 461 451 404 423 436 439 444 498 464 455 468 450 450 445 463 444 434 478 438 474 454 455 468 432 432 421 466 443 416 451 478 442 476 437 459 455 474 438 465 400 426 418 402 454 430 432 400 438 437 426 434 433 452 488 451 437 400 445 460 423 410 372 450 421 458 412 413 407 440 417 456 400 472 421 412 413 472 445 428 464 400 455 419 401 408 439 410 473 392 392 451 448 451 404 419 434 400 432 435 456 422 452 432 420 395 468 465 450 425 450 441 426 427 454 428 451 436 441 425 422 441 385 432 414 407 421 440 420 433 405 426 399 376 440 436 422 446 428 435 447 441 500 426 431 425 436 463 434 458 440 449 439 456 475 461 497 472 496 465 447 508 475 477 449 512 500 475 447 490 475 453 458 484 483 474 401 464 417 470 424 487 432 442 437 432 489 424 454 438 442 415 440 466 417 446 437 422 426 400 399 425 443 413 443 393 470 402 404 397 414 412 391 385 444 452 397 412 418 414 460 411 416 378 406 419 410 433 438 408 428 414 384 412 410 429 430 414 403 440 415 439 421 411 404 420 401 419 419 403 366 381 422 432 412 443 438 433 413 452 429 412 430 419 416 437 409 415 428 398 405 388 428 424 422 401 408 442 436 445 470 451 398 386 388 413 442 411 414 426 411 383 384 403 425 425 415 437 419 397 393 411 424 448 418 416 388 387 403 440 405 401 375 362 453 425 431 434 423 441 385 421 441 382 431 436 416 369 431 423 396 398 419 380 430 395 420 424 361 394 387 427 401 429 427 418 447 409 394 418 435 400 411 404 390 436 377 381 421 382 434 395 427 442 431 460 434 445 419 401 403 414 426 469 421 478 389 440 421 392 413 433 436 424 447 436 442 445 447 406 420 416 446 423 419 434 458 408 424 423 454 413 397 385 439 386 431 429 423 418 440 429 418 435 418 423 434 403 405 433 399 400 412 401 418 432 407 405 386 411 369 407 436 437 424 418 443 422 388 396 370 398 395 415 410 415 427 424 428 415 383 437 394 386 390 451 413 382 427 416 418 409 423 466 400 421 439 389 415 405 462 410 451 438 425 425 433 476 434 407 461 417 446 480 398 396 405 446 431 428 428 426 421 448 422 419 440 433 422 450 440 428 454 366 423 416 434 429 454 451 420 392 463 423 412 448 431 402 378 392 412 411 372 400 430 392 408 404 402 432 389 454 400 443 401 411 439 390 406 447 387 391 410 426 441 361 427 446 431 399 384 394 393 362 469 412 386 408 424 404 406 451 400 404 422 411 410 407 408 407 374 388 425 402 384 375 417 437 369 371 382 409 404 401 447 404 402 450 358 379 409 352 399 446 406 447 425 405 386 421 364 390 396 398 425 400 379 388 392 358 392 387 415 378 371 381 367 398 430 409 424 423 385 427 380 373 425 405 379 385 396 400 361 418 408 409 371 436 394 404 370 401 414 395 374 408 395 374 380 390 400 424 429 422 415 396 412 435 412 360 376 415 441 413 405 357 416 427 412 382 383 403 430 378 414 417 393 392 394 394 415 444 409 423 388 433 376 426 409 411 405 397 383 377 386 407 410 383 431 401 418 423 414 380 381 390 447 410 403 393 416 407 440 423 360 406 360 405 412 384 413 378 411 373 424 354 424 391 409 395 385 415 420 369 397 422 390 449 408 403 430 409 414 420 423 409 406 404 390 433 381 445 416 433 414 434 403 414 449 442 450 437 423 398 445 424 435 398 456 417 465 462 455 456 431 467 421 483 480 457 483 456 481 463 447 432 427 439 447 472 405 428 459 445 467 473 446 455 434 501 466 428 455 428 414 385 414 440 407 400 422 424 406 411 365 431 368 401 402 440 397 439 407 454 423 407 386 432 422 394 408 396 432 393 402 408 437 400 400 388 380 371 396 418 409 423 371 399 345 403 403 386 395 374 404 395 394 391 395 395 400 391 395 391 380 411 353 354 346 375 425 389 391 431 403 414 422 382 358 409 391 424 401 425 371 389 404 381 390 390 394 376 382 422 400 410 390 434 366 425 405 404 383 409 401 398 403 421 413 406 386 395 379 398 407 401 388 379 399 382 404 390 388 397 421 376 410 395 420 401 414 399 398 391 363 407 400 393 414 385 416 392 416 414 396 389 410 408 401 414 391 349 377 415 432 405 411 399 388 435 416 399 385 448 381 350 395 433 405 413 395 408 366 403 365 414 416 414 381 371 422 361 379 387 359 411 395 380 435 390 406 423 390 425 409 364 386 423 411 405 436 353 394 376 397 380 428 385 392 384 405 427 378 455 398 389 429 419 402 396 373 410 399 397 373 419 386 416 400 398 387 398 395 417 424 410 393 392 390 378 430 404 410 368 403 397 425 384 367 381 411 422 408 398 425 388 400 405 373 385 400 393 393 398 395 410 405 406 385 384 422 404 381 408 421 423 411 408 422 425 398 395 414 430 419 431 387 444 440 410 347 401 445 392 451 372 448 426 383 431 384 412 357 412 420 414 422 433 417 388 417 388 426 409 399 388 397 394 373 401 418 409 397 390 433 421 395 435 421 367 356 345 389 358 397 398 432 391 400 437 385 398 372 387 412 377 414 390 393 389 409 365 380 417 401 381 391 409 391 364 395 380 373 376 376 372 399 361 386 381 378 396 351 395 374 393 405 420 414 389 421 362 377 405 416 388 429 415 407 365 407 393 435 379 380 394 397 397 397 400 397 409 414 394 434 395 395 393 347 391 387 363 366 415 389 379 390 408 385 390 408 387 375 354 374 378 385 403 409 394 400 391 392 376 341 375 399 439 379 389 396 405 408 386 385 426 369 404 414 380 386 417 398 401 380 434 437 419 400 415 380 412 403 402 404 379 386 392 378 397 383 390 402 406 393 405 434 387 407 372 413 409 358 383 379 387 388 414 413 384 400 394 379 368 439 419 365 423 354 403 435 428 369 398 410 375 421 391 390 439 334 392 428 378 450 417 378 436 416 400 405 367 381 387 359 382 414 426 394 395 378 401 379 411 371 376 399 353 421 400 422 400 440 345 388 389 404 409 361 392 392 439 416 398 402 425 403 386 411 377 379 392 398 408 417 421 437 411 401 426 407 408 421 444 395 408 363 365 388 412 389 391 370 406 415 390 409 429 378 396 392 370 408 375 388 382 409 444 405 412 414 415 430 394 426 428 408 391 406 396 422 402 426 393 380 410 376 435 441 414 422 384 401 368 386 412 418 391 395 397 428 408 391 418 403 406 425 416 380 415 426 380 422 420 453 421 426 422 443 403 419 446 426 407 434 400 434 431 423 415 459 427 418 393 431 369 449 404 426 426 400 435 427 421 422 417 425 393 399 419 409 422 418 415 418 436 413 421 430 411 465 436 451 459 411 466 424 436 443 435 421 403 468 427 468 447 431 449 490 446 464 446 474 414 433 443 415 440 424 434 402 437 424 444 408 441 437 453 404 419 454 425 436 414 428 408 425 385 391 395 405 445 412 415 396 407 428 400 411 398 423 384 380 400 445 384 411 439 416 420 392 377 432 446 400 408 395 404 392 411 376 438 416 427 403 431 414 442 450 403 384 397 398 381 416 379 393 413 399 408 364 374 400 406 390 370 416 413 432 413 385 370 421 461 418 419 425 379 407 379 433 381 416 419 371 453 391 407 378 411 402 412 441 424 395 414 386 427 446 401 425 458 398 416 393 423 441 364 425 399 407 420 382 387 377 397 405 431 403 380 386 368 441 372 386 355 394 446 395 409 417 457 422 432 430 409 439 438 444 451 434 415 446 412 396 474 412 433 398 430 432 441 431 431 448 466 505 479 461 478 476 471 458 509 463 478 499 554 514 528 532 558 506 533 555 537 488 499 530 524 537 517 553 538 549 550 558 484 498 564 551 558 571 555 534 566 565 522 515 559 503 550 561 493 514 492 515 511 485 478 455 458 514 477 510 515 455 467 463 469 447 465 423 445 440 440 459 409 435 442 425 442 438 420 421 454 445 420 418 415 440 433 411 404 373 423 412 410 412 439 437 406 426 393 402 378 399 426 388 460 415 444 411 424 388 406 391 399 439 369 453 445 397 395 383 365 378 412 422 418 385 375 397 365 369 431 395 386 382 392 422 418 373 379 400 398 425 373 386 423 397 422 385 403 416 385 422 397 412 395 387 382 384 385 366 375 377 415 414 372 384 382 410 384 415 385 407 376 354 390 385 409 353 410 391 372 375 404 430 381 402 392 377 449 400 354 444 408 440 414 390 405 403 387 403 410 392 406 400 405 409 440 398 377 404 384 360 393 429 378 414 372 423 397 387 370 435 403 373 391 392 426 386 382 368 405 393 388 416 440 363 361 428 370 415 372 371 356 397 412 385 386 375 388 385 385 418 363 382 388 358 449 413 427 368 410 394 396 400 413 367 399 355 409 414 387 408 376 379 419 363 377 349 379 381 417 405 402 399 417 376 360 399 379 399 394 397 402 366 398 381 348 385 419 433 419 401 390 361 374 395 370 395 363 353 391 371 436 392 392 382 402 393 392 397 381 396 342 367 386 393 396 413 415 416 375 379 410 412 396 410 419 376 371 392 449 392 403 426 415 453 409 376 398 392 407 394 428 401 412 432 483 388 385 411 392 409 421 440 427 426 422 416 439 407 400 401 411 370 377 416 373 402 411 394 394 450 420 416 377 379 365 402 356 371 401 362 373 370 409 392 379 388 404 416 408 387 387 360 371 408 394 399 384 355 372 373 384 379 357 345 382 369 383 346 383 375 415 389 366 398 366 371 378 378 398 407 381 409 418 373 368 362 415 333 353 394 348 393 391 407 393 406 361 377 396 372 390 384 385 422 392 379 365 372 381 350 360 362 368 375 397 358 380 374 348 376 345 368 364 342 406 368 396 355 352 320 358 337 387 374 389 351 438 377 367 370 361 405 378 367 355 345 391 370 414 392 362 440 379 377 358 333 393 371 386 404 401 362 384 335 383 372 370 408 382 395 349 409 368 366 383 366 368 374 386 357 375 346 363 387 384 377 353 411 379 410 336 367 364 383 380 364 373 376 364 390 382 351 381 387 326 355 375 384 409 437 372 370 346 369 391 379 363 381 417 359 331 349 357 364 401 338 390 395 347 359 374 361 360 327 395 356 379 364 396 351 376 362 377 391 411 399 387 363 333 367 342 386 352 381 366 385 384 397 388 381 384 371 386 337 408 336 368 377 385 369 353 394 353 367 359 381 384 348 369 358 394 392 365 336 399 361 391 384 346 380 391 358 367 403 343 342 404 391 395 387 350 382 374 372 359 380 400 381 396 365 358 402 408 381 351 368 361 375 364 373 403 382 412 375 376 390 380 373 385 375 373 377 367 391 360 379 388 342 361 372 380 395 371 396 335 352 368 397 407 371 361 376 369 349 359 384 374 412 378 355 352 350 375 384 392 376 400 363 356 328 365 347 360 396 345 350 357 373 360 385 346 331 325 363 369 380 379 341 357 340 379 344 384 359 382 393 415 371 335 379 354 361 351 364 377 371 368 382 347 367 366 379 348 363 342 328 349 339 329 358 389 370 359 359 399 360 364 366 359 364 347 376 345 392 359 367 364 404 377 342 347 373 353 359 395 378 355 356 395 362 370 368 374 429 391 369 383 362 356 346 366 370 371 343 384 371 352 364 342 347 369 388 357 370 353 359 386 351 407 355 348 346 421 365 398 332 363 367 380 381 373 346 345 399 389 366 365 391 397 417 372 373 356 403 407 411 363 343 400 387 351 389 387 360 374 385 373 393 366 390 356 359 323 335 397 359 349 369 381 371 372 374 383 384 355 356 382 371 404 362 384 371 383 362 400 372 374 360 393 368 368 363 372 388 396 381 351 417 383 363 392 397 386 388 377 384 409 415 380 411 388 438 359 418 369 408 398 366 412 431 405 371 388 428 412 414 426 403 409 422 449 402 440 400 461 420 486 404 418 455 415 444 446 426 459 439 452 446 422 418 451 423 440 445 419 429 445 381 401 412 421 426 407 415 393 382 406 394 419 382 430 406 366 419 442 380 374 382 411 361 407 359 392 331 358 380 383 358 348 372 352 382 377 385 370 387 366 396 361 386 373 347 366 379 383 339 344 375 381 394 397 380 390 366 379 367 377 356 373 365 343 378 325 339 366 358 350 359 359 386 363 349 355 349 350 348 348 355 360 387 395 325 375 348 360 360 390 367 323 389 361 390 328 350 385 333 387 378 355 340 337 356 357 360 352 356 350 338 363 371 366 343 354 374 374 357 385 334 396 339 350 378 376 354 367 328 354 344 336 340 397 337 357 365 362 386 370 360 329 396 375 402 380 371 384 333 380 344 389 343 389 361 390 393 393 383 373 326 363 370 370 358 379 392 402 368 378 378 395 383 351 353 365 389 391 330 385 374 404 371 376 341 377 377 347 364 338 315 373 379 329 344 345 342 344 352 368 387 385 351 370 379 355 380 347 351 333 384 376 359 383 312 370 348 330 339 372 349 353 355 365 356 355 381 367 369 356 386 353 368 342 357 344 393 340 377 348 372 393 368 352 367 370 376 382 356 370 362 362 351 303 388 341 391 371 324 352 337 361 369 378 371 354 389 346 374 358 352 329 343 333 337 341 356 378 396 344 363 325 356 311 356 333 347 334 309 351 332 343 325 355 407 354 358 349 363 328 308 362 334 366 338 353 361 365 338 364 330 381 372 361 367 339 376 331 355 350 349 338 376 351 366 360 379 348 381 358 370 363 378 323 349 305 375 331 349 366 377 369 375 359 354 314 358 349 389 354 359 356 346 343 382 347 338 334 343 323 327 320 353 375 381 385 348 337 362 347 331 324 325 380 317 374 325 350 318 354 365 344 342 370 385 327 382 354 333 361 373 404 350 364 369 354 352 374 358 374 365 349 355 330 356 372 400 343 393 347 323 368 362 327 353 367 336 326 319 359 325 375 343 329 337 346 343 336 343 383 362 366 371 348 357 372 380 349 340 354 358 337 346 338 359 334 347 366 319 353 387 393 336 373 351 351 339 360 347 367 370 342 369 296 350 356 357 352 353 349 359 372 356 362 317 349 361 366 341 380 377 355 338 336 389 366 325 378 326 372 339 392 329 364 356 369 366 353 328 336 389 350 356 378 347 346 334 342 379 373 349 321 362 355 382 337 379 369 388 344 355 331 373 346 371 332 345 329 360 342 338 358 379 371 344 347 350 319 355 338 329 337 381 378 371 380 367 365 327 337 384 365 371 345 343 351 394 361 351 323 344 345 336 358 376 333 361 366 316 363 323 356 362 342 359 385 370 321 369 317 367 385 343 381 392 339 362 374 342 354 377 341 373 354 380 346 339 345 368 349 399 402 340 384 371 364 355 367 354 372 364 391 377 363 383 401 350 389 353 339 355 317 312 388 390 382 358 379 346 383 383 342 380 378 377 373 353 358 340 390 401 397 373 395 350 393 318 411 347 371 334 359 332 345 359 359 387 364 365 368 367 401 330 382 366 362 339 352 352 344 351 356 358 347 357 362 369 329 306 357 368 351 356 369 366 360 366 373 367 372 341 343 389 356 340</counts>
			</dataPoints>
		</scan>
	</xrdMeasurement>
</xrdMeasurements>
