<?xml version="1.0"?>
<xrdMeasurements xmlns="http://www.xrdml.com/XRDMeasurement/2.3" xmlns:xsi="http://www.w3.org/2001/XMLSchema-instance" xsi:schemaLocation="http://www.xrdml.com/XRDMeasurement/2.3 http://www.xrdml.com/XRDMeasurement/2.3/XRDMeasurement.xsd" status="Completed" recordIdentifier="{987CAEAF-22B8-4689-9938-00D20AE09A3F}">
	<comment>
		<entry/>
	</comment>
	<sample type="To be analyzed">
		<id>GPSS_Li1p8Nb0p1Fe0p4V0p1Co0p1Mn0p2Cl4_122425_694c7853ae15af25ac3735b9</id>
		<name></name>
		<preparedBy></preparedBy>
	</sample>
	<xrdMeasurement measurementType="Scan" status="Completed" sampleMode="Reflection">
		<usedWavelength intended="K-Alpha 1">
			<kAlpha1 unit="Angstrom">1.5405980</kAlpha1>
			<kAlpha2 unit="Angstrom">1.5444260</kAlpha2>
			<kBeta unit="Angstrom">1.3922500</kBeta>
			<ratioKAlpha2KAlpha1>0.5000</ratioKAlpha2KAlpha1>
		</usedWavelength>
		<incidentBeamPath>
			<radius unit="mm">145.00</radius>
			<xRayTube id="1010048" name="Empyrean Cu LFF HR (9430 033 7310x)">
				<tension unit="kV">40.0</tension>
				<current unit="mA">15.0</current>
				<anodeMaterial>Cu</anodeMaterial>
				<focus type="Line">
					<length unit="mm">12.0</length>
					<width unit="mm">0.4</width>
					<takeOffAngle unit="deg">6.0</takeOffAngle>
				</focus>
			</xRayTube>
			<sollerSlit id="21010002" name="Soller slits 0.04 rad.">
				<opening unit="rad">0.0400</opening>
			</sollerSlit>
			<mask id="22031000" name="Fixed mask 13 mm">
				<width unit="mm">9.00</width>
			</mask>
			<divergenceSlit id="22120001" name="Divergence slit 1°" xsi:type="fixedDivergenceSlitType">
				<distanceToSample unit="mm">50.00</distanceToSample>
				<height unit="mm">1.52</height>
			</divergenceSlit>
		</incidentBeamPath>
		<sampleMovement xsi:type="spinningSampleMovementType">
			<spinnerRevolutionTime unit="seconds">1.0</spinnerRevolutionTime>
		</sampleMovement>
		<diffractedBeamPath>
			<radius unit="mm">145.00</radius>
			<antiScatterSlit id="22090040" name="AS slit 9 mm (PIXcel)" xsi:type="fixedAntiScatterSlitType">
				<height unit="mm">9.00</height>
			</antiScatterSlit>
			<sollerSlit id="21020003" name="Large Soller slits 0.04 rad.">
				<opening unit="rad">0.0400</opening>
			</sollerSlit>
			<filter id="20030001" name="Large beta-filter Nickel">
				<material>Ni</material>
				<thickness unit="mm">0.020</thickness>
			</filter>
			<detector id="7010019" name="PIXcel1D-Medipix3 detector" xsi:type="rtmsDetectorType">
				<phd unit="keV">
					<lowerLevel>4.02</lowerLevel>
					<upperLevel>11.27</upperLevel>
				</phd>
				<mode>Scanning</mode>
				<activeLength unit="deg">5.542</activeLength>
			</detector>
		</diffractedBeamPath>
		<scan appendNumber="0" mode="Continuous" scanAxis="Gonio" status="Completed">
			<header>
				<startTimeStamp>2025-12-26T13:22:45-08:00</startTimeStamp>
				<endTimeStamp>2025-12-26T13:30:52-08:00</endTimeStamp>
				<author>
					<name>AutomatedUser</name>
				</author>
				<source>
					<applicationSoftware version="1.7b (136)">PANalytical Aeris Instrument Suite</applicationSoftware>
					<instrumentControlSoftware version="3.2.00000000 20240306">AERIS</instrumentControlSoftware>
					<instrumentID>950485</instrumentID>
				</source>
			</header>
			<dataPoints>
				<positions axis="2Theta" unit="deg">
					<startPosition>10.00943322</startPosition>
					<endPosition>99.99442286</endPosition>
				</positions>
				<positions axis="Omega" unit="deg">
					<startPosition>5.00471661</startPosition>
					<endPosition>49.99721143</endPosition>
				</positions>
				<commonCountingTime unit="seconds">12.495</commonCountingTime>
				<counts unit="counts">3133 3057 3125 3069 3138 3209 3158 3051 3273 3138 3103 3145 3144 3152 3212 3153 3207 3140 3179 3192 3214 3230 3260 3140 3237 3217 3203 3225 3238 3096 3283 3230 3191 3153 3214 3187 3114 3173 3205 3212 3272 3316 3300 3133 3211 3362 3194 3205 3304 3293 3248 3295 3336 3289 3220 3353 3395 3404 3344 3406 3330 3291 3312 3300 3413 3351 3378 3377 3325 3508 3332 3402 3472 3485 3445 3418 3354 3442 3432 3465 3435 3454 3508 3443 3438 3522 3544 3622 3549 3515 3449 3461 3657 3526 3496 3546 3583 3516 3582 3608 3554 3527 3558 3644 3587 3500 3683 3640 3602 3640 3582 3565 3475 3578 3661 3669 3551 3523 3670 3632 3548 3469 3462 3562 3652 3629 3665 3604 3681 3510 3575 3535 3605 3606 3579 3528 3651 3539 3489 3637 3552 3554 3501 3605 3607 3634 3530 3525 3648 3433 3700 3568 3423 3522 3527 3711 3524 3535 3637 3658 3650 3562 3573 3619 3568 3589 3572 3587 3610 3594 3529 3673 3643 3510 3617 3565 3618 3549 3573 3545 3533 3578 3516 3510 3534 3587 3557 3578 3539 3607 3498 3490 3527 3517 3485 3593 3655 3545 3622 3628 3464 3559 3578 3411 3578 3535 3499 3458 3479 3524 3539 3433 3501 3553 3588 3435 3535 3442 3524 3552 3494 3574 3498 3501 3593 3494 3518 3495 3448 3584 3343 3372 3465 3409 3635 3457 3493 3482 3458 3572 3600 3422 3363 3578 3494 3492 3515 3371 3505 3445 3444 3519 3465 3368 3435 3401 3388 3465 3470 3394 3432 3447 3354 3476 3414 3412 3498 3482 3370 3435 3397 3345 3449 3463 3372 3365 3373 3356 3475 3397 3385 3460 3421 3475 3470 3471 3473 3423 3463 3445 3442 3465 3435 3417 3341 3354 3394 3399 3384 3496 3351 3413 3544 3438 3456 3460 3428 3428 3494 3498 3377 3408 3440 3495 3507 3486 3441 3375 3518 3527 3428 3445 3479 3498 3429 3458 3324 3511 3537 3420 3548 3460 3515 3590 3505 3488 3499 3424 3515 3545 3559 3566 3556 3604 3445 3516 3543 3469 3517 3589 3634 3554 3587 3553 3642 3583 3605 3511 3632 3511 3686 3548 3478 3681 3638 3676 3553 3587 3662 3651 3681 3631 3606 3711 3586 3636 3760 3721 3715 3620 3656 3603 3740 3741 3674 3738 3702 3701 3658 3753 3849 3694 3783 3726 3704 3763 3787 3791 3920 3810 3869 3817 3699 3905 3812 3906 3763 3741 3845 3925 3801 3724 3750 3939 3869 3941 3852 3909 3884 3871 3948 3970 3937 3857 4073 3844 3965 3972 3921 4007 4092 3964 4099 4104 4086 4211 4208 4291 4296 4269 4255 4181 4237 4375 4483 4380 4226 4386 4436 4351 4455 4416 4460 4375 4292 4153 4185 4297 4260 4241 4110 4217 4026 4210 4102 3933 4214 3987 4102 4126 4049 4110 4073 4008 4141 4147 3966 3936 4027 3916 3920 3925 3930 3734 3857 3792 3916 3872 3863 3775 3881 3714 3654 3822 3787 3832 3708 3733 3764 3768 3835 3753 3654 3731 3647 3663 3703 3715 3718 3660 3636 3700 3606 3633 3575 3619 3530 3724 3579 3524 3563 3639 3538 3623 3597 3600 3648 3615 3518 3559 3593 3528 3606 3461 3473 3548 3612 3480 3571 3547 3451 3559 3416 3452 3604 3536 3643 3539 3505 3433 3441 3461 3459 3488 3378 3589 3507 3510 3449 3416 3447 3456 3311 3352 3337 3402 3311 3353 3367 3263 3323 3306 3442 3384 3331 3382 3427 3330 3348 3362 3382 3352 3482 3319 3298 3318 3347 3300 3330 3240 3233 3317 3240 3234 3295 3144 3318 3194 3187 3254 3199 3227 3296 3153 3315 3410 3162 3335 3158 3291 3208 3296 3255 3299 3214 3149 3258 3240 3238 3303 3310 3291 3213 3268 3144 3186 3240 3367 3196 3314 3229 3169 3135 3214 3230 3199 3202 3163 3195 3284 3142 3160 3213 3135 3148 3274 3185 3163 3140 3159 3259 3122 3228 3154 3153 3262 3295 3193 3160 3200 3122 3126 3195 3121 3214 3106 3103 3241 3238 3199 3188 3162 3255 3033 3158 3182 3115 3225 3173 3143 3129 3220 3096 3169 3104 3155 3132 3146 3097 3168 3141 3033 3177 3221 3225 2982 3188 3184 3146 3175 3015 3057 3101 3231 3161 3155 3068 3101 3154 3109 3106 3006 3086 3052 3052 3131 3143 3089 3115 3223 3076 3126 3083 3006 3137 3119 3042 3117 3054 3007 3107 3059 3099 3102 3097 3033 3069 3081 3172 3064 3166 3037 3107 3119 3019 3063 3047 3051 3111 3062 3147 3066 3114 3134 3160 3036 3169 2963 3075 3031 3123 3094 3035 3036 3103 3039 3121 2913 2936 2987 3008 3016 3081 3031 3036 3052 3106 3139 3111 2951 3138 3063 3069 3026 3075 3050 3016 3104 3036 2921 3067 3006 2999 3080 3080 2888 2995 3102 3005 3039 3057 3044 3047 2988 3005 2932 3022 2951 3167 3046 3045 2978 3118 2891 3101 3102 2944 3006 2981 3078 2985 2958 3041 2939 3007 2984 2977 2974 2921 3020 2906 2986 2924 3033 2950 3027 2930 3010 2934 2861 2922 3013 2927 2899 3033 3020 3000 2864 2933 2910 2990 2945 3018 2951 2891 2839 2942 2904 2861 2927 2877 2853 2907 3024 2891 2921 2857 2914 2957 2855 2886 2985 2928 2890 2856 2892 2847 2900 2848 2858 2901 2901 2730 2821 2880 2935 2810 2910 2905 2796 2864 2859 2907 2871 2849 2994 2945 2974 2794 2911 2824 2939 2888 2895 2872 2743 2889 2817 2895 2851 2836 2887 2889 2946 2921 2898 2853 2957 2749 2881 2860 2851 2804 2803 2863 2680 2855 2815 2865 2848 2909 2789 2928 2833 2928 2734 2819 2744 2779 2692 2709 2732 2826 2782 2842 2838 2817 2809 2806 2749 2813 2711 2862 2784 2800 2813 2853 2764 2816 2795 2719 2821 2822 2807 2873 2896 2791 2809 2737 2710 2703 2779 2762 2772 2774 2762 2721 2669 2766 2852 2667 2799 2673 2732 2807 2776 2759 2779 2782 2887 2890 2796 2773 2760 2867 2821 2776 2742 2706 2773 2715 2787 2836 2651 2885 2732 2689 2874 2772 2680 2774 2780 2759 2745 2708 2682 2801 2767 2738 2830 2785 2710 2756 2764 2738 2687 2686 2702 2749 2799 2739 2841 2761 2800 2740 2749 2717 2674 2750 2662 2761 2823 2770 2832 2849 2764 2790 2718 2723 2800 2836 2745 2707 2717 2831 2725 2704 2871 2820 2836 2832 2733 2763 2710 2757 2736 2831 2730 2661 2688 2746 2840 2829 2730 2795 2729 2829 2811 2697 2761 2771 2822 2801 2697 2783 2791 2659 2787 2657 2720 2869 2788 2715 2768 2784 2835 2644 2743 2786 2794 2734 2786 2771 2723 2688 2742 2666 2767 2757 2723 2753 2790 2696 2729 2808 2924 2727 2737 2755 2754 2708 2760 2907 2728 2705 2811 2668 2670 2689 2714 2645 2609 2684 2666 2674 2633 2762 2542 2596 2599 2672 2678 2595 2606 2653 2650 2738 2605 2603 2622 2634 2634 2559 2695 2565 2613 2643 2678 2600 2631 2614 2664 2570 2591 2524 2552 2577 2579 2515 2520 2527 2535 2580 2578 2617 2604 2608 2560 2525 2672 2620 2540 2528 2466 2523 2510 2485 2484 2409 2515 2485 2426 2471 2524 2525 2410 2522 2482 2409 2436 2454 2470 2483 2423 2473 2500 2424 2528 2354 2498 2348 2364 2311 2453 2433 2378 2475 2506 2385 2374 2435 2351 2449 2456 2333 2359 2416 2317 2307 2381 2389 2327 2452 2364 2290 2379 2386 2337 2274 2350 2337 2366 2282 2266 2339 2337 2276 2381 2327 2239 2234 2294 2365 2276 2262 2333 2268 2317 2268 2325 2219 2278 2299 2191 2227 2248 2119 2239 2333 2214 2217 2127 2135 2236 2257 2198 2247 2209 2194 2182 2198 2214 2175 2208 2163 2199 2232 2232 2164 2163 2169 2249 2155 2184 2016 2123 2184 2084 2082 2160 2175 2143 2127 2093 2105 2157 2110 2094 2097 2175 2136 2117 2191 2071 2160 2185 2075 2123 2123 2160 2182 2168 2211 2119 2270 2061 2190 2151 2276 2102 2074 2095 2153 2260 2191 2161 2098 2111 2138 2164 2100 2234 2168 2113 2028 2018 2067 2115 2059 2126 2087 2174 2134 2082 2111 2121 2144 2046 2067 2142 2156 2145 2047 2105 2170 2180 2066 2149 2089 2114 1979 1992 2103 2018 2107 2103 2094 2008 2116 2061 2119 2090 2075 2078 2043 2016 2033 2092 2088 2008 2070 2065 2056 2081 2069 2114 2143 2058 2083 2113 2162 2084 1977 2082 2128 2016 2065 2044 2074 2116 2061 1999 2100 2061 2062 1977 2157 2106 2100 2045 2104 2067 2091 2047 2169 2085 2070 2058 2140 2145 2104 2099 1999 2114 1989 2126 2030 2156 2064 2097 2113 2142 2075 2083 2089 2119 2047 2107 2060 2062 2017 2071 2110 2085 2041 2119 2101 2170 2072 2028 2049 2043 2103 2094 2091 2081 2123 2159 2034 2043 2116 2060 2097 2058 2146 2121 2114 2038 2165 2081 2073 2171 1994 2045 2146 2043 2074 2036 1991 2026 2022 2031 2138 2064 2098 2035 2107 1990 2032 2036 2096 2090 2067 2070 2019 2131 2121 2029 1963 2079 2053 2026 2051 2052 2038 2004 2085 2084 2110 2059 2051 2080 2115 2012 2086 2007 2037 2029 2042 2039 1968 2017 2079 2097 2008 1988 1933 1962 2028 2084 1965 2048 2055 2035 1992 2034 2002 2045 2065 1996 1981 2044 2094 1991 1938 1896 1992 2093 2039 1999 1961 2026 1974 1985 1998 1955 1941 2032 1992 1983 1941 1868 1913 1961 1986 1954 1951 1991 1956 1840 1937 1960 1935 1938 1933 1915 1937 1934 1934 1856 1912 1908 1940 1857 1938 1852 1932 1887 1881 1858 1987 1899 1874 1826 1818 1862 1933 1892 1840 1834 1924 1914 1870 1864 1734 1885 1834 1854 1824 1845 1774 1754 1903 1848 1848 1774 1832 1894 1825 1833 1863 1839 1886 1809 1790 1749 1749 1808 1801 1769 1822 1808 1816 1834 1831 1759 1831 1757 1756 1787 1734 1780 1849 1774 1767 1807 1838 1724 1797 1832 1787 1639 1777 1757 1767 1783 1736 1775 1819 1742 1764 1765 1813 1732 1759 1787 1794 1802 1879 1768 1756 1805 1847 1756 1791 1810 1863 1858 1930 1903 1860 1911 1947 1900 1994 1942 2018 1972 1993 1962 1981 2091 2008 2033 2116 2155 2055 2047 2066 2085 2064 2046 2086 2123 2052 2052 2007 1986 1929 2003 1956 1895 1983 1959 1896 1930 1919 1942 1884 1862 1811 1980 1784 1848 1854 1751 1876 1861 1836 1825 1737 1719 1717 1869 1699 1752 1721 1718 1689 1725 1776 1738 1707 1653 1730 1747 1637 1709 1775 1736 1688 1675 1623 1706 1675 1694 1645 1732 1706 1615 1673 1594 1578 1603 1685 1628 1583 1620 1620 1596 1565 1644 1582 1611 1677 1669 1679 1628 1623 1629 1673 1598 1516 1638 1691 1732 1665 1598 1694 1699 1782 1796 1740 1715 1841 1803 1761 1923 1851 1853 1986 1926 1943 1961 2070 2011 2086 2154 2123 2137 2189 2285 2258 2284 2249 2350 2303 2428 2379 2419 2311 2278 2314 2325 2297 2290 2224 2307 2256 2239 2303 2302 2209 2261 2230 2307 2229 2312 2189 2204 2252 2358 2222 2303 2260 2269 2316 2098 2023 2011 1941 1936 1958 1779 1788 1801 1802 1700 1705 1684 1621 1675 1620 1718 1620 1597 1604 1567 1630 1591 1580 1546 1614 1529 1625 1596 1586 1514 1567 1527 1527 1592 1498 1573 1530 1554 1565 1542 1541 1524 1512 1510 1517 1516 1501 1582 1568 1504 1600 1503 1527 1519 1550 1508 1487 1515 1442 1477 1523 1435 1482 1547 1484 1533 1425 1507 1430 1549 1456 1490 1473 1447 1483 1418 1476 1479 1505 1505 1440 1571 1355 1494 1453 1471 1491 1476 1430 1432 1478 1498 1483 1444 1497 1454 1362 1398 1445 1433 1494 1540 1543 1455 1482 1446 1498 1462 1465 1424 1421 1390 1452 1435 1504 1431 1425 1405 1512 1476 1341 1455 1454 1506 1539 1473 1391 1432 1414 1460 1499 1436 1448 1426 1436 1402 1389 1431 1489 1442 1432 1476 1459 1474 1404 1391 1441 1368 1454 1435 1469 1450 1451 1479 1426 1453 1493 1422 1462 1408 1398 1476 1462 1506 1505 1512 1454 1397 1404 1474 1428 1473 1408 1416 1482 1386 1434 1453 1505 1445 1463 1461 1430 1419 1429 1506 1445 1474 1431 1494 1498 1466 1431 1434 1455 1471 1435 1484 1553 1484 1576 1589 1474 1503 1423 1517 1529 1503 1514 1498 1545 1558 1600 1641 1581 1542 1546 1603 1585 1659 1644 1676 1612 1596 1611 1774 1689 1743 1667 1753 1671 1740 1742 1752 1759 1737 1773 1747 1741 1782 1762 1777 1786 1723 1740 1726 1730 1714 1692 1671 1806 1674 1761 1710 1636 1704 1648 1586 1622 1606 1618 1627 1668 1624 1553 1654 1600 1591 1549 1575 1678 1562 1598 1605 1596 1528 1547 1569 1541 1546 1514 1540 1576 1572 1524 1535 1513 1537 1517 1512 1523 1512 1593 1477 1532 1560 1523 1454 1528 1515 1456 1482 1517 1510 1501 1440 1541 1442 1566 1488 1432 1464 1469 1441 1478 1533 1443 1452 1479 1464 1456 1546 1478 1472 1452 1433 1413 1457 1513 1426 1423 1467 1524 1462 1481 1426 1538 1370 1377 1392 1388 1441 1410 1413 1340 1414 1428 1388 1384 1413 1495 1419 1507 1456 1481 1490 1452 1413 1432 1487 1491 1527 1539 1530 1457 1460 1525 1468 1527 1630 1533 1635 1723 1716 1630 1802 1832 1957 1947 2056 1993 2203 2161 2200 2320 2293 2341 2454 2412 2627 2654 2645 2758 3026 2905 2981 3111 3250 3280 3423 3278 3487 3487 3395 3519 3491 3450 3416 3482 3499 3475 3468 3449 3253 3294 3181 3186 3230 3175 3142 3135 2972 3133 3002 3039 2968 2983 2977 2889 2719 2807 2776 2704 2638 2646 2518 2424 2483 2309 2299 2202 2136 2189 2019 1960 1978 1913 1899 1860 1794 1703 1728 1652 1577 1594 1652 1564 1536 1619 1616 1568 1565 1482 1551 1481 1488 1549 1488 1546 1512 1480 1474 1428 1393 1473 1486 1529 1577 1504 1436 1510 1471 1469 1441 1482 1475 1447 1434 1456 1494 1452 1406 1425 1448 1379 1390 1447 1452 1424 1403 1473 1467 1386 1330 1417 1337 1355 1355 1459 1429 1445 1505 1403 1394 1416 1435 1427 1411 1417 1391 1424 1396 1390 1362 1350 1411 1387 1399 1423 1466 1417 1374 1418 1419 1400 1424 1474 1387 1413 1397 1463 1422 1402 1364 1376 1342 1414 1326 1379 1362 1405 1423 1427 1416 1432 1386 1391 1412 1425 1381 1416 1476 1373 1379 1391 1330 1338 1435 1317 1391 1373 1355 1360 1392 1381 1345 1342 1383 1240 1332 1309 1364 1342 1374 1342 1349 1411 1326 1395 1426 1359 1367 1395 1261 1360 1346 1341 1396 1363 1331 1378 1374 1310 1331 1376 1323 1316 1352 1264 1326 1307 1326 1342 1268 1333 1322 1344 1265 1321 1330 1298 1354 1260 1299 1307 1330 1347 1303 1343 1248 1321 1313 1337 1295 1318 1360 1285 1341 1296 1344 1340 1312 1265 1277 1348 1253 1352 1286 1344 1337 1369 1354 1283 1282 1290 1309 1242 1253 1304 1273 1277 1309 1261 1337 1313 1305 1316 1338 1295 1340 1307 1297 1281 1349 1257 1351 1298 1289 1318 1296 1329 1345 1311 1280 1359 1307 1321 1336 1317 1323 1363 1287 1357 1325 1374 1324 1294 1348 1334 1372 1357 1264 1355 1242 1299 1332 1337 1350 1354 1373 1398 1348 1316 1315 1295 1336 1287 1301 1362 1300 1298 1318 1317 1265 1287 1329 1357 1259 1267 1327 1286 1274 1282 1250 1264 1280 1285 1336 1263 1305 1323 1263 1207 1304 1245 1299 1255 1320 1311 1326 1317 1254 1298 1255 1264 1287 1267 1269 1248 1301 1297 1295 1309 1218 1349 1286 1226 1239 1271 1309 1305 1279 1239 1297 1272 1212 1293 1284 1306 1254 1295 1265 1290 1270 1318 1234 1304 1251 1215 1283 1303 1296 1262 1283 1231 1290 1296 1305 1230 1285 1300 1279 1231 1227 1272 1297 1248 1243 1234 1257 1391 1260 1308 1258 1272 1273 1260 1258 1300 1326 1295 1307 1275 1292 1241 1333 1237 1325 1299 1291 1304 1297 1219 1345 1274 1243 1328 1243 1199 1196 1218 1258 1247 1297 1242 1194 1253 1292 1357 1255 1283 1232 1304 1194 1258 1262 1244 1321 1207 1244 1241 1264 1219 1275 1223 1239 1243 1261 1236 1244 1279 1221 1262 1324 1256 1278 1229 1320 1301 1264 1259 1283 1279 1221 1273 1285 1281 1256 1322 1227 1256 1280 1228 1296 1241 1243 1248 1230 1292 1266 1284 1191 1262 1332 1261 1240 1295 1258 1267 1218 1272 1289 1222 1281 1195 1285 1281 1271 1295 1231 1249 1256 1235 1282 1210 1239 1239 1226 1226 1289 1349 1294 1214 1259 1229 1186 1268 1238 1305 1276 1256 1327 1270 1271 1310 1340 1228 1243 1208 1296 1248 1304 1289 1278 1230 1299 1290 1232 1190 1289 1282 1241 1278 1245 1309 1227 1287 1281 1251 1322 1263 1279 1240 1275 1236 1186 1187 1266 1213 1283 1261 1235 1341 1317 1274 1282 1257 1237 1252 1239 1252 1237 1230 1274 1253 1209 1214 1275 1241 1253 1294 1231 1266 1268 1263 1263 1215 1251 1279 1289 1230 1302 1301 1230 1254 1242 1263 1241 1253 1318 1264 1195 1297 1266 1272 1193 1277 1215 1278 1288 1321 1258 1258 1203 1300 1229 1291 1231 1241 1210 1255 1170 1249 1217 1255 1306 1322 1267 1214 1188 1139 1231 1242 1221 1233 1208 1189 1294 1261 1217 1264 1269 1193 1258 1148 1209 1289 1239 1279 1228 1217 1297 1218 1204 1204 1244 1269 1288 1286 1272 1233 1301 1305 1250 1270 1220 1264 1257 1261 1278 1244 1237 1281 1244 1208 1234 1316 1239 1248 1207 1237 1194 1225 1220 1236 1257 1209 1231 1237 1267 1205 1238 1281 1213 1216 1279 1263 1249 1227 1176 1185 1225 1268 1203 1204 1277 1240 1287 1263 1310 1228 1206 1198 1302 1264 1245 1251 1224 1165 1249 1247 1255 1200 1194 1248 1218 1260 1258 1239 1239 1214 1267 1265 1279 1225 1257 1227 1299 1227 1182 1231 1216 1248 1233 1298 1291 1289 1212 1269 1203 1257 1270 1285 1267 1308 1272 1249 1252 1237 1253 1265 1270 1255 1312 1217 1273 1240 1311 1198 1249 1237 1256 1206 1243 1256 1259 1255 1251 1285 1282 1265 1247 1192 1268 1275 1295 1256 1251 1197 1222 1266 1275 1264 1254 1211 1239 1279 1293 1301 1239 1265 1283 1259 1261 1228 1250 1167 1211 1212 1185 1215 1227 1252 1286 1244 1250 1263 1305 1223 1249 1244 1271 1271 1312 1256 1291 1271 1245 1172 1340 1247 1221 1276 1289 1234 1244 1237 1189 1228 1249 1244 1289 1255 1312 1266 1214 1275 1274 1245 1282 1265 1300 1266 1302 1296 1287 1322 1288 1233 1267 1313 1298 1292 1276 1238 1315 1360 1272 1268 1336 1243 1306 1315 1306 1288 1347 1376 1365 1268 1326 1325 1240 1220 1309 1331 1287 1315 1293 1250 1286 1323 1268 1363 1315 1279 1228 1304 1268 1267 1314 1286 1263 1296 1222 1335 1285 1274 1263 1318 1252 1168 1265 1192 1254 1290 1221 1252 1256 1185 1263 1267 1303 1213 1301 1238 1204 1226 1224 1267 1286 1236 1263 1318 1266 1266 1226 1268 1287 1221 1227 1273 1255 1260 1282 1253 1281 1291 1328 1347 1215 1252 1346 1304 1331 1360 1311 1349 1326 1352 1353 1358 1421 1339 1383 1379 1404 1398 1375 1446 1431 1448 1474 1476 1439 1506 1472 1443 1475 1483 1517 1500 1485 1478 1494 1548 1503 1421 1433 1512 1467 1428 1474 1505 1490 1397 1455 1423 1412 1397 1381 1432 1420 1429 1419 1397 1372 1369 1380 1316 1414 1327 1390 1351 1378 1310 1272 1329 1317 1272 1311 1395 1267 1341 1253 1293 1278 1263 1314 1262 1295 1206 1251 1233 1291 1311 1305 1278 1261 1305 1247 1216 1227 1271 1211 1275 1336 1203 1212 1255 1217 1252 1195 1200 1207 1244 1270 1257 1270 1269 1236 1261 1182 1233 1231 1178 1200 1210 1191 1228 1205 1228 1236 1220 1210 1264 1227 1191 1278 1244 1247 1250 1310 1201 1266 1242 1196 1226 1260 1270 1299 1210 1248 1202 1155 1236 1261 1185 1251 1192 1220 1239 1270 1245 1174 1205 1221 1218 1215 1194 1290 1157 1301 1129 1225 1230 1207 1222 1254 1263 1216 1234 1166 1244 1172 1253 1266 1189 1244 1207 1227 1217 1185 1235 1143 1241 1177 1256 1147 1210 1168 1256 1234 1236 1306 1166 1195 1275 1227 1270 1199 1189 1231 1244 1218 1290 1271 1291 1216 1239 1194 1187 1202 1184 1204 1212 1205 1268 1224 1197 1177 1212 1170 1226 1212 1246 1231 1202 1245 1249 1274 1232 1226 1317 1221 1247 1222 1235 1209 1114 1232 1234 1265 1212 1220 1195 1157 1265 1248 1213 1176 1210 1241 1201 1265 1208 1261 1204 1167 1250 1242 1263 1200 1203 1225 1157 1307 1279 1224 1256 1274 1258 1242 1231 1253 1228 1173 1264 1222 1225 1215 1219 1175 1221 1228 1250 1192 1186 1234 1242 1233 1185 1245 1222 1162 1256 1225 1203 1257 1256 1253 1209 1227 1232 1236 1211 1245 1214 1228 1242 1203 1252 1255 1186 1250 1193 1253 1238 1256 1217 1293 1241 1257 1236 1208 1226 1139 1207 1177 1334 1260 1253 1228 1227 1231 1248 1290 1208 1306 1364 1203 1170 1287 1280 1200 1224 1221 1244 1265 1239 1236 1292 1268 1203 1227 1232 1273 1276 1288 1307 1229 1258 1246 1284 1271 1250 1347 1224 1326 1276 1287 1328 1285 1276 1340 1288 1323 1341 1370 1383 1411 1379 1403 1407 1436 1409 1450 1493 1506 1542 1446 1543 1572 1628 1583 1645 1649 1635 1742 1704 1670 1710 1799 1863 1866 1905 1946 1984 1969 2077 2086 2126 2225 2197 2296 2225 2323 2329 2379 2457 2444 2482 2423 2545 2489 2550 2523 2491 2565 2531 2453 2488 2403 2445 2418 2275 2333 2305 2248 2132 2279 2189 2217 2196 2057 2147 2035 1972 2064 1921 1996 1900 1918 1919 1945 1994 1982 1958 1846 2011 1905 1954 1862 1963 1849 1875 1877 1930 1754 1749 1763 1755 1731 1725 1623 1589 1585 1611 1559 1565 1522 1414 1522 1502 1384 1395 1428 1403 1334 1407 1306 1358 1311 1304 1323 1383 1390 1295 1331 1267 1294 1319 1316 1270 1281 1273 1297 1306 1309 1295 1334 1280 1302 1269 1331 1308 1273 1304 1326 1302 1261 1311 1326 1283 1302 1239 1292 1327 1266 1245 1304 1240 1320 1298 1260 1288 1311 1320 1284 1280 1258 1316 1243 1257 1275 1353 1326 1353 1285 1280 1306 1309 1259 1316 1235 1330 1273 1347 1241 1250 1268 1232 1288 1298 1312 1292 1316 1291 1246 1297 1305 1269 1291 1352 1222 1185 1295 1190 1244 1239 1263 1258 1276 1208 1262 1275 1193 1230 1230 1265 1222 1195 1220 1259 1209 1205 1246 1208 1227 1291 1207 1245 1218 1208 1252 1269 1259 1213 1257 1211 1221 1250 1204 1215 1245 1236 1233 1198 1294 1242 1255 1271 1262 1295 1221 1258 1268 1306 1254 1219 1216 1292 1297 1263 1299 1316 1286 1276 1279 1304 1358 1329 1359 1368 1369 1410 1288 1341 1333 1344 1373 1416 1404 1397 1360 1394 1309 1334 1319 1347 1314 1348 1376 1373 1301 1374 1274 1288 1331 1327 1282 1247 1300 1295 1345 1269 1295 1297 1275 1309 1287 1289 1272 1236 1292 1249 1262 1227 1207 1310 1288 1276 1265 1263 1257 1230 1200 1280 1254 1175 1243 1195 1280 1246 1207 1228 1263 1221 1319 1240 1286 1235 1192 1193 1233 1116 1228 1177 1268 1116 1225 1150 1149 1220 1185 1179 1209 1213 1220 1171 1213 1220 1202 1184 1205 1195 1219 1225 1194 1193 1196 1244 1203 1135 1239 1230 1238 1190 1272 1205 1191 1226 1205 1183 1126 1236 1189 1203 1229 1262 1250 1242 1243 1235 1255 1182 1201 1153 1232 1253 1173 1210 1185 1248 1194 1253 1131 1247 1147 1231 1197 1173 1219 1285 1164 1183 1175 1165 1203 1161 1229 1150 1204 1262 1209 1207 1202 1179 1159 1213 1186 1203 1204 1199 1208 1222 1212 1152 1186 1184 1173 1191 1201 1229 1191 1166 1274 1250 1189 1181 1177 1194 1201 1218 1156 1200 1242 1184 1258 1140 1124 1168 1198 1262 1181 1141 1211 1225 1225 1189 1107 1220 1179 1187 1172 1213 1176 1190 1214 1171 1174 1150 1156 1178 1131 1192 1206 1185 1244 1180 1212 1174 1184 1231 1112 1174 1229 1197 1096 1189 1187 1201 1227 1220 1165 1168 1196 1206 1159 1164 1171 1192 1203 1202 1158 1178 1183 1216 1219 1112 1170 1153 1115 1165 1147 1175 1219 1193 1122 1242 1188 1223 1239 1170 1187 1193 1209 1211 1195 1241 1116 1171 1172 1187 1263 1178 1224 1120 1240 1204 1154 1179 1147 1189 1173 1188 1207 1263 1199 1116 1199 1174 1210 1212 1150 1179 1247 1122 1213 1177 1213 1114 1215 1137 1164 1240 1220 1166 1163 1194 1188 1195 1260 1140 1161 1159 1205 1152 1135 1153 1189 1186 1198 1185 1197 1203 1175 1190 1199 1139 1111 1159 1150 1188 1160 1191 1213 1221 1110 1196 1156 1178 1161 1202 1155 1159 1170 1203 1164 1133 1198 1165 1136 1184 1209 1142 1182 1092 1154 1117 1223 1112 1143 1161 1159 1131 1177 1181 1200 1198 1197 1150 1181 1166 1145 1185 1167 1206 1129 1201 1143 1212 1200 1141 1206 1173 1180 1169 1177 1193 1194 1172 1140 1218 1155 1157 1113 1178 1207 1172 1173 1139 1086 1141 1217 1136 1127 1155 1217 1170 1197 1182 1164 1108 1163 1182 1208 1134 1206 1177 1174 1122 1224 1139 1167 1184 1212 1200 1208 1167 1214 1158 1160 1180 1181 1154 1218 1183 1124 1128 1129 1150 1184 1207 1230 1148 1208 1174 1151 1160 1176 1167 1204 1245 1194 1207 1128 1110 1152 1173 1203 1168 1144 1178 1133 1162 1194 1212 1147 1157 1133 1171 1226 1134 1240 1155 1167 1154 1247 1220 1112 1163 1090 1126 1219 1193 1178 1152 1141 1226 1192 1136 1115 1156 1137 1117 1203 1152 1152 1256 1084 1181 1123 1149 1201 1211 1206 1144 1170 1138 1147 1201 1196 1208 1196 1126 1169 1188 1162 1157 1233 1187 1238 1200 1168 1128 1176 1187 1158 1166 1188 1171 1177 1228 1205 1130 1154 1211 1173 1176 1192 1215 1274 1145 1139 1180 1153 1186 1178 1204 1197 1196 1223 1185 1182 1140 1198 1266 1201 1203 1215 1226 1123 1213 1181 1235 1170 1230 1170 1170 1136 1206 1220 1225 1229 1151 1210 1179 1225 1184 1214 1186 1224 1157 1221 1182 1250 1213 1178 1247 1210 1272 1171 1222 1215 1148 1263 1259 1280 1141 1289 1173 1296 1200 1318 1183 1195 1249 1302 1213 1260 1194 1279 1272 1286 1201 1241 1214 1229 1252 1214 1296 1222 1301 1266 1277 1220 1267 1299 1297 1253 1265 1248 1373 1368 1299 1331 1286 1296 1328 1316 1316 1282 1320 1376 1320 1323 1284 1359 1302 1326 1293 1336 1286 1292 1310 1266 1260 1318 1313 1336 1332 1351 1300 1301 1294 1280 1245 1295 1278 1296 1301 1230 1239 1304 1335 1306 1313 1262 1316 1256 1272 1263 1293 1256 1259 1329 1351 1304 1251 1302 1291 1323 1354 1329 1380 1269 1305 1337 1337 1303 1356 1369 1317 1296 1359 1284 1301 1278 1257 1288 1303 1288 1282 1344 1306 1235 1274 1207 1243 1154 1235 1216 1225 1184 1153 1162 1193 1186 1222 1160 1168 1119 1169 1160 1163 1146 1140 1148 1202 1168 1177 1223 1154 1177 1197 1162 1221 1214 1191 1194 1205 1161 1145 1157 1174 1182 1165 1174 1108 1161 1151 1184 1168 1166 1182 1194 1149 1129 1174 1193 1190 1213 1206 1168 1216 1181 1156 1205 1211 1170 1152 1140 1168 1162 1169 1158 1217 1144 1203 1160 1206 1157 1163 1193 1173 1183 1193 1229 1189 1208 1189 1175 1144 1166 1208 1208 1197 1157 1231 1193 1195 1130 1254 1175 1158 1200 1237 1178 1211 1224 1191 1228 1167 1293 1213 1160 1195 1164 1219 1181 1148 1216 1215 1280 1198 1209 1184 1193 1272 1225 1136 1187 1181 1230 1180 1203 1178 1197 1254 1170 1193 1222 1211 1206 1159 1234 1259 1273 1221 1175 1247 1150 1203 1187 1222 1193 1291 1221 1231 1171 1256 1248 1269 1287 1258 1228 1241 1208 1268 1391 1257 1352 1374 1272 1299 1370 1402 1342 1325 1360 1342 1428 1368 1347 1437 1427 1431 1478 1426 1441 1443 1463 1517 1465 1483 1492 1468 1530 1417 1419 1529 1441 1515 1453 1406 1426 1485 1462 1411 1373 1433 1497 1427 1411 1425 1478 1411 1367 1413 1378 1353 1382 1376 1366 1346 1394 1350 1347 1336 1314 1315 1333 1304 1320 1253 1273 1346 1303 1313 1334 1347 1275 1369 1358 1295 1335 1321 1296 1342 1341 1368 1309 1340 1334 1299 1334 1348 1326 1256 1256 1286 1272 1282 1296 1288 1225 1235 1261 1268 1221 1254 1240 1245 1180 1254 1220 1214 1243 1256 1232 1191 1202 1199 1197 1188 1185 1211 1190 1180 1153 1207 1253 1243 1130 1176 1208 1193 1170 1196 1161 1179 1133 1124 1225 1184 1158 1136 1130 1110 1126 1158 1211 1219 1200 1201 1133 1215 1109 1154 1100 1230 1222 1192 1207 1201 1173 1201 1210 1191 1177 1241 1200 1219 1231 1176 1193 1171 1133 1158 1271 1198 1210 1217 1166 1172 1171 1185 1207 1129 1165 1139 1218 1191 1172 1205 1236 1229 1262 1221 1192 1207 1254 1182 1253 1227 1268 1271 1232 1152 1240 1179 1210 1156 1193 1225 1214 1211 1226 1202 1226 1243 1248 1194 1232 1275 1273 1256 1258 1285 1289 1205 1309 1249 1223 1202 1246 1262 1327 1246 1235 1236 1223 1184 1221 1186 1207 1189 1267 1241 1210 1252 1277 1252 1254 1224 1247 1226 1211 1199 1295 1242 1219 1163 1155 1222 1164 1103 1179 1194 1276 1164 1154 1189 1192 1210 1162 1174 1156 1209 1160 1183 1153 1214 1166 1214 1181 1220 1224 1230 1206 1216 1176 1123 1212 1161 1160 1162 1168 1156 1158 1201 1200 1103 1122 1179 1161 1224 1209 1181 1131 1174 1142 1134 1174 1143 1156 1186 1207 1140 1207 1105 1184 1174 1160 1150 1159 1162 1128 1150 1196 1204 1143 1166 1160 1163 1231 1122 1212 1158 1144 1167 1112 1208 1159 1144 1143 1073 1179 1181 1146 1132 1189 1125 1182 1143 1165 1148 1169 1184 1182 1185 1174 1149 1165 1163 1216 1162 1188 1135 1204 1194 1132 1140 1157 1137 1153 1124 1223 1208 1130 1134 1162 1100 1229 1082 1148 1194 1176 1193 1165 1116 1115 1152 1104 1134 1183 1164 1116 1153 1173 1170 1133 1189 1156 1093 1171 1208 1168 1178 1168 1154 1197 1118 1163 1170 1211 1195 1215 1138 1148 1195 1169 1190 1115 1166 1126 1172 1124 1111 1209 1189 1164 1173 1126 1174 1152 1147 1096 1178 1144 1236 1188 1187 1199 1195 1168 1142 1159 1169 1190 1168 1114 1133 1158 1157 1170 1112 1125 1200 1242 1200 1075 1139 1157 1189 1132 1174 1113 1142 1133 1103 1083 1155 1166 1206 1130 1123 1134 1163 1080 1155 1191 1194 1162 1208 1202 1189 1239 1147 1173 1144 1113 1176 1110 1154 1155 1157 1176 1146 1157 1133 1120 1192 1158 1188 1175 1175 1141 1188 1183 1148 1166 1134 1212 1105 1151 1178 1207 1168 1167 1193 1168 1161 1157 1098 1175 1116 1182 1217 1144 1092 1209 1171 1204 1200 1178 1086 1095 1114 1175 1109 1167 1129 1128 1192 1172 1174 1137 1180 1077 1135 1108 1190 1167 1154 1216 1110 1142 1180 1143 1135 1175 1080 1143 1147 1154 1180 1179 1142 1180 1216 1186 1145 1199 1139 1152 1065 1120 1138 1153 1134 1197 1073 1146 1125 1141 1132 1205 1184 1203 1122 1131 1095 1212 1126 1237 1146 1177 1123 1198 1165 1111 1168 1104 1109 1099 1159 1121 1228 1142 1195 1161 1215 1171 1157 1191 1153 1185 1162 1155 1158 1184 1128 1164 1099 1183 1212 1176 1224 1196 1184 1216 1165 1176 1144 1095 1197 1195 1191 1170 1216 1179 1184 1138 1117 1167 1086 1229 1194 1169 1174 1126 1181 1185 1178 1092 1121 1239 1161 1100 1131 1177 1220 1169 1186 1114 1194 1145 1178 1202 1199 1161 1224 1188 1144 1219 1203 1191 1135 1184 1166 1257 1124 1148 1141 1142 1187 1241 1198 1240 1197 1179 1122 1124 1225 1167 1193 1075 1138 1143 1210 1230 1109 1140 1142 1154 1214 1182 1189 1150 1225 1165 1275 1203 1197 1143 1251 1189 1187 1176 1180 1195 1180 1237 1182 1174 1153 1124 1091 1163 1181 1218 1223 1131 1226 1208 1201 1152 1163 1168 1222 1143 1175 1145 1236 1308 1189 1193 1132 1231 1195 1147 1215 1232 1238 1147 1221 1199 1175 1244 1198 1148 1133 1198 1130 1218 1185 1151 1168 1220 1195 1124 1198 1204 1221 1220 1176 1295 1192 1185 1196 1166 1198 1172 1260 1226 1214 1197 1150 1153 1172 1180 1223 1191 1198 1183 1134 1156 1163 1178 1156 1143 1155 1113 1155 1129 1136 1164 1120 1164 1152 1161 1221 1182 1144 1114 1136 1184 1147 1175 1224 1196 1150 1176 1192 1158 1176 1187 1122 1209 1132 1182 1174 1093 1187 1205 1091 1141 1125 1119 1188 1189 1183 1173 1135 1183 1168 1122 1241 1183 1168 1219 1165 1191 1140 1162 1193 1146 1189 1226 1181 1175 1168 1183 1214 1172 1139 1144 1154 1114 1151 1193 1190 1196 1118 1115 1172 1127 1189 1169 1131 1193 1172 1152 1187 1088 1162 1142 1220 1169 1147 1189 1165 1162 1167 1213 1142 1140 1133 1160 1132 1219 1216 1145 1098 1162 1128 1116 1143 1204 1258 1204 1178 1216 1174 1178 1169 1165 1190 1193 1133 1139 1237 1150 1233 1276 1180 1165 1182 1118 1160 1233 1193 1135 1121 1192 1193 1212 1131 1135 1192 1102 1184 1151 1140 1178 1174 1088 1157 1145 1132 1125 1163 1136 1132 1111 1155 1082 1084 1168 1178 1205 1215 1179 1205 1163 1214 1182 1129 1140 1165 1154 1203 1128 1182 1186 1111 1148 1220 1254 1146 1129 1198 1173 1176 1147 1200 1185 1206 1147 1203 1186 1202 1109 1157 1170 1169 1210 1209 1187 1164 1177 1196 1137 1147 1097 1194 1174 1235 1132 1160 1205 1211 1154 1198 1208 1226 1188 1189 1219 1226 1235 1221 1267 1238 1266 1281 1206 1252 1196 1245 1257 1262 1294 1201 1206 1170 1252 1253 1237 1206 1234 1285 1251 1296 1261 1331 1191 1233 1260 1334 1261 1324 1240 1325 1311 1260 1276 1255 1300 1233 1249 1201 1318 1258 1284 1267 1280 1208 1264 1214 1181 1276 1205 1233 1244 1199 1270 1250 1248 1225 1180 1208 1288 1187 1232 1163 1161 1165 1239 1190 1318 1161 1222 1231 1196 1220 1215 1178 1220 1311 1173 1223 1239 1305 1224 1229 1266 1243 1228 1260 1248 1213 1269 1250 1213 1232 1219 1193 1203 1174 1218 1177 1194 1216 1210 1162 1169 1125 1179 1158 1175 1232 1222 1158 1185 1171 1187 1183 1165 1187 1227 1227 1207 1194 1173 1146 1203 1176 1152 1137 1183 1200 1218 1232 1169 1139 1140 1263 1192 1173 1160 1167 1198 1197 1160 1170 1191 1156 1124 1154 1126 1215 1200 1167 1205 1174 1150 1183 1219 1184 1275 1135 1126 1186 1160 1113 1109 1178 1172 1133 1135 1121 1163 1170 1176 1106 1196 1172 1167 1194 1163 1248 1077 1212 1190 1172 1219 1132 1172 1192 1140 1145 1153 1116 1158 1101 1204 1180 1195 1130 1199 1153 1218 1182 1129 1160 1159 1140 1154 1222 1146 1131 1166 1193 1144 1161 1141 1149 1153 1181 1146 1186 1126 1142 1083 1207 1147 1152 1197 1219 1228 1192 1210 1157 1136 1200 1131 1097 1143 1186 1161 1266 1172 1152 1163 1122 1121 1179 1196 1201 1157 1195 1166 1168 1144 1119 1201 1224 1127 1151 1181 1154 1133 1228 1223 1151 1154 1110 1161 1183 1152 1179 1193 1181 1172 1171 1201 1160 1188 1170 1106 1185 1211 1133 1156 1130 1202 1178 1231 1174 1196 1132 1144 1121 1154 1196 1146 1122 1189 1176 1219 1118 1176 1166 1212 1253 1238 1184 1201 1173 1177 1145 1179 1194 1162 1099 1169 1203 1145 1204 1162 1149 1118 1183 1160 1179 1171 1202 1185 1164 1139 1216 1219 1177 1132 1202 1161 1252 1249 1213 1224 1174 1124 1160 1150 1103 1206 1155 1142 1155 1169 1125 1231 1150 1236 1153 1152 1105 1229 1214 1209 1203 1154 1176 1199 1185 1130 1200 1178 1164 1181 1209 1151 1205 1206 1202 1125 1162 1129 1128 1217 1142 1118 1213 1161 1147 1116 1134 1225 1166 1216 1161 1093 1139 1141 1156 1167 1198 1117 1174 1181 1189 1184 1143 1181 1180 1199 1238 1187 1158 1186 1226 1191 1144 1190 1083 1199 1218 1174 1205 1165 1107 1199 1155 1135 1136 1162 1185 1198 1158 1194 1180 1180 1202 1186 1223 1182 1140 1128 1108 1187 1181 1216 1189 1180 1164 1167 1152 1201 1106 1150 1170 1208 1169 1195 1155 1186 1154 1201 1189 1161 1149 1115 1200 1119 1156 1171 1218 1172 1159 1209 1129 1206 1179 1143 1189 1146 1147 1181 1156 1198 1203 1187 1217 1145 1179 1182 1186 1133 1152 1188 1194 1184 1148 1130 1140 1236 1196 1145 1163 1236 1245 1215 1165 1242 1187 1242 1183 1191 1132 1121 1138 1193 1155 1201 1119 1137 1147 1196 1172 1164 1153 1138 1152 1149 1217 1153 1161 1162 1160 1196 1181 1150 1146 1211 1156 1154 1183 1207 1158 1126 1178 1155 1209 1185 1249 1187 1162 1187 1185 1180 1250 1173 1158 1143 1160 1183 1167 1105 1147 1143 1228 1221 1171 1184 1153 1076 1200 1192 1147 1193 1199 1130 1194 1186 1232 1217 1163 1267 1129 1198 1175 1204 1146 1160 1205 1187 1168 1154 1162 1215 1160 1143 1206 1200 1207 1139 1133 1169 1184 1165 1229 1206 1213 1191 1141 1213 1193 1206 1127 1220 1119 1179 1210 1180 1176 1199 1149 1178 1177 1210 1243 1187 1225 1199 1184 1221 1159 1209 1152 1151 1152 1164 1234 1171 1235 1203 1203 1216 1177 1187 1256 1226 1224 1238 1202 1200 1150 1210 1210 1251 1164 1254 1194 1272 1190 1234 1193 1186 1252 1265 1247 1219 1218 1222 1172 1216 1241 1270 1251 1189 1205 1219 1229 1237 1214 1189 1255 1209 1191 1251 1257 1168 1277 1197 1198 1273 1219 1138 1232 1189 1302 1236 1259 1206 1257 1207 1197 1250 1192 1196 1233 1236 1211 1189 1137 1256 1236 1219 1146 1221 1255 1175 1217 1188 1288 1194 1254 1287 1225 1265 1260 1239 1165 1329 1206 1191 1247 1225 1228 1297 1221 1259 1237 1278 1227 1274 1179 1210 1204 1248 1219 1234 1250 1208 1212 1163 1285 1257 1221 1280 1227 1279 1228 1273 1252 1261 1226 1237 1232 1272 1196 1296 1267 1240 1163 1237 1193 1239 1324 1228 1198 1214 1205 1240 1318 1239 1230 1267 1210 1265 1190 1232 1245 1193 1279 1243 1216 1244 1241 1270 1254 1244 1180 1247 1234 1212 1234 1231 1227 1254 1184 1198 1222 1229 1211 1197 1205 1286 1269 1260 1188 1273 1263 1213 1229 1294 1269 1312 1405 1258 1278 1280 1305 1270 1259 1245 1281 1270 1286 1248 1230 1279 1320 1323 1250 1215 1288 1216 1252 1280 1306 1196 1258 1263 1225 1264 1266 1217 1250 1190 1229 1222 1197 1269 1211 1227 1225 1177 1184 1185 1217 1268 1200 1252 1163 1229 1221 1210 1170 1168 1215 1209 1286 1249 1214 1189 1221 1271 1244 1159 1205 1221 1223 1176 1169 1271 1210 1173 1244 1197 1161 1212 1149 1248 1181 1204 1250 1214 1196 1224 1216 1182 1184 1189 1256 1248 1226 1189 1323 1231 1254 1216 1253 1248 1245 1249 1216 1280 1233 1271 1236 1300 1233 1228 1261 1208 1281 1174 1301 1307 1283 1323 1284 1277 1272 1237 1301 1278 1309 1306 1297 1290 1298 1297 1279 1343 1325 1298 1311 1315 1333 1302 1330 1341 1329 1368 1410 1332 1284 1339 1363 1417 1383 1398 1366 1364 1437 1424 1397 1425 1372 1342 1374 1419 1397 1475 1462 1430 1440 1429 1403 1447 1380 1346 1386 1433 1386 1365 1405 1363 1438 1317 1353 1388 1293 1424 1434 1317 1352 1399 1358 1344 1389 1389 1354 1389 1294 1309 1286 1267 1321 1281 1322 1297 1319 1265 1357 1294 1307 1348 1345 1298 1253 1280 1273 1289 1229 1313 1298 1264 1232 1282 1243 1270 1300 1281 1308 1343 1261 1306 1340 1252 1297 1234 1288 1329 1284 1382 1377 1342 1299 1365 1337 1407 1320 1385 1383 1315 1331 1337 1356 1312 1337 1272 1297 1228 1324 1205 1285 1317 1267 1302 1271 1314 1309 1333 1289 1243 1309 1356 1328 1333 1328 1292 1254 1287 1240 1313 1276 1246 1284 1201 1252 1241 1255 1256 1276 1188 1252 1255 1236 1305 1232 1184 1208 1186 1281 1169 1184 1146 1202 1229 1268 1222 1197 1187 1260 1235 1204 1177 1254 1191 1230 1229 1201 1243 1230 1264 1237 1134 1249 1192 1253 1222 1260 1136 1182 1190 1234 1206 1165 1277 1219 1289 1241 1212 1242 1199 1280 1216 1223 1237 1225 1221 1229 1130 1219 1129 1239 1241 1198 1175 1244 1268 1253 1187 1241 1234 1227 1242 1203 1207 1222 1271 1258 1188 1309 1222 1194 1197 1194 1179 1215 1291 1277 1169 1144 1236 1186 1221 1148 1232 1219 1234 1265 1180 1286 1262 1152 1196 1200 1243 1164 1239 1241 1228 1185 1182 1228 1204 1180 1237 1233 1197 1166 1105 1266 1262 1225 1161 1251 1153 1197 1172 1154 1259 1198 1198 1158 1187 1212 1245 1163 1180 1257 1229 1238 1194 1225 1200 1197 1253 1226 1161 1166 1192 1210 1213 1288 1224 1201 1214 1204 1239 1171 1193 1159 1222 1129 1220 1223 1190 1199 1220 1129 1207 1252 1129 1227 1173 1139 1235 1157 1197 1197 1204 1186 1151 1181 1246 1169 1223 1140 1190 1238 1194 1179 1212 1247 1168 1200 1209 1277 1167 1257 1135 1224 1192 1213 1133 1163 1178 1158 1196 1158 1205 1210 1164 1262 1192 1156 1248 1217 1203 1180 1132 1171 1224 1193 1198 1197 1173 1247 1156 1177 1228 1174 1193 1273 1180 1236 1140 1196 1161 1146 1167 1182 1181 1182 1134 1182 1149 1154 1187 1178 1231 1126 1180 1222 1252 1144 1204 1211 1165 1144 1214 1186 1221 1204 1190 1170 1228 1136 1162 1145 1169 1214 1127 1222 1203 1212 1158 1235 1203 1140 1182 1140 1260 1136 1151 1216 1172 1176 1148 1186 1224 1180 1220 1163 1191 1157 1193 1156 1159 1202 1166 1119 1250 1228 1233 1223 1096 1272 1182 1193 1177 1105 1234 1175 1198 1202 1216 1127 1158 1220 1198 1215 1198 1184 1205 1111 1143 1184 1186 1219 1172 1186 1176 1258 1210 1213 1165 1245 1180 1212 1218 1112 1215 1159 1201 1154 1222 1184 1203 1213 1196 1191 1227 1184 1123 1193 1185 1236 1155 1165 1215 1158 1212 1145 1148 1155 1155 1160 1252 1228 1199 1165 1227 1281 1216 1188 1163 1217 1161 1176 1185 1256 1166 1202 1228 1171 1160 1151 1193 1258 1150 1210 1252 1217 1165 1241 1193 1131 1163 1178 1234 1193 1209 1224 1200 1207 1129 1207 1219 1288 1200 1208 1261 1187 1228 1147 1176 1168 1270 1149 1157 1230 1161 1218 1194 1189 1204 1172 1171 1197 1255 1173 1211 1226 1155 1159 1220 1232 1219 1204 1219 1124 1195 1213 1152 1176 1172 1165 1217 1156 1200 1128 1266 1245 1210 1151 1222 1256 1220 1160 1188 1214 1237 1177 1218 1142 1164 1214 1180 1212 1184 1261 1205 1175 1250 1231 1213 1224 1184 1164 1235 1201 1173 1178 1252 1218 1194 1203 1243 1219 1264 1189 1245 1220 1223 1201 1187 1156 1201 1218 1229 1286 1214 1213 1220 1191 1213 1172 1171 1226 1223 1159 1180 1219 1289 1198 1240 1228 1302 1213 1208 1222 1215 1250 1242 1236 1294 1218 1231 1156 1245 1237 1255 1194 1285 1270 1207 1265 1184 1247 1248 1232 1240 1259 1197 1145 1229 1185 1167 1217 1256 1174 1251 1250 1265 1252 1222 1182 1119 1176 1258 1213 1186 1281 1254 1198 1207 1225 1177 1265 1202 1158 1147 1248 1195 1122 1183 1201 1222 1222 1240 1242 1189 1230 1140 1186 1194 1204 1174 1219 1200 1237 1234 1257 1294 1235 1206 1218 1214 1243 1204 1162 1223 1190 1182 1240 1192 1202 1204 1260 1191 1177 1252 1177 1208 1190 1189 1215 1283 1207 1234 1146 1242 1192 1182 1177 1187 1220 1204 1216 1236 1211 1237 1235 1186 1234 1219 1205 1215 1236 1186 1121 1264 1268 1187 1169 1193 1207 1208 1214 1148 1120 1223 1166 1201 1165 1209 1184 1238 1213 1253 1210 1180 1223 1186 1222 1196 1220 1161 1222 1179 1190 1207 1204 1223 1249 1216 1219 1223 1242 1207 1183 1177 1166 1229 1212 1232 1162 1240 1133 1228 1217 1240 1241 1154 1152 1200 1177 1189 1205 1198 1194 1219 1219 1286 1149 1160 1253 1164 1297 1226 1137 1198 1209 1243 1230 1176 1222 1171 1275 1215 1198 1196 1210 1210 1172 1219 1216 1279 1244 1224 1230 1240 1206 1202 1196 1169 1239 1214 1181 1258 1177 1166 1261 1228 1306 1179 1246 1241 1163 1218 1217 1177 1224 1204 1232 1219 1262 1178 1223 1246 1230 1234 1224 1283 1217 1261 1268 1287 1247 1271 1238 1302 1309 1267 1297 1296 1254 1263 1289 1322 1320 1279 1325 1325 1284 1286 1300 1274 1291 1264 1339 1308 1311 1301 1266 1321 1307 1335 1334 1334 1311 1290 1325 1275 1326 1405 1316 1366 1321 1328 1312 1291 1323 1395 1383 1314 1362 1334 1384 1309 1336 1352 1362 1384 1420 1355 1370 1344 1395 1349 1352 1265 1314 1310 1316 1313 1259 1294 1312 1345 1333 1352 1254 1310 1271 1303 1324 1318 1288 1271 1328 1283 1267 1296 1294 1270 1289 1243 1223 1314 1294 1303 1303 1332 1284 1316 1249 1263 1233 1213 1259 1238 1242 1237 1299 1289 1272 1278 1203 1233 1304 1218 1271 1302 1250 1244 1247 1263 1243 1200 1237 1273 1244 1257 1323 1253 1219 1278 1263 1238 1289 1312 1303 1347 1238 1271 1266 1245 1226 1186 1278 1239 1337 1343 1254 1278 1228 1263 1281 1276 1221 1261 1271 1256 1217 1231 1292 1260 1278 1292 1234 1200 1244 1187 1259 1268 1222 1311 1252 1259 1244 1239 1216 1262 1309 1243 1221 1286 1258 1203 1200 1196 1237 1230 1232 1173 1223 1241 1219 1208 1185 1176 1191 1286 1236 1309 1225 1263 1274 1232 1298 1179 1252 1204 1266 1300 1272 1158 1266 1194 1218 1190 1199 1228 1125 1183 1142 1248 1202 1197 1258 1200 1251 1272 1241 1213 1233 1247 1294 1257 1174 1211 1224 1190 1208 1202 1218 1238 1227 1232 1132 1168 1203 1218 1200 1207 1186 1195 1161 1153 1212 1216 1250 1200 1164 1204 1195 1170 1268 1243 1181 1186 1163 1199 1299 1213 1189 1157 1228 1213 1213 1209 1158 1194 1171 1183 1217 1214 1162 1195 1238 1217 1222 1172 1219 1244 1192 1166 1172 1212 1216 1204 1201 1217 1219 1239 1169 1173 1200 1224 1216 1218 1267 1208 1171 1242 1171 1219 1203 1238 1194 1214 1236 1199 1270 1191 1152 1236 1179 1194 1190 1247 1215 1214 1214 1173 1237 1211 1202 1216 1135 1178 1169 1228 1229 1222 1228 1204 1228 1211 1221 1191 1204 1266 1243 1206 1243 1219 1178 1237 1240 1222 1204 1137 1220 1266 1163 1262 1248 1216 1200 1231 1201 1142 1172 1201 1213 1220 1193 1161 1259 1132 1176 1208 1190 1157 1218 1196 1201 1220 1171 1167 1187 1243 1173 1160 1263 1184 1225 1211 1209 1175 1230 1178 1199 1195 1147 1220 1174 1265 1209 1210 1197 1236 1164 1214 1220 1128 1226 1285 1173 1187 1233 1216 1183 1216 1207 1239 1242 1201 1158 1227 1168 1176 1199 1214 1185 1235 1257 1170 1220 1180 1194 1197 1199 1147 1253 1124 1216 1153 1259 1296 1273 1214 1204 1172 1214 1208 1240 1221 1194 1144 1215 1137 1202 1194 1266 1202 1143 1191 1242 1204 1206 1203 1222 1218 1206 1237 1183 1227 1199 1270 1251 1215 1156 1228 1232 1192 1210 1246 1178 1235 1153 1204 1160 1210 1223 1167 1229 1201 1263 1143 1139 1211 1145 1106 1210 1182 1235 1217 1205 1214 1269 1205 1220 1191 1194 1204 1179 1268 1126 1172 1200 1252 1188 1257 1190 1201 1182 1210 1156 1238 1167 1208 1188 1253 1249 1256 1182 1167 1216 1206 1180 1154 1218 1199 1257 1173 1267 1193 1256 1232 1199 1226 1179 1173 1211 1286 1288 1184 1197 1206 1185 1213 1228 1208 1208 1227 1228 1233 1220 1181 1237 1137 1189 1224 1283 1235 1181 1196 1221 1274 1225 1125 1153 1206 1240 1220 1242 1189 1232 1224 1195 1166 1248 1192 1194 1228 1158 1184 1173 1235 1198 1184 1315 1186 1219 1258 1223 1245 1188 1212 1188 1257 1235 1305 1219 1225 1164 1224 1234 1265 1179 1207 1252 1195 1211 1281 1190 1256 1199 1171 1222 1267 1222 1278 1276 1218 1200 1237 1305 1227 1228 1207 1255 1251 1251 1252 1236 1260 1310 1240 1197 1231 1240 1220 1194 1234 1199 1228 1266 1220 1201 1267 1217 1208</counts>
			</dataPoints>
		</scan>
	</xrdMeasurement>
</xrdMeasurements>
