<?xml version="1.0"?>
<xrdMeasurements xmlns="http://www.xrdml.com/XRDMeasurement/2.3" xmlns:xsi="http://www.w3.org/2001/XMLSchema-instance" xsi:schemaLocation="http://www.xrdml.com/XRDMeasurement/2.3 http://www.xrdml.com/XRDMeasurement/2.3/XRDMeasurement.xsd" status="Completed" recordIdentifier="{6727F607-2B70-42FE-8D47-CCEA1056F344}">
	<comment>
		<entry/>
	</comment>
	<sample type="To be analyzed">
		<id>GPSS_Li1p78Fe0p78Y0p22Cl4_112625_69278cb0f4e53d1f7239ae4c</id>
		<name></name>
		<preparedBy></preparedBy>
	</sample>
	<xrdMeasurement measurementType="Scan" status="Completed" sampleMode="Reflection">
		<usedWavelength intended="K-Alpha 1">
			<kAlpha1 unit="Angstrom">1.5405980</kAlpha1>
			<kAlpha2 unit="Angstrom">1.5444260</kAlpha2>
			<kBeta unit="Angstrom">1.3922500</kBeta>
			<ratioKAlpha2KAlpha1>0.5000</ratioKAlpha2KAlpha1>
		</usedWavelength>
		<incidentBeamPath>
			<radius unit="mm">145.00</radius>
			<xRayTube id="1010048" name="Empyrean Cu LFF HR (9430 033 7310x)">
				<tension unit="kV">40.0</tension>
				<current unit="mA">15.0</current>
				<anodeMaterial>Cu</anodeMaterial>
				<focus type="Line">
					<length unit="mm">12.0</length>
					<width unit="mm">0.4</width>
					<takeOffAngle unit="deg">6.0</takeOffAngle>
				</focus>
			</xRayTube>
			<sollerSlit id="21010002" name="Soller slits 0.04 rad.">
				<opening unit="rad">0.0400</opening>
			</sollerSlit>
			<mask id="22031000" name="Fixed mask 13 mm">
				<width unit="mm">9.00</width>
			</mask>
			<divergenceSlit id="22120001" name="Divergence slit 1°" xsi:type="fixedDivergenceSlitType">
				<distanceToSample unit="mm">50.00</distanceToSample>
				<height unit="mm">1.52</height>
			</divergenceSlit>
		</incidentBeamPath>
		<sampleMovement xsi:type="spinningSampleMovementType">
			<spinnerRevolutionTime unit="seconds">1.0</spinnerRevolutionTime>
		</sampleMovement>
		<diffractedBeamPath>
			<radius unit="mm">145.00</radius>
			<antiScatterSlit id="22090040" name="AS slit 9 mm (PIXcel)" xsi:type="fixedAntiScatterSlitType">
				<height unit="mm">9.00</height>
			</antiScatterSlit>
			<sollerSlit id="21020003" name="Large Soller slits 0.04 rad.">
				<opening unit="rad">0.0400</opening>
			</sollerSlit>
			<filter id="20030001" name="Large beta-filter Nickel">
				<material>Ni</material>
				<thickness unit="mm">0.020</thickness>
			</filter>
			<detector id="7010019" name="PIXcel1D-Medipix3 detector" xsi:type="rtmsDetectorType">
				<phd unit="keV">
					<lowerLevel>4.02</lowerLevel>
					<upperLevel>11.27</upperLevel>
				</phd>
				<mode>Scanning</mode>
				<activeLength unit="deg">5.542</activeLength>
			</detector>
		</diffractedBeamPath>
		<scan appendNumber="0" mode="Continuous" scanAxis="Gonio" status="Completed">
			<header>
				<startTimeStamp>2025-11-28T10:50:23-08:00</startTimeStamp>
				<endTimeStamp>2025-11-28T10:58:30-08:00</endTimeStamp>
				<author>
					<name>AutomatedUser</name>
				</author>
				<source>
					<applicationSoftware version="1.7b (136)">PANalytical Aeris Instrument Suite</applicationSoftware>
					<instrumentControlSoftware version="3.2.00000000 20240306">AERIS</instrumentControlSoftware>
					<instrumentID>950485</instrumentID>
				</source>
			</header>
			<dataPoints>
				<positions axis="2Theta" unit="deg">
					<startPosition>10.00943322</startPosition>
					<endPosition>99.99442286</endPosition>
				</positions>
				<positions axis="Omega" unit="deg">
					<startPosition>5.00471661</startPosition>
					<endPosition>49.99721143</endPosition>
				</positions>
				<commonCountingTime unit="seconds">12.495</commonCountingTime>
				<counts unit="counts">2903 2924 2858 3017 2881 3025 2940 2888 2855 3011 2907 2969 3006 2920 2968 2944 2928 2972 2900 2942 2888 2881 2964 2889 2884 2941 3003 3041 2949 3037 2999 3013 3112 2964 2947 2981 3046 2869 3026 3036 2935 3078 2946 2861 2861 3013 3045 3126 3062 2965 2936 3052 2956 3047 3050 3059 2993 3085 3059 3093 3059 3065 3110 3024 3087 3060 3046 3147 3097 3146 3137 3146 3044 3191 3097 3186 3171 3110 3206 3109 3140 3164 3075 3148 3222 3132 3230 3134 3172 3314 3291 3288 3147 3107 3207 3178 3201 3179 3335 3213 3275 3215 3292 3190 3358 3263 3316 3193 3253 3185 3228 3296 3271 3229 3317 3249 3165 3197 3386 3333 3163 3235 3363 3375 3252 3266 3285 3411 3292 3335 3276 3223 3325 3235 3305 3344 3273 3255 3317 3302 3414 3236 3297 3279 3354 3247 3230 3206 3271 3276 3278 3257 3312 3393 3226 3330 3409 3343 3344 3307 3310 3192 3291 3285 3281 3312 3283 3400 3370 3238 3272 3406 3244 3368 3229 3397 3269 3395 3297 3344 3251 3313 3348 3175 3377 3298 3340 3369 3321 3395 3301 3384 3312 3325 3338 3369 3240 3377 3285 3315 3387 3306 3242 3254 3373 3298 3316 3286 3277 3301 3219 3356 3316 3253 3368 3352 3357 3267 3373 3225 3335 3192 3270 3284 3246 3234 3245 3320 3245 3296 3377 3183 3301 3292 3329 3307 3131 3228 3126 3162 3292 3336 3155 3177 3275 3268 3125 3222 3218 3132 3257 3215 3200 3191 3180 3142 3171 3109 3215 3215 3138 3153 3210 3226 3203 3193 3183 3132 3200 3218 3106 3136 3119 3170 3256 3238 3189 3255 3229 3237 3103 3177 3209 3128 3179 3191 3100 3110 3229 3102 3206 3250 3200 3205 3093 3113 3131 2991 3090 3157 3134 3176 3005 2962 3181 3153 3230 3143 3175 3156 3175 3088 3101 3128 3100 3199 3080 3191 3173 3135 3201 3118 3270 3138 3161 3231 3224 3227 3111 3177 3193 3146 3259 3031 3170 3140 3269 3245 3136 3146 3162 3227 3115 3263 3190 3219 3238 3203 3151 3266 3246 3119 3263 3113 3264 3222 3186 3273 3148 3294 3103 3291 3290 3274 3326 3239 3223 3297 3174 3328 3212 3217 3246 3308 3256 3328 3237 3156 3213 3300 3382 3290 3385 3437 3317 3368 3179 3331 3400 3291 3381 3312 3427 3286 3411 3396 3344 3443 3250 3385 3343 3392 3255 3306 3374 3410 3434 3307 3373 3498 3342 3356 3357 3310 3436 3486 3465 3462 3611 3448 3573 3528 3492 3514 3653 3666 3519 3558 3670 3624 3594 3755 3705 3799 3744 3731 3712 3683 3692 3753 3683 3741 3669 3634 3758 3641 3739 3844 3788 3865 3879 3785 3742 3689 3636 3710 3726 3722 3669 3731 3628 3552 3636 3653 3683 3595 3642 3595 3645 3533 3621 3685 3602 3676 3597 3686 3578 3604 3545 3602 3574 3538 3621 3566 3676 3565 3565 3557 3502 3568 3646 3585 3639 3478 3563 3567 3446 3522 3479 3541 3495 3485 3301 3444 3390 3415 3389 3361 3359 3412 3288 3553 3352 3402 3296 3305 3195 3468 3325 3241 3381 3359 3317 3285 3317 3357 3195 3258 3249 3328 3319 3266 3238 3331 3180 3314 3203 3257 3228 3187 3178 3170 3156 3311 3298 3331 3357 3197 3256 3256 3206 3248 3324 3192 3165 3138 3217 3196 3230 3269 3188 3094 3146 3097 3214 3024 3193 3193 3130 3129 3166 3032 3147 3092 3102 3083 3114 3048 3125 3107 3076 3101 3150 3110 3057 3125 3084 3135 3131 2971 3000 2988 3154 3034 2979 3085 3054 3089 2879 3051 3077 3018 3039 3089 2909 3020 3003 2986 2983 3027 3098 3074 2999 2907 3022 2922 3148 2943 3101 3137 2972 2969 3004 2931 3039 2881 2877 2927 3058 2920 2993 2914 2983 2942 3018 2901 2986 2811 2920 2911 2990 2960 2897 3030 2940 2856 2963 2883 2981 2955 3047 2974 2891 2908 2938 2912 2898 2961 2907 2992 2909 2932 2940 3015 2905 3102 2930 2907 2932 2910 2980 2934 2835 2971 2918 2988 2940 2886 2982 2848 3000 2946 2871 2937 2963 2957 2937 2928 2839 2876 2937 2862 2973 2792 2727 2871 2853 2813 2942 2908 2865 2860 2950 2824 2828 2861 2739 2919 2762 2876 2977 2815 2902 2760 2830 2910 2736 2842 2769 2768 2909 2768 2792 2869 2796 2820 2855 2897 2783 2860 2748 2884 2816 2823 2853 2825 2920 2850 2867 2928 2869 2878 2886 2949 2975 2925 2873 2868 2847 2832 2821 2818 2805 2913 2785 2732 2860 2751 2739 2744 2887 2846 2796 2728 2846 2910 2914 2819 2786 2777 2853 2801 2812 2725 2824 2787 2774 2893 2804 2807 2740 2788 2682 2844 2901 2766 2758 2849 2765 2714 2797 2769 2734 2633 2710 2773 2772 2839 2756 2810 2687 2747 2630 2795 2782 2806 2782 2738 2754 2741 2731 2735 2755 2768 2718 2811 2728 2743 2712 2811 2714 2763 2690 2786 2740 2715 2759 2738 2725 2798 2826 2636 2699 2776 2724 2701 2634 2772 2612 2745 2784 2700 2743 2794 2599 2763 2707 2688 2727 2751 2693 2683 2679 2676 2710 2660 2727 2645 2629 2594 2718 2688 2630 2657 2724 2705 2614 2677 2794 2692 2695 2661 2565 2789 2594 2619 2631 2686 2683 2617 2661 2556 2691 2578 2611 2599 2678 2600 2664 2730 2639 2623 2575 2668 2687 2662 2629 2687 2650 2650 2560 2552 2660 2656 2687 2662 2603 2583 2591 2602 2617 2608 2634 2530 2608 2671 2611 2555 2588 2689 2545 2607 2600 2640 2603 2529 2607 2746 2595 2551 2565 2536 2510 2561 2545 2543 2627 2560 2537 2510 2593 2590 2555 2562 2551 2603 2517 2591 2573 2587 2655 2512 2473 2558 2558 2647 2580 2542 2436 2620 2643 2486 2635 2583 2507 2529 2502 2550 2606 2578 2434 2510 2482 2572 2478 2552 2529 2571 2578 2573 2640 2443 2523 2532 2487 2519 2596 2450 2521 2544 2553 2571 2510 2539 2500 2636 2464 2571 2514 2529 2533 2532 2523 2551 2488 2563 2454 2532 2443 2490 2524 2491 2453 2413 2515 2443 2579 2513 2541 2498 2528 2495 2489 2533 2469 2496 2527 2507 2496 2478 2602 2466 2486 2552 2523 2571 2538 2532 2509 2513 2494 2574 2484 2556 2514 2509 2542 2461 2489 2582 2478 2542 2483 2513 2522 2508 2432 2488 2513 2577 2482 2509 2560 2477 2494 2533 2470 2600 2506 2690 2559 2422 2539 2492 2558 2526 2460 2529 2550 2497 2476 2492 2522 2591 2499 2626 2599 2602 2538 2438 2479 2438 2447 2451 2480 2539 2459 2488 2525 2520 2431 2568 2501 2463 2523 2446 2500 2530 2486 2482 2522 2596 2519 2550 2470 2519 2439 2449 2476 2514 2485 2504 2531 2511 2527 2465 2500 2565 2452 2522 2481 2455 2460 2432 2430 2511 2426 2348 2458 2404 2485 2394 2455 2365 2552 2437 2359 2449 2376 2488 2311 2459 2400 2432 2380 2370 2401 2447 2344 2410 2379 2361 2423 2428 2354 2380 2425 2353 2371 2382 2421 2460 2346 2406 2363 2407 2325 2371 2363 2307 2432 2353 2409 2328 2327 2274 2347 2369 2413 2285 2268 2236 2371 2324 2435 2283 2257 2268 2231 2323 2333 2265 2346 2355 2210 2227 2329 2169 2244 2216 2342 2203 2259 2256 2206 2237 2249 2220 2163 2270 2177 2175 2138 2273 2221 2248 2334 2186 2167 2134 2277 2249 2197 2165 2203 2145 2253 2177 2210 2254 2266 2142 2132 2127 2123 2091 2134 2144 2159 2216 2123 2137 2163 2132 2148 2133 2040 2083 2103 2106 2080 2056 2103 2148 2044 2116 2027 1973 2031 2057 2061 2061 2134 2089 2025 2029 2028 2025 2052 2038 2082 2064 1978 2027 2010 1983 2025 1946 2013 2027 2039 1938 1947 1957 1951 1959 2062 1979 2025 2007 2002 1929 2031 2019 1972 1983 1947 2039 1938 1927 1950 1881 1940 1950 1935 1893 1967 1929 1916 2026 1979 1953 1934 1985 1906 1990 1918 1964 1850 1822 1943 1856 1894 1889 1842 1956 1934 1902 1837 1856 1798 1905 1873 1962 1911 1935 1887 1837 1904 1850 1865 1819 1860 1903 1984 1878 1901 1840 1925 1842 1895 1817 1871 1841 1918 1808 1946 1895 1894 1848 1870 1865 1805 1920 1837 1821 1842 1924 1928 1893 1861 1852 1861 1802 1803 1824 1909 1869 1847 1859 1829 1945 1794 1856 1849 1804 1900 1880 1850 1864 1845 1853 1853 1846 1847 1842 1824 1899 1743 1795 1798 1807 1836 1892 1837 1837 1881 1837 1864 1887 1776 1813 1871 1877 1798 1886 1870 1907 1847 1856 1921 1850 1819 1876 1907 1817 1852 1855 1827 1907 1870 1837 1789 1952 1831 1811 1932 1936 1924 1818 1882 1869 1869 1853 1856 1913 1801 1910 1844 1883 1831 1866 1818 1912 1889 1867 1862 1859 1782 1839 1787 1809 1861 1890 1846 1851 1800 1893 1870 1828 1874 1914 1821 1780 1836 1867 1821 1813 1789 1870 1854 1880 1793 1817 1844 1939 1852 1899 1807 1935 1785 1883 1893 1885 1881 1916 1855 1857 1849 1865 1786 1902 1913 1770 1863 1768 1835 1818 1861 1864 1824 1800 1838 1834 1823 1815 1900 1796 1891 1821 1850 1812 1811 1873 1792 1826 1796 1816 1804 1745 1797 1815 1772 1810 1781 1790 1738 1816 1892 1834 1796 1860 1756 1782 1867 1866 1785 1805 1673 1762 1818 1795 1695 1762 1730 1783 1748 1766 1751 1762 1745 1718 1806 1784 1874 1741 1735 1791 1809 1783 1733 1624 1785 1705 1748 1816 1654 1636 1683 1727 1653 1664 1702 1648 1773 1669 1639 1772 1726 1714 1689 1637 1682 1684 1708 1626 1740 1692 1607 1572 1618 1645 1623 1610 1713 1656 1699 1565 1675 1596 1755 1615 1625 1580 1685 1540 1739 1565 1667 1612 1605 1627 1567 1597 1675 1592 1670 1581 1563 1625 1577 1585 1613 1582 1576 1578 1645 1536 1604 1580 1553 1555 1539 1603 1497 1623 1612 1514 1503 1557 1437 1567 1565 1510 1501 1580 1546 1599 1546 1646 1526 1577 1543 1466 1538 1579 1615 1649 1625 1560 1561 1546 1625 1673 1610 1695 1707 1719 1681 1703 1729 1701 1749 1748 1718 1656 1720 1700 1713 1690 1683 1647 1703 1691 1707 1663 1773 1695 1719 1667 1709 1674 1626 1654 1639 1621 1562 1654 1618 1610 1570 1581 1634 1533 1622 1579 1573 1564 1551 1565 1593 1560 1589 1529 1461 1516 1536 1526 1461 1481 1514 1519 1428 1445 1540 1487 1502 1462 1460 1489 1467 1544 1500 1525 1530 1494 1507 1445 1488 1545 1422 1476 1450 1336 1479 1514 1458 1451 1448 1344 1430 1406 1381 1400 1355 1490 1382 1439 1468 1412 1438 1427 1465 1399 1369 1407 1382 1420 1402 1437 1440 1378 1404 1429 1472 1413 1450 1494 1435 1496 1513 1520 1540 1604 1599 1673 1687 1629 1730 1805 1755 1755 1774 1786 1812 1748 1799 1648 1678 1726 1675 1686 1795 1679 1622 1666 1758 1637 1647 1673 1663 1748 1645 1588 1590 1632 1593 1567 1546 1554 1552 1483 1563 1594 1584 1438 1555 1541 1571 1528 1537 1500 1512 1525 1548 1442 1473 1457 1526 1455 1474 1464 1481 1486 1496 1463 1499 1487 1452 1484 1485 1449 1497 1517 1475 1496 1458 1416 1466 1338 1452 1374 1379 1434 1420 1372 1382 1338 1303 1294 1335 1245 1309 1283 1229 1333 1270 1245 1308 1305 1283 1321 1239 1298 1226 1213 1291 1268 1217 1291 1276 1266 1275 1267 1203 1252 1302 1227 1184 1210 1201 1269 1208 1181 1244 1231 1244 1257 1254 1223 1255 1271 1215 1282 1217 1206 1237 1175 1252 1225 1198 1235 1269 1255 1299 1274 1327 1299 1281 1360 1340 1359 1432 1371 1440 1402 1372 1438 1397 1521 1471 1431 1477 1405 1430 1431 1443 1462 1447 1411 1358 1477 1386 1391 1396 1432 1360 1401 1399 1385 1394 1321 1349 1337 1348 1335 1373 1296 1287 1269 1280 1263 1271 1274 1232 1310 1251 1206 1213 1209 1256 1256 1221 1218 1213 1250 1182 1198 1213 1216 1255 1247 1296 1243 1239 1211 1235 1204 1170 1233 1234 1218 1242 1238 1259 1172 1183 1212 1260 1182 1189 1184 1285 1212 1214 1155 1168 1227 1200 1125 1180 1107 1222 1115 1105 1140 1114 1118 1167 1169 1204 1167 1088 1175 1141 1137 1158 1123 1220 1136 1165 1171 1152 1159 1166 1194 1162 1143 1180 1171 1126 1167 1179 1242 1193 1132 1198 1144 1149 1223 1160 1158 1241 1198 1169 1167 1172 1192 1223 1224 1226 1180 1230 1207 1160 1144 1192 1210 1133 1129 1184 1188 1118 1145 1118 1144 1198 1137 1149 1108 1175 1156 1186 1111 1130 1176 1159 1115 1161 1133 1120 1154 1149 1192 1129 1096 1161 1068 1193 1122 1167 1169 1158 1119 1115 1168 1044 1129 1090 1086 1142 1133 1115 1152 1156 1044 1111 1107 1133 1149 1160 1169 1131 1165 1110 1145 1105 1183 1110 1105 1118 1092 1118 1155 1132 1018 1154 1153 1180 1132 1156 1150 1162 1142 1161 1129 1162 1118 1161 1177 1059 1155 1118 1080 1148 1112 1133 1169 1142 1138 1154 1097 1178 1134 1170 1175 1063 1072 1122 1106 1080 1168 1130 1110 1123 1102 1136 1069 1104 1074 1099 1155 1157 1106 1194 1217 1124 1223 1188 1192 1108 1167 1166 1160 1242 1306 1250 1346 1342 1399 1341 1444 1448 1612 1596 1769 1916 2053 2084 2266 2203 2390 2354 2312 2326 2483 2470 2554 2334 2399 2290 2231 2200 2177 2205 2258 2108 2269 2137 2225 2038 2189 2052 2059 1939 1903 1847 2005 1878 1794 1860 1824 1776 1761 1714 1683 1708 1614 1625 1618 1565 1526 1524 1572 1578 1566 1561 1414 1543 1436 1442 1432 1517 1464 1443 1530 1548 1417 1569 1564 1521 1497 1521 1559 1467 1456 1458 1492 1484 1449 1489 1445 1388 1429 1354 1367 1212 1375 1321 1274 1262 1301 1237 1256 1191 1199 1171 1144 1184 1138 1118 1124 1190 1101 1099 1110 1145 1069 1141 1046 1107 1057 1095 1123 1108 1061 1180 1113 1140 1121 1103 1096 1054 1113 1114 1129 1073 1106 1048 1150 1073 1111 1076 1050 1094 1114 1039 1106 1079 1114 1086 1049 1100 1057 1058 1025 1102 1016 1078 1030 1069 1079 1074 1070 1048 1095 1043 1003 1074 1072 1063 1094 1009 1069 1006 1046 1049 1029 1047 1009 957 990 985 1054 1037 1054 1074 1031 1046 1017 1025 1041 1078 1015 1024 1058 1078 1035 1053 1001 1041 1011 1026 1018 985 1021 1037 1018 1021 950 1016 1057 1003 1029 981 949 963 1009 1051 1013 1064 1050 1056 1018 1065 1057 1027 1037 1016 1018 1029 1003 985 983 1031 990 1028 982 1036 1026 965 969 998 976 985 948 989 1000 968 1007 937 1022 997 973 1071 970 983 909 975 982 995 967 958 939 1002 970 1010 938 1005 944 960 1046 977 954 976 958 968 985 1070 1024 974 1022 998 1032 997 933 997 999 982 956 913 932 946 990 1030 930 990 961 949 987 975 941 1032 962 947 971 950 937 956 1007 1006 1004 996 1028 952 958 971 952 1027 907 923 1030 950 974 955 966 945 1081 1010 996 998 988 990 972 964 933 982 1002 999 971 930 964 955 1000 992 960 960 1028 861 934 986 987 973 962 953 944 963 955 978 943 939 936 915 948 950 992 936 969 989 989 943 871 926 927 965 969 953 913 945 888 959 922 941 973 927 936 1005 934 894 984 953 832 919 955 893 947 904 949 908 923 917 977 926 932 873 906 1008 943 905 934 929 912 889 919 956 965 942 848 883 929 919 977 897 916 870 900 900 917 855 910 925 878 920 910 929 900 912 894 952 867 950 888 937 931 960 851 897 949 888 917 906 907 881 907 943 910 964 907 891 961 940 999 972 901 922 937 1023 889 947 938 961 960 878 853 909 855 892 931 901 929 897 919 930 909 849 900 871 878 932 1036 930 879 884 898 939 884 900 959 890 905 866 934 909 926 891 887 867 928 890 921 882 875 935 853 912 867 882 898 922 931 927 898 932 918 879 879 906 889 910 945 901 950 856 874 910 873 920 901 863 960 822 903 843 899 875 935 884 859 891 882 954 915 869 896 901 927 911 890 916 865 943 888 869 842 867 970 916 915 889 869 846 868 883 929 969 903 836 858 895 927 866 894 933 909 930 940 907 909 943 916 872 895 936 869 932 924 920 931 892 967 929 917 923 935 978 1004 991 980 936 991 981 1030 1046 1006 1038 1004 1005 1046 1066 1067 1007 1040 990 1088 997 1000 1002 1039 1012 913 988 982 1008 923 964 965 997 936 1011 947 934 962 922 942 897 952 915 940 883 920 970 943 893 900 956 897 927 931 899 900 857 884 863 887 898 788 922 932 964 896 856 871 966 898 866 862 838 877 904 874 856 925 910 867 871 865 888 864 882 883 918 897 924 794 850 807 891 879 891 867 892 907 830 881 852 794 817 863 837 824 887 863 817 876 877 880 862 887 862 813 871 830 857 879 841 916 884 887 830 857 879 824 874 844 817 883 829 811 844 862 823 851 930 869 876 882 888 843 865 921 867 816 845 873 875 923 822 908 870 885 814 835 880 860 894 873 865 844 855 851 853 893 877 906 894 867 916 869 861 905 915 889 867 874 890 873 853 886 923 882 888 896 874 877 916 899 874 879 930 921 866 890 858 884 922 861 851 911 862 826 882 872 926 849 836 854 854 862 856 869 882 902 861 878 899 833 851 886 866 926 847 891 857 851 845 879 865 865 897 862 899 870 957 845 916 908 904 882 907 859 865 891 841 861 863 873 858 857 817 860 887 845 871 885 842 806 871 880 856 788 906 865 832 835 844 812 863 900 850 855 874 864 832 861 865 872 872 872 850 820 860 829 805 921 839 863 839 844 836 870 843 844 864 874 880 890 877 923 813 831 859 877 841 885 822 850 860 894 916 874 850 868 873 819 846 861 845 891 843 859 868 850 833 827 911 884 865 868 891 889 872 867 859 922 827 838 822 833 857 810 830 775 848 887 882 807 852 859 877 859 867 803 839 873 804 884 854 837 856 858 885 899 906 780 895 829 832 842 830 880 847 811 865 845 811 771 813 811 848 909 811 788 846 813 887 778 838 846 906 860 894 863 828 867 871 892 827 932 872 868 927 922 961 887 920 896 903 969 921 929 911 920 959 979 947 971 982 1005 966 972 988 1015 1015 914 998 976 1013 976 958 902 964 940 917 876 906 943 916 936 895 887 837 911 915 852 862 859 902 867 795 877 826 905 819 861 830 866 894 828 873 886 885 836 945 886 863 857 829 907 875 852 874 842 853 895 854 859 819 874 802 830 861 770 848 795 831 807 801 811 808 812 835 848 820 823 815 825 831 751 791 822 784 812 800 830 793 850 837 784 819 812 815 790 862 884 824 821 793 797 892 816 785 809 802 815 775 823 871 872 809 877 853 786 851 809 786 767 782 843 822 816 800 817 822 788 842 839 866 803 762 804 808 802 782 788 843 778 832 815 803 871 815 765 769 783 800 823 820 809 765 823 791 804 809 788 816 805 784 829 808 798 802 786 792 838 818 860 792 863 818 796 785 813 822 766 814 786 775 817 846 770 793 806 775 817 812 776 835 798 745 848 817 854 836 802 791 843 816 781 848 743 828 758 786 782 823 783 837 734 784 823 791 771 805 812 760 754 836 701 851 771 789 809 801 786 771 865 793 786 789 821 808 795 830 804 832 820 812 823 824 787 779 832 863 826 810 813 838 807 800 832 816 813 826 860 833 863 792 832 770 815 847 895 824 797 832 861 791 854 770 778 805 754 857 828 751 831 807 865 794 788 890 787 752 747 790 798 808 728 811 827 827 798 861 783 829 875 835 864 850 856 817 872 909 854 917 826 933 940 914 928 890 884 946 934 878 946 908 938 922 900 892 930 928 948 870 858 891 851 881 817 878 856 895 912 851 872 895 826 868 868 816 932 792 909 874 881 808 844 845 845 844 863 809 857 784 897 887 870 853 841 845 886 870 911 945 1006 959 1016 1057 1045 1103 1079 1134 1139 1251 1302 1384 1308 1432 1462 1479 1532 1570 1585 1513 1516 1579 1577 1594 1508 1608 1589 1551 1605 1666 1568 1610 1551 1599 1531 1538 1499 1513 1445 1364 1352 1412 1309 1242 1196 1176 1246 1258 1267 1179 1122 1173 1112 1087 1102 1059 1085 1086 1059 1017 1068 1080 1002 1023 1021 1013 1037 979 973 979 1008 999 976 1042 969 970 968 985 1037 977 974 1007 962 988 929 908 971 926 895 884 864 805 931 863 918 786 820 874 857 820 799 869 851 846 844 877 852 761 812 793 758 819 767 836 791 830 846 795 783 750 805 768 737 817 807 825 865 823 813 746 723 796 781 770 778 808 776 834 774 799 759 826 712 750 813 791 867 787 778 752 774 816 802 834 723 779 787 810 815 774 765 796 792 808 805 771 817 780 760 829 803 750 759 803 776 793 758 762 781 777 765 761 801 813 742 725 780 775 753 740 749 798 776 724 730 718 780 815 718 821 739 728 770 759 783 737 718 764 755 743 726 748 745 794 838 804 867 791 749 791 720 780 806 819 750 767 771 783 790 797 790 859 823 803 812 856 836 853 810 831 789 834 874 856 844 816 827 853 877 936 859 833 931 906 798 843 846 819 819 909 859 874 812 796 854 856 830 816 781 818 777 777 804 768 801 789 790 831 831 784 781 846 771 829 801 732 757 771 752 759 757 748 806 785 785 754 818 752 757 808 789 728 743 780 773 759 761 767 816 804 815 811 803 770 776 751 739 766 764 761 836 785 753 718 826 727 803 748 759 775 784 777 804 779 768 738 797 747 775 728 777 737 749 747 772 726 749 726 754 756 805 784 791 765 758 801 706 759 767 752 763 779 759 742 788 729 776 799 745 754 722 721 761 725 762 767 747 726 757 732 761 776 750 733 775 771 764 804 788 771 759 727 797 744 785 774 776 730 804 762 738 769 756 750 778 742 801 789 758 739 739 755 738 707 756 753 772 771 777 719 733 715 714 775 744 786 744 738 735 746 747 728 758 747 728 736 754 766 771 780 738 764 721 715 754 736 716 730 704 710 712 784 709 744 752 691 727 762 731 714 768 746 736 728 742 646 738 743 714 731 661 699 748 701 745 727 768 742 793 740 749 752 712 681 735 678 738 684 794 698 747 750 695 748 705 729 707 719 766 746 769 714 733 713 719 739 801 728 745 711 701 692 762 706 739 723 698 719 747 758 692 725 690 739 706 687 729 732 709 681 732 719 711 722 716 721 755 767 768 684 716 747 658 730 754 765 704 752 711 722 761 752 736 679 731 679 698 737 714 726 738 703 707 743 686 753 701 704 677 685 743 636 726 695 712 701 726 727 755 670 720 687 718 682 686 701 740 737 742 700 740 687 737 707 751 705 714 711 698 685 757 670 749 720 703 701 682 665 678 693 704 750 710 676 683 733 679 729 701 712 738 727 669 689 760 707 712 728 707 738 719 686 688 687 681 769 736 765 727 686 712 679 717 708 687 686 689 691 721 716 688 763 735 725 703 732 685 666 721 693 743 703 709 735 707 703 770 726 685 724 676 679 720 672 704 699 689 763 670 723 676 700 679 707 705 691 704 673 696 724 676 711 678 696 739 654 748 737 702 728 768 712 749 753 728 716 639 690 722 690 726 753 698 671 691 677 734 696 707 662 733 724 680 677 713 691 732 700 739 698 654 696 706 718 697 648 721 729 662 731 660 683 674 667 708 700 706 722 728 744 663 710 705 697 676 697 716 650 691 718 693 655 682 650 691 709 724 665 683 674 746 710 666 702 708 689 701 682 694 696 689 718 692 696 717 701 739 730 725 720 714 679 711 717 645 726 650 728 690 689 698 718 716 688 719 710 783 722 779 698 767 709 699 689 701 751 668 720 716 768 719 743 718 710 772 728 691 737 666 735 740 710 709 654 668 712 675 686 679 711 751 685 690 704 724 692 699 710 723 715 717 706 723 686 710 717 754 696 708 734 742 725 777 769 756 787 763 779 726 717 731 746 711 770 721 760 700 780 774 830 796 763 765 777 769 750 793 740 781 799 775 743 790 769 791 792 769 810 769 729 838 784 793 801 804 745 777 742 808 782 705 756 745 730 778 755 757 678 760 781 748 741 701 748 782 798 793 768 694 772 780 727 765 748 676 708 750 770 722 731 756 710 705 755 722 733 733 713 711 710 704 747 707 727 726 691 692 712 700 691 704 697 710 684 743 703 739 684 720 740 680 709 721 711 721 735 742 693 734 775 713 770 707 710 711 701 699 714 739 718 698 722 733 680 699 729 726 713 694 721 748 719 710 744 677 730 659 715 638 716 682 693 710 658 652 683 661 698 692 636 671 683 699 704 647 728 680 679 720 731 758 656 653 667 701 706 696 701 664 651 625 654 715 695 679 728 660 670 665 719 700 732 661 655 644 717 660 690 683 686 668 673 671 693 675 694 722 678 721 735 687 666 658 703 664 699 721 707 695 670 643 714 635 671 658 683 671 668 699 713 682 644 715 675 677 706 676 700 634 694 717 683 655 701 735 655 700 689 704 633 685 696 705 692 717 696 718 720 686 715 732 739 697 722 713 763 725 756 781 797 769 727 789 712 825 773 728 844 773 838 780 834 839 849 828 820 871 866 931 834 885 842 843 819 871 874 893 874 812 837 797 845 879 819 839 783 790 844 854 841 830 787 765 751 818 737 769 780 769 768 795 757 796 767 765 797 790 715 767 799 720 766 686 776 757 766 743 759 728 688 708 748 744 704 707 713 670 733 691 703 749 715 714 728 692 680 699 755 706 705 709 613 709 684 721 705 718 674 726 733 677 696 669 680 712 674 699 702 689 664 682 700 664 689 649 671 665 660 675 697 627 686 679 649 667 618 678 670 696 601 627 666 674 647 648 666 648 696 657 685 648 652 672 685 637 721 643 637 647 654 654 660 657 695 698 640 632 688 685 664 693 674 698 651 714 645 705 646 644 667 676 659 707 683 642 692 608 680 678 675 644 689 672 686 648 662 645 638 704 675 630 701 687 745 619 687 666 674 674 694 715 702 687 706 700 745 709 718 707 708 734 743 727 725 718 722 708 739 724 688 764 693 716 712 680 734 660 710 691 743 671 663 740 666 644 657 665 753 685 668 717 677 738 709 732 666 669 649 669 666 661 653 690 747 685 634 661 666 678 688 660 681 651 673 628 650 689 660 678 658 665 658 643 698 684 622 661 652 650 652 637 643 667 666 658 669 628 656 680 642 677 665 623 684 634 663 644 665 656 658 651 637 659 676 689 609 643 614 663 677 641 627 616 636 632 615 650 625 641 646 672 685 592 663 653 644 606 662 644 609 623 662 665 663 680 669 662 626 653 675 628 652 699 682 676 646 627 651 638 684 723 669 655 634 654 708 643 636 689 620 651 725 672 697 664 636 648 663 706 644 642 632 679 659 662 647 673 631 666 640 623 653 609 675 639 670 645 677 647 665 636 633 635 659 694 604 635 627 639 614 605 632 668 646 640 675 660 636 637 659 658 650 629 633 653 646 637 678 605 676 639 677 661 626 671 639 651 627 640 625 664 684 666 638 666 647 596 650 663 630 630 633 608 628 638 638 623 651 650 610 700 638 631 624 682 640 640 647 642 626 609 638 604 624 641 642 600 659 681 612 661 647 641 652 655 644 576 638 636 637 634 609 680 621 649 631 628 605 656 597 660 673 663 587 631 649 693 624 649 641 681 607 672 664 647 701 574 593 654 707 607 632 664 603 644 629 619 608 625 658 662 650 606 665 602 617 657 636 617 626 690 629 638 617 646 634 663 599 676 653 666 650 675 631 640 626 634 642 659 656 638 627 667 669 661 636 652 674 660 641 671 622 651 608 633 601 596 646 624 638 644 638 640 607 627 687 588 659 686 669 682 644 650 640 659 601 613 687 622 640 603 627 645 599 637 631 661 602 654 634 632 610 662 656 657 629 668 650 651 610 615 624 682 682 654 610 626 672 663 611 625 647 630 651 610 654 680 545 626 649 612 632 620 681 634 644 657 639 651 654 630 615 636 639 654 650 630 621 639 633 647 620 617 646 612 614 679 606 629 634 618 589 657 670 579 673 596 622 595 666 639 661 627 656 664 585 612 620 622 617 574 655 589 643 635 645 599 628 580 632 598 646 593 643 648 629 619 655 658 628 615 654 678 631 623 617 710 644 661 635 631 623 692 636 662 641 683 633 693 662 679 649 671 633 619 666 665 658 660 654 651 661 700 658 676 656 648 646 639 695 703 674 677 631 661 615 688 642 632 619 680 641 662 659 637 662 625 664 602 655 605 627 628 616 670 613 631 607 580 574 649 650 653 631 701 632 633 657 633 696 640 686 651 635 575 646 669 612 621 630 618 621 655 651 655 616 634 640 636 623 636 606 598 639 653 608 600 623 636 643 665 615 660 647 563 634 606 641 583 605 653 613 641 607 633 637 641 633 641 644 617 617 586 613 607 639 614 661 661 705 602 650 624 641 629 599 623 656 609 635 650 618 645 619 645 624 654 618 631 654 644 641 606 621 631 623 647 599 634 638 605 605 620 668 623 613 613 628 646 623 568 644 619 587 654 611 616 595 606 588 614 631 611 625 647 662 623 686 635 673 608 665 600 605 636 579 623 625 597 605 651 619 626 643 627 697 676 640 627 677 629 638 647 618 646 630 579 644 626 636 634 649 637 623 636 600 654 645 594 650 661 660 590 582 664 683 598 627 640 644 623 653 606 656 594 667 681 627 576 578 630 612 631 630 561 616 626 661 606 610 634 635 667 639 613 633 645 585 642 673 605 649 600 603 664 680 686 677 651 629 642 656 638 646 596 623 638 651 656 623 644 698 646 655 652 648 656 674 708 672 649 712 699 717 644 672 649 692 657 678 683 691 694 687 688 690 667 653 695 666 712 712 679 697 655 653 714 712 700 698 709 654 711 646 669 636 655 663 673 686 678 674 706 603 654 650 640 654 637 666 640 615 682 646 688 682 624 650 709 649 638 660 647 615 656 675 672 638 695 663 612 632 634 677 637 629 685 555 638 647 597 668 657 627 651 634 607 614 587 625 615 627 650 619 631 609 642 634 654 614 630 626 596 634 617 633 603 672 664 607 619 643 623 629 663 660 668 609 627 590 642 618 645 628 581 599 632 624 636 661 621 637 648 612 647 619 662 611 604 610 609 559 638 609 651 693 650 635 658 601 642 595 630 647 624 649 640 621 633 637 649 630 609 627 642 633 602 632 656 599 629 594 634 599 686 610 653 591 663 613 655 643 670 629 629 669 618 645 616 628 636 653 623 623 654 628 643 650 647 654 634 619 618 668 633 615 668 643 630 626 657 648 634 696 606 641 666 641 639 598 699 602 644 611 638 640 642 654 627 611 620 653 601 600 645 624 652 624 630 607 584 646 612 581 620 624 588 671 588 621 598 626 642 594 617 613 633 660 612 605 632 625 659 621 655 600 684 653 596 663 673 637 643 590 604 627 648 617 600 588 619 590 607 611 609 621 564 564 590 637 627 622 628 649 628 611 632 640 630 629 635 623 628 583 625 598 586 648 614 601 641 578 623 623 633 605 571 641 643 520 593 589 603 664 607 654 626 668 620 650 604 600 638 633 622 600 607 620 674 647 636 598 644 662 654 646 611 609 615 612 603 567 619 644 611 626 632 673 573 610 616 656 641 637 631 647 677 599 703 612 669 631 602 635 587 587 620 634 617 629 627 651 631 626 629 614 635 610 607 644 628 639 619 607 587 653 602 646 626 609 628 691 628 651 622 616 611 667 610 626 654 614 645 612 622 622 647 670 614 690 659 559 619 623 630 593 648 603 642 652 617 672 671 702 599 610 604 623 636 676 662 587 637 604 610 651 608 650 662 573 626 671 610 668 630 655 666 632 580 625 623 644 684 601 652 606 651 650 671 665 631 622 600 637 624 633 608 623 620 687 638 627 653 636 615 633 649 601 659 623 664 664 596 637 616 683 607 619 643 631 620 638 627 649 646 571 653 643 659 630 614 606 587 619 620 590 649 623 655 593 659 648 609 632 581 621 640 706 655 603 601 605 632 638 659 618 626 634 651 636 626 655 609 662 592 648 656 662 677 655 629 678 661 632 587 612 681 700 631 590 644 641 643 627 583 624 606 658 656 628 604 649 615 625 640 628 643 650 654 573 586 540 649 608 649 601 608 669 665 670 648 627 655 664 708 603 629 643 638 641 625 601 634 670 687 650 632 609 597 626 657 600 627 642 650 685 629 643 652 606 596 643 677 585 661 611 683 624 624 568 612 587 643 624 699 586 641 640 632 648 644 670 653 653 639 651 653 635 644 639 617 703 636 657 664 648 629 647 632 659 660 654 659 647 625 667 655 614 681 665 693 668 681 648 655 715 670 674 676 630 706 658 673 637 685 639 690 662 661 665 649 662 710 696 691 682 665 683 679 688 662 672 689 701 694 662 656 678 670 637 648 692 628 688 683 712 687 706 652 593 683 659 646 652 697 668 628 672 651 614 621 640 648 607 659 632 694 679 689 636 695 651 666 663 669 641 645 680 648 644 635 616 673 668 620 662 635 679 641 632 684 592 686 616 662 678 669 676 637 655 646 700 617 634 645 609 673 647 687 634 608 672 612 625 617 630 637 680 609 658 686 640 640 694 680 674 654 706 679 677 619 682 661 687 635 654 655 671 662 595 602 643 652 633 629 667 668 690 633 667 633 684 649 683 604 642 642 627 679 609 660 660 667 646 644 626 666 626 687 646 615 604 672 636 617 681 639 670 629 641 648 669 635 655 635 736 677 626 669 693 661 654 666 596 656 666 665 641 638 661 637 653 675 651 667 650 691 661 680 686 629 642 650 689 640 596 662 671 666 628 674 677 654 681 686 655 672 609 645 668 630 601 684 673 634 651 625 624 649 632 662 597 594 686 652 679 733 657 606 635 652 640 646 652 688 661 660 635 681 653 643 616 685 720 625 662 607 661 675 692 644 686 712 658 694 662 664 696 655 741 685 721 739 679 791 696 714 689 761 740 723 701 678 736 728 732 728 746 745 728 703 711 797 703 677 736 740 740 775 720 737 749 730 735 715 725 741 779 760 719 710 724 724 728 678 696 724 725 699 650 701 679 752 719 718 699 686 698 667 684 639 703 717 688 684 670 640 676 617 639 712 629 718 659 651 550 621 646 649 624 690 678 639 675 680 633 618 685 631 613 596 643 681 682 651 640 627 633 644 676 671 653 622 690 612 648 634 649 655 638 619 643 645 625 610 601 639 655 632 618 597 593 675 599 658 681 692 677 612 677 622 644 672 635 611 624 612 631 626 625 654 610 643 628 639 670 624 622 679 618 650 630 624 662 631 618 611 669 612 652 637 637 609 644 598 673 628 677 629 634 638 648 616 685 594 638 684 654 674 665 641 676 634 665 641 647 684 641 640 612 606 636 633 560 637 635 725 661 632 646 665 632 689 591 625 627 620 631 651 625 654 613 629 690 635 687 643 624 648 618 603 608 609 653 618 625 666 632 677 655 646 664 614 607 641 627 622 608 625 674 612 666 645 636 597 667 626 623 644 595 657 635 651 596 677 653 576 620 635 647 656 643 632 634 652 608 621 652 639 640 640 649 657 674 653 660 618 627 603 622 590 596 588 607 607 640 662 622 633 622 586 600 644 627 631 600 626 603 584 639 628 589 694 619 616 645 561 650 623 600 608 586 626 612 606 587 668 617 635 604 568 639 641 554 629 617 636 584 590 594 646 642 618 642 568 633 646 701 602 625 640 622 634 615 618 690 634 631 624 643 588 621 591 573 646 640 632 613 621 581 607 617 597 607 678 616 583 574 569 606 655 633 656 622 646 618 616 614 622 638 578 600 628 587 600 623 573 640 610 611 623 597 627 635 617 609 614 571 623 586 640 608 597 581 607 625 584 616 581 591 583 596 613 608 628 611 586 593 601 631 679 583 571 613 624 609 624 638 593 624 595 603 647 654 621 613 619 595 553 592 649 630 617 637 627 637 643 619 632 659 643 641 615 585 594 584 640 641 608 620 605 622 696 569 641 598 584 648 576 553 567 627 623 582 625 650 653 577 618 628 590 643 619 623 574 589 600 591 567 583 591 609 620 614 622 622 574 637 595 675 641 588 631 609 628 602 672 568 581 624 607 603 618 548 616 668 640 586 605 567 599 604 635 583 613 643 565 596 618 609 634 574 593 568 571 611 555 632 587 597 638 638 612 607 602 601 617 618 613 622 583 594 623 615 587 621 583 611 598 604 634 656 600 624 631 588 563 675 622 597 621 598 577 613 592 589 615 613 548 607 601 604 621 577 608 645 576 597 591 580 603 589 564 615 591 592 633 555 671 612 681 607 619 570 590 612 613 614 621 627 615 611 583 595 584 618 605 578 615 618 624 641 627 594 603 622 614 611 602 541 641 624 606 595 606 598 593 596 583 618 599 608 564 681 598 638 600 638 632 628 591 665 596 621 646 657 570 607 621 607 603 561 618 637 600 602 638 625 611 634 622 650 558 584 585 592 622 588 652 660 627 628 598 620 665 636 647 644 618 590 626 635 628 607 585 609 573 662 567 630 624 677 616 615 573 625 617 668 585 683 572 640 617 563 561 647 641 639 547 600 642 639 623 642 638 567 603 643 574 631 621 609 635 639 641 595 602 628 548 628 627 631 629 638 582 636 644 600 558 651 645 568 582 573 610 561 641 633 645 585 595 602 613 618 625 588 625 621 637 611 602 575 613 602 636 622 597 663 617 617 644 612 615 620 638 629 628 635 614 601 607 579 621 595 601 602 626 622 620 629 590 646 565 591 579 637 632 564 607 581 604 630 597 634 586 607 588 630 612 593 588 600 595 626 628 590 601 613 614 609 631 656 593 618 607 619 624 611 652 626 615 576 597 656 602 589 631 573 675 595 630 633 652 577 642 571 599 597 634 615 596 636 580 580 585 627 602 634 597 596 576 598 590 625 640 605 641 605 614 595 583 575 613 588 582 614 618 607 626 578 549 598 606 632 590 633 601 627 590 591 613 614 616 632 631 667 625 661 598 645 643 641 628 637 606 602 636 610 629 683 627 661 647 637 714 641 695 666 671 679 656 672 658 710 660 658 690 665 702 660 670 707 663 707 674 715 667 645 668 683 715 684 711 680 689 733 685 648 663 688 680 678 735 697 633 648 608 709 698 723 668 652 619 659 648 610 665 634 688 607 642 676 625 669 636 630 675 632 673 689 630 645 641 644 646 696 594 608 650 626 651 665 619 669 621 671 663 635 608 657 678 621 617 668 597 626 672 620 683 624 578 630 619 623 641 622 616 606 614 587 610 623 642 634 628 626 591 568 660 599 683 582 585 624 576 579 647 591 592 641 646 624 604 614 639 569 643 613 630 613 583 642 613 580 639 581 639 612 625 595 629 617 628 553 648 586 629 576 599 592 590 555 591 568 601 570 627 569 588 610 627 676 615 636 616 635 632 604 632 596 636 661 576 636 672 555 613 634 606 623 657 637 591 566 635 620 592 638 611 667 621 647 616 590 664 608 632 641 588 621 616 621 595 613 594 637 638 606 602 594 603 610 616 614 616 630 637 590 643 600 643 640 617 638 630 605 631 584 646 644 643 599 577 599 570 643 636 599 575 603 579 600 585 553 649 587 600 601 577 618 591 595 597 607 630 594 616 585 613 633 587 585 601 602 572 597 577 605 624 586 561 577 588 658 601 590 576 651 607 570 635 559 600 607 599 558 595 608 586 608 664 610 624 589 620 604 623 621 621 545 597 635 618 627 578 572 592 611 576 616 584 603 622 618 608 602 583 587 571 625 614 564 591 617 613 594 600 630 653 639 576 610 614 678 606 645 627 613 626 600 609 601 591 599 604 647 662 604 591 578 590 635 629 592 564 568 564 579 584 610 583 602 588 612 606 643 623 563 609 600 590 570 619 595 623 633 600 587 625 588 628 597 620 582 552 601 585 595 591 568 602 595 617 602 628 596 574 615 579 597 542 596 573 623 597 592 597 593 575 581 598 585 617 617 589 636 625 568 591 603 582 563 587 595 609 604 601 592 605 642 617 606 585 588 598 574 605 628 568 604 583 597 559 620 592 616 612 581 620 614 602 602 613 600 604 655 615 587 583 597 583 619 627 609 606 632 606 564 628 614 630 636 556 596 629 632 558 595 621 583 624 634 603 644 575 660 604 596 643 590 626 626 595 623 609 643 601 594 667 554 559 601 589 580 581 591 522 557 683 567 619 595 593 559 595 584 570 616 587 619 632 536 554 585 585 608 609 581 632 613 625 547 619 596 624 608 609 595 595 619 583 598 633 608 630 615 606 622 633 573 586 606 597 590 627 608 621 583 602 608 620 614 585 573 617 599 574 583 587 582 553 577 604 625 622 573 599 564 565 521 612 606 599 613 615 607 581 642 572 621 635 593 599 604 640 575 634 626 639 610 617 604 614 628 632 631 608 596 629 592 590 614 643 578 612 599 607 627 604 632 624 640 648 594 600 636 597 581 562 645 626 585 654 605 607 565 579 663 601 607 635 664 599 637 623 603 611</counts>
			</dataPoints>
		</scan>
	</xrdMeasurement>
</xrdMeasurements>
