<?xml version="1.0"?>
<xrdMeasurements xmlns="http://www.xrdml.com/XRDMeasurement/2.3" xmlns:xsi="http://www.w3.org/2001/XMLSchema-instance" xsi:schemaLocation="http://www.xrdml.com/XRDMeasurement/2.3 http://www.xrdml.com/XRDMeasurement/2.3/XRDMeasurement.xsd" status="Completed" recordIdentifier="{25475D48-4F10-4C5C-BB97-1AE673AE9DAA}">
	<comment>
		<entry/>
	</comment>
	<sample type="To be analyzed">
		<id>GPSS_Li1p7Fe0p1Mg0p3Mn0p6V0p1Cl4_122125_69474145f4d05ae3d697aee9</id>
		<name></name>
		<preparedBy></preparedBy>
	</sample>
	<xrdMeasurement measurementType="Scan" status="Completed" sampleMode="Reflection">
		<usedWavelength intended="K-Alpha 1">
			<kAlpha1 unit="Angstrom">1.5405980</kAlpha1>
			<kAlpha2 unit="Angstrom">1.5444260</kAlpha2>
			<kBeta unit="Angstrom">1.3922500</kBeta>
			<ratioKAlpha2KAlpha1>0.5000</ratioKAlpha2KAlpha1>
		</usedWavelength>
		<incidentBeamPath>
			<radius unit="mm">145.00</radius>
			<xRayTube id="1010048" name="Empyrean Cu LFF HR (9430 033 7310x)">
				<tension unit="kV">40.0</tension>
				<current unit="mA">15.0</current>
				<anodeMaterial>Cu</anodeMaterial>
				<focus type="Line">
					<length unit="mm">12.0</length>
					<width unit="mm">0.4</width>
					<takeOffAngle unit="deg">6.0</takeOffAngle>
				</focus>
			</xRayTube>
			<sollerSlit id="21010002" name="Soller slits 0.04 rad.">
				<opening unit="rad">0.0400</opening>
			</sollerSlit>
			<mask id="22031000" name="Fixed mask 13 mm">
				<width unit="mm">9.00</width>
			</mask>
			<divergenceSlit id="22120001" name="Divergence slit 1°" xsi:type="fixedDivergenceSlitType">
				<distanceToSample unit="mm">50.00</distanceToSample>
				<height unit="mm">1.52</height>
			</divergenceSlit>
		</incidentBeamPath>
		<sampleMovement xsi:type="spinningSampleMovementType">
			<spinnerRevolutionTime unit="seconds">1.0</spinnerRevolutionTime>
		</sampleMovement>
		<diffractedBeamPath>
			<radius unit="mm">145.00</radius>
			<antiScatterSlit id="22090040" name="AS slit 9 mm (PIXcel)" xsi:type="fixedAntiScatterSlitType">
				<height unit="mm">9.00</height>
			</antiScatterSlit>
			<sollerSlit id="21020003" name="Large Soller slits 0.04 rad.">
				<opening unit="rad">0.0400</opening>
			</sollerSlit>
			<filter id="20030001" name="Large beta-filter Nickel">
				<material>Ni</material>
				<thickness unit="mm">0.020</thickness>
			</filter>
			<detector id="7010019" name="PIXcel1D-Medipix3 detector" xsi:type="rtmsDetectorType">
				<phd unit="keV">
					<lowerLevel>4.02</lowerLevel>
					<upperLevel>11.27</upperLevel>
				</phd>
				<mode>Scanning</mode>
				<activeLength unit="deg">5.542</activeLength>
			</detector>
		</diffractedBeamPath>
		<scan appendNumber="0" mode="Continuous" scanAxis="Gonio" status="Completed">
			<header>
				<startTimeStamp>2025-12-22T14:22:51-08:00</startTimeStamp>
				<endTimeStamp>2025-12-22T14:30:58-08:00</endTimeStamp>
				<author>
					<name>AutomatedUser</name>
				</author>
				<source>
					<applicationSoftware version="1.7b (136)">PANalytical Aeris Instrument Suite</applicationSoftware>
					<instrumentControlSoftware version="3.2.00000000 20240306">AERIS</instrumentControlSoftware>
					<instrumentID>950485</instrumentID>
				</source>
			</header>
			<dataPoints>
				<positions axis="2Theta" unit="deg">
					<startPosition>10.00943322</startPosition>
					<endPosition>99.99442286</endPosition>
				</positions>
				<positions axis="Omega" unit="deg">
					<startPosition>5.00471661</startPosition>
					<endPosition>49.99721143</endPosition>
				</positions>
				<commonCountingTime unit="seconds">12.495</commonCountingTime>
				<counts unit="counts">2697 2693 2769 2714 2754 2814 2749 2817 2670 2757 2797 2764 2793 2648 2729 2692 2840 2786 2745 2828 2649 2782 2717 2724 2781 2724 2754 2721 2723 2740 2741 2671 2685 2667 2746 2728 2733 2807 2815 2720 2696 2783 2783 2792 2719 2777 2715 2833 2760 2768 2670 2810 2764 2729 2862 2769 2725 2807 2667 2815 2752 2713 2791 2700 2769 2826 2816 2748 2704 2807 2791 2783 2817 2756 2817 2744 2688 2740 2768 2748 2713 2754 2763 2870 2782 2804 2808 2757 2803 2860 2825 2736 2808 2830 2791 2818 2810 2876 2779 2837 2907 2821 2804 2900 2741 2889 2751 2825 2735 2858 2815 2692 2857 2794 2776 2763 2817 2872 2881 2852 2735 2871 2760 2827 2779 2765 2834 2813 2811 2947 2899 2863 2880 2896 2930 2853 2828 2880 2874 2777 2791 2690 2830 2923 2903 2870 2854 2803 2826 2778 2861 2730 2786 2811 2855 2898 2852 2882 2787 2804 2786 2893 2830 2825 2848 2770 2841 2746 2839 2800 2902 2779 2892 2869 2847 2815 2871 2801 2870 2854 2882 2850 2827 2864 2782 2922 2818 2858 2787 2864 2811 2805 2921 2804 2903 2881 2834 2759 2816 2875 2894 2815 2882 2794 2762 2832 2800 2787 2894 2779 2800 2807 2726 2772 2751 2800 2821 2809 2780 2873 2777 2775 2763 2737 2801 2690 2835 2786 2755 2831 2760 2795 2673 2753 2804 2729 2723 2788 2664 2712 2664 2729 2650 2719 2754 2752 2740 2768 2741 2767 2678 2678 2665 2712 2817 2750 2654 2699 2730 2731 2750 2749 2633 2697 2654 2709 2672 2717 2738 2704 2771 2769 2738 2753 2671 2822 2696 2706 2705 2789 2736 2704 2698 2683 2762 2736 2704 2711 2752 2768 2744 2743 2758 2777 2778 2613 2726 2794 2770 2810 2709 2753 2742 2742 2759 2699 2807 2806 2791 2753 2711 2808 2767 2880 2819 2744 2815 2819 2797 2769 2767 2835 2871 2862 2801 2736 2744 2845 2768 2853 2833 2848 2862 2792 2820 2814 2904 2819 2904 2815 2859 2894 2841 2835 2859 2917 2876 2873 2927 2916 2886 2807 2930 2886 2894 2951 2960 2903 2840 3045 2990 2985 2919 3021 2935 2971 3016 2981 3056 3004 3063 3036 3052 3022 3107 3082 3087 3087 2986 3021 3051 3150 2886 3041 3119 3058 3051 3057 3066 3171 3018 3074 3166 3176 3119 3071 3110 3180 3033 3112 3064 3197 3118 3138 3143 3176 3207 3130 3147 3092 3160 3314 3167 3206 3297 3308 3224 3267 3253 3327 3302 3314 3463 3401 3329 3499 3293 3458 3399 3398 3462 3485 3391 3348 3585 3553 3430 3488 3487 3558 3587 3473 3727 3573 3566 3608 3636 3609 3737 3643 3826 3839 3820 3870 3885 3962 3911 3961 4008 4058 3953 3961 4115 4240 4087 4127 4301 4219 4237 4304 4268 4291 4236 4240 4276 4106 4135 3986 4014 3874 3918 3734 3678 3722 3779 3619 3711 3790 3602 3640 3662 3606 3698 3761 3674 3866 3781 3702 3728 3694 3721 3704 3677 3702 3729 3647 3621 3729 3665 3656 3585 3485 3480 3444 3297 3344 3329 3276 3248 3175 3018 3177 3211 3102 3065 3061 3045 3072 3010 3205 3058 2948 3118 2970 3050 3025 2971 2900 2957 2918 3004 2992 3056 2984 2957 2972 2972 2964 2806 2956 2875 2968 2869 2925 2826 2906 2914 2837 2980 2890 2896 2868 2899 2855 2861 2854 2970 2846 2877 2796 2861 2810 2801 2847 2802 2850 2855 2884 2835 2923 2813 2916 2752 2755 2838 2851 2856 2715 2795 2750 2752 2933 2828 2739 2729 2872 2726 2719 2816 2705 2762 2709 2758 2773 2755 2677 2718 2791 2840 2695 2732 2636 2673 2763 2730 2813 2764 2803 2757 2813 2690 2776 2703 2680 2655 2662 2715 2756 2664 2725 2702 2629 2683 2635 2666 2657 2624 2709 2607 2674 2601 2636 2649 2680 2755 2610 2732 2580 2719 2662 2676 2656 2667 2644 2609 2646 2631 2632 2666 2626 2621 2643 2641 2655 2669 2656 2699 2814 2614 2651 2596 2469 2614 2548 2597 2631 2648 2586 2590 2561 2550 2605 2548 2565 2603 2700 2549 2674 2545 2582 2564 2614 2542 2608 2593 2517 2548 2563 2534 2490 2645 2614 2505 2663 2572 2647 2410 2500 2531 2551 2579 2604 2578 2505 2655 2567 2596 2557 2560 2574 2607 2599 2595 2590 2547 2568 2488 2599 2646 2536 2618 2645 2515 2565 2674 2534 2475 2602 2528 2526 2536 2436 2542 2603 2520 2525 2539 2504 2442 2596 2497 2630 2474 2505 2513 2582 2460 2402 2502 2587 2475 2520 2551 2465 2539 2492 2521 2413 2518 2476 2548 2693 2515 2507 2569 2481 2648 2545 2542 2516 2608 2583 2571 2586 2587 2448 2540 2478 2528 2550 2506 2436 2612 2536 2528 2528 2468 2521 2435 2455 2468 2455 2522 2485 2502 2555 2546 2542 2571 2453 2478 2484 2415 2468 2525 2597 2431 2509 2522 2490 2460 2547 2372 2391 2410 2562 2455 2418 2450 2472 2439 2435 2477 2416 2370 2488 2500 2440 2536 2402 2402 2470 2415 2474 2384 2458 2431 2433 2433 2347 2378 2462 2325 2385 2432 2409 2455 2450 2346 2486 2493 2408 2365 2359 2409 2420 2377 2382 2465 2423 2445 2386 2458 2401 2373 2383 2362 2488 2312 2477 2472 2400 2318 2309 2320 2348 2334 2394 2302 2324 2340 2389 2313 2332 2391 2426 2436 2328 2384 2293 2373 2379 2363 2418 2328 2340 2397 2406 2368 2261 2352 2390 2386 2331 2321 2378 2362 2315 2356 2285 2261 2254 2316 2333 2344 2412 2384 2307 2364 2338 2218 2377 2377 2348 2304 2364 2320 2416 2244 2296 2334 2290 2322 2176 2316 2294 2376 2330 2226 2233 2356 2358 2273 2239 2237 2325 2286 2248 2325 2314 2273 2251 2289 2355 2341 2376 2261 2187 2292 2271 2303 2119 2247 2145 2221 2303 2300 2292 2256 2316 2278 2213 2278 2233 2345 2379 2179 2204 2350 2234 2147 2257 2232 2273 2269 2223 2211 2167 2220 2194 2220 2194 2249 2170 2267 2107 2175 2284 2220 2287 2300 2297 2260 2326 2225 2254 2269 2285 2235 2196 2248 2227 2242 2303 2271 2164 2167 2241 2176 2127 2304 2252 2254 2206 2281 2227 2235 2182 2262 2244 2237 2314 2323 2274 2290 2251 2210 2268 2299 2234 2187 2316 2233 2272 2266 2173 2156 2272 2210 2339 2255 2262 2263 2346 2305 2320 2219 2299 2317 2179 2298 2250 2316 2245 2284 2333 2215 2281 2276 2262 2246 2208 2223 2321 2252 2263 2259 2342 2403 2275 2298 2261 2299 2301 2220 2246 2249 2327 2168 2226 2267 2312 2245 2279 2264 2230 2254 2332 2252 2287 2230 2285 2282 2243 2195 2288 2312 2271 2213 2223 2259 2250 2140 2295 2229 2227 2310 2212 2290 2253 2285 2258 2209 2233 2213 2264 2239 2180 2208 2232 2190 2165 2211 2207 2187 2177 2250 2192 2130 2160 2169 2141 2268 2079 2137 2192 2223 2101 2225 2150 2195 2133 2173 2189 2088 2155 2109 2066 2107 2222 2065 2093 2107 2127 2061 2181 2133 2165 2160 2130 2079 2083 2119 2058 2093 2114 2049 2074 2188 2082 2030 1982 2156 2009 2089 2118 2066 2077 2083 2033 2016 2009 2067 2027 2025 2062 2004 2047 1879 2029 1973 2055 1932 2039 1923 2008 1939 1975 1907 1973 1939 1901 1901 1890 1910 1950 1867 1868 1832 1829 1928 1908 1951 1891 1899 1890 1949 1927 1900 1870 1844 1906 1896 1883 1889 1932 1915 1881 1916 1803 1898 1815 1838 1887 1844 1837 1846 1847 1805 1789 1826 1802 1818 1846 1833 1949 1819 1800 1805 1690 1805 1658 1770 1739 1792 1797 1785 1745 1769 1796 1747 1760 1726 1735 1804 1768 1788 1711 1723 1740 1765 1777 1790 1748 1767 1732 1691 1806 1809 1720 1732 1700 1713 1665 1716 1797 1691 1671 1659 1670 1715 1664 1697 1649 1699 1711 1681 1672 1723 1642 1668 1734 1689 1617 1643 1702 1715 1708 1693 1685 1613 1744 1656 1709 1694 1671 1589 1656 1657 1631 1568 1650 1574 1594 1714 1712 1653 1605 1508 1636 1666 1648 1741 1612 1610 1531 1636 1669 1668 1613 1659 1666 1598 1634 1605 1674 1635 1648 1641 1681 1669 1726 1671 1690 1587 1627 1669 1603 1674 1599 1669 1593 1749 1621 1658 1607 1581 1648 1598 1540 1706 1620 1661 1597 1616 1658 1583 1605 1632 1587 1670 1564 1584 1595 1616 1656 1592 1649 1634 1583 1706 1629 1615 1604 1633 1617 1565 1632 1630 1611 1624 1623 1642 1548 1618 1654 1668 1661 1545 1640 1649 1648 1698 1706 1615 1669 1665 1666 1539 1698 1625 1585 1630 1557 1634 1679 1715 1608 1693 1639 1632 1695 1663 1625 1600 1637 1599 1721 1643 1680 1646 1606 1700 1701 1656 1648 1687 1634 1591 1612 1639 1620 1644 1633 1635 1596 1581 1642 1643 1638 1617 1719 1689 1661 1649 1639 1694 1723 1654 1609 1660 1566 1690 1616 1672 1704 1688 1750 1625 1663 1641 1597 1657 1662 1659 1627 1698 1664 1733 1638 1670 1607 1590 1619 1571 1701 1634 1716 1650 1608 1671 1677 1649 1646 1693 1639 1685 1665 1639 1610 1627 1693 1620 1565 1601 1538 1591 1633 1586 1635 1633 1654 1632 1633 1598 1573 1586 1650 1582 1563 1604 1577 1639 1660 1582 1613 1562 1583 1572 1516 1691 1578 1577 1560 1508 1532 1552 1594 1534 1515 1533 1557 1591 1524 1517 1571 1486 1514 1514 1537 1505 1515 1547 1532 1541 1485 1526 1491 1524 1546 1439 1444 1514 1562 1464 1491 1506 1490 1442 1453 1503 1440 1501 1516 1490 1493 1433 1462 1456 1422 1482 1414 1490 1389 1458 1422 1482 1390 1462 1437 1431 1443 1412 1410 1411 1407 1399 1373 1412 1424 1410 1430 1449 1392 1455 1420 1403 1414 1417 1366 1370 1326 1345 1438 1423 1412 1403 1355 1394 1350 1357 1368 1408 1399 1376 1397 1391 1347 1393 1383 1357 1352 1323 1408 1273 1412 1430 1421 1410 1456 1413 1452 1350 1321 1454 1441 1429 1434 1541 1492 1492 1426 1512 1438 1508 1445 1601 1521 1452 1496 1475 1521 1488 1501 1406 1410 1417 1474 1574 1475 1526 1496 1495 1504 1489 1507 1615 1598 1617 1510 1598 1616 1617 1700 1707 1683 1647 1665 1703 1738 1675 1768 1743 1722 1690 1667 1666 1688 1752 1621 1604 1622 1569 1641 1514 1477 1520 1403 1449 1384 1348 1342 1340 1301 1335 1353 1347 1388 1286 1219 1319 1296 1311 1288 1316 1250 1293 1303 1318 1319 1321 1290 1308 1272 1283 1225 1321 1227 1276 1272 1304 1286 1311 1282 1243 1298 1293 1299 1292 1264 1265 1281 1282 1367 1314 1385 1314 1407 1397 1362 1395 1373 1502 1457 1520 1539 1586 1584 1565 1636 1555 1579 1537 1572 1578 1674 1554 1649 1620 1641 1610 1711 1755 1677 1721 1705 1774 1802 1777 1819 1938 1918 1974 1994 2054 2031 2174 2286 2305 2328 2491 2464 2523 2620 2660 2730 2650 2922 2871 2922 3011 3051 3125 3023 3001 3121 3034 3071 2955 2935 2761 2696 2686 2539 2415 2390 2329 2140 2099 1985 1946 1899 1967 1758 1791 1722 1665 1677 1666 1625 1534 1514 1543 1477 1542 1514 1539 1452 1440 1413 1376 1380 1406 1332 1342 1254 1295 1332 1220 1322 1242 1230 1263 1236 1243 1263 1193 1231 1238 1269 1328 1205 1233 1211 1232 1261 1224 1246 1264 1230 1138 1173 1193 1196 1117 1114 1112 1135 1120 1075 1087 1111 1102 1070 1081 1092 1065 1080 1091 1064 1020 1124 1044 1042 1053 1060 1088 1085 1101 1050 1056 1072 1037 1117 1061 1083 1038 1062 993 990 1032 1051 1014 1074 1042 1060 1062 1056 1062 1132 1008 1019 1063 1060 1006 1013 1005 1067 1043 1010 1071 1081 1031 1032 1053 1014 985 1087 1072 1031 990 1023 995 985 1071 1040 1038 972 1005 955 964 1000 985 1001 1032 1010 978 1016 1003 980 1026 994 1070 1066 1051 1044 1072 961 992 968 942 994 1021 970 970 929 900 1017 1011 958 982 1064 1020 979 967 1007 996 993 975 1024 1010 941 979 991 975 968 933 958 988 1034 996 982 978 1085 880 1005 997 1028 1014 934 893 903 952 961 965 1005 963 1055 961 968 1021 1017 943 1026 1020 966 1008 926 986 996 983 999 945 933 989 946 992 979 993 927 1008 981 923 1007 999 926 1034 1027 976 952 947 973 999 996 943 939 1031 1014 1017 1013 1038 917 923 958 974 929 978 941 1004 959 969 1002 977 902 945 939 990 971 952 938 922 963 963 961 931 939 913 945 965 925 897 955 964 939 956 928 950 974 962 966 928 946 938 904 961 968 970 955 1015 952 973 988 1042 999 1012 998 981 995 1048 946 969 915 1013 967 1005 960 953 954 948 971 950 1022 1005 938 958 966 955 1016 956 996 983 994 962 977 1002 976 933 963 981 987 976 977 1027 1019 989 1038 1002 991 1011 1025 1018 1025 1090 1049 1035 1051 1045 1020 1054 1138 1060 1111 1194 1193 1133 1242 1179 1304 1364 1409 1458 1535 1547 1649 1729 1744 1797 1908 1935 1993 2096 2010 2035 2079 1988 2103 2023 2148 1980 2000 2027 2006 2088 2132 2151 2191 2243 2379 2342 2440 2513 2573 2642 2729 2852 2857 2868 3062 3088 3211 3305 3370 3481 3629 3593 3958 3979 3952 4191 4182 4344 4375 4405 4592 4440 4739 4605 4666 4511 4429 4370 4374 4189 4044 4000 3667 3505 3235 3250 3035 2919 2688 2617 2463 2237 2199 2052 1914 1958 1872 1874 1788 1737 1757 1666 1823 1685 1698 1706 1689 1612 1610 1682 1604 1597 1671 1660 1616 1670 1608 1564 1540 1502 1533 1448 1505 1434 1419 1417 1417 1381 1351 1308 1267 1308 1240 1213 1221 1246 1160 1157 1163 1164 1083 1074 1131 1108 1096 1065 1074 1022 1061 1018 977 1041 1037 985 1067 1010 994 994 983 1037 965 951 968 990 947 1018 1028 990 995 946 950 993 972 956 996 998 931 941 945 1000 969 970 916 907 905 902 921 931 892 855 868 923 898 901 908 930 951 864 933 901 891 856 897 912 964 957 951 926 876 891 917 909 896 840 927 887 895 915 959 908 898 888 893 888 889 883 916 863 902 918 875 913 965 905 897 876 875 872 928 879 891 912 861 866 896 923 904 856 854 912 850 914 857 904 873 892 880 867 894 846 881 913 886 869 916 842 872 891 926 886 927 860 872 850 927 909 887 939 912 917 869 879 902 895 862 830 897 867 833 882 855 860 836 857 859 886 864 855 814 876 856 847 856 891 884 892 904 875 864 831 827 918 862 898 847 876 915 912 889 913 844 838 829 863 941 843 898 828 936 938 884 929 872 882 863 850 812 916 855 860 899 857 896 858 847 862 878 851 884 831 894 859 810 920 906 861 906 930 936 896 902 903 839 853 910 812 872 913 953 876 886 866 893 914 857 879 896 915 901 931 846 890 865 898 858 846 934 827 860 821 893 944 898 901 838 890 877 846 814 857 881 805 866 882 820 846 868 803 824 844 862 842 864 915 879 855 824 886 891 852 819 844 917 790 820 846 872 857 879 834 823 833 837 832 806 819 814 820 831 815 830 785 806 896 838 880 851 834 848 838 820 788 860 808 869 877 781 748 806 793 841 761 826 849 782 868 779 888 786 852 823 798 835 841 751 803 762 843 813 823 792 753 865 851 800 766 806 816 775 813 822 836 795 798 811 802 806 834 775 840 797 865 765 788 758 762 801 808 803 845 813 808 808 800 822 833 828 780 811 818 801 805 779 805 828 791 797 788 769 705 786 802 813 809 824 814 781 813 800 819 774 784 814 778 824 804 791 818 806 762 732 771 747 760 814 804 795 811 790 780 800 793 775 747 778 789 796 775 817 822 771 789 762 798 784 837 809 719 781 827 819 736 776 802 821 779 791 870 748 828 743 818 752 819 832 773 818 820 835 779 779 759 804 769 826 754 785 835 761 747 799 768 748 819 828 733 789 781 785 799 741 773 845 825 795 767 764 816 789 833 774 806 786 789 710 813 816 828 848 798 833 784 798 798 801 795 778 819 810 797 782 741 781 733 806 774 811 817 762 762 818 721 785 737 810 744 737 792 782 831 781 810 774 779 770 799 755 802 773 829 787 806 751 801 778 829 779 736 795 797 837 764 742 766 764 792 796 744 743 792 810 797 815 730 799 808 771 781 768 776 799 764 730 726 807 759 803 746 752 752 811 800 786 722 771 807 797 768 744 735 784 795 748 747 814 740 760 754 771 747 704 813 757 764 719 767 793 789 773 767 782 767 782 761 767 749 798 777 737 786 744 821 769 793 724 724 731 785 764 799 799 767 727 792 826 794 756 776 774 761 776 782 794 737 730 795 720 848 814 769 773 795 792 786 813 795 750 801 762 764 782 763 810 719 779 775 794 762 773 789 791 771 754 726 824 796 794 803 793 782 774 704 835 764 783 808 791 754 758 809 757 734 735 754 765 795 793 757 827 774 746 793 775 781 762 774 801 760 690 780 827 786 720 781 805 684 767 735 848 791 776 778 768 781 757 774 763 767 780 786 776 810 779 750 761 791 739 741 753 743 739 732 793 790 782 780 743 772 755 761 822 734 812 737 763 717 765 752 796 810 781 799 808 752 777 822 737 787 786 749 776 698 787 710 769 772 783 754 767 772 782 764 759 792 815 750 792 759 749 772 807 713 819 766 805 802 731 800 790 758 743 716 795 753 779 756 787 793 791 800 750 808 798 807 784 725 748 763 776 764 757 750 744 761 783 735 817 739 797 744 793 832 759 820 718 778 713 758 765 732 772 742 793 786 798 815 811 714 801 775 770 807 755 758 762 742 786 843 818 770 801 820 805 821 816 843 779 869 818 822 801 774 849 857 881 874 874 843 918 914 838 866 851 880 874 919 857 927 887 866 903 850 952 914 972 910 880 923 972 1024 977 1006 1001 955 891 987 1032 1050 1038 1024 966 993 1084 1062 1052 1111 1083 1066 1080 1058 1136 1039 1088 1078 1115 1059 1048 1004 1032 1025 1060 1035 1016 959 1011 951 910 893 865 902 870 901 824 865 817 813 842 860 790 828 799 778 834 799 799 770 835 816 798 800 815 772 779 878 798 789 783 768 787 862 812 793 810 812 809 767 824 837 820 795 790 817 845 794 851 818 839 825 797 827 798 810 824 829 876 851 787 831 821 802 801 778 831 783 769 810 850 766 834 778 815 864 789 807 752 772 833 735 804 773 795 736 769 747 791 802 791 762 780 757 729 755 838 704 756 765 764 749 757 796 690 791 747 811 721 733 755 786 765 790 779 738 747 714 773 774 787 756 787 783 732 767 764 767 852 746 750 706 733 781 722 782 776 743 792 773 702 753 732 813 747 734 781 703 728 749 764 789 749 705 740 767 686 743 699 788 737 740 713 742 694 788 720 767 715 750 765 802 733 751 758 783 718 718 743 752 694 772 749 756 761 709 771 740 720 754 784 729 773 736 777 774 691 787 764 735 771 770 763 729 742 730 705 810 785 766 777 809 796 759 791 739 758 751 807 736 767 759 778 831 746 709 771 750 739 746 760 750 767 760 791 725 773 744 749 746 738 768 698 797 817 757 750 781 771 787 712 799 746 758 800 773 738 772 790 764 725 792 771 771 758 838 811 728 845 739 731 774 800 760 824 812 758 784 784 751 832 807 766 786 780 833 795 787 754 836 815 743 789 805 792 816 804 848 765 737 797 732 854 847 803 812 814 852 843 821 810 835 901 917 891 861 983 960 1033 1060 1021 1089 1207 1194 1237 1284 1283 1301 1322 1340 1404 1396 1450 1525 1438 1573 1567 1525 1527 1581 1584 1679 1758 1754 1818 1839 1843 1865 1821 1947 1845 1893 1876 1999 1938 2009 2137 2134 2164 2275 2230 2346 2335 2375 2480 2362 2408 2372 2465 2611 2496 2608 2686 2631 2654 2653 2718 2604 2637 2560 2632 2584 2444 2460 2349 2298 2123 2108 2052 1972 1931 1777 1754 1709 1577 1721 1579 1552 1445 1347 1421 1286 1280 1272 1268 1134 1264 1188 1192 1182 1146 1150 1169 1137 1155 1094 1199 1105 1057 1165 1147 1046 1111 1089 1153 1134 1110 1180 1066 1113 1167 1101 1109 1136 1148 1087 1080 1060 1056 1068 1163 1069 1106 1070 1095 1059 1030 1028 1071 983 999 1028 1001 995 987 974 1044 951 989 941 970 1006 972 984 954 989 976 976 935 943 964 947 958 990 886 916 941 922 886 937 880 888 879 885 923 874 850 850 870 863 851 796 769 778 845 838 799 802 809 759 752 797 752 826 788 770 735 750 756 778 766 822 720 827 798 743 756 783 731 744 753 768 784 810 778 714 753 719 751 739 737 745 743 735 700 759 712 723 754 734 757 771 799 774 796 776 767 823 798 828 801 869 773 810 849 750 818 787 870 785 825 825 859 832 836 822 865 835 897 791 844 890 842 838 861 870 906 900 878 894 886 901 889 899 932 887 935 904 945 892 931 993 891 911 947 969 958 949 904 941 947 922 910 930 870 912 917 836 882 877 868 896 837 833 823 826 865 840 862 862 776 811 796 795 794 793 745 770 717 769 765 762 817 775 782 721 762 716 713 841 750 743 768 736 745 724 776 713 749 773 749 778 751 642 739 746 717 730 736 730 782 760 785 728 688 729 724 671 703 761 723 726 761 733 771 708 709 713 692 743 749 737 707 718 728 743 735 713 731 777 768 711 692 743 747 732 741 752 754 718 706 685 703 731 752 710 728 747 729 697 704 741 698 702 690 770 705 696 696 700 701 671 770 671 744 676 679 705 725 727 728 721 696 667 680 698 729 699 695 675 718 721 666 670 782 706 677 705 730 740 735 691 727 651 783 654 654 694 710 716 707 713 713 677 702 716 669 701 696 704 671 703 689 741 638 712 680 722 728 674 649 679 704 719 727 686 693 705 701 699 683 651 721 699 673 679 667 695 756 672 738 707 733 716 669 710 677 722 646 690 670 662 748 693 685 665 705 670 675 698 694 660 730 710 713 668 667 705 699 724 705 718 685 714 713 723 685 683 701 705 694 704 695 669 689 649 747 700 647 685 707 773 663 704 761 708 706 742 675 718 719 684 683 712 651 698 678 647 657 711 710 689 707 699 703 698 664 681 683 658 691 692 672 691 675 693 690 707 714 672 695 665 671 693 716 667 709 710 731 693 718 690 691 658 675 704 646 681 675 711 715 647 702 655 746 637 666 708 680 691 710 686 722 654 690 674 664 645 702 680 675 713 729 698 671 667 745 709 685 746 677 705 707 703 659 716 649 666 697 725 741 658 717 718 689 718 685 745 660 708 710 687 720 656 671 673 752 702 732 721 716 741 665 638 710 673 645 714 712 721 713 682 705 740 697 689 700 732 703 697 673 685 683 676 641 693 677 651 684 706 683 680 679 712 693 650 645 676 669 704 687 663 700 643 665 707 703 659 635 670 726 706 691 712 684 689 698 698 657 684 679 627 680 673 674 645 675 665 682 728 734 671 656 685 675 693 711 713 673 672 684 691 685 719 672 677 655 674 649 728 691 679 719 736 655 700 689 692 711 641 674 703 724 648 686 708 666 734 665 710 642 693 738 644 671 642 690 694 670 650 672 690 643 648 670 674 654 669 685 672 690 669 703 689 675 659 661 657 673 744 716 735 698 632 771 683 676 717 734 706 713 704 724 690 755 723 642 667 714 713 718 688 724 702 716 684 767 735 756 701 735 669 738 741 709 726 717 719 709 791 702 772 730 764 710 787 770 771 735 741 789 782 769 730 691 797 764 743 778 785 749 760 754 750 724 779 755 737 784 737 799 751 771 854 829 833 738 832 763 826 819 815 785 856 802 868 872 882 831 890 885 932 852 920 931 931 968 960 881 965 999 996 973 1025 915 1015 999 1030 1016 996 975 986 979 1002 1070 1006 963 1018 1034 1064 1021 998 1041 952 967 947 1075 979 982 913 943 922 921 919 889 886 843 846 813 842 834 779 839 779 837 798 749 773 812 814 739 779 736 731 700 721 776 761 732 755 727 753 704 772 713 714 716 778 720 727 786 742 762 810 766 784 744 791 782 822 801 829 827 811 781 824 853 909 899 862 879 885 832 846 848 883 873 889 869 852 841 851 860 866 833 798 758 871 836 810 801 765 799 784 779 753 743 773 740 748 745 703 787 753 755 729 725 640 705 701 713 718 694 689 740 727 680 699 690 685 671 714 665 684 682 694 710 694 716 701 667 655 668 657 663 737 657 742 730 715 693 658 680 701 656 653 674 687 728 642 696 692 653 678 685 723 663 723 647 674 655 658 669 661 711 693 726 690 672 684 707 697 685 704 721 663 636 772 710 691 690 667 679 695 700 684 646 665 713 727 720 734 733 724 729 723 717 643 674 705 713 730 717 758 754 727 742 747 803 801 720 785 803 777 747 822 765 761 792 804 836 861 836 833 828 907 891 862 918 883 897 967 940 963 991 904 986 982 1069 975 987 924 1083 1050 1029 1036 1070 1086 1085 1130 1135 1174 1094 1181 1214 1226 1175 1203 1220 1257 1208 1251 1188 1257 1228 1195 1160 1210 1187 1144 1142 1120 1098 1094 1128 1091 1047 1059 1002 1058 1069 981 950 945 924 959 956 908 895 860 868 827 890 840 834 833 771 850 786 757 734 784 784 756 731 763 762 742 751 735 742 751 740 748 773 714 763 734 753 758 754 748 692 769 761 773 756 814 774 738 786 768 734 794 789 771 783 746 774 770 813 789 755 837 817 784 730 757 720 793 713 759 718 710 788 723 686 718 746 729 713 742 750 732 684 770 757 740 750 663 723 690 688 698 728 707 696 720 711 734 691 690 695 686 726 685 719 698 690 753 730 793 748 755 781 835 779 771 780 789 817 750 779 773 751 730 786 804 723 769 799 728 791 821 743 796 771 747 780 823 817 763 789 812 801 779 818 761 837 770 851 806 812 827 805 745 810 782 782 858 772 821 804 834 869 749 809 792 840 822 831 806 773 759 826 785 753 736 760 780 793 776 803 803 821 767 725 752 789 721 730 716 774 724 742 784 774 747 745 741 731 755 702 708 664 661 661 708 700 689 677 718 675 672 661 708 727 684 696 680 676 635 688 696 669 683 682 660 663 630 663 675 715 648 709 711 662 648 663 677 686 743 677 695 647 635 684 664 689 697 664 669 672 641 681 714 676 674 715 663 729 656 652 667 674 648 686 650 638 653 717 680 649 662 698 709 679 688 669 648 654 680 702 714 687 685 733 677 710 693 678 715 679 696 653 650 734 701 680 700 734 663 663 651 686 679 719 705 677 708 664 648 688 659 692 651 711 706 717 672 670 668 673 675 715 710 671 699 659 639 674 680 700 649 659 678 703 723 672 680 682 664 655 651 697 633 682 678 671 667 616 606 653 678 696 693 670 641 678 668 671 663 658 616 664 622 676 691 615 615 634 753 667 606 666 653 647 662 693 670 691 665 662 677 672 645 648 634 704 671 662 644 637 692 604 651 656 696 655 663 671 664 646 643 687 706 659 686 614 676 618 676 663 670 638 677 684 646 641 680 623 652 666 638 660 643 684 648 647 661 718 622 644 599 651 672 699 655 692 641 653 641 659 646 664 647 660 672 702 662 709 637 663 679 631 668 662 647 658 626 672 653 649 620 664 698 752 705 682 651 633 660 633 678 660 640 629 671 640 647 631 635 675 680 665 645 636 700 627 638 704 646 642 660 637 679 643 648 669 677 699 665 643 662 636 679 639 649 639 613 640 653 656 681 656 665 657 616 634 610 678 637 682 691 699 650 673 651 618 686 659 627 651 640 644 637 678 625 659 730 630 643 673 661 646 680 652 625 672 705 665 679 688 649 646 672 662 675 650 682 689 625 659 679 604 674 600 669 656 632 667 649 676 676 667 654 643 666 644 646 669 664 625 672 629 687 676 629 653 661 663 647 647 632 655 656 683 593 658 668 684 667 643 637 654 658 623 683 635 593 634 698 658 641 649 653 695 623 665 646 684 668 626 628 660 682 722 649 703 704 656 625 725 654 701 727 686 698 675 682 701 677 674 673 698 659 645 712 685 692 690 747 636 679 674 685 740 740 754 698 695 691 668 758 703 729 722 704 730 668 755 734 677 689 744 782 750 721 717 741 718 719 706 688 668 746 688 759 689 738 729 695 714 733 732 723 640 682 674 663 682 682 660 697 717 672 645 703 649 671 671 630 659 678 690 705 680 702 622 660 643 701 677 672 643 632 703 674 682 644 704 709 695 669 692 681 675 630 679 651 613 716 689 634 680 676 688 695 707 651 693 692 669 724 707 643 674 657 661 643 657 676 631 633 673 658 627 646 655 648 710 669 614 670 650 674 643 687 629 656 689 632 658 662 667 646 598 627 674 663 642 651 680 605 644 617 677 654 650 685 653 661 677 661 701 628 645 636 653 645 644 651 650 666 650 650 672 675 647 686 644 650 639 677 661 642 638 634 651 657 677 658 688 702 671 720 690 677 660 617 598 595 629 661 643 664 655 640 685 665 670 675 651 697 701 659 620 647 637 660 711 691 667 636 686 668 621 633 615 651 603 664 616 610 663 661 620 640 630 686 674 651 668 654 626 636 631 663 631 638 642 623 634 648 627 674 646 674 689 656 641 637 640 638 634 680 676 686 649 662 646 664 653 639 650 671 669 696 668 630 683 715 671 678 722 710 703 712 739 719 706 714 704 712 712 698 722 739 725 741 745 745 750 794 770 769 823 784 813 792 801 783 793 717 813 773 798 839 843 811 787 840 824 802 794 836 842 785 773 786 851 905 860 867 842 811 836 838 839 851 891 843 866 802 831 823 833 817 844 841 799 799 811 787 803 753 799 765 767 753 785 764 763 720 766 705 753 711 743 707 722 757 731 728 755 764 666 730 679 752 723 675 679 716 724 705 722 709 638 683 663 706 675 689 691 767 679 717 687 667 691 665 646 697 623 703 673 689 705 673 678 728 699 710 703 685 664 707 670 671 690 700 720 678 656 682 699 699 696 679 692 703 691 709 668 667 730 761 694 664 703 675 686 714 702 693 675 731 700 650 666 710 662 693 678 647 692 657 709 735 632 673 647 654 671 675 701 703 700 654 679 709 693 698 663 660 693 658 663 672 657 685 695 673 672 699 705 671 607 667 664 663 685 660 639 636 659 639 698 649 656 659 642 639 634 594 640 696 653 672 660 697 680 635 679 666 615 669 650 635 651 597 649 651 658 638 640 615 661 660 633 687 632 659 651 640 679 623 690 678 659 628 616 659 632 659 680 645 664 649 681 686 657 685 639 607 702 617 607 645 667 682 626 698 618 652 618 656 660 653 706 614 662 684 678 610 607 661 636 625 608 661 654 652 661 658 652 621 633 675 665 634 640 649 679 693 653 639 617 686 640 663 671 642 686 676 626 663 630 677 667 617 637 621 622 652 610 591 657 652 662 667 664 687 626 645 694 637 676 670 619 654 638 601 635 617 698 634 648 620 588 656 683 673 653 628 678 686 686 681 677 646 636 703 656 670 630 676 679 674 671 673 683 669 612 641 610 674 615 645 661 603 648 615 659 625 674 648 682 606 640 651 694 643 655 672 652 681 672 663 621 628 703 663 639 644 684 682 670 623 655 658 670 651 672 611 636 714 648 675 616 668 626 666 654 670 678 629 638 654 674 662 633 681 628 638 629 702 617 631 664 664 665 622 671 675 611 609 656 633 696 680 601 693 635 676 630 647 651 631 625 637 667 628 650 634 654 659 658 652 652 709 702 642 652 678 642 636 637 683 632 680 686 675 698 663 624 621 664 632 637 627 677 653 657 636 689 693 702 624 680 648 697 671 670 671 645 620 670 675 698 644 683 607 679 644 685 655 648 670 639 667 650 671 674 690 662 684 636 636 658 614 599 597 683 661 663 658 656 642 641 631 624 688 640 673 684 675 658 643 653 667 666 687 615 659 614 684 590 672 617 647 696 680 677 628 698 646 605 638 646 708 652 629 660 704 695 660 659 639 653 672 652 663 632 590 693 689 689 667 684 645 621 647 678 632 679 650 615 606 640 668 678 628 645 636 659 671 660 677 663 690 612 670 631 689 633 666 652 665 645 702 632 682 692 698 626 655 694 672 657 646 691 707 668 681 689 618 682 712 693 671 672 655 651 713 712 682 691 647 749 719 696 646 663 692 687 711 682 666 648 698 723 650 663 679 689 689 658 651 714 666 659 694 687 650 667 683 673 720 725 712 690 682 692 727 724 678 692 691 728 674 685 743 701 748 733 717 686 711 702 745 758 714 726 699 740 786 740 717 740 730 734 736 732 744 710 698 746 745 749 722 704 737 735 738 762 722 761 775 742 728 788 762 736 780 764 704 730 770 772 746 765 754 720 772 840 743 732 768 780 802 778 719 778 767 770 702 815 713 773 835 769 734 769 724 694 791 773 790 788 784 826 736 749 804 742 756 750 732 692 736 742 752 730 743 727 660 753 769 660 746 689 685 687 702 709 709 712 701 667 685 694 719 661 642 706 676 653 657 665 731 661 686 671 647 700 700 665 667 714 685 709 722 685 688 716 638 661 722 696 678 724 672 678 679 709 692 694 698 665 658 691 702 666 687 759 709 685 763 685 699 679 748 657 718 732 714 711 675 732 695 719 717 747 664 708 732 704 705 714 748 725 742 707 784 714 798 708 732 724 761 785 748 716 723 687 746 735 691 685 728 683 708 672 820 731 750 716 785 729 724 693 725 704 707 723 724 751 708 710 767 756 688 760 755 731 711 675 765 777 711 699 762 708 744 774 764 768 725 824 773 778 774 767 815 814 835 827 789 808 795 820 872 832 843 859 856 867 867 855 902 875 877 849 918 970 965 908 963 952 984 1046 996 1073 1059 1045 1020 1061 1125 1044 1081 1106 1062 1020 1150 1051 1121 1099 1053 1111 1096 1130 1110 1163 1163 1111 1111 1150 1134 1065 1125 1107 1134 1095 1116 1085 1097 1100 1058 1025 1067 995 1068 1057 1039 1056 972 941 1006 976 907 903 993 921 905 915 892 913 905 903 914 856 883 890 813 875 842 831 869 827 835 766 852 826 780 773 762 732 739 776 800 749 735 702 680 761 721 697 717 702 752 698 760 710 698 706 720 812 770 698 731 785 756 699 736 765 740 723 738 749 758 680 685 737 730 678 751 740 727 699 683 750 767 704 756 749 697 779 776 782 699 740 761 738 772 726 787 781 801 818 785 813 753 734 783 805 813 838 832 757 850 777 821 794 798 787 806 855 847 833 827 793 849 836 852 824 759 821 832 842 842 829 807 837 779 806 806 826 810 827 817 827 847 802 770 889 800 840 788 823 794 766 872 769 780 780 797 829 803 751 752 777 763 774 769 793 793 735 723 793 733 762 752 760 763 768 725 735 709 686 755 723 770 729 774 714 707 710 757 688 709 699 707 732 794 661 733 715 743 669 704 695 689 708 673 699 676 655 738 691 706 719 676 701 702 722 670 654 647 694 674 724 674 681 622 689 631 705 713 678 714 682 689 719 667 656 653 655 683 690 721 681 662 751 693 720 706 725 710 666 674 666 716 695 681 690 676 671 692 688 706 676 655 711 721 706 697 666 693 713 638 659 629 716 713 660 668 655 700 690 619 667 725 680 649 684 659 717 708 728 723 695 716 638 691 678 681 678 694 659 706 692 638 677 693 652 687 687 654 681 681 665 697 668 689 624 701 650 681 684 645 668 684 634 642 665 729 691 682 702 702 676 699 676 710 658 653 696 690 658 669 660 653 681 689 700 667 655 659 724 697 693 644 682 612 692 662 712 671 643 683 640 697 640 707 662 670 671 688 664 671 700 679 685 690 700 714 617 676 693 685 682 725 688 663 670 700 675 702 659 677 651 653 652 670 727 673 693 682 655 686 665 691 663 669 677 645 641 687 687 676 640 675 667 639 637 672 645 675 673 678 662 690 623 667 666 714 669 688 647 682 679 696 632 707 653 670 679 670 688 673 651 624 656 683 697 713 646 670 666 667 693 656 608 656 673 669 673 662 649 696 696 642 663 662 719 654 664 721 655 631 702 677 698 704 668 622 678 696 664 693 648 701 643 725 699 610 694 698 698 651 654 642 639 659 682 650 655 672 681 672 686 648 626 613 640 649 678 702 666 682 660 674 707 659 739 649 733 651 684 699 691 699 659 683 673 611 657 699 651 688 673 665 667 651 619 628 697 650 680 692 643 651 633 690 670 731 640 635 671 656 656 645 682 714 682 717 694 652 729 686 682 662 693 660 681 680 681 712 696 697 640 665 648 645 704 718 688 729 684 678 751 699 740 706 655 714 688 701 674 731 665 735 711 677 741 720 713 717 710 775 720 720 723 729 678 725 699 672 750 720 691 688 690 726 720 676 706 745 755 701 753 751 710 716 690 734 734 693 720 703 708 739 704 701 753 721 706 751 761 740 733 691 720 716 720 679 685 741 693 714 708 670 712 694 698 700 741 704 683 660 735 666 705 673 673 721 681 729 692 682 662 667 672 632 702 675 686 696 673 681 687 659 665 649 713 701 676 734 754 677 654 701 662 683 668 702 685 647 711 715 660 704 688 661 709 680 693 656 741 647 722 662 687 732 655 742 681 679 681 649 658 702 684 717 710 726 680 695 687 694 674 755 688 701 655 657 657 714 695 639 642 660 664 694 702 725 653 652 704 703 696 688 686 643 666 701 679 643 749 689 787 663 689 674 686 645 673 685 694 696 697 671 706 640 721 703 721 728 708 654 662 665 643 690 686 728 616 690 695 728 713 719 705 689 651 664 662 728 685 676 726 691 621 677 714 712 742 661 716 735 736 682 698 720 685 731 711 706 708 701 761 738 727 767 702 726 736 733 691 693 701 691 699 726 697 715 710 708 737 728 727 743 686 759 734 750 733 706 760 807 757 740 765 802 770 786 780 765 809 772 781 794 826 759 846 842 864 853 837 802 805 791 814 861 803 789 871 864 846 893 857 939 905 952 946 892 905 925 879 925 977 893 965 967 955 947 957 990 982 960 994 979 996 982 962 950 1005 962 928 942 985 952 968 939 981 952 926 908 988 973 910 889 933 936 856 927 897 960 875 911 879 836 858 893 864 859 845 883 864 871 826 859 798 777 805 853 870 744 818 771 764 818 796 769 782 771 791 792 804 733 805 772 747 820 804 712 775 745 743 751 736 730 711 707 729 777 736 728 681 764 735 720 777 725 731 725 756 760 720 693 750 679 711 689 765 764 655 716 699 664 667 723 754 709 722 714 714 778 751 727 693 724 751 753 707 660 703 719 698 746 734 734 757 693 790 668 753 735 733 640 744 728 795 717 714 759 747 759 722 761 756 766 726 792 733 812 805 765 789 751 748 731 792 770 775 755 693 760 738 767 773 773 742 761 732 719 736 765 736 742 739 720 779 781 739 768 742 720 785 776 699 718 710 727 758 753 775 743 680 768 697 732 791 729 762 747 757 693 742 735 743 700 666 716 736 713 734 701 696 724 743 678 731 713 680 660 754 707 724 735 729 732 718 675 682 697 679 708 705 729 726 730 671 736 659 688 724 729 722 746 651 686 657 689 677 671 703 728 709 689 683 725 701 730 691 675 693 672 707 659 692 693 740 683 724 717 710 719 719 699 786 710 711 680 717 737 710 695 711 688 736 725 680 682 670 737 674 735 685 713 678 725 662 723 732 723 692 708 688 607 723 700 736 698 677 694 682 709 729 705 706 702 701 694 678 690 687 729 695 668 726 718 672 720 684 692 732 665 725 645 695 687 697 697 664 688 694 720 704 718 667 695 699 697 697 669 702 711 673 673 740 625 709 704 676 758 731 703 686 663 718 719 731 682 697 704 672 694 688 692 658 742 704 694 688 702 653 664 647 717 692 673 697 693 688 639 697 690 691 720 709 694 685 680 720 680 638 681 667 704 659 684 696 677 715 712 633 661 659 653 694 685 723 710 716 659 671 678 682 693 708 652 678 668 707 692 667 676 692 655 678 720 726 703 666 703 643 671 643 695 741 706 752 722 654 666 651 674 657 673 708 656 671 679 682 648 660 689 665 679 703 657 648 686 679 712 686 710 686 646 669 698 709 671 656 703 678 700 703 725 701 674 721 649 607 673 670 694 655 683 710 724 584 715 667 702 748 666 658 643 693 722 687 715 697 671 696 656 678 704 704 698 697 690 672 725 727 635 700 684 742 689 695 697 703 692 674 708 749 730 647 685 741 665 695 668 668 701 686 680 721 665 662 695 704 753 681 662 736 683 714 698 637 686 700 722 679 663 671 696 688 696 683 677 694 688 731 674 658 663 699 784 728 703 677 699 717 705 699 713 747 701 715 730 740 730 697 626 754 691 690 682 670 782 736 646 714 727 702 714 727 694 737 686 751 759 773 741 732 730 724 815 706 726 738 724 732 778 772 709 741 740 790 755 773 725 750 728 800 703 760 735 775 747 763 828 738 749 791 787 752 798 757 753 766 811 795 792 747 741 757 755 792 759 737 794 749 728 736 766 739</counts>
			</dataPoints>
		</scan>
	</xrdMeasurement>
</xrdMeasurements>
