<?xml version="1.0"?>
<xrdMeasurements xmlns="http://www.xrdml.com/XRDMeasurement/2.3" xmlns:xsi="http://www.w3.org/2001/XMLSchema-instance" xsi:schemaLocation="http://www.xrdml.com/XRDMeasurement/2.3 http://www.xrdml.com/XRDMeasurement/2.3/XRDMeasurement.xsd" status="Completed" recordIdentifier="{09FDE198-44F9-4BEB-BD16-BE179B4D096B}">
	<comment>
		<entry/>
	</comment>
	<sample type="To be analyzed">
		<id>GPSS_Li1p85Co0p425Fe0p425Sc0p15Cl4_121225_693c5ab8f4d05ae3d6974f1f</id>
		<name></name>
		<preparedBy></preparedBy>
	</sample>
	<xrdMeasurement measurementType="Scan" status="Completed" sampleMode="Reflection">
		<usedWavelength intended="K-Alpha 1">
			<kAlpha1 unit="Angstrom">1.5405980</kAlpha1>
			<kAlpha2 unit="Angstrom">1.5444260</kAlpha2>
			<kBeta unit="Angstrom">1.3922500</kBeta>
			<ratioKAlpha2KAlpha1>0.5000</ratioKAlpha2KAlpha1>
		</usedWavelength>
		<incidentBeamPath>
			<radius unit="mm">145.00</radius>
			<xRayTube id="1010048" name="Empyrean Cu LFF HR (9430 033 7310x)">
				<tension unit="kV">40.0</tension>
				<current unit="mA">15.0</current>
				<anodeMaterial>Cu</anodeMaterial>
				<focus type="Line">
					<length unit="mm">12.0</length>
					<width unit="mm">0.4</width>
					<takeOffAngle unit="deg">6.0</takeOffAngle>
				</focus>
			</xRayTube>
			<sollerSlit id="21010002" name="Soller slits 0.04 rad.">
				<opening unit="rad">0.0400</opening>
			</sollerSlit>
			<mask id="22031000" name="Fixed mask 13 mm">
				<width unit="mm">9.00</width>
			</mask>
			<divergenceSlit id="22120001" name="Divergence slit 1°" xsi:type="fixedDivergenceSlitType">
				<distanceToSample unit="mm">50.00</distanceToSample>
				<height unit="mm">1.52</height>
			</divergenceSlit>
		</incidentBeamPath>
		<sampleMovement xsi:type="spinningSampleMovementType">
			<spinnerRevolutionTime unit="seconds">1.0</spinnerRevolutionTime>
		</sampleMovement>
		<diffractedBeamPath>
			<radius unit="mm">145.00</radius>
			<antiScatterSlit id="22090040" name="AS slit 9 mm (PIXcel)" xsi:type="fixedAntiScatterSlitType">
				<height unit="mm">9.00</height>
			</antiScatterSlit>
			<sollerSlit id="21020003" name="Large Soller slits 0.04 rad.">
				<opening unit="rad">0.0400</opening>
			</sollerSlit>
			<filter id="20030001" name="Large beta-filter Nickel">
				<material>Ni</material>
				<thickness unit="mm">0.020</thickness>
			</filter>
			<detector id="7010019" name="PIXcel1D-Medipix3 detector" xsi:type="rtmsDetectorType">
				<phd unit="keV">
					<lowerLevel>4.02</lowerLevel>
					<upperLevel>11.27</upperLevel>
				</phd>
				<mode>Scanning</mode>
				<activeLength unit="deg">5.542</activeLength>
			</detector>
		</diffractedBeamPath>
		<scan appendNumber="0" mode="Continuous" scanAxis="Gonio" status="Completed">
			<header>
				<startTimeStamp>2025-12-17T12:03:27-08:00</startTimeStamp>
				<endTimeStamp>2025-12-17T12:11:34-08:00</endTimeStamp>
				<author>
					<name>AutomatedUser</name>
				</author>
				<source>
					<applicationSoftware version="1.7b (136)">PANalytical Aeris Instrument Suite</applicationSoftware>
					<instrumentControlSoftware version="3.2.00000000 20240306">AERIS</instrumentControlSoftware>
					<instrumentID>950485</instrumentID>
				</source>
			</header>
			<dataPoints>
				<positions axis="2Theta" unit="deg">
					<startPosition>10.00943322</startPosition>
					<endPosition>99.99442286</endPosition>
				</positions>
				<positions axis="Omega" unit="deg">
					<startPosition>5.00471661</startPosition>
					<endPosition>49.99721143</endPosition>
				</positions>
				<commonCountingTime unit="seconds">12.495</commonCountingTime>
				<counts unit="counts">1942 2019 1997 1927 1963 1965 1904 1948 1953 1971 1973 1996 2003 2022 1875 1875 1966 1907 1901 1951 1932 1919 1910 1967 1892 1945 1904 2051 1891 1893 1955 1919 1989 1938 1989 1907 1892 1936 1895 1981 1940 1959 1979 1928 1878 1966 1848 1952 1923 1957 1904 1861 1954 1962 1883 1874 1993 1905 1880 1906 1866 1918 1836 1859 1930 1967 1957 1930 1967 1863 1957 1924 1908 1865 1847 1922 1955 1916 1917 1834 1808 1853 1895 1902 1890 1847 1883 1897 1944 1836 1765 1922 1963 1894 1881 1879 1901 1905 1892 1953 1908 1979 1914 1842 1965 1909 1944 1949 1859 1870 1915 1957 1895 1874 1902 2011 2005 1922 1999 1892 1787 1944 1900 1930 1950 1904 1901 1936 1888 1878 1838 1925 1866 1946 1886 1947 1895 1907 1895 1929 1862 1891 1851 1956 1836 1959 1930 1857 1897 1866 1878 1940 1917 1935 1931 1980 1911 1919 1942 1913 1925 1852 1906 1886 1890 1915 1941 2010 1935 1858 1930 1863 1988 1887 1861 1930 1865 1865 1906 1918 1845 1882 1894 1954 1895 1887 1897 1880 1847 1876 1876 1850 1910 1897 1908 1880 1838 1902 1783 1904 1883 1853 1803 1837 1826 1819 1794 1821 1918 1845 1813 1898 1833 1875 1809 1881 1833 1750 1863 1803 1824 1820 1801 1802 1854 1835 1847 1802 1864 1770 1807 1808 1877 1789 1850 1810 1864 1816 1873 1843 1766 1797 1888 1873 1866 1731 1828 1876 1817 1781 1798 1823 1855 1751 1836 1834 1857 1787 1916 1761 1880 1791 1793 1762 1850 1791 1862 1781 1803 1822 1707 1782 1740 1776 1788 1732 1852 1777 1803 1714 1798 1772 1892 1825 1805 1813 1821 1792 1805 1769 1773 1712 1836 1782 1816 1779 1803 1838 1854 1743 1790 1775 1822 1803 1760 1749 1811 1726 1769 1814 1756 1749 1832 1749 1803 1842 1828 1803 1814 1795 1784 1875 1776 1833 1880 1820 1804 1816 1739 1801 1863 1849 1866 1804 1812 1784 1810 1870 1898 1852 1823 1773 1849 1746 1800 1710 1778 1776 1870 1788 1777 1868 1804 1827 1912 1750 1708 1851 1801 1794 1777 1794 1839 1866 1884 1810 1772 1795 1913 1796 1914 1930 1898 1841 1849 1854 1907 1899 1892 1889 1959 1906 1822 1902 1936 1948 1902 1935 1956 1893 1841 1739 1928 1904 1888 1868 1867 1955 1847 1906 1998 1924 1981 1981 1920 1985 1931 2067 2017 1963 1907 2024 1973 1939 2008 2020 1957 2008 1990 1950 1938 1979 2035 1984 1973 1949 2001 2000 1988 1962 2031 2076 2007 2078 1971 2057 1954 2130 2146 2014 2067 2097 2116 2000 2106 2063 2039 2028 2105 1999 2017 2045 2044 2203 2113 2165 2142 2086 2019 2101 2126 2076 2169 2139 2135 2083 2171 2078 2183 2100 2226 2010 2215 2033 2123 2100 2154 2155 2106 2160 2116 2126 2210 2131 2179 2195 2163 2237 2183 2150 2140 2244 2131 2123 2206 2231 2206 2258 2271 2223 2210 2251 2318 2186 2216 2283 2250 2196 2266 2305 2343 2211 2334 2321 2339 2309 2341 2349 2310 2416 2366 2419 2472 2496 2419 2336 2398 2438 2484 2459 2571 2426 2566 2496 2583 2492 2587 2615 2656 2499 2588 2665 2620 2670 2692 2616 2611 2697 2724 2678 2725 2536 2580 2600 2583 2446 2573 2523 2510 2394 2360 2403 2215 2297 2251 2268 2166 2200 2146 2148 2153 2177 2059 2083 2100 2199 2112 2091 2051 2128 1980 2131 2174 2132 2052 2100 2038 2208 1983 2081 2134 2099 2065 2152 1999 2032 2039 2054 2159 2131 2031 1971 1980 2033 1999 2144 2008 2063 2042 2009 1992 2108 1956 2046 2083 1999 2053 2048 2056 2007 2088 1983 2014 1981 2021 2015 2007 2063 2019 1929 2036 2064 1939 2077 1992 2096 2011 2022 2041 2065 2084 2029 1990 2136 2001 1971 1976 1989 1989 2040 2046 1961 1984 2019 2052 1956 2051 2032 2031 2004 1969 1967 1895 1979 1894 1968 1939 2004 1942 1868 1949 1997 2052 2025 1915 1992 1969 1891 1951 1963 1970 1959 1944 1915 1884 1990 2010 2000 1993 1895 1932 1960 1979 1952 1922 1990 2036 1986 2000 1962 1996 1888 1944 1888 1979 1903 1933 1903 1953 1866 1999 1966 1939 1924 1920 1965 2003 1959 1971 1973 1976 1899 1925 1972 1922 2002 1963 1969 1972 2031 1939 1885 1977 2003 1952 2101 1887 1957 1934 1985 1960 1991 2080 2039 1985 2002 2014 2076 2015 2074 1933 1966 2030 1964 1930 2055 1997 2018 1990 2033 1955 1922 2014 1958 2026 1947 1990 1934 2042 1950 2023 1889 1961 1958 1989 1926 1931 1905 1872 1951 1983 1950 1922 1876 1993 1854 1908 1935 1986 1907 1870 1918 1957 1883 1906 1889 1908 1909 1914 1884 1963 1913 1867 1961 1901 1947 1889 1860 1915 1902 1924 1869 1893 1914 1781 1904 1925 1876 1922 1871 1855 1945 1909 1899 1928 1883 1918 1907 1922 1855 1962 1893 1810 1878 1890 1866 1865 1904 1947 1888 1776 1939 1888 1968 1775 1869 1980 1845 1877 1960 1909 1931 1933 1930 1858 1904 1829 1891 1933 1911 1926 1874 1923 1892 1905 1845 1915 1849 1922 1790 1816 1884 1911 1891 1910 1819 1829 1901 1926 1847 1872 1924 1871 1849 1873 1857 1905 1792 1786 1845 1783 1847 1946 1875 1890 1866 1913 1860 1960 1987 1862 1864 1866 1830 1872 1887 1919 1839 1867 1861 1867 1852 1873 1818 1932 1866 1886 1872 1895 1872 1860 1904 1854 1816 1876 1782 1836 1916 1873 1882 1944 1871 1824 1876 1753 1844 1897 1846 1777 1911 1842 1799 1851 1910 1832 1886 1830 1883 1833 1845 1872 1844 1759 1827 1766 1837 1794 1881 1843 1813 1792 1878 1743 1841 1871 1828 1846 1790 1839 1879 1825 1847 1863 1747 1887 1764 1844 1811 1854 1849 1839 1756 1846 1913 1788 1817 1814 1793 1843 1795 1838 1854 1791 1805 1814 1878 1808 1845 1829 1766 1809 1808 1827 1811 1788 1820 1772 1836 1871 1796 1862 1772 1785 1777 1807 1790 1908 1854 1802 1781 1850 1817 1856 1813 1800 1838 1858 1819 1833 1786 1783 1877 1839 1786 1831 1797 1697 1759 1799 1838 1810 1862 1796 1828 1824 1816 1774 1812 1838 1864 1815 1902 1880 1849 1805 1865 1800 1860 1785 1810 1846 1900 1858 1791 1825 1949 1823 1893 1819 1812 1904 1882 1787 1864 1787 1828 1846 1804 1846 1791 1877 1786 1819 1863 1794 1859 1783 1752 1857 1860 1866 1846 1868 1807 1819 1835 1775 1788 1863 1838 1813 1851 1824 1826 1842 1890 1975 1839 1838 1872 1787 1816 1760 1871 1826 1801 1827 1843 1866 1813 1844 1804 1821 1857 1850 1812 1800 1865 1919 1862 1866 1824 1885 1804 1833 1806 1854 1812 1938 1781 1910 1841 1841 1869 1856 1874 1907 1824 1829 1845 1830 1858 1835 1937 1802 1875 1919 1802 1827 1872 1875 1917 1899 1906 1794 1901 1903 1913 1880 1902 1822 1888 1816 1847 1905 1856 1861 1788 1820 1861 1774 1827 1871 1788 1809 1880 1861 1831 1814 1851 1763 1797 1799 1809 1841 1835 1807 1821 1806 1733 1868 1831 1823 1838 1918 1805 1855 1875 1818 1755 1832 1809 1815 1808 1887 1755 1770 1815 1826 1758 1842 1812 1807 1834 1753 1787 1789 1778 1750 1697 1746 1698 1799 1751 1756 1711 1789 1688 1800 1764 1800 1750 1772 1737 1754 1787 1697 1793 1751 1798 1744 1697 1773 1733 1690 1772 1736 1728 1641 1741 1763 1700 1685 1719 1715 1688 1769 1742 1726 1727 1725 1599 1737 1787 1723 1708 1714 1677 1668 1658 1700 1718 1649 1693 1721 1621 1662 1748 1692 1620 1627 1667 1605 1685 1641 1664 1645 1602 1661 1726 1651 1595 1649 1662 1653 1692 1543 1711 1624 1620 1591 1594 1676 1542 1666 1654 1572 1636 1572 1583 1616 1608 1585 1556 1546 1593 1569 1594 1602 1557 1627 1511 1615 1491 1511 1555 1539 1539 1560 1555 1563 1570 1627 1633 1617 1566 1534 1583 1573 1531 1539 1521 1565 1559 1563 1460 1648 1573 1585 1535 1508 1537 1560 1506 1552 1591 1579 1548 1608 1552 1589 1554 1548 1596 1596 1518 1542 1571 1587 1524 1620 1469 1570 1561 1495 1567 1566 1488 1592 1573 1527 1567 1614 1522 1606 1617 1606 1527 1496 1517 1544 1553 1567 1527 1559 1585 1636 1631 1605 1561 1667 1586 1578 1679 1681 1622 1641 1583 1616 1566 1588 1651 1681 1675 1665 1658 1611 1658 1606 1591 1642 1611 1571 1663 1635 1670 1649 1696 1673 1669 1707 1642 1662 1623 1611 1604 1592 1539 1532 1608 1542 1684 1660 1592 1603 1553 1637 1624 1551 1602 1602 1648 1631 1604 1599 1599 1627 1484 1619 1542 1554 1599 1623 1551 1593 1567 1612 1539 1605 1604 1587 1446 1569 1604 1600 1572 1630 1574 1531 1604 1549 1570 1626 1544 1571 1576 1632 1558 1598 1533 1557 1581 1659 1570 1646 1553 1551 1588 1650 1618 1517 1590 1543 1569 1616 1593 1556 1555 1561 1588 1570 1559 1602 1660 1554 1616 1581 1547 1618 1625 1583 1532 1579 1616 1641 1523 1606 1595 1553 1616 1599 1516 1603 1626 1637 1588 1541 1539 1605 1624 1648 1614 1565 1607 1581 1624 1518 1658 1643 1535 1587 1597 1562 1605 1586 1667 1568 1591 1591 1676 1625 1598 1571 1567 1562 1643 1542 1566 1555 1554 1620 1671 1656 1542 1569 1592 1517 1609 1547 1591 1526 1602 1535 1555 1563 1486 1562 1548 1581 1562 1636 1506 1598 1477 1549 1561 1519 1543 1465 1518 1597 1494 1555 1496 1577 1634 1547 1560 1599 1566 1486 1566 1581 1484 1592 1517 1486 1510 1499 1475 1494 1589 1541 1516 1557 1551 1536 1498 1510 1533 1493 1552 1565 1598 1530 1526 1543 1553 1505 1490 1506 1549 1501 1515 1521 1539 1552 1505 1398 1518 1389 1469 1502 1526 1508 1468 1501 1486 1504 1502 1438 1413 1455 1512 1454 1487 1498 1408 1466 1414 1458 1451 1458 1425 1470 1438 1458 1505 1441 1410 1461 1448 1440 1569 1489 1447 1463 1495 1487 1425 1509 1408 1398 1393 1476 1457 1403 1418 1351 1396 1424 1435 1456 1428 1412 1474 1456 1389 1409 1433 1481 1423 1431 1407 1413 1447 1410 1425 1397 1360 1419 1416 1446 1455 1444 1427 1412 1444 1386 1410 1441 1373 1465 1442 1393 1400 1463 1317 1411 1430 1373 1407 1363 1411 1348 1384 1492 1434 1400 1418 1381 1385 1426 1384 1417 1379 1418 1409 1459 1408 1417 1363 1365 1447 1493 1388 1444 1479 1502 1438 1482 1493 1374 1445 1536 1486 1521 1500 1502 1518 1512 1495 1499 1523 1513 1531 1548 1452 1547 1546 1512 1586 1548 1572 1565 1575 1604 1601 1586 1570 1681 1636 1578 1620 1698 1647 1645 1767 1648 1598 1622 1710 1639 1687 1611 1652 1694 1714 1647 1615 1569 1627 1616 1607 1647 1581 1577 1565 1571 1558 1525 1539 1508 1531 1532 1448 1432 1498 1377 1411 1402 1507 1334 1378 1366 1403 1421 1354 1335 1332 1372 1358 1377 1390 1355 1418 1326 1379 1342 1388 1385 1361 1349 1341 1333 1371 1376 1292 1283 1418 1444 1350 1366 1432 1427 1402 1338 1375 1362 1368 1393 1437 1469 1450 1397 1440 1368 1435 1452 1470 1472 1463 1472 1525 1562 1551 1576 1625 1605 1678 1677 1647 1604 1698 1685 1722 1790 1762 1799 1802 1839 1790 1881 1879 1902 1898 1882 1797 1940 1831 2003 1963 1984 2035 1918 2046 2058 2043 2053 2066 2036 1979 1883 1917 1901 1790 1907 1836 1916 1921 1798 1815 1696 1719 1729 1670 1625 1614 1537 1601 1472 1503 1435 1414 1374 1429 1432 1411 1361 1294 1392 1368 1261 1291 1317 1319 1305 1326 1310 1290 1294 1299 1264 1341 1271 1261 1274 1244 1279 1314 1287 1266 1193 1332 1227 1335 1238 1209 1271 1259 1293 1283 1292 1254 1290 1323 1293 1279 1249 1342 1293 1239 1288 1280 1292 1286 1272 1243 1273 1267 1282 1300 1284 1269 1273 1241 1245 1330 1281 1263 1284 1279 1261 1215 1298 1279 1322 1272 1350 1265 1323 1317 1281 1318 1275 1294 1300 1276 1275 1235 1287 1307 1296 1294 1252 1257 1250 1258 1296 1250 1303 1190 1207 1301 1351 1321 1304 1292 1299 1303 1317 1255 1335 1244 1315 1239 1262 1271 1205 1251 1225 1302 1192 1261 1267 1286 1298 1317 1279 1313 1295 1275 1289 1262 1255 1276 1254 1276 1329 1329 1313 1294 1266 1258 1278 1342 1299 1221 1288 1302 1274 1271 1272 1260 1303 1278 1304 1314 1211 1216 1213 1185 1323 1370 1271 1225 1282 1275 1291 1290 1276 1287 1223 1291 1272 1275 1260 1268 1289 1293 1258 1249 1245 1285 1273 1272 1287 1262 1288 1265 1271 1270 1268 1223 1274 1300 1332 1290 1261 1359 1307 1327 1302 1310 1285 1246 1331 1288 1288 1282 1204 1238 1210 1223 1258 1266 1250 1306 1225 1254 1195 1255 1337 1278 1225 1221 1287 1278 1212 1213 1264 1308 1227 1292 1248 1241 1319 1345 1236 1266 1325 1286 1267 1232 1283 1281 1274 1351 1328 1297 1303 1275 1347 1253 1347 1262 1344 1338 1287 1346 1252 1274 1306 1313 1251 1328 1247 1310 1250 1267 1329 1311 1264 1253 1229 1276 1300 1311 1295 1315 1288 1291 1313 1255 1299 1319 1315 1319 1279 1242 1280 1274 1276 1326 1289 1310 1308 1328 1282 1333 1354 1367 1227 1347 1335 1316 1325 1331 1331 1335 1381 1371 1381 1347 1330 1251 1333 1361 1385 1347 1401 1336 1467 1343 1320 1399 1346 1402 1405 1381 1416 1409 1298 1390 1396 1412 1381 1348 1430 1447 1416 1397 1407 1379 1346 1427 1413 1414 1395 1432 1445 1433 1490 1439 1504 1454 1534 1509 1482 1504 1596 1540 1546 1570 1588 1561 1706 1694 1653 1707 1716 1814 1819 1820 1843 1896 1930 1841 1952 1995 2069 1993 2032 2037 2135 2232 2240 2303 2303 2318 2451 2432 2555 2505 2590 2645 2704 2677 2835 2836 2894 2909 2865 2943 3082 3017 3056 3054 3123 3092 3063 3085 3111 3156 3209 3199 3267 3159 3108 3123 3125 3198 3157 3203 3149 3262 3021 3081 3103 3098 3037 2998 3011 3083 2941 2858 2974 2914 2749 2819 2676 2574 2607 2540 2409 2304 2301 2155 2124 1993 1983 1924 1819 1736 1669 1628 1645 1628 1574 1549 1486 1573 1485 1504 1443 1505 1448 1470 1417 1408 1435 1368 1433 1433 1314 1441 1430 1384 1391 1420 1435 1312 1418 1438 1392 1367 1376 1319 1411 1377 1336 1363 1329 1354 1374 1375 1379 1284 1339 1294 1375 1404 1354 1360 1279 1390 1259 1458 1397 1385 1373 1467 1410 1308 1323 1377 1377 1260 1371 1329 1448 1374 1406 1373 1372 1341 1358 1371 1416 1290 1447 1345 1359 1341 1422 1331 1277 1355 1372 1366 1261 1358 1359 1332 1387 1298 1409 1340 1416 1371 1336 1363 1387 1304 1369 1376 1290 1335 1328 1417 1359 1304 1339 1380 1389 1426 1334 1338 1365 1359 1279 1330 1338 1307 1370 1385 1378 1338 1339 1308 1444 1367 1310 1373 1358 1333 1377 1320 1351 1341 1432 1300 1450 1345 1356 1337 1380 1375 1417 1333 1354 1323 1297 1379 1397 1326 1345 1300 1424 1393 1389 1354 1338 1376 1354 1324 1341 1430 1387 1326 1373 1445 1342 1414 1352 1348 1396 1379 1328 1327 1339 1333 1371 1369 1361 1335 1376 1327 1415 1370 1354 1381 1382 1294 1387 1339 1380 1373 1387 1334 1385 1406 1310 1405 1360 1405 1409 1365 1381 1380 1351 1337 1344 1324 1395 1340 1405 1393 1432 1309 1287 1358 1405 1370 1380 1378 1357 1365 1401 1394 1434 1401 1318 1376 1414 1352 1369 1431 1450 1358 1427 1475 1409 1446 1405 1434 1461 1435 1351 1377 1525 1487 1483 1471 1445 1416 1456 1443 1454 1533 1422 1477 1470 1436 1451 1503 1439 1493 1451 1485 1518 1508 1461 1438 1449 1506 1406 1443 1438 1476 1439 1459 1444 1398 1414 1401 1417 1477 1440 1482 1410 1490 1402 1435 1382 1423 1448 1446 1426 1408 1416 1392 1451 1361 1425 1396 1408 1388 1325 1391 1364 1366 1380 1414 1413 1446 1420 1392 1428 1425 1447 1425 1442 1392 1434 1364 1467 1428 1400 1432 1411 1473 1466 1463 1456 1461 1492 1397 1415 1476 1490 1438 1523 1436 1421 1480 1513 1476 1435 1512 1514 1478 1503 1410 1486 1446 1518 1436 1438 1447 1468 1504 1497 1479 1497 1473 1427 1556 1509 1458 1534 1523 1474 1588 1504 1502 1570 1426 1435 1537 1520 1435 1424 1480 1421 1480 1504 1461 1459 1437 1381 1529 1507 1429 1344 1468 1386 1449 1439 1293 1457 1423 1399 1371 1361 1429 1445 1404 1348 1380 1407 1384 1402 1410 1399 1457 1420 1414 1420 1449 1471 1462 1442 1429 1416 1419 1379 1452 1435 1339 1438 1442 1405 1369 1459 1400 1401 1394 1415 1413 1386 1478 1392 1416 1451 1408 1401 1373 1449 1399 1433 1407 1465 1425 1475 1389 1433 1425 1420 1334 1432 1476 1407 1400 1461 1430 1367 1404 1430 1445 1415 1391 1431 1418 1420 1411 1485 1442 1468 1525 1398 1488 1427 1416 1421 1450 1481 1405 1442 1321 1498 1433 1417 1522 1415 1513 1450 1463 1448 1418 1443 1460 1473 1386 1440 1480 1424 1458 1424 1414 1377 1462 1448 1533 1442 1412 1437 1375 1486 1458 1422 1444 1450 1549 1425 1459 1410 1423 1492 1404 1410 1467 1452 1497 1433 1455 1456 1404 1472 1423 1484 1417 1497 1490 1456 1442 1465 1459 1395 1517 1438 1451 1502 1509 1453 1417 1520 1434 1460 1470 1471 1490 1531 1484 1448 1457 1396 1447 1440 1421 1458 1425 1460 1432 1429 1466 1438 1440 1519 1466 1460 1505 1503 1467 1506 1495 1440 1407 1502 1431 1418 1533 1515 1468 1463 1480 1419 1478 1574 1534 1495 1443 1515 1515 1480 1397 1448 1448 1503 1490 1509 1467 1410 1414 1442 1464 1489 1442 1408 1439 1492 1439 1403 1500 1531 1496 1440 1505 1588 1442 1541 1432 1459 1568 1449 1462 1494 1414 1459 1422 1442 1508 1428 1431 1485 1521 1471 1439 1533 1469 1514 1518 1478 1480 1457 1470 1500 1463 1485 1495 1555 1516 1501 1491 1527 1509 1478 1496 1474 1475 1563 1534 1563 1507 1472 1496 1537 1435 1525 1563 1565 1530 1487 1494 1585 1596 1538 1548 1545 1560 1569 1538 1583 1571 1568 1515 1531 1570 1549 1584 1541 1547 1556 1545 1538 1585 1559 1535 1555 1498 1577 1577 1599 1537 1620 1522 1555 1528 1602 1542 1576 1610 1569 1547 1577 1519 1537 1567 1541 1586 1541 1503 1554 1597 1499 1530 1537 1487 1444 1489 1480 1559 1422 1494 1489 1519 1544 1524 1554 1495 1564 1543 1556 1517 1528 1535 1579 1497 1438 1558 1493 1494 1571 1574 1513 1537 1492 1538 1516 1551 1483 1500 1510 1571 1504 1479 1481 1491 1576 1534 1438 1524 1541 1559 1489 1562 1531 1540 1541 1535 1534 1465 1569 1501 1543 1415 1514 1506 1537 1500 1490 1613 1455 1477 1476 1544 1514 1524 1500 1560 1533 1533 1507 1558 1500 1489 1546 1528 1550 1501 1497 1557 1524 1556 1541 1418 1514 1499 1457 1521 1520 1463 1551 1516 1531 1557 1541 1553 1573 1555 1523 1576 1541 1543 1556 1555 1558 1470 1602 1494 1589 1515 1628 1461 1577 1481 1529 1572 1579 1494 1567 1583 1605 1556 1606 1546 1522 1573 1535 1591 1517 1522 1521 1563 1590 1496 1584 1597 1559 1557 1505 1517 1569 1593 1573 1558 1511 1656 1545 1584 1602 1614 1671 1513 1589 1605 1576 1546 1526 1569 1560 1618 1577 1581 1602 1648 1592 1613 1548 1571 1549 1659 1614 1633 1623 1606 1671 1625 1615 1678 1627 1695 1636 1691 1645 1663 1609 1666 1689 1686 1699 1683 1734 1718 1736 1721 1736 1711 1726 1758 1820 1727 1795 1813 1873 1768 1817 1876 1823 1813 1815 1811 1892 1745 1868 1830 1831 1866 1808 1866 1905 1882 1865 1821 1737 1898 1867 1853 1845 1862 1893 1888 1969 1980 1894 1852 1825 1839 1800 1857 1898 1823 1868 1930 1819 1813 1878 1862 1820 1870 1815 1754 1789 1735 1771 1740 1645 1768 1754 1830 1733 1765 1779 1695 1742 1662 1661 1691 1615 1592 1664 1611 1670 1578 1607 1626 1597 1636 1610 1591 1553 1613 1600 1593 1617 1650 1672 1574 1571 1651 1548 1653 1567 1626 1569 1559 1626 1598 1634 1660 1599 1552 1530 1492 1578 1583 1637 1536 1579 1528 1660 1512 1676 1543 1652 1608 1549 1591 1537 1650 1535 1557 1643 1557 1609 1616 1587 1597 1645 1657 1628 1637 1592 1641 1607 1669 1563 1597 1631 1568 1570 1695 1607 1663 1651 1578 1629 1607 1598 1581 1690 1609 1622 1609 1570 1594 1537 1608 1558 1617 1610 1618 1601 1624 1641 1668 1602 1675 1715 1554 1602 1657 1644 1653 1571 1621 1569 1562 1619 1609 1592 1690 1660 1639 1586 1641 1616 1624 1626 1652 1582 1618 1524 1587 1572 1593 1615 1543 1628 1648 1654 1591 1645 1659 1623 1644 1613 1574 1641 1644 1607 1663 1591 1629 1604 1656 1641 1671 1628 1672 1642 1587 1633 1655 1652 1645 1635 1553 1566 1575 1641 1634 1727 1635 1657 1634 1657 1653 1605 1688 1640 1649 1597 1680 1615 1767 1677 1694 1626 1703 1646 1646 1638 1692 1688 1682 1709 1677 1589 1662 1632 1695 1624 1640 1669 1676 1614 1702 1695 1639 1696 1668 1650 1715 1594 1696 1758 1626 1748 1732 1641 1693 1641 1566 1731 1655 1657 1710 1657 1645 1727 1700 1735 1662 1701 1703 1579 1652 1678 1675 1701 1675 1638 1651 1624 1749 1601 1631 1778 1687 1635 1761 1655 1754 1607 1634 1615 1753 1687 1673 1716 1719 1642 1704 1655 1671 1665 1606 1641 1724 1678 1679 1612 1705 1611 1707 1722 1698 1749 1696 1695 1705 1716 1741 1716 1740 1719 1727 1767 1739 1729 1734 1738 1760 1664 1718 1722 1732 1742 1790 1725 1840 1784 1794 1790 1783 1871 1842 1907 1775 1902 1938 1943 1842 1851 1976 1903 1922 1998 1976 2022 2083 2094 2089 2220 2211 2106 2242 2266 2276 2280 2374 2403 2299 2386 2351 2475 2513 2509 2589 2638 2622 2686 2539 2720 2739 2807 2854 2822 2923 2805 2878 2971 2964 3027 3036 3052 3102 3041 3165 3134 3219 3202 3197 3194 3102 3269 3272 3288 3199 3324 3171 3198 3175 3109 3054 3078 2979 3010 2948 2908 2838 2758 2806 2769 2649 2623 2718 2664 2602 2492 2557 2445 2310 2358 2305 2142 2307 2253 2204 2185 2194 2069 2149 2060 2071 2088 2049 1925 2011 1900 1963 1900 1855 1956 1975 1899 1910 1859 1884 1876 1787 1876 1858 1789 1820 1770 1772 1820 1769 1784 1757 1733 1726 1743 1781 1741 1703 1816 1739 1796 1789 1820 1734 1731 1707 1671 1755 1740 1722 1733 1795 1690 1711 1740 1797 1750 1777 1751 1803 1725 1746 1791 1728 1812 1658 1725 1673 1739 1778 1729 1754 1681 1733 1741 1769 1780 1774 1710 1628 1785 1693 1696 1755 1736 1722 1711 1721 1781 1724 1754 1733 1742 1756 1729 1753 1758 1857 1687 1757 1706 1767 1797 1785 1765 1763 1741 1669 1753 1744 1803 1752 1772 1723 1674 1709 1730 1792 1780 1798 1746 1781 1786 1770 1750 1760 1746 1767 1819 1725 1713 1764 1666 1806 1726 1780 1714 1706 1761 1808 1769 1769 1780 1719 1843 1761 1821 1835 1811 1801 1819 1899 1823 1805 1901 1838 1893 1857 1832 1808 1793 1890 1909 1886 1908 1873 1855 1930 1889 1863 1841 1976 1937 1944 1941 1938 1976 1935 1977 1966 1932 1990 1994 1957 2076 1994 1922 2074 1997 2044 2026 2027 1983 1997 2032 1911 1975 2000 1995 1986 2027 1961 1912 1989 1862 1890 1958 1996 1919 1957 1923 1929 1958 1957 1921 1949 1852 1956 1876 1946 1826 1884 1934 1866 1826 1876 1840 1843 1906 1968 1866 1884 1887 1833 1831 1948 1833 1801 1854 1862 1851 1928 1853 1803 1807 1890 1704 1751 1840 1755 1872 1819 1754 1778 1777 1875 1791 1779 1868 1761 1830 1777 1904 1781 1774 1830 1845 1852 1772 1851 1844 1830 1789 1847 1664 1756 1791 1800 1808 1834 1760 1814 1746 1786 1806 1835 1793 1763 1853 1762 1813 1763 1765 1756 1822 1799 1736 1814 1758 1871 1773 1823 1782 1812 1767 1788 1698 1748 1708 1766 1792 1727 1777 1710 1702 1732 1763 1732 1765 1772 1691 1776 1726 1811 1867 1778 1810 1786 1757 1770 1739 1761 1740 1816 1779 1813 1847 1696 1725 1716 1711 1804 1736 1731 1718 1832 1849 1755 1728 1763 1712 1789 1862 1745 1759 1684 1765 1764 1846 1821 1772 1770 1878 1836 1788 1695 1671 1750 1678 1822 1819 1826 1822 1821 1776 1784 1722 1843 1771 1770 1844 1803 1807 1750 1789 1817 1793 1790 1770 1830 1826 1753 1761 1767 1747 1771 1731 1819 1704 1775 1736 1749 1720 1745 1740 1803 1785 1752 1821 1736 1777 1760 1757 1817 1775 1847 1713 1684 1816 1794 1803 1760 1742 1811 1793 1817 1786 1827 1817 1841 1781 1816 1755 1800 1816 1746 1720 1772 1777 1731 1738 1712 1768 1827 1765 1854 1800 1751 1765 1841 1828 1759 1797 1823 1770 1839 1735 1770 1766 1812 1788 1773 1838 1771 1735 1810 1788 1798 1758 1724 1841 1819 1845 1758 1819 1797 1759 1793 1760 1735 1831 1847 1740 1798 1810 1838 1804 1812 1829 1761 1803 1833 1824 1769 1816 1845 1771 1823 1687 1828 1816 1827 1795 1808 1755 1833 1841 1812 1785 1744 1793 1754 1783 1827 1770 1755 1853 1795 1821 1826 1911 1700 1787 1827 1830 1764 1725 1784 1826 1807 1741 1806 1818 1832 1849 1804 1828 1760 1870 1850 1819 1872 1878 1825 1808 1759 1778 1816 1839 1893 1878 1785 1833 1832 1806 1858 1784 1835 1876 1895 1868 1758 1895 1804 1847 1899 1858 1890 1833 1876 1857 1915 1884 1846 1811 1821 1807 1820 1876 1867 1942 1805 1802 1904 1872 1851 1792 1843 1844 1863 1850 1842 1834 1888 1818 1808 1879 1791 1808 1786 1793 1795 1779 1773 1790 1776 1824 1847 1853 1871 1774 1821 1828 1828 1879 1814 1942 1836 1875 1804 1768 1849 1737 1769 1762 1903 1799 1871 1813 1884 1933 1822 1819 1875 1845 1802 1819 1792 1798 1902 1765 1842 1759 1861 1860 1797 1865 1833 1933 1773 1847 1760 1818 1795 1753 1811 1940 1898 1753 1829 1853 1876 1825 1850 1865 1808 1810 1787 1856 1826 1816 1815 1844 1836 1767 1779 1791 1803 1801 1820 1831 1831 1858 1802 1886 1832 1895 1806 1831 1800 1841 1835 1859 1806 1825 1860 1880 1825 1804 1834 1910 1789 1950 1844 1814 1823 1804 1851 1923 1803 1876 1926 1891 1898 1830 1926 1833 1856 1827 1950 1890 1903 1871 1869 1939 1937 1841 1839 1908 1847 1873 1879 1898 2009 1926 1909 1913 1902 1866 1883 1976 1960 1957 1891 1851 1905 1868 1950 1949 1870 1829 1940 1886 1865 1876 1830 1916 1878 1963 1883 1862 1970 1911 1925 1892 1938 1992 1850 1911 1898 1924 1940 1930 2072 1856 2042 1935 1961 1909 1931 1950 1849 1927 1930 1906 2001 1999 1978 2017 2015 2009 2064 2006 1938 1913 2047 2075 1968 1966 1966 1967 1970 2107 2034 2086 1993 2021 2056 2083 2080 2058 2014 2045 2096 2018 2124 2045 2037 2073 2093 2062 2136 2091 2008 1999 2092 2088 2035 2008 2092 2070 2106 2144 2065 2111 2109 2065 2091 2112 2083 2040 1999 2066 2032 2044 2071 2079 2012 2058 2034 2029 2061 2112 1904 2019 1927 1966 1953 1979 2030 1982 2036 2009 2003 2065 2042 1979 1964 1996 1908 1976 1961 2015 1887 1930 1918 1848 1938 1929 1893 1897 1946 1924 1886 1950 1891 1864 1924 1835 1923 1928 1864 1818 1828 1883 1914 1895 1920 1892 1850 1901 1871 1865 1887 1863 1904 1870 1832 1870 1919 1836 1895 1838 1974 1834 1857 1908 1917 1780 1887 1822 1815 1928 1879 1929 1829 1856 1847 1920 1964 1847 1966 1837 1906 1879 1875 1927 1815 1872 1851 1871 1914 1890 1966 1883 1826 1953 1968 1823 1876 1968 1850 1822 1901 1918 1878 1853 1879 1920 1867 1913 1878 1908 1829 1895 1886 1823 1859 1863 1906 1820 1932 1936 1901 1870 2016 1946 1902 1918 1868 1831 1771 1908 1867 1876 1952 1972 1925 1831 1931 1883 1914 1900 1858 1904 1855 1950 1880 1843 1902 1942 1897 1880 1873 1932 1924 2022 1940 1905 1890 1958 1861 1882 1924 1841 1893 1934 1866 1965 1968 1907 1957 1829 1913 1875 1872 1879 1983 1918 1923 1982 1940 1998 1887 1965 1978 1878 1965 1917 1992 1892 1936 1990 1954 2010 1959 2005 2015 1968 1993 2008 2083 2002 2050 2010 2058 1980 2006 2048 1971 2070 2079 2077 2124 2054 2106 2093 2159 2193 2108 2141 2123 2210 2143 2131 2291 2107 2187 2239 2151 2295 2249 2220 2319 2253 2295 2296 2287 2317 2403 2247 2328 2399 2291 2314 2385 2375 2298 2447 2415 2433 2327 2410 2380 2487 2429 2448 2420 2335 2296 2354 2392 2369 2389 2428 2312 2377 2388 2308 2318 2347 2286 2256 2203 2224 2177 2243 2211 2204 2242 2184 2180 2117 2118 2198 2111 2163 2110 2154 2063 2053 1944 2109 2034 2071 1990 1934 2109 1980 2046 1966 1948 1969 1948 1991 2015 1985 1961 1880 1953 2045 2007 2021 1877 1962 1978 2005 1976 1952 1964 1936 1943 1877 1935 1904 1939 1944 1973 1976 1961 2005 1939 1908 1930 1956 1880 1869 1878 1935 1903 1967 1956 1834 1936 1938 1911 1990 1954 1883 1979 1873 1924 2037 1893 1914 1982 1924 1919 1929 1906 1895 1921 1877 1937 1923 1871 2065 1964 2001 1924 1921 1898 1867 1910 1906 1924 1950 1855 1989 1914 1932 1962 1804 1903 2058 1961 1852 1929 1910 1978 1970 1968 1942 1911 1983 2007 2000 1980 1966 1933 1953 1985 1959 2028 1964 1938 1927 2037 1996 1962 1931 2081 2007 1960 1990 1982 1922 2029 1977 2077 2022 2029 2104 2052 2093 2061 2113 2109 2128 2123 2130 2079 2086 2100 2059 2043 2055 1988 2056 2130 2050 2112 2118 2095 2216 2115 2140 2182 2093 2150 2110 2157 2071 2081 2068 2150 2124 2113 2135 2072 2099 2123 2082 2116 2023 2072 2147 2055 2055 2160 2036 2088 2074 2150 2059 2108 1964 2051 2113 2113 2041 2023 1993 2006 2004 2031 1965 2042 1994 2046 1996 2015 2023 2081 2019 2009 1991 1943 1986 1905 1943 2021 2036 1900 1918 2004 1992 1922 2073 2121 1956 2063 1989 1931 1923 1966 1939 1979 1979 2014 1965 1943 1961 1896 1968 1869 1998 1902 2030 2066 2027 1971 1927 1944 1976 1924 1928 1972 2020 1928 1876 1913 1954 1969 1960 1937 1915 1970 1964 1897 1912 1952 1993 1983 1962 1949 1972 2006 1884 1957 1933 1955 1995 1997 1914 1931 2044 1932 1969 2023 1938 1961 2028 1960 1930 1976 2009 2021 1995 1925 1956 1959 1951 1923 1989 1988 1912 1946 1918 1940 1873 1984 2015 2012 2024 1910 2051 1919 2001 1949 1942 1859 1867 1923 1963 2043 1956 1969 1884 1908 1864 1958 1907 1964 1983 1958 2019 2018 1929 1993 1999 1917 1940 2075 1964 1885 1982 1979 1919 1968 1895 2011 1987 1981 1955 2047 1900 1958 1872 1908 1962 1958 1932 1965 1964 1933 1988 1906 1966 1956 1932 1995 1925 1966 2027 2016 1957 2013 1987 1927 2026 1920 1968 2027 1947 1956 2036 1958 2033 1874 2113 1983 1924 1998 1952 1876 2035 2063 1937 1972 1974 2074 2032 1958 1979 1965 1954 1960 1946 1983 1951 2010 1890 2004 1962 2059 1953 1948 2058 1961 1998 1962 1909 1989 1910 2014 2038 1995 1985 1960 2023 1971 2005 1969 2054 2031 1934 2041 1955 2020 1985 2047 1985 1977 1992 2025 1914 1953 2026 2020 1908 1985 1953 1971 1989 1963 1897 1929 1991 1986 2022 2074 2002 2005 1993 2055 1990 2008 1965 1992 2002 1949 1975 1993 2017 1988 1979 2012 2037 1974 2027 1929 2088 1989 2022 1987 1959 1942 1998 2032 1985 1994 2000 2064 2001 2100 2119 2060 1968 2058 2016 2016 2036 2049 2017 2004 1929 2031 2048 2072 1965 2003 2032 1979 1999 2000 2038 1989 1987 2001 1967 1992 1933 1951 2000 1943 1919 1953 2032 1964 1985 2015 1891 1996 2057 1933 1910 2052 2064 1940 1944 2039 2045 2008 1976 1996 2053 1976 1975 1936 1912 1993 2026 1920 2024 2040 1941 2006 1944 1969 1967 2115 1999 1910 1956 1974 2042 2008 1940 1958 1933 1977 1983 1958 2013 1932 1949 1968 2090 1951 2018 2028 1970 2088 1944 1987 2026 2036 2045 2014 1925 1952 2050 1988 1947 1932 1958 1977 2039 2074 1981 1963 2035 2000 2007 2012 2000 1991 1974 2021 1977 2064 2008 1979 1974 1992 1968 1961 1989 1979 1983 1994 1996 1958 2004 2070 1913 2024 2032 1958 1966 2039 2011 2063 2022 1946 2084 2012 1941 2014 1985 2052 2001 2012 2028 2004 2025 1990 1994 2098 2124 2034 2088 1999 2049 2065 2020 2120 2136 1975 2153 2068 2024 2027 2101 2032 2004 2087 2095 2008 2032 2113 2042 2145 2080 2116 2172 2015 2059 2027 2087 2000 2103 2089 2092 2113 2077 2085 2035 2048 2121 2208 2145 2130 2119 2111 2050 2059 2029 2012 2084 2054 2154 2113 2044 2022 2071 2071 1991 1997 2060 2050 2127 2058 2076 2019 2121 1984 2105 2033 2044 2040 2042 2057 2125 2113 2061 1979 2055 2033 2006 1990 2064 2038 2022 1998 1999 1932 2032 2027 1941 2010 2006 2055 2014 2023 2068 2041 1955 2024 2002 1909 1949 2028 2019 1948 2057 2066 2029 1945 2088 1927 2091 2039 2055 2052 2030 2029 2006 1958 1977 2025 2028 2057 2030 2002 2085 2086 1986 2058 2019 2032 2007 2020 2064 1926 2037 2055 2007 2073 2039 2032 2025 1964 1953 1978 2007 2030 2030 1996 1992 2087 1975 1955 1972 2046 1970 1975 2001 2102 2015 1994 1986 2037 2014 2012 2122 2015 1994 1960 2012 1952 1958 1964 1934 1981 1993 2054 2053 2041 2135 2055 2038 2032 1983 2055 2010 1994 1893 2091 2050 2002 2064 2039 2021 2003 2057 2078 2113 2073 1993 1952 1982 1990 2014 2049 2003 2076 2074 2019 1997 1990 2015 2046 2075 2010 2033 2166 2029 2021 2108 1983 2010 2099 2047 2039 2090 2034 2067 2009 1964 1948 2076 2062 2039 2036 2075 2048 2059 1959 2079 2050 2097 2046 2089 2081 1945 1964 2044 2067 2021 1989 2034 1954 2023 1979 2040 2060 2018 2105 2047 1985 2206 2005 2074 2035 2001 2126 2022 2141 2118 2104 2013 2041 2131 2072 2064 2056 2133 2052 2126 2175 2125 2056 2130 2083 2115 2111 2209 2064 2160 2127 2130 2092 2142 2167 2169 2121 2145 2054 2046 2170 2160 2061 2130 2175 2142 2107 2200 2104 2144 2165 2073 2169 2169 2174 2086 2157 2167 2192 2151 2124 2077 2161 2043 2089 2168 2122 2194 2101 2094 2215 2133 2234 2259 2156 2215 2145 2132 2229 2141 2170 2178 2176 2235 2223 2134 2223 2258 2186 2109 2283 2147 2208 2257 2199 2218 2237 2130 2237 2107 2209 2244 2186 2262 2157 2220 2095 2166 2135 2208 2208 2326 2157 2205 2193 2254 2193 2225 2193 2242 2129 2165 2143 2141 2216 2158 2119 2161 2156 2192 2100 2057 2122 2160 2090 2153 2086 2058 2012 2047 2065 2104 2112 2074 2041 2076 2171 2099 1996 2113 2106 2077 2027 2005 2019 2044 2054 2000 2095 2043 2120 2122 2100 2055 2036 2048 1958 2135 2103 1995 2008 2016 2074 2053 2109 2017 2043 2031 2107 2092 1959 2104 2025 2224 2057 2069 2167 2002 2053 2088 2029 2037 2075 2106 2041 2006 2050 1988 2186 2147 2032 2077 2086 2089 2040 2012 2066 2134 1931 2055 2122 2059 2041 2070 2045 2074 2006 2138 2030 2130 2024 2055 2077 2110 2052 2100 2040 2046 2121 2137 2020 2102 2125 2052 2023 2126 2109 2030 1978 2081 2124 2022 2024 2066 2057 2058 2068 1991 2108 2074 2017 1982 2029 2034 1999 2020 2021 2061 2084 2100 2108 2069 2076 2082 1997 2046 1956 2039 2106 1989 2020 2097 2101 2009 2071 2104 2061 2050 1956 2090 2053 2010 2048 2067 2056 1985 1988 2115 2086 2044 2094 2123 2122 2131 2098 2024 2080 2012 2090 2054 2113 2039 2159 2031 2072 2074 2159 2076 2098 2106 2060 2130 2079 2074 2086 2110 2113 2181 2078 2108 2038 2051 2131 2148 2169 2033 2123 2073 2126 2090 1998 2057 2116 2105 2067 2049 2070 2082 2118 2026 2076 2066 2067 2027 2053 2055 2054 2141 2103 2140 2106 2149 2058 2036 2066 2072 2113 2084 2167 2119 2080 2144 2126 2061 2049 2137 2065 2143 2033 2177 2067 2067 2125 2100 2055 2056 2104 2088 2195 2060 2126 2124 2101 2043 2125 2096 2120 2096 2086 2094 2158 2097 2131 2124 2088 2163 2072 2043 2131 2076 2099 2064 2057 2034 2009 2162 2109 2049 2073 2078 2175 2125 2031 2120 2128 2091 2119 2131 1988 2050 2029 2091 2020 2092 2091 2076 2107 2082 2065 2081 2066 2100 2070 1974 2166 2201 2037 2123 2097 2065 2117 2102 2102 1982 2068 2067 2051 2111 2042 2113 2133 2081 2141 2075 2096 2070 2132 2075 2100 2111 2052 2065 2119 2077 2146 2060 2066 2043 2129 2098 2028 2129 2114 2117 2117 2169 2095 2089 2010 2044 2114 2111 2188 2057 2133 2078 2132 2004 2090 2131 2148 2063 2065 2107 2088 2001 2054 2131 2041 2155 2163 2159 2101 2000 2122 2165 2107 2141 2028 2064 2126 2115 2141 2160 2158 2154 2112 2143 2146 2055 2003 2082 2055 2111 2002 2060 2135 2112 2079 2134 2160 2097 2112 2117 2168 2111 2058 2064 2136 2138 2109 2149 2082 2154 2084 2031 1964 2124 2146 2104 2009 2073 2090 2136 2078 2086 2158 2075 2115 2132 2173 2114 2149 2101 2135 2165 2094 2068 2123 2134 2121 2142 2090 2145 2069 2061 2044 2142 2068 2180 2136 2145 2115 2094 2117 2173 2084 2136 2044 2032 2153 2100 2236 2119 2173 2055 2134 2064 2140 2092 2119 2088 2024 2145 2149 2106 2099 2126 2168 2078 2153 2030 2060 2156 2137 2112 2177 2154 2099 2111 2010 2120 2015 2030 1990 2070 2144 2059 2150 2078 2091 2084 2147 2112 2136 2003 2101 2123 2193 2070 2067 2042 2107 2065 2086 2146 2132 2101 2155 2100 2057 2098 2159 2135 2107 2052 2128 2132 2162 2066 2115 2177 2114 2092 2124 2108 2098 2133 2110 2051 2105 2213 2118 2072 2070 2054 2122 2119 2147 2120 2181 2117 2090 2099 2169 2121 2183 2174 2189 2163 2110 2106 2227 2136 2143 2147 2100 2103 2185 2111 2092 2176 2093 2129 2107 2211 2100 2124 2141 2163 2114 2140 2092 2135 2008 2129 2188 2105 2068 2145 2175 2166 2134 2168 2208 2251 2166 2155 2141 2113 2204 2201 2093 2218 2190 2200 2210 2140 2308 2147 2310 2158 2085 2162 2140 2198 2209 2241 2216 2225 2117 2260 2205 2177 2294 2237 2224 2225 2147 2200 2121 2271 2148 2235 2241 2204 2210 2123 2209 2266 2157 2401 2145 2170 2231 2242 2153 2208 2243 2307 2282 2272 2237 2227 2158 2203 2207 2249 2165 2187 2176 2273 2163 2093 2201 2177 2221 2291 2216 2239 2227 2237 2260 2263 2231 2131 2214 2286 2237 2290 2237 2223 2212 2220 2226 2225 2270 2254 2194 2128 2189 2155 2225 2174 2216 2182 2138 2199 2237 2189 2094 2173 2140 2190 2109 2132 2088 2164 2182 2168 2160 2179 2190 2183 2202 2173 2172 2250 2097 2184 2256 2094 2161 2141 2104 2156 2243 2104 2142 2192 2128 2236 2094 2116 2113 2199 2194 2197 2110 2182 2100 2164 2118 2218 2104 2268 2200 2204 2164 2165 2117 2127 2141 2178 2234 2242 2315 2155 2093 2133 2133 2142 2125 2042 2143 2125 2212 2176 2127 2165 2122 2081 2174 2129 2138 2221 2096 2177 2190 2216 2173 2204 2150 2263 2157 2131 2137 2162 2219 2104 2221 2156 2099 2157 2152 2127 2209 2075 2166 2113 2134 2054 2152 2100 2264 2253 2206 2192 2078 2159 2175 2242 2199 2178 2182 2206 2157 2198 2242 2114 2188 2236 2186 2253 2284 2264 2212 2202 2201 2187 2237 2174 2194 2177 2232 2177 2240 2313 2263 2193 2252 2269 2354 2204 2265 2335 2285 2271 2232 2273 2312 2164 2210 2250 2218 2311 2368 2271 2343 2286 2378 2319 2339 2362 2355 2346 2359 2453 2359 2346 2413 2371 2422 2362 2440 2422 2433 2475 2405 2421 2374 2377 2301 2442 2383 2428 2447 2470 2410 2473 2457 2509 2512 2440 2478 2433 2431 2481 2527 2611 2432 2614 2435 2555 2476 2526 2516 2547 2487 2470 2566 2459 2418 2444 2517 2498 2437 2448 2524 2525 2555 2440 2420 2532 2483 2515 2469 2479 2597 2456 2466 2509 2551 2495 2492 2483 2491 2495 2328 2475 2449 2424 2441 2435 2388 2384 2382 2481 2408 2278 2449 2317 2332 2350 2429 2384 2455 2366 2293 2430 2347 2380 2331 2314 2296 2302 2269 2265 2292 2262 2226 2227 2276 2290 2226 2241 2270 2235 2250 2215 2231 2187 2288 2281 2341 2269 2286 2234 2149 2310 2184 2199 2231 2221 2262 2192 2183 2264 2265 2211 2162 2274 2234 2222 2252 2200 2209 2196 2242 2217 2228 2239 2160 2228 2271 2259 2251 2178 2218 2240 2188 2222 2230 2197 2211 2211 2200 2184 2252 2172 2246 2242 2275 2150 2182 2114 2277 2250 2190 2208 2271 2212 2192 2221 2119 2210 2229 2172 2288 2158 2233 2171 2257 2166 2184 2088 2237 2105 2206 2281 2183 2211 2220 2123 2267 2161 2172 2272 2224 2246 2273 2118 2210 2208 2193 2190 2203 2232 2240 2297 2196 2145 2179 2164 2242 2097 2176 2232 2285 2214 2151 2296 2193 2247 2238 2199 2094 2154 2216 2202 2225 2231 2159 2267 2207 2229 2144 2312 2231 2178 2233 2264 2234 2290 2299 2174 2066 2164 2183 2115 2159 2214 2220 2206 2215 2200 2185 2161 2238 2228 2179 2195 2166 2180 2273 2118 2179 2197 2245 2100 2207 2126 2206 2149 2224 2166 2208 2156 2183 2252 2283 2188 2250 2178 2225 2238 2244 2195 2234 2259 2169 2270 2194 2237 2167 2233 2186 2089 2242 2168 2258 2166 2259 2215 2190 2236 2310 2196 2171 2175 2177 2177 2179 2228 2185 2234 2242 2163 2200 2181 2271 2147 2133 2212 2218 2136 2186 2218 2222 2226 2110 2217 2152 2328 2186 2208 2179 2210 2137 2183 2249 2169 2184 2183 2172 2220 2259 2141 2111 2176 2195 2226 2223 2250 2181 2147 2188 2189 2156 2215 2170 2263 2201 2170 2189 2214 2225 2056 2159 2175 2169 2124 2143 2214 2158 2209 2161 2213 2152 2247 2131 2211 2156 2142 2137 2204 2165 2175 2152 2251 2259 2230 2203 2201 2260 2231 2171 2262 2128 2211 2181 2215 2189 2209 2202 2188 2142 2221 2257 2190 2141 2168 2190 2232 2222 2199 2155 2195 2186 2156 2225 2188 2208 2237 2198 2240 2218 2195 2247 2186 2222 2182 2273 2147 2221 2129 2195 2169 2153 2164 2138 2148 2146 2125 2233 2211 2296 2224 2135 2152 2186 2084 2149 2139 2150 2174 2218 2116 2252 2189 2175 2137 2119 2168 2187 2201 2311 2230 2182 2271 2091 2151 2201 2242 2222 2136 2098 2214 2261 2234 2197 2208 2121 2213 2143 2204 2224 2208 2207 2229 2203 2184 2162 2192 2220 2195 2271 2173 2113 2352 2268 2260 2188 2290 2171 2223 2184 2128 2210 2152 2277 2254 2148 2268 2227 2258 2257 2220 2202 2173 2227 2264 2235 2228 2293 2291 2203 2192 2135 2237 2111 2206 2213 2337 2209 2149 2173 2215 2246 2292 2228 2309 2121 2205 2258 2218 2173 2190 2315 2264 2255 2248 2160 2126 2250 2230 2187 2239 2164 2190 2187 2134 2219 2182 2210 2193 2281 2171 2240 2220 2197 2158 2306 2199 2136 2237 2252 2206 2121 2299 2270 2110 2209 2223 2175 2176 2206 2196 2263 2187 2199 2146 2180 2299 2161 2198 2211 2154 2238 2167 2214 2265 2254 2136 2249 2219 2218 2282 2210 2254 2168 2227 2232 2155 2164 2265 2283 2166 2227 2244 2208 2174 2173 2195 2163 2163 2223 2285 2325 2231 2265 2211 2261 2203 2267 2274 2228 2204 2169 2253 2254 2206 2252 2237 2219 2241 2267 2210 2277 2258 2295 2173 2211 2337 2210 2316 2269 2229 2211 2222 2302 2303 2226 2240 2284 2227 2239 2214 2262 2312 2162 2307 2158 2206 2211 2216 2235 2252 2254 2238 2180 2240 2203 2178 2238 2265 2207 2325 2271 2281 2253 2162 2352 2247 2327 2273 2289 2272 2289 2210 2237 2188 2173 2244 2245 2235 2234 2167 2187 2215 2213 2351 2223 2183 2303 2252 2182 2323 2212 2262 2211 2246 2256 2189 2244 2282 2210 2221 2208 2186 2155 2218 2288 2290 2290 2216 2209 2266 2224 2245 2262 2259 2148 2215 2180 2244 2147 2318 2233 2140 2176 2286 2295 2233 2247 2237 2256 2180 2283 2157 2273 2297 2154 2321 2206 2141 2188 2241 2309 2262 2254 2172 2193 2251 2267 2317 2214 2160 2255 2228 2231 2239 2210 2194 2207 2194 2282 2219 2230 2146 2264 2254 2253 2141 2218 2132 2226 2220 2203 2283 2226 2185 2199 2173 2211 2189 2204 2256 2240 2210 2223 2191 2275 2192 2198 2195 2184 2151 2220 2301 2105 2237 2216 2271 2172 2184 2124 2249 2185 2235 2221 2309 2230 2265 2294 2239 2297 2181 2238 2254 2186 2168 2213 2248 2278 2223 2327 2281 2217 2257 2245 2254 2162 2299 2176 2161 2167 2246 2215 2298 2298 2212 2244 2208 2214 2204 2182 2249 2167 2235 2169 2305 2210 2237 2296 2281 2202 2200 2210 2175 2248 2305 2179 2308 2207 2255 2208 2255 2239 2245 2278 2209 2249 2276 2267 2212 2337 2347 2276 2312 2261 2288 2325 2321 2332 2242 2263 2272 2286 2314 2279 2273 2305 2293 2272 2335 2271 2310 2302 2249 2323 2215 2334 2324 2296 2305 2380 2424 2313 2405 2309 2336 2293 2356 2371 2306 2336 2376 2416 2346 2424 2354 2395 2447 2423 2341 2413 2473 2310 2424 2342 2298 2375 2368 2362 2461 2299 2423 2492 2510 2505 2517 2428 2483 2409 2531 2499 2507 2427 2447 2449 2443 2394 2456 2442 2453 2464 2535 2473 2504 2521 2521 2425 2458 2501 2509 2489 2551 2493 2486 2513 2449 2539 2371 2486 2523 2527 2427 2541 2425 2491 2447 2486 2482 2492 2519 2454 2431 2485 2444 2449 2402 2380 2389 2418 2454 2491 2472 2412 2334 2354 2467 2352 2359 2398 2369 2384 2410 2327 2390 2293 2431 2308 2391 2452 2315 2358 2355 2412 2350 2341 2373 2344 2387 2256 2331 2346 2408 2297 2388 2387 2307 2349 2279 2356 2284 2349 2287 2301 2360 2301 2297 2330 2331 2296 2315 2252 2256 2266 2283 2273 2215 2300 2157 2297 2329 2272 2326 2261 2251 2294 2273 2249 2262 2326 2249 2298 2233 2215 2226 2314 2218 2270 2321 2281 2270 2263 2303 2228 2295 2298 2221 2232 2223 2309 2257 2363 2269 2305 2200 2230 2329 2309 2328 2221 2226 2277 2315 2239 2345 2239 2240 2358 2324 2362 2238 2199 2265 2255 2295 2167 2337 2192 2272 2184 2277 2246 2242 2296 2254 2245 2276 2283 2254 2164 2234 2361 2203 2296 2290 2190 2346 2297 2255 2324 2396 2271 2193 2295 2311 2230 2279 2303 2214 2228 2262 2278 2182 2246 2251 2299 2282 2277 2338 2286 2319 2228 2230 2215 2212 2335 2167 2345 2216 2298 2242 2245 2185 2260 2351 2209 2225 2309 2281 2311 2315 2268 2292 2322 2278 2316 2286 2317 2281 2305 2293 2260 2253 2262 2294 2242 2397 2441 2329 2292 2197 2286 2212 2317 2231 2262 2335 2308 2270 2316 2277 2282 2259 2328 2220 2281 2310 2247 2321 2317 2267 2255 2244 2232 2312 2251 2234 2229 2264 2319 2239 2391 2211 2312 2230 2256 2274 2265 2208 2342 2244 2255 2263 2338 2234 2174 2250 2289 2337 2359 2284 2218 2282 2292 2254 2234 2297 2260 2320 2305 2232 2312 2267 2229 2225 2224 2235 2195 2263 2262 2290 2319 2134 2261 2212 2219 2247 2238 2233 2220 2271 2258 2222 2187 2304 2202 2247 2275 2265 2195 2243 2271 2167 2236 2193 2266 2297 2261 2248 2213 2236 2253 2168 2219 2268 2203 2214 2290 2240 2354 2110 2351 2226 2262 2288 2234 2322 2245 2222 2261 2186 2290 2286 2234 2329 2274 2256 2206 2229 2359 2297 2251 2285 2194 2331 2201 2222 2194 2310 2189 2202 2255 2239 2302 2219 2276 2233 2313 2305 2301 2259 2242 2247 2246 2206 2244 2254 2288 2237 2328 2268 2179 2206 2343 2278 2185 2266 2227 2375 2238 2266 2243 2269 2274 2284 2197 2306 2324 2255 2240 2215 2199 2267 2194 2207 2254 2274 2362 2297 2263 2231 2189 2258 2246 2268 2254 2252 2250 2272 2275 2193 2263 2208 2166 2173 2265 2334 2214 2276 2295 2245 2285 2300 2204 2284 2359</counts>
			</dataPoints>
		</scan>
	</xrdMeasurement>
</xrdMeasurements>
