<?xml version="1.0"?>
<xrdMeasurements xmlns="http://www.xrdml.com/XRDMeasurement/2.3" xmlns:xsi="http://www.w3.org/2001/XMLSchema-instance" xsi:schemaLocation="http://www.xrdml.com/XRDMeasurement/2.3 http://www.xrdml.com/XRDMeasurement/2.3/XRDMeasurement.xsd" status="Completed" recordIdentifier="{B7AE86CB-947B-4805-8543-AC636D8E0156}">
	<comment>
		<entry/>
	</comment>
	<sample type="To be analyzed">
		<id>GPSS_Li1p6Co0p4Cr0p4Zn0p2Cl4_102025_68f7253b028f64128e25d091</id>
		<name></name>
		<preparedBy></preparedBy>
	</sample>
	<xrdMeasurement measurementType="Scan" status="Completed" sampleMode="Reflection">
		<usedWavelength intended="K-Alpha 1">
			<kAlpha1 unit="Angstrom">1.5405980</kAlpha1>
			<kAlpha2 unit="Angstrom">1.5444260</kAlpha2>
			<kBeta unit="Angstrom">1.3922500</kBeta>
			<ratioKAlpha2KAlpha1>0.5000</ratioKAlpha2KAlpha1>
		</usedWavelength>
		<incidentBeamPath>
			<radius unit="mm">145.00</radius>
			<xRayTube id="1010048" name="Empyrean Cu LFF HR (9430 033 7310x)">
				<tension unit="kV">40.0</tension>
				<current unit="mA">15.0</current>
				<anodeMaterial>Cu</anodeMaterial>
				<focus type="Line">
					<length unit="mm">12.0</length>
					<width unit="mm">0.4</width>
					<takeOffAngle unit="deg">6.0</takeOffAngle>
				</focus>
			</xRayTube>
			<sollerSlit id="21010002" name="Soller slits 0.04 rad.">
				<opening unit="rad">0.0400</opening>
			</sollerSlit>
			<mask id="22031000" name="Fixed mask 13 mm">
				<width unit="mm">9.00</width>
			</mask>
			<divergenceSlit id="22120001" name="Divergence slit 1°" xsi:type="fixedDivergenceSlitType">
				<distanceToSample unit="mm">50.00</distanceToSample>
				<height unit="mm">1.52</height>
			</divergenceSlit>
		</incidentBeamPath>
		<sampleMovement xsi:type="spinningSampleMovementType">
			<spinnerRevolutionTime unit="seconds">1.0</spinnerRevolutionTime>
		</sampleMovement>
		<diffractedBeamPath>
			<radius unit="mm">145.00</radius>
			<antiScatterSlit id="22090040" name="AS slit 9 mm (PIXcel)" xsi:type="fixedAntiScatterSlitType">
				<height unit="mm">9.00</height>
			</antiScatterSlit>
			<sollerSlit id="21020003" name="Large Soller slits 0.04 rad.">
				<opening unit="rad">0.0400</opening>
			</sollerSlit>
			<filter id="20030001" name="Large beta-filter Nickel">
				<material>Ni</material>
				<thickness unit="mm">0.020</thickness>
			</filter>
			<detector id="7010019" name="PIXcel1D-Medipix3 detector" xsi:type="rtmsDetectorType">
				<phd unit="keV">
					<lowerLevel>4.02</lowerLevel>
					<upperLevel>11.27</upperLevel>
				</phd>
				<mode>Scanning</mode>
				<activeLength unit="deg">5.542</activeLength>
			</detector>
		</diffractedBeamPath>
		<scan appendNumber="0" mode="Continuous" scanAxis="Gonio" status="Completed">
			<header>
				<startTimeStamp>2025-10-26T16:37:16-07:00</startTimeStamp>
				<endTimeStamp>2025-10-26T16:45:23-07:00</endTimeStamp>
				<author>
					<name>AutomatedUser</name>
				</author>
				<source>
					<applicationSoftware version="1.7b (136)">PANalytical Aeris Instrument Suite</applicationSoftware>
					<instrumentControlSoftware version="3.2.00000000 20240306">AERIS</instrumentControlSoftware>
					<instrumentID>950485</instrumentID>
				</source>
			</header>
			<dataPoints>
				<positions axis="2Theta" unit="deg">
					<startPosition>10.00943322</startPosition>
					<endPosition>99.99442286</endPosition>
				</positions>
				<positions axis="Omega" unit="deg">
					<startPosition>5.00471661</startPosition>
					<endPosition>49.99721143</endPosition>
				</positions>
				<commonCountingTime unit="seconds">12.495</commonCountingTime>
				<counts unit="counts">3009 3009 3055 3020 3119 3024 3031 3046 3058 3063 3043 3066 3035 2969 3006 2982 3063 2991 3029 3107 3088 3057 2975 2942 3064 3106 3106 3102 3012 2977 3092 3049 3061 3050 3166 3144 3184 3141 3117 3077 3071 3113 3072 3247 3089 3146 3114 3110 3196 3184 3125 3130 3241 3222 3290 3124 3160 3115 3195 3184 3255 3167 3280 3301 3145 3193 3255 3253 3212 3274 3306 3130 3291 3236 3359 3337 3230 3315 3296 3311 3225 3254 3320 3310 3324 3304 3338 3333 3376 3421 3372 3431 3313 3348 3203 3349 3291 3311 3287 3196 3374 3324 3339 3360 3250 3411 3342 3419 3309 3304 3305 3324 3404 3382 3395 3290 3393 3351 3340 3302 3422 3362 3459 3377 3505 3424 3466 3357 3366 3351 3503 3403 3439 3404 3491 3355 3423 3482 3462 3499 3444 3421 3479 3456 3444 3399 3410 3401 3474 3305 3398 3382 3351 3360 3404 3409 3513 3381 3387 3418 3464 3481 3451 3403 3447 3472 3329 3372 3373 3417 3477 3456 3464 3365 3286 3364 3352 3386 3360 3338 3352 3459 3412 3472 3308 3400 3424 3273 3404 3416 3364 3379 3349 3425 3400 3390 3316 3322 3363 3411 3424 3373 3341 3523 3349 3398 3393 3397 3319 3327 3328 3414 3348 3312 3244 3287 3320 3325 3358 3349 3248 3441 3281 3354 3382 3278 3276 3287 3242 3302 3282 3346 3346 3262 3276 3273 3345 3304 3281 3257 3236 3288 3423 3298 3258 3224 3213 3268 3198 3120 3205 3290 3310 3298 3349 3242 3332 3176 3163 3259 3169 3233 3332 3277 3213 3111 3327 3304 3305 3233 3328 3205 3286 3186 3205 3230 3285 3136 3211 3118 3176 3195 3213 3221 3256 3091 3247 3223 3292 3312 3195 3355 3170 3289 3278 3248 3249 3245 3297 3262 3161 3290 3228 3242 3292 3242 3301 3257 3121 3163 3250 3215 3353 3314 3269 3284 3282 3288 3317 3276 3259 3417 3337 3256 3348 3348 3324 3336 3322 3262 3274 3264 3362 3388 3385 3352 3329 3362 3379 3422 3418 3330 3395 3336 3543 3510 3354 3464 3403 3398 3414 3435 3446 3393 3345 3411 3393 3389 3475 3366 3362 3473 3388 3419 3351 3445 3379 3512 3473 3507 3583 3598 3487 3492 3556 3479 3449 3520 3477 3653 3461 3604 3500 3516 3438 3559 3578 3593 3647 3599 3579 3565 3508 3541 3605 3591 3644 3531 3526 3434 3564 3531 3539 3535 3596 3529 3528 3478 3589 3717 3685 3606 3543 3507 3688 3620 3673 3649 3670 3667 3687 3680 3584 3667 3607 3721 3695 3675 3749 3714 3664 3650 3794 3848 3757 3940 3836 3869 3944 3918 3991 4027 3926 4064 3863 3960 3943 3909 3904 3833 4078 3850 3925 3828 3978 3896 3886 3955 3926 3760 3947 3854 3814 3913 3878 3871 3871 3973 3964 3914 3896 3965 3904 3853 3898 3865 3735 3814 3783 3865 3961 3770 3892 3881 3736 3723 3725 3710 3728 3597 3740 3549 3675 3494 3637 3564 3482 3537 3604 3518 3548 3520 3498 3335 3389 3494 3425 3408 3364 3309 3436 3304 3413 3319 3425 3250 3333 3361 3341 3335 3388 3342 3426 3356 3339 3302 3319 3136 3301 3284 3353 3272 3268 3189 3214 3311 3192 3333 3294 2988 3175 3198 3191 3173 3231 3162 3237 3213 3208 3163 3136 3137 3185 3095 3197 3191 3123 3094 3026 3182 3011 3142 3138 2991 3066 3014 3021 3115 3044 3063 3067 3021 3031 3060 2990 3055 3064 2963 2986 2933 3022 3027 3079 3079 3003 3040 2962 2936 3049 3009 3037 2985 3072 3069 3081 3021 2974 3035 3046 3040 3020 2930 3032 3041 3074 3005 3012 3027 2897 2955 2991 2865 2931 2903 2882 2966 2980 2862 2972 2970 2845 3003 2963 2920 2925 2888 2979 2871 2877 2859 2912 2949 2935 2896 2896 2889 2879 2933 2988 2927 2964 2981 2976 2908 2890 3003 2947 2971 2836 2930 2950 2974 2878 2957 2952 2977 3010 2891 3044 3061 2978 3072 2994 2910 3027 2922 2817 3012 2955 2985 2986 2889 2950 2868 3034 2829 2943 2946 2944 2838 2932 2893 2911 2871 2974 2826 2864 2840 2929 3031 2882 2846 2942 2959 2842 2838 2957 2879 2904 2943 2985 3013 2806 2931 2835 2880 2855 2870 2780 2901 2726 2932 2800 2793 2774 2831 2796 2740 2735 2892 2686 2797 2781 2849 2770 2747 2766 2829 2882 2903 2739 2765 2816 2797 2776 2772 2892 2802 2829 2912 2756 2752 2741 2725 2817 2770 2873 2831 2849 2810 2756 2749 2757 2843 2686 2794 2809 2762 2721 2860 2825 2773 2795 2823 2724 2656 2710 2753 2772 2716 2816 2868 2789 2763 2683 2689 2785 2717 2746 2670 2790 2760 2840 2725 2733 2715 2743 2668 2685 2787 2594 2774 2728 2743 2680 2660 2789 2807 2691 2711 2746 2787 2783 2704 2722 2707 2835 2746 2737 2724 2770 2676 2770 2675 2740 2669 2698 2538 2690 2798 2765 2686 2804 2810 2700 2715 2650 2667 2711 2662 2729 2604 2724 2635 2703 2776 2652 2780 2683 2683 2758 2680 2621 2682 2600 2665 2647 2659 2689 2726 2607 2789 2606 2610 2791 2639 2651 2506 2599 2634 2630 2552 2559 2699 2622 2680 2588 2615 2607 2569 2655 2534 2620 2612 2542 2645 2595 2591 2659 2622 2684 2599 2620 2626 2589 2608 2594 2566 2583 2542 2523 2595 2559 2678 2609 2551 2635 2521 2492 2604 2595 2687 2572 2556 2578 2558 2671 2590 2601 2527 2585 2552 2605 2486 2613 2530 2624 2520 2588 2536 2496 2514 2510 2587 2560 2562 2543 2579 2505 2628 2507 2517 2613 2499 2534 2518 2513 2584 2496 2567 2492 2449 2505 2478 2483 2589 2541 2560 2526 2561 2411 2493 2561 2498 2469 2498 2469 2567 2515 2473 2564 2437 2457 2501 2382 2471 2512 2509 2560 2466 2472 2552 2493 2611 2478 2468 2481 2527 2477 2422 2481 2547 2505 2427 2535 2450 2467 2454 2476 2442 2480 2441 2498 2428 2367 2522 2389 2423 2442 2458 2567 2469 2488 2591 2491 2505 2459 2481 2554 2582 2468 2489 2571 2538 2613 2477 2444 2525 2472 2548 2512 2459 2383 2566 2392 2465 2516 2543 2474 2453 2431 2467 2549 2441 2388 2409 2444 2388 2384 2435 2449 2481 2551 2481 2476 2500 2468 2522 2497 2400 2379 2582 2500 2505 2523 2438 2456 2475 2453 2542 2510 2527 2482 2476 2441 2476 2444 2371 2589 2485 2413 2455 2500 2559 2493 2413 2481 2460 2472 2457 2527 2492 2580 2459 2526 2471 2507 2462 2513 2506 2407 2419 2468 2458 2412 2515 2522 2449 2487 2458 2413 2478 2475 2370 2389 2581 2408 2506 2478 2478 2416 2556 2431 2365 2425 2432 2448 2417 2368 2363 2451 2412 2326 2410 2475 2418 2435 2442 2378 2269 2518 2437 2328 2363 2419 2349 2432 2342 2313 2320 2393 2375 2398 2393 2386 2343 2251 2370 2275 2281 2412 2457 2348 2281 2369 2326 2272 2407 2213 2323 2283 2264 2183 2284 2251 2260 2274 2257 2334 2253 2240 2292 2249 2233 2297 2240 2215 2215 2259 2285 2226 2364 2248 2173 2212 2207 2239 2292 2256 2118 2238 2257 2170 2213 2181 2215 2151 2184 2145 2142 2155 2105 2180 2134 2198 2097 2137 2084 2126 2011 2109 2016 2137 2058 2165 2066 2128 2073 2138 2063 2081 2039 2064 2089 2086 2062 2107 2022 2090 2061 1982 2017 2035 1920 2009 1951 2014 2014 1988 2026 2020 1945 2005 1981 2042 2057 2026 2048 2059 2001 1980 2032 2005 1972 1923 1996 1902 1949 2005 1932 1873 1961 1897 1901 1960 1929 1867 1935 1948 1857 1958 1870 2010 1860 2008 2029 1944 1884 1872 1877 1909 1935 1907 2000 1885 1884 1904 1864 1876 1912 1924 1871 1919 1824 1893 1879 1916 1810 1906 1917 1887 1936 1837 1853 1883 1850 1905 1927 1882 1961 1933 1972 1894 1950 1828 1877 1814 1948 1833 1832 1873 1848 1856 1898 1799 1899 1867 1899 1843 1858 1901 1835 1817 1825 1895 1851 1847 1841 1915 1790 1887 1915 1868 1867 1896 1845 1808 1863 1923 1815 1860 1868 1907 1891 1907 1895 1867 1810 1858 1919 1899 1823 1848 1903 1864 1804 1810 1858 1919 1832 1781 1915 1897 1870 1870 1843 1858 1814 1822 1828 1845 1907 1799 1762 1716 1801 1840 1819 1777 1788 1773 1769 1765 1844 1778 1820 1860 1734 1755 1797 1739 1732 1811 1883 1762 1813 1817 1831 1802 1806 1742 1789 1801 1755 1752 1789 1760 1745 1800 1803 1793 1804 1891 1788 1834 1803 1810 1813 1805 1792 1753 1858 1799 1805 1844 1859 1772 1868 1838 1832 1767 1791 1780 1769 1799 1710 1825 1838 1855 1808 1774 1754 1734 1747 1787 1756 1789 1855 1882 1786 1810 1770 1776 1818 1812 1821 1786 1775 1769 1752 1695 1763 1822 1809 1805 1820 1852 1811 1896 1718 1769 1786 1757 1905 1817 1823 1746 1795 1723 1651 1746 1761 1713 1755 1759 1673 1757 1793 1756 1850 1797 1726 1738 1769 1817 1755 1796 1827 1808 1886 1807 1828 1747 1783 1763 1766 1793 1795 1764 1681 1722 1762 1755 1789 1718 1756 1716 1724 1748 1700 1701 1756 1671 1743 1752 1718 1746 1654 1671 1709 1778 1763 1720 1706 1740 1757 1664 1694 1663 1685 1629 1729 1635 1595 1631 1689 1651 1703 1716 1691 1693 1669 1665 1755 1669 1654 1584 1636 1653 1667 1712 1609 1654 1571 1652 1661 1598 1646 1624 1606 1540 1603 1697 1669 1572 1552 1604 1565 1557 1498 1584 1524 1519 1499 1563 1550 1550 1555 1618 1553 1591 1601 1531 1491 1584 1518 1524 1521 1499 1503 1521 1563 1529 1503 1585 1483 1507 1562 1531 1541 1545 1504 1562 1560 1526 1482 1480 1537 1532 1502 1566 1519 1492 1434 1443 1562 1509 1439 1438 1448 1456 1466 1443 1421 1503 1439 1496 1477 1475 1481 1486 1408 1419 1448 1425 1456 1471 1448 1439 1453 1465 1426 1485 1440 1383 1435 1340 1389 1395 1401 1476 1404 1435 1377 1428 1356 1384 1358 1438 1381 1391 1421 1410 1395 1393 1387 1429 1437 1358 1363 1402 1445 1385 1432 1489 1361 1360 1410 1318 1405 1424 1381 1424 1420 1332 1353 1308 1394 1387 1381 1370 1343 1428 1427 1385 1471 1467 1420 1520 1401 1469 1462 1422 1446 1421 1477 1472 1453 1495 1435 1491 1481 1446 1567 1401 1482 1401 1448 1489 1437 1444 1492 1376 1503 1460 1408 1425 1424 1427 1443 1422 1387 1409 1437 1422 1399 1466 1405 1396 1475 1469 1456 1391 1435 1395 1413 1438 1432 1373 1451 1312 1339 1387 1397 1393 1356 1372 1288 1319 1326 1318 1346 1341 1396 1369 1297 1306 1265 1229 1315 1307 1266 1330 1309 1230 1299 1259 1218 1209 1261 1290 1225 1276 1228 1250 1273 1284 1307 1305 1286 1269 1322 1240 1335 1229 1258 1201 1340 1312 1221 1248 1285 1253 1251 1254 1285 1324 1312 1252 1294 1301 1294 1372 1409 1336 1351 1337 1363 1346 1448 1386 1434 1327 1414 1421 1448 1480 1428 1398 1364 1412 1361 1364 1455 1348 1370 1394 1314 1260 1290 1323 1311 1275 1323 1343 1331 1262 1348 1327 1330 1365 1335 1251 1318 1239 1269 1264 1314 1380 1246 1317 1352 1277 1251 1262 1258 1203 1299 1232 1249 1210 1164 1205 1208 1146 1175 1231 1157 1221 1248 1101 1276 1208 1195 1183 1126 1192 1115 1099 1125 1131 1051 1107 1150 1115 1110 1144 1127 1128 1076 1108 1119 1096 1114 1075 1108 1087 1115 1156 1144 1120 1119 1097 1069 1102 1129 1134 1100 1069 1148 1127 1087 1069 1096 1106 1093 1038 1072 1035 1047 1059 1097 1099 1047 1065 1121 1049 1094 1064 989 1091 1040 1050 1040 1069 1044 986 1089 1099 1058 1093 1056 1075 948 1041 1071 1061 1072 1019 1066 1012 974 1050 988 1100 1005 1079 1070 1103 1032 1076 1065 1031 1006 1030 1022 1028 1039 1081 1094 1062 1037 1036 1093 1109 1061 1083 980 1069 1075 1029 1065 1034 1010 1020 1001 1002 1046 1016 1095 1094 1016 1070 1043 1003 1083 1062 1099 999 994 1042 1008 1063 999 1094 1015 1006 1062 1042 1062 1013 985 1012 1063 1004 1015 980 1045 1015 1035 1050 1053 1025 981 1008 1029 1001 1052 1068 1014 1023 969 951 999 991 998 1019 974 993 1011 961 1019 928 1011 983 1012 979 993 1033 992 946 951 998 960 1018 981 1014 992 1010 1036 1004 939 1050 1005 1048 1063 1007 1066 1071 1015 1042 982 973 1021 1025 1030 1017 958 985 962 1030 1016 1012 1005 1036 965 994 958 1004 1039 971 995 1000 1012 1012 1019 1021 1010 949 985 1021 955 952 1030 946 976 979 1015 977 956 1061 967 1025 1046 1034 990 1057 988 1050 968 964 992 1036 1013 1023 983 980 1015 947 1021 959 1001 1032 956 973 996 1020 971 924 1020 934 974 955 1022 1032 1020 965 982 968 981 1001 1041 926 1020 994 1014 972 969 968 1029 970 998 1031 944 999 941 998 1017 1033 1037 1008 983 962 1016 1003 985 964 990 941 999 961 1012 1001 996 1013 938 902 1010 998 947 933 962 932 962 991 937 1030 949 1002 927 996 986 984 973 939 971 944 969 983 970 948 928 937 989 961 970 979 1035 980 1001 967 1024 981 1047 987 1019 1043 1003 1011 1033 1029 1041 1013 1042 1048 1024 1103 1117 1088 1055 1079 1135 1158 1186 1156 1248 1233 1236 1227 1348 1306 1371 1366 1372 1390 1330 1418 1392 1381 1422 1483 1393 1411 1385 1431 1398 1488 1362 1356 1356 1396 1360 1385 1349 1325 1332 1296 1345 1319 1381 1380 1371 1454 1331 1299 1360 1405 1410 1406 1333 1379 1260 1297 1260 1354 1283 1291 1277 1249 1256 1331 1254 1240 1236 1201 1200 1194 1200 1209 1129 1156 1126 1071 1134 1082 1119 1055 1096 1074 1070 1004 1004 1071 992 966 1070 922 984 983 972 987 930 971 1002 951 932 977 905 937 928 905 997 932 947 910 933 876 910 925 904 925 928 954 898 903 880 852 904 908 950 875 994 896 811 865 911 851 866 861 869 840 890 871 885 887 940 926 851 884 913 897 907 851 914 828 893 857 817 953 876 880 919 893 866 907 883 857 862 843 887 839 816 886 877 870 877 820 850 824 847 841 860 876 901 866 798 899 919 853 873 858 829 838 888 883 851 873 797 875 879 855 850 875 852 821 843 776 878 806 870 827 798 842 823 891 839 802 760 856 796 833 852 901 838 820 884 828 787 815 870 819 794 810 833 819 819 878 862 792 802 890 812 855 797 789 813 813 826 801 878 800 839 881 837 815 844 833 825 830 797 817 799 769 854 810 788 822 794 793 818 784 842 762 793 758 800 810 799 811 776 781 771 779 807 811 796 787 855 782 827 808 817 807 803 742 833 828 828 767 791 811 820 837 804 821 778 831 761 800 764 751 796 811 811 810 749 741 817 775 804 886 767 806 780 807 843 763 859 780 823 761 774 790 789 821 806 784 748 806 781 805 807 841 797 828 795 752 796 775 795 856 785 803 755 805 790 779 795 829 778 820 765 774 754 759 848 779 802 795 790 752 814 764 791 730 805 808 809 751 778 792 747 795 806 769 776 758 786 785 774 800 777 744 771 774 748 791 786 762 753 770 737 777 730 767 775 751 774 766 727 711 796 738 791 822 774 733 784 791 772 761 727 723 831 756 730 739 767 707 830 740 793 766 779 761 759 782 798 731 770 767 791 761 770 732 855 760 740 793 750 753 769 736 724 741 749 792 728 787 745 820 761 743 751 755 722 702 727 746 779 738 786 723 751 749 704 734 700 765 730 773 770 705 762 716 715 729 754 704 745 710 748 747 744 762 755 815 797 704 699 774 749 738 687 700 744 696 740 721 698 749 765 729 739 761 741 716 706 686 719 724 734 714 714 679 744 734 720 670 661 719 741 717 684 695 745 674 682 731 692 759 731 758 697 729 693 724 702 706 704 696 741 760 692 699 713 660 706 725 699 675 753 683 714 704 723 759 727 658 725 753 708 734 724 729 739 700 731 719 677 730 742 766 705 667 710 671 720 709 718 733 747 721 718 690 695 725 727 701 752 700 746 707 718 716 729 668 684 690 685 756 694 664 721 693 723 703 722 754 749 775 702 708 687 781 705 776 722 697 693 682 714 740 745 715 738 718 703 705 713 724 709 698 662 683 767 692 707 723 726 716 683 730 741 643 727 770 683 682 732 724 703 703 683 689 696 677 720 685 714 698 717 737 738 722 738 718 738 713 676 763 694 745 656 664 661 672 678 737 699 673 727 681 713 735 699 651 688 768 744 657 690 680 716 701 722 694 685 700 691 735 628 723 686 706 695 769 703 719 717 692 707 703 734 745 657 685 723 675 679 697 674 697 711 676 687 744 706 707 726 675 708 696 681 694 681 670 676 687 692 702 638 705 652 704 684 687 692 722 690 644 691 755 728 685 705 677 707 692 692 714 707 763 659 694 695 727 777 713 713 661 695 669 670 683 662 718 645 681 663 656 725 682 678 717 678 712 724 687 708 640 719 708 630 699 711 699 635 704 680 677 722 701 687 702 660 681 685 642 683 659 662 685 705 717 706 692 661 725 660 736 640 653 693 705 669 676 665 682 678 661 687 671 626 701 696 638 677 727 642 662 708 689 669 690 657 673 626 695 728 659 603 672 672 624 629 708 633 632 672 658 603 635 615 652 641 649 693 701 679 665 654 636 671 650 664 667 647 630 669 672 623 631 677 627 631 666 602 683 640 689 653 631 670 638 654 703 668 619 709 700 647 672 619 713 649 616 638 681 640 671 642 705 714 656 713 620 654 639 599 604 632 705 639 624 646 658 649 657 608 689 664 630 672 602 621 652 643 661 634 647 616 621 702 718 654 629 715 706 699 699 651 631 643 655 634 634 626 634 681 643 662 671 668 682 668 729 659 663 614 663 678 721 615 649 645 634 633 746 679 631 610 652 597 627 668 636 627 626 667 665 647 657 637 704 681 662 649 626 686 622 655 657 613 626 673 652 685 691 637 682 716 684 693 692 739 698 695 633 663 733 711 743 714 691 664 693 732 695 724 720 731 670 687 707 677 675 659 686 754 657 735 659 707 756 660 699 662 717 702 729 651 728 730 653 661 739 700 680 715 684 695 714 715 672 717 709 662 673 703 682 677 650 680 713 695 636 707 659 655 633 679 634 667 664 659 681 639 613 692 649 699 639 657 646 623 662 621 649 677 649 634 606 650 626 647 609 661 676 619 611 695 634 676 566 648 656 627 632 625 641 658 669 643 648 620 624 654 625 645 626 644 563 635 601 673 627 624 680 631 627 655 603 617 634 663 663 673 590 625 643 650 666 594 600 605 625 626 615 636 643 654 698 588 614 596 622 640 660 609 651 654 648 653 661 678 620 630 637 666 608 633 600 597 586 655 658 631 599 598 614 605 629 645 642 604 595 596 620 621 599 635 625 664 603 643 636 630 541 573 571 567 579 646 648 609 624 650 646 609 648 626 624 665 673 610 601 603 609 615 624 623 655 661 608 658 659 621 674 626 647 557 594 682 618 600 615 571 631 595 626 606 637 602 625 665 638 607 607 610 616 651 591 560 656 611 635 572 593 579 591 604 637 593 605 612 630 634 601 661 620 578 596 621 648 589 628 595 609 612 631 595 621 590 574 624 657 616 620 628 569 654 623 613 642 652 664 635 592 625 595 595 595 625 651 662 598 632 634 624 615 601 618 615 612 605 643 570 610 581 659 599 611 532 613 566 616 631 609 635 592 617 628 637 639 597 603 569 580 600 605 608 608 655 660 625 609 652 606 615 622 653 601 638 617 616 611 616 638 610 606 587 590 644 660 651 628 633 590 620 636 597 580 636 618 722 651 640 661 652 679 640 590 654 607 661 653 677 653 698 674 693 676 713 688 700 743 751 670 745 720 777 732 793 773 821 766 736 792 780 784 810 785 890 791 816 894 851 914 828 834 856 813 854 851 882 848 822 846 804 888 816 846 866 836 850 872 896 859 863 867 813 831 797 874 845 792 807 847 803 800 782 791 784 725 789 798 765 732 751 796 738 727 751 715 712 727 728 705 701 704 719 686 710 669 648 706 667 657 627 630 655 656 666 658 658 624 654 620 605 611 642 615 665 643 571 600 628 611 637 665 582 608 602 663 622 612 590 626 609 553 600 621 609 578 599 613 612 609 540 583 552 622 582 611 589 567 556 562 555 581 585 548 603 580 586 556 613 634 591 557 621 635 594 568 609 554 608 595 562 597 583 591 583 600 566 586 603 553 647 579 659 582 548 602 566 575 575 554 595 621 553 581 594 566 583 632 596 603 618 570 583 579 624 561 573 626 607 567 592 553 575 577 562 576 550 539 564 572 602 555 556 576 587 588 565 566 594 602 570 595 585 541 530 579 636 563 540 530 575 603 568 554 569 552 574 588 564 577 622 555 573 612 638 606 585 587 573 560 554 608 620 577 653 638 593 596 645 649 588 571 574 598 630 603 582 582 581 595 607 640 614 581 562 540 595 598 580 611 599 571 612 596 600 636 610 597 628 585 576 579 546 585 614 628 574 580 596 580 575 571 580 586 591 599 621 596 569 567 547 542 595 602 586 562 579 542 591 584 622 589 548 570 576 587 551 577 543 579 578 537 540 582 556 606 541 542 521 558 546 572 567 544 577 516 552 596 571 568 518 585 536 533 533 566 522 576 569 522 554 560 627 565 571 533 565 538 542 599 586 570 573 553 527 551 531 554 515 542 559 562 547 549 505 538 548 508 578 600 575 560 502 556 525 555 526 553 519 505 579 549 542 539 570 570 529 550 503 560 560 532 569 565 530 542 560 472 523 544 585 552 567 541 512 557 565 519 542 571 561 547 557 522 503 557 499 525 516 559 566 520 566 546 560 542 521 542 526 520 500 553 544 545 546 495 519 524 609 514 580 559 527 520 529 555 536 550 593 536 523 552 581 496 576 532 567 567 522 532 506 544 504 543 514 488 508 517 495 515 534 505 529 493 507 498 552 531 533 545 537 545 543 527 519 521 517 525 547 515 482 515 519 513 565 513 523 499 507 516 554 532 495 478 543 489 531 522 516 533 476 535 561 486 513 503 529 561 516 526 525 495 519 502 548 479 516 579 536 539 516 499 500 558 511 550 482 492 551 540 496 491 504 552 505 524 524 560 527 565 520 554 516 544 546 504 510 500 516 480 543 489 490 529 528 506 475 488 493 521 473 494 503 512 530 537 499 505 527 484 492 525 580 537 525 506 539 539 525 545 516 549 526 509 447 534 474 505 497 559 511 526 505 532 497 540 513 471 495 506 488 537 514 466 508 502 520 534 504 514 512 502 547 512 482 456 483 543 551 541 520 492 547 476 527 510 541 494 530 536 526 504 498 498 525 507 534 530 513 510 490 503 499 505 516 539 497 524 513 533 502 511 483 480 538 542 484 478 497 560 476 524 479 538 477 514 494 449 477 549 508 509 464 543 523 573 475 467 489 530 497 542 451 493 479 521 489 465 502 522 520 546 483 502 533 512 483 487 529 494 443 507 515 503 528 512 512 501 491 486 479 514 505 477 481 515 479 512 540 497 503 460 507 497 511 516 459 529 469 501 510 512 520 478 490 498 518 530 526 511 517 495 527 505 525 503 500 493 498 521 524 469 501 475 509 506 532 507 500 471 539 457 518 487 500 465 481 495 494 519 468 472 492 528 557 514 491 520 515 508 458 486 512 537 513 519 540 509 469 543 478 496 465 476 449 520 464 506 491 499 486 489 524 504 500 515 514 496 551 498 485 490 500 454 487 534 537 479 525 479 471 498 474 512 523 514 513 491 534 494 496 487 465 496 542 465 490 500 509 521 553 485 534 503 504 477 486 499 479 501 520 492 487 490 495 494 499 554 454 514 529 509 463 502 530 480 527 526 495 554 476 545 470 536 500 509 535 511 532 521 505 553 536 511 497 502 530 524 484 550 496 486 514 485 489 549 519 494 545 494 477 511 519 509 540 542 569 507 548 498 481 492 515 506 510 538 482 507 529 485 481 473 472 498 521 488 514 495 491 480 504 504 484 465 483 473 456 499 480 528 519 491 450 472 468 505 494 459 452 491 544 473 497 475 453 505 476 503 489 469 486 458 478 531 488 500 511 461 487 506 494 513 485 470 472 472 500 484 488 474 504 487 481 470 450 438 466 511 492 511 498 519 486 493 442 484 518 492 465 499 480 455 494 530 454 471 446 491 480 483 476 491 482 524 494 522 470 517 431 479 490 499 470 472 474 507 500 471 470 489 491 497 474 501 491 479 484 507 492 492 497 502 494 492 478 464 444 472 491 495 483 509 471 487 437 418 449 485 495 480 474 500 489 488 499 487 480 493 455 557 504 535 501 501 509 474 479 464 499 489 464 500 478 457 507 491 547 499 460 485 488 495 468 489 438 467 477 502 516 454 446 534 481 468 466 517 530 507 489 526 466 486 454 472 480 466 463 491 490 510 492 538 492 521 472 474 508 492 494 528 484 545 533 509 507 518 516 538 524 475 533 552 525 494 552 557 535 549 516 551 526 539 569 517 486 557 507 521 543 526 540 511 504 554 509 512 461 470 529 521 491 494 511 545 524 506 511 496 512 514 478 450 469 535 486 480 522 493 512 461 524 511 527 463 465 489 488 481 464 476 504 475 531 478 491 480 465 523 451 459 455 476 492 464 450 467 490 458 458 494 463 442 483 478 469 445 482 486 485 496 489 501 467 458 485 465 473 428 464 470 450 470 440 427 482 488 454 483 479 496 462 488 473 438 473 420 455 486 442 440 443 452 470 476 442 491 430 504 401 501 485 465 427 467 503 472 437 448 496 461 428 464 468 459 460 428 498 450 449 508 457 495 480 501 456 449 440 447 473 413 448 484 426 458 421 457 462 469 445 461 454 450 450 437 463 505 480 452 500 460 447 513 489 471 440 484 455 445 466 515 472 447 496 429 496 492 454 486 496 476 497 490 470 499 478 492 513 512 479 476 482 462 525 499 470 436 496 447 456 468 448 475 453 475 473 489 475 445 466 455 456 461 502 515 481 479 423 451 443 438 460 453 478 485 500 462 442 457 438 445 440 436 482 472 465 464 434 430 532 518 456 453 471 494 464 463 481 491 481 455 444 470 484 439 488 479 469 500 453 483 465 445 477 457 480 425 452 457 472 443 469 482 451 466 434 464 405 465 452 461 453 440 432 452 428 478 432 430 423 452 456 457 480 433 438 405 440 473 468 454 467 439 431 388 483 479 448 453 459 468 461 502 488 463 453 437 449 430 447 463 428 483 426 464 448 491 451 443 440 419 460 412 450 420 418 419 433 459 455 447 454 455 468 445 450 478 466 424 458 440 425 473 395 461 440 425 458 474 444 512 424 483 448 475 477 426 444 434 441 430 437 452 447 459 412 446 450 415 447 450 430 450 436 474 438 442 451 471 449 455 456 449 425 451 516 473 419 489 458 483 439 448 469 453 466 433 451 438 437 486 457 439 456 379 470 455 405 397 422 451 442 435 455 484 429 405 433 447 498 441 466 456 461 474 425 476 460 423 451 440 420 459 468 437 481 421 432 444 422 421 434 430 368 373 439 460 465 446 429 473 445 466 458 426 464 459 435 397 408 433 431 417 429 433 429 418 435 438 433 455 450 422 453 446 438 448 424 418 428 456 422 448 432 420 429 472 425 439 450 460 445 428 422 428 456 440 439 459 422 413 386 465 422 405 451 453 454 425 391 446 404 472 452 439 429 425 429 417 433 477 406 406 479 465 434 415 478 437 418 418 454 386 430 419 407 457 443 419 426 449 448 451 464 442 478 443 426 434 523 411 488 422 451 416 428 473 428 468 395 466 466 443 437 435 377 440 400 402 400 420 455 418 435 446 443 457 405 437 429 456 430 466 424 490 491 445 446 431 438 404 422 458 419 413 462 441 403 401 448 445 389 468 481 448 431 444 465 425 473 426 441 423 441 411 453 448 423 445 432 408 444 448 431 417 429 456 409 499 441 466 461 451 407 442 424 396 428 414 423 433 410 450 446 474 410 416 447 415 427 425 442 444 469 476 416 403 442 452 434 441 430 438 414 425 422 454 439 478 427 442 452 486 389 429 475 443 465 457 413 408 428 465 401 471 439 466 440 423 418 428 431 397 453 443 412 425 445 477 402 450 431 430 430 415 421 413 420 448 407 442 431 454 420 446 427 439 470 423 425 434 433 433 470 436 437 439 420 443 426 434 452 439 443 418 414 462 452 438 476 418 478 391 492 428 441 444 456 444 443 413 461 443 435 441 429 434 407 466 425 450 427 395 425 416 408 422 414 439 440 427 463 439 412 460 407 436 436 438 431 464 431 477 417 444 426 455 419 471 458 430 473 435 438 418 433 423 431 412 409 455 424 467 430 405 423 421 449 445 418 420 419 459 409 455 407 451 442 423 418 433 428 444 438 445 391 447 455 449 435 435 406 427 423 415 417 469 475 402 441 394 477 443 406 460 411 415 438 455 471 410 437 408 408 424 431 399 459 414 432 436 422 445 422 444 408 422 419 421 428 422 414 404 459 453 455 415 428 385 467 413 464 438 445 457 455 402 417 412 424 417 437 409 450 418 430 416 441 428 425 421 442 417 432 415 434 417 400 471 392 398 424 406 454 467 449 430 417 431 461 403 432 398 444 442 455 427 430 462 415 455 456 409 427 443 438 396 437 438 426 476 438 436 454 405 412 393 472 417 463 462 412 452 405 471 464 418 433 451 444 436 465 462 460 461 443 448 442 420 443 457 432 446 473 407 438 462 437 425 433 434 450 477 407 409 425 442 475 447 410 404 408 433 430 433 453 424 412 472 419 401 442 464 431 444 447 454 450 458 437 429 449 448 452 483 476 435 428 494 448 467 442 475 435 465 461 468 463 472 401 442 408 480 488 414 450 463 462 454 451 441 443 422 463 452 456 461 427 464 442 452 462 462 446 445 433 474 404 456 402 455 424 442 433 418 439 435 464 424 411 453 417 423 463 456 436 445 429 442 428 432 427 483 452 452 410 480 412 409 376 431 417 459 457 437 426 419 442 411 429 420 412 419 399 401 419 443 420 454 423 410 421 414 409 412 485 454 464 432 444 396 427 431 434 451 484 439 426 431 453 405 453 428 414 414 428 410 410 385 389 436 414 386 398 460 413 431 459 424 374 436 447 426 429 423 438 421 423 423 421 382 418 439 406 454 432 455 442 404 433 418 452 441 385 421 407 430 414 395 417 429 427 411 442 398 419 428 456 433 433 429 458 381 414 416 414 429 407 433 431 437 429 478 431 462 426 404 432 436 440 432 446 459 426 438 449 442 426 431 429 425 438 468 443 413 395 457 448 454 420 400 440 398 395 463 441 439 443 453 422 470 417 405 414 414 428 421 418 470 429 431 435 429 455 434 427 423 424 425 436 401 435 371 429 399 412 465 434 467 455 452 402 405 388 448 440 436 399 451 439 473 448 433 448 488 432 413 421 425 444 425 421 417 438 443 421 457 448 445 467 415 422 420 453 406 426 404 413 429 465 439 427 417 462 445 435 472 440 474 426 424 447 439 411 450 422 446 434 395 406 444 423 449 426 396 424 416 421 441 411 438 430 402 422 412 436 437 429 416 470 444 487 439 379 418 439 447 446 421 416 444 419 456 443 423 414 442 450 394 391 433 466 428 469 422 435 427 442 413 376 439 434 414 439 423 426 441 402 440 430 465 463 435 416 444 419 411 466 437 426 423 423 415 433 431 464 447 397 452 384 484 412 436 421 431 438 454 425 425 450 470 420 448 408 485 460 431 435 436 465 425 452 420 446 459 481 409 454 445 453 406 414 441 423 421 411 436 405 448 406 468 485 429 423 429 382 413 439 447 434 414 465 446 405 456 418 430 436 453 460 433 478 415 464 400 453 422 420 402 475 465 421 427 457 453 423 441 446 449 471 470 429 388 457 457 430 425 478 420 462 469 425 446 463 448 439 444 469 458 421 435 439 423 433 450 434 455 425 424 472 449 437 462 404 453 395 454 446 446 429 416 434 468 467 458 454 473 403 454 417 481 437 453 417 445 442 484 462 446 398 456 469 430 448 448 435 479 447 451 437 438 451 410 431 434 455 441 429 454 439 453 421 428 447 438 465 417 455 446 434 459 460 416 440 437 427 482 446 458 441 459 446 457 423 449 392 430 412 426 467 437 450 442 433 439 430 442 450 428 442 413 433 463 438 441 411 429 450 405 478 494 497 455 442 424 450 390 415 410 419 412 451 423 439 452 414 420 451 429 428 451 421 454 418 427 448 489 472 440 464 433 433 427 418 440 432 409 454 477 481 493 452 445 445 439 407 491 448 466 462 469 433 450 437 444 467 427 444 457 443 433 447 488 483 467 426 405 473 437 428 437 464 456 416 468 480 440 443 451 447 460 444 467 413 493 454 469 433 457 457 457 409 435 417 463 421 442 457 422 429 419 414 469 444 459 442 426 449 412 468 415 427 429 471 423 477 443 460 458 423 444 435 479 445 425 432 427 445 373 450 433 461 436 429 445 481 433 454 473 457 411 403 430 441 420 442 421 444 416 372 441 445 419 439 433 455 452 407 457 432 413 485 473 442 457 480 446 460 440 447 431 421 427 418 435 409 474 467 460 418 454 484 442 442 438 403 434 412 426 440 441 439 459 400 423 400 463 417 431 431 435 432 438 432 458 419 415 435 463 478 424 400 409 391 452 405 456 440 469 465 460 435 438 427 439 475 467 459 407 446 418 460 455 427 425 461 457 462 440 447 439 449 426 423 415 415 413 470 426 469 434 426 439 427 407 441 447 441 464 458 448 441 433 428 418 485 476 420 462 479 435 440 411 420 419 443 439 418 411 444 441 446 456 429 451 428 440 469 456 452 448 424 462 451 434 425 459 436 415 456 403 435 419 439 442 435 469 466 441 404 460 444 426 465 449 415 457 477 463 442 472 453 428 444 417 479 460 421 452 408 458 400 447 479 426 451 457 438 459 478 438 479 432 468 447 475 470 424 459 465 455 452 471 477 480 448 492 466 466 500 480 447 463 462 456 391 421 462 451 421 497 443 434 430 460 439 468 440 448 454 488 456 469 435 429 452 476 478 465 426 505 466 461 439 415 444 436 475 432 417 478 445 422 433 469 451 432 409 424 400 419 442 437 454 460 443 376 424 455 432 399 413 406 471 442 443 446 450 447 452 447 448 428 451 400 447 450 413 438 466 446 426 428 427 447 437 428 391 431 424 434 449 435 435 424 371 420 430 429 434 437 425 412 448 422 468 450 445 412 441 414 408 437 419 408 439 430 423 394 424 411 421 419 410 418 423 406 439 410 448 431 431 450 407 452 416 426 448 415 395 450 443 423 478 450 448 447 413 423 425 452 403 403 425 425 425 430 419 423 430 389 423 470 444 448 417 443 419 388 435 435 418 404 451 429 401 405 417 407 407 443 416 377 419 412 481 452 431 456 437 417 417 484 446 443 414 459 424 429 420 398 428 421 441 470 404 467 412 435 445 418 414 385 436 406 365 384 402 402 428 444 417 421 393 421 419 398 424 442 432 437 433 400 443 433 399 381 422 407 440 407 445 407 420 394 386 395 429 418 430 392 396 465 411 436 408 401 426 434 422 370 415 446 442 429 431 421 423 404 443 414 422 427 415 416 404 440 443 451 424 409 398 422 408 431 400 408 425 418 399 426 385 380 428 367 391 425 409 399 421 418 378 422 405 383 400 448 395 401 400 383 407 419 406 420 381 383 401 424 450 418 460 420 372 433 405 431 393 422 434 375 420 452 422 417 417 386 432 432 409 383 449 404 417 425 419 430 402 411 382 397 418 390 408 406 408 399 411 392 393 386 410 412 420 434 392 430 408 395 408 428 414 390 396 418 419 380 436 396 420 389 446 428 431 421 401 397 428 464 435 383 391 449 420 398 404 427 396 426 407 432 386 411 410 429 388 417 419 431 423 389 421 448 377 419 352 404 427 417 375 428 433 387 437 425 422 414 407 399 423 379 417 423 426 399 421 376 417 381 412 407 377 442 407 425 407 426 382 398 432 396 432 384 427 401 416 436 425 404 365 421 407 427 373 391 415 383 426 404 368 403 420 410 371 391 388 444 365 439 449 438 430 436 400 400 384 421 427 415 422 385 393 405 385 425 389 416 387 376 391 406 404 376 374 385 420 426 411 452 406 402 386 408 403 355 399 399 441 429 432 380 400 408 352 384 435 375 436 399 430 395 389 383 448 438 391 409 404 408 410 398 407 441 416 427 372 398 411 409 396 387 423 448 364 394 381 382 410 391 392 449 396 392 405 437 385 415 394 394 415 410 404 405 433 435 409 433 402 406 378 400 391 349 398 418 411 414 439 411 379 421 414 430 448 402 424 398 423 424 411 416 373 386 405 425 414 391 428 382 385 438 415 430 396 411 425 403 437 376 406 417 367 411 376 430 434 394 402 358 359 421 412 400 356 426 430 397 413 399 411 430 440 406 409 418 409 424 403 400 452 404 471 443 442 434 432 409 387 428 413 427 392 443 393 409 403 370 452 445 402 398 402 370 413 402 418 395 404 435 403 414 423 405 435 376 374 403 401 401 396 410 366 401 424 418 403 403 398 377 402 450 369 400 430 405 395 422 402 426 411 406 417 394 369 444 404 391 399 403 419 383 407 407 366 434 420 399 417 412 409 390 375 395 394 422 368 374 389 419 388 377 410 432 435 416 405 455 392 426 394 409 395 387 376 394 395 396 413 372 417 402 390 393 448 412 405 368 393 435 412 415 384 426 404 411 401 394 403 403 440 406 383 405 378 404 377 424 385 414 398 392 394 422 444 401 419 383 400 387 392 403 391 395 424 433 415 394 427 381 417 423 400 385 382 369 394 411 405 412 463 408 412 401 376 437 446 404 397 382 355 414 383 356 387 421 375 410 387 377 382 405 418 374 411 379 398 404 394 422 408 415 381 416 441 415 413 356 417 388 441 448 413 404 423 358 426 383 416 401 428 415 434 386 408 401 423 392 399 398 391 379 427 377 430 403 440 415 408 393 422 410 368 397 367 394 416 411 363 406 468 408 398 351 387 450 389 395 410 417 436 407 429 439 394 411 415 409 433 414 416 423 408 434 447 413 407 401 423 429 387 441 386 419 454 435 404 391 409 407 430 423 419 394 453 411 434 378 461 408 441 464 427 431 459 403 421 476 437 397 422 437 394 427 456 418 381 448 441 459 441 425 440 425 410 448 440 426 445 432 434 409 411 447 438 436 407 407 423 415 448 416 403 408 402 447 433 426 424 411 430 380 417 459 434 404 402 391 407 449 401 403 398 406 405 449 414 402 396 428 383 414 387 398 413 390 418 401 405 425 405 379 406 408 385 459 422 376 415 403 392 409 423 428 413 468 408 372 384 423 378 384 428 418 420 402 449 425 383 405 423 403 396 382 423 418 427 403 405 417 444 382 412 419 406 374 374 385 407 388 406 392 404 411 362 415 378 369 426 370 410 381 406 374 413 376 380 380 384 363 405 402 410 423 374 396 383 409 406 371 409 388 418 408 370 408 409 391 407 377 410 420 394 384 366 402 379 377 425 417 421 416 412 378 443 399 436 404 380 405 387 422 403 415 416 387 385 396 364 412 382 376 396 408 383 414 435 387 361 409 386 424 370 391 400 395 405 394 366 371 373 417 371 387 365 380 387 373 429 387 380 395 417 412 381 430 424 408 419 429 422 352 432 462 356 394 418 374 421 391 391 393 383 404 413 385 409 410 355 397 374 369 387 375 426 389 376 426 425 422 339 410 416 410 371 386 420 417 406 388 343 404 383 387 425 388 389 403 420 385 428 427 394 416 374 384 386 391 372 418 406 412 393 407 405 365 398 397 362 382 401 372 409 416 386 393 424 391 427 408 376 394 388 424 418 378 439 399 390 420 398 375 408 391 413 372 415 397 395 398 380 408 392 408 428 402 374 438 404 423 428 426 428 373 356 373 360 369 364 398 404 402 427 379 438 379 375 403 376 369 387 399 391 435 407 391 408 401 424 401 395 400 409 396 404 419 415 388 405 398 407 409 396 376 376 396 419 399 381 408 383 390 407 387 414 361 398 412 376 403 382 397 393 390 416 396 410 401 406 371 410 374 375 372 396 425 403 386 373 400 407 384 397 394 423 423 374 385 420 391 426 381 452 409 401 401 375 415 374 394 415 385 380 395 401 427 374 405 406 393 407 398 429 417 420 355 364 398 382 394 437 381 401 397 417 398 412 381 410 371 413 337 376 383 394</counts>
			</dataPoints>
		</scan>
	</xrdMeasurement>
</xrdMeasurements>
