<?xml version="1.0"?>
<xrdMeasurements xmlns="http://www.xrdml.com/XRDMeasurement/2.3" xmlns:xsi="http://www.w3.org/2001/XMLSchema-instance" xsi:schemaLocation="http://www.xrdml.com/XRDMeasurement/2.3 http://www.xrdml.com/XRDMeasurement/2.3/XRDMeasurement.xsd" status="Completed" recordIdentifier="{091C3627-F7A8-40FD-AC54-F440BC34D038}">
	<comment>
		<entry/>
	</comment>
	<sample type="To be analyzed">
		<id>GPSS_Li1p9Fe0p9Bi0p1Cl4_111425_69175e1347a6a0fd7c659351</id>
		<name></name>
		<preparedBy></preparedBy>
	</sample>
	<xrdMeasurement measurementType="Scan" status="Completed" sampleMode="Reflection">
		<usedWavelength intended="K-Alpha 1">
			<kAlpha1 unit="Angstrom">1.5405980</kAlpha1>
			<kAlpha2 unit="Angstrom">1.5444260</kAlpha2>
			<kBeta unit="Angstrom">1.3922500</kBeta>
			<ratioKAlpha2KAlpha1>0.5000</ratioKAlpha2KAlpha1>
		</usedWavelength>
		<incidentBeamPath>
			<radius unit="mm">145.00</radius>
			<xRayTube id="1010048" name="Empyrean Cu LFF HR (9430 033 7310x)">
				<tension unit="kV">40.0</tension>
				<current unit="mA">15.0</current>
				<anodeMaterial>Cu</anodeMaterial>
				<focus type="Line">
					<length unit="mm">12.0</length>
					<width unit="mm">0.4</width>
					<takeOffAngle unit="deg">6.0</takeOffAngle>
				</focus>
			</xRayTube>
			<sollerSlit id="21010002" name="Soller slits 0.04 rad.">
				<opening unit="rad">0.0400</opening>
			</sollerSlit>
			<mask id="22031000" name="Fixed mask 13 mm">
				<width unit="mm">9.00</width>
			</mask>
			<divergenceSlit id="22120001" name="Divergence slit 1°" xsi:type="fixedDivergenceSlitType">
				<distanceToSample unit="mm">50.00</distanceToSample>
				<height unit="mm">1.52</height>
			</divergenceSlit>
		</incidentBeamPath>
		<sampleMovement xsi:type="spinningSampleMovementType">
			<spinnerRevolutionTime unit="seconds">1.0</spinnerRevolutionTime>
		</sampleMovement>
		<diffractedBeamPath>
			<radius unit="mm">145.00</radius>
			<antiScatterSlit id="22090040" name="AS slit 9 mm (PIXcel)" xsi:type="fixedAntiScatterSlitType">
				<height unit="mm">9.00</height>
			</antiScatterSlit>
			<sollerSlit id="21020003" name="Large Soller slits 0.04 rad.">
				<opening unit="rad">0.0400</opening>
			</sollerSlit>
			<filter id="20030001" name="Large beta-filter Nickel">
				<material>Ni</material>
				<thickness unit="mm">0.020</thickness>
			</filter>
			<detector id="7010019" name="PIXcel1D-Medipix3 detector" xsi:type="rtmsDetectorType">
				<phd unit="keV">
					<lowerLevel>4.02</lowerLevel>
					<upperLevel>11.27</upperLevel>
				</phd>
				<mode>Scanning</mode>
				<activeLength unit="deg">5.542</activeLength>
			</detector>
		</diffractedBeamPath>
		<scan appendNumber="0" mode="Continuous" scanAxis="Gonio" status="Completed">
			<header>
				<startTimeStamp>2025-11-17T13:14:29-08:00</startTimeStamp>
				<endTimeStamp>2025-11-17T13:22:37-08:00</endTimeStamp>
				<author>
					<name>AutomatedUser</name>
				</author>
				<source>
					<applicationSoftware version="1.7b (136)">PANalytical Aeris Instrument Suite</applicationSoftware>
					<instrumentControlSoftware version="3.2.00000000 20240306">AERIS</instrumentControlSoftware>
					<instrumentID>950485</instrumentID>
				</source>
			</header>
			<dataPoints>
				<positions axis="2Theta" unit="deg">
					<startPosition>10.00943322</startPosition>
					<endPosition>99.99442286</endPosition>
				</positions>
				<positions axis="Omega" unit="deg">
					<startPosition>5.00471661</startPosition>
					<endPosition>49.99721143</endPosition>
				</positions>
				<commonCountingTime unit="seconds">12.495</commonCountingTime>
				<counts unit="counts">3281 3269 3242 3339 3196 3305 3255 3148 3290 3219 3290 3180 3303 3268 3326 3262 3314 3262 3246 3179 3202 3176 3194 3185 3368 3215 3232 3175 3278 3282 3274 3179 3320 3348 3363 3306 3215 3380 3211 3286 3298 3202 3378 3386 3340 3290 3425 3279 3296 3277 3304 3276 3364 3313 3398 3352 3497 3382 3189 3318 3307 3392 3398 3357 3395 3460 3446 3525 3271 3380 3422 3408 3531 3406 3405 3496 3462 3476 3454 3429 3387 3490 3546 3542 3572 3538 3503 3520 3523 3429 3546 3483 3460 3595 3559 3520 3485 3532 3576 3350 3550 3603 3606 3645 3582 3578 3602 3493 3467 3555 3542 3555 3568 3529 3546 3477 3528 3456 3594 3496 3480 3482 3500 3491 3496 3593 3441 3575 3656 3445 3478 3451 3354 3522 3556 3548 3398 3468 3502 3430 3439 3506 3488 3561 3666 3445 3654 3464 3448 3614 3546 3518 3516 3591 3523 3464 3562 3506 3594 3452 3506 3502 3457 3512 3553 3591 3566 3629 3523 3514 3554 3543 3536 3553 3481 3670 3606 3540 3529 3623 3590 3483 3626 3507 3598 3457 3535 3535 3562 3564 3663 3569 3574 3492 3641 3496 3527 3517 3560 3479 3447 3517 3622 3556 3539 3595 3499 3569 3528 3531 3446 3590 3447 3505 3587 3538 3554 3584 3607 3574 3616 3514 3658 3540 3507 3604 3569 3502 3519 3566 3546 3542 3555 3487 3567 3514 3572 3577 3479 3549 3708 3575 3650 3557 3534 3550 3578 3556 3611 3559 3526 3520 3641 3624 3617 3572 3450 3477 3456 3499 3549 3676 3598 3715 3661 3528 3561 3652 3615 3614 3653 3623 3665 3602 3567 3680 3589 3687 3594 3619 3639 3684 3606 3546 3648 3592 3679 3642 3695 3588 3694 3710 3715 3776 3606 3635 3685 3609 3631 3619 3707 3572 3562 3627 3689 3776 3711 3682 3634 3575 3786 3637 3811 3727 3796 3664 3720 3750 3784 3850 3666 3757 3828 3813 3756 3800 3822 3723 3773 3799 3790 3838 3789 3787 3771 3776 3834 3764 3874 3815 3987 3956 3899 3723 3959 3871 3923 3836 3862 3930 4039 3893 4009 4014 3985 3974 4073 4058 4084 3836 3958 3990 4036 4102 4068 4075 4022 3963 4067 3975 3993 4028 4125 4096 4076 4158 3978 4090 4153 4118 4137 4085 4110 4128 4080 4149 4259 4196 4144 4057 4247 4122 4144 4196 4094 4220 4261 4256 4232 4270 4227 4216 4296 4196 4171 4227 4358 4253 4331 4244 4304 4433 4377 4338 4497 4419 4388 4559 4395 4560 4583 4594 4575 4630 4550 4634 4746 4751 4872 4903 4999 5074 5328 5210 5267 5416 5545 5541 5674 5758 5867 6049 5833 5886 5986 5959 5906 5981 6097 6065 6147 6019 6155 6101 5943 6087 5987 6113 6010 6169 6128 6043 6122 5988 5927 6010 5843 5855 5683 5665 5658 5512 5413 5402 5356 5216 5087 5086 4924 4791 4840 4855 4761 4819 4774 4549 4671 4684 4548 4542 4449 4531 4572 4537 4569 4403 4478 4523 4447 4446 4421 4440 4259 4374 4485 4497 4359 4369 4358 4323 4374 4213 4359 4236 4327 4203 4306 4290 4147 4229 4218 4199 4179 4154 4155 4265 4148 4071 4082 4138 4083 4040 4104 4144 4092 4081 4049 4205 4024 3965 4034 3934 4046 4059 4050 4088 4065 4068 4070 4159 4058 3895 3970 3953 3938 4152 4054 4110 4216 3941 3980 3920 3925 4035 3954 3932 3877 4039 4014 3908 4054 4018 3973 3964 4020 4015 3920 3974 3920 4077 3912 3998 3924 3929 3843 3996 3902 3946 3974 3920 3924 3990 3924 3908 3927 4041 3884 3848 3967 3881 3706 3876 3919 3999 3941 3844 3974 3820 3926 3859 3861 3944 3847 3879 3912 3975 3966 3924 3791 3798 3886 3864 3824 3766 3860 3911 3881 3808 3839 3932 3886 3904 4006 3874 3951 3852 3904 3878 3951 3851 3857 3989 3823 3869 3873 3864 3945 3885 3925 3981 3959 3928 3919 3866 3935 3877 4069 3926 3856 3978 3930 3947 3886 3950 3970 4048 3975 3939 3980 3842 3899 3901 3944 3772 3966 3955 3931 3900 3885 3954 3943 3993 3963 4035 3969 3941 3844 3867 3859 3910 3789 3825 3833 3888 3887 3901 3879 3824 3844 4003 3864 3927 3812 3832 3804 3767 3855 3817 3831 3815 3898 3758 3783 3842 3797 3733 3816 3875 3904 3720 3679 3724 3865 3781 3834 3813 3805 3973 3832 3763 3792 3850 3897 3792 3873 3809 3684 3787 3847 3859 3798 3773 3868 3749 3645 3856 3852 3802 3774 3779 3913 3799 3774 3642 3752 3869 3780 3712 3773 3710 3764 3764 3771 3816 3809 3822 3731 3807 3723 3727 3955 3828 3819 3818 3748 3716 3739 3634 3763 3777 3789 3798 3745 3744 3687 3747 3775 3722 3777 3853 3684 3697 3797 3784 3776 3761 3839 3800 3640 3753 3823 3749 3712 3741 3722 3721 3715 3834 3859 3713 3788 3688 3748 3675 3752 3749 3842 3728 3814 3795 3740 3711 3813 3855 3712 3713 3699 3683 3718 3708 3801 3667 3758 3733 3678 3850 3696 3744 3713 3657 3731 3695 3637 3662 3690 3763 3702 3736 3678 3714 3678 3679 3641 3712 3685 3633 3700 3683 3625 3760 3841 3608 3706 3663 3675 3741 3725 3776 3659 3777 3667 3668 3708 3649 3703 3639 3796 3790 3679 3723 3626 3758 3692 3713 3597 3558 3744 3720 3676 3564 3730 3586 3702 3638 3634 3649 3675 3713 3698 3697 3762 3695 3682 3677 3611 3707 3658 3691 3609 3749 3605 3713 3665 3671 3574 3667 3642 3712 3604 3635 3648 3634 3670 3672 3588 3621 3709 3655 3646 3612 3675 3535 3609 3629 3595 3711 3671 3645 3624 3625 3576 3716 3660 3649 3634 3671 3583 3623 3649 3510 3639 3456 3609 3640 3517 3619 3720 3563 3708 3472 3646 3625 3626 3581 3712 3659 3640 3628 3550 3616 3677 3633 3610 3629 3612 3764 3595 3707 3613 3622 3617 3599 3649 3698 3581 3613 3723 3561 3553 3600 3598 3660 3652 3589 3568 3635 3709 3574 3550 3544 3632 3576 3567 3675 3658 3539 3527 3580 3600 3578 3558 3603 3654 3648 3568 3686 3603 3682 3628 3639 3630 3620 3476 3633 3629 3618 3701 3553 3681 3614 3721 3691 3640 3533 3604 3633 3565 3577 3606 3598 3739 3659 3619 3762 3657 3581 3602 3654 3644 3663 3534 3550 3588 3586 3642 3507 3560 3567 3629 3628 3616 3612 3658 3631 3622 3648 3666 3526 3640 3532 3670 3658 3562 3636 3669 3677 3603 3643 3554 3674 3555 3604 3495 3618 3715 3735 3668 3751 3647 3576 3620 3624 3718 3533 3576 3638 3574 3494 3580 3513 3625 3615 3605 3627 3573 3584 3627 3522 3783 3580 3498 3547 3567 3567 3760 3595 3586 3559 3506 3543 3640 3509 3604 3525 3549 3500 3631 3634 3455 3612 3564 3672 3586 3570 3581 3580 3535 3522 3536 3490 3470 3436 3594 3503 3634 3521 3495 3519 3476 3503 3471 3460 3466 3460 3574 3548 3404 3486 3588 3449 3431 3526 3446 3480 3490 3522 3592 3398 3473 3503 3440 3403 3554 3311 3500 3437 3478 3415 3474 3435 3366 3519 3433 3402 3415 3397 3467 3356 3414 3391 3273 3492 3372 3255 3445 3417 3329 3333 3301 3332 3344 3359 3388 3380 3301 3413 3338 3436 3314 3262 3270 3352 3418 3441 3264 3265 3285 3381 3312 3202 3290 3191 3251 3196 3276 3266 3288 3308 3189 3330 3273 3209 3201 3254 3220 3214 3165 3219 3111 3266 3111 3352 3156 3298 3202 3209 3184 3179 3198 3286 3215 3251 3165 3228 3226 3215 3074 3150 3281 3214 3175 3265 3089 3101 3141 3194 3126 3137 3173 3152 3130 3100 3045 3082 3137 3067 3174 3046 3125 3039 3030 3119 3157 3164 3200 3176 3082 3187 3047 3099 3155 3137 3034 3096 3063 3052 3217 3053 3154 3016 3136 3099 3070 2985 3057 3106 3084 3131 3044 3082 3279 3035 3089 3159 3061 3211 3137 3198 3154 3075 3158 3070 3233 3131 3091 3191 3172 3231 3265 3231 3194 3192 3086 3161 3191 3161 3194 3314 3246 3228 3188 3184 3038 3172 3176 3019 3127 3184 3106 3146 3127 3099 3095 3141 3091 3091 3097 3005 3070 3097 3051 3030 3204 2931 2996 3086 3112 3056 3021 3097 3105 3083 3039 2988 3032 3021 3072 3041 3010 3023 3043 2969 3000 3003 2999 2992 3054 3141 2976 3068 2970 3002 2981 3098 3061 2936 3072 3077 2940 3060 2903 2993 3134 2983 3142 3036 3011 3079 3065 3025 2947 3070 3070 3025 3117 3091 2973 3015 2952 3023 3042 3011 3017 3048 3112 3042 3046 2996 3024 3004 3018 3029 2985 3080 2995 2986 2968 3018 3094 3072 2997 2966 3051 3179 3042 3056 3044 2930 3131 3126 3005 3004 2994 3184 2969 2939 3018 3026 3044 3098 2983 3047 3078 3162 2978 3019 3005 3066 3002 3105 3049 3094 3071 3049 3040 3063 2997 3019 2853 3099 3044 3112 3073 2957 3076 2990 3009 3016 3063 3055 3013 3023 3033 3015 2948 3066 3016 2927 3002 3044 3169 3048 3079 2923 2907 3033 2980 3086 3034 3141 3004 3092 3049 2960 3051 2993 3042 2923 3046 2982 2962 2972 3055 2972 3004 3046 2947 3100 3002 2988 3081 2985 3035 3031 2974 2837 2892 3044 2958 2949 2999 3053 3081 2899 2928 2912 2960 2946 3031 2904 2975 2911 2982 2855 3000 2907 2975 3036 3024 2989 2988 2922 2934 2922 2990 2964 3021 2967 2872 2932 2950 3057 3046 3064 2956 2962 2864 2940 2884 2917 2941 2961 2991 2957 2904 2831 3028 2913 2970 2956 2893 2947 2971 2884 2919 2950 2871 2980 2916 2942 2911 2939 2964 2907 2797 2917 2943 2896 2818 2895 2932 2879 2922 2762 2907 2844 2856 2809 2876 2917 2883 2754 2853 2811 2868 2835 2850 2794 2829 2778 2764 2821 2821 2832 2768 2794 2874 2766 2829 2679 2849 2742 2732 2824 2811 2712 2806 2771 2709 2711 2744 2721 2771 2813 2752 2721 2793 2702 2723 2779 2690 2753 2635 2881 2740 2809 2803 2754 2673 2725 2841 2829 2676 2818 2611 2757 2728 2748 2785 2794 2710 2844 2659 2769 2768 2871 2833 2837 2914 2984 2830 2950 2964 3154 3119 3273 3327 3271 3397 3414 3489 3488 3484 3444 3546 3598 3591 3642 3619 3546 3629 3622 3467 3573 3463 3657 3560 3657 3604 3484 3643 3639 3589 3611 3686 3619 3563 3489 3570 3359 3408 3455 3360 3288 3147 3151 3130 3072 3143 3042 3024 2969 3036 2934 3068 2863 2995 2949 2892 2913 2836 2793 2837 2884 2799 2754 2898 2783 2811 2706 2758 2711 2687 2782 2759 2842 2712 2668 2759 2826 2761 2693 2752 2800 2681 2768 2657 2708 2661 2773 2713 2722 2774 2708 2663 2739 2629 2815 2726 2816 2730 2761 2744 2787 2717 2797 2727 2795 2778 2802 2751 2784 2883 2866 2934 2870 2957 2951 3026 3043 3123 3245 3272 3401 3470 3580 3808 3850 4137 4035 4150 4225 4227 4398 4480 4318 4384 4469 4514 4345 4460 4405 4448 4352 4628 4438 4525 4453 4691 4597 4633 4872 4805 4730 4751 4626 4648 4667 4552 4454 4435 4347 4126 4223 4037 3890 3871 3794 3610 3720 3572 3514 3335 3429 3350 3267 3307 3181 3124 3363 3278 3130 3022 3146 2943 2909 2949 2841 2929 2803 2795 2748 2746 2720 2752 2658 2664 2611 2683 2563 2571 2601 2587 2486 2521 2517 2631 2575 2429 2556 2668 2545 2527 2420 2435 2505 2543 2560 2464 2584 2544 2498 2659 2493 2420 2489 2545 2469 2475 2391 2455 2411 2591 2613 2519 2586 2569 2474 2429 2610 2510 2501 2557 2463 2427 2511 2543 2486 2459 2451 2447 2446 2498 2446 2515 2409 2507 2515 2480 2419 2477 2425 2502 2524 2486 2443 2474 2448 2418 2479 2558 2464 2462 2458 2428 2428 2462 2415 2461 2439 2547 2484 2416 2457 2461 2439 2542 2436 2507 2439 2462 2435 2529 2411 2426 2424 2375 2406 2480 2400 2373 2395 2453 2409 2462 2472 2472 2414 2393 2367 2368 2366 2442 2421 2425 2469 2506 2388 2446 2407 2412 2407 2465 2439 2479 2408 2432 2504 2415 2356 2420 2376 2321 2490 2448 2407 2339 2459 2453 2382 2471 2438 2412 2409 2483 2480 2470 2438 2324 2475 2434 2440 2416 2394 2362 2394 2383 2473 2534 2501 2428 2294 2417 2387 2360 2401 2401 2391 2376 2401 2391 2452 2402 2457 2426 2361 2390 2361 2453 2453 2326 2439 2469 2505 2465 2436 2373 2462 2416 2490 2505 2433 2521 2427 2511 2456 2382 2447 2337 2366 2306 2427 2379 2426 2473 2439 2499 2443 2408 2431 2393 2447 2412 2515 2380 2402 2424 2413 2397 2495 2429 2433 2525 2428 2435 2451 2537 2440 2465 2446 2327 2448 2456 2475 2500 2469 2443 2479 2441 2412 2354 2454 2475 2411 2422 2439 2465 2428 2496 2410 2478 2397 2531 2533 2470 2469 2429 2393 2480 2418 2392 2422 2386 2379 2448 2433 2438 2470 2416 2441 2506 2450 2387 2476 2528 2503 2450 2540 2501 2473 2494 2421 2429 2405 2510 2465 2514 2460 2388 2545 2371 2477 2356 2469 2441 2476 2489 2466 2444 2504 2400 2455 2522 2473 2467 2429 2466 2392 2430 2385 2471 2518 2460 2452 2442 2431 2509 2508 2483 2475 2438 2542 2548 2482 2521 2488 2562 2490 2597 2594 2512 2575 2630 2572 2558 2614 2572 2559 2572 2651 2788 2727 2663 2884 2874 2757 2906 2801 2895 2954 3201 3281 3297 3405 3632 3936 3927 4155 4460 4718 5185 5331 5871 5977 6450 6825 6985 7174 7473 7600 7767 7888 7882 7811 8111 7937 7918 7996 8013 7978 7996 7799 7809 7881 7835 8009 8131 8056 8155 8269 8128 8079 7835 7970 7824 7644 7416 7256 6919 6833 6477 6515 6226 5987 5756 5527 5261 5139 4902 4862 4851 4763 4380 4488 4297 4312 4134 4185 4017 3936 3836 3842 3659 3496 3491 3477 3289 3387 3261 3209 3109 3076 3012 2822 2988 2878 2922 2788 2868 2759 2743 2645 2754 2735 2728 2725 2671 2570 2622 2616 2584 2612 2650 2640 2677 2628 2574 2661 2620 2577 2558 2552 2583 2473 2543 2510 2457 2400 2557 2673 2494 2543 2505 2453 2487 2485 2478 2478 2472 2422 2487 2470 2443 2391 2429 2362 2412 2460 2411 2364 2469 2391 2391 2490 2370 2424 2473 2355 2409 2491 2373 2440 2434 2441 2415 2496 2491 2437 2329 2421 2481 2398 2414 2401 2513 2457 2440 2427 2309 2413 2398 2481 2442 2384 2454 2426 2422 2348 2385 2449 2290 2414 2403 2376 2437 2381 2361 2333 2313 2265 2360 2387 2320 2368 2351 2302 2276 2448 2452 2402 2385 2437 2430 2365 2472 2361 2422 2338 2371 2359 2367 2347 2435 2341 2389 2302 2382 2264 2470 2354 2327 2336 2358 2408 2406 2319 2332 2404 2368 2307 2352 2312 2329 2361 2363 2324 2365 2303 2430 2361 2387 2376 2372 2348 2400 2304 2448 2363 2266 2366 2383 2333 2310 2393 2337 2393 2348 2302 2359 2340 2289 2322 2352 2365 2367 2348 2342 2304 2317 2386 2317 2410 2336 2365 2377 2336 2326 2362 2321 2371 2391 2383 2400 2368 2388 2342 2291 2353 2374 2338 2344 2377 2361 2407 2289 2361 2321 2494 2382 2386 2365 2382 2406 2432 2257 2284 2319 2311 2385 2402 2371 2328 2412 2385 2417 2420 2374 2404 2364 2398 2349 2460 2500 2477 2420 2416 2324 2463 2411 2469 2503 2338 2418 2561 2408 2448 2519 2539 2470 2408 2387 2419 2329 2431 2384 2430 2459 2423 2325 2513 2471 2333 2375 2425 2393 2424 2369 2379 2407 2378 2367 2355 2348 2325 2367 2322 2345 2379 2430 2334 2281 2311 2412 2382 2316 2335 2255 2240 2328 2386 2320 2266 2321 2379 2251 2248 2347 2426 2257 2338 2318 2339 2306 2293 2295 2338 2239 2359 2292 2337 2378 2361 2275 2321 2355 2247 2275 2314 2362 2306 2456 2298 2283 2348 2298 2288 2281 2314 2364 2351 2223 2406 2346 2247 2308 2303 2368 2389 2396 2399 2328 2381 2282 2353 2304 2352 2283 2287 2346 2411 2319 2315 2347 2414 2371 2345 2397 2294 2374 2378 2349 2310 2319 2347 2421 2367 2386 2418 2238 2319 2399 2223 2366 2394 2326 2298 2293 2361 2384 2352 2312 2292 2335 2247 2332 2321 2307 2279 2321 2345 2297 2302 2304 2266 2287 2344 2366 2307 2334 2241 2272 2387 2280 2397 2304 2287 2259 2250 2277 2231 2309 2351 2300 2322 2378 2245 2320 2274 2337 2288 2326 2298 2314 2365 2286 2237 2303 2257 2267 2311 2285 2367 2273 2250 2245 2228 2330 2260 2311 2395 2280 2308 2251 2266 2293 2367 2275 2322 2187 2242 2264 2344 2340 2285 2306 2316 2294 2260 2276 2236 2196 2311 2322 2350 2283 2256 2367 2219 2298 2338 2287 2307 2301 2260 2276 2329 2250 2283 2341 2297 2272 2303 2294 2192 2276 2256 2257 2190 2255 2326 2255 2366 2291 2186 2280 2246 2302 2268 2282 2285 2333 2269 2275 2215 2331 2237 2297 2242 2347 2303 2266 2295 2331 2219 2232 2161 2254 2327 2132 2253 2127 2195 2263 2222 2255 2252 2292 2239 2221 2311 2261 2270 2281 2271 2271 2247 2243 2336 2303 2267 2248 2247 2246 2242 2279 2240 2269 2346 2253 2291 2248 2361 2268 2319 2204 2295 2240 2265 2286 2238 2339 2243 2241 2237 2263 2214 2247 2246 2216 2253 2218 2190 2288 2277 2313 2226 2171 2325 2157 2195 2236 2293 2231 2325 2233 2282 2204 2253 2266 2327 2202 2333 2286 2228 2303 2275 2214 2270 2244 2244 2238 2189 2250 2246 2228 2253 2183 2252 2259 2262 2251 2155 2197 2250 2261 2273 2268 2188 2233 2219 2184 2268 2278 2285 2227 2227 2276 2224 2297 2283 2223 2212 2154 2283 2278 2287 2238 2236 2286 2297 2269 2300 2202 2255 2292 2199 2351 2289 2322 2309 2217 2257 2327 2292 2254 2340 2250 2213 2254 2192 2317 2197 2257 2265 2222 2322 2355 2181 2279 2248 2284 2243 2322 2236 2315 2279 2297 2177 2173 2292 2275 2328 2224 2265 2217 2260 2276 2204 2327 2235 2334 2136 2277 2328 2359 2304 2375 2228 2270 2297 2269 2289 2325 2287 2347 2304 2347 2243 2349 2312 2304 2384 2272 2388 2272 2220 2358 2324 2285 2335 2303 2310 2251 2314 2289 2413 2289 2322 2227 2287 2219 2321 2318 2262 2278 2287 2356 2205 2280 2316 2310 2203 2206 2323 2302 2218 2294 2267 2284 2233 2270 2268 2271 2224 2259 2277 2254 2269 2224 2246 2257 2230 2185 2166 2192 2219 2206 2284 2187 2221 2213 2267 2206 2308 2249 2223 2154 2237 2240 2259 2269 2198 2215 2250 2263 2284 2279 2213 2265 2328 2271 2222 2222 2255 2210 2197 2254 2200 2258 2285 2239 2254 2246 2219 2207 2183 2239 2232 2208 2247 2195 2235 2241 2222 2222 2231 2219 2256 2237 2212 2197 2197 2285 2246 2230 2293 2213 2279 2218 2253 2224 2175 2242 2324 2302 2256 2219 2350 2246 2221 2264 2215 2172 2279 2184 2178 2350 2277 2234 2243 2231 2298 2311 2364 2306 2208 2239 2261 2218 2219 2245 2255 2271 2239 2309 2236 2325 2284 2237 2214 2181 2309 2247 2244 2263 2319 2246 2146 2249 2339 2260 2200 2194 2200 2294 2311 2247 2233 2255 2205 2244 2291 2237 2261 2292 2264 2245 2241 2234 2215 2287 2178 2331 2217 2297 2304 2245 2309 2239 2314 2331 2413 2348 2437 2468 2543 2383 2571 2635 2639 2680 2723 2799 2864 2889 2771 2832 2860 2769 2927 2936 2917 2892 2890 2874 2905 2986 2954 2892 2887 2868 2809 2841 2794 2846 2896 2832 2855 2778 2799 2730 2732 2777 2737 2589 2694 2675 2680 2648 2623 2618 2516 2542 2493 2544 2427 2577 2470 2421 2377 2491 2495 2432 2456 2394 2391 2311 2382 2359 2370 2377 2392 2359 2364 2338 2501 2322 2370 2322 2363 2279 2423 2279 2303 2315 2332 2340 2213 2156 2219 2422 2267 2223 2192 2258 2273 2209 2224 2219 2244 2253 2311 2296 2093 2194 2307 2228 2265 2250 2210 2176 2174 2264 2248 2288 2301 2210 2237 2200 2246 2271 2250 2211 2158 2240 2166 2267 2217 2165 2262 2276 2094 2220 2276 2215 2207 2285 2276 2219 2269 2226 2193 2229 2201 2197 2275 2249 2209 2217 2301 2185 2174 2170 2249 2329 2175 2254 2182 2262 2204 2199 2144 2128 2254 2166 2165 2302 2180 2253 2233 2240 2119 2248 2188 2195 2228 2183 2154 2155 2152 2190 2287 2223 2184 2191 2196 2223 2200 2219 2154 2226 2136 2285 2197 2242 2206 2227 2223 2217 2188 2180 2219 2280 2228 2283 2167 2170 2191 2158 2266 2162 2233 2145 2165 2302 2254 2247 2148 2203 2218 2244 2237 2223 2223 2155 2152 2226 2187 2174 2237 2262 2216 2243 2279 2224 2145 2295 2182 2244 2235 2280 2241 2211 2283 2326 2234 2153 2311 2218 2188 2275 2312 2229 2219 2227 2185 2151 2222 2221 2217 2219 2278 2171 2272 2214 2194 2240 2279 2267 2359 2208 2266 2218 2208 2267 2169 2279 2176 2220 2328 2202 2188 2245 2306 2250 2293 2248 2320 2211 2310 2274 2187 2308 2254 2244 2198 2242 2252 2273 2205 2256 2355 2256 2295 2302 2315 2212 2195 2303 2235 2329 2259 2153 2175 2184 2158 2255 2285 2152 2273 2241 2241 2242 2244 2351 2307 2182 2242 2148 2239 2308 2172 2261 2315 2309 2244 2294 2188 2311 2255 2318 2227 2361 2150 2248 2287 2284 2285 2223 2294 2221 2165 2202 2239 2253 2351 2350 2291 2360 2258 2203 2156 2259 2202 2254 2378 2300 2352 2278 2328 2353 2402 2331 2330 2261 2280 2260 2335 2361 2299 2345 2462 2400 2467 2344 2522 2408 2519 2552 2447 2554 2583 2696 2650 2750 2810 2969 3029 3197 3376 3647 3835 3993 4297 4338 4466 4569 4686 4999 4787 4925 4995 5186 5189 5244 5351 5381 5365 5410 5506 5445 5347 5349 5270 5444 5292 5283 5093 5155 4883 5010 4782 4923 4738 4625 4571 4468 4243 4274 4279 4224 4132 4088 4082 4049 3899 3932 3847 3797 3755 3610 3604 3545 3530 3539 3447 3431 3397 3331 3253 3177 3244 3264 3181 3022 3097 3117 3051 2934 3096 2841 2927 2791 2797 2803 2835 2723 2746 2726 2577 2633 2676 2571 2573 2540 2566 2524 2520 2436 2533 2439 2447 2509 2408 2506 2391 2430 2347 2344 2390 2500 2415 2356 2435 2328 2303 2285 2357 2394 2364 2370 2333 2390 2257 2345 2369 2355 2334 2410 2264 2317 2297 2345 2319 2327 2353 2361 2293 2316 2313 2273 2256 2231 2230 2368 2152 2277 2181 2322 2219 2229 2254 2369 2166 2154 2274 2204 2249 2303 2192 2204 2280 2220 2172 2245 2221 2250 2214 2349 2235 2264 2163 2285 2165 2242 2223 2325 2284 2239 2185 2134 2209 2265 2236 2172 2276 2179 2239 2165 2225 2164 2219 2321 2219 2179 2299 2240 2156 2147 2288 2229 2251 2135 2307 2158 2240 2214 2244 2211 2168 2185 2203 2274 2228 2304 2258 2230 2304 2260 2147 2195 2279 2257 2247 2260 2279 2336 2225 2248 2313 2360 2249 2349 2274 2397 2373 2506 2469 2441 2510 2503 2488 2554 2576 2431 2597 2579 2592 2629 2603 2496 2604 2603 2516 2616 2663 2609 2543 2583 2513 2579 2474 2571 2525 2533 2431 2567 2621 2498 2554 2572 2546 2369 2474 2427 2473 2519 2430 2454 2390 2357 2408 2400 2405 2461 2328 2362 2319 2273 2388 2362 2347 2405 2381 2294 2338 2284 2361 2395 2314 2364 2295 2403 2326 2408 2302 2382 2366 2356 2308 2260 2245 2266 2281 2269 2225 2330 2152 2302 2222 2222 2242 2230 2221 2287 2223 2232 2279 2173 2168 2321 2194 2245 2258 2264 2268 2234 2276 2277 2328 2262 2274 2244 2115 2197 2268 2268 2226 2266 2267 2150 2266 2274 2166 2192 2301 2229 2175 2174 2274 2232 2337 2230 2159 2278 2295 2215 2266 2215 2240 2207 2299 2284 2238 2174 2228 2145 2213 2200 2270 2182 2185 2164 2224 2224 2320 2190 2232 2199 2150 2193 2187 2172 2231 2278 2163 2159 2184 2226 2099 2207 2126 2189 2198 2214 2201 2181 2206 2188 2211 2162 2095 2267 2281 2140 2182 2144 2117 2108 2235 2172 2151 2197 2202 2271 2142 2183 2153 2125 2210 2234 2139 2111 2196 2147 2199 2107 2121 2182 2145 2218 2189 2197 2162 2209 2140 2179 2119 2185 2219 2139 2123 2184 2124 2167 2061 2157 2254 2160 2211 2139 2129 2187 2147 2075 2229 2213 2133 2223 2212 2119 2281 2185 2185 2102 2265 2168 2216 2242 2202 2315 2225 2245 2200 2102 2168 2209 2111 2086 2232 2171 2251 2105 2173 2110 2096 2136 2134 2148 2168 2135 2182 2133 2172 2159 2212 2195 2192 2141 2165 2130 2158 2170 2168 2160 2204 2163 2101 2263 2106 2146 2163 2185 2225 2158 2152 2271 2131 2251 2183 2202 2118 2132 2137 2222 2159 2289 2155 2126 2241 2185 2158 2237 2122 2213 2157 2076 2209 2168 2145 2135 2092 2168 2172 2151 2186 2089 2112 2209 2125 2236 2165 2144 2127 2105 2156 2137 2145 2151 2082 2230 2200 2118 2231 2207 2158 2182 2026 2261 2163 2201 2190 2042 2013 2131 2155 2132 2039 2134 2166 2141 2135 2141 2145 2178 2170 2132 2153 2229 2161 2173 2235 2145 2173 2176 2144 2201 2229 2144 2223 2173 2139 2176 2190 2137 2115 2124 2183 2140 2249 2116 2199 2163 2114 2160 2172 2132 2124 2187 2175 2180 2183 2186 2196 2148 2197 2157 2209 2142 2171 2122 2182 2168 2152 2218 2219 2121 2239 2215 2186 2124 2186 2157 2138 2214 2262 2171 2245 2203 2171 2163 2181 2128 2248 2133 2142 2269 2214 2135 2099 2217 2176 2146 2110 2224 2045 2148 2193 2071 2219 2153 2173 2193 2172 2206 2212 2241 2209 2269 2217 2151 2223 2139 2164 2137 2161 2191 2207 2166 2275 2155 2127 2188 2084 2084 2200 2225 2180 2188 2148 2188 2170 2196 2055 2210 2146 2167 2124 2182 2168 2095 2140 2157 2225 2221 2088 2163 2296 2066 2101 2167 2142 2174 2097 2126 2111 2117 2129 2102 2168 2166 2197 2228 2241 2069 2187 2171 2170 2128 2135 2159 2151 2193 2152 2132 2221 2168 2083 2179 2109 2168 2208 2072 2129 2131 2185 2159 2145 2103 2192 2162 2110 2102 2116 2159 2058 2133 2172 2252 2114 2073 2019 2179 2123 2174 2171 2247 2233 2230 2139 2117 2245 2075 2144 2064 2194 2105 2148 2150 2233 2187 2184 2214 2205 2262 2189 2211 2194 2107 2177 2115 2215 2190 2192 2282 2286 2288 2285 2268 2220 2244 2185 2279 2253 2260 2142 2314 2300 2199 2255 2178 2266 2179 2228 2289 2222 2203 2195 2238 2188 2192 2225 2128 2165 2206 2229 2243 2246 2182 2252 2131 2167 2165 2269 2282 2153 2217 2239 2205 2230 2185 2186 2216 2239 2282 2343 2227 2146 2271 2313 2432 2319 2446 2370 2378 2451 2433 2501 2452 2428 2427 2435 2482 2527 2316 2490 2430 2522 2566 2463 2466 2472 2486 2469 2447 2523 2553 2503 2499 2433 2459 2404 2475 2464 2396 2442 2328 2342 2389 2420 2337 2381 2399 2389 2376 2332 2424 2454 2394 2464 2334 2399 2450 2425 2392 2439 2311 2469 2389 2407 2374 2460 2417 2444 2393 2437 2404 2374 2470 2325 2440 2479 2337 2314 2345 2339 2371 2334 2333 2268 2336 2296 2303 2297 2227 2333 2278 2248 2260 2132 2209 2162 2201 2276 2174 2144 2176 2232 2126 2252 2179 2175 2159 2118 2218 2192 2168 2204 2170 2153 2219 2181 2180 2107 2200 2175 2067 2162 2128 2142 2204 2050 2158 2191 2106 2231 2161 2071 2140 2089 2142 2126 2226 2125 2132 2175 2153 2057 2099 1980 2156 2148 2196 2176 2211 2232 2164 2169 2068 2254 2113 2117 2230 2175 2236 2128 2112 2242 2212 2138 2080 2214 2088 2087 2229 2105 2183 2224 2259 2242 2166 2107 2175 2142 2070 2149 2211 2154 2187 2216 2162 2118 2108 2123 2126 2145 2160 2042 2202 2195 2134 2214 2227 2157 2205 2115 2163 2111 2186 2110 2098 2079 2120 2077 2162 2203 2191 2078 2131 2189 2075 2170 2069 2155 2168 2099 2115 2054 2054 2177 2187 2211 2216 2182 2098 2125 2231 2247 2155 2105 2203 2156 2214 2137 2120 2125 2166 2185 2173 2151 2192 2259 2173 2026 2088 2182 2254 2123 2141 2222 2181 2190 2223 2241 2263 2230 2199 2285 2270 2244 2233 2252 2249 2402 2476 2448 2517 2513 2610 2588 2698 2708 2877 2645 2760 2752 2742 2814 2802 2832 2940 2862 2959 2965 2998 2947 2956 2932 2873 2967 2887 2951 3037 2898 2995 2877 2816 2890 2781 2758 2680 2692 2698 2742 2677 2594 2626 2587 2585 2534 2548 2518 2486 2455 2469 2559 2463 2422 2464 2401 2459 2481 2466 2358 2573 2433 2542 2483 2453 2478 2468 2518 2448 2356 2492 2358 2400 2444 2463 2394 2500 2340 2454 2319 2313 2376 2328 2326 2388 2357 2238 2379 2271 2275 2348 2276 2259 2246 2311 2291 2239 2210 2260 2132 2223 2132 2277 2224 2129 2225 2149 2240 2145 2214 2206 2193 2254 2181 2140 2056 2151 2214 2250 2146 2140 2097 2238 2071 2186 2089 2140 2126 2212 2107 2160 2179 2134 2198 2219 2117 2150 2226 2104 2170 2142 2093 2106 2086 2120 2097 2163 2179 2234 2125 2181 2113 2139 2200 2146 2098 2252 2215 2074 2146 2159 2190 2111 2065 2153 2227 2211 2094 2164 2138 2128 2084 2158 2179 2167 2163 2211 2097 2168 2101 2327 2187 2157 2135 2063 2205 2174 2230 2229 2202 2198 2129 2106 2155 2181 2183 2194 2162 2250 2192 2305 2301 2290 2259 2314 2254 2301 2194 2345 2221 2365 2371 2458 2347 2390 2469 2371 2355 2371 2314 2464 2278 2258 2362 2357 2312 2397 2360 2316 2352 2267 2289 2335 2361 2244 2249 2306 2304 2256 2319 2254 2213 2120 2314 2307 2130 2139 2229 2290 2243 2260 2213 2171 2213 2114 2191 2214 2187 2178 2236 2159 2178 2251 2211 2212 2242 2209 2192 2194 2204 2179 2208 2138 2201 2221 2237 2197 2191 2190 2156 2177 2176 2203 2186 2205 2174 2231 2176 2157 2213 2155 2092 2164 2198 2093 2192 2153 2199 2113 2178 2118 2073 2118 2136 2089 2060 2128 2095 2175 2173 2085 2175 2054 2167 2125 2116 2139 2147 2146 2158 2150 2168 2133 2099 2154 2176 2148 2094 2200 2026 2139 2108 2183 2126 2135 2136 2112 2149 2179 2191 2145 2084 2172 2174 2058 2097 2158 2057 2183 2192 2161 2085 2134 2076 2145 2144 2161 2138 2113 2100 2222 2107 2121 2156 2143 2148 2157 2144 2141 2076 2066 2067 2056 2103 2147 2029 2148 2103 2135 2137 2102 2152 2096 2128 2059 2125 2146 2120 2159 2161 2075 2066 2054 2156 2071 2122 2097 2140 2136 2138 2160 2045 2166 2146 2102 2103 2074 2103 2088 2073 2129 2123 2081 2078 2153 2139 2112 2047 2132 2090 2060 2002 2078 2066 2134 2080 2080 2162 2091 2158 2075 2183 2068 2124 2099 2063 2041 2116 2089 2088 2063 2131 2101 2089 2175 2093 2148 2053 2179 2077 2125 2068 2118 2075 2200 2171 2101 2054 2134 2080 2170 2125 2071 2087 2134 2095 2201 2106 1980 2009 2169 2088 2192 2174 2073 2152 2139 2066 2043 2171 2056 2055 2075 2129 2083 2044 2099 2128 2113 2032 2080 2112 2129 2043 2119 2044 2073 2151 2132 2074 2110 2104 2079 2083 2033 2046 2072 2031 2033 2049 2054 2077 2115 2080 2093 2164 2144 2059 2142 2156 2126 2114 2129 2148 2108 2155 2128 2174 2066 2059 2088 2064 2089 2114 2175 2133 2139 2036 2070 2093 2081 2084 2171 2023 1986 2131 2071 2144 2097 2073 2143 2122 2161 2121 2124 2130 2170 2118 2079 2084 2050 2107 2036 2181 2099 2075 2146 2131 2140 2054 2107 2154 2108 2060 2108 2112 2084 2098 2106 2071 2124 2042 2089 2178 2106 2054 2113 2143 2184 2117 2139 2107 2136 2073 2061 2217 2102 2076 2071 2125 2119 2129 2047 2125 2171 2101 2105 2052 2158 2185 2151 2077 2167 2100 2111 2044 2152 2171 2105 2027 2075 2215 2118 2130 2109 2089 2153 2174 2153 2125 2176 2084 2129 2063 2122 2072 2151 2194 2177 2108 2085 2094 1996 2090 2072 2075 2129 2129 2132 2140 2065 2073 2106 2092 2135 2110 2153 2078 2093 2088 2151 2111 2214 2080 2005 1982 2078 2087 2057 2111 2065 2067 2178 2073 2057 2111 2114 2071 2112 2065 2075 1989 2089 2096 2113 2082 2097 2121 2165 2067 2089 2127 2071 2130 2073 2143 2102 1990 2132 2140 2101 2156 2136 2170 2271 2232 2051 2219 2110 2138 2325 2252 2169 2208 2216 2224 2141 2136 2250 2158 2285 2230 2165 2242 2155 2263 2176 2283 2229 2226 2138 2262 2201 2224 2259 2318 2271 2223 2222 2119 2260 2208 2096 2258 2082 2129 2213 2190 2154 2126 2142 2193 2120 2097 2071 2158 2118 2095 2148 2097 2137 2081 2134 2144 2180 2081 2125 2081 2245 2128 2143 2070 2121 2086 2125 2089 2097 2239 2118 2120 2063 2123 2169 2101 2159 2118 2120 2116 2127 2124 2099 2086 2111 2081 2096 2098 2123 2143 2105 2065 2128 2010 2074 2092 2136 2174 2077 2115 2090 2200 2146 2094 2055 2124 2089 2167 2114 2069 2219 2166 2123 2165 2077 2148 2070 2121 2014 2025 2016 2098 2213 2171 2150 2113 2122 2087 2064 2077 2085 2155 2051 2056 2048 1974 2141 2189 2138 2070 2070 2071 2036 2075 2112 2060 2119 2181 2094 2161 2154 2159 2091 2075 2003 2106 2128 2138 2089 2139 2073 2149 2124 2070 2079 2094 2123 2079 1987 2194 2099 2126 2074 2176 2089 2035 2046 2124 2134 2091 2117 2081 2101 2051 2129 1989 2091 2041 2085 2047 2103 2137 2083 2142 2121 2093 2192 2102 2104 2073 2106 2150 2096 2147 2069 2163 2060 2069 2108 2027 2158 2106 2122 2151 2136 2101 2065 2170 2143 2094 2068 2100 2116 2127 2134 2052 2139 2030 2143 2054 2087 2108 2132 2105 2095 2075 2088 2130 2044 2095 2134 2096 2087 2062 2077 2141 2131 2088 2094 2164 2104 2175 2060 2090 2114 2116 2055 2080 2093 2124 2126 2058 2026 2096 2104 2127 2127 2042 2007 1978 2161 2024 2110 2059 2014 2146 2099 2103 2038 2097 2082 2143 2098 2114 2184 2144 2125 2222 2020 2136 2115 2089 2178 2124 2143 2149 2178 2181 2154 2218 2215 2244 2209 2376 2249 2313 2260 2343 2287 2339 2325 2305 2269 2324 2469 2393 2314 2510 2351 2308 2312 2325 2355 2391 2431 2427 2452 2388 2442 2372 2408 2327 2460 2349 2489 2294 2287 2305 2385 2245 2354 2296 2301 2244 2318 2226 2341 2260 2245 2243 2243 2283 2184 2292 2243 2184 2178 2141 2192 2174 2257 2185 2203 2148 2183 2219 2177 2175 2075 2328 2127 2210 2193 2181 2192 2175 2241 2199 2146 2169 2297 2207 2190 2245 2196 2165 2168 2203 2234 2163 2152 2243 2139 2235 2225 2204 2183 2140 2075 2080 2219 2234 2079 2207 2175 2123 2150 2221 2219 2161 2121 2166 2204 2112 2145 2177 2152 2173 2233 2098 2154 2127 2171 2092 2173 2061 2194 2162 2090 2174 2121 2145 2099 2166 2127 2101 2089 2104 2100 2149 2102 2111 2111 2118 2135 2105 2099 2138 2138 2145 2106 2103 2120 2087 2140 2077 2072 2123 2086 2145 2093 2070 2099 2123 2115 2151 2110 2047 2144 2055 2192 2107 2140 2157 2100 1998 2074 2134 2056 2161 2113 2167 2098 2175 2068 2090 2079 2098 2131 2005 2086 2058 2113 2050 2153 2143 2088 2032 2088 2123 2055 2033 2134 2050 2192 2109 2126 2090 2056 2117 2114 2065 2067 2071 2122 2140 2087 2099 1986 2071 2121 2147 2129 2065 2178 2171 2064 2165 2165 2131 2130 2003 2162 2081 2064 2080 2066 1985 2082 2101 2112 2143 2126 2060 2108 2086 2096 2111 2237 2084 2159 2164 2097 2119 2136 2054 2182 2078 2184 2096 2079 2020 2166 2098 2063 1991 2094 2072 2087 2115 2095 2024 2125 2067 2122 2122 2178 2101 2136 2082 2146 2079 1996 2033 2087 2076 2057 2030 2105 2143 2096 2139 2125 2158 2140 2080 2070 2022 2109 2072 2141 2093 2149 2101 2076 2182 2149 2089 2146 2098 2032 2041 2117 2108 2131 2102 2186 2149 2164 2179 2137 2076 2167 1993 2092 2058 2093 2124 2059 2008 2119 2097 2057 2059 2067 2115 2225 2080 2126 2198 2080 2120 2080 2033 2129 2047 2024 2108 2097 2116 2065 2147 2074 2149 2085 2093 2136 2044 2049 2090 2140 2020 2166 2119 2042 2139 2014 2036 2089 2103 2055 2073 2074 2012 2153 2084 2170 2115 2105 2071 2119 2091 2127 2071 2124 2116 2013 2017 2048 2154 2019 2100 2092 2021 2097 2003 2067 2117 2138 2007 2144 2058 2054 2141 2158 2074 2088 2151 2028 2000 2131 2162 2132 2057 2094 2070 2085 2009 2121 2061 2070 2167 2108 2074 2120 2171 2174 2140 2077 2044 2132 2159 2102 2093 2135 1978 2045 2099 2136 2060 2093 2025 2099 2141 2124 2158 2115 1945 2091 2013 2052 2174 2186 2031 2039 2070 2129 2140 2027 2070 2071 2124 2055 2026 2168 2178 2050 2035 2088 2163 2070 2028 2158 2115 2153 1964 2069 2105 2097 2134 2004 1996 2183 1989 2104 2086 2101 2114 2134 2089 2085 2143 2109 2077 2072 2071 2045 2100 2063 2099 2121 2180 2116 2073 2149 2073 2027 2086 2146 2124 2026 2120 2118 2033 2124 2122 2162 2129 2146 1984 2146 2066 2107 2063 2123 2139 2104 2170 2041 2129 2052 2048 2056 2091 2059 2105 2116 2048 2041 2180 2095 2114 2142 2091 2114 2193 2129 2129 2136 2117 2104 2059 2096 2142 2066 2102 2058 2129 2042 2193 2161 2148 2122 2135 2146 2047 2077 2126 2158 2137 2073 2028 2173 2160 2075 2095 2207 2114 2118 2144 2126 2006 2082 2105 2144 2206 2145 2122 2090 2046 2132 2110 2082 2004 2129 2033 2091 2043 2112 2051 2118 2137 2118 2065 2087 2069 2166 2053 2124 2135 2081 2150 2117 2134 2112 2163 2131 2104 2217 2055 2045 2075 2103 2068 2072 2076 2044 2169 2106 2130 2127 2131 2146 2069 2112 2170 2119 2083 2097 2171 2100 2046 2107 2141 2072 2080 2052 2125 2094 2126 2121 2041 2173 2134 2108 2115 2118 2106 2166 2100 2163 2084 2174 2139 2118 2138 2179 2132 2169 2213 2176 2170 2247 2230 2185 2223 2162 2195 2200 2240 2213 2251 2268 2313 2268 2145 2200 2148 2153 2191 2182 2167 2110 2214 2137 2220 2118 2267 2196 2211 2128 2176 2122 2198 2158 2199 2249 2188 2103 2201 2185 2177 2147 2093 2082 2120 2074 2077 2214 2258 2142 2221 2176 2150 2221 2173 2151 2205 2246 2226 2223 2179 2210 2153 2089 2211 2207 2227 2156 2261 2166 2226 2205 2206 2239 2173 2221 2229 2181 2241 2248 2177 2133 2208 2192 2175 2225 2152 2147 2178 2162 2209 2250 2191 2155 2207 2175 2140 2167 2152 2180 2211 2192 2137 2191 2154 2168 2142 2158 2136 2143 2161 2117 2131 2120 2277 2174 2202 2158 2115 2117 2116 2183 2153 2160 2159 2169 2117 2163 2107 2176 2154 2197 2115 2264 2104 2066 2227 2222 2094 2179 2181 2156 2201 2144 2174 2099 2178 2132 2260 2196 2127 2143 2107 2069 2216 2140 2187 2154 2200 2120 2081 2162 2194 2147 2166 2061 2168 2142 2112 2126 2099 2129 2152 2111 2128 2115 2123 2051 2143 2132 2081 2112 2113 2102 2005 2061 2163 2084 2098 2165 2154 2086 2149 2196 2135 2049 2171 2084 2141 2121 2042 2153 2172 2177 2154 2081 2129 2005 2118 2130 2136 2049 2125 2088 2092 2113 2043 2172 2148 2161 2158 1978 2029 2114 2149 2135 2167 2124 2076 2046 2138 2110 2116 2155 2156 2142 2194 2167 2162 2184 2067 2126 2170 2182 2111 2090 2108 2057 2089 2136 2134 2138 2143 2173 2172 2140 2106 2203 2155 2182 2157 2196 2001 2201 2180 2113 2245 2123 2200 2236 2212 2146 2215 2206 2288 2306 2189 2279 2255 2303 2356 2323 2428 2590 2429 2545 2564 2563 2615 2675 2625 2721 2678 2745 2643 2761 2608 2711 2751 2785 2742 2691 2799 2821 2713 2834 2673 2672 2699 2606 2716 2581 2713 2699 2574 2558 2558 2567 2580 2582 2632 2613 2604 2593 2510 2509 2479 2403 2482 2454 2460 2507 2473 2428 2429 2404 2366 2336 2284 2416 2371 2342 2323 2331 2353 2327 2377 2326 2396 2283 2258 2281 2315 2282 2349 2332 2248 2325 2275 2246 2387 2279 2382 2242 2339 2290 2330 2284 2370 2273 2406 2407 2351 2231 2434 2246 2314 2380 2303 2362 2272 2301 2334 2255 2332 2390 2383 2330 2345 2292 2378 2256 2340 2269 2221 2299 2181 2251 2207 2148 2161 2258 2187 2206 2213 2214 2234 2158 2224 2239 2231 2116 2215 2114 2128 2221 2189 2138 2170 2165 2163 2153 2177 2205 2105 2184 2113 2148 2174 2154 2107 2102 2183 2159 2194 2110 2135 2093 2139 2201 2190 2219 2111 2113 2089 2113 2111 2135 2215 2251 2178 2142 2181 2213 2138 2175 2142 2156 2215 2106 2153 2216 2152 2123 2125 2136 2164 2179 2205 2138 2163 2161 2242 2258 2159 2141 2183 2305 2246 2104 2180 2031 2168 2172 2219 2159 2101 2124 2194 2165 2150 2164 2180 2116 2219 2133 2115 2115 2195 2202 2195 2188 2049 2140 2137 2217 2081 2206 2174 2134 2190 2210 2143 2122 2226 2139 2127 2185 2146 2195 2183 2152 2191 2155 2135 2213 2228 2145 2229 2121 2144 2156 2122 2142 2191 2116 2268 2135 2189 2067 2134 2168 2109 2170 2166 2121 2114 2100 2113 2136 2155 2118 2145 2110 2147 2195 2122 2144 2094 2102 2126 2123 2137 2237 2207 2153 2130 2150 2042 2166 2115 2104 2052 2165 2111 2131 2138 2198 2098 2140 2126 2064 2144 2193 2185 2092 2079 2169 2130 2122 2152 2066 2144 2147 2162 2035 2064 2129 2167 2064 2077 2195 2051 2147 2134 2167 2119 2106 2140 2130 2139 2113 2129 2021 2114 2156 2156 2104 2015 2152 2052 1976 2189 2058 2140 2088 2089 2100 2135 2201 2174 2174 2071 2112 2198 2112 2102 2142 2085 2043 2107 2036 2097 2134 2107 2104 2085 2106 2048 2058 2131 2121 2142 2051 2071 2206 2105 2103 2162 2018 2176 2063 2159 2128 2121 2099 2131 2245 2091 2070 2070 2079 2052 2113 2127 2088 2061 2140 2146 2083 2170 2107 2141 2139 2195 2041 2109 2074 2083 2066 2141 2137 2107 2179 2107 2064 2066 2101 2043 2213 2122 2107 2020 2101 2115 2142 2079 2115 2127 2099 1973 2098 2115 2091 2198 2156 2075 2025 2044 2112 2177 2122 2111 2150 2125 2088 2090 2032 2098 2124 2091 2158 2135 2122 2178 2187 2082 2162 2172 2018 2066 2162 2149 2028 2119 2057 2156 2148 2109 2196 2177 2051 2165 2119 2058 2098 2036 2085 2152 2034 2113 2108 2106 2086 2115 2068 2128 2087 2079 2141 2156 2036 2097 2144 2100 2061 2087 2128 2050 2076 2097 2007 2109 2127 2135 2050 2088 2159 2147 2097 2095 2024 2164 2063 2137 2056 2121 1987 2128 2036 2113 2101 2160 2086 2090 2157 2055 2159 2010 2067 2188 2118 2033 2033 1999 2160 2055 2097 2090 2000 2125 2113 2027 2029 2197 2121 2145 2128 2125 2168 2119 2126 2104 2117 2142 2110 2179 2161 2066 2185 2129 2043 2070 2166 2051 2141 2053 2057 2142 2067 2055 2178 2138 2143 2099 2062 2135 2135 2061 2237 2187 2095 2186 2177 2145 2120 2132 2049 2101 2080 2061 2146 2119 2122 2089 2054 2059 2160 2117 2183 2153 2128 2182 2176 2039 2124 2240 2113 2139 2097 2082 2120 2195 2187 2186 2096 2142 2050 2129 2121 2126 2065 2113 2101 2091 2098 2172 2114 2102 2210 2247 2119 2151 2201 2090 2111 2116 2111 2067 2163 2180 2168 2112 2163 2151 2115 2142 2102 2186 2226 2148 2183 2184 2151 2229 2079 2173 2127 2248 2150 2172 2162 2226 2177 2159 2080 2156 2182 2191 2103 2137 2091 2155 2158 2161 2194 2265 2151 2188 2177 2175 2282 2239 2200 2164 2178 2227 2205 2207 2186 2131 2158 2157 2190 2112 2138 2132 2163 2067 2124 2225 2173 2147 2100 2201 2186 2184 2233 2175 2163 2035 2040 2084 2166 2131 2168 2122 2172 2058 2058 2193 2093 2089 2193 2116 2114 2176 2195 2130 2269 2078 2049 2104 2157 2100 2151 2126 2171 2092 2105 2078 2133 2069 2118 2098 2078 2065 2099 2111 2100 2181 2163 2072 2117 2028 2144 2054 2207 2184 2153 1985 2176 2074 2115 2088 2115 2142 2120 2102 2091 2145 2028 2095 2204 2096 2085 2098 2130 2085 2135 2105 2166 2129 2092 2159 2122 2134 2113 2122 2118 2217 2062 2121 2086 2195 2104 2085 2045 2145 2109 2122 2179 2161 2136 2136 2093 2092 2174 2105 2146 2163 2048 2115 2111 2133 2080 2150 2133 2161 2025 2140 2133 1995 2137 2086 2142 2156 2081 2131 2188 2099 2146 2176 2116 2123 2131 2174 2075 2031 2092 2129 2081 2143 2117 2137 2066 2205 1970 2042 2110 2061 2226 2120 2117 2083 2128 2122 2008 2119 2063 2056 2165 2072 2080 2180 2104 2207 2132 2125 2128 2088 2201 2078 2104 2115 2151 2096 2146 2055 2031 2062 2117 2139 2224 2088 2175 2101 2150 2046 2081 2201 2093 2194 2084 2124 2121 2093 2084 2157 2088 2142 2130 2126 2113 2163 2234 2127 2124 2129 2228 2130 2149 2193 2145 2130 2153 2175 2103 2117 2183 2151 2238 2129 2216 2215 2258 2237 2209 2184 2308 2238 2235 2296 2370 2461 2384 2466 2450 2410 2435 2461 2478 2476 2412 2577 2604 2510 2546 2619 2558 2607 2464 2478 2551 2432 2452 2519 2501 2523 2512 2475 2533 2458 2386 2486 2391 2529 2454 2498 2556 2511 2446 2459 2388 2454 2406 2406 2424 2375 2421 2431 2397 2355 2471 2330 2290 2307 2293 2334 2325 2261 2360 2328 2229 2294 2327 2154 2310 2291 2221 2223 2273 2194 2189 2313 2265 2216 2222 2220 2148 2251 2227 2199 2163 2160 2139 2215 2152 2252 2362 2208 2260 2223 2135 2230 2360 2216 2321 2222 2256 2260 2368 2242 2335 2334 2252 2194 2325 2282 2296 2277 2224 2182 2258 2204 2288 2260 2155 2213 2202 2319 2249 2217 2272 2200 2195 2247 2283 2181 2160 2087 2170 2211 2125 2274 2219 2218 2215 2219 2218 2250 2200 2171 2146 2177 2176 2203 2198 2186 2226 2105 2106 2280 2175 2144 2140 2220 2188 2156 2140 2157 2179 2044 2085 2118 2155 2254 2189 2146 2131 2173 2132 2185 2182 2100 2058 2082 2247 2118 2074 2138 2207 2100 2099 2102 2228 2159 2133 2089 2178 2143 2041 2270 2144 2134 2160 2142 2116 2106 2159 2086 2147 2075 2187 2190 2257 2238 2194 2141 2174 2027 2132 2171 2227 2137 2100 2131 2075 2209 2158 2126 2137 2100 2138 2099 2125 2124 2121 2169 2153 2102 2277 2155 2143 2134 2138 2244 2177 2109 2132 2127 2084 2090 2086 2040 2149 2088 2064 2073 2119 2054 2162 2060 2139 2238 2101 2169 2128 2046 2055 2202 2146 2083 2196 2163 2061 2155 2102 2098 2083 2091 2148 2051 2144 2088 2095 2089 2080 2125 2118 2090 2154 2113 2213 2148 2104 2092 2109 2150 2176 2166 2044 2232 2062 2148 2067 2186 2111 2117 2096 2118 2113 2136 2112 2084 2082 2146 2155 2074 2076 2084 2115 2111 2039 2179 2139 2081 2148 2133 2147 2093 2083 2071 2126 2095 2155 2196 2053 2123 2121 2149 2054 2055 2172 2149 2152 2176 2082 2150 2075 2075 2136 2194 2113 2129 2127 2092 2137 2087 2051 2118 2042 2082 2098 2080 2084 2195 2078 2121 2070 2082 2201 2086 2068 2116 2070 2061 2084 2140 2198 2043 2119 2074 2046 2175 2097 2198 2072 2106 1968 2066 2002 2110 2109 1989 2144 2104 2134 2025 2104 2071 2160 2157 2151 2168 2078 2115 2039 2051 2041 2076 2080 2184 2146 2199 2161 2131 2137 2024 1983 2170 2092 2156 2109 2104 2116 2166 2148 2056 2044 2065 2113 2080 2102 2119 2113 2044 2121 2125 2159 2090 2089 2180 2048 2117 2102 2063 2076 2212 2086 2121 2029 2043 2109 2126 2110 2096 2168 2100 2146 2139 2071 2153 2112 2082 2095 2060 2087 2137 2118 2141 2150 2112 2167 2095 2169 2147 2139 2053 2219 2124 2254 2125 2017 2164 2083 2166 2123 2070 2248 2142 2017 2154 2045 2162 2094 2059 2164 2113 2247 2090 2152 2149 2058 2093 2105 2163 2087 2156 2127 2105 2177 2044 2127 2095 2107 2081 2136 2096 2041 2103 2109 2120 2135 2124 2151 2000 1997 2031 2127 2143 2103 2053 2163 2058 2039 2070 2118 2135 2087 2148 2207 2092 2098 2028 2125 2116 2122 2117 2041 2096 2094 2177 2096 2154 2099 2084 2123 2109 2112 2132 2106 2168 2056 2053 2088 2079 2083 2059 2160 2126 2018 2053 2091 2175 2186 2067 2101 2071 2125 2081 2011 2033 2106 2139 2111 2119 2111 2125 2146 2122 2171 2032 2095 2174 2142 2055 2109 2135 2115 2103 2049 2073 2138 2093 2106 2154 2160 2090 2081 2036 2124 2120 2081 2114 2093 2082 2048 2154 2130 2108 2105 2161 2141 2111 2118 2092 2042 2203 2094 2111 2106 2097 2142 2106 2164 2072 2120 2087</counts>
			</dataPoints>
		</scan>
	</xrdMeasurement>
</xrdMeasurements>
