<?xml version="1.0"?>
<xrdMeasurements xmlns="http://www.xrdml.com/XRDMeasurement/2.3" xmlns:xsi="http://www.w3.org/2001/XMLSchema-instance" xsi:schemaLocation="http://www.xrdml.com/XRDMeasurement/2.3 http://www.xrdml.com/XRDMeasurement/2.3/XRDMeasurement.xsd" status="Completed" recordIdentifier="{95A81577-2184-4765-821B-A0D27F9801BD}">
	<comment>
		<entry/>
	</comment>
	<sample type="To be analyzed">
		<id>GPSS_Li3VCl6_112225_6921f967f4e53d1f72397d3d</id>
		<name></name>
		<preparedBy></preparedBy>
	</sample>
	<xrdMeasurement measurementType="Scan" status="Completed" sampleMode="Reflection">
		<usedWavelength intended="K-Alpha 1">
			<kAlpha1 unit="Angstrom">1.5405980</kAlpha1>
			<kAlpha2 unit="Angstrom">1.5444260</kAlpha2>
			<kBeta unit="Angstrom">1.3922500</kBeta>
			<ratioKAlpha2KAlpha1>0.5000</ratioKAlpha2KAlpha1>
		</usedWavelength>
		<incidentBeamPath>
			<radius unit="mm">145.00</radius>
			<xRayTube id="1010048" name="Empyrean Cu LFF HR (9430 033 7310x)">
				<tension unit="kV">40.0</tension>
				<current unit="mA">15.0</current>
				<anodeMaterial>Cu</anodeMaterial>
				<focus type="Line">
					<length unit="mm">12.0</length>
					<width unit="mm">0.4</width>
					<takeOffAngle unit="deg">6.0</takeOffAngle>
				</focus>
			</xRayTube>
			<sollerSlit id="21010002" name="Soller slits 0.04 rad.">
				<opening unit="rad">0.0400</opening>
			</sollerSlit>
			<mask id="22031000" name="Fixed mask 13 mm">
				<width unit="mm">9.00</width>
			</mask>
			<divergenceSlit id="22120001" name="Divergence slit 1°" xsi:type="fixedDivergenceSlitType">
				<distanceToSample unit="mm">50.00</distanceToSample>
				<height unit="mm">1.52</height>
			</divergenceSlit>
		</incidentBeamPath>
		<sampleMovement xsi:type="spinningSampleMovementType">
			<spinnerRevolutionTime unit="seconds">1.0</spinnerRevolutionTime>
		</sampleMovement>
		<diffractedBeamPath>
			<radius unit="mm">145.00</radius>
			<antiScatterSlit id="22090040" name="AS slit 9 mm (PIXcel)" xsi:type="fixedAntiScatterSlitType">
				<height unit="mm">9.00</height>
			</antiScatterSlit>
			<sollerSlit id="21020003" name="Large Soller slits 0.04 rad.">
				<opening unit="rad">0.0400</opening>
			</sollerSlit>
			<filter id="20030001" name="Large beta-filter Nickel">
				<material>Ni</material>
				<thickness unit="mm">0.020</thickness>
			</filter>
			<detector id="7010019" name="PIXcel1D-Medipix3 detector" xsi:type="rtmsDetectorType">
				<phd unit="keV">
					<lowerLevel>4.02</lowerLevel>
					<upperLevel>11.27</upperLevel>
				</phd>
				<mode>Scanning</mode>
				<activeLength unit="deg">5.542</activeLength>
			</detector>
		</diffractedBeamPath>
		<scan appendNumber="0" mode="Continuous" scanAxis="Gonio" status="Completed">
			<header>
				<startTimeStamp>2025-11-24T12:25:31-08:00</startTimeStamp>
				<endTimeStamp>2025-11-24T12:33:38-08:00</endTimeStamp>
				<author>
					<name>AutomatedUser</name>
				</author>
				<source>
					<applicationSoftware version="1.7b (136)">PANalytical Aeris Instrument Suite</applicationSoftware>
					<instrumentControlSoftware version="3.2.00000000 20240306">AERIS</instrumentControlSoftware>
					<instrumentID>950485</instrumentID>
				</source>
			</header>
			<dataPoints>
				<positions axis="2Theta" unit="deg">
					<startPosition>10.00943322</startPosition>
					<endPosition>99.99442286</endPosition>
				</positions>
				<positions axis="Omega" unit="deg">
					<startPosition>5.00471661</startPosition>
					<endPosition>49.99721143</endPosition>
				</positions>
				<commonCountingTime unit="seconds">12.495</commonCountingTime>
				<counts unit="counts">2592 2516 2557 2538 2482 2513 2593 2579 2550 2615 2611 2484 2586 2626 2576 2511 2553 2525 2526 2507 2684 2610 2573 2530 2609 2613 2547 2489 2601 2652 2543 2402 2513 2514 2596 2514 2559 2665 2557 2594 2687 2531 2588 2573 2539 2593 2682 2680 2595 2579 2472 2548 2598 2577 2606 2548 2616 2609 2537 2515 2573 2559 2703 2511 2604 2585 2674 2516 2684 2569 2535 2564 2519 2637 2558 2574 2547 2508 2537 2657 2574 2514 2655 2503 2571 2596 2572 2582 2570 2583 2575 2567 2518 2672 2619 2630 2594 2534 2654 2524 2566 2550 2669 2594 2657 2620 2653 2560 2693 2624 2546 2637 2531 2606 2640 2675 2696 2684 2543 2615 2519 2563 2607 2715 2624 2650 2586 2646 2643 2663 2652 2594 2530 2595 2608 2625 2531 2527 2640 2551 2616 2586 2615 2660 2554 2604 2665 2569 2585 2611 2644 2712 2593 2613 2506 2577 2540 2584 2558 2589 2609 2549 2568 2577 2639 2601 2602 2570 2486 2569 2582 2566 2547 2578 2536 2607 2615 2527 2507 2541 2619 2599 2574 2561 2578 2514 2539 2556 2570 2572 2582 2587 2544 2529 2637 2515 2523 2528 2593 2520 2582 2609 2616 2558 2519 2619 2603 2629 2683 2588 2603 2508 2548 2555 2561 2606 2499 2615 2550 2632 2545 2666 2580 2574 2571 2554 2584 2550 2601 2619 2609 2574 2606 2606 2506 2602 2521 2528 2524 2579 2487 2517 2530 2539 2553 2518 2676 2544 2592 2549 2545 2484 2525 2517 2532 2403 2515 2562 2559 2502 2576 2652 2539 2570 2512 2534 2621 2500 2600 2617 2640 2578 2540 2518 2458 2527 2562 2530 2612 2564 2525 2537 2565 2564 2577 2617 2507 2548 2401 2542 2520 2531 2592 2580 2595 2580 2639 2644 2630 2583 2580 2642 2523 2673 2545 2668 2608 2675 2622 2589 2706 2684 2654 2670 2632 2599 2575 2673 2607 2636 2661 2530 2688 2629 2711 2634 2658 2633 2692 2714 2762 2707 2758 2745 2738 2687 2768 2759 2703 2730 2798 2733 2756 2892 2888 2800 2858 2857 2786 2756 2898 2772 2885 2885 2933 2765 2905 2934 2912 2802 2918 2816 2905 2823 2920 2779 2871 2943 2868 2974 2955 2950 2973 3000 2970 3064 2934 2937 3041 2936 2954 2934 3030 3102 2946 3014 2958 2958 2996 3090 3040 3009 3086 3036 3026 2985 3099 3125 3015 3086 3110 3128 3084 3120 2960 3052 2967 3169 3120 3153 3127 3121 3044 3110 3150 3210 3245 3052 3173 3124 3065 3104 3221 3178 3188 3143 3211 3088 3274 3247 3191 3246 3249 3119 3172 3215 3203 3235 3194 3392 3376 3327 3320 3363 3392 3432 3390 3337 3474 3534 3485 3520 3581 3557 3623 3738 3763 3819 3742 3806 3969 3919 4050 4252 4211 4320 4298 4499 4529 4617 4835 4894 5041 5029 5170 5503 5560 5712 5861 5923 6028 6165 6195 6332 6586 6430 6565 6548 6560 6515 6518 6478 6564 6497 6519 6397 6490 6456 6336 6515 6309 6248 6216 6168 6117 5932 5744 5740 5577 5427 5221 5240 4983 5043 4782 4685 4478 4378 4236 4061 3854 3636 3609 3382 3306 3213 3224 3151 3210 2956 3211 3012 2994 3018 3153 3008 2927 2959 3002 3007 2976 2917 2747 2979 2891 2874 2857 2939 2772 2887 2831 2696 2814 2810 2819 2774 2883 2969 2700 2756 2741 2825 2863 2772 2774 2860 2656 2846 2781 2735 2723 2746 2865 2790 2749 2731 2838 2617 2738 2727 2693 2616 2644 2731 2738 2669 2696 2684 2753 2684 2648 2666 2618 2629 2542 2730 2684 2762 2708 2679 2720 2790 2717 2630 2609 2686 2770 2673 2607 2677 2628 2617 2692 2761 2714 2697 2612 2695 2675 2621 2595 2695 2755 2507 2692 2648 2688 2585 2678 2708 2702 2698 2669 2647 2777 2573 2757 2637 2628 2764 2680 2740 2853 2772 2743 2841 2771 2723 2724 2836 2748 2838 2759 2718 2770 2805 2866 2847 2805 2746 2749 2873 2788 2763 2754 2826 2813 2861 2841 2812 2809 2817 2714 2714 2743 2771 2732 2774 2757 2793 2692 2818 2695 2734 2794 2772 2811 2713 2684 2738 2780 2671 2823 2665 2679 2690 2693 2697 2695 2750 2662 2735 2716 2676 2689 2742 2672 2705 2719 2734 2809 2723 2693 2715 2728 2681 2681 2708 2795 2759 2727 2686 2692 2696 2632 2701 2691 2599 2704 2647 2642 2605 2687 2611 2649 2682 2649 2593 2751 2699 2695 2716 2684 2582 2710 2667 2747 2632 2661 2684 2667 2685 2731 2720 2704 2732 2758 2676 2721 2729 2747 2758 2722 2681 2616 2671 2687 2747 2692 2624 2805 2739 2704 2670 2666 2707 2707 2661 2709 2745 2586 2638 2683 2603 2808 2685 2705 2712 2636 2674 2646 2685 2649 2675 2680 2626 2679 2693 2661 2646 2704 2633 2671 2675 2614 2682 2636 2752 2609 2573 2671 2739 2607 2621 2513 2586 2603 2661 2697 2577 2615 2567 2682 2612 2545 2630 2543 2497 2656 2535 2587 2571 2558 2519 2700 2504 2580 2528 2567 2573 2451 2602 2539 2487 2462 2463 2634 2474 2500 2508 2478 2564 2519 2503 2476 2445 2453 2519 2516 2576 2517 2465 2475 2546 2404 2530 2491 2496 2351 2480 2446 2442 2447 2440 2500 2363 2439 2438 2521 2426 2500 2462 2398 2416 2495 2307 2476 2396 2477 2495 2331 2413 2427 2349 2319 2339 2334 2415 2430 2411 2374 2318 2352 2380 2358 2287 2327 2377 2321 2454 2316 2275 2348 2294 2304 2326 2351 2321 2314 2283 2255 2363 2387 2337 2323 2334 2322 2224 2257 2342 2297 2337 2311 2323 2132 2279 2278 2192 2277 2317 2246 2240 2097 2264 2227 2242 2188 2220 2199 2291 2280 2248 2126 2203 2192 2320 2278 2226 2225 2126 2226 2224 2201 2266 2223 2263 2287 2231 2179 2199 2115 2270 2123 2211 2161 2259 2235 2209 2168 2216 2260 2165 2170 2121 2233 2186 2179 2215 2107 2211 2152 2135 2152 2151 2176 2112 2110 2190 2151 2179 2070 2238 2165 2141 2206 2229 2229 2146 2202 2136 2258 2182 2206 2217 2204 2200 2131 2217 2184 2205 2242 2137 2218 2176 2204 2200 2099 2150 2152 2173 2160 2227 2235 2266 2159 2231 2259 2159 2208 2142 2209 2212 2172 2214 2214 2197 2261 2200 2164 2159 2181 2133 2214 2190 2165 2185 2222 2133 2276 2213 2126 2200 2099 2222 2144 2142 2220 2205 2185 2088 2159 2127 2135 2164 2180 2283 2215 2191 2157 2135 2113 2180 2178 2231 2113 2157 2190 2102 2162 2097 2178 2105 2075 2151 2095 2226 2141 2257 2132 2251 2180 2063 2036 2188 2060 2130 2163 2141 2220 2121 2112 2173 2144 2197 2217 2155 2146 2163 2201 2143 2089 2148 2128 2092 2068 2031 2065 2102 2189 2001 2184 2072 2079 2108 2123 2158 2071 2179 2101 2111 2058 2052 2031 2047 2053 2091 2120 2093 2086 2019 2051 2060 2030 2002 2027 2004 2047 2144 2075 2053 2043 1983 2026 2083 1989 1972 2039 2012 2008 2095 1990 1978 2036 1899 1970 1994 1973 1968 1983 1904 1983 1990 2021 1974 1990 1946 1920 2009 1913 2004 1941 1978 1845 1824 1815 1888 1926 1852 1876 1900 1875 1871 1904 1841 1893 1877 1913 1953 1844 1800 1880 1814 1857 1865 1852 1765 1799 1800 1843 1766 1788 1797 1834 1761 1778 1835 1773 1827 1792 1762 1708 1743 1842 1739 1762 1755 1679 1777 1783 1671 1739 1733 1763 1732 1627 1696 1655 1772 1634 1733 1749 1666 1663 1697 1776 1717 1715 1651 1712 1603 1684 1725 1677 1632 1651 1613 1588 1628 1616 1648 1656 1677 1621 1566 1582 1700 1592 1740 1609 1645 1668 1638 1625 1553 1653 1649 1607 1628 1607 1581 1583 1675 1625 1575 1611 1562 1578 1639 1550 1579 1588 1601 1603 1613 1591 1592 1540 1590 1532 1618 1597 1509 1515 1612 1611 1637 1501 1474 1574 1546 1534 1621 1521 1549 1603 1567 1475 1492 1542 1469 1488 1504 1476 1549 1507 1537 1588 1561 1537 1525 1516 1528 1540 1491 1512 1507 1588 1520 1542 1447 1498 1495 1472 1410 1562 1460 1495 1514 1508 1565 1512 1533 1514 1510 1528 1507 1480 1457 1489 1406 1510 1499 1450 1488 1456 1499 1464 1437 1528 1464 1414 1428 1546 1476 1490 1445 1508 1419 1442 1528 1472 1444 1448 1430 1481 1445 1421 1443 1501 1414 1426 1458 1492 1463 1505 1480 1471 1456 1493 1519 1544 1426 1469 1445 1480 1489 1455 1492 1445 1525 1461 1460 1490 1413 1499 1375 1459 1449 1512 1473 1525 1469 1468 1460 1478 1482 1424 1449 1510 1467 1432 1437 1454 1514 1535 1437 1576 1511 1490 1477 1532 1504 1502 1523 1505 1521 1514 1520 1553 1521 1488 1498 1460 1472 1557 1501 1393 1449 1391 1502 1516 1463 1477 1496 1441 1492 1494 1484 1455 1468 1474 1513 1547 1469 1519 1439 1484 1499 1489 1490 1512 1537 1472 1522 1479 1515 1479 1445 1490 1475 1439 1490 1456 1484 1466 1480 1471 1498 1399 1477 1478 1428 1417 1550 1441 1444 1478 1562 1465 1465 1466 1494 1511 1459 1453 1462 1447 1399 1448 1447 1388 1448 1439 1455 1407 1458 1452 1359 1442 1444 1384 1385 1378 1402 1427 1441 1362 1400 1436 1426 1373 1428 1418 1437 1403 1403 1402 1396 1350 1358 1373 1342 1378 1377 1342 1414 1401 1309 1419 1349 1359 1270 1422 1346 1329 1347 1400 1364 1289 1423 1351 1365 1322 1382 1317 1358 1338 1317 1326 1317 1299 1339 1296 1324 1291 1329 1339 1319 1325 1329 1356 1281 1346 1264 1283 1282 1277 1314 1337 1264 1302 1262 1190 1267 1286 1269 1252 1268 1261 1224 1201 1211 1219 1215 1265 1245 1199 1218 1235 1203 1193 1197 1121 1137 1138 1177 1173 1237 1254 1195 1091 1205 1150 1234 1183 1190 1191 1188 1148 1157 1130 1234 1130 1173 1117 1177 1139 1172 1154 1201 1119 1125 1122 1129 1107 1113 1138 1131 1097 1147 1155 1104 1154 1125 1136 1131 1137 1112 1090 1118 1125 1130 1132 1177 1149 1126 1119 1110 1170 1127 1088 1110 1076 1099 1136 1153 1101 1112 1095 1108 1046 1102 1109 1049 1089 1120 1007 1058 1056 1099 1055 1035 1091 1016 1053 1075 1067 1036 1122 1071 1121 1037 1056 1090 1059 1085 1090 1119 1094 1065 1064 999 1069 1072 1047 1046 1109 1033 1089 1073 1087 1009 1074 1058 1062 1046 1137 1106 1108 1085 1086 1095 1057 1037 1006 1035 1027 1083 1080 1042 1040 1073 1017 1022 1051 1079 1058 1049 1012 1017 1028 980 989 1048 1080 1056 1017 1001 1009 1002 1026 1020 1005 1058 1057 1044 1020 1021 1072 1061 1012 958 1063 1039 1002 1076 1008 997 999 1049 977 1102 1021 1022 993 1035 1035 1076 1106 1042 1027 1050 1070 1080 1076 1042 1126 1060 1073 1180 1111 1066 1122 1124 1066 1139 1151 1102 1198 1139 1286 1236 1342 1363 1359 1394 1543 1462 1630 1668 1904 1951 2182 2254 2369 2784 2942 3080 3370 3653 4046 4235 4531 4887 5094 5333 5265 5451 5414 5548 5554 5484 5548 5578 5698 5415 5427 5465 5408 5200 5289 4989 4860 4689 4532 4421 3945 3864 3684 3538 3110 2987 2648 2590 2489 2390 2179 1966 1913 1974 1806 1750 1748 1607 1557 1569 1469 1524 1459 1485 1567 1500 1479 1495 1414 1490 1475 1488 1463 1454 1471 1527 1497 1398 1516 1454 1437 1416 1470 1432 1448 1419 1344 1382 1446 1317 1324 1309 1299 1287 1282 1261 1234 1225 1236 1169 1157 1142 1135 1099 1134 1037 1016 981 971 951 934 999 913 1022 933 941 912 916 956 926 837 874 931 900 916 927 902 924 919 882 907 932 904 955 911 884 936 881 905 881 935 878 915 872 874 901 841 874 881 918 904 899 910 910 844 898 865 882 899 888 936 886 894 893 819 843 878 892 886 868 912 900 900 926 852 895 882 869 907 823 898 835 919 894 855 913 902 887 859 884 875 866 854 874 817 854 876 917 907 907 912 893 895 898 908 892 896 839 908 883 873 865 881 886 899 863 904 936 890 965 859 970 946 950 916 885 921 850 912 871 917 979 882 1009 911 923 979 901 917 1030 941 922 955 973 928 1022 996 1019 987 1016 963 1015 998 989 1003 1038 1012 978 1083 1042 1090 1004 1057 1051 1084 1063 1110 1016 1057 1060 1179 1100 1093 1153 1060 1069 1119 1107 1151 1162 1187 1188 1219 1178 1259 1181 1285 1275 1283 1318 1297 1302 1344 1323 1399 1424 1441 1398 1436 1449 1551 1542 1527 1577 1583 1659 1613 1663 1742 1741 1885 1830 1898 1943 1901 1858 1961 2046 1987 2069 2137 2140 2020 2195 2125 2149 2083 2125 2158 2144 2133 2215 2135 2193 2141 2135 2137 2114 2101 1989 2075 1991 2006 1957 1955 1921 1863 1888 1897 1808 1803 1701 1686 1728 1744 1676 1741 1642 1648 1633 1635 1508 1584 1544 1507 1545 1494 1439 1543 1456 1501 1398 1412 1408 1319 1380 1372 1342 1398 1347 1246 1315 1300 1317 1293 1260 1229 1217 1290 1282 1205 1273 1244 1192 1211 1271 1188 1206 1241 1228 1162 1213 1173 1162 1171 1191 1165 1156 1115 1100 1064 1178 1119 1147 1171 1142 1117 1159 1182 1140 1234 1148 1153 1149 1155 1210 1202 1268 1213 1244 1242 1295 1299 1265 1229 1403 1343 1458 1435 1500 1605 1674 1802 1889 2099 2174 2363 2527 2753 3018 3265 3646 4061 4337 4846 5125 5508 6127 6210 6521 6827 7125 7062 7190 7032 7103 7202 7163 7291 7240 7164 6972 6880 6637 6397 6188 6214 5838 5591 5484 5151 4746 4626 4281 4029 3841 3677 3581 3313 3124 2982 2901 2630 2490 2269 2185 2100 2141 1981 1815 1809 1676 1778 1618 1617 1494 1513 1445 1408 1371 1261 1250 1273 1184 1161 1222 1129 1129 976 1064 1003 997 1000 998 988 954 903 925 968 929 852 889 972 895 889 901 851 806 883 837 873 809 816 864 781 820 893 779 830 840 850 806 836 801 814 852 738 839 791 814 809 804 818 821 781 771 768 778 756 760 799 770 727 793 694 845 776 745 737 730 745 716 754 730 766 727 748 743 763 732 709 776 767 778 736 700 762 695 717 714 710 747 710 718 725 739 694 761 668 687 751 721 761 714 727 704 704 655 715 704 705 679 737 687 695 705 711 719 722 680 681 642 662 716 697 737 682 713 697 690 681 702 697 715 709 634 733 658 731 672 685 679 629 686 657 713 689 651 615 665 664 693 710 633 651 678 691 624 691 718 645 663 641 652 661 640 663 667 692 621 623 656 660 614 628 659 651 653 675 655 640 666 640 645 643 658 656 628 661 664 651 626 684 692 643 608 641 615 663 587 603 649 628 635 636 640 612 642 578 641 597 624 594 634 612 605 590 631 615 660 623 644 619 619 613 632 586 621 626 641 600 647 603 573 649 631 625 555 603 613 604 613 636 592 597 588 615 679 586 578 619 607 606 646 640 594 588 608 631 561 585 559 613 611 629 577 629 638 637 598 623 606 602 601 601 611 643 569 548 582 580 590 547 599 571 593 581 620 559 598 593 587 613 539 518 609 630 578 542 571 580 607 566 614 601 562 585 589 558 624 508 521 508 573 584 610 621 556 596 551 587 559 571 557 561 576 600 598 603 543 561 576 606 582 600 525 533 544 586 528 573 548 572 560 585 580 550 556 579 579 582 602 564 565 596 610 544 554 579 556 576 564 588 581 536 577 528 557 605 563 568 564 555 560 508 576 524 554 564 564 587 584 569 543 548 562 532 585 533 564 548 542 583 574 569 548 534 555 534 527 500 580 601 586 543 576 511 586 576 533 557 520 582 544 580 586 554 542 570 593 580 544 563 534 587 580 566 561 554 590 547 540 501 516 502 557 625 513 536 585 576 583 597 608 534 546 583 573 559 548 560 583 543 526 559 565 545 576 508 535 541 541 592 574 597 599 569 549 568 571 554 591 581 537 570 582 551 576 556 576 576 565 576 569 621 532 565 583 526 557 554 571 526 577 548 565 582 508 526 579 550 608 566 531 559 539 585 544 603 532 573 615 576 580 568 547 578 560 574 571 570 543 538 606 558 559 553 554 556 547 550 587 570 556 573 555 566 607 594 556 573 571 548 556 592 544 577 550 544 573 573 595 607 612 563 596 618 555 639 662 596 611 576 607 591 613 596 569 637 584 582 605 616 563 583 601 628 539 583 603 620 608 628 551 640 559 587 495 585 599 631 572 635 625 595 592 591 607 582 604 656 573 545 608 577 598 603 615 555 627 618 581 591 624 673 627 601 619 620 606 590 644 625 615 600 651 630 663 613 664 576 620 659 643 662 613 654 588 606 663 670 613 643 636 608 649 611 679 665 659 690 682 674 658 669 678 709 671 635 691 686 625 681 607 693 714 670 717 743 712 642 741 723 758 713 694 774 711 704 783 738 747 831 773 807 742 791 849 807 831 837 815 796 805 853 847 872 866 880 886 915 935 922 956 894 889 915 914 890 967 922 934 960 986 927 968 902 918 941 918 946 908 942 896 875 940 887 870 871 836 847 863 837 850 814 790 895 800 816 771 853 796 773 731 770 779 817 750 805 795 760 716 726 730 711 704 735 677 692 660 665 766 662 647 688 707 670 671 652 708 653 630 646 639 667 667 599 625 600 627 639 610 667 587 648 601 584 607 632 656 649 613 566 611 586 627 565 589 578 587 566 571 575 593 581 550 565 574 549 591 571 570 624 578 587 556 605 550 566 538 544 565 568 560 532 536 473 535 508 532 551 536 547 523 489 536 527 516 509 520 509 515 501 513 551 508 544 476 477 509 508 553 526 545 552 518 487 557 497 579 509 532 544 516 456 529 505 482 499 519 540 517 490 519 536 525 527 505 500 521 485 530 524 526 497 508 510 511 509 511 489 481 501 525 509 481 503 504 462 528 517 443 507 489 492 530 484 477 466 526 493 484 464 465 441 516 475 533 516 546 486 494 470 476 485 499 504 545 487 506 504 503 496 512 465 496 467 471 497 453 518 495 514 495 489 474 510 512 506 555 567 496 508 523 494 535 514 487 502 522 554 518 539 518 538 510 519 500 538 548 565 524 532 545 547 545 526 569 565 508 544 472 529 527 527 597 493 539 557 514 536 534 535 544 531 502 579 564 520 532 567 525 577 522 534 534 588 548 527 506 562 591 525 557 540 516 578 552 517 503 544 495 514 525 517 525 499 516 542 507 590 518 509 509 539 488 541 477 527 491 496 515 508 470 477 486 501 477 484 489 463 502 486 493 504 463 481 468 523 495 496 485 469 510 490 455 475 452 467 456 487 467 536 458 445 474 474 497 435 448 459 469 434 449 458 449 441 484 436 484 451 424 454 465 470 459 457 461 435 461 430 423 419 407 455 471 472 446 484 446 385 498 438 447 466 455 469 445 450 444 517 449 450 442 480 450 443 457 447 441 432 433 408 458 451 423 436 426 426 399 426 414 426 443 423 424 445 444 390 454 430 460 440 462 420 437 380 455 411 426 472 431 425 430 445 419 395 431 406 408 434 435 416 447 442 421 427 452 432 429 439 430 463 417 438 405 419 426 453 433 437 444 494 427 447 416 446 467 470 481 434 448 479 465 466 438 400 473 422 490 429 484 443 455 449 489 434 480 454 468 445 440 446 478 431 464 448 427 473 444 470 479 458 471 457 456 459 458 445 434 441 453 398 467 450 491 461 495 469 451 452 435 442 422 444 480 458 420 430 424 430 433 454 428 418 476 451 453 433 437 442 447 402 434 409 389 398 421 462 469 464 415 445 439 435 442 429 440 395 461 426 460 450 448 417 461 430 484 429 464 435 473 451 445 441 422 440 493 478 470 445 463 481 503 426 525 475 468 463 487 520 517 523 502 522 495 533 527 529 530 532 546 570 585 558 574 587 632 668 692 785 792 849 907 978 1079 1135 1332 1450 1619 1723 1934 2151 2347 2427 2660 2728 2704 2809 2811 2884 2876 2977 3023 3033 3214 3177 3292 3301 3038 2999 2880 2747 2694 2556 2320 2262 2195 2076 1969 1850 1825 1714 1530 1491 1453 1357 1256 1177 1046 1010 974 909 874 870 793 800 771 751 774 670 667 720 699 628 656 581 640 586 602 591 627 561 569 617 527 538 548 516 566 524 525 522 562 552 473 457 487 500 483 503 494 468 469 474 480 467 482 432 496 470 467 458 418 458 475 478 495 446 433 485 470 457 436 476 460 444 419 486 444 464 442 460 477 440 484 475 442 416 424 468 426 441 472 473 458 423 422 460 457 464 443 465 457 408 471 457 503 472 423 429 420 430 437 478 443 516 452 480 439 453 446 484 502 477 452 480 460 488 457 477 468 456 499 471 503 517 453 496 474 567 489 551 504 571 563 517 574 588 625 561 631 605 613 684 723 674 774 809 866 857 984 1012 1084 1101 1105 1167 1271 1371 1350 1339 1394 1368 1496 1486 1425 1452 1488 1494 1426 1448 1490 1419 1378 1387 1346 1278 1263 1259 1205 1224 1162 1082 1078 1031 981 948 869 867 877 842 790 759 724 657 650 629 644 646 617 602 571 601 536 524 555 531 510 553 547 500 512 484 479 518 481 492 486 489 541 472 450 489 434 454 459 460 440 462 470 416 436 438 458 468 460 418 428 425 448 430 379 436 452 439 413 435 440 423 428 435 446 427 395 398 442 425 458 391 488 417 414 419 444 415 427 449 462 429 394 407 384 438 405 413 415 424 441 440 385 457 421 442 415 437 415 393 457 400 416 380 417 430 420 431 399 422 370 427 391 448 403 417 424 429 427 437 417 382 419 380 424 423 445 429 422 424 427 430 392 408 388 417 446 431 420 431 433 421 442 446 429 415 440 418 402 368 444 435 418 440 416 409 421 416 419 416 421 416 463 445 435 431 437 410 438 384 457 397 443 451 432 440 446 448 403 475 444 464 483 452 477 459 541 506 500 546 553 548 536 600 567 645 595 627 639 679 687 676 732 696 704 723 662 685 687 672 672 690 707 712 754 668 698 708 656 689 666 605 597 576 577 608 606 586 556 557 546 560 528 542 499 488 480 487 511 523 494 459 490 468 472 440 471 438 461 443 453 448 442 471 451 458 475 449 489 450 431 463 478 495 430 435 465 480 447 437 438 448 487 433 405 448 462 445 475 453 528 437 498 492 476 455 472 446 507 461 505 458 472 480 474 508 483 508 483 449 542 497 496 479 494 490 475 499 466 501 486 497 513 517 499 492 479 494 478 497 499 548 574 526 530 539 498 498 527 539 542 534 540 557 522 517 541 567 575 545 548 525 557 541 575 532 525 585 505 450 492 506 511 503 519 489 479 514 503 437 490 451 447 452 494 456 456 472 495 468 441 446 486 436 451 439 417 464 430 412 423 408 397 401 390 432 455 364 408 402 420 367 374 377 410 399 420 416 374 391 375 388 408 386 362 352 371 385 379 394 406 350 388 367 378 364 397 393 397 352 377 379 366 326 372 357 360 370 369 397 348 359 366 377 367 354 347 349 392 363 327 375 373 372 372 368 338 349 369 326 366 371 350 391 378 334 345 356 377 341 345 355 374 391 365 381 361 348 327 353 340 341 358 356 300 352 346 336 341 342 300 348 370 328 301 349 328 334 349 365 328 322 332 336 318 329 332 362 344 340 322 347 356 349 329 335 333 366 362 354 335 331 333 311 355 330 356 319 346 351 339 376 323 351 362 303 361 297 309 295 328 309 310 335 289 359 312 348 335 309 364 329 368 297 346 354 327 323 346 290 336 326 333 331 299 313 344 315 316 308 349 290 360 321 362 336 301 313 331 334 314 357 336 357 347 307 330 344 355 339 313 314 321 346 332 333 327 331 328 320 334 317 356 328 299 326 359 310 347 368 332 361 331 346 317 348 357 388 328 347 381 455 388 382 359 381 378 397 395 370 404 423 416 428 418 418 452 438 457 501 492 502 492 538 639 616 696 752 854 908 1044 1115 1145 1252 1332 1435 1504 1609 1707 1603 1704 1597 1672 1684 1836 1581 1656 1835 1689 1870 1847 1853 1785 1713 1678 1628 1491 1437 1337 1265 1144 1161 1138 1072 1039 1028 955 922 850 850 697 736 664 691 599 558 540 517 485 490 484 460 509 475 457 474 438 417 442 389 413 420 447 393 376 397 366 348 342 399 353 354 361 385 352 350 383 367 348 331 381 378 342 321 347 339 357 339 340 368 361 356 332 361 349 359 287 338 332 308 332 314 313 334 339 283 351 356 339 316 333 318 328 358 295 336 393 319 335 313 317 286 345 314 336 328 293 309 319 320 323 329 346 311 320 311 312 354 324 343 306 335 310 284 313 293 332 326 341 313 300 333 312 331 341 313 365 339 349 318 353 344 334 341 330 340 304 343 329 348 317 317 330 376 327 343 325 320 319 302 307 316 324 384 315 337 331 345 317 338 360 330 331 352 341 351 365 363 358 367 347 316 376 369 381 359 392 369 404 352 414 404 384 405 373 421 406 382 423 399 414 360 403 386 367 379 395 386 415 377 381 387 433 399 368 359 366 380 383 378 379 362 342 384 343 356 398 370 369 410 347 378 352 390 388 336 372 367 383 391 417 411 406 421 436 410 459 470 553 551 574 621 718 746 749 782 855 878 959 905 935 902 911 934 927 979 958 1025 1059 1034 1063 1071 1137 1091 1016 974 856 851 807 786 772 780 765 741 762 731 757 708 679 677 605 605 549 516 530 530 464 536 484 479 456 462 393 419 405 459 427 446 399 415 468 435 403 385 427 435 423 407 408 452 428 414 390 423 452 407 481 431 422 427 470 456 487 440 435 491 443 470 483 461 427 477 488 450 463 487 487 526 501 531 522 475 522 523 593 541 558 521 527 546 523 532 499 521 592 516 562 575 602 587 592 551 573 576 578 639 636 615 614 610 612 606 596 641 600 611 565 553 642 560 582 552 556 538 604 568 605 555 541 560 533 517 462 505 452 508 443 523 444 421 468 454 414 462 449 442 468 443 430 409 406 359 372 387 398 358 402 363 396 383 404 400 412 350 423 424 413 349 408 382 391 400 411 379 381 375 407 373 332 380 398 375 373 385 389 372 374 376 393 389 379 363 358 377 352 342 327 372 324 341 348 377 406 347 343 348 366 336 367 356 351 315 349 353 311 336 323 319 303 317 355 334 347 311 336 336 331 344 336 316 292 344 290 336 303 311 299 296 312 301 306 293 300 322 339 335 310 324 337 302 295 292 319 318 309 313 305 305 320 301 283 299 283 341 308 303 308 295 292 288 353 304 320 318 282 315 269 285 249 288 327 304 282 288 275 299 304 291 241 263 271 269 291 308 291 269 251 278 282 275 280 274 283 287 305 300 291 277 280 282 278 301 265 284 279 289 281 302 282 277 276 284 322 275 276 259 278 237 241 241 266 319 287 268 293 316 283 289 275 278 260 259 271 300 268 279 261 263 243 287 292 283 314 287 240 286 256 279 260 299 256 321 288 277 289 292 286 266 284 286 248 285 242 266 291 241 295 276 241 259 261 256 258 279 292 287 301 257 238 263 267 215 257 279 245 296 281 257 266 260 266 272 299 256 273 275 276 279 295 274 277 249 272 226 274 271 308 265 246 249 258 259 270 247 265 314 256 262 282 268 277 271 240 273 236 267 263 268 274 236 298 259 285 258 264 243 271 249 249 270 219 269 256 250 236 227 243 259 241 236 295 270 276 266 257 251 267 270 243 272 273 296 239 256 259 291 250 240 263 233 238 240 226 259 236 277 238 249 245 234 244 267 263 279 275 303 249 245 236 290 250 239 249 285 250 241 283 218 230 274 247 274 267 261 227 281 273 231 235 241 258 242 264 271 279 280 267 264 271 274 261 268 257 249 246 240 241 283 263 281 263 261 296 262 262 272 273 274 235 280 250 243 268 290 248 251 243 239 245 264 272 276 260 269 246 262 256 266 247 246 266 262 236 276 287 242 262 263 258 241 260 259 258 276 274 272 269 285 268 283 256 264 295 268 277 244 269 269 271 274 274 262 269 264 292 225 284 259 256 271 265 243 244 266 261 251 263 238 249 271 279 257 266 260 275 243 270 261 257 271 283 274 278 279 233 279 291 269 272 271 292 292 289 282 256 281 265 302 290 296 297 299 273 290 283 306 291 308 270 268 296 325 296 294 284 304 313 327 271 315 301 265 361 319 350 325 310 306 323 325 318 353 313 352 302 320 340 319 313 305 302 336 319 292 271 324 310 293 297 339 290 313 307 321 302 312 298 282 310 293 284 294 289 280 291 280 273 302 290 312 298 260 295 287 337 274 296 278 270 301 266 261 314 283 291 257 279 287 279 265 263 279 282 270 288 261 258 233 273 261 273 287 250 265 292 239 265 260 240 227 270 265 267 279 274 249 242 228 281 256 270 268 227 235 236 250 241 237 260 275 261 275 267 215 222 273 265 265 249 264 238 238 256 259 266 275 248 268 258 288 242 242 263 241 228 234 225 221 232 260 277 218 241 269 225 225 233 237 276 261 231 269 226 226 268 250 242 232 220 242 248 233 240 276 257 260 269 244 266 238 259 232 240 272 256 279 290 279 248 235 259 274 259 274 234 256 279 271 243 266 245 229 267 267 270 296 257 266 270 270 279 273 302 265 260 256 264 304 261 260 257 250 284 262 258 257 284 264 256 249 243 283 244 261 269 249 291 281 257 274 289 272 250 266 260 275 265 265 247 268 258 259 288 279 258 280 283 276 271 291 272 239 233 276 224 291 250 245 240 276 249 284 261 260 263 262 251 248 287 257 283 244 235 260 250 264 238 264 249 219 242 258 245 232 265 235 236 263 236 247 272 229 223 269 265 231 234 236 230 270 275 256 259 278 216 283 230 267 266 262 304 227 229 246 289 268 280 232 276 266 279 312 275 287 321 301 314 368 331 357 333 374 400 405 454 454 488 495 548 533 546 535 568 594 528 542 569 531 509 556 544 524 531 527 538 515 502 493 523 486 511 469 494 526 451 448 433 431 403 418 387 361 409 361 359 366 348 327 355 331 280 309 314 312 314 277 303 280 290 293 278 275 249 234 256 271 268 242 278 256 272 247 275 242 270 228 280 242 257 269 257 235 224 288 227 226 243 244 262 244 260 265 270 258 233 270 259 261 233 264 236 260 259 234 234 221 277 248 236 250 198 224 233 232 224 258 239 242 246 258 200 270 218 250 215 211 215 217 226 229 234 201 218 248 199 267 212 208 223 221 246 224 271 235 230 224 219 199 186 210 245 213 240 246 233 202 237 212 215 215 205 214 208 217 223 222 214 226 240 225 260 213 230 222 235 227 225 226 220 234 216 239 213 210 226 209 215 233 236 223 235 227 201 268 222 193 209 215 237 221 247 239 229 216 243 239 210 234 212 222 227 205 187 226 219 234 229 217 222 224 244 226 199 232 208 232 222 208 188 208 233 232 218 231 215 224 213 229 228 205 236 223 218 235 247 195 213 205 247 202 219 221 207 239 229 221 220 237 242 193 191 237 223 231 233 228 216 236 234 228 203 218 241 221 243 211 260 225 187 196 232 227 250 239 215 248 213 247 241 223 243 229 229 224 191 231 228 210 242 224 211 226 229 213 204 222 235 194 225 231 222 263 218 243 214 227 224 206 211 238 214 229 213 245 207 245 211 211 221 261 211 228 206 239 202 215 241 204 216 233 209 223 209 240 216 228 240 227 228 229 238 209 235 213 206 207 211 205 222 213 197 215 216 223 217 211 249 212 226 208 233 225 256 204 218 242 236 212 224 217 245 230 216 231 228 225 270 217 231 264 225 199 217 215 221 242 221 217 207 212 237 236 228 224 233 247 232 192 214 218 227 232 206 259 216 238 230 219 244 231 232 218 262 247 245 258 259 197 234 204 198 248 213 256 216 221 221 222 215 213 226 211 223 209 228 219 208 207 229 218 228 237 232 186 233 220 222 204 212 239 209 244 221 215 198 230 209 200 220 214 221 239 256 207 202 223 267 240 229 240 220 243 212 206 220 218 235 224 229 213 226 251 198 267 256 235 233 222 212 208 232 228 211 220 200 228 219 236 239 236 221 241 239 243 236 241 221 228 237 227 199 249 220 203 235 216 239 242 230 257 237 229 268 207 246 245 217 236 206 244 234 227 251 217 220 200 245 227 266 215 237 219 206 224 214 206 240 228 243 257 241 277 209 230 263 234 246 201 239 244 258 226 264 248 250 243 235 265 240 243 230 260 265 266 267 249 273 284 274 230 250 259 236 248 260 277 249 242 241 282 272 235 221 240 242 264 242 257 287 301 284 303 260 265 267 258 262 264 239 271 300 281 249 285 273 241 226 248 275 268 274 267 242 268 273 243 249 259 260 269 262 263 269 225 285 292 245 271 267 258 241 242 248 277 276 283 228 232 275 244 240 217 271 267 250 225 266 249 243 270 234 256 262 259 272 248 271 215 247 261 234 250 256 240 236 250 241 294 243 244 228 259 242 245 261 259 293 274 266 267 267 240 260 239 244 285 266 289 262 292 276 270 298 284 282 270 270 300 305 337 291 307 330 339 314 310 355 415 406 442 497 496 512 574 564 623 629 641 645 690 711 645 684 647 665 619 645 657 624 629 578 586 595 547 570 557 492 565 565 557 562 493 517 542 510 520 470 488 473 489 474 419 455 411 387 402 374 328 317 374 304 304 335 315 286 309 294 303 283 263 274 240 272 269 230 250 242 256 264 242 248 242 259 250 242 263 238 215 225 240 235 272 264 236 267 282 262 267 265 265 261 283 243 323 234 274 293 241 261 256 263 235 279 260 321 243 278 272 260 294 258 260 307 282 274 280 284 265 257 256 295 258 286 268 262 260 267 258 261 294 263 260 266 286 306 247 266 279 260 242 257 223 242 216 271 268 275 257 242 234 219 228 270 277 279 243 226 240 223 240 242 226 240 222 232 220 261 218 250 234 244 232 250 227 264 264 220 260 228 244 264 260 264 279 238 236 247 236 245 258 272 265 258 260 246 270 291 299 268 286 231 263 231 275 283 296 264 276 289 298 297 302 301 281 259 285 280 332 301 292 298 328 331 333 317 354 331 373 350 418 423 381 430 455 474 511 587 590 597 657 689 731 767 834 876 948 945 1012 961 996 978 943 947 900 932 899 891 863 874 828 799 781 793 755 730 712 733 768 788 780 728 722 756 737 732 668 663 628 627 613 584 580 599 546 525 521 472 444 450 432 385 382 376 372 367 338 363 348 352 350 312 350 342 319 326 306 321 306 313 295 308 294 295 326 296 302 299 312 303 282 303 277 281 286 305 279 281 303 298 249 265 246 249 280 267 316 249 275 318 250 270 281 270 264 283 264 238 265 270 280 275 281 271 250 246 250 258 256 273 269 260 280 288 281 260 270 246 289 205 263 262 261 262 232 227 247 237 263 261 240 247 258 263 249 246 275 245 269 264 238 270 244 289 290 269 246 245 232 215 240 240 292 260 279 272 270 269 240 285 263 260 257 269 287 249 260 248 275 238 240 248 271 294 316 276 273 294 286 270 283 246 244 277 310 291 263 245 262 281 282 282 296 282 302 294 273 318 298 318 347 334 348 347 317 319 324 321 300 347 312 348 380 369 376 356 378 364 396 340 355 379 392 384 402 403 402 416 395 447 406 437 415 419 419 428 454 462 460 440 475 465 474 467 498 488 532 515 490 451 521 504 487 483 530 518 504 506 488 472 474 516 510 454 469 467 456 435 465 445 431 447 433 418 425 425 458 430 417 414 414 417 414 378 367 384 418 408 406 401 362 374 371 368 340 345 389 361 332 362 318 338 339 323 293 284 311 342 300 300 323 298 334 318 296 277 273 238 297 307 291 299 295 283 294 291 316 292 260 273 274 241 256 261 280 264 313 264 288 250 262 282 276 246 259 264 240 261 240 262 282 264 225 227 263 244 256 282 250 243 275 280 237 261 277 238 263 244 240 280 261 257 247 275 232 242 231 228 270 271 230 251 219 268 249 237 262 238 246 234 233 257 231 249 245 231 242 247 226 250 237 267 223 201 240 232 274 259 259 227 251 233 225 262 240 283 240 245 243 235 257 246 232 240 242 238 260 230 256 229 234 241 226 238 258 257 244 257 224 257 263 281 256 231 258 212 281 229 206 219 228 216 235 212 267 248 244 237 258 226 227 228 204 228 275 240 230 220 257 232 250 232 222 235 266 227 227 246 235 224 249 218 249 238 272 226 237 248 233 241 238 292 257 260 244 233 247 228 229 262 259 232 274 277 249 240 257 260 226 261 249 223 268 219 262 257 249 236 272 284 258 258 233 232 234 272 263 243 256 222 233 217 231 241 259 242 247 245 221 234 235 265 257 268 261 229 260 264 232 244 248 277 236 266 272 257 235 226 240 268 258 256 227 234 273 264 263 244 303 265 266 227 270 222 235 243 267 286 266 260 237 234 263 243 244 247 259 240 227 277 259 256 261 240 289 226 275 263 283 236 240 262 279 239 288 235 261 258 271 209 263 248 267 245 258 259 239 269 261 245 251 285 240 270 277 231 245 232 257 245 285 269 261 250 237 228 256 267 261 266 259 250 263 239 245 245 281 258 257 273 244 249 237 240 235 218 238 274 247 223 241 271 274 258 246 263 257 242 219 262 282 258 278 277 263 245 272 265 241 248 230 258 241 257 234 243 256 247 246 227 264 281 268 231 258 274 270 221 239 267 286 263 272 281 249 264 274 281 290 291 284 260 234 290 230 232 262 213 263 231 264 271 284 244 261 270 275 259 274 276 267 244 231 266 256 248 263 263 257 234 278 258 283 242 247 278 268 288 277 285 276 269 306 285 284 291 271 288 321 288 276 265 297 268 299 277 289 283 290 291 266 321 256 298 279 305 286 313 324 298 272 305 305 278 327 277 295 302 300 301 287 281 297 249 279 319 291 304 259 293 310 295 301 288 284 277 277 319 265 249 306 267 277 302 286 266 284 301 256 281 285 237 293 284 259 305 291 238 263 258 259 277 285 259 267 260 249 269 293 261 245 270 229 243 256 277 285 257 274 278 234 272 267 237 266 226 236 239 268 236 267 274 234 275 242 278 240 271 246 257 243 285 260 248 260 286 265 266 265 243 258 264 226 251 258 245 240 258 229 230 262 263 247 244 268 281 278 247 234 272 261 247 284 281 286 285 277 282 288 257 283 264 272 273 285 313 314 277 281 285 282 300 316 325 301 347 336 293 349 339 392 359 399 393 438 461 488 529 603 636 638 642 744 717 750 746 744 731 785 715 734 673 770 719 685 684 641 707 656 585 547 513 541 533 500 502 510 571 523 514 529 537 551 543 577 527 566 523 541 491 536 478 472 490 450 426 408 393 402 354 367 366 349 322 309 313 296 330 280 295 277 281 311 261 294 319 290 267 276 297 277 273 298 286 269 288 275 288 274 285 275 301 292 261 260 264 235 274 249 268 240 266 273 224 267 238 267 240 271 259 211 233 272 267 260 281 233 261 266 217 270 257 240 286 233 267 237 231 273 240 257 215 261 209 228 228 225 193 232 206 232 241 257 256 240 238 201 211 269 221 218 204 244 239 204 207 221 239 235 203 220 234 189 219 223 229 231 206 243 239 232 217 224 231 240 195 213 238 247 226 261 231 236 257 227 229 223 223 208 205 222 234 244 266 221 225 236 216 238 251 224 212 224 238 210 239 226 245 218 218 224 231 219 212 234 208 235 247 230 219 213 227 220 206 218 218 222 247 240 234 234 277 223 211 249 223 257 244 227 212 276 239 228 229 206 224 233 228 238 245 232 219 216 209 214 210 206 235 211 232 217 218 220 251 245 238 220 229 217 215 216 225 224 196 209 218 222 196 209 224 235 258 215 225 221 197 207 207 210 237 228 219 229 188 245 238 227 211 237 237 227 219 233 215 213 239 237 214 196 205 215 217 217 243 231 200 239 226 234 235 232 213 227 240 240 266 242 212 216 219 197 213 214 214 238 224 225 228 240 217 227 244 227 213 231 223 224 219 221 229 260 227 210 241 241 235 214 214 219 223 233 201 228 230 221 219 202 224 227 206 233 246 188 217 224 242 248 206 247 206 220 206 257 204 218 222 238 205 222 219 243 239 261 242 232 223 222 227 265 233 219 215 208 236 243 238 262 227 220 212 220 209 237 218 232 219 268 244 233 244 218 240 246 241 239 228 256 240 286 265 258 228 221 263 263 279 224 207 264 221 245 250 265 247 259 231 257 243 258 266 269 268 278 231 261 290 258 281 285 238 295 282 307 303 306 259 305 288 308 314 315 290 272 293 274 307 302 290 288 302 305 273 303 299 296 296 263 284 308 260 284 286 278 296 272 282 280 245 299 311 292 276 305 284 318 296 283 293 291 270 282 292 280 295 238 290 248 259 265 281</counts>
			</dataPoints>
		</scan>
	</xrdMeasurement>
</xrdMeasurements>
