<?xml version="1.0"?>
<xrdMeasurements xmlns="http://www.xrdml.com/XRDMeasurement/2.3" xmlns:xsi="http://www.w3.org/2001/XMLSchema-instance" xsi:schemaLocation="http://www.xrdml.com/XRDMeasurement/2.3 http://www.xrdml.com/XRDMeasurement/2.3/XRDMeasurement.xsd" status="Completed" recordIdentifier="{289121F7-3CF1-476E-9221-F67FFCE1BD8C}">
	<comment>
		<entry/>
	</comment>
	<sample type="To be analyzed">
		<id>GPSS_Li1p65Mn0p70Zn0p25V0p15Cl4_112425_69248ac4f4e53d1f723993d0</id>
		<name></name>
		<preparedBy></preparedBy>
	</sample>
	<xrdMeasurement measurementType="Scan" status="Completed" sampleMode="Reflection">
		<usedWavelength intended="K-Alpha 1">
			<kAlpha1 unit="Angstrom">1.5405980</kAlpha1>
			<kAlpha2 unit="Angstrom">1.5444260</kAlpha2>
			<kBeta unit="Angstrom">1.3922500</kBeta>
			<ratioKAlpha2KAlpha1>0.5000</ratioKAlpha2KAlpha1>
		</usedWavelength>
		<incidentBeamPath>
			<radius unit="mm">145.00</radius>
			<xRayTube id="1010048" name="Empyrean Cu LFF HR (9430 033 7310x)">
				<tension unit="kV">40.0</tension>
				<current unit="mA">15.0</current>
				<anodeMaterial>Cu</anodeMaterial>
				<focus type="Line">
					<length unit="mm">12.0</length>
					<width unit="mm">0.4</width>
					<takeOffAngle unit="deg">6.0</takeOffAngle>
				</focus>
			</xRayTube>
			<sollerSlit id="21010002" name="Soller slits 0.04 rad.">
				<opening unit="rad">0.0400</opening>
			</sollerSlit>
			<mask id="22031000" name="Fixed mask 13 mm">
				<width unit="mm">9.00</width>
			</mask>
			<divergenceSlit id="22120001" name="Divergence slit 1°" xsi:type="fixedDivergenceSlitType">
				<distanceToSample unit="mm">50.00</distanceToSample>
				<height unit="mm">1.52</height>
			</divergenceSlit>
		</incidentBeamPath>
		<sampleMovement xsi:type="spinningSampleMovementType">
			<spinnerRevolutionTime unit="seconds">1.0</spinnerRevolutionTime>
		</sampleMovement>
		<diffractedBeamPath>
			<radius unit="mm">145.00</radius>
			<antiScatterSlit id="22090040" name="AS slit 9 mm (PIXcel)" xsi:type="fixedAntiScatterSlitType">
				<height unit="mm">9.00</height>
			</antiScatterSlit>
			<sollerSlit id="21020003" name="Large Soller slits 0.04 rad.">
				<opening unit="rad">0.0400</opening>
			</sollerSlit>
			<filter id="20030001" name="Large beta-filter Nickel">
				<material>Ni</material>
				<thickness unit="mm">0.020</thickness>
			</filter>
			<detector id="7010019" name="PIXcel1D-Medipix3 detector" xsi:type="rtmsDetectorType">
				<phd unit="keV">
					<lowerLevel>4.02</lowerLevel>
					<upperLevel>11.27</upperLevel>
				</phd>
				<mode>Scanning</mode>
				<activeLength unit="deg">5.542</activeLength>
			</detector>
		</diffractedBeamPath>
		<scan appendNumber="0" mode="Continuous" scanAxis="Gonio" status="Completed">
			<header>
				<startTimeStamp>2025-11-27T10:07:51-08:00</startTimeStamp>
				<endTimeStamp>2025-11-27T10:15:59-08:00</endTimeStamp>
				<author>
					<name>AutomatedUser</name>
				</author>
				<source>
					<applicationSoftware version="1.7b (136)">PANalytical Aeris Instrument Suite</applicationSoftware>
					<instrumentControlSoftware version="3.2.00000000 20240306">AERIS</instrumentControlSoftware>
					<instrumentID>950485</instrumentID>
				</source>
			</header>
			<dataPoints>
				<positions axis="2Theta" unit="deg">
					<startPosition>10.00943322</startPosition>
					<endPosition>99.99442286</endPosition>
				</positions>
				<positions axis="Omega" unit="deg">
					<startPosition>5.00471661</startPosition>
					<endPosition>49.99721143</endPosition>
				</positions>
				<commonCountingTime unit="seconds">12.495</commonCountingTime>
				<counts unit="counts">2609 2594 2626 2660 2617 2680 2675 2706 2662 2690 2693 2642 2618 2630 2634 2693 2706 2641 2597 2647 2700 2647 2606 2632 2629 2698 2619 2641 2645 2698 2692 2710 2625 2622 2667 2634 2768 2696 2647 2708 2607 2692 2627 2698 2615 2603 2733 2704 2742 2605 2686 2685 2746 2719 2626 2566 2799 2747 2708 2679 2707 2738 2673 2649 2634 2745 2733 2718 2798 2685 2682 2730 2805 2617 2657 2775 2684 2772 2827 2700 2695 2817 2776 2766 2749 2826 2662 2721 2664 2781 2728 2808 2677 2772 2694 2694 2794 2748 2781 2674 2796 2777 2720 2804 2732 2825 2796 2643 2756 2777 2841 2732 2893 2797 2795 2776 2740 2694 2827 2769 2768 2704 2830 2729 2781 2641 2767 2752 2773 2842 2767 2732 2677 2729 2746 2750 2772 2741 2873 2865 2801 2838 2776 2725 2794 2854 2845 2881 2798 2734 2779 2842 2824 2821 2768 2797 2792 2709 2701 2833 2780 2786 2799 2861 2778 2840 2751 2851 2879 2762 2743 2840 2755 2793 2801 2701 2744 2814 2733 2762 2761 2733 2797 2746 2808 2713 2848 2749 2801 2814 2680 2784 2803 2880 2697 2854 2763 2839 2733 2811 2696 2765 2673 2839 2654 2711 2711 2772 2812 2699 2711 2785 2682 2693 2738 2681 2766 2791 2782 2761 2804 2795 2789 2729 2750 2764 2821 2718 2733 2669 2731 2669 2830 2705 2717 2763 2693 2854 2809 2752 2738 2742 2583 2719 2768 2750 2781 2746 2654 2710 2709 2692 2667 2696 2750 2704 2758 2641 2732 2651 2687 2623 2590 2715 2657 2649 2785 2706 2732 2682 2684 2779 2754 2679 2666 2724 2670 2672 2713 2716 2634 2740 2599 2685 2662 2706 2742 2634 2744 2775 2684 2715 2681 2716 2727 2604 2776 2759 2729 2765 2784 2794 2756 2686 2786 2720 2713 2685 2827 2763 2695 2684 2824 2701 2801 2812 2707 2810 2700 2870 2792 2863 2802 2772 2826 2854 2904 2860 2835 2919 2830 2903 2715 2891 2782 2753 2816 2778 2976 2858 2849 2866 2914 2921 2808 2942 2824 2873 2842 2937 2869 2850 2888 2858 2965 2981 2952 3001 3043 3091 3024 3036 3011 2937 2903 3103 2930 2954 3035 2925 3017 3101 2996 3051 3003 3074 3151 3117 3111 3049 3039 3098 3108 3105 3073 3076 3115 3168 3087 3287 3203 3162 3240 3194 3188 3230 3271 3283 3238 3359 3389 3335 3436 3500 3449 3506 3441 3517 3501 3634 3675 3810 3813 3769 3890 3791 3913 3858 3805 3686 3714 3615 3512 3558 3606 3577 3595 3633 3600 3534 3580 3598 3628 3623 3575 3591 3576 3608 3623 3521 3606 3558 3514 3594 3550 3534 3551 3517 3519 3484 3511 3612 3556 3580 3715 3703 3699 3582 3605 3720 3569 3624 3543 3680 3564 3457 3647 3486 3482 3650 3504 3520 3529 3452 3512 3454 3360 3440 3461 3313 3406 3439 3362 3272 3437 3403 3360 3393 3321 3421 3183 3219 3327 3286 3231 3236 3223 3190 3288 3301 3227 3230 3122 3300 3174 3323 3269 3277 3359 3268 3116 3123 3243 3103 3179 3092 3118 3201 3189 3155 3291 3214 3203 3144 3188 3160 3134 3134 3056 3111 2996 3117 3021 3044 3028 3155 2947 3079 3020 2962 3109 3049 3043 3016 2970 3017 3019 3107 3077 2938 2927 2950 2884 3031 3038 2938 2914 2870 2993 2909 2889 2994 3002 2926 3004 2911 2852 2930 2815 2973 2916 2853 2939 2803 2817 2785 2868 2895 2827 2880 2874 2856 2891 2839 2853 2839 2894 2859 2789 2784 2872 2785 2736 2968 2793 2736 2853 2734 2787 2868 2765 2822 2821 2757 2764 2770 2698 2770 2763 2796 2821 2779 2719 2784 2837 2696 2729 2727 2774 2668 2641 2759 2728 2818 2705 2688 2661 2637 2758 2732 2724 2695 2713 2759 2652 2701 2683 2727 2768 2700 2825 2655 2738 2644 2770 2759 2751 2705 2788 2739 2628 2704 2730 2739 2712 2620 2609 2632 2652 2715 2690 2626 2801 2760 2694 2783 2682 2659 2614 2682 2674 2719 2545 2789 2669 2792 2729 2665 2624 2648 2658 2740 2731 2576 2688 2728 2528 2523 2665 2728 2677 2638 2600 2645 2680 2662 2637 2679 2556 2584 2669 2678 2572 2679 2560 2588 2690 2736 2699 2592 2638 2601 2551 2630 2551 2647 2558 2588 2621 2658 2698 2561 2555 2606 2536 2635 2643 2664 2683 2694 2663 2539 2629 2586 2579 2540 2546 2609 2621 2627 2611 2519 2595 2554 2528 2541 2590 2618 2620 2648 2609 2552 2554 2590 2590 2726 2494 2498 2555 2633 2587 2564 2680 2533 2642 2542 2600 2573 2551 2587 2586 2633 2557 2593 2542 2527 2536 2540 2547 2545 2556 2482 2596 2505 2457 2594 2586 2513 2463 2574 2513 2633 2529 2556 2510 2663 2588 2537 2435 2539 2456 2579 2549 2506 2461 2489 2483 2621 2513 2435 2545 2449 2458 2530 2542 2614 2516 2504 2550 2570 2524 2599 2544 2452 2536 2468 2518 2452 2489 2470 2427 2615 2431 2446 2396 2526 2462 2510 2504 2529 2504 2519 2438 2476 2505 2506 2548 2522 2561 2421 2524 2487 2461 2435 2494 2332 2438 2485 2445 2458 2483 2469 2410 2420 2511 2386 2534 2409 2322 2394 2519 2462 2505 2480 2541 2331 2348 2412 2414 2449 2376 2461 2476 2394 2401 2439 2370 2408 2312 2419 2434 2392 2319 2255 2380 2471 2414 2504 2383 2343 2426 2333 2425 2350 2408 2503 2340 2411 2421 2437 2420 2369 2332 2257 2343 2233 2353 2281 2261 2372 2384 2387 2380 2328 2322 2343 2375 2399 2365 2287 2334 2292 2361 2307 2385 2359 2281 2352 2352 2383 2410 2327 2251 2359 2369 2332 2284 2389 2333 2384 2318 2268 2389 2426 2305 2305 2289 2394 2330 2340 2306 2283 2317 2244 2277 2371 2277 2176 2277 2296 2268 2252 2234 2330 2267 2227 2208 2318 2226 2299 2321 2250 2259 2254 2339 2223 2291 2256 2208 2321 2220 2321 2285 2251 2329 2258 2323 2319 2252 2318 2262 2247 2356 2304 2240 2216 2212 2288 2279 2285 2328 2307 2209 2265 2195 2238 2305 2303 2236 2289 2387 2330 2379 2250 2350 2283 2230 2266 2199 2282 2318 2231 2294 2269 2321 2234 2221 2280 2307 2236 2318 2279 2313 2268 2207 2272 2220 2246 2210 2287 2249 2321 2299 2257 2281 2270 2220 2264 2241 2289 2191 2217 2293 2269 2238 2259 2349 2325 2270 2311 2176 2348 2268 2282 2266 2334 2306 2200 2286 2219 2233 2210 2265 2257 2243 2338 2276 2324 2257 2299 2327 2267 2374 2244 2295 2283 2222 2253 2308 2256 2186 2266 2226 2284 2197 2275 2330 2196 2148 2231 2301 2282 2210 2287 2179 2238 2199 2236 2128 2240 2267 2354 2155 2247 2118 2238 2171 2260 2207 2269 2235 2258 2224 2215 2267 2317 2207 2255 2046 2187 2237 2064 2116 2277 2189 2259 2258 2156 2169 2224 2173 2222 2225 2188 2215 2056 2163 2089 2177 2179 2251 2161 2141 2172 2077 2164 2121 2109 2129 2097 2143 2198 2058 2173 2135 2145 2072 2104 2181 2179 2120 2243 2072 2096 2170 2078 2114 2153 2120 2070 2131 2060 2036 2033 2088 2065 2064 2122 2045 2021 2031 1988 2058 2039 1961 1941 2050 2095 2020 2019 2018 2046 2024 2059 1998 1975 2062 1951 1939 1938 1951 2032 1929 1927 1914 1887 1846 1954 1904 2019 1880 1918 1950 1914 1912 1930 1883 1941 1869 1916 1855 1955 1928 1977 1843 1940 1857 1918 1936 1864 1799 1865 1890 1866 1965 1817 1829 1872 1809 1807 1845 1838 1828 1815 1835 1876 1854 1869 1897 1852 1829 1819 1802 1854 1850 1874 1917 1908 1943 1911 1917 1830 1874 1921 1873 1935 1896 1938 1881 1815 1930 1913 1877 1867 1840 1911 1854 1955 1841 1935 1845 1929 1882 1833 1924 1866 1868 1826 1819 1799 1897 1844 1867 1830 1825 1845 1813 1759 1828 1830 1817 1754 1834 1680 1802 1727 1800 1767 1749 1737 1783 1769 1752 1682 1770 1698 1745 1785 1742 1774 1705 1781 1730 1815 1665 1667 1770 1743 1697 1669 1725 1615 1649 1665 1687 1661 1701 1659 1688 1718 1709 1710 1683 1679 1689 1624 1698 1628 1647 1656 1639 1676 1661 1698 1709 1677 1635 1676 1723 1659 1757 1578 1640 1643 1654 1624 1622 1607 1630 1635 1635 1607 1645 1557 1623 1613 1676 1670 1685 1619 1626 1665 1650 1669 1644 1665 1686 1684 1714 1644 1677 1684 1598 1588 1654 1620 1694 1600 1688 1650 1642 1612 1636 1620 1615 1640 1655 1648 1659 1687 1655 1593 1654 1644 1633 1611 1677 1640 1657 1630 1646 1612 1661 1652 1578 1723 1641 1700 1650 1658 1590 1637 1621 1647 1689 1727 1647 1736 1599 1675 1688 1635 1596 1688 1712 1734 1618 1610 1658 1577 1645 1628 1675 1711 1624 1600 1674 1605 1655 1661 1710 1625 1665 1745 1676 1675 1609 1655 1633 1667 1736 1663 1605 1708 1612 1661 1707 1637 1675 1669 1693 1670 1725 1695 1736 1676 1569 1628 1598 1634 1688 1650 1665 1760 1627 1625 1646 1604 1743 1572 1649 1686 1625 1642 1576 1599 1548 1615 1595 1692 1664 1609 1619 1652 1631 1650 1643 1588 1593 1588 1579 1605 1566 1648 1663 1513 1624 1565 1559 1549 1661 1506 1546 1506 1528 1621 1582 1577 1609 1476 1586 1612 1605 1550 1545 1578 1611 1531 1587 1563 1470 1559 1532 1592 1597 1556 1566 1545 1545 1547 1517 1650 1511 1514 1540 1588 1493 1491 1534 1485 1487 1552 1470 1597 1443 1458 1442 1482 1463 1493 1483 1498 1444 1424 1448 1389 1479 1463 1529 1388 1471 1396 1520 1460 1428 1487 1443 1506 1424 1500 1447 1397 1469 1411 1533 1393 1433 1438 1444 1357 1489 1440 1454 1441 1424 1394 1402 1374 1364 1404 1385 1397 1438 1448 1482 1282 1416 1451 1541 1475 1533 1521 1508 1582 1521 1655 1610 1640 1831 1692 1793 1905 1817 2012 2034 2158 2113 2170 2087 2085 2084 2137 2086 2082 1963 1989 1990 1909 1900 1930 1770 1855 1884 1810 1784 1759 1741 1777 1792 1700 1690 1733 1733 1665 1693 1686 1663 1707 1636 1708 1611 1550 1597 1623 1582 1636 1559 1595 1564 1541 1478 1560 1522 1467 1522 1475 1473 1450 1442 1531 1468 1515 1403 1483 1420 1539 1428 1464 1411 1417 1353 1337 1422 1405 1406 1415 1362 1363 1254 1309 1370 1351 1346 1281 1275 1273 1260 1292 1345 1271 1352 1339 1305 1213 1293 1268 1315 1355 1223 1245 1297 1343 1326 1237 1307 1318 1344 1310 1359 1418 1473 1508 1605 1582 1690 1774 1896 1972 2175 2223 2359 2376 2484 2592 2684 2809 2809 2921 2796 2694 2615 2572 2559 2532 2441 2447 2488 2331 2348 2337 2297 2323 2344 2400 2351 2316 2354 2242 2277 2227 2203 2168 2204 2082 2111 2058 2091 2007 1945 1953 1877 1878 1915 1862 1701 1822 1753 1701 1736 1757 1686 1711 1655 1711 1621 1678 1677 1640 1588 1570 1619 1605 1603 1503 1481 1413 1539 1455 1418 1385 1505 1330 1405 1374 1346 1320 1354 1310 1300 1289 1242 1255 1300 1260 1228 1259 1215 1183 1215 1228 1201 1214 1176 1177 1193 1172 1147 1158 1113 1172 1158 1107 1135 1150 1091 1137 1188 1147 1117 1147 1132 1105 1115 1183 1111 1110 1132 1115 1097 1096 1099 1085 1052 1116 1039 1130 1078 1057 1121 1114 1088 1076 1070 1091 1105 1165 1060 1076 1084 1101 1047 1078 1054 1092 1037 1077 1079 1096 1017 1036 1023 1082 1030 1030 1047 1056 1027 1093 1066 1007 1094 1027 1055 1018 1006 1061 1043 996 1077 1044 1070 993 1031 1035 970 1025 1030 1005 1026 1028 998 1023 1036 1002 1013 1032 1027 985 1011 1031 999 1155 1013 1031 1005 994 991 980 1037 976 976 973 1022 1037 1054 1042 1057 1027 1034 1035 1077 1069 998 979 1002 978 1035 939 999 950 999 1034 955 1020 998 978 1006 1028 960 1005 1034 1008 1016 1003 976 956 975 975 975 1005 944 1019 915 963 1037 972 997 968 956 980 978 951 967 984 939 954 1002 1002 955 1025 1003 1002 956 963 965 977 963 995 1012 1012 999 976 982 951 965 980 996 994 963 953 974 1000 960 954 990 945 935 953 983 980 969 924 946 1002 1001 936 994 967 1006 989 995 962 1020 912 994 907 920 930 1015 933 950 907 934 960 975 971 951 983 944 960 971 948 914 991 954 935 945 966 965 933 931 960 943 1032 998 950 1033 916 956 930 941 951 927 983 950 897 934 911 977 971 979 924 957 983 952 985 975 932 955 966 973 1034 980 983 950 898 986 964 947 980 1005 914 966 921 1002 997 1035 887 1015 905 1002 963 1000 929 954 949 984 987 970 952 928 1026 988 990 970 1011 1028 972 980 1053 1013 1022 1005 1004 1001 1040 958 996 1073 1022 1028 1080 1111 1069 1166 1138 1181 1231 1321 1272 1392 1396 1422 1470 1618 1750 1801 1941 2212 2211 2535 2690 2876 3104 3231 3397 3746 3631 3768 3710 3628 3725 3726 3516 3566 3497 3455 3294 3294 3145 3227 2984 2952 2954 2972 3013 2899 2768 2859 2719 2768 2588 2718 2646 2535 2558 2504 2476 2402 2360 2211 2292 2131 2047 2052 2062 2042 1987 1979 1979 1844 1853 1877 1842 1791 1812 1820 1773 1775 1768 1786 1741 1732 1565 1666 1593 1535 1582 1451 1517 1485 1391 1465 1413 1335 1292 1293 1198 1194 1294 1215 1178 1157 1169 1179 1084 1146 1204 1065 1129 1089 1069 1054 1074 1089 1020 1011 1049 994 1010 1013 1029 940 1011 959 977 984 945 951 1020 1025 953 1035 937 879 926 905 938 964 909 935 939 1025 968 999 931 945 987 914 994 903 944 879 906 952 948 926 893 888 878 888 883 866 883 918 933 871 891 861 907 902 889 890 907 926 885 899 853 914 881 894 934 877 954 904 865 860 878 869 856 895 876 854 876 889 898 938 874 862 855 856 941 918 899 863 850 891 912 878 881 910 934 903 870 907 888 853 854 895 882 892 858 838 821 845 837 825 870 825 815 825 827 836 831 836 824 898 847 831 847 874 781 887 813 890 871 822 812 865 904 801 835 776 812 875 826 834 839 840 895 877 825 863 855 830 821 815 849 871 846 820 840 862 844 849 832 818 849 906 837 804 786 836 842 834 870 819 905 833 832 814 881 880 806 874 790 839 801 798 841 817 805 768 796 858 870 833 812 857 879 836 804 788 887 875 859 852 855 889 840 857 882 863 863 877 882 881 857 869 902 892 886 832 791 878 839 949 844 844 842 842 872 820 816 857 886 880 873 871 880 903 925 844 870 847 796 916 839 882 856 855 855 864 849 871 856 859 866 890 914 871 868 901 829 849 931 825 858 870 914 846 850 847 832 796 828 828 795 795 804 834 805 831 830 836 795 830 826 819 818 830 769 816 816 829 836 803 782 844 845 795 742 788 852 820 768 807 793 830 814 777 746 776 774 808 766 777 812 765 768 830 821 793 691 834 795 823 776 785 755 716 746 772 786 771 763 762 747 774 746 819 789 772 726 751 727 756 783 777 827 779 789 749 782 745 801 761 822 788 766 755 786 753 789 775 730 739 750 794 823 747 751 735 731 821 752 752 739 807 747 754 771 779 762 740 756 763 789 789 767 758 790 739 773 790 785 806 749 728 736 759 768 811 746 761 738 759 795 767 770 771 739 808 804 732 754 756 766 746 786 768 808 697 789 707 775 781 814 749 743 807 739 742 766 737 731 767 788 766 794 765 738 727 756 759 675 750 714 744 798 755 754 748 717 741 740 773 753 705 710 774 771 763 760 695 683 756 713 761 730 769 773 716 744 765 722 729 797 748 752 778 748 776 755 752 766 754 740 733 736 751 722 725 713 759 793 773 788 798 731 745 776 714 746 715 715 743 745 729 763 725 742 741 790 718 785 752 720 728 728 716 741 779 757 687 719 698 721 784 732 720 720 692 728 733 693 707 720 663 733 699 792 707 807 728 762 759 743 736 761 765 693 730 736 752 755 745 720 729 709 696 762 717 799 714 709 703 750 763 732 751 721 707 731 752 738 766 713 783 757 765 817 726 742 724 754 790 753 703 737 730 701 748 744 732 747 725 739 817 710 701 717 725 732 684 754 704 742 716 759 707 703 724 752 676 713 726 728 703 745 797 723 714 723 709 712 750 733 706 750 700 677 762 727 691 713 673 734 712 687 694 692 675 806 709 740 729 727 719 753 731 754 746 733 720 752 735 728 732 756 749 708 728 761 722 799 786 720 741 769 762 695 782 685 781 736 788 784 809 765 793 816 752 787 714 780 789 784 806 760 726 777 765 751 804 734 788 709 794 718 770 744 771 738 748 816 732 732 739 782 721 772 781 729 703 733 747 732 724 744 824 770 734 769 798 724 713 791 759 757 722 735 778 714 746 707 723 697 768 721 733 728 731 703 729 741 727 696 737 718 764 739 747 712 765 726 738 746 723 713 706 670 717 719 718 769 706 746 678 750 651 681 719 746 678 702 713 717 767 707 711 750 710 719 690 691 730 685 713 745 720 654 709 700 694 668 745 717 720 721 794 730 724 763 733 744 752 705 731 754 705 714 725 696 751 714 710 724 716 697 687 705 691 652 696 697 711 690 699 687 738 709 694 686 686 720 739 690 691 694 724 643 669 684 698 672 724 700 684 763 689 691 712 687 739 718 661 756 693 736 661 667 690 671 705 742 730 679 706 728 705 720 726 694 665 759 708 739 721 734 775 764 694 692 769 752 751 745 745 743 794 765 776 821 813 827 841 846 917 911 951 943 998 1013 1074 1039 1099 1114 1010 991 1082 1057 1056 1063 1020 1114 1023 1054 1000 1022 1023 993 988 964 959 956 974 930 930 893 898 876 999 833 890 843 920 863 837 796 809 853 814 845 803 754 834 840 834 776 803 779 821 845 805 780 809 810 773 781 816 754 833 780 759 782 769 804 735 762 760 787 746 732 757 732 699 767 710 732 712 719 701 719 722 751 690 779 766 729 759 756 717 737 684 733 723 763 738 709 694 742 681 759 736 708 686 665 724 701 663 697 680 705 676 713 696 741 725 632 688 669 696 706 687 702 714 680 702 687 660 673 718 674 711 660 697 739 734 724 641 705 700 697 686 709 662 717 662 673 698 742 672 658 675 631 704 671 721 665 711 674 648 732 676 729 661 666 696 646 721 674 697 665 640 683 679 676 656 649 677 695 688 644 694 680 721 666 645 641 631 653 604 634 653 726 667 683 675 681 653 695 665 694 711 672 665 686 628 717 676 668 655 667 644 677 649 686 675 643 663 709 682 693 706 628 699 658 692 650 702 678 695 693 674 625 689 676 653 696 683 679 681 688 653 727 682 680 706 671 654 697 675 703 711 706 669 693 696 719 641 687 713 719 672 700 670 688 673 696 683 684 688 679 674 683 706 710 672 667 694 657 666 673 717 652 683 691 705 693 634 706 730 720 694 684 722 694 655 739 678 658 652 668 713 688 653 673 695 696 683 672 706 661 695 712 659 729 665 699 703 647 728 671 650 670 704 693 711 653 687 700 700 717 667 730 656 703 694 702 706 659 684 670 709 665 755 721 729 731 692 708 692 667 738 731 767 733 687 736 720 784 752 713 776 777 775 776 770 784 767 851 812 852 824 904 953 968 946 1004 1016 1141 1198 1355 1436 1476 1646 1733 1791 1976 1989 2088 2158 2274 2322 2423 2515 2571 2675 2589 2629 2547 2659 2632 2590 2597 2453 2559 2431 2434 2395 2406 2344 2407 2344 2200 2118 2018 2042 1945 1906 1935 1903 1718 1696 1690 1662 1698 1688 1602 1494 1538 1463 1452 1453 1405 1444 1411 1389 1304 1388 1358 1418 1378 1288 1322 1265 1229 1186 1225 1232 1196 1200 1202 1166 1145 1115 1083 1022 1056 1025 1039 1024 965 976 1000 927 947 907 917 896 861 853 844 818 824 894 818 833 760 842 812 815 768 802 807 800 826 790 810 740 850 791 773 793 805 764 791 762 797 763 742 770 772 736 762 791 725 735 774 750 734 762 780 693 759 717 709 706 746 678 757 755 670 691 717 733 634 705 676 712 717 672 735 670 653 717 703 692 651 669 687 703 669 667 693 653 677 634 653 681 654 666 656 656 607 642 707 652 715 649 646 672 623 658 677 632 659 686 623 682 661 650 639 671 658 625 656 637 676 682 605 719 619 623 687 714 700 641 672 685 609 679 640 675 620 653 690 710 627 639 657 702 652 661 745 628 732 706 714 686 712 711 752 782 755 774 794 767 738 799 752 814 763 799 799 783 812 756 755 798 819 835 758 733 760 772 776 751 798 748 718 749 726 781 743 713 706 715 710 713 721 714 674 720 677 732 668 704 689 659 679 676 612 678 697 704 675 668 708 634 665 734 693 647 678 629 632 635 668 697 643 646 629 674 678 605 606 643 665 623 620 627 637 661 588 632 645 616 612 651 624 635 634 633 638 673 609 610 635 612 634 612 620 591 617 635 646 635 609 629 585 644 594 595 649 594 591 584 628 654 608 609 612 601 593 560 628 629 610 623 596 649 632 647 625 622 651 622 650 629 623 584 642 599 625 612 596 612 634 644 619 624 642 651 613 646 638 641 578 575 644 604 621 648 601 607 626 638 600 645 629 619 591 640 622 620 598 590 616 651 664 608 610 600 612 618 579 660 596 599 627 626 601 587 603 635 588 624 622 572 592 590 636 638 601 617 584 580 627 638 557 621 577 605 642 624 599 599 601 583 559 590 587 594 598 607 548 644 608 569 589 553 609 602 621 541 576 579 632 604 559 617 660 606 611 586 575 593 578 595 584 590 584 611 569 636 589 605 575 606 574 630 574 585 594 552 549 584 584 593 568 630 601 637 653 628 575 604 616 607 580 577 599 583 627 649 561 594 614 562 567 583 573 626 615 573 616 574 643 613 615 585 580 598 610 631 599 573 613 560 589 570 564 586 623 570 627 559 575 581 634 552 568 595 609 608 580 611 609 608 576 569 551 564 567 638 594 605 578 563 628 606 560 546 597 566 574 591 584 543 563 583 550 607 569 593 643 578 624 555 588 574 595 572 602 579 586 595 583 618 610 583 574 607 576 605 574 569 555 603 569 583 562 608 550 606 582 602 597 611 599 584 631 581 599 598 595 592 589 593 563 584 624 577 582 567 553 602 580 570 614 615 573 575 624 583 601 628 578 595 592 605 592 566 607 600 573 568 571 622 587 587 567 613 552 605 590 587 567 566 571 574 603 629 587 598 639 560 598 562 602 648 590 626 554 598 587 576 578 564 567 631 586 584 556 569 561 600 551 567 564 561 592 585 610 576 594 559 593 588 555 628 573 588 587 528 578 557 563 588 552 559 562 629 568 556 562 540 583 567 588 607 582 556 561 570 580 588 582 575 589 579 582 585 564 582 584 530 569 540 579 566 548 601 597 612 533 598 580 576 586 570 534 566 600 598 591 559 587 552 594 548 569 573 578 598 559 539 602 564 589 598 565 602 604 587 575 630 578 603 597 588 643 599 602 628 628 595 637 606 608 616 688 640 616 585 647 653 663 641 644 644 585 633 575 620 653 607 679 548 643 625 632 628 587 577 643 603 583 604 637 607 613 636 568 618 612 627 635 634 603 638 576 623 591 594 617 593 726 629 609 651 670 641 696 700 732 721 718 709 713 759 738 776 750 770 789 823 858 830 822 807 793 843 817 783 828 830 817 809 791 758 781 779 794 769 812 756 780 761 768 732 745 808 749 721 721 692 692 753 660 695 722 656 724 683 675 740 670 637 701 673 729 639 667 653 718 645 612 690 655 659 629 661 656 642 612 646 688 662 669 599 588 606 592 639 642 622 644 640 639 563 624 625 640 610 604 601 574 645 624 606 637 577 564 557 621 592 605 598 612 539 601 575 586 561 591 568 611 550 605 580 575 583 598 585 571 522 571 605 589 553 568 569 561 596 586 547 632 566 568 555 576 579 568 591 538 569 530 544 586 562 582 593 569 536 611 536 536 530 592 529 567 543 561 542 531 548 550 537 538 523 599 601 530 541 539 564 565 584 510 548 514 571 551 492 532 563 555 509 572 565 537 574 544 537 527 581 544 585 529 563 571 558 578 599 556 552 554 549 576 540 596 553 583 552 506 501 537 565 484 552 555 564 558 548 555 515 567 547 631 564 549 516 593 543 554 554 543 609 556 579 537 598 550 565 570 579 544 559 556 567 583 561 587 589 557 622 614 621 543 571 612 601 624 658 627 707 717 731 793 776 801 778 795 802 810 841 891 924 937 907 937 871 938 892 930 919 940 943 902 921 882 918 878 917 834 863 826 841 836 846 806 844 821 796 826 829 831 828 788 791 800 750 739 729 711 764 700 755 659 675 669 654 677 633 641 644 679 618 654 652 638 643 631 622 624 654 638 603 633 582 607 572 632 621 638 620 594 608 565 552 597 592 555 559 606 601 580 563 589 585 635 563 577 576 598 541 586 570 555 530 589 559 559 585 568 581 536 533 555 502 560 573 530 543 570 552 566 558 554 535 507 577 520 527 515 535 519 503 539 549 558 520 577 565 561 554 570 558 514 532 542 559 566 549 552 578 582 553 537 551 547 579 560 515 541 559 526 532 525 517 594 517 531 549 533 543 512 538 575 558 564 487 542 535 553 541 529 569 557 530 556 569 557 543 566 561 619 565 577 534 557 537 558 601 533 594 637 530 570 611 619 622 601 599 638 565 580 577 625 638 594 616 615 584 604 604 623 604 571 597 586 579 601 594 596 603 574 580 604 577 577 594 590 577 589 528 591 527 562 583 590 557 566 552 568 551 551 521 572 583 554 559 523 567 525 526 567 546 566 554 516 523 546 513 548 580 549 551 550 516 558 529 524 512 533 548 525 501 515 514 490 502 525 524 485 516 496 521 543 556 563 507 519 487 544 503 517 522 528 544 538 513 517 521 504 544 532 507 545 508 532 558 511 478 468 517 528 564 539 525 521 533 537 511 539 509 483 514 524 542 508 490 539 495 495 525 543 554 523 524 499 514 524 541 510 507 472 512 548 502 498 537 544 470 551 509 531 509 454 493 568 503 498 564 504 487 508 493 489 554 504 518 562 504 507 484 533 501 495 512 552 529 535 583 538 518 514 518 524 555 533 516 542 512 512 515 445 557 535 495 527 539 504 533 484 507 509 535 520 487 512 522 516 492 485 518 533 537 494 487 485 476 516 515 505 489 489 502 503 540 516 532 523 465 532 512 474 514 521 515 521 546 521 499 502 501 482 523 493 496 525 515 511 519 560 504 529 511 552 510 544 506 482 497 516 509 500 555 565 489 502 493 486 526 524 499 506 505 541 487 516 497 489 541 560 493 517 500 488 486 467 528 484 495 517 487 548 536 515 514 517 544 514 531 529 503 535 481 500 494 491 456 509 493 543 508 510 510 501 524 533 505 506 534 482 558 542 480 517 521 521 519 484 507 515 513 472 523 506 508 531 516 531 499 498 511 518 524 558 557 531 500 527 534 491 542 502 484 518 516 533 512 541 521 500 520 503 515 507 547 483 522 518 543 539 494 508 551 504 488 516 502 543 496 541 530 485 520 527 524 463 540 521 542 515 509 501 522 527 483 489 492 528 524 522 544 494 545 533 507 496 515 526 490 514 493 516 500 472 489 499 510 469 506 500 502 504 492 508 501 544 495 484 512 526 456 510 487 480 524 491 480 485 516 460 533 518 525 534 521 507 499 478 527 525 513 496 494 518 464 523 510 530 511 495 478 458 502 499 468 522 503 526 509 518 500 474 486 539 502 462 488 471 491 513 478 530 505 506 546 488 507 533 553 529 505 564 531 565 574 564 533 529 555 525 559 572 534 533 565 571 541 585 530 522 568 542 526 555 602 572 607 598 530 573 502 565 575 570 533 555 531 511 569 529 493 521 513 534 566 516 529 534 533 559 523 498 515 524 502 523 520 520 509 522 529 523 484 504 521 516 506 490 497 528 547 553 542 540 534 538 535 528 502 505 528 472 509 515 509 494 468 537 498 535 522 470 457 517 541 520 492 494 516 499 543 532 523 478 508 500 489 487 474 536 449 498 487 515 527 505 506 522 496 494 498 507 479 474 518 506 502 532 517 485 497 498 516 491 504 511 489 472 496 491 498 478 510 496 477 517 523 564 483 521 504 503 521 517 501 496 530 495 489 490 486 465 464 493 509 523 521 458 479 500 492 500 462 484 499 477 507 505 461 494 522 521 475 505 484 457 450 517 461 507 516 491 532 469 486 473 511 464 500 446 491 509 488 487 537 475 521 480 513 467 484 498 496 491 463 484 518 534 461 549 463 466 509 474 516 498 474 499 438 493 497 480 471 467 477 502 462 474 486 495 472 499 483 505 494 495 518 553 511 485 530 483 493 468 475 528 467 501 522 476 484 512 493 512 498 521 511 472 489 480 544 531 535 541 572 483 490 514 477 520 506 538 505 538 539 534 490 543 522 529 503 522 578 549 522 521 612 555 573 604 609 643 554 588 571 605 588 659 625 651 659 598 634 586 640 594 622 597 666 631 662 634 616 647 620 662 616 621 619 636 672 667 594 603 577 620 613 589 589 601 607 581 546 582 592 610 545 607 554 543 571 524 556 562 543 559 515 545 550 599 534 619 566 513 577 572 571 513 537 568 521 513 507 553 530 500 515 515 487 501 471 512 539 521 505 563 564 496 524 514 503 533 471 503 539 537 489 483 546 542 507 491 539 540 489 519 503 521 489 521 534 549 569 501 493 501 501 489 505 521 533 531 488 490 477 467 537 475 531 499 502 485 518 504 518 556 502 520 478 491 483 473 453 464 493 467 522 515 473 496 527 503 519 535 514 505 515 463 485 513 486 502 514 499 465 497 492 514 468 505 443 495 441 507 483 462 505 473 516 473 436 492 509 507 477 478 492 471 496 492 523 476 490 499 495 532 546 525 465 467 494 481 476 484 493 501 456 459 476 504 515 453 494 485 534 472 508 476 484 494 511 475 479 474 504 462 480 495 463 504 479 505 504 486 496 498 508 498 436 518 525 517 480 515 520 496 521 512 498 500 510 471 483 501 480 508 507 451 459 503 518 437 459 503 487 505 474 483 468 533 503 493 488 486 512 515 484 481 468 482 454 454 461 524 482 490 542 483 480 480 484 475 497 454 484 476 487 455 473 484 467 446 484 487 490 507 450 533 507 452 460 486 478 515 528 501 534 489 485 527 481 463 465 470 477 469 486 506 477 470 482 460 512 515 513 537 489 449 514 480 482 509 527 474 473 496 485 457 470 478 504 512 468 482 475 470 513 493 490 483 487 506 508 487 503 425 476 478 518 440 514 466 487 454 465 494 498 462 523 490 524 499 497 493 513 540 441 472 460 492 468 504 488 500 473 493 524 484 476 490 508 484 490 425 466 496 505 499 489 469 482 484 479 492 504 459 499 513 546 462 492 506 487 511 530 510 483 473 467 477 503 464 458 510 507 499 505 493 521 486 519 492 497 430 545 494 512 498 462 461 532 441 485 517 449 526 503 482 504 491 486 499 485 503 474 534 452 497 482 519 523 476 496 463 467 469 508 508 491 482 478 527 439 491 475 483 504 423 474 486 507 497 521 503 476 505 487 495 483 498 458 493 479 490 510 502 495 512 518 412 488 535 479 516 458 471 479 468 477 482 511 489 495 500 508 488 503 494 514 483 508 462 429 505 496 526 462 490 516 504 470 481 463 483 493 517 490 489 478 488 482 475 477 489 498 494 432 523 476 481 525 465 509 452 514 535 473 469 498 479 525 463 519 502 464 512 537 524 458 487 482 480 481 505 469 513 506 524 473 495 521 471 545 454 523 474 497 493 511 464 515 514 541 541 496 514 495 537 496 500 476 529 496 484 500 511 463 486 465 472 448 478 477 488 471 508 489 485 515 493 493 480 498 445 549 540 549 499 540 534 530 496 518 516 505 507 517 508 524 519 517 546 481 506 491 557 541 507 568 556 526 556 582 541 505 549 523 520 536 528 527 561 556 513 541 536 504 532 509 514 538 593 533 523 515 467 510 526 553 544 555 568 500 536 525 531 532 529 547 558 558 568 536 519 553 526 538 508 525 560 563 552 603 568 558 567 548 573 575 554 511 550 530 562 604 560 597 553 617 601 548 585 546 596 549 568 540 583 546 533 580 577 576 588 553 579 541 541 539 525 545 514 563 553 544 561 499 517 528 546 535 536 554 491 577 543 558 520 515 570 510 480 567 529 492 507 487 502 540 553 502 524 518 532 528 548 544 528 552 488 499 528 480 527 505 516 507 506 499 555 502 537 546 524 511 565 544 523 565 508 510 480 501 526 547 530 525 509 540 522 557 552 521 484 519 484 479 501 522 463 536 511 468 488 517 531 540 536 506 529 513 511 532 511 485 501 538 524 509 485 524 512 518 572 471 523 504 519 544 477 520 509 483 487 496 497 502 498 535 495 491 492 523 504 530 491 472 536 552 511 511 503 464 504 483 508 515 496 501 508 488 515 488 515 512 527 535 513 516 534 519 535 505 493 535 510 550 527 510 526 527 524 523 509 497 551 551 558 506 537 540 560 568 507 533 595 583 603 579 644 565 614 593 664 611 655 635 738 619 673 639 685 697 718 742 741 715 749 696 774 752 761 721 781 706 757 759 735 798 760 760 680 748 718 717 765 719 758 712 736 739 750 725 724 749 756 682 744 695 707 712 664 690 689 647 630 664 658 666 654 653 639 613 696 627 598 575 554 596 599 571 611 570 603 551 582 518 563 541 602 584 606 558 512 540 560 544 575 556 528 500 532 560 531 523 538 554 550 518 534 535 544 501 522 546 521 507 527 490 551 493 516 554 475 532 478 526 528 524 498 544 503 497 496 484 543 500 537 501 508 494 509 514 496 486 498 509 511 504 543 552 465 499 495 534 529 509 494 486 487 485 480 525 517 506 501 498 520 487 513 486 461 485 530 493 501 506 481 492 521 537 506 528 522 496 517 511 478 562 525 556 513 466 511 508 483 495 525 526 514 493 495 513 521 496 515 509 489 533 536 460 537 557 503 543 518 479 563 497 527 532 534 509 518 517 504 512 513 529 545 538 484 525 507 515 486 545 520 539 517 508 490 500 560 472 470 482 495 452 544 505 470 513 467 489 523 488 508 477 477 498 484 522 514 471 491 469 488 491 472 496 485 535 469 442 478 525 506 497 502 493 511 476 488 493 526 524 497 489 497 482 457 514 518 512 499 483 495 467 479 491 507 468 462 494 466 503 457 462 505 497 476 539 477 505 482 496 459 508 450 509 495 484 513 482 529 492 460 416 509 523 484 468 487 465 436 490 468 498 499 466 507 522 507 474 500 480 506 479 514 538 546 440 468 507 458 492 447 484 507 504 479 478 456 507 479 483 478 512 483 496 527 508 480 465 436 452 469 501 477 487 446 481 494 498 484 477 483 485 455 485 502 489 478 483 461 507 481 490 487 499 470 481 499 460 465 455 465 483 436 534 482 479 482 436 482 503 467 515 442 504 468 499 500 441 472 486 481 504 479 517 477 489 479 489 505 454 462 504 509 482 499 485 453 487 471 498 477 516 543 491 448 496 486 474 485 487 517 492 475 494 483 464 511 459 506 479 477 493 494 423 505 449 493 441 466 480 454 479 461 452 488 475 451 477 452 487 464 445 496 457 503 471 482 481 479 447 473 478 498 461 475 440 484 490 488 468 474 454 478 505 455 500 482 447 482 460 460 438 476 452 449 485 523 457 475 472 458 461 448 452 445 491 515 477 468 484 464 485 506 478 482 477 482 446 495 514 474 455 471 491 492 483 467 474 483 490 463 483 472 472 476 476 519 485 506 490 466 456 465 497 505 463 509 442 493 467 479 489 495 468 488 514 505 508 466 478 478 509 461 477 458 479 506 453 523 462 469 522 461 461 425 458 458 470 494 482 475 468 499 472 469 496 517 491 484 484 520 503 449 459 486 501 455 469 459 500 484 477 444 480 487 464 508 518 498 510 465 493 475 461 499 556 486 481 452 476 445 489 517 458 545 499 541 534 496 509 505 473 509 470 514 503 481 498 531 525 500 511 515 505 529 527 511 538 524 487 488 518 535 537 525 504 500 480 481 467 478 499 525 476 498 508 521 488 527 479 496 528 447 492 488 489 491 509 467 477 475 460 510 489 495 476 490 489 501 491 514 457 506 480 489 493 492 477 451 476 459 479 477 475 502 467 520 518 478 499 449 476 437 458 499 474 450 532 481 477 467 484 508 482 482 492 471 479 458 483 509 463 442 513 465 478 495 506 490 458 475 493 497 509 430 467 458 494 477 450 489 465 482 478 487 483 494 475 490 547 486 484 493 493 461 486 473 506 465 472 486 460 476 491 517 463 474 482 455 449 459 516 479 481 462 458 467 467 445 453 497 503 473 513 495 488 481 482 488 479 457 470 466 475 483 482 468 439 466 442 473 448 508 492 494 462 451 518 418 469 488 480 487 458 474 433 495 517 469 461 490 498 497 459 463 463 476 461 488 451 478 495 454 479 459 495 472 486 473 498 505 484 515 541 502 496 506 477 475 511 490 525 492 499 487 458 531 486 477 471 482 525 489 518 472 506 494 443 492 477 490 454 520 499 525 537 505 527 528 520 521 524 529 492 531 565 554 557 539 572 519 544 564 614 610 565 619 650 630 672 618 620 652 598 671 607 701 677 664 651 662 655 636 695 679 659 679 662 626 641 642 685 684 675 726 660 668 666 650 691 702 716 679 662 603 682 692 616 675 655 629 619 671 635 647 653 624 633 641 589 669 570 602 590 582 615 579 552 516 541 573 540 545 525 532 533 544 522 560 563 580 519 522 551 570 474 518 513 503 519 546 528 547 482 566 524 550 534 453 484 554 508 484 534 498 531 525 500 537 517 490 476 480 501 517 525 498 503 491 517 493 508 512 519 544 507 490 475 483 479 489 479 517 546 546 508 535 527 500 485 514 545 493 480 480 511 521 495 509 505 498 467 469 466 484 484 473 508 511 514 505 494 506 489 445 448 498 517 529 469 496 518 480 521 453 483 489 491 497 445 483 491 469 496 478 434 476 473 476 493 466 466 501 500 497 489 479 496 503 493 512 469 498 506 456 482 480 517 457 504 495 485 461 487 519 507 486 494 521 501 496 479 475 459 535 519 513 530 460 487 474 520 470 503 453 457 483 476 514 446 464 462 468 447 506 474 479 486 484 484 479 500 454 494 476 481 474 502 474 487 457 443 464 476 435 436 439 463 422 481 444 468 511 503 486 474 528 486 501 459 489 469 488 448 460 473 464 505 463 481 453 479 456 468 449 461 499 486 451 461 445 469 482 448 478 457 508 461 478 489 497 459 437 486 462 493 459 446 455 446 494 490 522 455 431 478 465 506 496 472 485 483 430 455 485 474 469 511 465 507 482 475 457 481 447 479 517 457 491 465 495 506 444 464 462 454 453 480 456 469 461 447 430 506 451 510 472 469 450 447 450 418 460 467 447 474 448 485 470 450 453 449 469 462 481 489 498 481 449 487 471 488 464 482 467 469 484 498 471 480 441 482 450 502 481 447 481 483 469 463 452 501 430 528 467 459 448 473 467 482 467 457 495 466 422 510 480 500 463 500 503 518 419 437 417 467 483 490 480 436 453 457 473 443 472 470 441 472 510 475 449 491 473 488 458 467 448 494 425 469 469 452 456 471 468 460 489 453 441 449 442 478 457 456 479 476 475 479 487 464 444 448 447 471 435 419 448 451 458 457 445 468 452 479 484 485 455 477 433 500 483 434 485 444 446 470 483 491 427 407 477 481 505 432 457 499 470 456 429 433 477 482 486 480 462 522 462 502 480 459 484 464 466 484 419 459 475 466 519 502 442 456 459 452 471 449 463 462 482 499 430 478 481 489 491 509 473 489 459 471 430 459 515 477 453 464 430 466 491 456 490 489 511 489 498 491 464 508 488 450 510 480 469 486 483 453 436 462 478 447 478 458 478 415 440 450 457 471 496 471 496 464 466 426 449 524 468 498 469 456 439 479 482 496 442 513 479 487 459 446 454 490 459 513 494 466 514 432 455 497 498 503 498 492 453 485 496 496 497 538 535 522 456 528 505 535 461 506 494 500 544 515 512 457 497 534 452 469 466 509 495 482 518 514 474 533 490 513 525 547 509 501 485 497 496 465 550 461 483 516 520 517 506 501 535 483 551 477 497 513 462 511 513 502 507 512 516 471 513 511 516 554 543 534 495 486 518 527 532 510 490 496 539 540 523 455 490 485 508 532 508 488 493 459 540 502 494 492 495 538 464 492 504 485 455 527 502</counts>
			</dataPoints>
		</scan>
	</xrdMeasurement>
</xrdMeasurements>
