<?xml version="1.0"?>
<xrdMeasurements xmlns="http://www.xrdml.com/XRDMeasurement/2.3" xmlns:xsi="http://www.w3.org/2001/XMLSchema-instance" xsi:schemaLocation="http://www.xrdml.com/XRDMeasurement/2.3 http://www.xrdml.com/XRDMeasurement/2.3/XRDMeasurement.xsd" status="Completed" recordIdentifier="{E56F60A1-2983-4872-B5BF-0A160C5580DA}">
	<comment>
		<entry/>
	</comment>
	<sample type="To be analyzed">
		<id>GPSS_Li1p66Mn0p78V0p16Ta0p06Cl4_111825_691cd5d8f3837ac4a0a99fd5</id>
		<name></name>
		<preparedBy></preparedBy>
	</sample>
	<xrdMeasurement measurementType="Scan" status="Completed" sampleMode="Reflection">
		<usedWavelength intended="K-Alpha 1">
			<kAlpha1 unit="Angstrom">1.5405980</kAlpha1>
			<kAlpha2 unit="Angstrom">1.5444260</kAlpha2>
			<kBeta unit="Angstrom">1.3922500</kBeta>
			<ratioKAlpha2KAlpha1>0.5000</ratioKAlpha2KAlpha1>
		</usedWavelength>
		<incidentBeamPath>
			<radius unit="mm">145.00</radius>
			<xRayTube id="1010048" name="Empyrean Cu LFF HR (9430 033 7310x)">
				<tension unit="kV">40.0</tension>
				<current unit="mA">15.0</current>
				<anodeMaterial>Cu</anodeMaterial>
				<focus type="Line">
					<length unit="mm">12.0</length>
					<width unit="mm">0.4</width>
					<takeOffAngle unit="deg">6.0</takeOffAngle>
				</focus>
			</xRayTube>
			<sollerSlit id="21010002" name="Soller slits 0.04 rad.">
				<opening unit="rad">0.0400</opening>
			</sollerSlit>
			<mask id="22031000" name="Fixed mask 13 mm">
				<width unit="mm">9.00</width>
			</mask>
			<divergenceSlit id="22120001" name="Divergence slit 1°" xsi:type="fixedDivergenceSlitType">
				<distanceToSample unit="mm">50.00</distanceToSample>
				<height unit="mm">1.52</height>
			</divergenceSlit>
		</incidentBeamPath>
		<sampleMovement xsi:type="spinningSampleMovementType">
			<spinnerRevolutionTime unit="seconds">1.0</spinnerRevolutionTime>
		</sampleMovement>
		<diffractedBeamPath>
			<radius unit="mm">145.00</radius>
			<antiScatterSlit id="22090040" name="AS slit 9 mm (PIXcel)" xsi:type="fixedAntiScatterSlitType">
				<height unit="mm">9.00</height>
			</antiScatterSlit>
			<sollerSlit id="21020003" name="Large Soller slits 0.04 rad.">
				<opening unit="rad">0.0400</opening>
			</sollerSlit>
			<filter id="20030001" name="Large beta-filter Nickel">
				<material>Ni</material>
				<thickness unit="mm">0.020</thickness>
			</filter>
			<detector id="7010019" name="PIXcel1D-Medipix3 detector" xsi:type="rtmsDetectorType">
				<phd unit="keV">
					<lowerLevel>4.02</lowerLevel>
					<upperLevel>11.27</upperLevel>
				</phd>
				<mode>Scanning</mode>
				<activeLength unit="deg">5.542</activeLength>
			</detector>
		</diffractedBeamPath>
		<scan appendNumber="0" mode="Continuous" scanAxis="Gonio" status="Completed">
			<header>
				<startTimeStamp>2025-11-22T12:28:46-08:00</startTimeStamp>
				<endTimeStamp>2025-11-22T12:36:53-08:00</endTimeStamp>
				<author>
					<name>AutomatedUser</name>
				</author>
				<source>
					<applicationSoftware version="1.7b (136)">PANalytical Aeris Instrument Suite</applicationSoftware>
					<instrumentControlSoftware version="3.2.00000000 20240306">AERIS</instrumentControlSoftware>
					<instrumentID>950485</instrumentID>
				</source>
			</header>
			<dataPoints>
				<positions axis="2Theta" unit="deg">
					<startPosition>10.00943322</startPosition>
					<endPosition>99.99442286</endPosition>
				</positions>
				<positions axis="Omega" unit="deg">
					<startPosition>5.00471661</startPosition>
					<endPosition>49.99721143</endPosition>
				</positions>
				<commonCountingTime unit="seconds">12.495</commonCountingTime>
				<counts unit="counts">3202 3075 3197 3148 3094 3075 3171 3150 3238 3184 3088 3131 3053 3090 3126 3113 3239 3075 3111 3067 3245 3141 3050 3125 3142 3089 3104 3132 3101 3025 3186 3176 3091 3094 3099 3172 3135 3247 3136 3124 3134 3090 3134 3191 3118 3140 3199 3126 3157 3246 3151 3198 3238 3216 3121 3291 3176 3284 3240 3175 3239 3225 3145 3219 3112 3226 3171 3284 3240 3181 3202 3233 3303 3265 3255 3281 3228 3277 3268 3330 3261 3206 3333 3322 3370 3165 3277 3238 3391 3240 3317 3308 3317 3277 3377 3384 3330 3324 3229 3330 3244 3406 3355 3544 3383 3314 3360 3362 3394 3304 3393 3310 3380 3271 3313 3388 3291 3324 3309 3308 3353 3383 3374 3395 3390 3417 3299 3280 3284 3374 3358 3358 3378 3438 3435 3333 3423 3271 3364 3295 3429 3352 3460 3519 3440 3311 3269 3457 3425 3377 3373 3432 3433 3344 3405 3333 3324 3401 3414 3369 3378 3423 3350 3367 3373 3398 3277 3404 3316 3446 3325 3386 3487 3495 3402 3329 3450 3378 3269 3494 3512 3363 3455 3453 3272 3314 3333 3446 3438 3441 3396 3403 3367 3381 3321 3348 3428 3299 3313 3278 3359 3316 3408 3481 3415 3449 3282 3361 3417 3237 3467 3386 3391 3287 3461 3419 3484 3337 3354 3317 3376 3322 3323 3383 3406 3299 3386 3458 3357 3419 3322 3404 3276 3301 3294 3459 3281 3255 3412 3440 3370 3270 3424 3363 3392 3403 3307 3338 3314 3401 3460 3302 3442 3338 3303 3447 3384 3352 3372 3416 3230 3215 3249 3360 3379 3317 3402 3366 3277 3326 3355 3481 3326 3271 3346 3390 3342 3493 3388 3505 3315 3398 3431 3389 3345 3380 3390 3498 3434 3427 3348 3355 3316 3350 3486 3386 3429 3346 3479 3430 3440 3414 3344 3416 3417 3443 3539 3396 3309 3465 3446 3544 3467 3420 3490 3475 3453 3451 3455 3427 3454 3435 3532 3492 3373 3487 3626 3530 3535 3574 3513 3529 3536 3493 3666 3578 3446 3568 3605 3459 3627 3554 3553 3574 3701 3606 3569 3659 3710 3578 3750 3707 3649 3542 3695 3710 3675 3708 3660 3606 3622 3745 3734 3618 3692 3603 3771 3821 3707 3754 3834 3653 3740 3821 3804 3781 3776 3902 3704 3828 3811 3854 3882 3787 3861 3845 4004 3957 3973 3960 3958 4013 4029 3900 4033 3973 4025 4121 4063 4168 4128 4193 4314 4260 4417 4331 4393 4472 4550 4562 4819 4789 4825 5236 5205 5271 5370 5464 5243 5207 5223 5277 5265 5123 5058 4970 5163 5023 5234 5183 5212 5337 5264 5205 5280 5230 5049 5049 4834 4684 4633 4632 4449 4481 4376 4309 4300 4208 4333 4259 4244 4272 4133 4253 4270 4348 4286 4379 4369 4366 4311 4331 4355 4296 4201 4343 4165 4204 4083 4243 4308 4229 4209 4143 4294 4246 4158 4200 4190 4278 4083 4171 4173 4024 3979 3998 3914 3806 3833 3708 3810 3671 3883 3787 3704 3703 3873 3755 3803 3716 3780 3790 3697 3654 3614 3626 3696 3688 3618 3615 3691 3582 3587 3615 3661 3532 3590 3633 3578 3522 3666 3690 3572 3550 3444 3543 3448 3526 3467 3507 3575 3550 3604 3573 3510 3452 3385 3479 3371 3376 3443 3439 3459 3471 3456 3537 3415 3551 3495 3428 3431 3391 3437 3418 3498 3248 3347 3351 3523 3439 3422 3437 3391 3321 3428 3371 3362 3264 3345 3420 3323 3216 3257 3273 3354 3376 3255 3355 3328 3225 3374 3388 3308 3239 3318 3297 3292 3474 3338 3260 3257 3275 3214 3329 3379 3236 3284 3275 3262 3220 3344 3209 3270 3273 3300 3306 3317 3232 3313 3275 3165 3198 3172 3308 3297 3261 3232 3310 3227 3231 3240 3265 3267 3317 3371 3295 3156 3173 3291 3141 3141 3195 3409 3312 3216 3245 3260 3275 3177 3163 3112 3137 3213 3189 3123 3190 3165 3184 3254 3184 3262 3247 3168 3158 3204 3213 3161 3223 3129 3261 3234 3206 3019 3070 3277 3207 3153 3193 3178 3262 3205 3124 3185 3142 3144 3151 3169 3122 3119 3126 3109 3073 3180 3099 3167 3101 3145 3047 3155 3117 3117 3037 3170 3113 3034 3120 3168 3075 3113 3102 3129 3036 3131 3107 3081 3117 3114 3055 3033 3106 3090 3098 3094 3186 3162 3156 3076 3041 3109 3124 3072 3122 3094 3125 3151 3128 3086 3172 2970 3140 3053 2994 3145 3015 3060 3132 3063 3042 3023 3084 3014 3131 2952 3044 3046 3047 2969 2964 3021 3037 3150 3034 3042 3014 3040 3097 3070 3006 2997 2947 3066 3134 3045 3089 3048 2911 3050 3052 3043 2857 2941 2976 3001 3025 3074 3005 3025 2969 2999 2912 3077 2939 2992 2963 3075 3098 3077 3001 3026 3096 3060 3070 3062 3078 2927 2977 3039 2925 2974 3047 2927 2876 2945 2998 3035 3004 2913 2975 3008 2912 3007 2998 2993 2862 2980 2821 2930 2969 2952 3040 2931 3033 2950 3018 2985 2975 2988 2894 2909 2897 3002 3017 2950 2978 2984 2920 3023 2932 2978 2982 2981 2887 2879 2919 2905 2871 2861 2854 2822 2903 2921 2966 2886 2898 2943 3054 2874 2931 2833 2933 2764 2785 2947 2909 2845 2864 2874 2824 2840 2889 2897 2886 2882 2847 2810 2881 2852 2900 2828 2788 2872 2788 2796 2875 2858 2835 2877 2921 2816 2891 2864 2861 2840 2869 2872 2808 2836 2815 2803 2751 2818 2833 2832 2836 2866 2820 2767 2783 2847 2776 2800 2732 2896 2771 2721 2848 2834 2710 2800 2759 2743 2839 2743 2803 2813 2775 2813 2796 2773 2811 2801 2728 2751 2827 2761 2656 2705 2718 2759 2724 2730 2746 2726 2702 2657 2749 2674 2760 2741 2720 2780 2770 2673 2784 2661 2651 2722 2762 2790 2673 2771 2749 2671 2751 2583 2745 2711 2696 2729 2663 2799 2696 2724 2651 2666 2731 2684 2731 2698 2750 2729 2692 2659 2727 2796 2676 2620 2681 2601 2684 2723 2701 2780 2668 2701 2650 2626 2729 2644 2685 2767 2714 2781 2619 2709 2708 2675 2693 2710 2729 2745 2699 2806 2702 2691 2736 2628 2638 2693 2851 2718 2735 2706 2697 2721 2820 2738 2634 2758 2772 2799 2780 2535 2765 2629 2784 2759 2752 2804 2764 2646 2764 2737 2712 2726 2746 2685 2657 2743 2675 2722 2665 2692 2729 2708 2661 2718 2647 2763 2672 2694 2662 2677 2758 2673 2772 2686 2707 2750 2695 2630 2735 2677 2652 2734 2765 2789 2770 2566 2805 2616 2703 2765 2710 2681 2646 2708 2737 2714 2692 2659 2666 2603 2600 2703 2591 2670 2599 2638 2711 2680 2750 2698 2667 2617 2614 2639 2590 2602 2743 2747 2649 2692 2649 2642 2766 2596 2689 2639 2665 2635 2599 2577 2682 2570 2677 2523 2592 2668 2661 2674 2669 2639 2590 2672 2659 2509 2539 2619 2595 2620 2589 2556 2533 2477 2497 2519 2466 2551 2471 2625 2577 2390 2431 2486 2563 2501 2502 2562 2475 2490 2495 2459 2423 2426 2497 2516 2463 2431 2411 2468 2486 2530 2437 2409 2321 2454 2531 2494 2464 2304 2325 2337 2381 2387 2320 2360 2355 2390 2406 2396 2318 2373 2460 2367 2378 2326 2377 2272 2317 2331 2286 2418 2301 2326 2251 2408 2287 2345 2335 2267 2344 2321 2298 2351 2278 2304 2257 2248 2296 2268 2166 2323 2186 2261 2198 2207 2215 2278 2262 2226 2136 2276 2178 2212 2216 2200 2163 2229 2181 2197 2209 2150 2149 2232 2266 2139 2107 2192 2124 2213 2187 2186 2176 2101 2111 2095 2120 2143 2150 2134 2091 2058 2090 2177 2059 2161 2022 2125 2093 2070 2051 2170 2116 2099 2135 2043 2134 2095 2075 2168 2062 2095 2096 2103 2112 2009 2092 2003 2146 2075 2094 2054 2007 2028 2042 1959 1989 2028 2016 2051 2098 2019 2100 2040 2018 2021 2058 1952 2000 1923 2068 2023 2040 1989 1986 2003 2056 1993 2000 2084 1945 2025 1921 1928 2012 2045 2024 2043 2029 1995 1942 1895 2023 1943 2058 2019 2011 1954 1964 1920 2008 1996 1962 2006 1987 1895 2012 2001 2033 2042 1965 1985 1950 1947 1992 1943 1895 1959 1914 1908 1987 1946 1996 1962 1976 1968 1988 2023 1969 1967 1989 1982 1934 1964 1965 1988 1968 1942 1981 2030 2039 1921 1972 2033 1884 1964 1965 1948 1974 1954 1887 1993 2009 2061 1977 2043 1998 1945 1949 1997 2012 1983 1857 1940 1949 1922 1936 1969 1978 1925 1893 1912 1929 1973 2012 1949 1982 2020 1927 2023 1915 1980 1921 2024 2013 2004 1993 1933 1941 1984 1994 1944 1971 1972 1977 1963 1911 1978 1916 1859 1963 1994 1946 1968 1950 1946 1999 1925 1840 1958 1954 2008 2048 1937 1930 1921 1932 1994 1988 1994 1924 1963 1935 1941 2040 1908 2076 1975 1910 2012 1939 2027 1995 1950 1943 1908 1862 2001 1877 2005 1954 1963 1920 1891 1991 2011 2022 1924 1954 1902 1888 1819 1917 2003 2044 1910 1877 1920 1944 1884 1945 1968 1914 1948 2000 1947 1976 1974 1900 1907 1937 1974 1893 1981 1953 1916 1893 1852 1860 1893 1968 1874 1943 1834 1851 1900 1915 1938 1875 1821 1896 1884 1903 1943 1891 1851 1893 1801 1889 1913 1927 1828 1824 1812 1945 1928 1894 1854 1902 1823 1862 1797 1753 1848 1800 1800 1797 1818 1880 1832 1829 1853 1810 1763 1800 1753 1771 1785 1788 1704 1833 1767 1788 1758 1724 1816 1832 1764 1742 1743 1679 1728 1792 1770 1742 1862 1644 1767 1844 1711 1817 1805 1686 1802 1711 1714 1683 1798 1666 1713 1804 1761 1722 1737 1684 1674 1734 1739 1652 1779 1694 1678 1635 1693 1689 1706 1593 1684 1633 1703 1736 1617 1663 1666 1704 1639 1627 1614 1691 1668 1701 1692 1701 1722 1686 1694 1792 1626 1633 1665 1736 1650 1635 1748 1572 1760 1782 1787 1787 1686 1745 1803 1808 1888 1889 1888 2048 2054 2180 2122 2330 2388 2460 2676 2571 2769 2868 2826 2962 2743 2805 2763 2754 2727 2758 2526 2553 2431 2500 2349 2363 2353 2254 2273 2337 2287 2134 2134 2143 2097 1976 1970 1849 1813 1828 1757 1786 1762 1677 1822 1745 1654 1745 1607 1630 1648 1634 1615 1568 1537 1587 1609 1509 1611 1562 1578 1545 1527 1550 1491 1496 1491 1483 1496 1505 1524 1591 1483 1548 1524 1556 1548 1520 1548 1525 1497 1480 1505 1485 1487 1437 1515 1505 1491 1536 1546 1474 1516 1592 1479 1510 1482 1529 1544 1619 1547 1490 1538 1577 1511 1579 1554 1523 1574 1681 1626 1600 1728 1703 1740 1802 1836 1919 1957 2179 2318 2371 2511 2712 2760 3094 3210 3486 3486 3749 3838 3804 3819 3682 3581 3559 3365 3404 3348 3188 3084 3110 2848 3043 2761 2666 2723 2734 2598 2550 2395 2469 2313 2180 2228 2045 2041 1946 1850 1837 1769 1748 1710 1702 1712 1732 1627 1683 1649 1664 1733 1704 1883 1868 1836 1871 1908 1987 1971 1983 1962 1963 1966 1889 1953 1906 1773 1710 1715 1731 1673 1600 1581 1528 1533 1595 1578 1526 1500 1490 1461 1450 1503 1388 1499 1414 1449 1382 1396 1332 1413 1378 1353 1382 1355 1410 1299 1395 1408 1393 1333 1421 1360 1336 1286 1334 1344 1432 1334 1332 1372 1337 1347 1321 1348 1284 1311 1381 1336 1300 1308 1280 1286 1370 1275 1336 1268 1349 1354 1285 1345 1375 1257 1248 1313 1346 1277 1287 1245 1338 1318 1374 1247 1290 1306 1320 1314 1297 1262 1331 1179 1285 1302 1240 1251 1237 1288 1318 1302 1235 1287 1259 1157 1262 1223 1266 1173 1297 1332 1286 1234 1235 1255 1315 1279 1284 1282 1288 1230 1359 1222 1224 1276 1270 1278 1265 1272 1246 1216 1271 1318 1309 1254 1292 1220 1197 1221 1167 1289 1283 1256 1267 1243 1212 1295 1200 1251 1221 1209 1242 1259 1235 1167 1240 1269 1261 1204 1201 1222 1164 1270 1230 1272 1276 1136 1293 1228 1228 1283 1305 1278 1309 1190 1238 1277 1244 1263 1207 1318 1315 1278 1225 1262 1279 1178 1267 1219 1223 1255 1183 1197 1201 1242 1231 1176 1265 1272 1262 1222 1155 1270 1257 1219 1270 1195 1293 1264 1308 1206 1283 1228 1287 1264 1239 1287 1262 1269 1262 1330 1281 1263 1277 1269 1306 1304 1293 1265 1338 1279 1358 1241 1360 1296 1367 1240 1296 1280 1245 1274 1354 1309 1343 1251 1284 1252 1258 1270 1260 1302 1239 1185 1218 1227 1221 1295 1248 1219 1221 1300 1290 1203 1227 1277 1192 1251 1230 1169 1304 1295 1262 1204 1250 1313 1187 1296 1234 1264 1233 1299 1287 1268 1281 1255 1239 1253 1327 1286 1260 1249 1236 1298 1195 1225 1252 1212 1248 1286 1307 1201 1306 1291 1275 1286 1279 1237 1359 1211 1215 1239 1259 1201 1192 1269 1244 1210 1290 1254 1285 1253 1314 1243 1326 1252 1245 1289 1256 1342 1325 1311 1344 1288 1278 1326 1358 1376 1281 1352 1342 1311 1398 1432 1400 1408 1364 1463 1452 1494 1427 1449 1502 1496 1531 1523 1517 1503 1622 1594 1632 1724 1739 1744 1813 1923 2009 2086 2245 2252 2527 2678 2950 3112 3525 3781 4114 4530 5129 5627 6115 6568 7153 7628 7929 8265 8142 8030 8007 7748 7640 7544 7261 7093 6789 6591 6320 5999 5748 5759 5370 5153 5272 4910 4818 4581 4448 4359 4071 3913 3732 3550 3406 3398 3187 3034 2981 2797 2679 2664 2627 2559 2529 2387 2482 2390 2318 2298 2347 2213 2285 2257 2282 2224 2365 2358 2461 2340 2406 2429 2508 2494 2408 2533 2473 2507 2324 2382 2303 2248 2203 2031 1989 1903 1896 1855 1796 1784 1729 1593 1540 1596 1511 1454 1495 1432 1395 1362 1307 1355 1327 1291 1316 1321 1274 1233 1309 1242 1242 1215 1250 1235 1188 1220 1194 1162 1145 1206 1176 1238 1172 1110 1138 1213 1182 1147 1214 1156 1147 1216 1165 1156 1144 1120 1157 1196 1139 1171 1160 1123 1077 1201 1097 1191 1129 1115 1149 1131 1127 1136 1140 1127 1158 1125 1158 1134 1123 1099 1127 1149 1086 1153 1126 1216 1123 1115 1098 1123 1156 1136 1075 1128 1124 1140 1079 1126 1170 1098 1118 1108 1137 1143 1156 1094 1163 1136 1094 1121 1090 1124 1107 1119 1132 1191 1073 1149 1098 1108 1109 1028 1129 1097 1075 1010 1138 1082 1083 1081 1118 1076 1053 1101 1042 1105 1123 1087 1077 1124 1100 1163 1088 1065 1140 1056 1016 1020 1084 1078 1021 1061 1072 1050 1093 1120 1065 1081 1097 1035 1030 1091 1081 1089 1042 1096 1068 1128 1039 1028 1046 1100 1035 1039 1039 1104 1023 1071 1050 1102 1054 1055 1092 1002 1072 1030 999 1093 1062 997 1066 1085 1069 1062 1092 1049 1016 1066 1040 1093 1038 1104 1073 1076 991 1039 1034 1014 1095 1054 1027 1057 999 1062 1070 1067 1039 1078 1117 1113 1064 1120 1093 1125 1147 1112 1144 1104 1151 1100 1131 1105 1176 1186 1136 1079 1097 1110 1106 1099 1047 1101 1097 1122 1044 1084 1078 1059 1117 1065 1121 1056 1086 1021 1014 1050 1025 1029 1074 1078 1073 1061 1041 1014 1044 1038 1063 1068 1074 1044 1033 1044 1036 1068 1054 1024 1037 1070 1056 1066 1141 1128 1063 1081 1014 1092 1022 1093 1100 1122 995 1113 1071 1037 1050 1031 1020 1050 1051 1069 1037 1099 1008 1034 1000 1044 987 971 1023 985 1007 1033 1043 1012 1006 1012 1032 994 1000 1049 985 1010 981 989 1011 1026 1028 1032 1007 1035 1058 1022 994 971 1020 1053 994 1011 1024 994 972 937 948 1029 1019 1043 971 971 960 1035 1026 994 993 1018 968 1002 988 965 1017 950 996 949 994 996 1009 938 1048 975 983 1020 1012 981 927 1045 1016 970 923 970 993 983 934 994 961 995 1025 977 997 1042 959 984 986 971 1014 932 1044 952 982 939 938 957 974 955 944 992 987 954 955 993 982 961 961 1002 982 953 896 962 1007 998 1036 972 971 986 970 931 961 903 947 945 908 946 978 936 997 927 1050 965 1009 982 917 976 981 921 992 972 952 962 962 954 958 922 917 992 931 934 976 944 938 987 929 962 1027 962 972 966 946 937 971 990 993 945 969 945 961 983 965 909 981 1051 1002 974 934 939 905 963 979 928 982 953 923 944 1015 994 909 932 881 908 978 934 946 920 937 973 921 952 923 930 965 940 954 959 949 974 918 994 970 972 1000 1002 997 954 933 936 969 977 945 914 994 963 971 950 935 966 956 931 933 922 939 938 948 960 943 937 988 950 968 940 966 934 924 986 897 963 975 917 969 949 944 987 994 963 946 924 952 956 943 955 928 1003 957 916 980 940 949 942 892 924 1003 951 933 909 899 922 917 967 951 934 935 914 947 937 902 875 890 947 939 895 916 946 926 949 925 928 946 889 918 930 936 936 945 904 961 970 925 917 952 925 868 996 966 969 937 919 932 971 945 909 946 921 922 939 986 959 993 932 898 906 870 884 925 984 941 970 868 873 954 910 882 940 906 928 980 925 901 922 920 923 949 924 933 915 935 936 931 938 910 942 954 944 900 961 952 909 921 955 875 916 948 908 943 927 951 902 925 889 973 919 962 962 915 917 973 931 912 930 942 929 928 931 960 934 901 878 893 865 886 923 926 960 952 890 889 929 912 913 892 905 898 960 904 920 903 897 978 932 927 876 928 888 970 942 910 935 866 881 893 932 917 968 923 932 952 952 944 929 875 889 923 947 913 969 870 969 916 937 959 850 956 879 968 906 897 950 878 914 855 901 938 919 860 998 907 961 927 1005 926 884 923 943 958 895 922 934 943 934 974 916 912 888 881 895 895 889 876 864 927 912 887 853 928 931 918 942 933 969 982 924 926 873 970 899 917 879 957 910 872 916 909 886 875 911 913 922 891 935 959 938 907 903 896 927 898 904 961 950 990 921 991 905 992 897 958 945 888 898 933 909 935 910 955 896 932 978 935 916 1004 905 893 890 925 901 870 906 916 925 918 928 939 915 947 948 885 959 950 926 966 895 902 925 945 964 898 943 817 927 887 974 917 929 918 988 933 901 922 937 904 989 922 919 943 1019 963 945 948 948 981 960 942 1016 987 1037 976 1088 1094 1172 1180 1188 1158 1310 1294 1436 1451 1477 1548 1557 1534 1530 1597 1446 1478 1455 1471 1469 1414 1427 1429 1384 1435 1340 1346 1346 1305 1220 1254 1210 1201 1181 1117 1105 1088 1053 1081 1000 1052 972 1071 1012 1002 964 966 973 957 990 926 914 944 896 963 922 906 903 931 918 899 906 915 861 929 929 965 894 908 914 900 940 923 900 918 911 883 936 890 918 921 863 932 927 962 883 920 970 959 950 953 927 982 991 956 903 960 954 979 948 958 947 966 915 902 900 967 974 939 967 912 896 897 870 913 877 864 898 852 889 970 937 929 922 908 916 897 866 904 863 914 838 905 904 828 836 868 873 885 898 902 889 867 883 935 865 856 855 886 908 903 850 868 913 874 877 869 905 861 856 852 865 946 942 873 853 910 801 842 891 894 888 826 893 860 882 925 894 818 915 850 924 880 876 854 884 907 919 850 827 854 907 879 917 890 891 883 845 872 801 894 850 848 864 868 938 831 858 847 856 882 894 838 883 889 880 903 849 858 890 871 892 883 907 896 832 924 888 821 887 869 860 909 912 894 892 895 882 868 895 832 906 833 919 841 859 855 884 912 894 896 869 864 879 886 867 878 874 918 916 898 879 813 920 830 900 884 872 912 893 892 868 871 941 894 874 872 883 868 844 868 899 861 863 877 912 954 883 927 892 910 890 883 893 880 877 856 915 903 869 916 893 906 869 867 878 858 907 891 865 933 876 939 834 872 886 891 879 863 873 896 860 868 909 886 874 874 942 911 949 905 884 896 871 905 854 903 928 882 926 940 892 917 881 904 941 918 945 917 923 922 973 932 959 938 905 885 942 955 952 1018 975 1016 974 1010 1026 992 1004 998 971 1049 1045 1046 1133 1066 1075 1074 1167 1063 1143 1125 1225 1313 1317 1415 1468 1486 1616 1837 1892 2070 2203 2466 2689 2930 3199 3683 3788 4132 4317 4593 4660 4868 4594 4320 4416 4129 4057 4003 3856 3994 3957 3930 3839 3678 3551 3346 3276 3148 2898 2627 2444 2303 2238 2039 2024 1863 1795 1826 1702 1611 1510 1479 1420 1319 1352 1277 1199 1155 1185 1154 1115 1081 1125 1095 1011 994 1067 1032 1001 1041 994 991 952 921 966 965 967 976 936 939 955 1000 1013 985 969 952 1022 1007 957 975 980 985 998 988 1044 1095 1050 1083 1109 1065 1131 1106 1164 1121 1278 1252 1163 1220 1249 1244 1248 1240 1209 1186 1199 1243 1201 1200 1277 1232 1142 1208 1181 1202 1192 1147 1167 1217 1106 1081 1118 1043 1083 1010 1049 1074 989 1050 1014 994 1037 1043 965 945 1018 987 956 977 954 900 947 931 908 925 936 916 938 923 921 870 920 877 875 916 925 869 866 858 916 878 869 901 888 853 892 866 802 870 842 837 838 876 849 808 846 856 920 814 887 836 850 803 925 888 892 872 857 840 832 819 838 887 832 855 860 832 864 826 867 819 856 836 884 860 829 840 855 851 871 830 895 869 889 891 875 890 910 912 944 961 928 961 906 976 1011 1050 1091 1115 1008 1103 1205 1231 1167 1225 1216 1208 1181 1174 1198 1285 1143 1245 1147 1169 1205 1227 1297 1063 1161 1112 1125 1099 1058 1060 1058 987 995 997 1048 969 947 934 944 911 910 938 897 911 876 841 866 877 873 866 829 849 853 812 832 832 856 817 853 828 847 777 849 834 838 836 790 885 832 789 824 830 787 818 794 823 810 852 832 794 766 806 806 843 782 848 804 827 840 766 740 858 792 782 803 748 812 764 823 803 780 795 796 797 845 870 799 812 841 796 781 824 859 826 762 799 781 821 779 821 862 798 831 840 852 855 833 821 814 756 746 822 776 756 737 785 807 751 764 783 773 793 774 761 784 760 760 777 817 807 789 761 842 781 821 862 853 833 800 825 805 792 776 775 805 757 805 802 811 741 768 792 771 811 809 782 773 845 803 785 759 812 758 791 784 780 782 769 820 777 773 752 812 772 795 783 808 797 836 792 831 768 735 762 704 793 778 751 798 817 807 797 779 776 829 777 762 749 819 791 772 784 757 840 784 823 795 754 791 771 813 801 712 721 764 759 831 772 800 714 769 777 822 765 745 764 777 800 742 768 768 767 768 760 757 805 790 752 737 739 744 793 766 788 768 777 781 750 762 744 741 754 785 756 740 767 737 749 784 778 802 801 803 776 801 759 742 777 785 809 726 746 756 795 722 763 790 767 777 727 734 788 786 779 783 779 814 755 809 802 762 753 815 719 782 781 805 739 755 734 759 795 759 814 779 796 785 782 757 772 734 767 781 724 686 781 759 691 834 805 776 783 745 770 713 772 768 785 716 764 773 739 753 758 725 774 761 790 775 755 736 779 760 737 771 774 774 742 750 811 773 791 746 752 771 805 772 705 770 778 772 735 730 796 733 746 728 767 776 776 760 797 732 748 763 782 718 760 768 700 797 776 795 754 762 713 718 744 689 726 751 751 770 759 744 754 769 734 761 727 702 714 738 758 754 765 783 746 717 709 770 740 794 731 754 741 791 766 747 767 740 807 727 727 780 759 720 753 771 766 777 752 728 752 740 792 761 711 760 746 764 765 747 766 750 735 741 763 762 742 740 732 839 757 788 721 783 776 795 737 770 763 756 711 778 763 752 755 739 749 763 723 760 735 751 758 719 737 734 731 688 750 781 683 713 732 807 745 764 759 705 756 747 763 770 773 755 750 766 779 762 716 742 717 710 701 714 739 678 744 808 726 731 790 695 701 764 745 756 705 715 769 782 776 766 743 767 753 753 752 774 716 726 790 733 767 789 747 750 785 829 786 803 767 786 840 844 874 874 851 797 841 867 830 842 830 861 816 792 798 812 808 819 823 803 809 811 823 797 805 785 786 799 819 795 750 792 768 777 829 770 789 741 756 768 762 802 771 743 749 779 756 812 761 796 846 818 790 783 851 771 832 824 888 841 827 875 932 885 932 1023 1001 1055 1069 1098 1146 1087 1116 1108 1115 1096 1071 1058 1071 1037 1066 1068 1091 1075 1034 1040 1017 990 1024 1000 967 904 954 884 877 912 852 914 885 847 812 832 826 826 824 816 726 748 821 764 802 806 740 788 733 742 763 799 738 733 713 760 705 775 744 775 751 734 781 737 777 783 741 752 749 743 742 718 752 711 789 833 733 741 753 815 686 806 758 739 789 743 770 752 719 770 737 760 760 778 785 763 780 772 801 767 840 823 785 856 827 874 810 893 891 844 863 820 887 865 879 831 879 815 833 859 827 879 881 826 839 814 827 847 857 812 816 770 836 834 765 764 787 762 766 758 774 768 791 745 801 723 750 719 753 744 786 719 706 743 765 785 692 748 709 709 724 691 789 713 752 727 746 736 718 721 704 723 698 755 767 744 797 733 730 745 697 686 781 724 737 725 658 753 668 773 709 746 741 703 710 709 782 746 792 736 727 676 738 748 733 728 762 697 743 739 678 734 757 745 753 668 711 748 750 797 763 732 694 728 731 753 787 743 735 743 777 732 809 747 752 766 780 772 754 780 759 782 752 790 770 757 782 795 772 758 768 843 820 836 810 834 926 906 1027 1031 1038 1061 1202 1196 1284 1269 1351 1435 1466 1468 1414 1504 1397 1468 1334 1336 1303 1329 1256 1303 1309 1373 1396 1327 1379 1269 1286 1243 1232 1241 1213 1205 1070 1043 1061 1028 963 984 967 938 953 890 932 951 895 862 831 842 824 889 832 789 847 835 794 826 751 821 737 774 779 717 803 764 824 796 775 753 723 705 721 741 773 800 743 688 725 743 720 712 734 719 762 686 702 689 698 724 727 753 762 780 702 748 741 754 722 716 742 733 726 715 811 755 795 745 696 731 706 792 788 770 797 810 767 757 810 721 795 777 732 741 783 780 789 709 768 762 820 768 778 761 748 763 725 747 734 717 765 727 759 793 757 793 726 718 717 710 702 751 703 726 746 726 691 748 737 788 709 693 702 707 708 666 720 718 721 710 728 700 700 718 644 676 694 697 740 709 742 702 734 714 697 704 723 726 728 761 768 765 752 741 718 757 803 791 825 852 868 861 810 848 894 910 880 874 804 840 834 799 837 779 852 843 893 821 870 842 820 826 818 787 806 830 783 832 754 753 788 735 766 800 772 768 767 727 722 733 727 659 783 693 767 729 706 716 690 703 673 694 741 702 685 708 707 626 735 708 732 736 703 707 705 759 736 699 659 697 650 668 708 674 694 701 698 776 683 694 659 694 671 649 713 690 671 669 694 709 693 736 721 708 677 709 666 707 667 657 709 693 741 687 700 659 664 726 666 663 686 657 666 700 713 710 683 708 702 667 684 710 707 711 679 726 662 662 696 720 680 667 686 718 642 627 675 682 706 636 661 664 696 687 674 716 685 676 687 720 694 641 711 641 673 681 628 687 655 659 711 681 678 684 694 723 731 672 681 715 703 709 708 714 715 715 685 695 650 672 753 685 657 717 664 662 733 647 692 669 736 684 716 689 695 711 689 696 672 677 676 688 675 637 718 665 671 652 658 704 702 684 700 666 663 666 646 661 707 658 678 724 731 695 688 661 671 664 701 694 709 701 734 680 663 675 624 695 686 666 641 718 673 646 661 641 697 681 649 721 660 645 677 696 705 629 683 670 630 650 657 582 658 634 659 647 647 687 602 644 718 739 664 678 663 679 675 673 698 723 639 677 641 705 688 693 696 656 654 679 653 660 692 657 668 689 666 627 624 669 697 722 687 655 646 648 662 673 652 685 703 706 662 675 646 635 713 645 666 643 642 703 656 637 694 631 663 628 736 655 703 669 735 712 665 653 698 675 708 663 655 648 695 697 686 655 679 681 678 651 663 652 703 659 650 679 660 666 672 702 683 689 680 660 673 615 667 664 618 669 686 648 685 687 695 683 658 624 639 601 656 625 628 666 701 637 647 725 635 695 643 680 649 687 624 676 665 655 673 651 669 645 684 663 650 653 673 699 684 654 650 675 659 700 659 636 702 692 705 688 625 645 655 651 662 678 672 677 635 704 658 652 709 629 678 624 702 640 635 689 647 658 632 669 707 661 631 684 653 705 647 642 671 657 689 651 624 662 636 671 654 672 632 655 658 690 617 680 679 633 622 615 665 658 677 680 646 640 702 663 683 678 633 696 665 653 695 674 689 742 656 688 685 700 688 720 682 681 723 729 710 714 775 758 736 732 749 699 736 697 749 707 690 761 775 725 735 725 739 713 725 699 727 690 729 698 706 711 690 723 743 730 724 692 713 635 647 686 741 666 665 620 655 660 652 690 653 666 731 682 685 665 678 683 704 653 665 677 667 671 691 669 676 618 674 648 667 656 672 690 695 636 644 698 689 686 646 636 725 663 702 652 659 626 657 672 613 638 701 637 664 640 673 666 606 688 621 652 602 673 651 676 629 676 659 613 654 644 652 640 667 628 630 676 649 678 658 668 683 685 727 674 646 683 689 637 705 707 700 684 678 669 648 684 656 643 657 675 648 655 616 677 604 646 675 655 673 615 669 670 631 650 678 668 643 631 652 635 663 669 626 639 686 651 627 615 616 599 643 672 606 671 623 631 607 655 659 630 618 606 637 669 610 638 644 623 641 626 619 652 661 678 677 608 612 636 720 641 671 672 676 649 663 645 634 653 657 670 664 629 601 682 639 615 624 620 603 657 636 656 640 678 616 678 628 683 658 657 681 662 634 670 647 633 677 651 690 655 593 672 603 644 675 643 700 646 684 674 720 704 659 640 671 648 659 600 668 652 666 645 670 696 642 683 660 676 655 651 686 676 667 631 690 720 670 669 750 629 673 642 679 701 746 741 681 675 702 674 701 698 718 730 790 732 730 765 761 770 770 828 863 880 892 913 929 937 890 946 904 859 908 949 908 867 866 860 883 839 846 829 872 862 904 848 870 868 855 865 837 848 803 780 773 814 753 831 769 769 779 732 762 761 798 702 706 728 707 696 680 705 671 650 696 701 676 672 622 676 678 653 646 660 684 711 661 663 678 670 651 695 651 679 663 631 661 624 656 689 627 711 652 688 673 698 688 702 681 706 721 693 675 644 655 703 677 662 697 709 667 636 659 714 632 674 734 670 684 663 679 663 686 690 673 691 679 652 691 648 657 651 654 687 708 684 654 683 675 673 725 645 638 680 687 693 672 617 693 685 664 637 643 704 648 693 694 619 665 656 663 685 672 710 721 651 664 707 688 708 653 647 681 640 701 670 698 660 639 672 651 630 680 683 639 640 686 594 660 617 692 647 639 680 632 661 661 663 665 712 617 656 627 651 645 703 623 666 645 655 620 610 654 653 593 655 644 669 643 671 628 627 628 630 652 660 649 675 625 633 656 642 640 603 629 668 687 607 630 679 642 683 604 648 630 677 631 652 644 647 681 647 633 659 606 662 656 592 668 624 639 660 612 641 583 612 649 571 615 648 655 696 600 674 654 648 702 681 653 657 634 642 631 646 688 626 657 624 609 698 615 626 657 645 614 667 666 634 604 607 634 623 627 624 676 675 584 661 632 588 642 659 664 678 662 676 656 583 633 646 637 601 640 619 670 623 665 610 618 631 649 578 671 649 652 597 608 673 684 683 654 635 686 650 633 614 589 638 637 658 612 625 631 661 618 646 636 665 653 671 590 628 674 643 619 689 624 638 659 635 648 599 617 646 642 660 615 595 697 625 648 612 620 644 679 660 567 595 639 655 593 600 633 590 649 646 633 604 602 598 626 603 617 591 662 616 674 607 660 611 664 624 605 664 609 642 621 605 638 662 620 619 675 642 657 622 631 661 597 635 629 583 638 640 593 618 649 618 611 620 674 654 598 614 616 653 642 595 613 627 610 629 627 649 651 623 654 654 645 649 671 637 589 653 633 578 599 585 632 599 647 602 674 675 605 717 647 628 613 653 667 577 662 655 619 616 637 670 599 619 572 694 637 629 625 647 633 673 611 630 648 626 625 633 661 634 606 626 635 631 603 655 632 604 629 646 676 611 632 574 603 625 668 635 633 648 633 618 657 627 646 649 618 658 632 624 625 627 681 613 604 609 615 619 587 635 670 649 609 679 627 603 594 613 708 660 590 642 645 667 649 669 642 666 608 627 634 631 659 685 585 652 636 632 617 656 653 611 615 632 625 592 680 595 567 619 626 642 590 613 647 640 592 631 642 656 617 693 637 635 641 599 675 638 606 626 653 619 681 614 620 662 604 650 651 641 638 674 700 611 667 652 659 653 629 628 615 622 682 596 635 616 650 650 653 642 655 641 634 653 645 604 680 650 688 633 659 628 620 620 654 628 675 691 638 671 690 641 693 702 693 672 707 679 685 702 724 691 683 699 700 733 727 662 685 727 693 687 684 730 720 656 707 768 673 688 678 710 694 686 712 652 724 719 686 669 707 720 678 677 718 673 721 640 661 706 664 655 719 657 672 677 668 700 672 705 749 682 738 719 699 683 674 756 726 739 713 712 733 690 682 715 727 740 743 661 730 673 694 701 766 666 718 687 731 706 736 704 709 719 697 667 706 649 737 668 688 643 687 654 655 680 670 667 676 685 642 617 632 668 652 628 634 682 680 662 625 666 620 625 694 656 676 660 629 597 655 671 625 617 653 624 611 635 673 652 656 611 654 622 651 662 694 627 668 656 680 645 664 668 670 624 661 585 696 634 672 644 622 651 644 625 599 721 621 635 579 662 601 648 638 662 630 657 642 635 637 618 616 613 635 659 599 658 645 649 611 581 691 673 622 654 661 682 653 605 661 677 668 630 636 695 659 689 689 630 658 668 683 696 657 664 617 664 679 654 671 704 672 692 652 737 742 707 642 685 676 643 706 698 664 686 667 684 670 666 675 685 641 636 677 736 722 697 674 684 692 664 682 718 665 662 716 660 688 652 669 654 698 675 683 678 670 712 683 683 724 722 670 704 682 688 712 722 753 749 780 750 827 782 783 807 854 816 873 875 919 897 924 1030 1023 1020 1065 1140 1173 1206 1206 1200 1171 1195 1195 1136 1149 1043 1130 1076 1082 1055 1047 1046 994 1052 975 1001 987 1005 1030 1017 1044 969 1018 988 1002 961 970 914 923 928 843 871 896 822 836 850 874 834 740 760 787 717 779 735 730 762 718 702 720 656 726 687 703 706 692 706 715 648 652 684 676 681 696 726 679 629 668 651 684 627 664 632 695 646 666 660 643 649 669 679 695 675 636 616 652 697 640 640 708 645 638 705 682 652 672 682 623 679 633 617 664 607 628 654 613 670 656 644 622 663 690 623 653 653 661 642 685 692 603 670 641 639 651 665 650 671 656 654 621 661 654 646 613 637 658 652 684 644 668 680 684 686 640 644 650 629 641 680 667 726 748 710 725 723 746 695 705 700 700 713 666 676 730 741 685 753 728 727 724 744 759 771 767 793 764 779 812 781 767 725 764 736 708 785 716 764 730 744 771 699 704 669 693 692 688 734 795 711 799 699 736 698 691 676 670 728 701 707 651 704 666 704 683 656 664 674 690 670 659 643 608 646 658 659 664 654 653 619 618 647 584 666 630 653 642 627 655 618 698 639 628 592 633 621 623 651 645 683 649 640 617 619 604 614 654 621 562 617 676 612 683 648 631 590 655 640 594 590 608 610 654 607 682 632 658 630 637 617 610 637 602 629 657 594 652 635 653 638 618 651 605 582 575 643 654 648 590 603 634 607 659 594 660 638 633 603 611 603 645 609 626 606 655 640 656 600 616 629 594 626 643 618 590 634 622 661 592 641 646 639 612 613 576 642 652 675 622 635 676 594 627 611 623 622 638 647 654 584 664 667 594 632 651 591 642 588 604 627 596 669 617 616 631 629 655 644 647 595 650 622 625 594 621 636 621 637 658 599 615 549 611 618 623 644 607 599 614 632 603 603 650 614 597 629 640 635 639 601 606 630 631 630 559 616 622 625 610 624 602 666 617 610 644 571 608 603 664 608 599 643 608 584 622 576 623 610 623 559 597 623 621 622 630 599 611 611 634 609 626 620 634 606 581 591 589 601 608 573 560 571 647 541 552 691 642 611 626 609 572 578 566 611 561 620 600 620 604 634 641 581 630 593 616 604 642 605 616 644 598 636 603 620 586 608 638 600 633 589 572 607 630 615 580 615 646 617 595 615 593 574 626 654 601 610 634 639 604 562 617 587 588 598 621 553 612 626 602 627 612 647 626 607 582 636 614 610 598 606 629 622 591 623 619 640 570 608 577 627 621 629 625 563 599 595 643 617 547 566 630 615 643 605 607 625 613 651 612 597 634 576 643 574 628 639 632 594 588 613 695 601 615 605 604 637 657 588 601 623 642 614 562 629 602 644 639 582 606 642 594 617 587 616 584 635 655 627 626 554 585 619 608 653 643 653 631 595 578 619 659 602 655 666 672 644 658 592 617 613 620 682 664 673 658 642 654 673 651 617 651 588 696 694 666 642 651 655 668 666 622 652 673 634 651 631 655 637 594 697 579 609 673 641 626 655 653 686 663 618 626 652 626 669 625 622 660 681 657 631 647 625 636 612 602 598 595 596 609 644 579 665 582 631 649 612 662 595 588 616 604 615 653 614 626 628 618 649 635 626 634 601 590 616 641 596 580 605 640 592 597 623 608 594 633 633 611 629 624 605 610 655 623 620 570 590 580 597 591 596 573 573 595 617 574 662 627 594 660 611 621 643 637 682 640 578 665 650 562 634 614 605 582 622 620 593 584 602 615 568 623 621 592 572 623 607 595 581 599 650 603 598 630 589 634 597 579 637 622 622 619 602 549 614 595 615 597 577 596 601 616 596 580 600 625 584 615 613 627 629 606 621 652 606 635 572 617 580 657 659 640 635 618 630 569 660 562 582 624 553 594 623 601 593 605 608 617 596 619 600 641 624 606 621 588 595 648 628 617 635 589 639 650 582 584 634 626 626 604 654 613 645 596 599 635 570 614 621 605 630 639 630 549 645 616 629 584 659 586 648 660 644 643 630 676 660 687 680 597 607 619 634 648 661 642 673 618 655 642 657 693 697 701 699 655 673 704 684 697 676 679 744 748 738 760 788 796 764 835 816 850 872 914 911 962 970 961 947 987 1002 905 925 938 932 879 882 826 834 893 860 791 816 796 851 852 783 799 743 856 796 818 862 810 798 829 835 879 850 778 804 739 794 691 758 759 710 708 692 699 671 699 669 698 647 674 670 690 703 627 647 663 634 683 661 640 664 690 634 654 631 592 661 667 633 613 675 658 650 617 640 665 625 690 631 621 630 613 617 661 592 641 628 627 621 648 661 663 585 597 648 639 605 612 661 615 596 643 630 658 627 587 648 610 602 653 685 627 597 663 633 641 611 624 589 612 595 649 621 626 625 622 615 646 632 618 652 622 616 591 606 634 634 627 598 634 670 565 610 617 617 620 620 596 641 633 604 630 602 586 645 631 614 597 628 645 615 626 619 589 659 623 665 610 635 687 671 670 592 613 676 640 620 628 696 609 624 697 599 615 628 618 613 659 612 663 637 660 656 622 596 624 580 646 662 622 681 643 725 602 636 660 643 652 668 636 614 593 599 646 632 669 643 647 653 617 625 621 657 677 635 595 612 621 624 612 610 579 622 667 646 604 564 636 646 615 606 607 559 643 652 627 584 619 574 592 598 606 615 611 612 584 592 617 593 613 580 551 597 584 611 604 593 632 605 610 663 573 549 603 595 610 629 601 597 582 629 589 588 578 621 612 606 630 611 578 566 616 595 615 579 589 585 640 561 626 572 630 598 563 590 571 594 608 567 594 607 608 572 627 560 601 635 617 575 602 604 607 571 633 608 580 635 608 571 640 578 593 565 630 598 626 571 597 602 616 615 633 615 573 617 590 596 573 625 625 581 575 621 606 582 573 584 609 637 637 611 606 602 584 623 629 603 606 597 553 544 613 569 566 550 579 577 565 615 587 580 592 577 593 565 623 618 640 619 626 573 614 569 575 587 665 556 609 631 601 631 622 576 617 574 559 599 573 601 548 576 561 606 520 603 564 558 627 574 568 644 595 598 550 595 583 605 580 618 546 620 596 600 558 599 560 613 577 624 568 574 615 587 595 555 590 602 573 607 571 544 593 629 584 623 603 607 613 587 594 526 605 602 583 523 577 566 628 600 604 600 604 542 574 580 631 597 600 599 587 591 565 575 599 614 601 586 581 596 529 617 601 571 606 570 579 577 598 627 605 605 623 625 590 555 575 584 610 583 604 630 586 579 625 580 588 606 594 590 586 576 582 592 615 597 579 606 572 604 611 599 642 591 591 578 574 609 566 629 600 554 600 609 590 582 586 548 586 572 575 591 600 616 594 620 556 586 538 593 589 575 585 567 601 589 600 601 603 558 602 588 572 550 601 614 582 574 585 600 591 596 541 574 624 578 573 565 581 609 634 600 514 610 608 593 620 629 568 632 616 594 636 620 627 599 606 596 593 632 613 564 589 607 645 595 601 636 643 666 643 605 637 623 560 678 679 678 619 666 637 633 620 684 666 648 657 611 717 639 596 630 684 622 636 634 579 652 637 647 647 620 668 624 600 615 662 620 615 647 617 635 659 648 626 640 663 629 608 636 664 661 641 679 613 616 603 616 579 603 600 646 605 622 622 609 637 628 670 657 615 637 640 624 642 652 618 659 624 658 646 612 633 587 606 620 607 625 607 644 612 615 610 629 615 635 614 662 607 634 599 626 644 627 588 639 605</counts>
			</dataPoints>
		</scan>
	</xrdMeasurement>
</xrdMeasurements>
