<?xml version="1.0"?>
<xrdMeasurements xmlns="http://www.xrdml.com/XRDMeasurement/2.3" xmlns:xsi="http://www.w3.org/2001/XMLSchema-instance" xsi:schemaLocation="http://www.xrdml.com/XRDMeasurement/2.3 http://www.xrdml.com/XRDMeasurement/2.3/XRDMeasurement.xsd" status="Completed" recordIdentifier="{98132325-57EE-4C91-B569-FF3C23E76D10}">
	<comment>
		<entry/>
	</comment>
	<sample type="To be analyzed">
		<id>GPSS_Li1p8Fe0p8In0p2Cl4_101325_68ed62dd07cf888582f978af</id>
		<name></name>
		<preparedBy></preparedBy>
	</sample>
	<xrdMeasurement measurementType="Scan" status="Completed" sampleMode="Reflection">
		<usedWavelength intended="K-Alpha 1">
			<kAlpha1 unit="Angstrom">1.5405980</kAlpha1>
			<kAlpha2 unit="Angstrom">1.5444260</kAlpha2>
			<kBeta unit="Angstrom">1.3922500</kBeta>
			<ratioKAlpha2KAlpha1>0.5000</ratioKAlpha2KAlpha1>
		</usedWavelength>
		<incidentBeamPath>
			<radius unit="mm">145.00</radius>
			<xRayTube id="1010048" name="Empyrean Cu LFF HR (9430 033 7310x)">
				<tension unit="kV">40.0</tension>
				<current unit="mA">15.0</current>
				<anodeMaterial>Cu</anodeMaterial>
				<focus type="Line">
					<length unit="mm">12.0</length>
					<width unit="mm">0.4</width>
					<takeOffAngle unit="deg">6.0</takeOffAngle>
				</focus>
			</xRayTube>
			<sollerSlit id="21010002" name="Soller slits 0.04 rad.">
				<opening unit="rad">0.0400</opening>
			</sollerSlit>
			<mask id="22031000" name="Fixed mask 13 mm">
				<width unit="mm">9.00</width>
			</mask>
			<divergenceSlit id="22120001" name="Divergence slit 1°" xsi:type="fixedDivergenceSlitType">
				<distanceToSample unit="mm">50.00</distanceToSample>
				<height unit="mm">1.52</height>
			</divergenceSlit>
		</incidentBeamPath>
		<sampleMovement xsi:type="spinningSampleMovementType">
			<spinnerRevolutionTime unit="seconds">1.0</spinnerRevolutionTime>
		</sampleMovement>
		<diffractedBeamPath>
			<radius unit="mm">145.00</radius>
			<antiScatterSlit id="22090040" name="AS slit 9 mm (PIXcel)" xsi:type="fixedAntiScatterSlitType">
				<height unit="mm">9.00</height>
			</antiScatterSlit>
			<sollerSlit id="21020003" name="Large Soller slits 0.04 rad.">
				<opening unit="rad">0.0400</opening>
			</sollerSlit>
			<filter id="20030001" name="Large beta-filter Nickel">
				<material>Ni</material>
				<thickness unit="mm">0.020</thickness>
			</filter>
			<detector id="7010019" name="PIXcel1D-Medipix3 detector" xsi:type="rtmsDetectorType">
				<phd unit="keV">
					<lowerLevel>4.02</lowerLevel>
					<upperLevel>11.27</upperLevel>
				</phd>
				<mode>Scanning</mode>
				<activeLength unit="deg">5.542</activeLength>
			</detector>
		</diffractedBeamPath>
		<scan appendNumber="0" mode="Continuous" scanAxis="Gonio" status="Completed">
			<header>
				<startTimeStamp>2025-10-17T14:25:40-07:00</startTimeStamp>
				<endTimeStamp>2025-10-17T14:33:48-07:00</endTimeStamp>
				<author>
					<name>AutomatedUser</name>
				</author>
				<source>
					<applicationSoftware version="1.7b (136)">PANalytical Aeris Instrument Suite</applicationSoftware>
					<instrumentControlSoftware version="3.2.00000000 20240306">AERIS</instrumentControlSoftware>
					<instrumentID>950485</instrumentID>
				</source>
			</header>
			<dataPoints>
				<positions axis="2Theta" unit="deg">
					<startPosition>10.00943322</startPosition>
					<endPosition>99.99442286</endPosition>
				</positions>
				<positions axis="Omega" unit="deg">
					<startPosition>5.00471661</startPosition>
					<endPosition>49.99721143</endPosition>
				</positions>
				<commonCountingTime unit="seconds">12.495</commonCountingTime>
				<counts unit="counts">3151 3071 3110 3104 3129 3063 3170 3027 3132 3121 3039 3056 3011 3099 3073 3167 3101 3046 3087 3106 3093 3163 3154 3086 3037 3151 3177 3214 3153 3167 3030 3030 3159 3053 3257 3024 3056 3084 3118 3186 3048 3101 3250 3193 3305 3175 2996 3179 3168 3110 3125 3131 3073 3111 3128 3055 3136 3176 3141 3288 3145 3155 3237 3152 3210 3201 3244 3279 3197 3321 3237 3059 3165 3214 3319 3305 3303 3308 3279 3318 3267 3295 3200 3467 3278 3346 3328 3353 3232 3257 3341 3369 3361 3228 3399 3315 3339 3255 3365 3307 3367 3329 3427 3391 3369 3351 3357 3335 3336 3403 3307 3370 3373 3318 3231 3306 3325 3377 3216 3334 3163 3313 3322 3322 3295 3229 3207 3349 3299 3215 3253 3198 3352 3227 3272 3287 3353 3239 3352 3284 3296 3317 3226 3307 3325 3312 3165 3356 3326 3291 3292 3181 3322 3362 3375 3245 3295 3263 3214 3268 3396 3256 3415 3269 3504 3262 3355 3206 3342 3316 3368 3289 3316 3388 3378 3318 3368 3310 3390 3313 3309 3306 3242 3370 3304 3329 3240 3293 3370 3263 3339 3351 3357 3287 3252 3166 3291 3356 3283 3247 3232 3320 3301 3381 3320 3254 3234 3299 3286 3256 3237 3301 3180 3240 3201 3295 3362 3334 3207 3223 3372 3144 3258 3237 3194 3232 3295 3284 3296 3192 3149 3247 3341 3354 3190 3273 3327 3171 3221 3210 3218 3232 3360 3324 3326 3197 3223 3298 3265 3312 3259 3192 3184 3168 3193 3335 3236 3295 3120 3216 3295 3278 3244 3332 3330 3209 3278 3233 3248 3247 3315 3207 3295 3286 3237 3297 3316 3311 3239 3201 3245 3360 3402 3419 3237 3405 3336 3296 3346 3367 3315 3260 3345 3343 3326 3190 3362 3373 3287 3374 3436 3388 3330 3408 3393 3445 3364 3432 3329 3411 3396 3343 3497 3521 3395 3384 3423 3446 3347 3380 3363 3482 3408 3574 3496 3466 3468 3404 3492 3506 3436 3485 3568 3491 3550 3565 3570 3509 3564 3444 3580 3550 3474 3618 3628 3588 3555 3542 3576 3527 3582 3530 3612 3491 3603 3524 3698 3696 3662 3567 3599 3702 3631 3604 3618 3645 3708 3666 3775 3741 3779 3703 3701 3687 3682 3757 3703 3827 3633 3741 3789 3709 3764 3985 3825 3711 3729 3955 3770 3919 3811 3833 3908 3868 3823 3840 3865 3755 3990 3907 3913 3839 3911 3991 3903 3897 3993 3883 3886 3891 4055 3975 4224 4168 4236 4162 4220 4293 4228 4420 4319 4558 4455 4621 4630 4854 4889 4964 5110 5223 5281 5572 5625 5631 5720 5864 5935 5945 5768 5782 5789 5806 5605 5567 5681 5483 5563 5410 5460 5475 5389 5160 5258 5319 5028 5189 5048 5100 5096 5043 4914 4825 4911 4807 4718 4769 4709 4652 4574 4363 4446 4441 4356 4437 4199 4286 4202 4235 4026 4080 4075 4017 4026 3969 3829 3955 3811 3888 3772 3870 3778 3764 3872 3802 3803 3782 3785 3595 3768 3799 3737 3712 3643 3724 3640 3813 3812 3710 3756 3628 3697 3721 3775 3721 3761 3640 3694 3601 3680 3578 3715 3693 3696 3652 3646 3606 3645 3608 3686 3691 3649 3672 3610 3656 3649 3612 3507 3692 3468 3593 3499 3459 3474 3553 3445 3552 3587 3638 3541 3500 3706 3522 3629 3504 3510 3469 3528 3469 3545 3634 3457 3553 3533 3471 3528 3579 3454 3522 3424 3470 3533 3581 3561 3541 3487 3394 3421 3421 3584 3476 3368 3480 3460 3408 3460 3555 3528 3491 3432 3515 3408 3507 3490 3537 3476 3373 3517 3471 3514 3487 3467 3369 3409 3395 3385 3376 3498 3426 3576 3347 3437 3485 3400 3310 3395 3516 3526 3401 3378 3482 3424 3526 3310 3470 3512 3459 3486 3449 3374 3449 3382 3446 3488 3462 3496 3380 3381 3487 3453 3494 3367 3432 3399 3375 3337 3501 3500 3407 3473 3455 3606 3424 3457 3453 3578 3465 3406 3470 3606 3492 3565 3512 3488 3472 3361 3545 3468 3434 3407 3411 3442 3390 3375 3531 3430 3388 3429 3448 3443 3420 3552 3388 3386 3438 3439 3483 3417 3475 3324 3312 3365 3428 3322 3408 3487 3328 3443 3408 3344 3495 3344 3256 3380 3338 3343 3355 3442 3356 3340 3396 3364 3324 3257 3265 3400 3369 3319 3279 3471 3389 3341 3275 3344 3302 3401 3327 3361 3296 3281 3328 3368 3321 3337 3382 3402 3320 3407 3296 3291 3396 3260 3309 3352 3394 3387 3405 3267 3367 3325 3286 3425 3300 3289 3417 3387 3417 3421 3399 3369 3234 3356 3217 3374 3390 3311 3338 3283 3416 3293 3234 3303 3325 3303 3224 3234 3421 3393 3404 3312 3397 3347 3383 3242 3259 3265 3338 3370 3318 3317 3381 3253 3328 3262 3315 3451 3314 3274 3239 3281 3380 3311 3264 3171 3270 3304 3273 3218 3243 3188 3276 3192 3273 3344 3297 3282 3181 3264 3250 3230 3272 3230 3276 3350 3336 3284 3312 3277 3272 3254 3137 3301 3362 3235 3145 3181 3193 3240 3203 3216 3220 3170 3357 3196 3237 3266 3229 3232 3284 3242 3239 3291 3264 3181 3267 3189 3181 3268 3221 3143 3322 3225 3235 3266 3158 3247 3203 3164 3288 3264 3224 3242 3213 3293 3181 3217 3171 3111 3137 3245 3233 3237 3242 3267 3102 3230 3208 3237 3140 3122 3168 3242 3357 3100 3221 3230 3088 3285 3234 3174 3245 3234 3172 3195 3141 3197 3276 3105 3131 3112 3138 3204 3199 3070 3180 3172 3149 3136 3239 3163 3135 3164 3115 3182 3198 3215 3192 3190 3119 3116 3123 3141 3083 3169 3168 3188 3131 3243 3191 3176 3140 3111 3134 3209 3210 3135 3099 3240 3073 3173 3213 3122 3067 3045 3114 3152 3170 3166 3180 3178 3186 3130 3081 3105 3056 3098 3104 3135 3227 3092 3078 3133 3119 3144 3170 3189 3050 3125 3137 3127 3090 3181 3076 3152 3167 3080 3056 3157 3064 2996 3210 3136 3047 3153 3078 3227 3097 3102 3136 3201 3122 3166 3044 3168 3116 3111 3117 3101 3095 3133 3272 3065 3086 3126 3084 3060 3151 3190 3083 3094 3152 3113 3073 3181 3124 3103 3118 3054 3133 3146 3139 3230 3073 3202 3125 3178 3238 2974 3134 3181 3209 3034 3234 3102 3136 3108 3109 3107 3107 3106 3147 3206 3214 3145 3178 3114 3125 3124 3214 3189 3159 3148 3148 3206 3003 3058 3196 3145 3243 3172 3165 3041 3144 3214 3167 3200 3127 3179 3100 3222 3115 3192 3088 3118 3112 3137 3053 3083 3144 3148 3211 3156 3246 3121 3061 3154 3021 3112 3098 3122 3058 3079 3192 3191 3128 3187 3182 3147 3142 3170 3160 3087 3225 3137 3126 3107 3064 3006 3012 3016 3143 3067 3012 3023 3075 3106 3174 3155 3138 3119 3001 3166 3076 3121 3023 3119 3105 3093 3019 3085 2991 3027 3063 3073 3026 2961 2960 3058 3067 2961 2948 3094 3091 3066 3053 2918 3024 3008 3005 2913 2951 2935 2961 2927 2981 2946 2945 2943 2997 2944 2964 2866 2909 2822 2886 2968 2916 2882 2944 2910 2925 2923 2860 2857 2818 2885 3025 2908 2950 2773 2825 2956 2798 2871 2900 2914 2859 2896 2892 2844 2789 2862 2907 2798 2851 2859 2766 2752 2831 2811 2779 2798 2770 2844 2825 2731 2732 2763 2680 2743 2872 2813 2770 2769 2750 2658 2710 2704 2748 2682 2743 2679 2779 2808 2727 2793 2704 2764 2741 2668 2720 2681 2756 2703 2721 2780 2731 2867 2582 2776 2719 2623 2697 2668 2754 2617 2674 2616 2725 2686 2648 2703 2678 2689 2642 2698 2610 2684 2575 2681 2727 2629 2608 2701 2618 2632 2648 2636 2570 2640 2646 2585 2612 2615 2663 2507 2609 2619 2668 2544 2636 2548 2579 2559 2568 2525 2595 2693 2666 2516 2613 2645 2626 2639 2628 2681 2671 2631 2524 2620 2641 2631 2567 2675 2653 2707 2673 2663 2742 2654 2696 2721 2718 2623 2656 2600 2771 2686 2729 2640 2728 2613 2726 2588 2636 2645 2546 2535 2515 2515 2575 2586 2687 2573 2602 2581 2630 2511 2561 2546 2612 2598 2591 2599 2572 2592 2564 2565 2520 2620 2530 2634 2524 2494 2565 2457 2580 2606 2570 2468 2553 2526 2508 2525 2557 2501 2524 2423 2637 2587 2509 2592 2523 2646 2538 2578 2549 2505 2469 2551 2492 2485 2593 2536 2490 2522 2505 2471 2588 2508 2505 2485 2627 2530 2493 2557 2514 2595 2552 2488 2484 2598 2575 2449 2541 2564 2506 2571 2548 2554 2517 2483 2549 2583 2536 2587 2503 2543 2627 2609 2581 2541 2626 2554 2509 2609 2543 2488 2560 2562 2566 2663 2552 2596 2560 2571 2584 2532 2542 2571 2570 2536 2554 2609 2573 2564 2532 2565 2546 2553 2475 2621 2597 2475 2566 2498 2620 2576 2576 2559 2478 2623 2565 2489 2514 2507 2551 2568 2556 2491 2594 2495 2581 2494 2570 2628 2561 2538 2478 2492 2580 2447 2541 2512 2581 2528 2497 2458 2483 2503 2579 2550 2511 2492 2585 2480 2473 2524 2578 2503 2506 2568 2480 2462 2460 2482 2586 2481 2518 2587 2487 2482 2574 2524 2434 2519 2472 2487 2519 2495 2552 2430 2431 2443 2481 2518 2351 2412 2414 2407 2518 2437 2448 2501 2479 2479 2420 2518 2505 2420 2393 2367 2438 2492 2459 2395 2475 2328 2458 2490 2389 2458 2362 2339 2348 2415 2513 2364 2352 2363 2344 2401 2347 2405 2411 2342 2291 2442 2257 2369 2347 2435 2363 2339 2438 2374 2334 2364 2367 2283 2351 2438 2322 2265 2352 2406 2313 2258 2259 2376 2391 2346 2445 2296 2364 2222 2308 2319 2276 2328 2303 2295 2277 2292 2315 2311 2296 2353 2281 2349 2286 2246 2307 2268 2305 2244 2230 2275 2325 2261 2252 2184 2234 2277 2264 2280 2292 2261 2320 2220 2236 2223 2250 2217 2216 2333 2223 2275 2415 2117 2213 2221 2148 2234 2194 2267 2287 2199 2179 2323 2235 2323 2239 2203 2199 2117 2215 2194 2289 2149 2223 2270 2168 2262 2234 2214 2207 2155 2269 2296 2223 2394 2336 2372 2413 2423 2454 2525 2449 2571 2621 2752 2749 2901 2884 2939 2904 2949 2953 2958 2964 3030 2939 2861 2971 2883 2934 2745 2848 2833 2803 2775 2735 2734 2764 2724 2762 2705 2709 2805 2772 2712 2705 2596 2589 2447 2497 2578 2545 2428 2531 2393 2435 2394 2413 2421 2362 2294 2288 2317 2223 2327 2200 2227 2315 2306 2216 2197 2248 2191 2176 2188 2144 2221 2154 2135 2154 2171 2159 2094 2090 2077 2116 2058 2186 2180 2156 2141 2155 2106 2188 2070 2036 2187 2047 2102 2101 2198 2197 2104 2152 2150 2049 2075 2128 2056 2087 2154 2129 2141 2147 2205 2258 2095 2203 2150 2168 2244 2194 2326 2326 2331 2393 2459 2426 2598 2667 2946 2911 3163 3306 3497 3598 3746 3936 4102 4057 4120 4160 4300 4395 4266 4273 4263 4325 4126 4144 4271 4112 4175 4132 4058 4054 4093 4069 4091 4144 4115 4026 4065 4075 3979 3901 3845 3674 3715 3586 3491 3454 3375 3215 3266 3211 3079 3155 2993 2960 2936 2784 2766 2718 2583 2648 2544 2582 2569 2467 2480 2486 2389 2218 2223 2266 2275 2235 2157 2189 2143 2134 2061 2134 2050 2106 2176 2005 2034 2100 1986 2016 2050 2023 1864 1937 1965 2002 1992 1996 1961 2046 1959 2008 1947 1991 1971 1954 1930 1949 1906 1988 1854 1923 1927 1991 1943 1925 1971 1960 2009 1921 1949 2010 1956 1997 1920 1954 1917 1914 1936 1937 1960 1994 1936 2004 1917 1929 1947 1932 1923 1929 1900 1914 1945 1982 1946 1874 1920 1896 1983 1903 1866 1900 1889 1954 1937 1950 1962 1867 2030 1938 1816 1860 1943 1936 1880 1881 1841 1907 1917 1878 1922 1889 1934 1936 1869 1852 1901 1927 1925 1881 1906 1956 1848 1839 1924 1873 1871 1975 1887 1863 1855 1890 1909 1858 1835 1973 1869 1990 1853 1947 1875 1853 1990 1933 1863 1928 1880 1891 1851 1873 1902 1888 1959 1818 1884 1868 1932 1969 1857 1884 1837 1932 1897 1855 1801 1864 1889 1845 1904 1798 1861 1828 1862 1928 1879 1861 1902 1908 1780 1853 1867 1826 1867 1825 1925 1875 1842 1885 1907 1824 1886 1939 1899 1899 1839 1851 1868 1860 1891 1836 1892 1868 1900 1826 1815 1792 1905 1797 1873 1833 1947 1863 1845 1834 1887 1858 1815 1929 1886 1918 1834 1848 1859 1890 1859 1847 1908 1882 1835 1787 1887 1890 1938 1938 1884 1807 1870 1767 1842 1912 1871 1820 1902 1875 1827 1799 1832 1893 1867 1873 1843 1820 1874 1863 1834 1909 1916 1827 1902 1842 1844 1857 1885 1884 1843 1823 1802 1822 1786 1854 1865 1852 1872 1929 1903 1868 1880 1880 1877 1917 1850 1898 1741 1820 1857 1838 1896 1900 1889 1853 1852 1867 1882 1896 1950 1808 1897 1798 1872 1913 1803 1853 1927 1982 1803 1847 1849 1795 1793 1841 1966 1930 1917 1848 1919 1907 1909 1838 1956 1929 1915 1963 1909 1861 1866 1930 1814 1916 1835 1864 1908 1948 1901 1810 1870 1974 1828 1936 1884 1956 1890 1827 1935 1921 1983 1972 1951 1900 1984 2016 1980 1904 1885 1943 1903 1927 1961 2025 1963 1962 1983 2002 2049 2013 2028 1995 2134 2004 2177 2159 2160 2186 2246 2337 2360 2440 2474 2546 2721 2914 3009 3110 3393 3665 3907 4032 4383 4812 4976 5271 5514 5844 5940 6068 6222 6092 6149 6208 6150 5964 6097 6028 6013 5868 5643 5773 5720 5619 5495 5578 5442 5314 5302 5324 5177 5379 5185 5172 5147 5031 4923 4783 4634 4573 4544 4425 4357 4240 4140 4002 3769 3637 3664 3534 3326 3286 3215 3063 3078 2978 2872 2760 2779 2677 2625 2541 2431 2540 2372 2412 2321 2398 2288 2274 2163 2251 2152 2055 2062 2102 2072 2048 1977 2019 1985 1951 1900 1908 1932 1953 1987 1880 1861 1915 1863 1862 1876 1834 1817 1846 1967 1883 1888 1944 1827 1915 1879 1885 1903 1855 1862 1880 1803 1871 1824 1843 1904 1861 1887 1882 1809 1801 1890 1881 1844 1865 1762 1830 1912 1854 1770 1837 1861 1853 1832 1885 1838 1814 1867 1820 1819 1876 1848 1853 1827 1774 1847 1821 1761 1840 1909 1817 1843 1830 1764 1800 1841 1764 1826 1825 1837 1814 1829 1758 1893 1830 1791 1792 1849 1794 1763 1788 1739 1788 1830 1733 1776 1847 1775 1856 1840 1840 1758 1802 1743 1838 1741 1819 1829 1777 1846 1754 1734 1732 1814 1807 1784 1803 1772 1752 1770 1813 1768 1834 1806 1767 1683 1762 1717 1761 1814 1752 1790 1753 1793 1828 1711 1790 1828 1770 1741 1710 1698 1741 1789 1735 1771 1778 1837 1770 1761 1792 1707 1819 1830 1831 1805 1794 1784 1816 1849 1769 1736 1831 1689 1850 1754 1739 1837 1808 1783 1825 1775 1800 1808 1745 1713 1720 1797 1800 1709 1760 1861 1751 1831 1726 1775 1806 1757 1817 1645 1787 1750 1782 1769 1851 1689 1740 1752 1779 1775 1795 1804 1691 1685 1780 1735 1731 1843 1809 1754 1729 1725 1825 1684 1761 1752 1805 1776 1719 1827 1748 1841 1844 1891 1772 1958 1798 1843 1894 1860 1819 1760 1894 1826 1818 1826 1829 1914 1880 1811 1821 1825 1850 1836 1812 1765 1895 1852 1824 1790 1804 1757 1785 1722 1842 1815 1833 1741 1784 1876 1870 1692 1817 1846 1787 1848 1789 1863 1802 1749 1749 1729 1792 1781 1837 1757 1797 1760 1775 1761 1759 1813 1748 1770 1740 1763 1772 1774 1714 1724 1692 1773 1679 1788 1764 1659 1810 1759 1675 1647 1715 1715 1751 1719 1717 1789 1781 1736 1702 1705 1744 1655 1805 1767 1723 1800 1747 1641 1800 1714 1790 1637 1724 1728 1797 1728 1739 1765 1683 1769 1715 1719 1760 1792 1761 1773 1809 1718 1744 1649 1782 1828 1768 1766 1838 1733 1807 1692 1798 1737 1811 1759 1758 1727 1750 1773 1780 1756 1811 1685 1758 1739 1763 1806 1781 1737 1756 1765 1742 1744 1776 1718 1714 1705 1793 1697 1796 1749 1704 1775 1732 1744 1725 1762 1752 1698 1717 1737 1841 1740 1759 1729 1609 1733 1714 1782 1770 1758 1690 1700 1822 1721 1688 1641 1718 1796 1720 1762 1739 1714 1773 1676 1648 1723 1695 1684 1763 1740 1684 1736 1775 1726 1752 1800 1752 1720 1786 1667 1687 1743 1703 1752 1735 1751 1789 1736 1708 1704 1718 1623 1743 1705 1787 1703 1686 1761 1722 1756 1751 1673 1669 1692 1714 1722 1785 1665 1752 1747 1636 1681 1621 1770 1715 1750 1687 1684 1696 1737 1693 1631 1693 1657 1750 1702 1742 1694 1668 1732 1701 1733 1618 1635 1788 1714 1741 1741 1676 1729 1753 1745 1673 1627 1678 1709 1664 1681 1738 1697 1628 1669 1697 1701 1776 1792 1705 1701 1732 1689 1723 1719 1724 1712 1691 1694 1718 1796 1695 1668 1697 1650 1750 1676 1761 1686 1687 1817 1728 1689 1688 1669 1674 1715 1676 1671 1765 1713 1648 1733 1752 1745 1723 1750 1751 1752 1647 1660 1713 1742 1716 1670 1749 1653 1705 1755 1673 1676 1731 1692 1650 1694 1705 1691 1713 1724 1746 1688 1705 1678 1748 1668 1733 1741 1670 1738 1705 1754 1650 1706 1661 1684 1685 1678 1666 1698 1706 1638 1731 1692 1645 1774 1698 1626 1683 1634 1735 1666 1709 1670 1696 1703 1719 1679 1725 1730 1669 1653 1664 1698 1759 1658 1740 1709 1647 1741 1670 1648 1759 1605 1699 1620 1662 1670 1721 1780 1735 1717 1813 1727 1697 1595 1730 1668 1720 1719 1652 1646 1722 1727 1705 1695 1675 1730 1701 1691 1720 1705 1672 1629 1662 1687 1722 1696 1684 1720 1684 1637 1689 1681 1691 1613 1652 1617 1649 1674 1698 1629 1659 1755 1701 1671 1715 1728 1722 1657 1636 1620 1763 1803 1667 1722 1709 1682 1727 1645 1713 1728 1724 1710 1704 1659 1642 1608 1708 1684 1689 1813 1675 1693 1724 1684 1710 1709 1758 1727 1743 1784 1717 1695 1803 1711 1688 1758 1727 1720 1765 1757 1681 1689 1787 1718 1741 1700 1707 1678 1799 1734 1644 1729 1732 1652 1669 1719 1693 1710 1729 1743 1704 1711 1692 1711 1687 1699 1693 1690 1698 1676 1711 1722 1657 1671 1671 1734 1732 1696 1668 1670 1651 1661 1689 1692 1687 1678 1700 1681 1691 1732 1616 1635 1677 1662 1686 1668 1669 1659 1712 1627 1680 1682 1672 1647 1610 1713 1671 1694 1708 1663 1681 1634 1619 1649 1737 1773 1675 1630 1646 1721 1730 1729 1772 1661 1683 1665 1632 1653 1669 1740 1759 1673 1709 1712 1641 1683 1670 1705 1649 1752 1646 1636 1664 1656 1666 1668 1663 1641 1732 1734 1671 1633 1689 1642 1749 1665 1659 1706 1714 1593 1658 1663 1672 1691 1710 1678 1696 1637 1663 1721 1742 1742 1657 1656 1657 1650 1702 1759 1672 1691 1748 1694 1673 1721 1737 1729 1708 1735 1667 1702 1729 1699 1655 1667 1714 1728 1650 1780 1720 1695 1743 1728 1628 1712 1715 1680 1672 1698 1628 1778 1705 1730 1782 1734 1728 1630 1665 1698 1665 1792 1747 1684 1663 1652 1673 1638 1767 1678 1684 1756 1781 1678 1763 1727 1795 1714 1732 1769 1826 1866 1814 1833 1968 1828 1954 2058 2045 2007 2226 2190 2174 2181 2275 2249 2269 2204 2283 2198 2213 2196 2202 2198 2218 2273 2210 2085 2082 2119 2041 2059 2095 2074 2175 1982 2028 2020 2104 2002 1973 2017 1946 2029 1946 2009 1965 1861 1937 1909 1867 1901 1957 1960 1881 1802 1772 1772 1758 1761 1777 1783 1813 1756 1762 1736 1743 1723 1797 1789 1745 1785 1771 1693 1759 1650 1793 1704 1693 1778 1634 1718 1698 1731 1738 1714 1659 1669 1680 1688 1709 1664 1739 1668 1626 1732 1645 1705 1670 1666 1732 1582 1622 1724 1763 1705 1759 1636 1636 1630 1610 1547 1649 1672 1648 1730 1640 1710 1599 1740 1623 1635 1609 1643 1709 1622 1697 1699 1680 1759 1680 1654 1629 1701 1599 1643 1610 1567 1672 1655 1678 1677 1624 1691 1659 1649 1685 1585 1654 1651 1631 1637 1690 1709 1656 1577 1680 1673 1706 1646 1654 1651 1640 1633 1675 1644 1613 1695 1646 1701 1689 1708 1630 1691 1634 1624 1674 1627 1623 1658 1675 1778 1709 1703 1623 1619 1697 1612 1589 1731 1738 1649 1656 1680 1746 1668 1680 1692 1689 1639 1624 1649 1644 1606 1644 1698 1644 1660 1673 1602 1642 1644 1572 1635 1631 1582 1693 1683 1630 1653 1714 1693 1621 1733 1714 1698 1626 1656 1679 1678 1691 1673 1619 1679 1617 1701 1631 1579 1673 1644 1684 1657 1648 1656 1672 1633 1767 1591 1732 1739 1710 1693 1690 1639 1644 1671 1670 1677 1624 1631 1655 1742 1701 1659 1673 1738 1693 1688 1729 1692 1660 1686 1627 1674 1687 1672 1692 1643 1687 1671 1742 1668 1751 1663 1603 1643 1747 1662 1673 1687 1711 1647 1598 1653 1768 1686 1644 1665 1757 1679 1696 1628 1783 1666 1663 1679 1680 1700 1665 1700 1706 1701 1632 1723 1651 1740 1682 1696 1692 1653 1749 1660 1631 1665 1701 1562 1728 1676 1710 1638 1660 1648 1603 1749 1673 1699 1599 1690 1659 1657 1646 1699 1737 1664 1682 1723 1700 1698 1637 1721 1668 1663 1639 1724 1665 1652 1604 1692 1677 1646 1706 1686 1748 1672 1681 1680 1780 1777 1766 1712 1792 1704 1683 1727 1712 1759 1790 1752 1764 1752 1787 1740 1825 1841 1806 1851 1844 1899 1947 1941 1984 1985 2057 2078 2244 2299 2450 2531 2843 2951 3001 3236 3481 3648 3844 4007 4198 4235 4235 4282 4372 4275 4266 4352 4332 4353 4416 4251 4289 4267 4205 4086 4032 4013 3895 3874 3690 3765 3512 3559 3531 3579 3366 3376 3366 3302 3267 3142 3305 3133 3194 3008 3102 3048 3021 2947 3041 2890 2732 2768 2758 2678 2702 2621 2622 2624 2569 2552 2356 2276 2304 2267 2283 2171 2135 2189 2127 2079 2075 2091 2027 2045 1935 1992 1913 1829 1891 1924 1941 1907 1872 1799 1845 1857 1794 1805 1624 1882 1812 1796 1756 1755 1718 1683 1755 1749 1711 1688 1676 1737 1673 1740 1705 1673 1677 1692 1615 1669 1610 1677 1753 1656 1647 1680 1659 1643 1611 1692 1659 1691 1698 1641 1653 1737 1623 1716 1720 1623 1638 1694 1654 1707 1685 1634 1682 1598 1666 1597 1633 1674 1699 1696 1684 1709 1691 1708 1614 1650 1616 1600 1639 1666 1631 1710 1648 1745 1650 1651 1632 1632 1650 1586 1583 1641 1655 1669 1679 1616 1708 1643 1631 1581 1651 1621 1640 1611 1642 1656 1712 1634 1619 1695 1677 1652 1668 1611 1615 1642 1710 1582 1634 1635 1696 1620 1676 1663 1691 1667 1693 1590 1639 1708 1604 1619 1599 1584 1660 1706 1710 1617 1706 1667 1677 1697 1739 1663 1606 1688 1764 1672 1696 1708 1786 1772 1802 1756 1849 1896 1907 1864 2026 1954 1912 2065 1933 1932 1984 1931 1899 2054 1918 1920 1952 2067 1904 2046 1943 1935 1930 1836 1885 1922 1914 1915 1919 1798 1852 1848 1861 1885 1793 1812 1765 1811 1762 1791 1731 1782 1770 1867 1874 1748 1738 1710 1712 1742 1760 1770 1653 1686 1815 1740 1716 1773 1690 1664 1651 1721 1708 1660 1725 1649 1676 1619 1666 1674 1632 1705 1688 1625 1651 1644 1664 1657 1581 1677 1572 1749 1692 1613 1683 1596 1691 1616 1656 1606 1602 1609 1660 1658 1637 1644 1680 1631 1603 1663 1531 1662 1645 1661 1588 1583 1675 1639 1624 1638 1681 1742 1619 1610 1591 1622 1652 1620 1583 1579 1631 1700 1613 1658 1665 1600 1701 1622 1618 1613 1718 1624 1585 1715 1659 1645 1625 1634 1633 1603 1620 1650 1665 1664 1595 1661 1616 1625 1692 1532 1691 1655 1664 1645 1608 1623 1667 1590 1656 1626 1671 1632 1671 1576 1641 1583 1691 1607 1599 1597 1583 1574 1585 1596 1580 1625 1594 1604 1584 1581 1626 1562 1561 1596 1573 1674 1582 1567 1659 1512 1642 1620 1547 1532 1653 1502 1560 1609 1591 1643 1557 1596 1586 1589 1693 1574 1612 1605 1555 1583 1514 1639 1595 1631 1640 1599 1556 1593 1562 1585 1568 1675 1623 1588 1613 1547 1577 1575 1627 1606 1615 1642 1645 1587 1630 1566 1620 1585 1561 1584 1548 1496 1571 1590 1654 1596 1655 1616 1608 1627 1550 1541 1630 1665 1640 1587 1608 1579 1629 1657 1594 1542 1650 1685 1581 1622 1588 1604 1532 1576 1567 1559 1592 1660 1607 1606 1543 1667 1649 1578 1654 1601 1680 1557 1647 1602 1574 1533 1642 1564 1559 1572 1589 1650 1625 1609 1611 1603 1618 1596 1535 1563 1620 1574 1676 1588 1592 1570 1541 1604 1581 1562 1576 1580 1587 1588 1681 1603 1633 1642 1541 1585 1544 1615 1645 1618 1610 1658 1614 1655 1583 1542 1638 1538 1621 1587 1562 1601 1602 1509 1614 1536 1563 1535 1552 1640 1614 1554 1657 1632 1623 1653 1600 1595 1541 1600 1614 1562 1531 1609 1542 1641 1596 1608 1630 1595 1605 1583 1561 1534 1719 1551 1544 1660 1674 1599 1622 1555 1586 1590 1623 1581 1551 1609 1553 1537 1617 1563 1544 1618 1594 1505 1615 1574 1618 1542 1569 1637 1585 1597 1546 1609 1569 1539 1558 1556 1537 1643 1585 1641 1602 1528 1564 1630 1593 1622 1667 1645 1579 1586 1516 1621 1566 1610 1545 1557 1574 1579 1599 1622 1587 1676 1635 1653 1568 1541 1601 1586 1606 1567 1609 1599 1558 1511 1595 1590 1612 1517 1540 1592 1602 1572 1625 1615 1591 1595 1646 1533 1567 1587 1638 1554 1595 1623 1614 1632 1544 1563 1579 1584 1648 1596 1615 1669 1591 1585 1638 1597 1613 1675 1642 1646 1632 1703 1544 1580 1570 1563 1624 1568 1595 1552 1697 1559 1636 1550 1618 1616 1650 1684 1611 1557 1532 1573 1580 1557 1536 1598 1589 1580 1611 1556 1555 1519 1590 1558 1561 1520 1509 1581 1546 1534 1643 1598 1598 1599 1581 1601 1523 1651 1580 1544 1518 1512 1577 1598 1545 1527 1622 1590 1548 1623 1568 1613 1617 1565 1574 1636 1613 1602 1572 1606 1533 1505 1573 1459 1537 1515 1637 1531 1560 1689 1635 1603 1691 1615 1637 1682 1665 1672 1702 1727 1649 1595 1729 1748 1697 1646 1676 1663 1642 1660 1678 1617 1625 1605 1648 1683 1697 1682 1604 1661 1655 1636 1692 1621 1639 1616 1671 1617 1603 1611 1597 1688 1640 1589 1608 1594 1646 1587 1599 1606 1582 1629 1692 1691 1615 1670 1647 1709 1689 1604 1572 1602 1664 1600 1651 1643 1733 1707 1733 1696 1768 1667 1727 1857 1855 1834 1887 1789 1901 1885 1864 1893 1877 1914 1857 1871 1913 1856 1871 1810 1863 1925 1904 1869 1885 1870 1867 1762 1866 1816 1762 1771 1773 1843 1772 1820 1743 1783 1753 1744 1787 1853 1695 1804 1766 1771 1747 1787 1746 1830 1699 1790 1723 1760 1780 1785 1795 1831 1721 1786 1796 1643 1699 1731 1742 1714 1785 1768 1721 1764 1707 1669 1711 1737 1757 1673 1696 1659 1699 1706 1641 1710 1699 1624 1693 1587 1639 1668 1606 1619 1606 1668 1573 1586 1609 1635 1548 1584 1597 1622 1587 1624 1587 1635 1620 1657 1605 1601 1520 1536 1495 1618 1605 1584 1563 1484 1570 1537 1524 1598 1620 1569 1563 1637 1550 1579 1532 1604 1559 1544 1524 1549 1595 1574 1532 1586 1598 1586 1567 1518 1645 1579 1624 1536 1543 1521 1574 1552 1487 1529 1569 1616 1589 1484 1632 1646 1609 1629 1561 1606 1550 1546 1550 1559 1560 1535 1591 1489 1528 1583 1597 1560 1538 1565 1660 1549 1649 1616 1540 1566 1551 1546 1545 1569 1555 1598 1569 1566 1526 1533 1580 1590 1608 1634 1573 1548 1649 1592 1626 1533 1596 1542 1562 1569 1552 1570 1537 1581 1555 1604 1549 1589 1508 1570 1557 1581 1633 1591 1631 1619 1601 1567 1570 1609 1600 1580 1569 1542 1542 1616 1582 1541 1594 1589 1612 1590 1540 1591 1599 1611 1592 1621 1667 1654 1669 1606 1607 1651 1561 1712 1597 1631 1608 1644 1619 1671 1668 1680 1636 1685 1715 1653 1759 1842 1791 1776 1913 1897 2018 2003 2147 2151 2336 2308 2530 2466 2440 2607 2533 2529 2456 2564 2535 2560 2585 2556 2546 2522 2495 2500 2399 2398 2333 2425 2359 2324 2311 2377 2315 2308 2257 2271 2001 2140 1994 2095 2099 2007 2064 1926 1943 1968 1983 1942 1945 1897 1880 1897 1846 1852 1879 1954 1814 1828 1961 1816 1893 1864 1845 1920 1872 1727 1851 1802 1763 1747 1825 1709 1768 1777 1805 1690 1813 1748 1692 1732 1665 1680 1702 1698 1706 1658 1699 1659 1640 1710 1684 1610 1588 1635 1649 1609 1694 1651 1612 1599 1611 1655 1616 1619 1595 1561 1571 1628 1643 1602 1653 1615 1577 1631 1599 1495 1556 1627 1609 1581 1527 1564 1649 1540 1559 1542 1539 1581 1555 1545 1540 1585 1527 1613 1583 1521 1621 1558 1593 1595 1496 1577 1597 1586 1529 1576 1546 1510 1505 1526 1571 1570 1611 1557 1500 1548 1558 1484 1551 1586 1504 1545 1516 1573 1598 1548 1594 1525 1469 1584 1516 1619 1530 1552 1575 1579 1556 1545 1611 1578 1577 1554 1553 1588 1621 1550 1592 1574 1677 1565 1541 1559 1592 1521 1621 1725 1612 1673 1581 1699 1677 1751 1739 1741 1689 1778 1704 1709 1786 1757 1691 1671 1781 1778 1759 1737 1729 1797 1702 1796 1748 1642 1708 1716 1765 1657 1752 1656 1682 1712 1679 1665 1635 1635 1694 1733 1660 1605 1656 1676 1620 1628 1636 1622 1576 1700 1589 1669 1624 1699 1656 1597 1556 1527 1626 1589 1589 1588 1672 1592 1633 1576 1598 1579 1565 1613 1636 1615 1630 1641 1614 1577 1473 1591 1576 1598 1493 1603 1615 1562 1551 1514 1552 1567 1668 1595 1525 1515 1582 1538 1626 1494 1531 1500 1596 1539 1516 1623 1525 1548 1530 1525 1564 1578 1596 1540 1569 1545 1577 1580 1584 1534 1576 1519 1555 1615 1574 1609 1558 1545 1605 1540 1618 1557 1590 1626 1611 1540 1550 1589 1541 1584 1577 1533 1603 1507 1494 1547 1564 1546 1525 1591 1596 1594 1554 1546 1548 1519 1512 1546 1560 1516 1520 1578 1522 1481 1524 1599 1528 1501 1499 1595 1539 1586 1507 1597 1499 1484 1492 1564 1518 1564 1602 1548 1496 1523 1570 1540 1570 1547 1503 1541 1524 1594 1562 1494 1543 1445 1487 1539 1546 1567 1544 1507 1589 1518 1515 1572 1522 1574 1565 1570 1432 1483 1479 1498 1550 1553 1641 1556 1545 1455 1556 1534 1538 1550 1580 1511 1574 1503 1535 1573 1520 1550 1544 1518 1569 1542 1508 1542 1495 1542 1543 1507 1582 1544 1537 1537 1546 1545 1592 1561 1526 1497 1558 1553 1517 1553 1490 1564 1576 1523 1548 1522 1598 1555 1471 1474 1525 1533 1603 1459 1549 1583 1491 1540 1557 1546 1474 1532 1495 1546 1503 1583 1581 1658 1612 1549 1535 1564 1514 1518 1514 1539 1571 1583 1582 1563 1636 1508 1478 1488 1600 1468 1537 1537 1523 1497 1564 1581 1453 1520 1552 1516 1502 1555 1537 1592 1596 1555 1562 1585 1511 1528 1583 1531 1465 1543 1531 1544 1650 1516 1554 1514 1560 1538 1498 1535 1597 1492 1523 1483 1546 1531 1538 1533 1532 1554 1562 1487 1537 1509 1512 1623 1538 1486 1505 1554 1517 1522 1507 1537 1526 1546 1528 1544 1515 1638 1511 1510 1557 1502 1572 1543 1527 1561 1514 1576 1514 1559 1567 1564 1543 1607 1548 1513 1630 1526 1564 1584 1616 1579 1532 1606 1627 1585 1529 1575 1535 1490 1539 1455 1513 1548 1507 1528 1515 1561 1566 1558 1578 1508 1489 1494 1529 1505 1598 1505 1563 1519 1545 1609 1552 1565 1557 1612 1591 1557 1474 1528 1524 1560 1478 1500 1520 1499 1519 1598 1538 1541 1578 1492 1549 1476 1581 1590 1573 1550 1557 1520 1510 1569 1507 1561 1490 1544 1559 1529 1589 1564 1523 1559 1552 1486 1557 1520 1505 1553 1484 1603 1511 1579 1603 1528 1551 1476 1579 1597 1561 1562 1583 1488 1546 1539 1516 1519 1546 1541 1573 1542 1486 1494 1513 1597 1529 1503 1584 1544 1579 1465 1501 1571 1554 1464 1577 1578 1582 1574 1564 1549 1482 1574 1564 1605 1557 1542 1649 1555 1586 1615 1689 1625 1706 1696 1710 1663 1617 1637 1564 1663 1700 1651 1639 1633 1691 1669 1697 1641 1622 1635 1638 1695 1649 1683 1617 1684 1669 1612 1610 1614 1580 1560 1640 1643 1567 1532 1569 1545 1559 1600 1564 1596 1593 1627 1504 1536 1605 1549 1597 1636 1591 1590 1540 1595 1541 1565 1547 1601 1589 1632 1506 1499 1526 1609 1641 1515 1573 1579 1565 1548 1527 1558 1490 1579 1585 1621 1583 1522 1589 1546 1535 1586 1527 1544 1520 1499 1521 1483 1564 1514 1526 1450 1509 1546 1446 1589 1455 1582 1476 1565 1520 1559 1504 1565 1511 1521 1529 1556 1517 1548 1483 1491 1530 1575 1570 1528 1564 1548 1499 1517 1566 1521 1545 1541 1587 1488 1547 1535 1522 1586 1436 1459 1541 1543 1531 1534 1525 1543 1536 1523 1616 1451 1594 1512 1510 1521 1571 1545 1490 1483 1576 1503 1528 1442 1581 1501 1499 1505 1528 1481 1552 1453 1493 1503 1551 1482 1555 1559 1456 1530 1505 1492 1556 1536 1507 1468 1518 1461 1475 1571 1577 1508 1504 1534 1500 1547 1479 1507 1450 1526 1540 1552 1533 1527 1528 1535 1548 1569 1515 1513 1544 1500 1484 1536 1596 1511 1462 1594 1512 1513 1497 1520 1470 1567 1546 1485 1530 1499 1445 1534 1547 1483 1548 1521 1505 1531 1556 1519 1540 1597 1488 1591 1534 1525 1470 1470 1536 1536 1499 1510 1600 1570 1533 1541 1526 1605 1518 1497 1508 1535 1515 1555 1608 1543 1500 1542 1551 1473 1502 1524 1525 1483 1541 1489 1528 1480 1548 1543 1572 1500 1525 1535 1526 1557 1527 1508 1527 1462 1517 1535 1535 1508 1598 1524 1495 1567 1501 1510 1547 1513 1583 1609 1597 1542 1550 1650 1563 1653 1561 1624 1730 1686 1683 1693 1730 1713 1705 1717 1773 1771 1711 1740 1759 1764 1714 1764 1666 1746 1782 1725 1727 1749 1718 1785 1726 1709 1731 1679 1685 1704 1705 1627 1710 1684 1745 1673 1706 1636 1608 1621 1596 1617 1567 1646 1620 1635 1658 1725 1659 1624 1616 1554 1627 1544 1607 1596 1575 1546 1542 1600 1597 1639 1572 1534 1596 1535 1619 1592 1605 1557 1611 1569 1588 1602 1578 1611 1630 1574 1576 1573 1605 1670 1549 1656 1580 1568 1537 1572 1554 1569 1637 1542 1561 1558 1573 1578 1529 1562 1534 1580 1554 1600 1569 1539 1614 1521 1566 1583 1502 1541 1494 1604 1516 1492 1498 1612 1590 1542 1589 1505 1588 1516 1491 1512 1506 1402 1541 1533 1493 1517 1487 1533 1515 1542 1541 1475 1531 1545 1501 1523 1571 1560 1493 1481 1520 1559 1515 1516 1544 1526 1576 1562 1538 1533 1508 1513 1501 1501 1486 1469 1456 1532 1623 1557 1574 1448 1535 1551 1489 1543 1516 1557 1507 1506 1614 1497 1494 1570 1517 1545 1499 1558 1514 1615 1508 1521 1513 1570 1535 1536 1499 1613 1462 1514 1497 1501 1551 1533 1502 1578 1523 1569 1525 1620 1470 1561 1555 1510 1531 1563 1450 1489 1529 1502 1550 1472 1604 1509 1580 1515 1533 1511 1484 1515 1529 1454 1489 1540 1607 1510 1546 1521 1509 1520 1492 1485 1488 1550 1534 1571 1502 1450 1526 1470 1489 1521 1557 1472 1614 1480 1543 1591 1552 1541 1500 1606 1579 1519 1474 1539 1520 1502 1530 1515 1508 1516 1578 1532 1533 1555 1557 1525 1522 1494 1534 1505 1448 1476 1561 1611 1539 1515 1528 1593 1562 1500 1560 1406 1525 1480 1527 1483 1539 1539 1552 1498 1511 1500 1544 1464 1540 1480 1499 1564 1597 1475 1508 1552 1562 1530 1530 1476 1548 1527 1543 1568 1479 1525 1588 1588 1506 1503 1548 1552 1544 1542 1508 1544 1571 1534 1524 1532 1452 1512 1488 1504 1501 1474 1540 1566 1551 1540 1491 1509 1463 1536 1468 1600 1522 1530 1571 1515 1528 1483 1459 1535 1531 1430 1535 1550 1548 1477 1496 1584 1516 1490 1545 1457 1491 1557 1462 1566 1539 1572 1515 1521 1505 1481 1486 1510 1481 1590 1491 1568 1553 1476 1527 1523 1526 1515 1502 1492 1552 1519 1569 1527 1458 1492 1555 1557 1440 1483 1529 1498 1535 1516 1570 1487 1544 1541 1491 1520 1474 1543 1524 1490 1554 1550 1513 1519 1584 1538 1512 1579 1512 1476 1498 1515 1553 1544 1462 1550 1501 1539 1474 1520 1517 1464 1487 1466 1481 1551 1542 1522 1477 1552 1475 1486 1604 1523 1566 1565 1497 1515 1466 1483 1539 1463 1484 1491 1509 1507 1487 1467 1497 1482 1531 1558 1532 1567 1566 1507 1577 1551 1501 1548 1558 1572 1559 1568 1480 1540 1555 1541 1556 1553 1511 1488 1524 1529 1524 1588 1436 1507 1477 1590 1498 1561 1531 1510 1500 1564 1471 1524 1517 1495 1507 1548 1495 1482 1514 1547 1523 1477 1558 1495 1511 1522 1623 1467 1537 1559 1520 1528 1492 1485 1539 1550 1486 1551 1515 1571 1509 1485 1521 1488 1505 1541 1552 1526 1548 1525 1549 1457 1525 1502 1502 1513 1499 1567 1523 1518 1506 1540 1436 1512 1558 1553 1583 1526 1511 1546 1519 1526 1525 1534 1503 1476 1530 1471 1513 1437 1537 1534 1441 1473 1593 1539 1603 1587 1574 1524 1596 1458 1567 1486 1513 1502 1558 1504 1487 1529 1458 1570 1581 1535 1537 1586 1500 1551 1536 1519 1564 1485 1607 1521 1554 1496 1535 1520 1519 1508 1487 1518 1523 1525 1567 1529 1571 1535 1531 1516 1494 1521 1563 1527 1571 1517 1508 1576 1573 1585 1509 1521 1589 1550 1529 1517 1473 1521 1588 1521 1646 1559 1605 1527 1477 1506 1541 1529 1508 1525 1585 1545 1543 1539 1559 1533 1587 1625 1558 1622 1649 1644 1571 1603 1622 1590 1655 1646 1618 1607 1609 1547 1581 1544 1545 1620 1676 1537 1626 1625 1640 1584 1557 1615 1574 1627 1555 1628 1561 1575 1586 1577 1550 1572 1610 1581 1579 1594 1536 1587 1614 1615 1590 1511 1620 1528 1524 1637 1528 1626 1548 1577 1603 1515 1580 1577 1606 1603 1604 1638 1676 1645 1664 1630 1637 1666 1659 1592 1631 1629 1601 1623 1633 1568 1686 1653 1651 1551 1679 1617 1517 1588 1578 1595 1599 1615 1602 1544 1606 1601 1606 1593 1628 1603 1672 1572 1614 1559 1596 1555 1562 1635 1609 1581 1531 1595 1517 1546 1578 1513 1549 1577 1662 1558 1605 1591 1632 1559 1579 1584 1646 1622 1610 1608 1517 1600 1612 1587 1562 1569 1569 1578 1637 1643 1564 1530 1545 1576 1650 1601 1564 1588 1613 1484 1555 1572 1615 1557 1639 1574 1640 1590 1592 1607 1592 1490 1504 1503 1567 1575 1584 1519 1472 1544 1540 1508 1501 1591 1550 1484 1526 1552 1527 1610 1504 1522 1619 1549 1524 1499 1475 1567 1527 1517 1478 1550 1566 1525 1445 1581 1618 1535 1512 1566 1452 1488 1592 1458 1476 1541 1548 1517 1557 1502 1516 1514 1469 1498 1498 1613 1533 1567 1489 1507 1546 1551 1563 1554 1544 1551 1547 1511 1614 1535 1636 1523 1571 1501 1554 1527 1479 1518 1621 1575 1470 1569 1523 1573 1474 1510 1548 1623 1536 1517 1521 1493 1545 1533 1619 1630 1571 1558 1547 1658 1537 1568 1605 1615 1569 1596 1560 1574 1601 1524 1558 1555 1643 1607 1561 1620 1584 1596 1695 1577 1655 1650 1660 1695 1655 1602 1549 1661 1682 1722 1755 1741 1772 1818 1847 1787 1830 1889 1917 1960 1884 1975 2093 2047 2007 2026 2002 2011 2026 2007 2063 1929 1978 1946 2007 1886 2014 1984 1871 1963 1989 1926 1919 1963 1981 1978 1928 1994 2012 1857 1963 1860 1832 1799 1843 1874 1779 1867 1849 1832 1761 1828 1699 1788 1809 1563 1761 1746 1786 1708 1730 1677 1727 1648 1736 1642 1649 1662 1647 1649 1668 1696 1711 1692 1678 1695 1704 1639 1622 1669 1634 1604 1688 1702 1733 1690 1628 1721 1662 1636 1689 1746 1658 1723 1693 1665 1666 1654 1725 1571 1672 1684 1659 1589 1606 1625 1620 1592 1666 1631 1683 1619 1677 1571 1619 1697 1594 1601 1687 1616 1532 1575 1594 1551 1549 1629 1595 1596 1559 1579 1516 1636 1531 1578 1586 1509 1598 1575 1563 1558 1581 1581 1562 1537 1518 1563 1597 1570 1532 1599 1587 1561 1549 1504 1540 1523 1569 1517 1624 1548 1579 1520 1512 1522 1551 1530 1487 1512 1569 1484 1536 1537 1583 1573 1634 1584 1555 1543 1563 1561 1589 1536 1517 1528 1556 1584 1579 1500 1610 1519 1640 1576 1622 1594 1584 1618 1649 1595 1539 1568 1572 1585 1621 1569 1621 1621 1524 1573 1574 1596 1578 1659 1557 1568 1565 1562 1559 1526 1627 1589 1534 1578 1537 1508 1540 1590 1549 1577 1508 1540 1568 1569 1500 1582 1620 1530 1529 1549 1494 1559 1577 1524 1530 1544 1548 1491 1559 1602 1494 1535 1539 1569 1495 1523 1566 1506 1531 1550 1600 1557 1551 1572 1579 1519 1568 1515 1553 1530 1549 1554 1518 1602 1569 1541 1493 1542 1540 1536 1612 1569 1480 1561 1534 1557 1567 1469 1565 1466 1538 1568 1634 1610 1513 1519 1464 1534 1503 1535 1535 1553 1485 1487 1466 1498 1427 1524 1582 1502 1598 1486 1525 1485 1570 1468 1567 1575 1558 1559 1552 1560 1549 1488 1533 1504 1531 1528 1569 1518 1524 1496 1570 1568 1516 1530 1535 1551 1556 1626 1547 1553 1579 1512 1501 1541 1630 1558 1594 1506 1491 1526 1443 1444 1597 1559 1588 1448 1528 1536 1570 1462 1496 1526 1482 1532 1518 1518 1489 1504 1460 1443 1569 1471 1558 1491 1498 1562 1565 1536 1611 1550 1556 1558 1573 1523 1445 1556 1505 1531 1520 1452 1483 1549 1495 1525 1522 1517 1541 1541 1430 1532 1581 1535 1528 1470 1493 1511 1576 1520 1502 1542 1502 1511 1511 1531 1492 1507 1513 1547 1531 1511 1523 1487 1532 1616 1508 1575 1499 1527 1542 1530 1553 1465 1518 1540 1511 1473 1496 1436 1552 1642 1550 1401 1554 1487 1481 1580 1484 1483 1471 1543 1532 1466 1511 1527 1482 1497 1529 1508 1592 1510 1485 1466 1575 1521 1469 1548 1500 1496 1597 1507 1553 1553 1516 1519 1576 1504 1532 1468 1493 1541 1539 1540 1512 1496 1505 1485 1575 1521 1409 1527 1534 1490 1558 1459 1564 1485 1550 1518 1571 1554 1470 1582 1465 1509 1534 1489 1601 1538 1504 1594 1593 1491 1532 1495 1482 1486 1478 1489 1501 1500 1465 1476 1548 1573 1523 1527 1476 1591 1470 1568 1550 1484 1580 1524 1536 1493 1599 1520 1610 1522 1479 1489 1554 1538 1524 1549 1511 1448 1540 1426 1518 1507 1524 1488 1534 1539 1546 1446 1616 1474 1476 1556 1539 1511 1487 1517 1590 1494 1546 1521 1545 1550 1492 1591 1591 1497 1511 1478 1490 1478 1503 1533 1463 1520 1527 1491 1523 1527 1521 1515 1537 1514 1517 1524 1513 1566 1493 1506 1513 1538 1568 1531 1525 1530 1586 1526 1530 1441 1477 1501 1617 1557 1471 1557 1559 1556 1566 1527 1538 1564 1553 1519 1455 1638 1556 1480 1499 1520 1555 1594 1463 1553 1591 1547 1593 1640 1608 1561 1559 1607 1610 1484 1552 1601 1641 1551 1608 1600 1556 1573 1535 1597 1635 1656 1619 1606 1581 1578 1597 1594 1557 1572 1565 1464 1579 1613 1493 1572 1593 1514 1585 1576 1532 1635 1592 1583 1543 1554 1523 1632 1640 1600 1599 1642 1610 1604 1517 1546 1561 1476 1514 1640 1579 1548 1588 1548 1547 1592 1548 1495 1514 1517 1445 1497 1513 1506 1474 1527 1532 1474 1615 1531 1574 1537 1551 1619 1502 1549 1483 1472 1530 1472 1512 1564 1537 1601 1557 1477 1530 1524 1587 1476 1508 1558 1545 1491 1521 1496 1547 1621 1531 1518 1487 1503 1551 1500 1536 1571 1519 1551 1513 1529 1547 1543 1527 1492 1513 1531 1550 1526 1548 1488 1569 1603 1430 1592 1526 1512 1486 1486 1506 1437 1545 1498 1501 1509 1453 1528 1552 1526 1472 1503 1516 1553 1566 1568 1535 1445 1495 1513 1553 1520 1583 1532 1556 1545 1510 1480 1540 1463 1539 1527 1553 1516 1565 1525 1612 1527 1567 1633 1588 1559 1536 1468 1578 1543 1484 1572 1575 1567 1556 1515 1539 1516 1510 1514 1570 1440 1437 1525 1564 1554 1489 1618 1465 1528 1522 1519 1485 1517 1531 1568 1529 1590 1489 1515 1459 1502 1482 1533 1488 1534 1469 1498 1488 1522 1549 1527 1509 1507 1582 1499 1534 1529 1523 1523 1562 1522 1475 1500 1547 1551 1547 1594 1484 1540 1487 1563 1557 1487 1579 1458 1519 1557 1489 1505 1441 1534 1516 1476 1556 1560 1512 1525 1521 1538 1566 1504 1580 1521 1619 1616 1491 1514 1520 1599 1524 1595 1576 1553 1564 1551 1573 1469 1538 1573 1540 1627 1609 1611 1568 1617 1646 1608 1619 1643 1527 1573 1632 1679 1696 1707 1745 1684 1792 1757 1737 1717 1895 1890 1854 1927 1927 1896 1850 1980 1897 1925 1912 1885 1872 1909 1892 1865 1915 1966 1871 1909 1796 1839 1762 1895 1856 1847 1840 1876 1912 1792 1852 1811 1873 1858 1843 1918 1845 1741 1884 1859 1843 1850 1761 1805 1766 1807 1749 1730 1711 1718 1672 1610 1715 1693 1726 1699 1730 1691 1669 1602 1618 1646 1640 1596 1594 1593 1669 1562 1641 1625 1608 1614 1641 1623 1601 1592 1601 1643 1650 1587 1590 1655 1607 1593 1643 1621 1651 1634 1666 1672 1655 1566 1764 1554 1587 1646 1638 1708 1603 1616 1625 1601 1657 1519 1600 1531 1617 1624 1585 1636 1560 1616 1615 1593 1651 1587 1709 1618 1575 1585 1589 1596 1619 1532 1490 1567 1614 1537 1554 1591 1546 1566 1641 1610 1541 1603 1588 1561 1488 1486 1540 1568 1591 1576 1631 1601 1473 1632 1580 1505 1560 1548 1556 1556 1533 1517 1589 1549 1539 1476 1579 1490 1518 1555 1597 1599 1531 1625 1501 1505 1526 1523 1499 1530 1504 1568 1585 1602 1596 1553 1535 1583 1582 1506 1509 1559 1525 1517 1548 1540 1567 1559 1571 1528 1561 1561 1609 1540 1595 1598 1550 1561 1560 1565 1510 1533 1535 1590 1578 1542 1507 1626 1485 1648 1551 1581 1592 1509 1552 1583 1544 1500 1477 1547 1530 1484 1570 1632 1519 1544 1570 1477 1509 1538 1555 1504 1520 1549 1549 1571 1563 1484 1529 1547 1567 1525 1528 1476 1520 1535 1556 1510 1487 1543 1499 1508 1523 1450 1535 1565 1593 1512 1543 1452 1578 1498 1490 1488 1523 1441 1560 1510 1557 1573 1470 1492 1519 1562 1532 1598 1502 1533 1524 1579 1445 1563 1565 1498 1519 1566 1561 1552 1529 1516 1497 1484 1482 1547 1531 1576 1558 1538 1519 1677 1492 1490 1571 1499 1507 1565 1495 1448 1447 1577 1653 1538 1518 1529 1512 1504 1565 1530 1525 1458 1571 1520 1552 1501 1484 1516 1579 1469 1528 1580 1504 1515 1520 1560 1502 1484 1524 1461 1528 1546 1474 1528 1476 1502 1555 1512 1571 1503 1534 1509 1562 1555 1550 1522 1539 1559 1524 1487 1535 1529 1503 1497 1475 1514 1450 1500 1484 1520 1578 1537 1529 1510 1539 1480 1506 1558 1487 1493 1474 1520 1536 1559 1522 1543 1534 1466 1621 1516 1518 1547 1575 1506 1531 1475 1570 1527 1544 1530 1510 1496 1507 1475 1438 1520 1520 1491 1469 1582 1519 1557 1578 1519 1520 1544 1502 1500 1499 1578 1509 1552 1514 1448 1513 1450 1473 1520 1505 1514 1452 1519 1488 1603 1472 1508 1443 1492 1485 1523 1496 1453 1505 1538 1481 1508 1515 1526 1597 1493 1537 1532 1543 1503 1550 1487 1505 1511 1458 1457 1537 1522 1494 1524 1564 1528 1517 1468 1555 1518 1547 1519 1482 1599 1573 1495 1458 1557 1549 1524 1580 1546 1512 1503 1565 1513 1484 1492 1545 1598 1523 1515 1470 1480 1494 1494 1480 1559 1562 1518 1511 1484 1459 1480 1497 1600 1525 1495 1520 1545 1521 1473 1552 1493 1477 1567 1436 1468 1512 1497 1551 1529 1468 1433 1509 1483 1539 1530 1563 1480 1459 1492 1536 1433 1476 1476 1506 1530 1466 1459 1542 1475 1483 1478 1491 1499 1536 1527 1505 1501 1480 1576 1536 1538 1559 1553 1529 1523 1599 1566 1495 1545 1538 1516 1571 1540 1478 1558 1531 1547 1509 1464 1488 1572 1520 1564 1566 1481 1475 1496 1595 1575 1643 1540 1501 1538 1587 1553 1495 1542 1461 1547 1525 1546 1562 1563 1519 1488 1532 1528 1454 1495 1570 1474 1515 1473 1611 1537 1517 1391 1505 1575 1575 1463 1481 1517 1565 1529 1520 1596 1576 1516 1535 1534 1554 1494 1420 1553 1494</counts>
			</dataPoints>
		</scan>
	</xrdMeasurement>
</xrdMeasurements>
