<?xml version="1.0"?>
<xrdMeasurements xmlns="http://www.xrdml.com/XRDMeasurement/2.3" xmlns:xsi="http://www.w3.org/2001/XMLSchema-instance" xsi:schemaLocation="http://www.xrdml.com/XRDMeasurement/2.3 http://www.xrdml.com/XRDMeasurement/2.3/XRDMeasurement.xsd" status="Completed" recordIdentifier="{E6EBEEEC-1F13-471E-B3F2-B9CE31C2047F}">
	<comment>
		<entry/>
	</comment>
	<sample type="To be analyzed">
		<id>GPSS_Li1p8Zn0p55Mg0p55Cl4_121825_6943d914f4d05ae3d69790c3</id>
		<name></name>
		<preparedBy></preparedBy>
	</sample>
	<xrdMeasurement measurementType="Scan" status="Completed" sampleMode="Reflection">
		<usedWavelength intended="K-Alpha 1">
			<kAlpha1 unit="Angstrom">1.5405980</kAlpha1>
			<kAlpha2 unit="Angstrom">1.5444260</kAlpha2>
			<kBeta unit="Angstrom">1.3922500</kBeta>
			<ratioKAlpha2KAlpha1>0.5000</ratioKAlpha2KAlpha1>
		</usedWavelength>
		<incidentBeamPath>
			<radius unit="mm">145.00</radius>
			<xRayTube id="1010048" name="Empyrean Cu LFF HR (9430 033 7310x)">
				<tension unit="kV">40.0</tension>
				<current unit="mA">15.0</current>
				<anodeMaterial>Cu</anodeMaterial>
				<focus type="Line">
					<length unit="mm">12.0</length>
					<width unit="mm">0.4</width>
					<takeOffAngle unit="deg">6.0</takeOffAngle>
				</focus>
			</xRayTube>
			<sollerSlit id="21010002" name="Soller slits 0.04 rad.">
				<opening unit="rad">0.0400</opening>
			</sollerSlit>
			<mask id="22031000" name="Fixed mask 13 mm">
				<width unit="mm">9.00</width>
			</mask>
			<divergenceSlit id="22120001" name="Divergence slit 1°" xsi:type="fixedDivergenceSlitType">
				<distanceToSample unit="mm">50.00</distanceToSample>
				<height unit="mm">1.52</height>
			</divergenceSlit>
		</incidentBeamPath>
		<sampleMovement xsi:type="spinningSampleMovementType">
			<spinnerRevolutionTime unit="seconds">1.0</spinnerRevolutionTime>
		</sampleMovement>
		<diffractedBeamPath>
			<radius unit="mm">145.00</radius>
			<antiScatterSlit id="22090040" name="AS slit 9 mm (PIXcel)" xsi:type="fixedAntiScatterSlitType">
				<height unit="mm">9.00</height>
			</antiScatterSlit>
			<sollerSlit id="21020003" name="Large Soller slits 0.04 rad.">
				<opening unit="rad">0.0400</opening>
			</sollerSlit>
			<filter id="20030001" name="Large beta-filter Nickel">
				<material>Ni</material>
				<thickness unit="mm">0.020</thickness>
			</filter>
			<detector id="7010019" name="PIXcel1D-Medipix3 detector" xsi:type="rtmsDetectorType">
				<phd unit="keV">
					<lowerLevel>4.02</lowerLevel>
					<upperLevel>11.27</upperLevel>
				</phd>
				<mode>Scanning</mode>
				<activeLength unit="deg">5.542</activeLength>
			</detector>
		</diffractedBeamPath>
		<scan appendNumber="0" mode="Continuous" scanAxis="Gonio" status="Completed">
			<header>
				<startTimeStamp>2025-12-22T13:03:27-08:00</startTimeStamp>
				<endTimeStamp>2025-12-22T13:11:34-08:00</endTimeStamp>
				<author>
					<name>AutomatedUser</name>
				</author>
				<source>
					<applicationSoftware version="1.7b (136)">PANalytical Aeris Instrument Suite</applicationSoftware>
					<instrumentControlSoftware version="3.2.00000000 20240306">AERIS</instrumentControlSoftware>
					<instrumentID>950485</instrumentID>
				</source>
			</header>
			<dataPoints>
				<positions axis="2Theta" unit="deg">
					<startPosition>10.00943322</startPosition>
					<endPosition>99.99442286</endPosition>
				</positions>
				<positions axis="Omega" unit="deg">
					<startPosition>5.00471661</startPosition>
					<endPosition>49.99721143</endPosition>
				</positions>
				<commonCountingTime unit="seconds">12.495</commonCountingTime>
				<counts unit="counts">2678 2687 2660 2760 2710 2746 2640 2748 2648 2645 2707 2708 2791 2700 2718 2705 2771 2594 2661 2600 2643 2710 2670 2633 2672 2565 2695 2720 2538 2749 2592 2595 2620 2663 2572 2603 2698 2585 2650 2640 2591 2655 2574 2653 2678 2679 2673 2584 2654 2576 2642 2644 2583 2635 2619 2603 2656 2673 2625 2627 2642 2580 2638 2643 2599 2622 2747 2624 2652 2692 2655 2688 2712 2689 2628 2558 2663 2572 2656 2528 2636 2667 2501 2518 2654 2638 2636 2533 2638 2554 2616 2473 2616 2578 2590 2630 2556 2604 2650 2530 2576 2574 2735 2585 2750 2568 2643 2563 2813 2636 2704 2614 2664 2556 2623 2699 2716 2587 2636 2601 2669 2695 2598 2663 2674 2649 2733 2609 2599 2563 2584 2566 2594 2718 2703 2533 2656 2645 2763 2600 2740 2576 2627 2496 2652 2645 2597 2662 2638 2545 2616 2618 2672 2546 2687 2692 2620 2562 2678 2589 2547 2693 2636 2564 2527 2564 2607 2520 2653 2423 2708 2557 2576 2587 2569 2563 2685 2517 2640 2643 2566 2555 2614 2608 2530 2586 2594 2509 2550 2539 2579 2585 2533 2587 2622 2549 2573 2528 2597 2608 2615 2507 2602 2564 2583 2516 2517 2500 2553 2570 2562 2530 2550 2505 2550 2529 2535 2558 2503 2601 2555 2615 2520 2514 2539 2496 2443 2502 2446 2446 2518 2640 2483 2482 2505 2554 2600 2427 2474 2559 2454 2520 2467 2450 2489 2386 2642 2458 2546 2441 2475 2516 2454 2446 2466 2437 2479 2434 2483 2537 2520 2477 2463 2515 2408 2577 2404 2528 2495 2416 2444 2477 2461 2495 2478 2501 2569 2526 2602 2441 2567 2394 2492 2556 2553 2519 2478 2522 2459 2432 2536 2445 2543 2470 2573 2417 2518 2523 2501 2564 2511 2503 2469 2526 2546 2604 2507 2611 2572 2607 2675 2641 2601 2653 2560 2675 2578 2544 2481 2516 2580 2652 2604 2610 2572 2634 2574 2629 2582 2632 2564 2580 2632 2716 2559 2677 2723 2681 2774 2709 2702 2673 2733 2751 2742 2619 2644 2728 2606 2760 2787 2764 2621 2641 2654 2620 2716 2699 2714 2622 2741 2611 2784 2745 2656 2738 2683 2762 2734 2669 2713 2744 2728 2698 2796 2759 2703 2692 2741 2844 2859 2834 2867 2858 2829 2830 2920 2808 2755 2835 2776 2887 2760 2831 2816 2819 2727 2847 2966 2849 2865 2920 2925 2904 2978 2929 3006 3007 2982 3088 3069 2969 2987 3171 3142 2966 3187 3075 3287 3250 3354 3246 3424 3311 3406 3441 3353 3503 3444 3368 3261 3412 3410 3333 3228 3292 3220 3251 3154 3178 3223 3166 3081 3122 3134 3104 3060 3109 3019 3056 3030 3134 3120 3066 3117 3034 2974 3033 2995 3046 2843 3070 2846 2938 2889 3018 2873 2954 2953 2912 2919 2741 2942 2859 2953 2953 2931 2920 2768 2736 2826 2851 2864 2790 2845 2789 2802 2814 2926 2774 2773 2787 2801 2704 2873 2817 2808 2836 2771 2932 2700 2782 2812 2830 2858 2711 2758 2731 2726 2740 2782 2766 2769 2666 2643 2756 2710 2691 2783 2705 2862 2789 2654 2751 2746 2769 2746 2728 2618 2720 2686 2717 2854 2612 2727 2618 2708 2761 2760 2817 2810 2708 2737 2696 2775 2770 2849 2764 2763 2732 2739 2926 2767 2911 2785 2827 2809 2837 2812 2891 2830 2948 2897 2917 2850 2942 2833 2860 2796 2804 2736 2810 2651 2752 2732 2549 2571 2628 2718 2613 2588 2485 2573 2657 2558 2540 2578 2579 2545 2526 2565 2588 2503 2549 2559 2543 2585 2594 2569 2561 2518 2560 2497 2558 2506 2381 2503 2440 2416 2532 2465 2375 2500 2446 2474 2502 2471 2518 2421 2538 2484 2495 2435 2466 2469 2570 2436 2428 2509 2483 2430 2414 2454 2477 2466 2430 2437 2318 2377 2435 2518 2506 2434 2563 2481 2403 2540 2454 2506 2513 2644 2641 2550 2611 2666 2668 2711 2651 2651 2656 2530 2542 2553 2532 2527 2587 2448 2417 2522 2459 2426 2481 2450 2447 2405 2389 2383 2430 2394 2395 2382 2441 2299 2342 2279 2406 2356 2419 2418 2347 2434 2350 2295 2394 2392 2332 2341 2397 2362 2313 2331 2290 2445 2451 2352 2370 2394 2373 2380 2318 2358 2401 2416 2358 2276 2353 2365 2429 2402 2357 2296 2401 2426 2383 2400 2278 2421 2415 2315 2373 2465 2380 2429 2379 2363 2464 2416 2444 2499 2579 2545 2557 2520 2557 2650 2682 2698 2725 2723 2739 2742 2808 2821 2866 2845 2773 2867 2647 2699 2687 2670 2549 2682 2658 2556 2553 2605 2546 2530 2590 2481 2559 2533 2590 2575 2611 2510 2585 2502 2601 2554 2655 2458 2464 2512 2477 2511 2597 2584 2495 2538 2514 2562 2572 2435 2529 2615 2428 2412 2391 2563 2449 2380 2471 2441 2455 2415 2285 2423 2372 2351 2243 2347 2325 2205 2301 2249 2314 2314 2387 2323 2329 2328 2247 2234 2333 2220 2198 2322 2307 2181 2268 2216 2224 2231 2262 2208 2227 2256 2171 2170 2183 2221 2214 2253 2166 2258 2245 2261 2233 2234 2104 2210 2163 2135 2215 2245 2254 2181 2160 2197 2188 2193 2180 2159 2125 2109 2058 2187 2192 2179 1968 2230 2168 2199 2185 2099 2111 2144 2115 2157 2173 2054 2103 2117 2107 2062 2123 2146 2071 2156 2074 2074 2151 2084 2196 2116 2149 2179 2105 2180 2173 2088 2231 2246 2131 2237 2220 2319 2175 2226 2213 2194 2314 2190 2262 2271 2160 2212 2288 2222 2220 2163 2168 2123 2190 2143 2201 2195 2238 2140 2215 2179 2242 2172 2160 2138 2221 2041 2174 2079 2023 2127 2130 2169 2179 2192 2073 2124 2069 2020 2005 2036 2012 2060 2060 2107 2080 2090 1906 2000 2034 2054 2054 2127 2092 1984 2022 1982 2042 2029 2050 2033 2030 2024 2060 2045 2030 2022 1996 1999 1973 2041 1949 2040 1973 1986 2053 2018 2055 2008 2038 1969 2023 2074 1943 2040 2086 1956 1959 1987 1878 1971 2011 1970 2008 1949 2029 1990 2027 1967 2008 2010 2001 1963 2029 2091 1950 1964 1961 1958 2002 1991 1994 2005 1952 2042 1968 1997 1979 1974 1949 2007 2035 2033 1966 2022 2042 1971 2062 1942 1981 1984 2036 2007 2007 2018 2003 1977 1991 1982 2076 2064 1973 1980 1967 1999 1987 2006 1987 1996 1946 2029 2003 1999 1997 1928 1984 1994 1947 2002 2061 2030 1929 2023 2038 1939 1919 1969 1973 2009 1977 1957 1978 2028 2005 1944 1982 1974 2042 2032 2012 2137 2123 2072 2045 2140 2092 2125 2167 2256 2233 2276 2264 2196 2223 2243 2295 2147 2177 2218 1969 2054 2003 2035 2112 2030 2043 2036 2047 2085 1979 1950 1995 2116 2027 2038 1984 1986 1968 1936 1938 1922 2060 1931 1968 1920 1949 1970 2017 1933 1926 1928 1998 1913 1916 1931 1872 1934 1930 1881 1942 1928 1945 1940 1859 1847 1926 1901 1889 1886 1930 1931 1863 2036 1903 1988 1970 1977 1955 1993 1985 2041 1987 2013 1969 2105 1971 1995 1995 1964 1922 1888 1877 1874 1942 1913 1852 1830 1871 1871 1803 1823 1754 1749 1867 1816 1875 1831 1809 1746 1691 1826 1751 1775 1815 1828 1819 1872 1800 1892 1775 1788 1748 1797 1915 1871 1894 1855 1901 1952 1855 1943 2028 1932 1966 1841 1798 1739 1748 1801 1770 1693 1765 1779 1749 1620 1675 1705 1706 1638 1688 1605 1657 1623 1566 1485 1662 1621 1604 1555 1535 1594 1643 1627 1694 1636 1582 1593 1543 1577 1648 1588 1616 1644 1679 1674 1679 1602 1552 1672 1631 1718 1569 1575 1600 1633 1624 1615 1611 1585 1559 1588 1528 1575 1643 1590 1629 1617 1667 1663 1700 1653 1683 1766 1750 1702 1864 1858 1757 1744 1931 1902 1834 1882 1885 1940 1905 1739 1883 1796 1827 1797 1853 1648 1631 1717 1596 1596 1593 1610 1580 1583 1482 1596 1528 1545 1540 1425 1460 1460 1482 1464 1466 1479 1414 1432 1454 1454 1370 1451 1468 1445 1468 1485 1481 1422 1519 1400 1393 1411 1467 1476 1462 1435 1414 1424 1455 1410 1459 1460 1478 1439 1361 1473 1321 1389 1325 1385 1360 1422 1378 1392 1450 1406 1419 1429 1439 1436 1448 1426 1387 1454 1446 1424 1440 1433 1432 1427 1415 1423 1464 1434 1445 1441 1400 1423 1443 1432 1403 1449 1428 1376 1502 1444 1440 1467 1443 1434 1427 1460 1328 1394 1445 1470 1436 1477 1388 1411 1438 1366 1489 1409 1435 1443 1452 1430 1399 1443 1418 1450 1398 1436 1462 1466 1425 1452 1430 1531 1474 1429 1456 1457 1385 1365 1496 1429 1469 1386 1474 1483 1401 1460 1475 1416 1436 1404 1527 1470 1406 1404 1480 1441 1461 1423 1482 1532 1523 1498 1515 1444 1441 1437 1470 1420 1415 1498 1437 1374 1443 1422 1448 1426 1436 1474 1459 1428 1445 1412 1459 1391 1406 1476 1456 1401 1505 1457 1424 1410 1427 1481 1445 1469 1447 1438 1498 1472 1380 1325 1349 1428 1465 1404 1501 1384 1415 1491 1489 1409 1468 1424 1495 1418 1374 1446 1450 1441 1394 1473 1457 1455 1392 1452 1349 1429 1409 1417 1418 1410 1444 1400 1480 1433 1409 1448 1382 1396 1402 1489 1404 1461 1403 1388 1397 1421 1451 1449 1515 1492 1491 1513 1454 1501 1546 1561 1525 1446 1537 1459 1501 1528 1432 1352 1512 1429 1472 1389 1384 1467 1369 1478 1423 1398 1409 1383 1434 1382 1372 1358 1379 1404 1359 1266 1387 1345 1386 1355 1360 1325 1317 1297 1261 1290 1298 1287 1286 1290 1337 1404 1307 1324 1343 1403 1400 1509 1444 1507 1510 1491 1622 1573 1634 1716 1604 1667 1592 1720 1596 1699 1590 1598 1603 1533 1615 1567 1660 1571 1524 1416 1452 1460 1515 1441 1380 1380 1421 1341 1404 1360 1364 1304 1353 1334 1354 1265 1308 1297 1292 1377 1337 1414 1373 1390 1398 1377 1406 1344 1398 1325 1439 1350 1276 1298 1301 1335 1332 1312 1259 1320 1346 1394 1398 1382 1384 1423 1442 1344 1441 1442 1423 1447 1416 1430 1514 1413 1482 1498 1532 1509 1555 1475 1560 1510 1500 1545 1560 1584 1542 1608 1577 1612 1534 1645 1477 1502 1455 1437 1396 1383 1421 1321 1299 1292 1265 1262 1240 1233 1203 1232 1219 1275 1284 1303 1303 1324 1352 1285 1310 1313 1294 1277 1254 1227 1239 1310 1267 1207 1273 1217 1282 1294 1288 1304 1371 1313 1384 1386 1362 1317 1305 1313 1269 1260 1271 1326 1280 1190 1221 1171 1185 1107 1153 1116 1169 1146 1132 1148 1163 1133 1150 1171 1240 1235 1360 1288 1332 1279 1469 1538 1565 1784 1721 1960 2151 2343 2571 2677 3001 3168 3412 3556 3601 3732 3602 3553 3754 3427 3476 3190 3102 3012 2972 2719 2780 2638 2583 2436 2402 2442 2458 2383 2433 2315 2309 2281 2133 2218 2150 2131 2073 2002 2002 1923 1885 1894 1855 1834 1666 1684 1601 1642 1567 1561 1481 1448 1325 1394 1350 1367 1345 1245 1174 1223 1200 1190 1216 1172 1143 1169 1174 1178 1090 1140 1082 1100 1033 1121 1161 1114 1089 1119 1074 1136 1092 1114 1108 1165 1159 1179 1084 1156 1136 1114 1141 1067 1153 1073 1076 980 966 979 1058 959 942 1012 935 951 951 966 954 924 958 939 858 903 945 963 906 899 846 900 874 874 898 856 893 898 891 821 907 881 850 929 874 845 864 861 945 867 821 898 887 897 861 884 943 927 973 955 985 1047 1103 1134 1146 1188 1176 1216 1222 1150 1259 1202 1177 1193 1278 1285 1252 1309 1307 1341 1312 1406 1457 1431 1429 1453 1417 1424 1487 1483 1459 1398 1349 1360 1402 1317 1242 1219 1223 1172 1166 1093 1098 1145 1160 1080 1057 1043 1074 1009 1037 1032 1029 1016 959 943 885 928 932 925 871 849 844 855 854 824 825 839 833 834 825 848 881 788 799 885 802 847 807 849 780 886 818 829 798 806 837 808 847 788 910 856 840 822 805 832 872 845 923 803 858 894 840 864 881 925 931 919 916 965 972 992 1026 1007 1030 942 984 990 943 937 893 901 928 847 790 835 851 811 795 799 788 794 776 739 731 728 762 749 777 787 810 767 784 768 782 826 828 848 857 876 839 872 804 883 787 829 883 847 797 832 764 767 795 800 752 763 740 751 769 736 796 742 761 765 786 747 742 807 777 750 794 800 819 784 821 835 788 855 894 858 901 920 802 857 845 862 795 858 821 766 777 819 814 792 787 704 758 721 729 744 736 751 746 751 742 747 694 729 710 755 686 712 742 709 682 709 745 751 723 719 677 750 719 736 683 715 749 772 720 702 679 743 680 681 725 718 737 718 727 744 718 720 693 683 693 685 689 693 720 719 672 724 709 740 710 766 746 750 758 769 757 792 768 781 792 825 811 913 955 961 999 988 1033 1087 1192 1354 1385 1456 1532 1724 1791 1991 2123 2295 2341 2600 2479 2618 2539 2586 2521 2509 2334 2272 2260 2171 2060 1955 1890 1742 1677 1586 1661 1516 1567 1404 1473 1366 1397 1346 1303 1268 1315 1217 1283 1173 1180 1085 1149 1070 1054 1086 1046 1067 1019 973 1017 961 945 957 954 968 916 919 956 845 905 828 885 856 863 830 836 790 841 840 792 789 743 798 772 695 731 739 709 675 701 646 688 732 650 672 656 664 691 718 632 638 671 630 662 671 637 710 619 720 689 668 663 685 664 678 680 659 665 699 650 697 675 620 641 657 671 621 658 625 652 603 689 624 666 599 621 620 657 575 621 603 607 653 628 670 616 631 592 621 616 617 636 597 623 665 648 632 672 668 631 626 635 600 686 588 669 594 676 668 632 622 651 679 657 644 670 709 714 639 674 664 748 642 651 607 678 636 654 604 667 590 634 614 626 617 633 581 575 592 594 584 603 638 594 620 601 531 575 598 601 594 591 600 580 576 577 543 546 587 581 615 598 611 577 593 577 566 574 586 558 586 639 574 594 598 602 553 570 515 579 561 628 542 586 548 571 568 557 559 555 579 615 610 609 626 594 650 605 685 617 596 544 609 612 583 543 624 598 601 627 576 622 517 587 540 546 578 563 607 589 610 579 576 549 563 526 564 598 583 567 586 613 586 625 603 599 668 591 585 600 572 628 558 624 552 567 572 625 607 596 553 613 610 598 576 563 560 577 562 566 648 591 547 556 582 644 585 608 605 606 598 673 657 637 653 666 682 665 624 665 657 624 622 553 616 605 591 601 603 603 608 584 588 594 598 603 585 564 654 598 674 633 577 668 583 570 540 574 588 564 575 557 563 522 540 545 538 549 515 537 508 576 519 515 491 541 554 541 578 527 510 518 551 535 626 592 601 593 595 587 530 613 616 626 540 562 526 560 538 599 529 516 552 529 552 488 515 571 553 530 534 539 508 540 501 521 561 512 522 523 571 505 550 552 538 509 521 488 563 478 536 532 523 533 516 529 564 545 551 505 530 545 526 504 533 546 539 523 543 538 517 580 521 526 551 532 531 516 542 516 549 524 461 479 503 499 486 500 526 486 484 473 447 509 475 523 480 471 465 480 488 460 468 479 473 467 441 463 446 471 453 485 514 465 485 501 475 474 449 448 482 444 467 522 500 480 465 453 452 455 480 470 430 514 500 485 461 495 439 488 464 510 455 467 480 476 510 525 509 547 467 560 536 565 537 555 549 550 526 539 473 524 537 467 535 513 445 459 473 555 494 471 459 492 466 482 499 501 489 469 480 505 507 501 489 466 474 498 524 472 493 489 461 506 503 520 511 497 534 515 549 538 508 561 513 556 580 574 600 533 607 617 570 574 614 642 569 598 596 615 565 548 514 537 556 542 566 527 530 515 540 534 483 500 518 506 522 488 545 483 500 481 460 461 466 508 473 493 482 478 486 484 456 454 464 424 471 482 501 471 488 471 515 497 530 500 524 472 470 441 505 481 463 470 468 459 461 446 473 462 472 452 478 494 461 433 449 430 458 476 457 429 461 435 436 435 431 429 472 471 462 448 458 420 468 421 466 443 454 468 491 402 511 438 460 434 493 444 480 464 490 488 536 475 482 469 470 443 491 462 498 473 442 507 446 439 460 450 459 465 450 472 483 471 453 458 468 461 476 474 460 489 489 440 471 491 525 494 439 502 509 486 473 462 458 528 482 484 501 476 464 447 464 499 492 462 520 480 497 547 483 494 524 519 495 530 553 551 546 535 550 609 606 585 608 663 614 598 611 614 631 650 594 622 536 579 573 581 580 537 575 574 566 582 524 567 548 535 512 533 505 502 532 566 528 574 523 526 493 510 498 448 484 496 492 447 462 457 451 500 429 493 458 436 461 457 413 447 414 454 423 438 452 419 437 451 435 446 453 445 413 420 430 437 409 413 429 437 437 449 441 413 451 411 448 443 446 498 436 427 471 400 464 421 446 437 505 462 480 497 493 513 487 498 533 531 471 486 451 512 485 480 507 434 511 462 519 419 481 452 492 426 435 453 433 447 439 422 401 442 431 486 447 451 426 411 439 456 433 453 424 437 455 428 433 423 430 385 444 430 444 390 443 429 452 444 448 415 461 430 435 439 419 458 427 433 421 411 431 384 394 429 413 444 397 386 415 389 433 385 423 414 416 418 381 417 425 447 439 478 486 472 421 487 455 490 466 484 545 519 532 490 519 487 514 535 501 526 485 533 460 488 470 441 484 481 481 481 445 452 497 436 450 476 503 521 516 535 550 608 558 570 576 660 572 612 567 588 598 553 582 582 595 530 557 606 533 556 588 559 543 487 548 539 490 496 540 537 536 569 507 512 516 509 534 539 503 533 505 510 513 488 512 488 523 480 511 414 490 464 450 485 490 448 479 492 472 465 437 470 495 470 476 465 478 438 456 436 463 464 466 447 423 431 434 439 444 440 431 419 393 410 418 438 419 472 419 370 425 421 445 431 394 442 463 418 420 435 433 456 433 447 426 437 428 442 431 407 424 484 423 449 408 429 384 425 422 444 424 458 447 429 444 408 488 469 458 445 409 422 405 405 402 419 383 406 437 396 428 459 453 444 425 425 455 453 433 428 385 430 398 435 404 416 419 428 402 442 410 388 391 427 437 404 394 434 377 398 439 385 457 423 430 386 422 391 424 427 402 379 421 400 368 390 373 391 365 364 375 401 370 353 396 352 392 406 378 399 384 390 386 384 362 390 393 429 378 394 377 374 389 377 350 393 341 380 387 366 397 353 371 368 366 365 385 376 367 378 406 383 406 385 389 406 442 457 430 397 405 417 417 454 450 413 418 450 444 505 440 482 470 520 526 458 483 484 456 416 444 454 425 439 444 487 453 421 413 409 430 425 429 401 404 419 457 399 455 398 405 468 406 427 380 453 434 446 431 467 464 430 418 460 494 466 455 486 439 455 471 467 515 461 491 494 471 515 449 446 453 446 458 454 463 449 476 475 471 463 441 428 461 450 474 493 417 459 439 475 470 414 432 439 492 471 457 443 426 458 417 437 436 448 439 465 439 472 444 430 412 451 490 514 464 515 497 509 539 504 524 506 501 553 538 515 554 546 557 573 638 592 615 605 628 664 645 644 605 666 707 658 700 753 764 789 805 873 944 1030 1108 1158 1281 1385 1426 1544 1671 1651 1632 1684 1627 1669 1517 1540 1456 1432 1410 1307 1410 1334 1339 1264 1184 1160 1161 1133 1021 1044 1014 1014 936 966 973 1016 996 1027 976 982 917 910 921 866 944 809 814 812 787 762 780 727 706 681 691 627 655 625 624 572 560 588 538 587 547 548 503 526 520 525 523 563 578 570 549 527 550 516 462 515 503 491 484 475 470 479 477 472 483 436 412 401 428 437 405 431 416 422 407 417 421 414 386 384 399 397 390 375 416 369 378 404 368 347 360 376 409 370 382 376 336 371 382 374 383 390 381 347 400 354 375 394 379 362 387 368 374 353 382 345 377 404 411 392 381 411 373 386 367 396 381 411 347 392 358 362 355 365 394 342 364 328 388 342 370 346 396 370 349 359 380 386 390 353 400 383 390 407 450 406 460 401 394 389 415 395 400 376 386 360 388 367 383 402 390 386 398 393 349 386 393 377 342 348 377 347 364 373 388 366 391 338 376 338 368 375 355 341 376 360 379 385 345 390 348 388 383 389 351 378 411 382 362 385 407 413 398 400 411 368 381 379 361 369 390 386 373 410 439 384 392 378 363 390 398 375 409 414 446 410 406 375 426 380 380 452 426 427 420 406 420 419 424 403 397 380 412 443 406 421 417 399 392 416 399 434 427 386 397 404 371 402 368 429 363 409 405 393 419 410 404 422 411 396 377 413 361 383 360 393 348 427 372 415 387 382 346 379 378 352 339 367 355 386 399 373 403 361 338 346 359 360 397 352 390 378 351 390 385 375 360 398 398 417 427 438 445 514 480 498 528 552 568 592 593 573 577 549 592 616 590 587 537 548 511 563 539 583 510 483 475 495 488 444 465 414 442 416 416 373 443 360 427 351 358 379 381 380 388 370 392 382 354 322 338 399 377 365 382 357 349 357 321 326 363 344 373 320 325 356 340 358 320 342 296 365 322 313 333 335 280 358 296 309 339 270 313 324 294 333 362 318 312 321 348 307 357 305 315 307 336 338 336 314 312 310 334 325 362 308 333 346 324 321 310 338 314 334 365 310 346 288 319 322 361 330 342 286 316 317 323 290 285 333 323 344 295 285 276 316 323 327 325 302 292 287 293 293 296 340 320 310 328 338 328 326 317 343 321 298 313 305 308 327 309 309 296 318 342 361 359 356 305 324 331 339 359 362 352 344 323 332 376 322 338 346 355 338 341 342 345 362 299 337 340 362 324 349 343 329 326 349 346 323 337 302 320 313 309 282 315 320 304 320 315 297 267 319 309 307 319 312 313 295 287 303 307 311 355 337 332 278 299 318 313 331 304 314 329 304 326 312 331 356 308 345 319 328 302 316 317 339 316 342 320 378 351 362 318 332 323 322 320 333 288 297 337 284 299 331 314 306 329 344 294 347 303 308 338 341 336 347 340 354 307 308 330 325 343 362 338 376 321 349 344 354 347 314 352 325 331 316 321 326 347 319 326 347 376 330 330 338 335 332 314 287 320 310 313 314 298 308 312 374 301 320 305 332 282 276 293 288 271 297 316 292 319 300 295 278 284 303 313 280 314 295 316 267 286 313 279 288 274 274 259 271 256 263 268 298 289 286 307 282 291 285 305 300 297 316 294 325 295 276 250 273 288 290 288 273 306 272 309 267 277 278 287 312 316 311 286 302 340 293 295 287 308 288 316 296 334 333 291 327 308 325 287 303 304 304 318 310 278 322 299 289 285 282 314 346 308 303 293 278 274 311 284 304 311 272 306 274 263 321 316 302 260 276 288 316 295 312 304 301 280 314 291 296 329 321 271 327 317 283 310 314 301 286 287 256 293 297 318 321 329 347 304 328 345 338 320 343 320 304 316 306 318 338 306 348 327 306 333 301 333 329 369 296 303 317 317 305 312 331 325 335 325 335 304 321 331 332 330 345 362 355 368 358 382 378 401 361 387 414 416 360 432 453 434 445 498 509 513 541 556 551 584 514 589 535 531 570 515 494 550 499 544 434 537 505 464 479 450 491 445 454 445 448 437 451 388 441 407 421 413 427 423 382 405 415 377 385 392 366 395 406 428 419 397 404 365 383 354 380 378 372 359 343 345 390 373 349 355 342 329 378 357 363 327 349 334 356 367 308 303 340 301 367 314 327 315 319 323 347 336 339 304 324 288 333 325 327 288 293 313 298 301 320 297 273 280 297 289 314 296 307 271 301 293 277 282 272 304 274 257 301 280 286 276 285 287 275 296 276 261 320 269 280 300 258 277 272 298 291 304 287 288 269 283 332 276 324 296 301 294 286 287 308 306 276 297 261 274 287 282 273 269 259 286 269 275 273 293 282 306 272 248 273 249 260 277 262 294 266 293 270 239 275 284 272 284 265 283 285 283 285 289 266 259 264 257 270 283 248 266 319 290 298 271 265 269 246 272 272 259 251 256 269 266 295 296 259 289 273 265 275 288 261 266 282 280 299 266 308 276 242 283 247 243 246 270 262 244 236 269 256 237 267 257 282 274 295 249 276 256 277 250 276 269 264 230 285 314 285 309 277 291 327 306 319 323 311 372 324 345 379 406 383 412 413 439 465 470 422 514 398 436 391 377 354 393 395 367 427 374 417 343 420 409 382 374 340 346 344 330 358 330 336 341 339 301 274 303 289 297 278 281 302 282 293 312 276 284 310 308 275 296 298 277 271 282 312 263 272 281 263 282 278 274 273 275 276 294 278 268 295 258 298 260 275 284 300 274 256 287 312 287 265 275 303 291 276 295 294 264 303 286 269 258 269 259 233 276 268 286 240 263 241 242 267 265 257 256 258 239 227 295 258 234 226 286 203 247 276 238 244 261 240 239 284 247 285 230 259 237 226 235 217 201 217 240 257 257 266 278 233 217 239 207 239 222 238 241 241 226 220 241 240 237 227 218 224 204 222 220 217 222 236 225 229 222 222 233 258 225 242 260 241 242 245 243 230 257 217 241 233 240 265 241 240 271 230 273 260 250 296 238 249 239 270 274 275 256 292 263 308 292 249 280 272 287 292 276 305 288 259 268 251 289 258 271 265 288 265 281 275 274 266 223 232 278 248 284 266 265 276 308 275 303 265 250 265 250 261 277 306 231 261 262 278 272 278 257 238 263 246 276 264 234 230 249 258 268 285 240 279 273 284 221 244 247 236 270 257 301 266 271 268 230 247 247 250 230 261 225 239 235 244 239 256 265 232 226 256 221 257 244 246 236 227 226 241 211 238 238 257 244 274 230 246 237 225 236 217 213 225 232 228 230 220 209 219 215 257 237 216 214 260 224 215 242 217 233 237 207 238 209 215 226 221 239 222 238 220 222 240 200 206 244 240 222 259 222 226 218 241 225 245 227 234 234 230 242 214 223 204 213 211 229 221 241 237 216 211 203 209 216 214 276 222 226 230 187 226 203 225 208 225 226 236 245 213 212 218 257 248 229 241 227 248 208 236 222 226 190 239 199 229 206 215 184 221 218 204 210 213 206 202 215 212 241 282 225 229 236 228 228 244 214 214 216 226 232 248 248 236 226 241 243 217 227 208 221 201 225 225 228 227 205 195 191 207 247 214 214 209 206 239 216 202 244 224 227 228 237 207 212 205 223 207 232 202 229 220 228 210 214 193 206 210 213 184 213 228 214 243 202 213 236 220 247 213 212 224 230 189 237 229 217 205 206 206 225 204 223 187 206 186 219 220 228 222 210 190 206 243 246 196 226 207 231 201 190 213 190 229 240 204 200 206 198 198 224 222 214 201 209 208 247 216 221 215 230 235 206 237 232 256 231 225 225 244 193 240 244 233 239 260 247 257 245 245 250 242 218 269 228 267 242 222 230 219 222 247 229 249 241 221 231 238 230 233 241 218 264 193 232 205 219 204 201 226 228 211 221 200 210 213 208 223 248 230 207 212 214 198 230 221 202 195 214 208 182 210 219 233 219 242 220 197 204 185 198 214 191 195 215 191 215 185 198 188 204 202 186 217 194 202 221 250 202 224 196 230 213 212 191 178 206 188 221 199 207 213 191 207 194 200 217 210 188 222 235 205 204 208 222 222 212 225 189 204 209 212 218 220 194 222 176 207 212 204 194 243 206 205 194 219 210 184 167 183 177 211 215 177 209 202 202 209 219 216 189 207 198 216 213 212 235 212 256 207 207 243 233 256 243 215 241 185 202 245 208 235 217 190 207 214 229 249 238 186 249 234 193 212 220 231 245 225 209 221 266 228 209 213 234 226 208 181 226 225 245 202 220 214 211 228 258 215 216 217 201 219 196 218 201 224 224 227 259 224 213 228 194 197 182 238 220 224 201 246 211 190 213 227 208 215 232 219 230 204 237 217 226 189 201 220 214 258 190 232 212 241 189 189 212 216 212 222 208 223 212 207 215 203 203 230 198 233 224 211 218 215 193 215 240 230 226 223 201 221 208 211 188 192 211 201 193 216 234 181 208 189 201 201 193 216 206 211 203 219 208 207 203 175 220 240 211 200 182 213 204 208 210 214 216 232 201 216 180 188 220 196 227 221 192 209 213 233 220 212 227 217 206 210 208 233 181 219 216 222 240 226 201 223 218 210 222 230 229 202 208 200 222 191 227 211 212 205 203 220 229 198 190 194 188 180 212 200 235 226 193 176 233 213 176 167 185 193 216 183 199 216 217 195 244 234 209 203 209 180 200 192 205 199 202 241 180 194 200 216 185 176 232 191 205 228 213 207 195 190 192 212 207 202 205 186 203 200 185 190 189 205 196 216 215 182 189 195 197 261 238 195 191 191 201 202 210 225 192 208 206 259 230 213 203 213 212 212 214 228 216 245 214 217 209 204 208 234 234 223 263 239 223 284 250 259 231 250 228 229 242 233 248 264 235 225 239 268 237 249 240 266 245 266 245 248 231 241 271 261 203 215 273 264 213 228 242 218 207 203 232 214 228 225 214 230 231 228 225 229 224 220 200 221 258 231 206 224 219 227 203 222 202 223 208 210 263 208 199 247 256 207 229 205 196 244 222 219 217 234 210 203 213 256 236 198 217 211 191 219 179 220 192 195 212 220 216 238 216 220 185 193 223 217 215 238 208 203 214 192 218 193 195 219 192 185 211 191 242 215 197 193 234 214 206 192 202 200 239 195 222 194 212 258 214 203 206 200 213 182 219 207 209 195 199 184 161 178 191 207 173 208 219 194 244 212 203 217 197 224 194 249 222 199 198 231 204 223 210 233 222 256 207 244 229 207 225 202 198 200 218 206 243 215 217 199 224 261 215 220 212 215 191 257 236 197 214 230 200 200 243 215 225 224 239 218 212 208 197 210 208 218 200 243 179 221 224 212 216 241 220 218 240 229 240 207 211 203 241 184 229 220 205 227 222 215 216 194 217 206 242 230 228 201 216 217 240 221 231 200 220 232 204 256 223 226 236 231 224 222 237 238 246 239 234 219 229 237 217 230 230 245 233 244 247 237 272 208 250 247 243 229 233 214 229 233 237 231 229 213 239 209 257 247 232 228 231 198 184 240 207 218 205 217 204 181 203 215 188 194 218 190 218 223 202 203 198 222 192 217 221 210 224 199 206 212 183 188 228 210 183 212 212 192 213 218 196 202 206 217 205 185 222 187 209 220 175 196 195 215 213 219 229 193 180 199 191 210 225 215 211 198 226 203 191 206 208 219 200 205 198 211 181 183 212 206 217 186 239 221 221 181 209 230 210 195 199 229 196 207 190 194 219 201 228 199 193 212 218 224 209 225 210 191 195 236 194 209 205 216 207 203 209 198 198 216 216 213 202 213 188 193 196 207 217 205 181 196 197 227 212 226 189 207 224 199 207 214 210 228 208 224 195 211 184 215 203 233 211 212 199 208 218 202 204 235 218 185 238 192 225 217 212 204 203 212 212 215 221 195 220 215 202 189 216 224 217 217 190 215 205 202 217 212 186 214 192 194 224 227 225 212 181 219 194 228 221 210 191 195 225 212 207 215 198 259 232 212 219 195 207 219 234 225 231 235 208 216 216 209 248 212 221 238 227 217 239 214 226 191 235 221 234 246 299 225 221 216 243 229 238 187 228 208 243 232 225 202 205 212 240 232 198 209 220 228 257 204 241 243 209 211 228 230 240 238 225 201 248 210 256 227 241 225 226 197 209 210 216 246 205 257 225 202 224 244 222 194 225 217 224 217 212 229 213 242 205 220 222 206 217 223 226 258 209 228 222 234 209 219 230 216 213 192 223 233 230 218 211 216 207 211 242 227 217 228 204 233 216 224 218 234 234 202 212 243 225 198 231 214 197 244 209 257 191 258 241 216 234 225 230 191 233 260 208 256 260 265 236 242 244 225 237 241 244 216 258 186 198 241 251 256 217 247 202 247 250 231 239 213 240 246 225 209 228 210 208 215 210 228 235 256 227 225 219 247 204 272 247 222 229 221 234 263 221 237 272 260 275 280 276 303 298 288 282 289 314 280 276 281 290 288 283 273 297 279 280 294 258 286 232 289 236 271 256 301 281 283 234 279 264 265 278 248 283 282 267 290 248 251 235 260 271 262 261 250 257 220 260 259 268 223 249 266 264 224 275 223 249 268 275 259 260 257 241 270 257 288 247 281 266 243 264 267 264 223 247 258 268 268 244 238 241 268 231 241 286 276 249 248 242 246 230 221 260 242 201 224 246 236 274 259 235 224 238 244 222 227 208 214 209 278 209 223 223 247 213 236 217 229 240 236 228 238 246 237 237 222 237 251 231 239 231 235 212 226 217 264 218 237 232 221 216 275 229 233 234 198 238 232 218 217 234 229 257 236 265 201 230 243 215 239 237 220 201 238 269 229 217 206 231 216 241 246 208 241 204 207 219 206 234 207 214 216 220 225 230 224 218 256 234 230 223 221 214 224 263 216 210 274 218 211 231 235 222 213 219 233 229 227 269 237 227 211 224 218 234 249 244 240 231 230 263 224 280 256 277 270 239 269 260 316 300 313 277 324 297 332 339 344 318 344 306 314 309 289 347 338 359 312 309 322 301 301 299 288 278 287 282 334 348 331 290 342 330 325 275 320 302 289 289 304 304 279 291 279 258 284 236 243 224 272 277 261 268 264 242 240 240 275 263 256 205 238 234 237 229 245 224 235 232 232 210 244 219 271 233 220 234 232 263 215 233 211 245 245 218 259 240 244 225 219 216 242 214 237 228 257 268 227 230 216 233 219 231 240 212 236 201 242 240 220 232 238 217 239 200 245 215 230 224 218 250 201 259 186 245 217 195 200 232 236 235 230 262 213 219 227 203 227 214 242 213 194 259 216 215 216 196 245 224 204 229 212 244 212 229 239 238 221 232 211 218 202 234 226 231 217 235 211 197 232 227 211 257 215 220 231 225 212 242 215 226 212 239 201 227 216 229 213 219 237 235 193 216 224 223 224 197 226 207 217 225 193 229 212 222 250 242 223 233 218 222 224 227 196 241 204 222 208 210 216 217 221 212 195 211 217 209 227 195 193 193 214 178 217 232 219 223 214 219 224 199 206 199 204 204 201 209 247 196 213 199 215 228 241 195 203 195 197 199 213 210 224 218 198 215 215 229 204 201 221 210 215 200 207 208 208 167 214 219 204 189 209 217 215 201 224 189 245 228 231 224 204 191 214 200 215 190 224 209 195 216 204 229 229 213 210 224 195 245 197 215 221 202 217 200 208 215 225 230 209 200 215 215 216 213 208 211 210 251 204 213 196 192 192 205 210 201 226 222 211 191 224 206 199 228 207 195 211 183 210 218 212 218 197 226 213 193 212 197 212 199 220 198 221 212 211 191 221 179 216 215 179 213 216 204 201 231 194 226 201 234 193 214 183 196 234 180 202 209 192 235 216 210 191 213 193 210 191 213 202 181 193 181 198 204 200 219 197 212 204 207 196 194 204 218 202 215 193 199 174 192 211 190 180 184 215 179 182 199 187 207 188 177 198 197 177 185 233 198 205 218 201 205 176 192 199 202 210 187 192 191 215 197 195 211 198 185 198 183 203 193 189 210 189 222 231 208 212 200 221 194 199 197 217 172 208 189 178 205 187 220 191 216 201 200 185 173 184 197 185 174 203 195 208 218 195 191 176 187 195 198 182 177 212 192 174 190 210 192 210 186 207 181 191 201 223 219 194 208 203 203 213 208 192 184 207 188 190 208 199 208 184 205 231 201 210 194 207 193 196 202 183 209 217 184 209 169 172 199 208 207 197 189 178 188 216 182 205 201 199 209 199 175 210 200 188 223 220 198 185 213 203 220 183 214 217 221 189 191 182 213 179 199 191 194 194 193 178 202 206 187 210 180 194 177 194 190 215 163 201 197 211 205 193 179 186 163 194 204 187 199 182 184 183 203 205 206 199 191 200 189 210 205 187 217 178 220 201 202 211 217 203 185 194 210 222 198 216 202 208 218 225 201 200 210 213 187 218 219 225 222 218 224 219 195 195 196 196 184 205 206 225 175 209 214 204 226 189 190 184 220 180 206 215 182 202 197 207 191 195 192 205 196 183 191 179 211 184 178 177 199 215 177 175 186 208 198 195 202 197 170 193 198 163 183 208 192 196 189 218 186 191 193 184 198 212 213 190 196 181 181 192 192 175 229 212 205 200 223 195 225 191 218 209 199 188 188 192 196 237 188 197 202 198 205 183 205 180 197 189 180 207 194 209 196 200 167 199 195 201 201 192 170 225 197 178 184 215 197 198 187 203 216 201 176 196 219 174 216 192 190 201 208 204 187 202 193 204 176 205 195 212 197 164 195 181 180 189 202 191 180 204 195 186 208 202 176 199 205 214 188 209 181 172 178 211 209 185 216 194 187 222 193 192 200 205 182 203 175 169 187 200 195 197 161 164 197 199 216 203 206 202 168 201 182 199 193 180 197 182 202 168 228 206 205 202 202 175 185 215 190 186 200 202 192 200 192 191 202 196 200 186 198 181 227 213 210 205 195 198 171 218 187 199 180 205 196 205 218 202 196 180 189 208 199 217 210 199 233 196 240 210 209 233 196 222 208 183 201 190 187 222 225 241 186 216 212 204 193 212 196 240 224 233 200 260 230 232 258 257 249 270 263 259 276 244 261 269 284 263 239 240 280 243 273 258 256 242 263 229 275 229 250 244 244 283 259 259 259 227 245 222 220 230 245 230 241 217 236 233 210 223 224 231 211 234 244 244 232 242 226 225 224 217 219 223 226 243 216 218 212 196 202 237 201 261 218 241 220 202 220 207 230 238 239 257 183 214 232 235 216 216 221 247 232 198 226 221 247 221 195 199 189 233 190 209 210 215 217 215 213 229 196 240 193 223 212 235 236 210 200 222 226 210 184 211 203 164 209 215 200 185 182 190 215 221 185 214 183 197 195 197 191 217 192 217 205 193 219 187 206 204 194 208 183 218 219 192 208 202 187 185 173 202 191 212 199 235 171 211 194 207 232 214 196 210 223 202 198 203 192 195 209 232 210 194 220 192 206 218 215 186 208 213 200 192 182 230 183 206 216 186 201 182 209 167 186 190 183 169 229 215 186 183 193 204 203 201 207 186 215 221 196 197 210 211 226 215 199 197 195 196 215 213 193 189 206 186 215 192 204 214 211 205 173 191 186 200 198 206 185 198 220 181 196 223 188 185 194 199 183 187 188 199 238 223 203 200 180 198 217 216 189 175 183 174 175 185 186 186 182 198 226 179 186 198 200 207 183 202 193 173 203 193 198 179 179 179 222 230 169 206 207 182 190 190 176 184 197 205 195 190 172 167 187 164 216 180 180 204 177 208 183 194 180 196 197 144 178 183 208 193 189 201 214 195 171 167 199 182 171 178 175 190 210 173 183 200 176 212 182 211 187 208 189 201 209 169 183 191 191 157 196 198 161 193 179 183 200 159 181 180 218 190 200 194 193 196 170 194 202 198 193 193 170 185 206 184 174 164 186 177 175 205 183 206 200 193 232 181 172 192 206 192 199 192 183 212 186 181 178 211 212 209 184 192 182 167 182 183 180 187 186 192 185 191 177 184 154 180 199 181 177 191 198 211 173 199 160 180 172 203 181 185 207 196 182 178 170 191 196 177 198 193 186 181 190 167 176 191 146 181 193 193 183 178 182 189 205 184 213 196 204 216 178 194 182 162 206 215 170 180 177 194 195 182 158 200 167 218 178 171 151 172 205 185 203 191 193 191 187 181 202 194 171 180 169 162 172 212 190 193 181 175 186 191 170 192 196 175 204 191 178 169 159 198 201 189 186 171 201 185 225 165 174 203 200 209 211 196 187 178 200 194 212 191 197 187 173 175 172 209 182 211 176 181 189 185 181 208 204 188 190 194 224 199 173 223 191 203 205 176 169 186 183 187 193 169 178 204 171 186 160 168 189 197 196 206 187 192 187 179 200 176 194 190 202 161 206 168 200 174 185 201 196 209 196 198 195 178 195 192 148 182 195 200 172 197 191 187 199 199 178 213 203 211 171 200 186 215 193 168 199 162 202 225 210 196 207 193 186 218 191 207 212 198 205 190 216 210 217 225 201 223 219 182 214 208 193 188 214 205 190 186 208 172 216 187 214 203 214 220 189 188 180 198</counts>
			</dataPoints>
		</scan>
	</xrdMeasurement>
</xrdMeasurements>
