<?xml version="1.0"?>
<xrdMeasurements xmlns="http://www.xrdml.com/XRDMeasurement/2.3" xmlns:xsi="http://www.w3.org/2001/XMLSchema-instance" xsi:schemaLocation="http://www.xrdml.com/XRDMeasurement/2.3 http://www.xrdml.com/XRDMeasurement/2.3/XRDMeasurement.xsd" status="Completed" recordIdentifier="{7070B5DC-68CF-4616-8FB5-9A648E2B6644}">
	<comment>
		<entry/>
	</comment>
	<sample type="To be analyzed">
		<id>GPSS_Li1p9V0p1Mn0p1Zr0p1Mg0p5Fe0p1Cl4_122625_694e531dae15af25ac374619</id>
		<name></name>
		<preparedBy></preparedBy>
	</sample>
	<xrdMeasurement measurementType="Scan" status="Completed" sampleMode="Reflection">
		<usedWavelength intended="K-Alpha 1">
			<kAlpha1 unit="Angstrom">1.5405980</kAlpha1>
			<kAlpha2 unit="Angstrom">1.5444260</kAlpha2>
			<kBeta unit="Angstrom">1.3922500</kBeta>
			<ratioKAlpha2KAlpha1>0.5000</ratioKAlpha2KAlpha1>
		</usedWavelength>
		<incidentBeamPath>
			<radius unit="mm">145.00</radius>
			<xRayTube id="1010048" name="Empyrean Cu LFF HR (9430 033 7310x)">
				<tension unit="kV">40.0</tension>
				<current unit="mA">15.0</current>
				<anodeMaterial>Cu</anodeMaterial>
				<focus type="Line">
					<length unit="mm">12.0</length>
					<width unit="mm">0.4</width>
					<takeOffAngle unit="deg">6.0</takeOffAngle>
				</focus>
			</xRayTube>
			<sollerSlit id="21010002" name="Soller slits 0.04 rad.">
				<opening unit="rad">0.0400</opening>
			</sollerSlit>
			<mask id="22031000" name="Fixed mask 13 mm">
				<width unit="mm">9.00</width>
			</mask>
			<divergenceSlit id="22120001" name="Divergence slit 1°" xsi:type="fixedDivergenceSlitType">
				<distanceToSample unit="mm">50.00</distanceToSample>
				<height unit="mm">1.52</height>
			</divergenceSlit>
		</incidentBeamPath>
		<sampleMovement xsi:type="spinningSampleMovementType">
			<spinnerRevolutionTime unit="seconds">1.0</spinnerRevolutionTime>
		</sampleMovement>
		<diffractedBeamPath>
			<radius unit="mm">145.00</radius>
			<antiScatterSlit id="22090040" name="AS slit 9 mm (PIXcel)" xsi:type="fixedAntiScatterSlitType">
				<height unit="mm">9.00</height>
			</antiScatterSlit>
			<sollerSlit id="21020003" name="Large Soller slits 0.04 rad.">
				<opening unit="rad">0.0400</opening>
			</sollerSlit>
			<filter id="20030001" name="Large beta-filter Nickel">
				<material>Ni</material>
				<thickness unit="mm">0.020</thickness>
			</filter>
			<detector id="7010019" name="PIXcel1D-Medipix3 detector" xsi:type="rtmsDetectorType">
				<phd unit="keV">
					<lowerLevel>4.02</lowerLevel>
					<upperLevel>11.27</upperLevel>
				</phd>
				<mode>Scanning</mode>
				<activeLength unit="deg">5.542</activeLength>
			</detector>
		</diffractedBeamPath>
		<scan appendNumber="0" mode="Continuous" scanAxis="Gonio" status="Completed">
			<header>
				<startTimeStamp>2025-12-27T14:06:02-08:00</startTimeStamp>
				<endTimeStamp>2025-12-27T14:14:09-08:00</endTimeStamp>
				<author>
					<name>AutomatedUser</name>
				</author>
				<source>
					<applicationSoftware version="1.7b (136)">PANalytical Aeris Instrument Suite</applicationSoftware>
					<instrumentControlSoftware version="3.2.00000000 20240306">AERIS</instrumentControlSoftware>
					<instrumentID>950485</instrumentID>
				</source>
			</header>
			<dataPoints>
				<positions axis="2Theta" unit="deg">
					<startPosition>10.00943322</startPosition>
					<endPosition>99.99442286</endPosition>
				</positions>
				<positions axis="Omega" unit="deg">
					<startPosition>5.00471661</startPosition>
					<endPosition>49.99721143</endPosition>
				</positions>
				<commonCountingTime unit="seconds">12.495</commonCountingTime>
				<counts unit="counts">3363 3210 3157 3253 3125 3079 3200 3094 3267 3076 3150 3226 3278 3285 3175 3151 3204 3243 3178 3135 3233 3131 3139 3214 3287 3303 3265 3263 3291 3253 3288 3245 3259 3290 3230 3176 3249 3291 3258 3324 3226 3267 3242 3177 3318 3173 3272 3278 3244 3309 3360 3339 3205 3309 3375 3243 3357 3337 3313 3251 3313 3325 3336 3300 3240 3246 3234 3357 3335 3322 3360 3420 3282 3448 3333 3406 3387 3405 3420 3299 3395 3339 3407 3269 3309 3292 3344 3370 3391 3208 3587 3334 3408 3344 3365 3299 3409 3436 3381 3423 3333 3469 3417 3526 3347 3477 3421 3516 3453 3557 3491 3437 3419 3432 3520 3462 3509 3619 3585 3566 3523 3397 3634 3401 3446 3490 3461 3572 3494 3460 3560 3521 3511 3542 3488 3452 3448 3532 3568 3489 3440 3483 3499 3504 3471 3445 3558 3504 3497 3472 3520 3497 3494 3412 3539 3592 3525 3521 3510 3443 3454 3504 3397 3563 3578 3463 3492 3441 3475 3643 3444 3565 3491 3360 3390 3577 3430 3511 3374 3567 3428 3528 3499 3360 3449 3509 3559 3356 3560 3550 3393 3488 3408 3517 3370 3479 3531 3551 3336 3506 3474 3526 3419 3427 3410 3338 3407 3402 3411 3312 3302 3365 3411 3500 3357 3419 3387 3339 3272 3415 3300 3424 3405 3330 3353 3305 3358 3263 3374 3295 3287 3437 3315 3265 3293 3364 3225 3249 3332 3356 3317 3352 3255 3306 3362 3357 3318 3264 3110 3307 3325 3223 3221 3307 3420 3265 3104 3150 3250 3248 3221 3151 3218 3224 3177 3152 3273 3178 3255 3250 3233 3120 3242 3344 3229 3177 3207 3187 3222 3232 3192 3126 3174 3193 3120 3205 3118 3236 3305 3131 3271 3211 3162 3191 3074 3188 3079 3184 3092 3228 3149 3078 3242 3124 3197 3126 3167 3199 3234 3186 3170 3314 3201 3197 3165 3134 3164 3128 3252 3081 3096 3153 3186 3227 3167 3147 3134 3199 3168 3226 3102 3181 3104 3299 3147 3240 3212 3203 3260 3179 3259 3211 3222 3126 3136 3179 3246 3231 3259 3246 3234 3300 3194 3247 3281 3152 3263 3257 3164 3263 3271 3396 3356 3406 3191 3352 3228 3199 3259 3335 3171 3284 3286 3320 3289 3347 3322 3441 3264 3316 3329 3339 3398 3478 3351 3344 3399 3366 3530 3371 3481 3406 3265 3431 3465 3414 3438 3386 3437 3445 3415 3522 3468 3490 3436 3507 3563 3486 3483 3550 3549 3571 3433 3573 3553 3604 3635 3691 3619 3643 3652 3831 3641 3766 3835 3766 3806 3890 3643 3761 3860 3734 3778 3753 3784 3838 3964 3883 4002 3816 3985 3981 3887 4074 4000 4029 4074 4121 4174 4157 4054 4199 4167 4200 4037 4056 4101 4031 3961 3952 3918 3855 3832 3717 3759 3657 3597 3702 3524 3567 3585 3489 3484 3575 3502 3489 3409 3360 3429 3555 3461 3427 3415 3442 3396 3355 3379 3301 3273 3394 3388 3297 3322 3278 3271 3404 3296 3245 3291 3281 3244 3198 3239 3206 3136 3194 3107 3154 3226 3126 3257 3207 3220 3169 3100 3084 3104 3088 3087 3100 2993 3141 3109 3115 3111 3093 3043 3112 3080 3072 3094 3098 3080 3016 3195 3055 3008 2979 2928 2956 3036 3056 3044 2996 2999 3076 2887 3010 2909 3059 3008 3021 2968 3017 2902 2957 2966 2913 3003 2972 2899 2969 2881 2910 2969 2856 2962 2971 2813 2949 2839 2867 2839 2925 2993 2849 2981 2922 2923 2844 2911 2771 2852 2781 2923 2813 2779 2878 2948 2843 2817 2878 2793 2804 2932 2813 2784 2766 2775 2713 2834 2814 2737 2800 2873 2773 2762 2719 2800 2773 2777 2800 2790 2825 2758 2795 2705 2649 2727 2727 2745 2672 2794 2882 2726 2694 2645 2747 2811 2767 2769 2784 2705 2766 2661 2616 2764 2770 2621 2600 2776 2670 2776 2673 2743 2797 2711 2640 2771 2800 2698 2777 2668 2629 2638 2722 2684 2727 2756 2724 2794 2757 2615 2775 2650 2777 2635 2722 2699 2622 2693 2684 2703 2692 2565 2693 2701 2692 2669 2773 2721 2705 2747 2614 2698 2624 2719 2633 2590 2788 2606 2620 2623 2622 2618 2717 2724 2705 2649 2638 2718 2672 2668 2627 2580 2594 2611 2602 2641 2645 2698 2752 2620 2569 2595 2617 2593 2637 2624 2633 2625 2693 2656 2607 2558 2592 2595 2496 2612 2685 2611 2531 2686 2588 2601 2599 2560 2644 2701 2484 2674 2615 2629 2569 2615 2507 2577 2613 2637 2633 2548 2651 2629 2648 2476 2446 2554 2553 2624 2531 2661 2500 2670 2510 2599 2582 2644 2570 2555 2624 2571 2586 2601 2518 2499 2489 2545 2606 2455 2514 2538 2641 2625 2600 2593 2533 2592 2601 2543 2640 2514 2582 2475 2482 2613 2509 2563 2539 2596 2499 2567 2565 2582 2595 2496 2549 2567 2420 2482 2513 2470 2549 2474 2560 2492 2460 2485 2516 2558 2570 2447 2483 2599 2511 2524 2466 2471 2553 2553 2463 2521 2432 2464 2443 2502 2489 2441 2486 2531 2391 2493 2496 2486 2444 2504 2482 2550 2391 2469 2486 2469 2520 2393 2436 2440 2532 2504 2557 2483 2495 2427 2598 2436 2477 2428 2506 2461 2499 2445 2480 2460 2423 2462 2448 2393 2445 2404 2512 2505 2511 2485 2387 2468 2478 2426 2489 2363 2389 2459 2518 2408 2399 2428 2450 2393 2528 2343 2562 2371 2445 2414 2401 2521 2337 2510 2413 2428 2405 2379 2468 2425 2444 2381 2461 2389 2388 2411 2459 2386 2404 2474 2365 2469 2390 2474 2314 2349 2333 2354 2373 2397 2389 2363 2316 2328 2284 2370 2383 2419 2315 2336 2334 2376 2341 2313 2354 2295 2268 2363 2371 2354 2293 2389 2300 2394 2291 2351 2387 2372 2356 2373 2343 2379 2390 2421 2353 2306 2342 2294 2334 2406 2231 2267 2298 2357 2299 2345 2377 2423 2347 2277 2300 2409 2290 2271 2328 2357 2458 2268 2323 2381 2224 2340 2356 2317 2310 2391 2347 2300 2380 2318 2225 2367 2323 2401 2240 2390 2370 2337 2343 2295 2371 2334 2339 2358 2353 2264 2392 2313 2373 2320 2447 2306 2259 2283 2205 2311 2270 2329 2291 2392 2409 2255 2372 2349 2261 2295 2402 2269 2323 2279 2384 2423 2330 2311 2341 2350 2283 2324 2317 2313 2308 2296 2326 2341 2395 2287 2351 2325 2352 2330 2282 2325 2331 2393 2332 2381 2369 2346 2371 2284 2323 2370 2303 2314 2337 2402 2308 2420 2380 2295 2288 2405 2277 2283 2381 2337 2317 2322 2379 2280 2237 2245 2398 2262 2368 2340 2347 2324 2393 2370 2377 2323 2275 2335 2323 2361 2268 2367 2278 2365 2356 2346 2397 2422 2312 2333 2340 2289 2295 2279 2234 2378 2305 2319 2264 2283 2361 2363 2323 2273 2301 2297 2393 2182 2248 2248 2292 2296 2249 2230 2238 2235 2177 2247 2319 2352 2224 2220 2260 2287 2135 2320 2323 2196 2163 2207 2179 2245 2251 2231 2243 2291 2245 2220 2229 2269 2246 2222 2139 2193 2183 2181 2250 2051 2166 2143 2107 2121 2124 2097 2163 2143 2028 2185 2058 2129 2115 2113 2057 2043 2073 2116 2152 2098 2098 1994 2026 2044 2031 2120 1934 2024 2021 2061 2031 1974 2044 2041 2019 1959 2092 2040 1957 1970 2043 1956 1986 2007 2010 1962 1922 1901 1967 1992 1943 1973 1956 1961 1981 1962 2060 1966 1800 1917 1983 1947 1974 1938 1884 1912 1854 1917 1894 1964 1931 1863 1906 1894 1910 1832 1863 1875 1886 1856 1824 1884 1800 1864 1851 1831 1811 1851 1851 1846 1815 1842 1790 1820 1789 1770 1863 1796 1798 1749 1764 1794 1879 1727 1759 1844 1766 1796 1792 1784 1839 1799 1762 1820 1737 1788 1749 1743 1744 1739 1780 1821 1754 1719 1732 1755 1854 1776 1743 1735 1758 1719 1762 1706 1663 1698 1796 1660 1810 1725 1744 1764 1742 1685 1762 1742 1680 1671 1693 1710 1675 1751 1749 1629 1731 1653 1674 1697 1706 1740 1724 1590 1667 1721 1652 1734 1681 1709 1719 1721 1651 1713 1698 1696 1760 1585 1659 1616 1640 1644 1652 1650 1637 1696 1689 1618 1636 1615 1684 1720 1660 1659 1709 1635 1630 1620 1669 1674 1711 1700 1614 1624 1653 1641 1638 1636 1566 1642 1653 1615 1572 1685 1637 1656 1638 1606 1644 1749 1621 1682 1683 1680 1604 1695 1639 1665 1669 1627 1655 1598 1719 1707 1728 1708 1650 1728 1629 1625 1605 1655 1665 1638 1644 1724 1712 1629 1638 1679 1624 1695 1699 1695 1660 1704 1737 1699 1671 1644 1664 1610 1599 1657 1629 1714 1696 1618 1627 1694 1658 1668 1658 1674 1688 1684 1643 1671 1676 1674 1637 1697 1645 1555 1694 1660 1712 1642 1625 1818 1709 1683 1689 1692 1700 1687 1655 1712 1715 1625 1653 1694 1692 1670 1648 1713 1703 1629 1657 1686 1664 1650 1809 1693 1719 1686 1716 1684 1636 1667 1609 1711 1627 1644 1697 1659 1638 1700 1628 1752 1702 1689 1694 1597 1687 1693 1654 1535 1635 1640 1678 1657 1623 1654 1650 1665 1525 1671 1670 1639 1599 1693 1659 1559 1612 1590 1608 1692 1637 1649 1650 1681 1628 1560 1588 1644 1637 1551 1688 1652 1564 1686 1659 1579 1675 1625 1554 1531 1655 1525 1569 1521 1531 1574 1596 1500 1564 1546 1551 1595 1581 1568 1478 1497 1501 1514 1515 1496 1554 1515 1500 1538 1547 1547 1518 1552 1477 1485 1439 1503 1511 1440 1446 1468 1477 1512 1437 1387 1476 1482 1426 1478 1505 1494 1434 1408 1467 1435 1468 1416 1457 1431 1437 1465 1484 1429 1380 1421 1423 1382 1392 1411 1353 1430 1409 1420 1362 1400 1410 1443 1391 1418 1421 1356 1458 1341 1381 1422 1274 1394 1374 1412 1429 1357 1337 1276 1338 1399 1415 1345 1318 1379 1351 1331 1366 1329 1388 1360 1290 1398 1342 1306 1342 1343 1302 1379 1345 1314 1383 1419 1369 1303 1299 1341 1289 1391 1369 1311 1368 1335 1396 1387 1413 1380 1431 1377 1438 1518 1516 1498 1561 1554 1548 1562 1540 1540 1529 1541 1565 1611 1592 1550 1558 1572 1591 1560 1554 1486 1535 1576 1559 1608 1553 1668 1604 1593 1592 1571 1525 1592 1590 1531 1445 1497 1529 1375 1436 1346 1362 1266 1405 1374 1341 1263 1317 1337 1219 1274 1271 1336 1246 1182 1265 1314 1228 1220 1282 1307 1226 1240 1210 1280 1254 1277 1254 1239 1178 1240 1273 1203 1289 1188 1222 1191 1222 1257 1196 1178 1213 1189 1221 1190 1171 1225 1202 1190 1274 1179 1215 1225 1236 1265 1223 1260 1283 1266 1325 1265 1347 1317 1365 1340 1440 1467 1506 1562 1588 1695 1789 1785 1947 2054 2034 2205 2289 2351 2572 2679 2729 2985 2895 3013 3063 3059 3051 3116 3155 3303 3203 3340 3316 3352 3400 3454 3397 3513 3495 3605 3810 3751 3765 3961 3996 4022 4028 4009 3955 3807 3790 3734 3496 3438 3164 3092 2945 2863 2752 2679 2501 2422 2386 2267 2185 2241 2177 2202 2203 2104 2036 2047 1954 2053 1878 1868 1908 1821 1747 1726 1667 1714 1563 1576 1574 1617 1525 1495 1381 1392 1344 1372 1390 1307 1326 1235 1327 1240 1249 1311 1256 1232 1249 1193 1306 1152 1242 1143 1259 1273 1180 1159 1190 1194 1170 1114 1114 1219 1139 1145 1164 1101 1111 1105 1097 1159 1135 1138 1103 1070 1107 1139 1116 1059 1115 1071 1127 1085 1080 1069 1081 1103 1064 1027 1092 1056 1112 1056 1088 1066 1040 1043 1011 1099 1040 1059 977 1034 1021 991 976 980 1010 1052 1017 1000 987 992 983 994 1023 1024 1015 978 987 1077 986 1009 1004 935 981 943 949 1036 935 954 1016 970 1023 997 1006 996 980 1017 984 983 1009 1012 1081 974 1018 942 1031 976 948 969 945 986 941 971 839 934 960 958 928 961 986 1043 997 961 962 982 948 938 1012 953 997 964 977 952 936 975 969 945 969 895 973 921 931 887 869 941 906 968 900 942 949 902 878 945 978 908 893 950 937 904 927 970 927 921 911 908 954 892 941 947 931 932 896 870 938 939 929 976 901 943 964 974 963 931 840 939 882 867 915 905 902 923 910 916 975 924 940 874 863 901 911 898 851 919 945 849 896 918 923 844 903 872 875 847 954 927 904 927 883 893 932 876 867 960 922 870 906 889 909 941 880 846 891 874 952 910 895 849 928 907 861 917 860 962 868 938 843 848 893 927 860 922 836 900 903 909 914 917 834 906 934 944 886 874 882 881 896 881 891 880 810 891 905 922 924 917 903 875 856 904 853 935 905 887 933 908 935 906 912 935 915 940 907 957 922 915 929 909 953 922 961 964 942 858 897 944 910 959 915 984 999 910 948 933 933 1004 891 971 988 982 987 937 987 1049 995 1007 992 1042 988 1041 1041 1009 1124 1109 1195 1161 1232 1214 1288 1320 1275 1378 1475 1507 1602 1642 1795 1854 1964 2124 2157 2396 2630 2702 2872 3143 3289 3420 3846 3822 4222 4137 4506 4663 4686 4664 4748 4652 4881 4953 4983 4978 4948 4835 5008 5089 4902 5092 5014 5003 5189 5160 5190 5158 5112 5093 5044 4961 4692 4762 4507 4378 4274 4101 3938 3742 3735 3585 3520 3388 3258 3202 3133 3089 3129 3028 3016 3048 3226 3147 3339 3413 3575 3672 3652 3725 3884 3782 4029 4146 3972 3944 3850 3723 3719 3458 3313 3206 3151 2812 2723 2535 2323 2126 2043 1846 1881 1629 1658 1540 1427 1339 1350 1219 1237 1171 1167 1113 1055 1092 1109 1103 963 1014 999 1051 955 1000 992 1020 1008 971 962 968 955 920 955 934 908 927 943 841 926 888 959 924 931 863 933 849 884 933 895 932 844 880 903 889 896 861 868 870 902 814 836 878 870 900 812 844 880 864 840 856 788 816 835 849 795 861 806 852 816 859 855 867 833 872 837 845 896 793 845 882 793 800 853 782 833 814 822 817 836 849 824 811 818 855 818 831 844 814 815 824 828 844 762 845 872 849 877 835 784 876 760 818 833 796 843 841 821 798 773 830 805 815 792 836 835 809 783 814 775 822 791 789 834 884 798 786 784 853 798 851 827 820 836 847 811 840 815 839 779 870 789 801 807 792 782 756 796 792 752 752 797 789 804 798 821 793 776 831 763 788 746 762 762 789 798 794 750 771 779 783 743 790 779 804 772 766 771 797 805 763 780 783 798 760 771 812 760 754 773 753 780 777 786 773 760 759 799 763 759 750 745 753 753 763 729 791 789 735 771 794 748 802 742 803 767 773 723 722 744 730 806 767 761 759 798 772 784 723 767 768 833 708 700 734 768 757 746 765 795 749 751 784 732 744 728 787 785 730 777 727 729 737 763 744 764 747 779 697 718 765 760 753 752 712 710 778 798 738 761 740 762 742 756 761 773 795 718 756 735 763 762 703 774 712 750 696 755 802 742 748 742 762 711 752 691 723 736 707 752 743 709 736 700 716 731 720 704 717 720 745 711 673 776 680 750 700 713 713 774 672 756 655 708 711 711 739 748 725 717 717 706 670 725 678 727 670 656 807 707 712 706 690 703 709 701 725 699 732 691 648 662 677 682 749 723 716 708 704 623 716 667 697 750 710 747 729 711 739 701 676 714 726 739 696 670 665 699 703 699 727 704 701 690 670 673 695 683 703 723 748 731 647 695 682 642 694 706 719 674 655 718 717 693 703 735 749 669 731 703 689 710 689 664 707 712 697 683 695 652 687 691 688 702 692 712 679 692 698 699 692 658 701 685 691 701 690 721 727 685 640 725 707 679 696 686 665 676 679 685 655 735 733 697 699 715 724 680 682 677 702 706 701 726 678 719 632 667 605 677 664 693 681 707 697 681 666 644 668 669 687 707 708 690 675 660 674 674 704 679 690 677 675 648 628 669 714 671 713 708 642 681 695 649 742 716 675 722 712 687 657 694 666 673 693 692 665 658 652 739 678 657 739 667 706 685 616 703 641 645 685 678 738 676 719 684 665 671 700 698 656 659 693 680 723 679 725 670 758 683 677 697 673 675 702 685 650 677 643 643 632 648 727 682 694 655 653 686 619 674 664 671 642 661 634 643 656 664 659 644 619 625 678 680 629 673 661 689 673 658 746 659 686 729 669 704 665 648 651 648 681 683 675 692 679 667 613 631 681 668 633 647 681 626 632 663 688 650 643 713 695 641 730 660 732 665 642 613 677 673 645 632 664 682 667 641 655 690 708 722 625 658 687 619 700 634 621 658 670 686 651 589 679 698 630 632 640 688 670 736 629 669 648 660 687 657 680 686 692 685 676 594 643 655 694 686 662 637 646 656 690 675 637 620 673 646 683 646 599 679 668 643 646 675 698 685 692 628 654 637 682 662 702 616 617 601 657 660 634 661 651 663 652 649 639 602 635 630 616 641 681 669 622 668 670 641 633 633 644 626 649 702 693 688 670 733 649 652 614 675 630 670 621 621 633 652 688 628 645 664 686 664 628 637 647 624 646 678 638 692 688 636 644 618 621 643 675 672 650 688 653 672 624 640 619 645 664 600 696 610 626 673 631 660 635 632 665 650 655 634 638 684 644 657 648 640 663 631 628 614 637 602 675 636 658 669 685 695 624 602 619 647 691 670 669 695 618 671 618 628 651 616 642 639 680 595 668 623 657 672 687 606 621 641 708 654 662 659 635 684 689 665 669 632 623 698 672 664 642 636 640 655 680 643 605 719 643 658 627 662 629 644 666 592 643 658 631 634 678 629 629 692 683 678 649 630 681 625 628 668 673 662 677 725 694 729 727 704 718 688 738 728 697 790 815 805 843 867 896 823 878 869 937 965 961 899 1044 1008 997 1058 1023 1003 1091 1049 1144 1065 1119 1124 1109 1077 1115 1100 1097 1064 1116 1070 1036 1027 977 972 941 950 938 932 888 896 878 817 796 798 707 736 692 680 728 725 739 706 650 687 711 662 688 655 684 688 623 648 644 642 651 627 683 640 614 730 667 628 677 675 703 678 654 679 677 665 613 667 627 632 626 651 670 635 628 655 667 629 651 638 676 656 611 668 644 651 639 624 607 652 661 633 633 633 612 624 635 614 642 621 664 673 631 612 653 617 641 641 628 609 590 613 568 596 602 591 550 625 593 633 613 676 598 626 629 605 638 636 625 616 615 573 635 590 637 629 649 600 621 627 635 670 645 642 629 683 601 648 607 645 645 614 635 594 636 613 632 662 579 579 614 645 619 640 562 603 616 633 614 598 623 642 616 606 626 623 581 595 578 595 626 611 642 651 595 568 607 561 617 655 638 630 600 628 631 625 632 575 579 545 642 628 582 613 611 635 594 611 572 579 554 608 615 624 630 610 665 663 638 680 639 632 632 673 543 611 637 598 624 650 669 623 637 594 613 607 621 629 607 612 641 589 675 588 689 642 674 601 576 669 643 605 614 639 658 661 692 629 659 679 624 634 587 639 676 674 629 645 651 640 669 615 656 662 608 580 643 666 615 653 716 598 615 638 643 640 629 669 672 645 619 637 660 655 634 618 635 620 628 601 614 657 603 639 588 628 598 618 626 641 607 704 635 632 613 654 565 659 623 638 614 665 654 601 668 622 581 632 618 599 616 643 664 672 641 671 638 678 656 715 626 655 658 673 647 689 637 706 673 679 666 661 749 675 711 693 719 735 768 772 763 764 797 871 838 892 961 860 951 987 1063 1098 1145 1201 1287 1422 1455 1535 1587 1685 1723 1861 2018 2105 2156 2326 2354 2473 2541 2637 2640 2608 2798 2859 2942 2990 3232 3163 3281 3360 3291 3461 3399 3295 3496 3384 3262 3178 2968 2915 2984 2896 2766 2606 2526 2363 2383 2232 2126 2060 1810 1797 1682 1603 1507 1423 1452 1281 1201 1163 1104 1142 1136 1139 1066 1066 1012 1035 994 1039 1078 1009 1048 1077 1044 1037 1067 1102 1141 1099 1113 1133 1103 1128 1180 1059 1142 1167 1130 1151 1120 1133 1066 1120 1148 1024 1057 1032 1057 1027 949 976 952 947 896 938 887 915 833 876 782 844 814 786 761 830 803 813 770 760 821 815 724 776 761 740 762 719 780 710 771 726 718 735 719 729 707 720 765 721 689 716 684 709 713 760 739 688 693 734 705 720 669 710 626 707 719 648 628 663 705 631 680 644 701 644 630 655 653 650 633 636 635 619 652 645 641 640 628 641 584 637 578 656 617 639 617 612 641 593 616 639 656 584 610 598 596 592 609 626 659 595 596 583 573 660 607 604 615 608 654 611 603 645 600 640 638 623 659 662 636 634 638 613 613 634 710 621 705 664 676 681 716 678 713 682 705 716 716 743 759 727 716 794 737 750 730 729 774 738 823 781 795 779 789 821 778 823 852 776 787 732 751 813 695 713 675 690 675 756 698 704 708 726 682 669 639 659 633 609 632 569 627 631 598 627 616 626 610 612 616 587 609 591 584 597 587 600 667 578 590 649 605 609 591 604 571 543 604 565 667 606 597 597 582 606 595 611 631 577 589 561 576 612 562 605 600 590 610 588 595 595 588 584 574 623 563 565 577 565 552 594 584 561 543 571 576 560 581 557 610 607 530 548 558 583 556 569 591 585 582 587 585 553 607 548 574 569 618 593 566 652 502 600 597 583 576 583 601 513 530 538 578 557 561 558 565 547 592 555 606 584 562 558 575 531 552 569 563 587 606 561 582 621 544 589 570 535 545 542 541 560 544 590 596 571 564 563 515 547 553 596 564 575 553 522 602 555 593 553 563 548 549 540 561 528 533 511 542 529 595 568 585 555 557 544 522 527 512 558 522 564 558 536 562 552 544 583 546 606 585 564 540 575 536 538 581 571 542 575 568 572 555 575 535 579 521 550 556 532 558 575 553 552 554 565 584 552 542 576 560 568 563 540 611 540 555 548 517 570 504 556 573 559 559 513 516 530 521 561 554 515 540 511 582 523 508 504 532 554 541 552 543 533 534 526 543 543 570 518 589 574 524 499 574 546 539 573 558 553 538 512 530 563 541 577 543 519 503 493 523 490 571 529 570 531 555 546 522 547 537 542 537 537 590 533 564 555 545 512 560 543 552 541 562 537 543 539 561 552 550 542 543 564 543 517 580 494 567 522 554 542 588 555 562 552 571 544 567 549 539 540 520 525 522 520 571 528 489 508 560 505 529 547 554 535 559 551 501 494 488 544 519 554 524 499 492 564 493 552 526 495 487 533 512 523 511 547 576 534 554 520 552 545 527 538 564 505 522 537 588 519 508 547 531 510 515 534 516 494 513 535 546 568 576 572 528 544 496 559 536 527 516 549 499 490 524 516 558 552 551 548 532 509 508 564 501 559 500 594 564 493 533 541 531 513 473 527 539 512 566 519 529 527 518 539 535 516 541 563 522 545 539 538 522 588 569 575 528 516 531 518 558 465 528 498 543 499 546 531 535 520 515 516 496 564 525 522 521 554 546 559 477 500 550 510 525 494 507 532 477 548 482 506 520 530 545 527 486 525 537 557 515 539 525 563 557 491 554 523 547 527 572 554 494 556 570 518 541 546 550 558 532 538 529 536 571 488 513 506 543 598 521 539 568 541 551 580 588 583 549 547 534 550 531 547 547 527 568 581 556 596 599 560 567 604 593 620 588 604 574 623 570 615 594 553 606 540 591 536 592 605 564 610 572 566 589 566 619 593 588 598 609 559 553 549 595 616 598 580 662 615 605 659 633 631 620 691 635 690 685 756 772 759 829 819 853 897 935 888 895 931 954 1001 974 1003 1014 1058 1048 1104 1211 1149 1093 1175 1203 1263 1226 1197 1230 1205 1177 1182 1168 1151 1103 1097 1064 1117 1052 1008 1052 1038 939 967 900 890 887 851 867 792 836 784 755 756 741 686 751 679 682 639 657 664 690 648 669 658 644 668 722 711 691 665 699 670 765 747 714 777 719 756 763 781 800 762 754 846 806 815 789 825 829 819 836 883 900 891 817 801 765 820 797 780 801 817 776 795 750 753 805 733 739 741 745 709 685 687 699 673 621 650 690 645 620 595 635 665 633 683 643 606 604 541 600 575 602 549 604 575 555 577 557 590 592 604 565 590 550 558 560 553 560 553 583 567 535 563 543 543 568 592 583 542 569 584 572 549 611 506 564 577 573 536 591 538 512 560 560 590 549 566 551 537 557 556 544 560 553 598 515 581 541 605 538 554 579 534 537 566 536 583 547 568 506 526 553 567 546 519 542 508 545 515 554 603 576 531 579 549 502 532 522 574 525 568 565 526 568 542 552 562 526 527 568 584 558 546 540 531 535 590 563 544 557 600 535 547 560 567 536 555 611 556 570 590 563 653 610 629 632 601 652 636 631 671 684 692 679 749 791 795 844 787 804 816 866 882 880 934 1037 1061 990 1098 1081 1099 1052 1126 1117 1109 1149 1187 1161 1124 1229 1240 1244 1207 1240 1201 1117 1101 1127 1090 1136 1081 1033 978 959 967 923 951 908 893 878 825 863 819 768 775 749 745 729 719 646 667 685 659 652 597 612 610 612 605 584 630 597 635 577 593 593 585 558 583 603 592 573 594 611 606 645 621 619 576 631 563 591 639 634 669 612 640 605 634 593 603 650 635 566 583 620 638 587 621 588 624 578 584 613 569 565 562 557 574 567 568 576 532 591 542 583 500 566 531 572 520 552 551 504 567 555 549 566 530 601 546 522 528 557 553 494 529 546 520 555 571 584 547 577 556 550 546 550 564 580 520 575 565 515 539 535 519 569 557 526 563 511 533 573 519 563 537 512 521 520 535 547 567 484 489 518 547 555 530 523 530 497 564 559 546 538 540 572 553 604 599 550 533 601 589 555 585 593 587 553 631 667 587 664 601 645 584 624 607 655 678 655 645 661 663 615 652 615 643 617 659 654 573 667 651 621 577 616 612 601 601 569 606 565 571 636 578 526 543 552 561 557 528 547 520 493 479 527 520 540 529 534 528 535 457 478 493 515 536 529 523 511 473 473 489 472 540 504 563 505 487 498 510 483 480 484 520 513 510 493 516 496 483 475 529 550 497 492 483 476 477 489 517 481 506 545 510 526 477 525 452 464 512 529 514 493 499 512 516 484 512 489 470 522 494 509 502 487 465 518 462 505 458 450 494 513 505 504 476 491 497 508 511 517 551 498 499 487 525 487 517 493 556 512 509 511 497 499 503 487 517 479 523 495 521 514 490 465 501 502 492 522 465 473 521 492 530 478 480 480 458 472 492 458 495 475 496 474 449 512 489 481 505 451 522 518 480 492 506 481 482 451 503 462 490 471 474 558 468 485 502 462 516 492 443 464 507 452 498 491 475 516 443 475 456 512 485 533 489 459 526 467 505 458 507 513 454 472 470 465 503 490 485 530 518 483 479 506 479 494 475 505 476 472 461 417 461 480 509 471 473 434 444 507 504 468 474 475 447 460 471 459 487 462 452 505 476 510 476 455 479 488 464 464 502 491 474 459 477 459 467 459 487 458 468 470 457 466 502 475 486 472 446 476 480 492 484 481 509 518 501 475 473 451 455 519 496 496 492 498 466 475 477 433 436 475 506 480 485 504 472 480 458 468 491 500 492 490 459 464 481 479 489 510 476 489 473 463 453 482 451 479 438 514 459 448 454 456 498 472 466 486 466 493 458 446 459 464 464 458 493 477 477 500 462 503 445 500 475 440 411 489 487 477 480 479 484 468 480 456 442 482 415 441 481 453 466 451 504 497 441 472 480 476 469 470 459 463 445 467 446 477 464 454 455 475 465 457 444 477 496 469 504 465 486 489 485 472 498 466 496 505 466 477 469 450 501 483 435 485 506 519 451 476 479 495 465 452 473 461 477 455 519 454 441 493 459 474 500 504 461 514 498 506 504 459 458 510 492 505 462 467 496 475 448 478 493 437 491 477 459 529 498 489 491 461 492 452 458 484 510 492 433 470 479 464 469 469 503 477 459 517 489 497 503 470 487 519 476 562 514 501 548 552 546 528 552 548 586 558 530 548 551 541 546 504 540 553 532 547 509 561 577 547 549 572 550 583 537 594 520 554 544 474 561 493 508 523 565 519 476 499 497 561 535 494 482 459 492 499 468 450 520 485 497 518 506 475 489 445 468 465 462 471 470 440 481 499 480 450 448 488 458 471 453 483 501 464 477 469 487 458 466 467 496 482 459 459 433 422 472 453 470 436 463 455 504 451 432 489 432 493 451 469 444 455 487 461 479 443 446 464 508 526 472 498 459 498 501 520 476 467 477 492 455 486 470 468 507 455 494 503 449 460 520 454 471 451 459 462 469 469 473 461 470 447 468 502 460 456 477 446 438 449 487 459 513 455 433 462 489 456 457 507 480 486 469 451 475 433 457 477 475 510 457 474 450 452 430 476 491 488 490 457 489 505 475 469 454 460 482 484 420 471 441 503 448 471 487 494 468 426 486 453 473 476 446 446 481 495 467 460 438 476 486 479 456 457 462 438 490 463 449 474 467 478 474 445 463 476 468 462 478 480 464 470 433 445 475 489 478 500 483 428 438 522 484 479 439 429 480 458 478 437 483 514 492 500 488 442 526 516 499 503 480 462 521 502 532 531 476 506 470 494 544 526 495 478 520 506 481 530 518 505 542 489 537 516 548 532 559 524 524 552 552 563 604 600 575 616 621 643 630 653 634 684 676 690 692 717 705 732 684 719 716 693 731 705 720 700 702 693 695 718 770 734 671 736 696 704 720 701 687 710 680 642 649 694 692 652 648 653 671 645 658 608 635 623 593 608 605 550 576 567 589 578 591 529 545 556 550 560 482 520 577 523 506 513 551 509 510 537 536 520 590 509 495 562 484 514 539 525 514 504 561 528 531 513 541 503 538 530 560 602 563 541 550 591 600 577 601 611 645 647 629 639 660 692 724 708 706 670 689 700 656 669 658 671 629 613 672 614 690 663 689 634 640 683 683 633 635 641 604 611 616 589 581 573 580 565 632 572 589 521 550 576 540 533 547 513 553 524 533 500 517 479 468 502 531 479 468 474 477 457 499 529 423 471 472 435 507 481 498 504 481 498 500 497 450 431 435 481 490 465 490 476 474 498 469 494 463 492 461 482 455 471 476 488 466 436 502 473 461 503 449 508 446 533 490 469 471 463 462 498 460 489 515 484 478 439 497 450 457 476 470 473 488 484 482 510 505 493 503 462 446 484 460 472 472 460 462 481 440 471 501 491 488 451 469 465 486 460 514 460 426 454 508 455 458 497 491 472 493 492 480 459 473 447 456 459 431 472 410 415 439 446 480 475 464 430 447 437 462 486 436 479 453 441 520 437 472 469 464 461 480 473 425 464 466 456 455 454 463 440 472 457 469 464 409 482 459 492 467 443 428 447 458 453 474 486 414 430 480 449 445 451 453 475 485 449 440 460 449 472 460 467 472 440 460 426 457 462 468 457 468 470 459 484 472 434 433 478 422 476 453 447 475 470 468 510 456 455 455 466 437 527 421 466 490 493 483 443 470 469 459 453 435 424 485 435 511 449 492 494 428 491 465 480 480 460 459 444 489 460 469 463 504 461 512 475 473 496 494 423 472 454 501 435 487 452 496 426 473 467 474 470 459 465 420 454 438 447 453 455 494 433 439 468 452 456 490 461 415 487 482 478 480 478 447 446 461 484 511 408 475 429 493 496 443 445 461 431 470 425 429 476 436 450 460 453 439 448 446 443 476 467 475 481 476 442 484 417 437 455 458 475 490 457 515 433 465 495 468 450 478 464 487 447 467 469 483 434 443 454 426 456 452 472 497 461 448 513 452 446 458 403 484 420 445 430 469 468 457 467 480 479 474 492 472 480 423 420 424 451 438 470 454 495 456 442 451 508 462 472 452 448 448 458 468 485 454 454 454 466 476 495 454 487 483 485 459 505 450 425 435 443 431 432 438 433 428 442 453 439 431 479 441 504 510 471 452 466 461 463 425 451 430 420 491 402 464 500 452 500 461 484 435 478 472 461 407 474 467 475 462 500 459 455 443 456 458 477 454 472 509 434 476 441 401 482 415 484 486 430 445 469 425 479 473 482 467 485 419 473 468 483 448 431 466 481 469 486 470 514 495 458 483 444 467 488 497 460 453 480 438 477 469 487 475 451 471 498 486 518 457 519 467 511 471 501 463 508 466 501 503 523 487 522 525 525 524 505 527 530 546 495 488 535 567 482 514 534 522 512 520 503 535 520 510 503 515 553 477 525 541 514 513 542 539 551 507 545 529 554 546 548 526 567 550 523 557 609 556 579 559 552 554 666 605 596 568 599 570 630 599 534 602 623 671 595 656 624 672 611 631 659 657 645 637 653 638 654 625 674 630 619 613 590 668 620 582 589 619 575 567 597 531 625 576 585 570 555 544 582 554 545 534 557 538 512 518 484 510 508 540 542 519 494 452 511 488 511 474 476 516 520 513 469 474 460 506 486 486 500 511 467 498 490 466 469 481 494 487 432 495 532 509 493 522 492 509 483 535 535 529 477 504 517 547 541 513 551 489 502 495 476 501 518 542 537 524 533 561 523 579 535 522 539 544 501 549 581 562 556 509 544 546 566 621 587 535 518 509 557 534 534 528 555 552 569 566 484 453 546 464 528 525 529 507 549 541 501 524 479 504 528 478 483 508 489 500 477 514 482 511 481 504 511 543 472 519 473 478 510 508 490 507 495 495 516 509 522 512 518 503 526 536 516 506 529 476 522 538 521 533 498 516 552 563 516 584 535 511 579 584 581 584 596 617 598 593 618 617 545 625 631 548 642 620 705 705 682 680 677 761 727 786 706 763 756 830 799 804 856 833 852 893 836 875 905 892 897 970 1038 989 924 982 936 1017 967 950 1012 923 973 923 976 925 972 929 982 926 884 898 892 888 883 806 895 825 864 842 815 750 753 772 755 728 775 723 738 670 654 717 679 663 660 642 607 606 628 617 610 588 593 583 621 599 537 564 499 510 575 570 512 537 519 557 549 519 588 510 543 509 547 496 535 564 591 535 520 563 509 492 539 525 543 537 522 580 524 529 536 566 578 546 534 595 574 568 559 533 606 555 574 619 583 592 584 588 636 635 586 646 687 608 617 586 624 609 609 628 639 620 608 645 635 602 582 664 594 618 615 615 618 614 601 565 610 594 607 615 542 610 562 574 579 569 570 572 541 534 548 535 569 561 554 562 529 564 551 564 551 547 531 545 546 559 523 499 584 539 522 521 539 495 574 516 535 530 537 551 523 517 534 544 547 540 559 526 526 529 510 546 500 533 502 552 522 510 515 510 494 494 534 510 570 484 487 510 535 511 514 523 471 473 555 468 492 514 509 490 514 488 519 469 465 456 455 483 530 502 491 545 479 515 468 471 470 464 496 436 466 465 443 484 486 485 482 470 454 453 494 443 473 446 477 497 487 477 465 472 464 487 489 458 449 480 463 506 481 476 477 480 424 479 480 441 469 423 484 481 473 478 454 457 453 475 477 497 471 418 462 478 462 488 465 475 425 505 499 476 449 472 508 457 487 481 445 462 488 508 450 461 427 460 476 491 476 448 488 445 420 490 499 497 483 457 460 458 436 452 438 492 450 464 474 484 445 485 424 469 503 455 468 487 488 466 447 468 448 471 473 458 465 452 477 441 455 443 464 507 446 465 505 502 453 464 451 447 462 431 447 454 425 455 490 442 446 460 467 479 457 480 496 453 464 454 446 489 510 446 461 449 488 454 499 491 472 460 414 425 467 484 468 500 447 440 469 475 468 445 487 475 489 468 470 443 466 450 478 499 454 480 493 441 447 430 448 466 473 503 490 479 475 442 440 457 450 466 478 459 476 502 467 472 477 463 416 479 478 459 466 462 471 454 415 467 445 453 447 430 466 452 475 448 394 465 447 457 459 437 438 468 426 481 451 473 449 434 470 511 473 457 473 472 478 471 442 448 474 497 485 466 472 454 432 470 435 441 458 419 453 465 423 459 450 388 469 459 467 476 449 447 463 436 436 455 466 472 466 483 518 462 456 446 450 421 408 469 441 487 436 478 410 474 453 449 437 471 463 495 448 420 436 454 464 435 453 453 447 447 434 435 463 474 480 453 430 459 437 478 451 423 466 466 459 465 434 443 484 443 474 467 433 443 485 448 505 447 447 444 449 456 508 466 459 425 484 458 470 466 414 447 455 479 481 471 467 459 453 465 438 497 432 488 513 447 459 521 459 485 465 454 478 482 485 473 457 449 446 497 499 494 445 493 533 493 468 479 509 517 525 488 527 486 536 480 472 532 475 485 500 482 510 480 521 500 477 526 481 490 531 476 508 498 489 550 519 543 527 511 508 508 500 488 514 477 527 505 463 471 503 461 477 448 476 491 473 435 516 461 439 482 504 467 435 463 467 445 431 456 481 414 448 479 474 505 473 460 410 431 450 453 443 452 464 486 457 486 436 465 467 492 452 431 460 487 474 430 503 462 455 459 478 430 458 470 457 466 489 462 474 481 447 464 466 458 434 454 463 440 465 435 478 450 449 472 487 439 436 491 455 476 485 508 474 453 502 467 434 461 445 470 483 425 474 430 486 472 451 448 463 467 494 436 468 522 442 462 451 474 467 469 440 421 443 463 426 453 461 444 432 486 436 445 475 479 470 453 483 473 447 488 430 462 483 468 449 486 437 447 482 432 484 486 496 439 435 463 438 478 452 512 485 472 479 407 440 488 475 437 481 430 471 481 476 480 428 456 516 471 480 484 507 438 490 432 435 492 475 497 472 452 507 472 440 483 448 443 435 446 513 442 488 487 477 503 488 487 505 499 505 483 501 503 488 554 494 494 527 483 523 529 475 545 524 543 556 507 479 499 529 552 494 537 547 538 569 553 590 620 560 589 589 563 589 582 621 625 660 670 656 685 687 747 707 732 773 762 731 759 769 784 794 852 825 860 830 803 818 793 858 827 831 829 824 835 773 877 804 824 796 793 788 826 784 759 750 781 764 724 757 735 735 746 782 649 729 740 655 728 673 710 663 660 667 647 628 583 622 664 597 584 593 612 590 575 558 574 541 571 525 587 564 538 550 557 517 544 529 531 491 547 496 507 544 494 526 485 512 521 532 521 506 494 488 504 484 501 476 501 500 442 498 483 493 496 483 448 484 501 508 471 467 454 526 504 477 469 504 526 488 521 543 534 499 530 503 517 502 511 530 516 568 559 534 557 557 556 556 537 569 562 567 558 526 597 584 593 594 575 545 563 629 595 622 602 579 556 579 596 565 566 589 620 540 573 603 552 528 569 531 565 563 571 535 529 532 556 567 605 539 563 568 520 564 563 561 525 522 460 565 504 558 537 531 492 541 508 498 481 538 486 523 492 500 530 508 531 510 486 533 501 497 530 470 478 520 476 483 491 499 472 458 521 485 459 428 506 484 464 493 495 454 478 485 469 483 470 501 485 486 468 516 503 448 480 513 467 501 470 478 464 496 457 466 484 441 492 524 474 466 479 491 450 506 467 495 460 463 481 445 469 484 492 471 489 455 449 477 442 467 439 536 462 447 467 431 439 433 464 455 438 470 468 503 481 468 511 497 473 475 480 473 445 485 492 486 478 496 467 439 450 461 470 471 441 491 450 457 472 436 429 503 445 432 447 483 473 460 450 446 485 494 486 484 485 435 477 467 501 455 478 459 438 444 426 413 493 489 506 431 461 488 469 467 460 449 479 459 450 476 412 429 467 487 469 452 489 461 425 461 493 421 447 495 466 446 459 439 500 458 447 443 468 427 460 472 456 438 464 448 447 469 421 462 455 487 409 461 442 437 429 439 444 472 444 468 461 454 482 478 476 479 436 450 457 469 451 458 429 444 466 421 459 439 488 444 462 513 465 479 456 475 481 447 462 437 486 451 464 413 428 470 473 445 421 413 410 456 446 452 454 450 439 445 452 480 486 464 446 400 430 432 439 462 437 450 467 473 478 444 466 435 501 465 466 513 471 455 434 455 455 503 462 482 439 453 432 493 417 472 411 448 458 473 477 478 466 487 456 474 451 463 480 436 415 460 475 463 436 434 445 469 426 406 473 456 503 479 440 425 487 444 459 441 474 451 470 467 446 461 440 432 462 480 425 482 437 451 461 413 446 465 436 436 428 422 476 473 438 439 479 459 466 506 462 441 447 407 469 499 512 455 461 448 461 463 492 465 463 445 447 449 435 453 395 476 463 473 469 448 437 447 456 451 431 434 461 480 454 488 439 425 484 491 452 484 439 430 436 526 479 458 475 476 471 464 439 474 474 496 469 462 470 496 443 471 472 452 465 444 467 534 476 516 485 506 506 476 470 490 467 481 532 457 482 468 495 545 485 500 488 520 548 528 527 546 509 545 542 567 547 540 551 540 551 569 558 536 597 533 519 507 537 544 563 592 598</counts>
			</dataPoints>
		</scan>
	</xrdMeasurement>
</xrdMeasurements>
