<?xml version="1.0"?>
<xrdMeasurements xmlns="http://www.xrdml.com/XRDMeasurement/2.3" xmlns:xsi="http://www.w3.org/2001/XMLSchema-instance" xsi:schemaLocation="http://www.xrdml.com/XRDMeasurement/2.3 http://www.xrdml.com/XRDMeasurement/2.3/XRDMeasurement.xsd" status="Completed" recordIdentifier="{6AEADAE4-7B03-4617-91BB-7ABD0A47D12D}">
	<comment>
		<entry/>
	</comment>
	<sample type="To be analyzed">
		<id>GPSS_Li1p7Fe0p7Mn0p2Ta0p1Cl4_112425_69248ac4f4e53d1f723993ce</id>
		<name></name>
		<preparedBy></preparedBy>
	</sample>
	<xrdMeasurement measurementType="Scan" status="Completed" sampleMode="Reflection">
		<usedWavelength intended="K-Alpha 1">
			<kAlpha1 unit="Angstrom">1.5405980</kAlpha1>
			<kAlpha2 unit="Angstrom">1.5444260</kAlpha2>
			<kBeta unit="Angstrom">1.3922500</kBeta>
			<ratioKAlpha2KAlpha1>0.5000</ratioKAlpha2KAlpha1>
		</usedWavelength>
		<incidentBeamPath>
			<radius unit="mm">145.00</radius>
			<xRayTube id="1010048" name="Empyrean Cu LFF HR (9430 033 7310x)">
				<tension unit="kV">40.0</tension>
				<current unit="mA">15.0</current>
				<anodeMaterial>Cu</anodeMaterial>
				<focus type="Line">
					<length unit="mm">12.0</length>
					<width unit="mm">0.4</width>
					<takeOffAngle unit="deg">6.0</takeOffAngle>
				</focus>
			</xRayTube>
			<sollerSlit id="21010002" name="Soller slits 0.04 rad.">
				<opening unit="rad">0.0400</opening>
			</sollerSlit>
			<mask id="22031000" name="Fixed mask 13 mm">
				<width unit="mm">9.00</width>
			</mask>
			<divergenceSlit id="22120001" name="Divergence slit 1°" xsi:type="fixedDivergenceSlitType">
				<distanceToSample unit="mm">50.00</distanceToSample>
				<height unit="mm">1.52</height>
			</divergenceSlit>
		</incidentBeamPath>
		<sampleMovement xsi:type="spinningSampleMovementType">
			<spinnerRevolutionTime unit="seconds">1.0</spinnerRevolutionTime>
		</sampleMovement>
		<diffractedBeamPath>
			<radius unit="mm">145.00</radius>
			<antiScatterSlit id="22090040" name="AS slit 9 mm (PIXcel)" xsi:type="fixedAntiScatterSlitType">
				<height unit="mm">9.00</height>
			</antiScatterSlit>
			<sollerSlit id="21020003" name="Large Soller slits 0.04 rad.">
				<opening unit="rad">0.0400</opening>
			</sollerSlit>
			<filter id="20030001" name="Large beta-filter Nickel">
				<material>Ni</material>
				<thickness unit="mm">0.020</thickness>
			</filter>
			<detector id="7010019" name="PIXcel1D-Medipix3 detector" xsi:type="rtmsDetectorType">
				<phd unit="keV">
					<lowerLevel>4.02</lowerLevel>
					<upperLevel>11.27</upperLevel>
				</phd>
				<mode>Scanning</mode>
				<activeLength unit="deg">5.542</activeLength>
			</detector>
		</diffractedBeamPath>
		<scan appendNumber="0" mode="Continuous" scanAxis="Gonio" status="Completed">
			<header>
				<startTimeStamp>2025-11-27T09:12:12-08:00</startTimeStamp>
				<endTimeStamp>2025-11-27T09:20:20-08:00</endTimeStamp>
				<author>
					<name>AutomatedUser</name>
				</author>
				<source>
					<applicationSoftware version="1.7b (136)">PANalytical Aeris Instrument Suite</applicationSoftware>
					<instrumentControlSoftware version="3.2.00000000 20240306">AERIS</instrumentControlSoftware>
					<instrumentID>950485</instrumentID>
				</source>
			</header>
			<dataPoints>
				<positions axis="2Theta" unit="deg">
					<startPosition>10.00943322</startPosition>
					<endPosition>99.99442286</endPosition>
				</positions>
				<positions axis="Omega" unit="deg">
					<startPosition>5.00471661</startPosition>
					<endPosition>49.99721143</endPosition>
				</positions>
				<commonCountingTime unit="seconds">12.495</commonCountingTime>
				<counts unit="counts">2600 2621 2660 2558 2567 2631 2670 2539 2534 2640 2550 2757 2575 2644 2499 2514 2633 2509 2610 2581 2506 2578 2692 2544 2605 2584 2639 2614 2677 2652 2612 2635 2569 2647 2596 2669 2601 2730 2608 2669 2624 2689 2671 2747 2703 2703 2631 2692 2666 2676 2760 2674 2608 2730 2598 2647 2642 2650 2685 2647 2750 2630 2628 2668 2608 2641 2712 2808 2639 2717 2604 2669 2686 2666 2722 2686 2724 2707 2763 2724 2654 2711 2658 2696 2619 2751 2698 2738 2796 2718 2809 2786 2688 2712 2819 2796 2896 2736 2762 2752 2738 2799 2798 2731 2816 2813 2775 2715 2746 2810 2948 2826 2851 2895 2775 2829 2765 2772 2770 2802 2787 2920 2916 2830 2810 2797 2788 2828 2858 2892 2920 2790 2838 2930 2933 2901 2812 2861 2864 2826 2984 2865 3001 2825 2835 2882 2894 2874 2960 2934 2938 2946 3032 3059 2988 2879 2830 2941 2924 2920 2880 2956 2937 2961 2955 2945 2945 2894 2955 3009 2844 2944 2855 2872 2882 2869 2975 2840 2930 2882 2881 2911 2947 2931 2900 2857 2849 2883 2884 2939 2949 3055 2912 2929 2958 2867 2986 2912 2858 2945 3054 2898 2835 2922 2838 2895 2857 2927 2782 2920 2886 2966 2825 2892 2920 2927 2940 2877 2934 3024 2917 2937 2925 2892 2785 2910 2789 2907 2983 2869 2969 2829 2821 2734 2972 2852 2845 2888 2929 2781 2896 2830 2864 2907 2901 2826 2789 2840 2814 2867 2831 2880 2732 2781 2743 2799 2786 2814 2927 2780 2737 2870 2791 2626 2755 2749 2694 2783 2837 2803 2766 2813 2759 2795 2770 2757 2742 2756 2733 2762 2762 2777 2761 2788 2736 2701 2738 2769 2695 2759 2730 2710 2770 2762 2797 2686 2676 2696 2840 2716 2725 2726 2675 2688 2667 2710 2727 2825 2761 2724 2714 2799 2723 2680 2784 2724 2725 2700 2689 2678 2612 2734 2769 2630 2717 2653 2668 2766 2774 2764 2639 2642 2732 2699 2655 2705 2730 2636 2768 2653 2659 2847 2751 2692 2763 2769 2697 2742 2765 2731 2761 2685 2638 2618 2782 2759 2754 2799 2639 2727 2748 2679 2765 2792 2735 2648 2687 2709 2757 2716 2787 2684 2701 2698 2647 2803 2743 2762 2666 2733 2801 2728 2783 2838 2879 2818 2829 2796 2791 2719 2687 2800 2880 2875 2847 2718 2734 2809 2734 2754 2780 2786 2823 2822 2774 2770 2745 2749 2814 2728 2888 2804 2842 2833 2923 2718 2872 2854 2755 2817 2822 2864 2790 2787 2848 2878 2760 2844 2765 2892 2845 2881 2847 2912 2855 2889 2878 2831 2891 2863 2896 2902 2928 2856 2848 2935 2911 2894 2895 2914 2952 2925 2953 2932 2984 3058 2962 2972 2903 2900 2962 2868 2935 2950 2983 2943 2896 2967 2860 2952 2944 2920 2956 2891 3004 2980 2955 3032 2882 2937 3037 2916 2998 3061 3050 3096 2937 3065 2996 3051 3104 2980 2995 3042 3009 3004 3012 2955 3038 2915 3076 3001 3056 3085 3040 2955 2889 3047 3020 3087 2990 3031 2930 3010 2890 3020 2924 2891 2914 2987 2919 2905 2863 2982 2924 2871 2889 2950 2867 2767 2878 2841 2825 2839 2893 2809 2716 2776 2848 2781 2805 2913 2819 2751 2768 2717 2731 2753 2817 2735 2766 2726 2713 2681 2698 2775 2651 2659 2743 2694 2722 2671 2641 2647 2696 2721 2724 2608 2640 2666 2622 2603 2693 2633 2623 2605 2560 2652 2574 2557 2641 2671 2726 2650 2579 2624 2524 2603 2653 2649 2539 2587 2637 2674 2566 2518 2587 2536 2628 2694 2609 2510 2628 2631 2507 2604 2509 2541 2640 2583 2536 2569 2620 2555 2513 2469 2534 2539 2611 2537 2590 2415 2426 2425 2466 2515 2527 2617 2482 2452 2582 2555 2566 2518 2427 2558 2524 2483 2477 2599 2492 2450 2601 2428 2523 2412 2516 2512 2463 2555 2532 2439 2435 2521 2523 2394 2428 2447 2432 2522 2488 2453 2507 2396 2528 2476 2393 2531 2505 2531 2479 2525 2486 2486 2446 2413 2499 2440 2535 2407 2459 2421 2447 2410 2451 2481 2458 2438 2468 2467 2484 2383 2504 2368 2491 2447 2487 2428 2445 2447 2512 2529 2513 2380 2418 2325 2478 2446 2432 2457 2342 2459 2469 2429 2478 2368 2314 2230 2373 2383 2409 2468 2415 2499 2464 2464 2341 2353 2452 2413 2423 2352 2360 2342 2464 2430 2501 2461 2434 2453 2347 2356 2482 2437 2403 2430 2425 2437 2483 2487 2401 2312 2389 2435 2395 2364 2445 2337 2427 2376 2344 2378 2370 2317 2388 2484 2369 2398 2447 2423 2362 2404 2362 2469 2333 2374 2405 2474 2340 2331 2436 2381 2367 2347 2385 2379 2331 2404 2371 2249 2379 2417 2337 2421 2372 2370 2426 2353 2382 2254 2378 2373 2361 2325 2421 2416 2349 2314 2425 2393 2376 2344 2381 2294 2421 2302 2381 2410 2365 2244 2396 2379 2341 2344 2342 2389 2431 2284 2311 2384 2284 2368 2389 2361 2387 2284 2356 2384 2402 2393 2369 2358 2376 2332 2368 2312 2356 2352 2270 2342 2345 2313 2368 2390 2359 2194 2373 2251 2362 2285 2332 2331 2352 2344 2354 2300 2310 2295 2353 2361 2411 2289 2363 2353 2339 2392 2366 2313 2321 2355 2420 2277 2387 2251 2252 2343 2281 2243 2263 2313 2412 2265 2268 2292 2347 2385 2322 2247 2283 2412 2263 2345 2342 2299 2331 2353 2336 2257 2293 2331 2220 2261 2345 2380 2299 2309 2293 2358 2311 2340 2197 2261 2166 2289 2202 2360 2369 2310 2269 2246 2275 2339 2239 2325 2238 2236 2264 2305 2311 2258 2326 2205 2171 2314 2250 2303 2275 2355 2265 2329 2280 2244 2206 2296 2230 2279 2303 2275 2233 2315 2298 2275 2265 2284 2275 2319 2307 2258 2271 2256 2301 2281 2298 2207 2235 2282 2279 2207 2252 2221 2339 2234 2282 2334 2243 2142 2310 2206 2264 2226 2286 2155 2338 2336 2226 2263 2279 2216 2209 2264 2347 2264 2230 2228 2264 2278 2241 2160 2215 2223 2182 2208 2248 2201 2269 2152 2136 2317 2170 2249 2310 2261 2336 2170 2234 2299 2246 2229 2235 2252 2184 2187 2320 2254 2321 2176 2282 2301 2250 2250 2290 2261 2264 2252 2239 2216 2192 2286 2289 2211 2214 2236 2268 2257 2270 2220 2186 2223 2248 2285 2246 2266 2360 2196 2331 2257 2227 2245 2286 2322 2247 2300 2223 2184 2265 2235 2317 2234 2200 2214 2199 2208 2179 2311 2266 2248 2268 2224 2291 2301 2148 2337 2209 2222 2198 2252 2236 2238 2315 2126 2203 2195 2258 2194 2343 2242 2277 2177 2252 2263 2257 2304 2180 2291 2322 2245 2254 2259 2242 2343 2258 2169 2270 2268 2361 2192 2245 2204 2217 2211 2305 2196 2310 2271 2240 2279 2315 2299 2253 2202 2277 2173 2199 2334 2206 2296 2236 2299 2310 2193 2249 2219 2224 2249 2200 2186 2141 2221 2205 2217 2263 2189 2163 2195 2197 2200 2208 2205 2208 2208 2268 2253 2162 2152 2233 2371 2212 2206 2189 2141 2151 2167 2105 2114 2161 2261 2139 2183 2135 2097 2224 2173 2157 2188 2209 2145 2144 2197 2145 2248 2248 2127 2130 2144 2129 2162 2131 2210 2134 2074 2070 2082 2127 2161 1997 2106 2056 2002 2075 2003 2164 2055 2111 2113 2004 2086 2146 2131 2007 2019 2113 2026 2084 2111 2047 2062 2063 1968 2040 2021 1990 2078 2049 2014 2013 1991 2052 2074 2129 2048 1970 2012 1963 1968 2005 1958 1948 1922 1964 1940 2012 2018 1996 2075 1987 2031 2014 2034 2017 1930 1987 1995 2002 1936 1879 2032 1954 1944 1908 1892 2028 1904 1983 1832 1933 1880 1980 1958 1887 1885 1974 1961 1902 1893 1898 1903 1940 1857 1891 1834 1874 1952 1946 1852 1899 1886 1912 1945 1909 1854 1870 1937 1901 1917 1901 1852 1891 1787 1825 1918 1869 1833 1829 1868 1890 1820 1854 1790 1832 1802 1907 1791 1876 1786 1812 1879 1860 1831 1813 1881 1881 1868 1853 1819 1832 1781 1855 1880 1886 1768 1847 1801 1795 1735 1767 1792 1739 1873 1728 1837 1880 1836 1787 1841 1779 1848 1842 1810 1812 1744 1813 1838 1835 1780 1791 1862 1814 1797 1844 1846 1674 1831 1821 1787 1828 1849 1767 1752 1767 1894 1790 1815 1829 1852 1804 1810 1847 1744 1762 1716 1863 1714 1782 1770 1696 1802 1761 1767 1823 1785 1846 1779 1839 1707 1829 1873 1873 1754 1755 1785 1753 1817 1744 1875 1712 1833 1791 1791 1785 1768 1828 1776 1738 1829 1850 1748 1738 1767 1805 1800 1752 1762 1850 1758 1751 1734 1736 1810 1777 1755 1796 1769 1744 1738 1750 1826 1793 1788 1754 1774 1830 1845 1796 1784 1752 1810 1809 1751 1816 1792 1821 1808 1763 1767 1813 1870 1757 1909 1845 1867 1729 1782 1828 1840 1808 1794 1756 1847 1746 1854 1860 1899 1789 1803 1793 1821 1800 1812 1862 1818 1870 1792 1813 1802 1814 1748 1844 1814 1857 1777 1784 1805 1872 1869 1836 1895 1767 1820 1754 1699 1831 1836 1863 1749 1774 1794 1841 1833 1786 1789 1791 1792 1852 1750 1737 1739 1766 1735 1780 1783 1778 1750 1811 1800 1777 1771 1722 1742 1769 1807 1758 1774 1736 1736 1752 1817 1799 1744 1815 1785 1723 1660 1833 1827 1791 1746 1705 1692 1773 1773 1765 1740 1791 1809 1745 1789 1759 1717 1746 1792 1664 1791 1740 1711 1702 1737 1684 1766 1743 1715 1762 1702 1700 1777 1639 1755 1644 1746 1733 1696 1710 1676 1829 1689 1649 1756 1684 1615 1714 1727 1686 1677 1633 1702 1672 1604 1649 1714 1685 1678 1663 1618 1687 1625 1703 1729 1734 1678 1620 1678 1599 1659 1627 1660 1650 1594 1686 1654 1655 1641 1655 1657 1654 1613 1652 1604 1671 1601 1612 1588 1562 1595 1627 1583 1583 1562 1555 1639 1630 1669 1634 1521 1545 1560 1602 1638 1521 1592 1638 1600 1539 1486 1618 1546 1571 1597 1667 1650 1664 1642 1650 1573 1635 1590 1597 1613 1675 1640 1586 1580 1569 1642 1708 1617 1673 1620 1640 1634 1602 1744 1643 1596 1671 1583 1696 1688 1582 1586 1559 1524 1531 1550 1584 1592 1543 1532 1635 1622 1613 1610 1611 1554 1560 1588 1560 1617 1570 1540 1570 1581 1530 1578 1609 1603 1674 1564 1572 1541 1560 1612 1650 1677 1608 1602 1615 1573 1693 1602 1697 1587 1630 1679 1615 1560 1602 1606 1635 1680 1637 1627 1605 1578 1531 1629 1583 1582 1580 1573 1505 1520 1528 1586 1562 1586 1504 1591 1524 1580 1481 1522 1575 1562 1499 1479 1496 1486 1511 1445 1543 1464 1470 1461 1564 1569 1575 1444 1547 1462 1610 1616 1571 1572 1567 1652 1647 1537 1605 1603 1683 1692 1677 1648 1657 1631 1660 1614 1637 1588 1623 1578 1512 1677 1629 1509 1578 1649 1578 1539 1614 1571 1637 1600 1624 1637 1664 1618 1638 1667 1592 1596 1601 1596 1635 1575 1572 1589 1627 1553 1567 1632 1494 1588 1589 1542 1533 1626 1557 1550 1608 1573 1563 1607 1539 1620 1599 1552 1603 1619 1614 1616 1622 1657 1608 1642 1675 1615 1637 1556 1602 1649 1651 1654 1634 1552 1584 1598 1640 1556 1588 1612 1512 1476 1592 1619 1555 1525 1574 1643 1646 1602 1531 1544 1471 1474 1474 1526 1392 1434 1504 1399 1395 1426 1387 1419 1379 1421 1440 1390 1357 1340 1450 1401 1495 1305 1360 1375 1364 1324 1346 1319 1330 1305 1311 1286 1339 1306 1337 1330 1388 1350 1282 1321 1304 1315 1235 1279 1293 1309 1290 1297 1258 1221 1283 1313 1266 1289 1292 1320 1239 1289 1292 1294 1284 1249 1288 1281 1232 1310 1280 1188 1289 1297 1300 1280 1285 1255 1243 1259 1297 1272 1257 1293 1259 1313 1315 1285 1218 1184 1241 1266 1268 1226 1257 1363 1249 1273 1280 1155 1282 1278 1283 1250 1248 1304 1224 1251 1322 1191 1219 1255 1255 1303 1217 1221 1253 1255 1250 1221 1244 1266 1255 1246 1279 1234 1268 1223 1182 1238 1264 1265 1206 1243 1238 1290 1240 1276 1270 1243 1259 1235 1233 1292 1275 1248 1206 1199 1270 1256 1226 1268 1221 1206 1219 1205 1234 1231 1273 1233 1221 1212 1229 1193 1242 1219 1234 1257 1267 1345 1224 1167 1216 1311 1294 1222 1261 1205 1213 1203 1285 1194 1256 1260 1225 1255 1281 1240 1185 1270 1243 1224 1257 1240 1159 1194 1221 1227 1206 1250 1262 1229 1245 1296 1244 1292 1222 1171 1280 1203 1265 1234 1225 1179 1248 1197 1270 1263 1241 1247 1202 1258 1278 1265 1257 1245 1178 1226 1180 1166 1238 1206 1196 1230 1244 1195 1212 1266 1230 1171 1277 1229 1313 1231 1270 1253 1284 1206 1271 1175 1248 1256 1286 1323 1190 1255 1165 1272 1285 1281 1239 1281 1298 1230 1213 1255 1230 1245 1235 1236 1273 1239 1213 1256 1186 1261 1281 1190 1190 1252 1210 1173 1177 1179 1226 1216 1212 1231 1192 1179 1175 1230 1242 1209 1189 1255 1257 1223 1272 1275 1181 1284 1199 1250 1235 1217 1244 1288 1234 1299 1251 1206 1246 1216 1268 1292 1310 1234 1273 1298 1324 1299 1303 1395 1335 1318 1451 1382 1357 1467 1356 1409 1509 1515 1472 1573 1605 1567 1658 1634 1685 1745 1774 1836 1884 1878 1998 1988 2017 2030 2080 2104 2105 2102 1947 2095 2047 2011 1955 2020 1917 1956 1929 1890 1839 1848 1767 1760 1734 1765 1816 1711 1763 1720 1698 1748 1796 1762 1747 1862 1855 1942 1830 1854 1920 1875 1864 1920 1972 2014 1886 1972 1808 1853 1872 1951 1992 1950 2052 2083 2056 2141 2266 2172 2179 2153 2053 2176 2116 2150 2144 2100 2159 2073 2020 1952 2112 1966 1940 2034 1964 1861 2006 1971 1992 1938 1951 1898 1957 1930 1967 1805 1799 1872 1835 1807 1815 1818 1779 1745 1729 1740 1744 1658 1596 1561 1595 1591 1518 1635 1550 1470 1461 1464 1385 1455 1383 1386 1349 1342 1391 1354 1344 1272 1295 1332 1369 1308 1282 1274 1270 1261 1283 1301 1300 1269 1266 1191 1253 1214 1218 1251 1193 1212 1223 1239 1257 1191 1198 1250 1257 1223 1197 1202 1116 1236 1196 1144 1160 1254 1141 1149 1214 1176 1239 1238 1181 1165 1142 1158 1262 1187 1241 1156 1126 1139 1169 1182 1178 1222 1173 1080 1211 1170 1206 1178 1181 1163 1103 1155 1176 1186 1196 1192 1162 1216 1181 1166 1202 1161 1199 1083 1184 1173 1179 1198 1177 1227 1244 1195 1268 1191 1168 1155 1109 1149 1131 1145 1187 1185 1097 1219 1177 1183 1160 1153 1148 1179 1161 1149 1211 1130 1158 1166 1142 1125 1148 1199 1178 1140 1176 1210 1106 1096 1213 1113 1155 1207 1098 1148 1169 1220 1148 1142 1211 1104 1129 1135 1132 1178 1124 1173 1026 1163 1123 1199 1208 1179 1090 1137 1209 1177 1192 1185 1145 1160 1132 1112 1157 1232 1203 1181 1201 1131 1140 1156 1175 1123 1190 1160 1151 1137 1125 1145 1191 1182 1166 1167 1170 1218 1160 1227 1234 1145 1144 1102 1131 1195 1151 1179 1092 1100 1152 1123 1147 1146 1169 1165 1211 1112 1133 1111 1129 1237 1176 1181 1163 1113 1135 1117 1126 1130 1167 1153 1133 1150 1131 1202 1150 1149 1144 1198 1121 1127 1106 1134 1055 1135 1075 1174 1122 1226 1168 1179 1208 1163 1151 1173 1198 1175 1189 1171 1089 1112 1099 1100 1147 1099 1138 1107 1147 1137 1116 1213 1175 1159 1104 1080 1152 1139 1125 1217 1081 1124 1108 1155 1123 1171 1112 1122 1144 1135 1080 1215 1194 1145 1160 1100 1135 1051 1109 1131 1124 1111 1119 1142 1150 1145 1043 1147 1154 1117 1090 1085 1143 1082 1182 1071 1068 1107 1068 1114 1136 1146 1120 1129 1121 1165 1131 1120 1167 1127 1159 1096 1127 1102 1138 1161 1168 1164 1122 1070 1129 1126 1194 1177 1147 1134 1112 1192 1082 1017 1063 1035 1115 1164 1077 1132 1104 1117 1142 1120 1123 1139 1110 1102 1085 1154 1104 1140 1061 1099 1100 1084 1065 1075 1137 1086 1174 1126 1090 1031 1100 1089 1067 1118 1114 1120 1129 1111 1110 1173 1069 1146 1043 1054 1053 1131 1116 1083 1087 1099 1138 1074 1072 1093 1087 1102 1067 1101 1162 1123 1132 1057 1107 1096 1046 1111 1183 1130 1123 1091 1103 1067 1119 1144 1088 1166 1043 1087 1073 1124 1070 1094 1118 1126 1117 1107 1113 1115 1108 1061 1051 1210 1129 1126 1156 1078 1194 1158 1085 1142 1077 1084 1134 1069 1119 1128 1113 1105 1121 1081 1116 1166 994 1107 1088 1093 1058 1055 1129 1105 1091 1126 1101 1062 1143 1093 1108 1161 1131 1068 1145 1129 1047 1174 1082 1117 1134 1089 1107 1091 1059 1071 1123 1092 1110 1063 1042 1050 1127 1132 1079 1133 1044 1115 1122 1089 1055 1036 1093 1055 1127 1070 1085 1066 1128 1122 1103 1086 1164 1129 1080 1113 1087 1136 1084 1159 1074 1101 1050 1110 1144 1077 1119 1079 1140 1022 1108 1122 1130 1055 1150 1132 1099 1103 1107 1116 1095 1105 1050 1061 1130 1082 1105 1119 1047 1091 1139 1045 1076 1195 1117 1105 1072 1052 1159 1079 1115 1125 1140 1130 1097 1104 1105 1113 1069 1111 1081 1102 1100 1109 1017 1115 1136 1185 1072 1067 1093 1114 1147 1110 1082 1118 1108 1131 1129 1068 1054 1131 1055 1102 1112 1070 1120 1111 1059 1098 1082 1096 1096 1020 1083 1104 1032 1159 1097 1061 1124 1123 1118 1163 1149 1063 1079 1072 1163 1091 1065 1094 1122 1154 1097 1062 1117 1080 1103 1147 1155 1064 1068 1062 1053 1065 1090 1077 1064 1137 1090 1131 1120 1102 1064 1098 1079 1096 1093 1029 1084 1088 1162 1117 1075 1086 1064 1126 1069 1114 1135 1092 1140 1106 1096 1098 1136 1143 1164 1075 1008 1044 1112 1134 1172 1138 1168 1157 1082 1167 1063 1071 1081 1112 1068 1127 1060 1064 1060 1087 1060 1089 1085 1093 1058 1072 1097 1081 1166 1108 1090 1119 1163 1144 1069 1110 1121 1070 1142 1133 1095 1128 1128 1073 1078 1021 1120 1105 1076 1099 1074 1107 1166 1082 1123 1074 1061 1107 1135 1118 1060 1110 1134 1124 1156 1125 1094 1087 1161 1142 1138 1117 1027 1112 1121 1069 1071 1087 1096 1079 1095 1091 1147 1060 1078 1024 1056 1105 1070 1124 1158 1112 1102 1120 1074 1080 1075 1096 1124 1106 1075 1158 1102 1149 1032 1139 1124 1116 1062 1134 1104 1081 1143 1146 1090 1046 1112 1123 1081 1131 1109 1074 1104 1114 1170 1157 1131 1119 1195 1028 1077 1104 1026 1080 1113 1040 1084 1042 1127 1050 1110 1070 1094 1100 1134 1097 1081 1091 1104 1098 1037 1057 1069 1111 1126 1131 1195 1049 1051 1132 1070 1109 1116 1081 1129 1060 1068 1098 1114 1105 1055 1102 1104 1153 1135 1091 1038 1102 1108 1048 1099 1126 1093 1122 1076 1139 1148 1094 1096 1135 1091 1097 1156 1199 1090 1126 1127 1116 1126 1173 1104 1182 1151 1112 1182 1122 1156 1124 1129 1126 1140 1196 1179 1122 1236 1171 1211 1203 1204 1212 1186 1171 1244 1226 1216 1157 1244 1274 1231 1233 1208 1282 1228 1282 1189 1225 1217 1196 1155 1225 1192 1147 1202 1147 1142 1244 1211 1151 1153 1129 1142 1174 1199 1155 1173 1202 1227 1143 1066 1194 1231 1186 1192 1152 1205 1189 1232 1186 1231 1123 1163 1211 1199 1225 1212 1211 1212 1285 1276 1179 1222 1188 1251 1182 1222 1217 1305 1241 1224 1242 1227 1196 1164 1210 1173 1206 1167 1203 1152 1147 1123 1161 1221 1146 1103 1169 1102 1132 1191 1185 1169 1119 1153 1172 1110 1207 1110 1111 1160 1129 1139 1127 1101 1180 1186 1124 1198 1151 1104 1069 1118 1120 1164 1095 1072 1149 1111 1141 1116 1135 1090 1101 1140 1130 1150 1132 1128 1102 1125 1095 1110 1154 1211 1133 1094 1134 1103 1134 1141 1055 1067 1115 1138 1043 1133 1129 1101 1125 1193 1086 1165 1108 1095 1073 1101 1097 1156 1107 1090 1133 1102 1117 1127 1071 1099 1099 1084 1110 1095 1094 1104 1125 1140 1127 1093 1118 1090 1108 1129 1143 1066 1142 1024 1098 1128 1056 1164 1116 1039 1104 1115 1124 1125 1160 1072 1027 1038 1191 1181 1123 1082 1140 1091 1074 1072 1077 1136 1083 1126 1144 1121 1111 1117 1092 1128 1049 1117 1077 1074 1080 1087 1126 1059 1130 1176 1158 1161 1079 1111 1101 1100 1072 1059 1113 1126 1072 1097 1180 1094 1131 1096 1148 1084 1146 1126 1073 1106 1166 1072 1126 1115 1113 1144 1152 1091 1123 1126 1175 1152 1128 1108 1093 1054 1133 1114 1111 1144 1093 1091 1084 1073 1141 1110 1091 1144 1148 1062 1094 1085 1113 1052 1120 1155 1122 1172 1080 1147 1157 1131 1144 1141 1164 1127 1134 1087 1133 1133 1119 1076 1095 1107 1102 1129 1124 1063 1076 1135 1086 1147 1104 1098 1129 1176 1094 1060 1139 1170 1111 1063 1148 1092 1100 1138 1103 1154 1073 1093 1020 1107 1056 1129 1116 1119 1135 1155 1138 1134 1118 1072 1187 1100 1161 1135 1115 1224 1141 1145 1124 1175 1142 1220 1225 1179 1262 1175 1148 1231 1243 1221 1209 1181 1218 1214 1203 1291 1255 1310 1217 1296 1237 1227 1178 1243 1263 1242 1302 1258 1262 1362 1285 1337 1283 1375 1279 1386 1353 1421 1467 1521 1502 1546 1583 1613 1592 1653 1672 1733 1655 1769 1711 1802 1748 1858 1830 1788 1871 1771 1866 1840 1860 1782 1751 1813 1696 1697 1751 1716 1578 1621 1561 1659 1556 1592 1522 1561 1535 1508 1508 1521 1513 1542 1478 1465 1593 1571 1562 1558 1535 1486 1623 1583 1672 1695 1797 1711 1639 1668 1708 1655 1747 1812 1788 1758 1807 1689 1753 1687 1725 1825 1752 1676 1660 1629 1660 1642 1722 1717 1598 1663 1617 1578 1518 1562 1555 1552 1386 1432 1505 1461 1435 1453 1459 1421 1421 1394 1385 1390 1507 1416 1409 1470 1430 1391 1364 1345 1361 1440 1329 1357 1332 1342 1371 1343 1322 1323 1347 1312 1305 1354 1267 1228 1278 1287 1302 1306 1277 1268 1307 1236 1183 1204 1210 1218 1314 1251 1188 1199 1253 1256 1237 1235 1220 1127 1188 1256 1210 1246 1205 1211 1248 1178 1186 1158 1248 1180 1202 1194 1211 1152 1268 1137 1118 1208 1180 1200 1135 1226 1188 1241 1150 1172 1212 1177 1163 1251 1212 1185 1216 1194 1184 1150 1144 1164 1141 1173 1156 1117 1151 1090 1076 1135 1093 1155 1202 1153 1144 1130 1195 1147 1176 1135 1106 1163 1145 1152 1150 1066 1162 1136 1185 1193 1181 1189 1133 1215 1175 1141 1151 1173 1160 1182 1174 1155 1212 1161 1189 1213 1229 1170 1195 1203 1214 1177 1280 1165 1151 1198 1184 1127 1177 1185 1185 1265 1210 1225 1206 1235 1163 1216 1230 1227 1230 1184 1249 1154 1225 1194 1184 1263 1204 1226 1179 1171 1142 1104 1157 1171 1124 1129 1180 1134 1199 1170 1168 1166 1150 1141 1205 1222 1130 1208 1210 1229 1194 1202 1167 1168 1185 1141 1191 1193 1191 1163 1147 1161 1219 1211 1107 1123 1121 1192 1169 1181 1163 1127 1144 1103 1098 1125 1206 1150 1158 1055 1186 1157 1172 1195 1110 1126 1141 1134 1221 1212 1096 1188 1091 1110 1142 1166 1168 1110 1130 1162 1161 1143 1090 1129 1182 1162 1196 1130 1217 1128 1152 1127 1152 1135 1061 1140 1109 1107 1100 1154 1121 1119 1171 1187 1123 1078 1080 1113 1109 1166 1089 1154 1096 1052 1153 1144 1158 1111 1127 1107 1197 1089 1194 1045 1130 1130 1100 1167 1080 1083 1114 1090 1109 1086 1078 1150 1131 1142 1156 1050 1117 1178 1127 1110 1147 1146 1107 1131 1164 1077 1159 1131 1090 1106 1160 1063 1090 1048 1104 1089 1088 1153 1139 1128 1085 1155 1053 1079 1102 1151 1101 1172 1103 1134 1133 1105 1089 1100 1095 1092 1071 1074 1130 1088 1095 1035 1136 1127 1091 1078 1097 1146 1150 1139 1087 1128 1066 1075 1110 1027 1168 1109 1069 1063 1004 1128 1104 1081 1097 1119 1057 1069 1101 1165 1117 1111 1102 1083 1085 1095 1097 1079 1109 1190 1083 1121 1107 1088 1158 1095 1052 1096 1061 1119 1079 1122 1046 1088 1059 1107 1107 1129 1075 1100 1060 1125 1106 1205 1079 1061 1167 1079 1102 1158 1048 1081 1106 1095 1102 1047 1090 1089 1099 1115 1066 1104 1131 1082 1182 1065 1110 1076 1081 1119 1124 1077 1107 1090 1110 1069 1125 1128 1113 1093 1146 1093 1090 1126 1117 1068 1076 1150 1034 1035 1073 1132 1109 1076 1058 1088 1104 1072 1060 1044 1101 1097 1068 1134 1158 1099 1033 1126 1121 1073 1052 1046 1050 1092 1065 1134 1157 1083 1069 1117 1088 1060 1099 1102 1147 1080 1065 1135 1090 1130 1048 1062 1160 1020 1085 1100 1079 1059 1050 1072 1063 1154 1087 1119 1099 1047 1061 1056 1085 1115 1148 1068 1104 1110 1128 1025 1031 1124 1062 1125 1063 1080 1068 1030 1092 1099 1105 1044 1125 1087 1098 1090 1141 1100 1039 1079 1123 1105 1113 1122 1079 1066 1074 1085 1126 1089 1031 1107 1124 1123 1082 1076 1040 1020 1128 1088 1138 1089 1122 1133 1121 1087 1097 1094 1101 1070 1145 1110 1097 1141 1103 1106 1108 1097 1098 1097 1147 1028 1131 1111 1081 1086 1064 1127 1112 1095 1150 1140 1131 1073 1048 1063 980 1112 1089 1146 1034 1062 1115 1117 1099 1066 1078 1081 1167 1081 1134 1070 1123 1085 1125 1032 1144 1102 1089 1051 1087 1046 1100 1062 1123 1063 1104 1072 1118 1113 1087 1102 1121 1120 1125 1079 1055 1122 1064 1051 1017 1088 1101 1104 1055 1152 1100 1091 1114 1035 1086 1043 1076 1145 1157 1083 1075 1160 1049 1105 1151 1146 1080 1098 1100 1091 1116 1114 1116 1076 1101 1031 1121 1135 1016 1103 1052 1116 1101 1078 1097 1167 1082 1099 1117 1085 1049 1165 1130 1074 1072 1082 1111 1103 1111 1086 1155 1105 1054 1134 1180 1118 1141 1077 1077 1063 1115 1131 1144 1143 1039 1117 1127 1061 1134 1158 1087 1124 1128 1102 1131 1109 1100 1146 1128 1214 1141 1178 1097 1123 1131 1163 1126 1078 1135 1072 1123 1196 1064 1160 1162 1108 1055 1130 1096 1127 1154 1124 1087 1150 1137 1133 1093 1139 1152 1102 1137 1094 1123 1113 1167 1129 1191 1195 1188 1199 1196 1223 1143 1165 1246 1157 1138 1147 1181 1141 1124 1202 1147 1238 1206 1202 1202 1173 1159 1197 1172 1164 1133 1199 1182 1227 1165 1132 1208 1204 1187 1187 1194 1127 1131 1161 1128 1107 1153 1143 1163 1187 1156 1176 1148 1140 1180 1161 1159 1183 1155 1195 1101 1140 1158 1150 1195 1214 1168 1273 1254 1213 1226 1240 1219 1281 1118 1245 1270 1248 1230 1254 1243 1155 1259 1219 1283 1241 1208 1261 1183 1180 1198 1176 1164 1132 1111 1207 1119 1242 1195 1149 1191 1181 1139 1120 1120 1231 1191 1122 1113 1124 1139 1145 1031 1106 1158 1114 1097 1135 1120 1155 1161 1137 1089 1118 1140 1148 1088 1074 1120 1095 1133 1147 1155 1158 1089 1173 1067 1171 1158 1128 1154 1117 1077 1091 1089 1055 1144 1138 1084 1097 1053 1087 1107 1100 1111 1146 1079 1114 1148 1073 1048 1083 1092 1122 1128 1108 1094 1097 1203 1114 1143 1053 1067 1125 1075 1070 1056 1105 1104 1121 1066 1115 1008 1036 1093 1090 1118 1112 1107 1121 1076 1126 1096 1155 1084 1069 1111 1184 1033 1152 1124 1056 1110 1059 1081 1077 1050 1065 1098 1114 1116 1092 1087 1063 1148 1021 1144 1079 1082 1101 1033 1105 1125 1075 1094 1066 1070 1061 1091 1130 1075 1106 1043 1103 1099 1123 1138 1114 1091 1102 1108 1100 1129 1174 1113 1098 1085 1112 1157 1099 1095 1133 1162 1149 1143 1129 1066 1148 1183 1204 1224 1144 1170 1219 1134 1162 1188 1204 1259 1248 1182 1202 1233 1262 1195 1229 1106 1214 1261 1242 1218 1265 1251 1277 1305 1248 1305 1253 1306 1331 1302 1295 1288 1308 1253 1295 1303 1294 1253 1258 1270 1275 1255 1323 1253 1229 1253 1187 1226 1261 1212 1232 1228 1254 1172 1207 1161 1177 1190 1219 1292 1189 1204 1212 1214 1228 1203 1158 1224 1204 1241 1262 1247 1315 1298 1146 1206 1225 1210 1256 1242 1190 1283 1260 1255 1240 1235 1264 1274 1225 1198 1231 1204 1284 1218 1210 1180 1214 1161 1192 1130 1186 1170 1118 1173 1169 1135 1140 1160 1206 1166 1204 1193 1143 1159 1134 1159 1204 1135 1151 1146 1176 1111 1065 1117 1150 1170 1158 1135 1173 1066 1116 1177 1189 1140 1110 1112 1106 1184 1194 1101 1102 1092 1174 1123 1105 1135 1114 1159 1137 1108 1148 1082 1104 1170 1116 1066 1102 1149 1164 1103 1123 1160 1142 1194 1101 1088 1101 1098 1215 1080 1120 1098 1074 1157 1105 1098 1103 1108 1097 1083 1109 1109 1072 1132 1083 1147 1109 1096 1054 1194 1117 1117 1173 1116 1071 1053 1106 1098 1130 1092 1081 1117 1182 1115 1128 1147 1124 1147 1178 1124 1127 1155 1148 1201 1193 1140 1140 1129 1208 1129 1202 1215 1106 1167 1136 1197 1152 1160 1170 1085 1184 1177 1152 1223 1121 1208 1194 1142 1128 1156 1133 1098 1175 1170 1140 1131 1084 1108 1179 1149 1121 1109 1132 1106 1172 1107 1164 1061 1104 1175 1124 1097 1178 1169 1104 1185 1141 1098 1109 1136 1169 1201 1130 1147 1119 1153 1071 1108 1101 1147 1119 1147 1069 1221 1188 1113 1108 1116 1116 1132 1122 1096 1163 1138 1169 1070 1119 1143 1093 1112 1169 1080 1128 1107 1064 1125 1128 1099 1109 1006 1070 1154 1105 1121 1085 1115 1106 1104 1099 1066 1090 1144 1109 1136 1125 1097 1095 1049 1042 1114 1146 1120 1095 1073 1099 1107 1105 1079 1071 1066 1141 1101 1086 1119 1124 1099 1151 1113 1095 1134 1076 1065 1129 1056 1119 1121 1089 1116 1067 1123 1113 1106 1123 1055 1025 1099 1047 1075 1102 1115 1065 1117 1098 1062 1038 1119 1104 1072 1016 1104 1136 1067 1054 1085 1081 1048 1145 1133 1055 1107 1131 1048 1054 1104 1068 1113 1082 1083 1087 1063 1054 1043 1052 1058 1097 1104 1082 1063 1120 1130 1062 1103 1052 999 1160 1133 1120 1150 1075 1109 1058 1078 1114 1083 1060 1084 1059 1082 1065 1070 1066 1099 1072 1132 1070 1067 1088 1030 1053 1091 1049 1080 1078 1113 1069 1041 1111 1105 1062 1096 1048 1121 998 1082 1021 1016 1091 1126 1098 1074 1066 1064 1032 1128 1092 1044 1094 1060 1115 1098 1100 1005 1096 1054 1081 1074 1091 1085 1071 1046 1090 1098 1061 1122 1105 1054 1091 1102 1047 1101 1034 1084 1091 1053 1068 1097 1094 1096 1074 1081 1103 1129 1110 1052 1092 1131 1078 1090 1073 1054 1110 1120 1060 1036 1086 1051 1029 1050 1066 1014 1113 1042 1093 1125 1113 1038 1110 1090 1070 1054 1105 1095 1080 1167 1066 1029 1027 1044 1064 1137 1084 1051 1009 999 1052 1105 1022 1046 1094 1110 1094 1082 1098 1097 1084 1157 1111 1068 1105 1073 1084 1077 1093 1001 1069 1071 1084 1046 1009 1153 1047 1064 1029 1064 1033 979 1022 1118 1137 971 1109 1046 1099 1118 1136 1055 1112 1076 1047 1114 1084 1045 1088 1050 1058 1035 1109 1132 1078 1041 1038 1114 1028 1059 1141 1062 1052 1091 1075 1060 1043 1008 1037 1108 1088 1038 1045 1015 1054 1112 1074 1060 1029 1038 1060 1083 1055 1092 1081 1117 1036 1071 1084 1072 1108 1034 1066 1077 1063 1092 1122 1043 1079 1115 1081 1124 1079 1097 1078 1075 1052 1094 1096 1073 1114 1068 1112 1103 1088 1085 1057 1086 1094 1082 1062 1100 1023 1105 1071 1064 1134 1104 1154 1078 1067 1117 1073 1066 1078 1099 1121 1083 1090 1068 1093 1018 1049 1122 1080 1111 1024 1045 1082 1017 1098 1065 1062 1109 1119 1084 1055 1031 1091 1123 1067 1059 1073 1056 1058 1089 1073 1136 1048 1040 1057 1120 1087 1103 1042 1110 1126 1121 1117 1103 1083 1082 1131 1113 1040 1153 1148 1144 1102 1081 1048 1114 1046 1148 1101 1128 1035 1058 1077 1165 1150 1135 1156 1107 1143 1085 1098 1093 1084 1121 1110 1143 1105 1050 1135 1151 1057 1099 1087 1169 1101 1037 1081 1056 1116 1075 1132 1129 1074 1142 1124 1066 1121 1115 1085 1099 1117 1108 1189 1123 1042 1132 1017 1064 1082 1078 1135 1079 1092 1086 1095 1059 1102 1125 1153 1096 1153 1114 1096 1008 1049 1077 1090 1124 1094 1047 1057 1030 1104 1059 1116 1079 1093 1087 1125 1099 1102 1127 1079 1079 1050 1076 1059 1025 1130 1060 1063 1081 1065 1091 1113 1112 1127 1071 1072 1069 1082 1082 1090 1063 1095 1071 1057 1050 1111 999 1035 1125 1112 1081 1005 1098 1097 1065 1124 1067 1110 1081 1055 1117 1032 1084 1054 1078 1009 1062 1098 1121 1049 1090 1096 1039 1085 1021 1103 1110 1070 1125 1113 1039 1080 1122 1054 1137 991 1027 1048 1056 1052 1074 1088 1058 1123 1059 1076 1063 1003 1126 1115 1105 1092 1149 1106 1050 1099 1055 1099 1099 1088 1089 1056 1018 1065 975 1097 1085 1101 1119 1093 1003 1095 1051 1075 1040 1117 1090 1105 1023 1146 1085 1113 1063 1045 1098 1108 1076 1035 1093 1062 1061 1058 1072 1102 1033 1113 1044 1095 1028 1059 1052 1038 1059 1058 1142 1107 1066 1108 1091 1015 1027 1122 1142 1038 1118 1073 1105 1117 1027 1091 1063 1072 1125 1112 1061 1098 1093 1106 1114 1115 1072 1052 1048 1132 1101 1069 1086 1094 1076 1038 1099 1103 1061 1111 1091 1118 1067 1064 1101 1046 1121 1091 1063 1094 1121 1110 1128 1130 1054 1107 1125 1103 1141 1079 1171 1131 1110 1136 1136 1168 1082 1121 1168 1116 1187 1184 1118 1177 1184 1140 1130 1157 1154 1133 1190 1159 1193 1194 1203 1156 1214 1168 1178 1107 1141 1174 1212 1206 1170 1159 1135 1167 1162 1196 1119 1167 1156 1203 1091 1171 1172 1171 1133 1159 1130 1152 1151 1161 1105 1173 1165 1158 1132 1147 1167 1163 1181 1147 1178 1157 1130 1144 1118 1158 1114 1159 1169 1188 1197 1169 1171 1134 1065 1090 1106 1082 1119 1145 1115 1129 1126 1139 1132 1127 1109 1108 1175 1096 1130 1121 1088 1128 1112 1126 1114 1107 1092 1161 1108 1122 1092 1059 1095 1097 1086 1104 1153 1079 1107 1079 1101 1069 1096 1081 1042 1130 1104 1073 1135 1097 1025 1098 1096 1145 1120 1082 1145 1119 1126 1144 1131 1077 1060 1144 1135 1089 1122 1081 1172 1091 1000 1099 1178 1026 1064 1108 1096 1126 1102 1054 1119 1151 1038 1080 1046 1059 1172 1113 1019 1126 1059 1043 1048 1090 1069 1073 1119 1050 1102 1064 1096 1105 1095 1096 1060 1113 1093 1124 1114 1042 1138 1085 1080 1114 1090 1021 1047 1067 1074 1079 1071 1108 1073 1032 1064 1063 1096 1073 1103 1073 1070 1060 1067 1131 1082 1058 1045 1116 1040 1072 1119 1051 1083 994 1079 1086 1077 1082 1062 1082 1104 1103 1095 1077 1068 1085 1119 1121 1074 1050 1084 1063 1105 1078 1066 1093 1041 1082 1121 1093 1052 1059 1087 1092 1016 1076 1042 1057 1069 1089 1062 1086 1043 1103 1125 1115 1077 1055 1064 1032 992 1068 1073 1042 1073 1106 1069 1063 1105 1115 1116 1082 1071 1066 1088 1021 1032 1117 1088 1055 1090 1149 1010 1099 1102 1101 1054 1060 1046 1052 1101 1088 1096 1062 1137 1097 1056 1069 1116 1076 1080 1051 1080 1110 1109 1115 1091 1123 1132 1077 1095 1123 1072 1149 1123 1143 1079 1011 1075 1132 1064 1122 1060 1080 1052 1074 1105 1084 1072 1038 1102 1063 1067 1085 1082 1073 1110 1096 1123 1067 1058 1099 1074 1046 1116 995 1070 1067 1137 1076 1068 1039 1092 1049 1121 1065 1144 1077 1063 1070 1088 1089 1065 1088 1079 1091 1099 1034 1077 1034 1086 1066 1024 1074 1057 1050 1126 1107 1010 1085 1108 1083 1089 1103 1084 1107 1020 1068 1048 1113 1122 1061 1149 1046 1066 1029 1116 1110 1115 1073 1042 1078 1117 1021 1072 1098 1037 1066 1018 1101 1112 1116 1072 1092 1095 1079 1042 1140 1046 1019 1059 1078 1081 1080 1096 1096 1099 1102 1061 1058 1107 1133 1074 1071 1034 1055 1166 1020 1084 1065 1054 1049 1082 1088 1098 1047 1141 1114 1069 1037 1079 1111 1081 1118 1053 1051 1097 1032 1071 1140 1133 1075 1088 1180 1140 1083 1076 1054 1061 1083 1114 1086 1077 1093 1098 1107 1082 1024 1108 1154 1046 1124 1068 1082 1093 1053 1083 1079 1060 1134 1086 1103 1066 1056 1082 1087 1097 1077 1094 1094 1061 1056 1146 1094 1020 1092 1068 1047 1087 1126 1067 1046 1081 1087 1119 1072 1110 1147 1011 1101 1044 1055 1029 1075 1079 1069 1131 1121 1146 1088 1093 1031 1077 1094 1098 1112 1120 1081 1086 1089 1085 1101 1100 1065 1108 1129 1107 1130 1064 1076 1041 1076 1120 1088 1072 1145 1099 1078 1116 1110 1078 1094 1132 1052 1061 1076 1065 1136 1105 1123 1075 1075 1086 1114 1137 1105 1128 1124 1086 1043 1092 1079 1057 1069 1105 1072 1056 1054 1043 1084 1092 1070 1071 1103 1080 1099 1100 1096 1069 1061 1178 1083 1084 1072 1089 1102 1090 1136 1119 1066 1117 1129 1122 1102 1109 1092 1132 1049 1098 1087 1131 1050 1118 1146 1097 1051 1050 1073 1086 1098 1083 1061 1062 1148 1078 1133 1089 1078 1080 1088 1118 1077 1099 1074 1124 1092 1132 1084 1053 1110 1049 1102 1074 1073 1110 1077 1104 1163 1105 1094 1069 1069 1141 1168 1126 1115 1109 1102 1062 1110 1126 1075 1099 1082 1186 1056 1117 1158 1063 1095 1107 1142 1110 1154 1213 1180 1097 1117 1125 1081 1133 1143 1112 1126 1154 1123 1143 1124 1156 1136 1103 1125 1075 1102 1179 1176 1164 1069 1077 1119 1093 1120 1162 1227 1128 1148 1123 1141 1115 1094 1104 1132 1123 1125 1177 1124 1113 1174 1138 1100 1156 1105 1151 1118 1167 1141 1172 1155 1084 1175 1149 1139 1112 1119 1043 1139 1160 1123 1153 1130 1106 1059 1080 1097 1108 1105 1078 1088 1211 1088 1057 1155 1109 1169 1152 1181 1156 1108 1129 1059 1100 1102 1055 1075 1055 1108 1119 1115 1124 1144 1127 1081 1094 1091 1108 1163 1154 1099 1091 1142 1140 1108 1119 1106 1184 1130 1157 1064 1065 1092 1113 1085 1086 1219 1095 1156 1159 1122 1139 1128 1138 1172 1129 1120 1160 1104 1206 1142 1102 1183 1068 1132 1138 1112 1133 1056 1153 1121 1154 1177 1084 1149 1130 1125 1083 1118 1122 1130 1129 1125 1106 1158 1237 1044 1129 1088 1145 1046 1116 1117 1117 1150 1069 1126 1134 1077 1187 1164 1091 1069 1132 1080 1186 1144 1125 1095 1134 1069 1157 1086 1077 1124 1077 1089 1166 1097 1042 1100 1076 1191 1125 1168 1175 1106 1083 1170 1130 1075 1047 1115 1108 1155 1101 1064 1133 1120 1109 1101 1122 1115 1108 1114 1161 1090 1175 1152 1069 1138 1183 1172 1068 1187 1147 1129 1128 1250 1148 1152 1135 1118 1133 1190 1204 1127 1097 1115 1158 1171 1187 1192 1140 1182 1140 1104 1168 1152 1140 1180 1246 1194 1197 1216 1143 1186 1194 1195 1180 1199 1235 1235 1287 1346 1231 1201 1205 1291 1293 1264 1245 1205 1337 1234 1227 1237 1256 1276 1236 1297 1300 1270 1311 1355 1231 1241 1258 1339 1325 1280 1330 1248 1291 1291 1263 1265 1265 1315 1337 1223 1305 1281 1198 1196 1196 1243 1296 1221 1341 1278 1250 1227 1229 1229 1285 1169 1246 1210 1268 1264 1246 1225 1179 1226 1215 1239 1179 1184 1222 1254 1201 1172 1253 1167 1187 1219 1196 1164 1202 1190 1197 1178 1211 1176 1151 1231 1139 1208 1234 1197 1175 1226 1223 1204 1221 1191 1155 1219 1145 1230 1127 1189 1233 1183 1171 1260 1219 1195 1217 1147 1195 1175 1198 1134 1226 1157 1188 1204 1160 1181 1149 1208 1202 1211 1174 1162 1136 1242 1121 1202 1165 1156 1182 1118 1069 1105 1125 1175 1151 1144 1165 1123 1197 1190 1171 1168 1170 1149 1089 1192 1165 1202 1156 1246 1146 1120 1119 1156 1100 1128 1177 1132 1110 1098 1131 1172 1073 1106 1107 1113 1195 1120 1147 1112 1166 1130 1105 1099 1126 1105 1130 1138 1136 1098 1108 1127 1115 1170 1110 1106 1150 1114 1095 1138 1131 1171 1060 1076 1100 1148 1159 1100 1148 1083 1127 1090 1162 1113 1146 1104 1124 1091 1124 1109 1106 1144 1137 1070 1114 1111 1102 1122 1139 1093 1091 1100 1079 1186 1130 1106 1094 1112 1132 1145 1122 1125 1115 1086 1124 1123 1114 1104 1153 1116 1111 1113 1156 1117 1145 1147 1112 1111 1074 1095 1097 1104 1132 1080 1108 1130 1081 1105 1147 1089 1082 1125 1120 1175 1091 1124 1103 1142 1069 1167 1112 1086 1138 1175 1124 1134 1128 1097 1050 1128 1042 1147 1086 1086 1121 1055 1102 1101 1102 1103 1115 1128 1161 1074 1086 1124 1076 1097 1148 1118 983 1104 1103 1127 1123 1047 1055 1085 1069 1056 1055 1082 1081 1080 1124 1057 1028 1039 1089 1095 1059 1096 1080 1037 991 1073 1088 1058 1039 1134 1113 1022 1066 1047 1054 1074 1115 1135 1080 1084 1095 1060 1106 1149 1025 1100 1131 1066 1153 1103 1113 1039 1066 1056 1021 1093 1079 1112 1052 1117 1096 1132 1065 1085 1063 1147 1103 1048 1092 1078 1062 1060 1090 1082 1063 1079 1125 1091 1145 1081 1044 1077 1064 1055 1060 1099 1064 1043 1103 1128 1064 1107 1068 1133 1054 1063 1065 1014 1078 1123 1075 1099 1079 1087 1088 1045 1121 1053 1118 1054 1084 1073 1115 1093 1089 1103 1031 1126 1151 1102 1145 987 1086 1100 1126 1038 1138 1088 1104 1111 1065 1032 1081 1066 1126 1112 1116 1130 1170 1130 1112 1083 1075 1087 1099 1072 1068 1074 1078 1109 1073 1083 1079 1088 1101 1067 1097 1088 1052 1007 1027 1093 1083 1051 1090 1096 1122 1096 1102 1055 1109 1113 1063 1048 1043 1088 1136 1082 1101 1145 1096 1089 1066 1090 1132 1039 1093 1109 1094 1144 1159 1109 1051 1117 1087 1098 1090 1098 1126 1085 1088 1107 1094 1045 1129 1054 1044 1048 1093 1139 1119 1121 1041 1075 1110 1139 1024 1067 1087 1093 1077 1066 1080 1092 1129 1056 1143 1094 1096 1058 1057 1147 1074 1058 1094 1032 1031 1058 1072 1071 1043 1058 1039 1053 1065 1085 1073 1125 1113 1108 1097 1044 1053 1068 1046 1071 1099 1110 1044 1113 1090 1120 1096 1040 1093 1107 1035 1093 1051 1100 1106 1082 1085 1084 1110 1044 1090 1095 1163 1065 1065 1056 1084 1113 1091 1091 1086 1089 1065 1065 1144 1045 1122 1089 1061 1108 1071 1112 1029 1085 1124 1127 1074 1113 1025 1058 1065 1114 1117 1163 1082 1101 1077 1069 1115 1108 1070 1051 1073 1065 1101 1114 1096 1092 1122 1099 1101 1061 1075 1102 1099 1069 1076 1154 1099 1099 1107 1116 1071 1136 1138 1095 1103 1136 1152 1132 1115 1122 1077 1135 1143 1129 1096 1075 1075 1085 1121 1114 1097 1097 1123 1119 1111 1171 1077 1116 1100 1126 1047 1123 1093 1134 1095 1075 1103 1110 1106 1117 1127 1066 1058 1090 1127 1129 1083 1076 1131 1087 1048 1088 1158 1094 1081 1098 1076 1130 1129 1028 1113 1075 1106 1101 1089 1081 1107 1127 1070 1074 1127 1095 1115 1095 1133 1099 1121 1126 1112 1079 1108 1085 1058 1131 1080 1100 1096 1122 1068 1102 1073 1110 1106 1108 1068 1082 1065 1124 1146 1073 1097 1072 1074 1075 1061 1089 1068 1073 1064 1110 1076 1033 1065 1049 1125 1155 1076 1117 1080 1107 1046 1078 1127 1111 1062 1050 1128 1148 1111 1080 1138 1021 1134 1096 1121 1037 1068 1152 1101 1092 1120 1061 1017 1055 1073 1067 1092 1082 1055 1109 1082 1112 1054 1092 1120 1114 1078 1081 1075 1127 1107 1106 1051 1098 1043 1156 1105 1127 1022 1093 1118 1092 1071 1084 1072 1063 1105 1046 1048 1118 1077 1106 1113 1068 1104 1088 1029 1119 1087 1087 1102 1037 1108 1083 1133 1098 1098 1115 1113 1070 1066 1121 1109 1090 1129 1084 1056 1106 1081 1067 1155 1085 1139 1045 1069 1107 1073 1069 1106 1147 1038 1090 1134 1135 1112 1108 1148 1163 1058 1120 1101 1122 1103 1096 1051 1142 1080 1047 1202 1091 1126 1157 1121 1074 1095 1078 1123 1057 1128 1095 1050 1143 1079 1076 1100 1116 1104 1132 1077 1064 1129 1185 1164 1042 1073 1107 1055 1052 1126 1133 1142 1085 1176 1131 1117 1101 1219 1159 1195 1102 1197 1201 1196 1214 1210 1170 1191 1134 1249 1223 1181 1211 1234 1157 1282 1243 1242 1219 1218 1208 1224 1203 1222 1180 1255 1230 1247 1224 1296 1213 1274 1195 1158 1189 1150 1150 1217 1208 1170 1217 1248 1192 1240 1221 1214 1215 1228 1221 1298 1268 1235 1214 1283 1157 1204 1229 1285 1113 1217 1207 1199 1142 1180 1160 1245 1114 1193 1156 1200 1172 1206 1130 1215 1151 1141 1212 1137 1136 1125 1176 1135 1148 1108 1119 1175 1147 1139 1160 1102 1157 1172 1125 1118 1143 1143 1097 1084 1150 1148 1115 1104 1124 1191 1104 1071 1137 1129 1117 1059 1157 1143 1170 1101 1144 1100 1128 1068 1169 1150 1148 1153 1116 1077 1133 1101 1075 1236 1134 1117 1108 1121 1084 1145 1187 1194 1123 1141 1096 1166 1184 1146 1114 1117 1111 1127 1172 1107 1188 1158 1036 1142 1154 1110 1111 1111 1163 1116 1131 1106 1141 1135 1084 1165 1158 1141 1139 1127 1129 1160 1097 1123 1207 1151 1133 1131 1150 1096 1111 1178 1131 1194 1135 1091 1100 1088 1140 1097 1105 1099 1150 1071 1080 1016 1126 1122 1126 1075 1154 1095 1114 1126 1072 1112 1118 1124 1127 1077 1163 1068 1077 1108 1063 1138 1084 1132 1110 1151 1115 1124 1060 1120 1112 1094 1141 1114 1133 1155 1134 1093 1141 1124 1093 1129 1108 1153 1084 1139 1167 1086 1101 1181 1090 1093 1070 1169 1063 1084 1082 1088 1069 1077 1130 1095 1113 1044 1129 1138 1075 1121 1067 1098 1041 1145 1079 1065 1083 1090 1058 1108 1053 1164 1083 1084 1039 1118 1100 1112 1154 1133 1095 1083 1122 1112 1088 1097 1081 1063 1099 1047 1044 1082 1149 1146 1085 1077 1072 1118 1130 1072 1006 1106 1060 1101 1106 1069 1103 1080 1091 1104 1080 1112 1091 1113 1180 1121 1078 1094 1082 1077 1123 1102 1088 1142 1109 1122 1090 1087 1096 1073 1125 1105 1072 1072 1072 1105 1096 1050 1125 1072 1139 1085 1063 1123 1077 1042 1055 1089 1097 1049 1102 1170 1070 1085 1177 1015 1125 1117 1095 1070 1193 1112 1124 1152 1172 1115 1085 1052 1130 1157 1121 1121 1025 1054 1095 1142 1102 1025 1100 1140 1085 1093 1113 1074 1165 1058 1073 1053 1084 1066 1045 1066 1037 1102 1085 1120 1079 1112 1083 1116 1023 1105 1036 1154 1127 1092 1083 1158 1067 1082 1102 1013 1161 1093 1075 1092 1158 1119 1030 1149 1058 1051 1095 1064 1078 1030 1077 1072 1117 1137 1073 1083 1050 1100 1098 1059 1061 1085 1045 1114 1135 1056 1047 1094 1051 1114 1099 1125 1119 1097 1077 1144 1059 1062 1150 1071 1123 1032 1086 1137 1033 1075 1094 1097 1043 1103 1089 1116 1134 1116 1109 1073 1113 1039 1099 1042 1081 1105 1064 1075 1081 1086 1080 1105 1075 1013 1121 1072 1057 1097 1158 1043 1125 1100 1082 1050 1056 1118 1027 1105 1103 1087 1137 1101 1121 1102 1059 1124 1029 1120 1073 1087 1062 1069 1122 1116 1111 1061 1117 1104 1077 1104 1110 1154 1127 1106 1093 1119 1059 1056 1128 1081 1082 1053 1134 1077 1100 1079 1087 1089 1107 1102 1098 1060 1071 1094 1129 1086 1053 1092 1069 1053 1050 1094 1116 1046 1082 1086 1083 1118 991 1096 1117 1030 1115 1089 1113 1134 1100 1047 1129 1094 1135 1081 1097 1119 1067 1098 1044 1156 1116 1136 1074 1058 1069 1058 1093 1110 1132 1155 1158 1064 1089 1114 1045 1079 1069 1101 1114 1085 1081 1070 1041 1122 1102 1103 1049 1098 1059 1092 1077 1054 1077 1118 1111 1103 1025 1086 1034 1083 1092 1148 1104 1117 1114 1152 1115 1077 1050 1141 1119 1094 1151 1084 1114 1145 1085 1091 1105 1128 1127 1111 1085 1082 1098 1062 1106 1109 1127 1101 1110 1094</counts>
			</dataPoints>
		</scan>
	</xrdMeasurement>
</xrdMeasurements>
