<?xml version="1.0"?>
<xrdMeasurements xmlns="http://www.xrdml.com/XRDMeasurement/2.3" xmlns:xsi="http://www.w3.org/2001/XMLSchema-instance" xsi:schemaLocation="http://www.xrdml.com/XRDMeasurement/2.3 http://www.xrdml.com/XRDMeasurement/2.3/XRDMeasurement.xsd" status="Completed" recordIdentifier="{33787101-674A-47D4-9186-F586EC275738}">
	<comment>
		<entry/>
	</comment>
	<sample type="To be analyzed">
		<id>GPSS_Li1p5Mn0p25Fe0p25Y0p25In0p25Cl4_122425_694c7853ae15af25ac3735ba</id>
		<name></name>
		<preparedBy></preparedBy>
	</sample>
	<xrdMeasurement measurementType="Scan" status="Completed" sampleMode="Reflection">
		<usedWavelength intended="K-Alpha 1">
			<kAlpha1 unit="Angstrom">1.5405980</kAlpha1>
			<kAlpha2 unit="Angstrom">1.5444260</kAlpha2>
			<kBeta unit="Angstrom">1.3922500</kBeta>
			<ratioKAlpha2KAlpha1>0.5000</ratioKAlpha2KAlpha1>
		</usedWavelength>
		<incidentBeamPath>
			<radius unit="mm">145.00</radius>
			<xRayTube id="1010048" name="Empyrean Cu LFF HR (9430 033 7310x)">
				<tension unit="kV">40.0</tension>
				<current unit="mA">15.0</current>
				<anodeMaterial>Cu</anodeMaterial>
				<focus type="Line">
					<length unit="mm">12.0</length>
					<width unit="mm">0.4</width>
					<takeOffAngle unit="deg">6.0</takeOffAngle>
				</focus>
			</xRayTube>
			<sollerSlit id="21010002" name="Soller slits 0.04 rad.">
				<opening unit="rad">0.0400</opening>
			</sollerSlit>
			<mask id="22031000" name="Fixed mask 13 mm">
				<width unit="mm">9.00</width>
			</mask>
			<divergenceSlit id="22120001" name="Divergence slit 1°" xsi:type="fixedDivergenceSlitType">
				<distanceToSample unit="mm">50.00</distanceToSample>
				<height unit="mm">1.52</height>
			</divergenceSlit>
		</incidentBeamPath>
		<sampleMovement xsi:type="spinningSampleMovementType">
			<spinnerRevolutionTime unit="seconds">1.0</spinnerRevolutionTime>
		</sampleMovement>
		<diffractedBeamPath>
			<radius unit="mm">145.00</radius>
			<antiScatterSlit id="22090040" name="AS slit 9 mm (PIXcel)" xsi:type="fixedAntiScatterSlitType">
				<height unit="mm">9.00</height>
			</antiScatterSlit>
			<sollerSlit id="21020003" name="Large Soller slits 0.04 rad.">
				<opening unit="rad">0.0400</opening>
			</sollerSlit>
			<filter id="20030001" name="Large beta-filter Nickel">
				<material>Ni</material>
				<thickness unit="mm">0.020</thickness>
			</filter>
			<detector id="7010019" name="PIXcel1D-Medipix3 detector" xsi:type="rtmsDetectorType">
				<phd unit="keV">
					<lowerLevel>4.02</lowerLevel>
					<upperLevel>11.27</upperLevel>
				</phd>
				<mode>Scanning</mode>
				<activeLength unit="deg">5.542</activeLength>
			</detector>
		</diffractedBeamPath>
		<scan appendNumber="0" mode="Continuous" scanAxis="Gonio" status="Completed">
			<header>
				<startTimeStamp>2025-12-26T12:56:06-08:00</startTimeStamp>
				<endTimeStamp>2025-12-26T13:04:13-08:00</endTimeStamp>
				<author>
					<name>AutomatedUser</name>
				</author>
				<source>
					<applicationSoftware version="1.7b (136)">PANalytical Aeris Instrument Suite</applicationSoftware>
					<instrumentControlSoftware version="3.2.00000000 20240306">AERIS</instrumentControlSoftware>
					<instrumentID>950485</instrumentID>
				</source>
			</header>
			<dataPoints>
				<positions axis="2Theta" unit="deg">
					<startPosition>10.00943322</startPosition>
					<endPosition>99.99442286</endPosition>
				</positions>
				<positions axis="Omega" unit="deg">
					<startPosition>5.00471661</startPosition>
					<endPosition>49.99721143</endPosition>
				</positions>
				<commonCountingTime unit="seconds">12.495</commonCountingTime>
				<counts unit="counts">2989 2993 3071 3037 2997 3058 3092 3079 2962 3090 2991 3035 2975 3030 3074 2980 3074 2970 2924 3058 3102 3089 3061 2978 3054 3099 3012 2965 3125 2948 2990 2986 3060 2934 3047 3076 3089 3029 3012 3139 2976 3008 3024 3087 2920 3014 3078 3019 3088 3040 3065 3045 2992 3060 3095 3101 3042 3089 3075 3143 3103 3092 2997 3071 3107 3035 3138 3027 3129 3170 3117 3125 3016 3087 3100 3181 3128 3124 3152 3206 3178 3087 3137 3204 3133 3082 3179 3193 3202 3141 3090 3225 3055 3141 3046 3256 3152 3097 3134 3097 3251 3139 3191 3144 3132 3254 3136 3246 3241 3129 3103 3111 3212 3100 3100 3116 3186 3114 3204 3106 3188 3108 3156 3084 2950 3116 3131 3109 3231 3200 3101 3026 3178 3033 3032 3148 3192 3076 3160 3104 3059 3079 3097 3120 3191 3198 3211 3062 3115 3100 3063 2992 3062 3205 3016 3113 3207 3039 3069 3039 3120 3189 3157 3097 3141 3055 3094 3130 3163 3078 3079 3087 3080 3073 3151 3086 3056 3117 3019 3013 3155 3006 3166 3027 3088 3113 3113 3093 3105 2980 3099 3042 3014 3020 3019 3143 3138 3033 3068 2944 3054 3141 3011 3068 3085 3006 3035 3010 3077 2973 3031 2959 2978 3123 3020 3124 3091 2984 3160 3013 3145 3078 3095 3051 3030 3060 2988 2992 3042 3099 2917 2938 3061 2953 2880 3048 3039 2962 2987 2934 2979 2911 3077 2971 2927 2891 2953 2938 3054 3024 3028 3041 2986 2988 2928 2996 2986 2933 3013 3017 3058 2957 2996 2922 3039 3024 2978 3008 2973 3031 2866 3126 2939 3054 2958 2955 3026 2981 2916 2940 2862 2831 3070 2843 2984 2876 3016 3005 3026 2975 2978 2989 2943 2872 2934 2973 3036 2948 3094 3003 3065 3026 2969 3013 2948 2965 3026 3055 3022 2996 2966 3037 2944 3020 2932 3135 3051 3054 2917 3018 3044 2985 3022 3058 3063 2978 3004 3110 3117 3106 3085 3117 3012 3079 3211 3000 3121 3119 3158 3081 3099 3118 3114 2979 3031 3157 2998 3203 3158 3200 3138 3165 3161 3118 3172 3214 3134 3108 3203 3160 3237 3237 3069 3333 3274 3336 3206 3322 3281 3290 3288 3354 3308 3218 3275 3263 3312 3257 3104 3251 3367 3313 3264 3446 3329 3282 3344 3206 3292 3344 3347 3473 3493 3442 3439 3484 3334 3511 3370 3338 3408 3446 3438 3496 3392 3379 3420 3555 3485 3598 3429 3509 3456 3517 3527 3487 3587 3712 3685 3599 3482 3546 3586 3609 3606 3675 3568 3621 3763 3627 3642 3560 3634 3773 3714 3567 3714 3815 3789 3926 4026 4072 4190 4088 4212 4247 4296 4318 4474 4476 4349 4358 4414 4319 4373 4336 4161 4263 4233 4016 4054 3807 3963 3781 3750 3609 3681 3600 3560 3518 3435 3428 3582 3368 3467 3418 3405 3478 3257 3319 3382 3471 3338 3474 3364 3436 3396 3347 3428 3442 3261 3237 3307 3442 3380 3325 3367 3367 3350 3298 3261 3323 3367 3433 3364 3447 3392 3335 3401 3372 3363 3288 3378 3407 3334 3342 3358 3371 3262 3285 3163 3277 3187 3215 3196 3216 3311 3115 3163 3122 3101 3254 3191 3168 3076 3228 3279 3208 3269 3189 3093 3123 3208 3049 3187 3240 3222 3136 3259 3181 3229 3188 3249 3174 3253 3169 3120 3169 3224 3174 3108 3194 3168 3089 3118 3158 3049 3034 3116 3001 3079 2932 2939 2984 3046 3032 2936 2922 2927 3055 2948 2936 2992 2957 2968 3067 2937 2846 2994 2993 2997 2960 2873 2867 2842 2967 2967 3016 2932 2875 2984 3009 2982 2854 3031 2984 2943 2894 2915 2852 3001 2904 2866 2965 2934 2893 2833 2931 2911 2865 2934 2900 2857 2884 2782 2933 2781 2754 2841 2815 2912 2729 2727 2799 2831 2865 2840 2705 2981 2789 2866 2770 2820 2875 2849 2835 2696 2795 2784 2882 2825 2807 2795 2780 2824 2853 2816 2830 2764 2772 2797 2734 2858 2847 2759 2895 2760 2863 2853 2893 2741 2928 2809 2897 2773 2685 2888 2830 2901 2885 2784 2821 2888 2848 2797 2924 2969 2814 2924 3035 2828 2976 2920 2982 2993 2943 3033 2939 2894 3059 2897 2854 2705 2771 2912 2760 2754 2781 2787 2760 2744 2850 2683 2596 2749 2628 2774 2703 2656 2662 2663 2715 2663 2691 2666 2714 2719 2614 2719 2715 2606 2688 2669 2736 2744 2683 2734 2647 2621 2658 2667 2573 2628 2742 2613 2755 2756 2710 2652 2646 2644 2699 2765 2694 2717 2628 2638 2678 2742 2654 2768 2605 2715 2682 2641 2705 2675 2761 2680 2647 2764 2611 2712 2683 2627 2670 2617 2698 2604 2631 2629 2667 2712 2725 2739 2645 2700 2598 2750 2645 2721 2703 2732 2765 2688 2719 2650 2754 2709 2612 2637 2670 2613 2663 2731 2618 2587 2648 2723 2604 2683 2632 2662 2635 2699 2634 2596 2631 2623 2486 2564 2537 2555 2609 2552 2612 2618 2548 2646 2563 2741 2565 2452 2647 2517 2561 2482 2534 2682 2466 2512 2607 2592 2561 2555 2433 2578 2507 2588 2575 2427 2496 2515 2615 2596 2534 2585 2612 2595 2408 2507 2521 2471 2582 2535 2512 2482 2459 2449 2485 2502 2489 2508 2482 2486 2454 2400 2526 2543 2518 2457 2486 2405 2461 2566 2510 2375 2465 2433 2464 2586 2410 2572 2528 2459 2417 2459 2546 2369 2403 2541 2438 2415 2454 2530 2570 2475 2513 2464 2439 2555 2454 2484 2469 2485 2431 2579 2500 2413 2370 2487 2471 2438 2405 2435 2427 2464 2458 2508 2437 2389 2434 2447 2361 2365 2522 2525 2490 2432 2459 2353 2414 2373 2521 2396 2455 2410 2504 2466 2366 2484 2394 2492 2375 2479 2394 2405 2401 2338 2476 2371 2389 2344 2292 2423 2455 2508 2395 2431 2365 2430 2465 2339 2377 2343 2429 2343 2418 2419 2473 2375 2469 2353 2395 2323 2316 2383 2371 2430 2368 2361 2398 2392 2413 2348 2428 2402 2414 2465 2381 2439 2365 2428 2332 2458 2387 2387 2355 2387 2474 2351 2376 2372 2431 2354 2398 2463 2393 2299 2323 2391 2388 2304 2408 2401 2402 2294 2372 2448 2334 2434 2430 2380 2438 2398 2419 2412 2410 2379 2449 2427 2485 2319 2365 2391 2425 2406 2347 2418 2485 2373 2563 2492 2397 2407 2324 2478 2447 2457 2374 2429 2486 2422 2460 2481 2499 2509 2444 2479 2478 2474 2516 2410 2446 2562 2491 2484 2483 2376 2597 2478 2438 2452 2421 2604 2483 2534 2444 2523 2477 2469 2518 2402 2439 2492 2428 2418 2464 2436 2452 2410 2344 2392 2438 2406 2373 2427 2425 2423 2357 2444 2330 2434 2364 2412 2393 2362 2364 2432 2326 2381 2423 2314 2336 2403 2326 2301 2400 2393 2355 2271 2374 2454 2356 2453 2331 2398 2383 2410 2320 2284 2338 2276 2351 2325 2360 2328 2323 2325 2307 2365 2311 2235 2280 2258 2296 2251 2311 2255 2382 2256 2241 2282 2224 2255 2187 2379 2279 2314 2327 2267 2227 2202 2223 2302 2242 2229 2167 2202 2171 2224 2245 2217 2157 2260 2192 2167 2187 2193 2173 2243 2186 2160 2158 2061 2196 2145 2207 2217 2004 2223 2169 2145 2076 2043 2134 2120 1957 2041 2096 2085 2092 2132 2108 1960 2117 2019 2180 2006 2025 2069 2063 2132 2023 2054 2058 2003 2043 2058 2076 2064 2074 2131 1967 2073 2061 2014 2011 2012 2028 1921 2027 2091 2055 2032 2020 1996 2094 1982 1968 1939 2020 2055 1956 1972 2006 1966 1994 1989 2048 1931 2090 2009 2022 1939 1994 2040 2013 2051 2046 2057 2024 2027 2039 1922 1966 2016 2005 1937 1950 1953 1949 1829 1848 1855 1892 1886 1880 1922 1856 1891 1849 1865 1784 1817 1879 1877 1828 1744 1895 1853 1836 1844 1802 1822 1756 1824 1787 1805 1868 1798 1765 1867 1802 1801 1817 1792 1808 1814 1789 1862 1826 1850 1780 1806 1809 1729 1758 1802 1791 1737 1794 1795 1846 1781 1780 1758 1725 1782 1744 1794 1777 1710 1787 1711 1756 1788 1778 1785 1831 1778 1745 1851 1752 1763 1723 1736 1722 1868 1754 1780 1717 1793 1817 1842 1767 1707 1781 1782 1722 1798 1829 1741 1759 1814 1781 1828 1768 1708 1754 1782 1776 1768 1839 1849 1763 1770 1836 1786 1743 1809 1863 1752 1705 1776 1844 1754 1788 1689 1777 1800 1810 1843 1807 1835 1799 1818 1852 1803 1917 1827 1885 1822 1849 1881 1910 1837 1834 1885 1792 1810 1769 1736 1757 1781 1820 1730 1767 1795 1809 1821 1820 1754 1747 1821 1765 1787 1763 1799 1839 1821 1781 1736 1780 1831 1826 1845 1805 1774 1774 1784 1754 1832 1814 1843 1762 1754 1828 1722 1832 1765 1783 1804 1800 1845 1858 1813 1875 1754 1785 1746 1763 1790 1791 1777 1797 1793 1835 1871 1804 1792 1782 1779 1815 1793 1803 1820 1744 1784 1829 1771 1719 1754 1809 1817 1755 1785 1863 1773 1774 1756 1799 1811 1759 1806 1823 1778 1797 1765 1789 1808 1835 1797 1807 1802 1777 1736 1824 1749 1795 1643 1698 1756 1822 1789 1817 1837 1792 1702 1779 1819 1700 1720 1686 1731 1739 1781 1750 1701 1685 1748 1751 1744 1716 1727 1715 1761 1693 1761 1739 1788 1684 1723 1648 1667 1633 1698 1743 1688 1669 1643 1679 1628 1698 1687 1629 1625 1638 1618 1628 1619 1675 1619 1664 1605 1628 1662 1672 1640 1598 1641 1657 1577 1630 1623 1659 1599 1660 1546 1588 1576 1651 1570 1589 1518 1577 1578 1531 1572 1608 1565 1557 1578 1583 1657 1534 1607 1579 1547 1536 1457 1539 1559 1541 1542 1530 1569 1514 1690 1559 1529 1482 1537 1466 1586 1611 1569 1603 1620 1599 1581 1558 1553 1595 1560 1511 1610 1578 1556 1548 1607 1564 1602 1534 1606 1600 1617 1557 1609 1619 1638 1600 1541 1576 1634 1609 1566 1589 1592 1602 1624 1596 1526 1551 1597 1620 1541 1647 1533 1629 1498 1562 1580 1613 1603 1617 1612 1538 1686 1634 1618 1645 1645 1643 1704 1678 1594 1690 1577 1651 1745 1716 1795 1729 1803 1742 1769 1826 1901 1842 1878 1826 1866 1848 1820 1889 1831 1815 1755 1809 1734 1727 1712 1720 1690 1647 1640 1652 1700 1675 1523 1619 1620 1585 1537 1476 1494 1524 1595 1541 1457 1480 1403 1471 1465 1472 1379 1400 1400 1514 1461 1381 1459 1351 1381 1410 1409 1397 1440 1358 1356 1430 1427 1372 1463 1335 1396 1431 1405 1447 1336 1403 1432 1359 1445 1423 1494 1467 1498 1540 1428 1506 1496 1533 1510 1521 1527 1471 1554 1529 1566 1517 1467 1536 1508 1554 1547 1499 1608 1559 1537 1522 1524 1540 1592 1623 1622 1607 1611 1628 1731 1621 1596 1614 1786 1740 1735 1713 1788 1831 1883 1859 1925 2004 2052 2074 2147 2249 2172 2184 2182 2163 2222 2213 2152 2118 2139 2129 1967 1957 1909 1864 1742 1773 1718 1713 1641 1694 1595 1518 1569 1506 1471 1470 1446 1473 1432 1378 1400 1402 1369 1330 1410 1350 1345 1398 1318 1368 1353 1336 1228 1336 1272 1256 1266 1299 1286 1268 1291 1295 1300 1311 1223 1329 1297 1283 1263 1325 1245 1232 1240 1315 1217 1240 1226 1295 1185 1298 1266 1180 1263 1268 1243 1264 1293 1231 1264 1214 1234 1177 1206 1229 1209 1199 1188 1264 1235 1213 1218 1247 1270 1170 1206 1249 1198 1230 1265 1164 1227 1185 1199 1230 1249 1178 1198 1165 1194 1219 1213 1138 1223 1200 1203 1215 1226 1199 1190 1190 1227 1177 1311 1206 1211 1171 1248 1211 1212 1254 1220 1175 1250 1224 1286 1287 1292 1322 1377 1330 1420 1392 1340 1429 1457 1368 1395 1356 1410 1398 1413 1448 1412 1461 1446 1527 1471 1454 1522 1570 1537 1679 1626 1790 1717 1844 1856 1889 1924 1982 1922 2014 1939 1851 1858 1860 1841 1696 1739 1643 1667 1538 1476 1558 1481 1394 1365 1360 1290 1178 1235 1270 1290 1215 1199 1253 1176 1254 1242 1233 1215 1204 1307 1177 1253 1217 1229 1212 1181 1205 1130 1184 1213 1193 1233 1237 1247 1174 1226 1195 1175 1239 1236 1238 1254 1258 1266 1194 1248 1313 1174 1154 1199 1243 1135 1189 1202 1142 1222 1205 1170 1178 1166 1188 1180 1211 1102 1214 1178 1144 1170 1110 1175 1216 1273 1211 1177 1185 1172 1239 1214 1204 1240 1170 1256 1240 1171 1180 1254 1214 1202 1156 1189 1144 1280 1233 1217 1129 1208 1168 1166 1171 1198 1167 1139 1240 1173 1169 1195 1137 1208 1144 1179 1143 1182 1122 1192 1106 1189 1122 1095 1126 1163 1089 1151 1096 1156 1106 1138 1200 1172 1214 1189 1186 1190 1105 1169 1135 1138 1159 1184 1171 1145 1176 1192 1178 1231 1198 1203 1109 1239 1160 1195 1108 1158 1185 1126 1139 1185 1172 1144 1138 1171 1216 1141 1233 1207 1262 1234 1273 1169 1209 1212 1242 1260 1242 1355 1294 1368 1356 1352 1305 1395 1323 1403 1435 1434 1425 1432 1555 1433 1485 1490 1542 1606 1512 1556 1558 1583 1621 1783 1756 1725 1737 1719 1786 1874 2046 1902 2004 1998 1939 1984 2023 1992 1968 1959 1932 2008 1907 1949 1942 1893 1890 1994 1960 1988 1973 1940 2022 2044 2109 2089 2091 2108 2230 2235 2268 2355 2388 2371 2464 2468 2538 2608 2725 2786 2927 3070 2904 3085 3052 3044 3105 3087 2963 2993 3000 3040 2995 3026 2916 2733 2645 2561 2564 2447 2340 2239 2129 2073 1987 1886 1820 1777 1758 1613 1645 1657 1504 1445 1452 1414 1440 1419 1361 1294 1317 1251 1219 1354 1247 1202 1255 1221 1207 1255 1117 1196 1155 1195 1231 1207 1186 1234 1112 1145 1185 1167 1140 1176 1184 1188 1114 1184 1126 1150 1193 1133 1167 1133 1133 1110 1225 1131 1139 1189 1113 1132 1156 1107 1100 1156 1097 1112 1106 1132 1096 1173 1132 1083 1103 1145 1110 1083 1063 1135 1022 1094 1182 1133 1113 1117 1127 1152 1146 1134 1227 1103 1137 1213 1109 1067 1113 1083 1130 1123 1068 1117 1132 1051 1121 1107 1125 1094 1141 1123 1092 1090 1075 1097 1168 1077 1119 1137 1045 1074 1113 1077 1084 1111 1171 1130 1121 1167 1107 1098 1116 1058 1077 1084 1079 1061 1060 1056 1093 1113 1045 1070 1096 1043 1087 1000 1145 1069 1117 1079 1108 1062 1031 1059 1058 1110 1027 1052 1118 1032 1077 1086 1087 1004 1061 1078 1068 1046 1025 1080 1027 1005 1110 1028 1143 1128 1062 1028 1070 1056 1054 1091 1011 1113 1056 1059 1010 1085 1053 1077 1079 1051 1107 1124 1074 1089 1041 1100 1062 1112 1101 1118 1089 1090 1158 1086 1141 1142 1094 1156 1054 1062 1059 1127 1053 1095 1106 991 1017 1045 1022 1042 1011 1024 1042 1033 1039 1104 1051 1048 1037 1033 1049 1047 1050 1037 1086 1039 1022 981 1042 1073 1025 1094 1072 1115 987 1038 1017 1012 1021 993 1016 1038 1062 1017 1005 970 1013 987 1041 998 1032 1047 1064 962 1058 1058 1017 1021 1072 1022 1026 1050 1112 1073 1041 1037 1006 1020 1097 1027 1039 1067 1027 1021 1060 997 1052 1021 1004 1003 1048 999 1001 1007 1021 1019 1003 1000 1026 952 959 1000 1049 1034 992 1009 1031 1034 973 990 965 1015 1002 966 992 995 982 951 1007 1005 989 951 1005 974 1017 1030 969 1032 951 1045 1024 953 935 927 1011 933 926 1004 943 963 985 971 991 1001 983 986 891 985 977 966 1051 996 981 1001 1014 977 962 972 928 938 954 929 962 940 1046 1039 926 951 956 882 1005 940 1013 998 999 947 950 998 931 988 977 981 954 989 929 925 916 950 954 1047 957 961 958 936 972 948 1005 974 969 936 969 951 973 956 974 916 920 989 900 957 949 973 925 986 902 960 1005 1046 999 960 985 962 935 958 948 997 929 915 884 935 926 920 954 951 950 974 976 973 975 998 926 989 919 1021 963 985 927 996 953 865 945 979 947 944 980 915 896 988 979 883 1003 953 968 898 960 914 921 902 967 969 953 926 1005 931 910 1011 925 940 883 914 992 934 976 919 905 894 893 973 900 957 985 928 913 913 1000 975 929 975 932 926 910 946 1013 964 928 1018 950 1009 917 954 957 949 998 928 948 887 990 977 950 948 966 954 949 917 976 949 953 1007 989 952 942 947 980 964 893 920 980 986 956 914 994 972 968 995 971 1030 940 1061 961 1003 1006 997 997 1001 1068 991 964 973 1050 993 1029 996 1009 1048 1023 1110 1022 1010 1063 1074 1050 1058 1112 1164 1059 1116 1179 1093 1149 1117 1152 1174 1245 1229 1208 1228 1209 1275 1227 1269 1257 1209 1296 1256 1291 1306 1316 1205 1297 1249 1264 1212 1246 1259 1284 1173 1195 1177 1120 1093 1083 968 1050 1048 1020 1051 964 963 1003 1023 1002 887 943 941 1002 973 981 976 966 963 889 1009 946 940 851 945 997 885 905 942 931 918 961 936 892 888 911 895 900 924 893 947 994 889 944 990 915 924 933 879 968 925 921 891 901 925 919 904 918 936 963 934 893 967 917 928 943 925 969 945 941 970 931 892 976 945 899 948 907 973 929 969 955 983 937 927 918 919 932 955 984 969 916 964 928 927 990 950 907 994 955 933 958 996 922 868 987 907 994 937 932 964 975 1023 913 984 903 1012 971 963 938 963 989 948 956 955 953 944 993 943 942 950 872 977 1009 1000 1002 975 1001 981 986 992 982 1000 1023 1072 995 1028 1002 1033 994 992 1020 988 1032 1020 1039 1114 1035 1029 1015 1024 1040 1032 988 1030 975 955 933 981 992 969 996 980 931 987 941 971 926 931 968 932 923 902 987 969 937 931 965 942 966 943 990 948 945 935 933 905 939 941 913 985 946 966 1014 970 948 1024 1034 972 949 1037 985 1010 1051 1058 1023 1058 1070 993 1008 1010 1026 976 954 1061 1049 970 963 942 977 924 989 958 947 963 955 939 918 929 924 908 947 936 933 1011 959 954 906 980 881 975 937 931 915 922 939 920 926 983 935 914 929 987 966 949 966 931 904 987 882 984 954 941 1002 1044 980 956 899 949 964 982 1030 1000 1000 976 968 1041 978 1043 1010 935 964 933 996 1006 912 967 960 931 973 943 946 970 918 953 953 921 924 971 965 987 950 1017 994 987 965 991 1035 972 1022 1005 958 1023 1007 1001 966 1022 1003 977 1064 1006 1067 1016 1025 1021 1066 1105 981 1086 1040 1047 1107 1064 1071 1059 1079 1143 1183 1107 1184 1163 1151 1163 1198 1131 1153 1237 1223 1179 1208 1217 1245 1218 1224 1256 1216 1220 1225 1205 1229 1141 1214 1122 1199 1075 1119 1104 1106 1025 1123 1054 1069 1069 1034 987 990 1016 1003 965 961 977 983 957 985 928 994 945 950 937 960 964 956 835 933 895 881 906 885 911 942 925 955 900 904 880 961 898 892 918 901 908 928 964 872 901 864 838 892 927 890 858 945 905 853 934 889 872 923 894 942 923 834 924 903 847 925 916 925 910 962 941 904 917 894 870 907 956 870 868 915 803 942 924 939 968 869 948 879 972 961 919 962 930 828 851 931 912 943 912 887 891 895 895 934 912 922 862 883 889 933 889 896 907 859 990 855 881 874 895 883 868 891 894 916 852 917 898 954 849 910 886 955 898 943 897 898 912 950 892 887 922 929 943 890 874 908 801 879 854 937 885 957 890 887 890 928 970 906 917 914 969 921 942 849 891 889 939 918 916 946 901 926 902 958 864 899 901 932 915 959 855 928 931 937 889 919 956 866 914 901 879 932 901 933 940 930 923 902 885 947 887 956 845 870 913 882 909 866 894 881 910 887 925 843 930 885 885 844 926 865 943 897 905 889 988 943 865 905 934 933 930 915 1000 991 932 966 941 930 949 903 903 959 954 977 947 935 914 1006 962 990 1009 1011 954 980 1029 1021 1049 982 979 1011 992 1045 1038 1011 1031 1066 1083 1028 1144 1096 1089 1071 1155 1107 1140 1120 1167 1107 1154 1116 1162 1088 1110 1134 1148 1084 1111 1121 1091 1086 1095 1100 1090 1159 1073 1092 1075 1057 1079 1112 1065 1035 1051 1111 1074 1072 1072 1084 1056 1072 1054 1140 1076 1114 1112 1171 1202 1197 1175 1184 1217 1220 1343 1361 1301 1268 1309 1395 1375 1442 1407 1501 1473 1546 1447 1484 1506 1562 1560 1569 1458 1516 1563 1504 1523 1543 1648 1549 1504 1597 1590 1617 1627 1647 1599 1717 1777 1719 1833 1797 1889 1975 1992 2079 2116 2076 2131 2152 2095 2142 2277 2231 2235 2194 2216 2209 2162 2300 2102 2099 2141 2009 2023 2003 1957 1848 1809 1760 1711 1733 1630 1559 1563 1506 1440 1449 1394 1373 1323 1252 1237 1219 1287 1232 1136 1129 1190 1145 1138 1071 1111 1046 1061 1030 1066 992 1015 1000 948 952 981 1005 917 963 952 991 980 956 950 944 1007 1009 963 912 895 907 893 910 923 937 938 1011 994 927 945 958 949 907 871 914 886 913 938 887 905 926 928 958 872 910 877 913 911 893 895 861 881 948 920 933 892 860 823 893 851 946 887 958 854 897 946 835 903 932 953 906 882 906 910 947 958 927 953 901 919 947 965 893 908 951 931 978 877 921 962 934 948 878 946 973 949 955 934 917 926 884 973 924 860 839 898 873 881 894 865 892 893 898 921 880 906 883 891 900 919 880 870 900 880 883 897 898 848 870 827 883 899 847 877 941 913 921 907 899 890 856 915 869 859 906 885 909 869 953 908 914 893 961 916 1011 935 934 929 968 952 966 963 935 940 986 994 1073 1028 1008 998 1039 1052 1011 1020 1050 1031 1068 1116 1090 1089 1056 1104 1113 1101 1090 1091 1137 1119 1045 1089 1060 1061 1100 1028 1030 1035 1055 1058 1029 982 1037 1019 979 940 1004 1000 1010 969 980 985 906 915 966 959 915 933 936 963 940 883 981 950 916 923 885 961 974 905 919 978 950 917 858 903 908 879 879 780 891 857 881 899 893 903 855 898 867 851 888 877 888 886 867 902 895 867 862 880 900 866 889 862 880 842 883 858 915 836 891 817 888 882 843 870 835 956 925 889 911 922 915 882 907 838 909 884 928 921 898 863 835 894 886 910 847 934 938 879 918 858 905 854 918 910 871 859 833 857 869 872 781 821 815 837 871 869 874 853 867 873 856 948 916 820 929 881 776 898 925 860 886 852 863 907 833 898 903 818 876 847 915 924 866 889 900 952 937 892 905 884 931 885 915 924 906 930 984 953 941 912 904 985 924 881 911 882 887 882 893 947 983 910 954 898 971 867 876 886 828 931 812 883 859 881 876 841 885 816 853 869 858 793 866 852 839 860 881 868 835 801 869 808 812 865 845 825 775 803 809 876 811 838 800 781 793 840 834 810 816 807 836 828 837 847 853 783 797 850 867 798 840 799 846 852 792 913 839 791 795 795 809 830 842 806 843 894 832 856 820 828 850 827 833 794 895 857 845 848 838 833 814 854 824 874 808 884 850 812 867 816 857 865 831 887 843 828 860 856 862 900 815 841 821 802 852 817 839 877 872 811 839 829 820 840 772 879 835 819 802 818 834 796 800 873 793 856 846 838 818 837 795 764 829 746 883 800 815 817 842 844 851 832 860 823 831 834 841 816 844 778 789 824 862 883 840 807 845 819 889 824 870 826 855 808 823 861 816 869 803 753 780 767 818 847 816 815 871 816 765 792 796 823 814 829 816 821 851 837 833 786 815 823 850 829 830 773 828 816 791 828 856 758 846 824 821 769 799 838 794 836 827 814 875 803 827 847 801 855 825 805 809 839 811 808 842 785 782 813 799 833 842 799 839 798 848 813 839 793 840 797 852 830 810 815 836 828 822 822 842 815 816 760 840 811 811 817 817 832 871 802 811 843 839 782 760 884 785 823 825 823 831 809 804 817 769 818 819 828 816 814 783 853 856 834 816 841 838 795 862 809 863 819 828 838 808 807 839 863 841 793 844 835 848 809 872 845 861 803 845 844 827 809 861 813 859 879 838 826 766 881 851 784 811 794 856 819 818 786 851 863 829 867 813 809 868 827 803 823 826 809 836 813 832 801 854 865 841 839 809 800 852 942 852 849 824 903 910 848 807 888 775 857 847 881 892 838 861 849 865 849 845 813 850 858 861 872 865 904 859 864 888 917 841 846 842 902 876 813 838 828 850 876 881 856 832 899 854 815 848 881 839 875 862 900 963 936 885 906 872 862 851 896 945 937 909 912 958 919 938 927 932 932 896 900 967 898 927 938 989 938 1011 917 903 926 935 906 941 953 898 897 926 925 883 936 915 912 917 914 843 872 882 864 886 864 871 836 882 918 877 887 933 865 871 915 846 927 903 944 919 887 880 899 905 864 886 914 887 918 909 858 878 907 857 867 897 914 910 910 959 941 929 911 906 938 984 886 967 929 938 944 903 920 927 875 878 947 888 930 910 906 860 897 897 904 864 913 860 876 840 867 878 858 916 805 878 878 859 841 884 861 879 837 878 880 842 877 905 865 867 845 843 861 913 880 847 916 942 838 871 882 891 853 847 876 879 897 903 886 848 903 892 868 929 911 917 877 916 936 869 906 934 927 884 944 990 921 932 883 927 927 893 954 897 929 941 914 943 933 881 884 873 884 862 853 897 843 843 871 871 896 842 925 861 876 891 834 814 823 842 912 886 842 867 821 809 861 784 880 874 833 849 820 843 802 828 859 775 761 821 839 856 827 854 882 843 833 870 869 895 872 854 906 875 883 864 863 915 865 840 892 861 906 857 865 903 897 913 855 952 873 927 950 996 889 960 996 958 986 1015 996 1049 1009 1023 1078 1123 1101 1159 1162 1170 1142 1199 1282 1241 1166 1279 1259 1281 1256 1291 1295 1229 1261 1279 1311 1243 1286 1248 1290 1247 1234 1242 1232 1101 1206 1167 1184 1213 1107 1148 1092 1063 1129 988 1055 1004 949 944 981 969 976 1014 1019 933 952 909 936 958 975 976 990 914 905 881 943 832 869 866 858 826 908 801 800 864 827 925 802 812 828 823 834 843 832 805 853 808 843 797 839 819 804 835 873 837 888 841 869 835 845 792 793 787 864 835 914 844 854 801 889 872 819 798 885 792 874 825 797 795 815 795 851 842 827 849 769 827 828 818 863 792 882 801 825 883 881 834 808 797 832 761 790 761 851 818 862 852 846 765 791 878 872 812 875 768 862 875 808 793 863 810 825 817 883 883 850 819 814 793 775 822 847 791 789 798 812 834 801 830 825 809 813 822 853 827 839 864 866 804 802 877 835 863 835 885 795 891 841 839 888 890 898 909 852 849 856 935 902 890 793 918 902 953 902 874 871 910 870 889 846 896 877 953 909 863 885 868 938 798 892 897 898 862 887 854 837 878 830 827 834 819 860 832 781 882 820 833 796 825 873 844 818 822 789 794 848 814 823 805 791 808 799 787 750 743 854 825 831 794 756 799 816 827 845 852 784 825 774 806 755 796 795 777 795 765 804 846 771 757 794 799 786 793 827 743 792 786 830 821 795 808 814 767 828 815 850 781 827 807 798 782 813 773 809 814 783 791 756 786 857 692 832 797 790 792 764 814 794 769 809 804 837 806 814 787 804 774 746 835 805 779 825 824 749 792 760 876 778 824 797 803 824 772 821 792 806 810 779 774 812 793 820 774 764 742 777 775 789 804 807 789 807 789 815 852 797 797 870 791 829 831 837 848 813 831 817 819 787 807 885 838 817 852 824 847 824 845 859 816 877 871 812 843 823 906 924 875 866 848 835 845 852 831 814 804 867 864 836 846 794 863 856 779 811 848 804 814 833 864 853 830 803 823 834 830 817 779 817 733 807 755 853 803 783 780 786 793 811 751 753 739 798 805 800 740 797 750 745 788 781 800 833 753 850 854 772 799 771 776 832 773 863 805 833 761 748 719 787 776 771 819 802 770 781 806 767 741 813 738 804 796 740 781 802 722 790 787 759 774 795 793 761 776 721 767 761 794 795 737 737 759 795 856 755 749 827 803 805 849 800 777 785 796 814 757 815 847 806 845 760 768 771 817 762 759 769 788 786 839 804 752 833 765 737 836 847 796 799 763 804 836 770 797 751 825 809 842 758 826 727 823 809 813 799 811 790 821 777 753 792 766 809 823 747 752 828 789 788 745 790 822 810 774 794 783 756 794 817 792 801 864 824 834 812 747 813 758 768 797 807 755 803 813 814 824 833 850 777 794 813 808 867 801 831 871 861 757 826 843 860 848 853 780 849 809 820 835 782 785 814 806 813 802 830 787 761 813 778 778 817 765 833 809 801 833 786 853 824 783 852 740 748 778 835 762 821 787 824 717 728 782 775 814 750 781 753 773 828 785 812 765 753 817 814 812 814 799 752 792 792 782 751 812 858 754 786 809 758 774 777 787 777 804 767 858 797 870 818 792 804 828 803 843 812 836 787 854 789 843 809 816 810 804 826 847 859 875 900 820 848 781 820 821 853 851 817 849 935 855 836 842 757 770 832 838 791 833 796 846 818 814 810 785 816 820 833 854 811 803 820 833 830 817 817 737 822 792 785 821 818 770 798 803 801 812 812 800 742 771 746 782 811 771 788 755 777 739 838 823 833 808 763 835 756 853 786 811 796 813 825 759 810 803 830 802 820 787 761 723 751 766 825 813 803 821 767 790 774 778 744 768 793 788 768 757 730 772 747 787 785 840 804 795 780 795 773 762 805 812 774 766 791 804 817 784 790 733 792 747 756 839 771 765 822 764 757 747 815 692 737 784 705 792 781 742 747 734 803 787 822 831 782 815 776 747 782 724 811 800 819 719 749 808 745 757 757 841 801 786 858 754 797 754 822 751 773 787 782 783 805 801 774 821 866 824 764 794 810 792 799 806 807 807 860 803 837 777 770 787 800 783 853 779 799 795 783 837 841 824 819 815 808 796 819 859 878 809 810 793 822 827 814 811 788 853 805 785 819 797 799 754 819 775 838 804 773 812 768 756 772 738 744 791 818 814 689 776 819 766 744 762 772 773 795 785 778 780 741 779 778 855 802 744 812 806 768 804 840 765 800 828 739 783 798 794 839 835 852 821 781 773 842 847 834 851 827 850 864 846 863 853 854 894 888 870 899 887 884 865 810 848 876 906 910 886 963 902 897 936 891 870 901 850 894 879 860 875 891 849 880 918 890 902 833 839 885 870 906 879 846 859 881 893 826 823 837 859 831 851 779 839 897 794 823 815 800 798 791 801 828 847 759 847 798 829 782 781 829 783 816 803 759 813 863 828 805 772 809 799 777 785 804 769 771 806 820 813 792 789 815 813 790 840 796 815 814 787 780 799 731 809 757 810 748 798 794 765 765 794 783 779 776 751 744 787 814 794 801 792 758 805 794 768 810 786 872 753 806 757 767 788 757 759 803 772 817 789 840 782 754 800 772 807 775 795 752 846 799 810 749 786 833 837 740 774 763 814 856 734 737 747 862 782 795 783 730 750 809 783 817 806 821 840 774 785 773 770 756 814 736 773 803 763 764 758 839 764 762 831 763 780 813 801 806 725 791 817 794 776 737 789 816 765 759 765 769 729 768 805 784 850 799 757 763 810 792 719 795 793 720 822 792 758 849 760 780 793 773 776 769 796 755 774 797 750 776 751 780 816 770 726 753 773 800 779 803 818 791 806 747 765 712 758 820 787 785 788 822 765 822 766 828 819 747 814 770 808 766 763 802 749 790 751 744 826 773 768 779 801 769 765 832 756 836 812 770 742 783 794 771 810 824 789 827 811 783 806 781 747 800 795 804 775 790 773 782 757 833 827 758 810 805 817 819 763 796 827 826 896 815 829 785 777 824 812 850 852 873 827 773 819 835 765 787 790 808 769 804 807 767 755 801 745 771 784 755 800 783 770 818 866 812 803 795 781 763 824 755 770 832 802 799 827 791 819 771 814 749 762 833 714 777 775 826 819 786 774 805 814 742 755 798 819 835 796 800 758 803 777 783 783 796 767 788 738 745 797 822 799 830 830 786 768 755 810 783 846 767 818 776 757 802 786 827 834 816 773 750 823 786 742 813 757 798 792 804 733 779 788 759 783 748 759 763 779 764 784 836 754 771 824 798 785 780 801 795 810 730 756 810 792 831 756 776 804 791 788 770 794 745 824 771 794 821 805 793 791 838 819 776 803 792 803 806 791 796 824 788 814 768 815 794 807 733 763 852 773 812 868 789 794 812 780 820 766 881 752 834 820 822 768 805 741 790 798 738 793 801 799 822 780 869 810 763 751 742 817 773 804 867 775 768 771 786 808 804 850 747 787 853 816 835 790 795 753 770 818 774 766 745 795 770 787 806 818 809 779 836 789 831 784 794 834 778 811 795 795 823 778 756 793 821 790 816 784 790 811 843 758 741 765 815 807 764 784 747 770 761 808 750 788 805 776 760 769 804 821 824 758 833 779 757 821 839 805 839 826 818 786 735 790 784 806 829 846 797 854 718 792 834 786 782 810 825 810 794 837 814 825 779 841 812 801 770 781 808 824 786 796 797 770 780 800 828 800 802 795 828 867 792 823 806 835 790 797 820 832 807 814 737 774 815 865 811 874 835 863 812 808 843 830 847 845 825 807 853 820 852 807 804 838 861 806 840 885 811 838 831 872 807 819 829 820 797 783 898 826 827 827 838 807 846 822 865 836 863 805 830 805 850 803 839 832 863 834 813 801 820 852 816 856 836 900 844 823 828 830 873 859 851 878 817 846 877 863 846 892 865 900 863 870 812 863 858 831 834 895 876 867 856 839 849 877 914 874 954 863 915 884 892 889 870 914 914 843 961 924 860 886 843 904 849 862 889 891 883 870 877 831 903 856 874 826 878 866 857 888 863 874 843 915 916 848 872 848 909 854 825 862 907 831 892 866 813 894 800 835 854 876 865 842 874 869 872 803 833 851 871 847 847 876 836 893 842 849 823 879 852 856 788 910 882 800 807 881 846 821 828 820 838 822 892 778 876 803 843 878 879 843 806 825 844 788 805 877 816 816 901 806 862 824 813 803 825 768 907 856 861 836 780 844 780 794 844 827 911 849 828 862 898 888 785 883 909 799 869 844 863 881 915 884 870 914 894 864 850 855 843 852 910 865 859 864 843 830 910 856 859 876 882 875 795 884 849 858 832 906 866 862 858 833 797 870 934 905 856 862 975 816 903 934 894 905 914 942 932 894 899 927 995 955 1003 976 1081 939 991 992 1055 1012 1032 1031 1059 1021 1031 1033 1025 1010 1008 1105 1139 1124 1102 1076 1004 1023 1054 1093 983 1019 1084 1081 1113 1063 1064 1062 1096 1134 1058 1060 1040 1034 1045 1017 1040 1109 987 1075 1011 988 980 1011 957 971 962 949 939 916 990 966 991 973 895 951 904 937 920 910 922 899 918 844 879 914 841 885 941 888 858 917 878 841 847 846 860 811 841 848 868 846 845 847 864 880 852 834 846 869 859 827 802 831 805 757 834 877 845 832 827 802 816 836 778 897 881 808 854 859 868 803 852 826 838 841 849 797 858 775 811 861 844 800 798 847 798 819 819 792 827 823 781 860 784 803 727 855 864 860 826 748 812 775 793 771 801 851 847 793 793 831 828 797 820 820 807 824 769 818 855 815 813 825 798 798 816 810 853 835 781 810 847 842 859 826 817 823 887 820 827 840 829 816 875 790 806 823 822 846 843 869 843 866 802 835 793 799 882 810 801 833 870 840 845 810 813 872 788 857 876 835 822 781 837 820 767 833 828 844 779 821 776 818 795 830 793 770 832 807 839 832 832 800 808 830 777 827 803 821 792 837 805 794 786 807 840 882 849 797 771 818 838 762 787 816 822 790 825 783 854 773 846 774 808 821 872 798 854 838 821 791 804 776 793 809 830 818 817 842 764 774 747 777 762 823 814 786 811 830 804 850 756 883 783 807 783 859 860 836 824 846 803 785 767 825 773 844 788 803 844 769 822 854 802 863 835 840 857 785 848 794 846 817 863 877 862 821 839 849 804 897 872 794 837 851 807 844 876 876 807 882 846 872 812 815 885 826 880 834 828 837 860 815 856 826 813 816 901 872 871 771 810 769 800 866 799 834 822 826 835 807 868 817 849 824 817 779 775 774 803 805 783 793 793 821 847 797 787 786 787 830 869 790 784 798 821 780 793 825 783 789 769 768 825 799 764 809 769 831 801 775 801 801 775 755 826 838 789 842 788 751 789 757 772 753 779 777 788 816 748 758 802 755 738 817 773 801 795 817 808 774 797 827 876 754 756 878 759 774 817 800 792 790 786 778 800 853 812 801 825 824 801 829 810 815 812 863 753 769 796 775 779 785 803 800 785 781 819 823 826 808 819 791 822 823 802 814 763 853 806 854 826 813 807 855 746 826 784 790 758 773 799 766 806 833 737 829 781 833 767 771 797 820 730 819 818 787 787 826 801 808 837 768 817 803 793 777 799 822 779 805 790 787 826 814 760 797 773 842 761 784 795 750 789 764 785 822 776 822 767 792 793 797 788 782 829 813 763 781 793 749 835 799 729 792 833 807 831 785 791 813 841 760 778 817 736 840 830 837 775 809 820 759 823 747 791 814 756 790 826 897 822 778 787 776 796 830 806 850 778 768 834 801 771 779 814 784 786 813 826 799 824 840 847 818 820 765 758 804 798 837 836 837 837 808 830 769 810 788 803 815 834 850 864 816 870 852 829 789 795 806 826 839 812 778 808 803 857 857 813 795 854 800 803 878 787 818 798 838 786 816 853 827 858 886 851 821 831 865 845 840 785 834 829 777 832 810 777 834 847 801 877 838 847 831 824 869 797 889 843 839 799 794 814 776 796 805 766 790 746 886 826 835 779 826 775 808 750 790 773 810 831 807 821 868 842 819 865 843 795 826 775 818 792 770 796 803 774 839 824 874 789 851 816 787 813 745 809 831 834 810 809 844 792 816 834 872 835 840 855 796 800 831 805 807 848 855 868 788 815 832 773 816 866 868 803 808 814 853 791 791 805 849 827 864 865 844 861 801 805 795 763 786 824 815 816 792 792 814 811 851 807 802 779 777 798 798 757 812 779 753 881 869 851 759 850 803 798 801 824 798 783 819 813 825 840 787 830 799 823 808 810 825 807 812 817 800 829 837 878 798 884 832 810 856 825 839 881 834 864 903 840 863 788 790 765 784 788 837 821 828 878 806 795 834 826 837 813 800 831 838 821 811 858 851 839 813 837 838 868 816 841 855 812 831 902 790 838 840 827 843 887 868 848 804 826 812 866 879 801 817 886 835 845 828 850 886 856 882 899 872 962 942 894 902 965 1016 943 961 951 1003 1012 994 939 990 998 990 1023 1025 1043 1022 1007 961 962 982 946 977 948 927 999 943 924 976 926 986 996 1046 997 971 918 963 966 1032 1009 1026 1105 1025 986 1052 939 979 964 926 966 948 937 939 906 930 917 823 916 936 970 961 886 907 948 943 924 929 976 862 880 917 891 856 859 850 879 884 887 926 903 889 924 906 856 879 840 826 927 905 806 829 879 835 853 886 877 866 825 876 843 889 871 790 846 771 828 799 843 844 778 801 827 863 769 789 791 853 821 826 792 847 837 829 837 859 862 839 832 817 800 803 840 833 822 836 783 839 870 843 864 842 847 823 831 790 818 783 856 740 813 794 794 866 779 811 794 865 862 843 884 827 851 801 869 767 862 875 809 827 826 788 839 821 830 850 812 850 777 859 828 809 839 818 847 806 797 841 792 861 790 864 804 766 834 833 835 807 803 773 808 805 802 808 802 813 790 799 846 798 805 798 826 791 814 807 835 811 835 743 754 835 804 775 806 790 820 761 850 848 797 811 771 854 814 833 790 788 786 762 839 794 774 763 762 778 823 779 808 798 775 741 840 793 831 839 790 821 867 817 838 838 795 806 817 775 812 812 802 751 806 781 852 866 776 757 808 861 721 773 794 768 848 793 818 793 883 821 796 844 787 791 786 744 877 790 834 821 813 776 808 852 809 806 790 762 769 800 768 873 833 827 780 821 809 808 768 771 809 810 805 789 793 736 815 778 792 801 776 784 785 756 764 818 805 788 788 814 766 829 796 763 784 781 734 806 811 785 786 789 758 771 788 811 756 787 763 790 793 818 809 799 827 781 770 781 788 782 806 775 756 769 731 767 773 780 799 758 815 744 740 823 814 784 788 760 753 771 821 792 740 755 794 733 777 779 785 750 786 729 700 803 793 745 870 791 767 805 758 766 826 736 815 768 764 769 758 767 786 762 797 749 785 757 767 798 786 795 778 796 804 753 804 774 775 760 782 799 758 784 817 784 820 779 797 829 792 828 812 863 822 754 733 744 822 814 732 786 815 750 779 741 820 732 733 769 798 769 811 791 733 762 742 760 781 733 723 786 792 782 769 823 758 775 812 811 798 763 803 769 769 855 753 798 755 828 753 815 780 787 819 761 779 814 725 791 755 767 754 794 799 765 791 779 786 746 776 802 825 803 800 758 764 789 785 791 773 805 742 788 830 743 757 794 800 790 836 798 787 766 808 769 797 781 755 792 763 755 824 746 768 771 798 791 802 767 770 801 840 736 815 782 795 814 752 814 786 776 809 781 721 780 796 798 785 806 756 859 804 833 847 781 742 772 760 824 763 804 773 751 820 779 837 823 776 809 783 820 772 837 771 825 860 799 830 797 742 772 789 814 838 785 774 810 774 762 787 806 789 799 816 818 775 795 768 816 772 822 821 818 801 788 806 801 881 835 810 829 814 774 835 810 899 797 796 895 779 853 796 835 787 813 820 861 799 849 847 852 803 858 787 844 752 788 828 876 818 851 816 822 828 752 790 863 826 777 799 825 834 843 851 835 819 866 877 863 880 859 833 811 789 841 856 796 840 818 827 809 780 802 802 832 813 829 812 801 818 835 812 807 826 810 876 892 834 806 819 885 850 847</counts>
			</dataPoints>
		</scan>
	</xrdMeasurement>
</xrdMeasurements>
