<?xml version="1.0"?>
<xrdMeasurements xmlns="http://www.xrdml.com/XRDMeasurement/2.3" xmlns:xsi="http://www.w3.org/2001/XMLSchema-instance" xsi:schemaLocation="http://www.xrdml.com/XRDMeasurement/2.3 http://www.xrdml.com/XRDMeasurement/2.3/XRDMeasurement.xsd" status="Completed" recordIdentifier="{FEBE07AD-1D16-4884-9ADC-9E1808083830}">
	<comment>
		<entry/>
	</comment>
	<sample type="To be analyzed">
		<id>GPSS_Li2Fe0p5Zn0p5Cl4_100725_68e5a91e07cf888582f9360a</id>
		<name></name>
		<preparedBy></preparedBy>
	</sample>
	<xrdMeasurement measurementType="Scan" status="Completed" sampleMode="Reflection">
		<usedWavelength intended="K-Alpha 1">
			<kAlpha1 unit="Angstrom">1.5405980</kAlpha1>
			<kAlpha2 unit="Angstrom">1.5444260</kAlpha2>
			<kBeta unit="Angstrom">1.3922500</kBeta>
			<ratioKAlpha2KAlpha1>0.5000</ratioKAlpha2KAlpha1>
		</usedWavelength>
		<incidentBeamPath>
			<radius unit="mm">145.00</radius>
			<xRayTube id="1010048" name="Empyrean Cu LFF HR (9430 033 7310x)">
				<tension unit="kV">40.0</tension>
				<current unit="mA">15.0</current>
				<anodeMaterial>Cu</anodeMaterial>
				<focus type="Line">
					<length unit="mm">12.0</length>
					<width unit="mm">0.4</width>
					<takeOffAngle unit="deg">6.0</takeOffAngle>
				</focus>
			</xRayTube>
			<sollerSlit id="21010002" name="Soller slits 0.04 rad.">
				<opening unit="rad">0.0400</opening>
			</sollerSlit>
			<mask id="22031000" name="Fixed mask 13 mm">
				<width unit="mm">9.00</width>
			</mask>
			<divergenceSlit id="22120001" name="Divergence slit 1°" xsi:type="fixedDivergenceSlitType">
				<distanceToSample unit="mm">50.00</distanceToSample>
				<height unit="mm">1.52</height>
			</divergenceSlit>
		</incidentBeamPath>
		<sampleMovement xsi:type="spinningSampleMovementType">
			<spinnerRevolutionTime unit="seconds">1.0</spinnerRevolutionTime>
		</sampleMovement>
		<diffractedBeamPath>
			<radius unit="mm">145.00</radius>
			<antiScatterSlit id="22090040" name="AS slit 9 mm (PIXcel)" xsi:type="fixedAntiScatterSlitType">
				<height unit="mm">9.00</height>
			</antiScatterSlit>
			<sollerSlit id="21020003" name="Large Soller slits 0.04 rad.">
				<opening unit="rad">0.0400</opening>
			</sollerSlit>
			<filter id="20030001" name="Large beta-filter Nickel">
				<material>Ni</material>
				<thickness unit="mm">0.020</thickness>
			</filter>
			<detector id="7010019" name="PIXcel1D-Medipix3 detector" xsi:type="rtmsDetectorType">
				<phd unit="keV">
					<lowerLevel>4.02</lowerLevel>
					<upperLevel>11.27</upperLevel>
				</phd>
				<mode>Scanning</mode>
				<activeLength unit="deg">5.542</activeLength>
			</detector>
		</diffractedBeamPath>
		<scan appendNumber="0" mode="Continuous" scanAxis="Gonio" status="Completed">
			<header>
				<startTimeStamp>2025-10-09T13:17:51-07:00</startTimeStamp>
				<endTimeStamp>2025-10-09T13:25:58-07:00</endTimeStamp>
				<author>
					<name>AutomatedUser</name>
				</author>
				<source>
					<applicationSoftware version="1.7b (136)">PANalytical Aeris Instrument Suite</applicationSoftware>
					<instrumentControlSoftware version="3.2.00000000 20240306">AERIS</instrumentControlSoftware>
					<instrumentID>950485</instrumentID>
				</source>
			</header>
			<dataPoints>
				<positions axis="2Theta" unit="deg">
					<startPosition>10.00943322</startPosition>
					<endPosition>99.99442286</endPosition>
				</positions>
				<positions axis="Omega" unit="deg">
					<startPosition>5.00471661</startPosition>
					<endPosition>49.99721143</endPosition>
				</positions>
				<commonCountingTime unit="seconds">12.495</commonCountingTime>
				<counts unit="counts">2896 2848 2841 2958 2848 2894 2809 2986 2909 2905 2850 3005 2967 2958 2936 2929 2808 2892 2882 3000 2899 2967 2881 2994 2867 2965 2938 2942 2951 2911 3058 2918 2882 2956 2867 2997 2914 2914 2839 2959 3009 2875 2991 2822 3054 2963 3008 2998 2922 3089 2995 3003 2967 2889 3048 2993 3008 3012 3036 2986 3007 3008 3048 2979 3073 2930 3108 3000 2964 2956 3015 3030 2977 2985 2963 3033 3105 2863 2983 3022 3007 2932 2980 3139 2984 3062 3058 3006 3106 3042 3083 3014 3032 3017 3052 3049 2992 3063 3052 3077 3085 3029 2982 3008 3179 3024 3138 3060 3006 2988 2998 3036 3047 3061 3126 3095 3169 3101 3139 2813 3038 3159 3064 3114 3086 3115 3146 3013 3024 3017 3230 3127 3172 3051 3072 3088 3054 3121 3074 3056 3165 3112 3140 2954 3027 3052 3098 3039 3133 3098 3067 3075 3059 3115 3078 3040 3084 3060 3130 3130 3192 3053 3119 3075 2999 3060 3056 3087 3085 3001 3064 3034 3123 3061 3008 3052 3058 3000 3004 3114 2990 3111 3091 3021 3066 3023 3021 2988 2906 3031 3159 3039 3107 3079 3100 3089 3008 2950 3091 3121 2985 3006 3008 3039 3019 3030 2980 3061 2966 3012 3116 3048 2982 3179 2981 3116 3136 3041 3042 2994 3002 3046 2956 2979 3128 2929 2998 2963 3005 2975 2975 3025 3033 2965 3080 3016 3110 2996 2980 3003 3013 2944 2976 2957 2963 2955 2909 2994 2888 2972 2955 3003 2913 2996 3011 3125 2962 3031 2985 3005 3016 2941 2942 2914 2956 2890 2910 3068 2975 2940 2907 2929 2956 2874 2950 2985 2990 2986 2970 3072 2872 2968 2945 2993 2981 2939 2922 3076 2927 3091 2947 2967 2997 2868 2912 2892 2998 2972 3064 2957 2997 3080 3022 3017 2977 2994 3035 3061 3140 3128 3078 3031 2985 2975 2885 3082 3089 3038 3010 3047 2937 3129 2948 3103 3033 3055 3052 3025 3150 3070 3053 2996 3003 3043 3080 3105 3176 3158 3147 3133 3174 3101 3154 3063 3155 3040 3154 3195 3039 3146 3189 3079 3192 3127 3217 3141 3291 3189 3159 3215 3148 3178 3217 3186 3157 3183 3181 3176 3422 3323 3283 3284 3290 3344 3274 3310 3145 3277 3373 3330 3373 3380 3375 3387 3329 3298 3338 3354 3259 3392 3408 3487 3341 3392 3399 3375 3413 3276 3361 3431 3453 3465 3453 3391 3454 3549 3527 3534 3490 3536 3511 3416 3570 3490 3532 3567 3539 3453 3545 3506 3562 3477 3622 3429 3481 3603 3597 3567 3531 3554 3434 3593 3533 3660 3594 3620 3594 3587 3630 3529 3676 3551 3591 3541 3570 3610 3555 3640 3727 3656 3766 3769 3735 3764 3905 3926 3891 3851 3834 4038 4094 3930 4023 4140 4140 4264 4331 4257 4382 4402 4221 4400 4378 4437 4506 4523 4667 4525 4727 4961 5048 5083 5114 5301 5419 5368 5665 5609 5778 5800 5786 5710 5704 5829 5764 5808 5825 5744 5705 5765 5762 5909 5828 5810 5819 5845 5939 5983 6048 6068 5978 6220 6217 6426 6270 6154 6196 6215 6048 5928 5668 5498 5150 5049 4731 4492 4204 3929 3785 3700 3606 3606 3527 3479 3429 3398 3443 3308 3451 3378 3432 3439 3404 3398 3352 3304 3357 3317 3346 3404 3347 3346 3249 3325 3391 3345 3324 3282 3297 3281 3261 3263 3273 3249 3148 3278 3213 3174 3218 3247 3214 3331 3335 3282 3154 3168 3206 3331 3189 3163 3167 3121 3224 3051 3238 3209 3164 3196 3091 3247 3197 3250 3253 3201 3161 3117 3162 3112 3089 3167 3065 3089 3149 3062 3095 3091 3125 3205 2996 3011 3028 3081 2915 3107 2984 3042 2962 3075 2875 2912 2839 2982 2935 2946 2882 2916 2964 3026 3037 2964 3019 3032 2963 2967 3057 2909 2908 3000 2943 3048 2958 2973 2996 2903 2978 3015 2941 3006 3008 3027 3020 3027 2973 3079 2945 3069 3030 3117 3181 3086 3182 3205 3218 3230 3122 3116 3248 3126 3209 3090 3224 3102 3135 3148 3213 3124 3087 3100 3247 3119 3267 3176 3009 3126 3147 3029 3073 3156 3212 3119 3239 3050 3108 2974 3059 2963 2982 2950 2963 2987 3075 3056 2930 2931 2971 2972 2936 2896 2965 2888 2857 2867 2911 2919 2962 2832 2808 2896 2867 2897 2975 2957 2821 2859 2935 2913 2935 2872 2900 2775 2916 2849 2810 2857 2889 2826 2902 2878 2905 2806 2826 2898 2834 2869 2921 2858 2908 2943 2911 2927 2870 2949 2999 2902 2931 2912 2919 2844 2915 3003 2913 3019 2958 2858 2920 2853 2855 2866 2950 2931 2834 2896 2947 2948 2955 2912 2937 2898 3022 3013 2867 3029 2903 2960 3134 2884 3105 2988 2943 2971 2978 3042 2980 2933 2996 2975 3009 3001 3026 2973 3030 2987 2986 2998 2904 3065 2964 2914 2991 2930 2881 2946 2989 2853 2920 2839 2923 2855 2863 2868 2799 2796 2844 2928 2898 2835 2914 2911 2875 2838 2767 2942 2858 2858 2843 2812 2907 2929 2842 2877 2907 2858 2861 2848 2791 2800 2874 2784 2855 2693 2888 2768 2819 2851 2766 2683 2717 2781 2709 2817 2676 2660 2760 2724 2764 2687 2669 2760 2734 2727 2660 2633 2764 2632 2670 2829 2736 2740 2650 2678 2784 2827 2776 2665 2739 2581 2667 2611 2655 2667 2716 2649 2703 2609 2649 2772 2626 2712 2766 2639 2733 2641 2668 2691 2654 2630 2691 2773 2709 2665 2702 2696 2716 2568 2680 2539 2678 2615 2675 2654 2708 2755 2670 2671 2696 2775 2591 2629 2620 2659 2703 2677 2713 2733 2680 2679 2688 2617 2735 2646 2649 2677 2726 2660 2676 2730 2664 2763 2623 2732 2694 2723 2753 2643 2606 2685 2641 2698 2619 2623 2633 2573 2594 2640 2734 2671 2601 2599 2561 2607 2592 2659 2721 2652 2525 2654 2634 2576 2651 2625 2504 2635 2783 2497 2543 2525 2487 2521 2523 2541 2570 2564 2552 2562 2653 2564 2490 2595 2515 2630 2500 2674 2597 2601 2643 2553 2524 2470 2615 2697 2471 2659 2539 2568 2579 2615 2593 2627 2468 2568 2574 2563 2552 2675 2533 2613 2547 2646 2681 2597 2535 2546 2675 2502 2654 2639 2591 2581 2584 2598 2627 2623 2562 2572 2603 2659 2655 2621 2605 2713 2643 2628 2666 2695 2603 2700 2579 2589 2585 2614 2491 2710 2580 2676 2639 2653 2626 2631 2658 2571 2814 2623 2565 2522 2577 2574 2585 2705 2720 2679 2594 2671 2619 2596 2580 2653 2620 2657 2635 2744 2598 2631 2560 2633 2668 2638 2779 2742 2746 2764 2709 2606 2704 2668 2696 2666 2714 2696 2649 2598 2673 2635 2604 2652 2554 2597 2664 2735 2543 2723 2649 2644 2729 2672 2610 2682 2561 2646 2631 2640 2558 2528 2626 2532 2565 2552 2588 2588 2449 2544 2592 2567 2557 2476 2581 2542 2562 2483 2552 2489 2427 2466 2532 2417 2495 2616 2494 2545 2466 2429 2447 2482 2511 2441 2427 2396 2434 2521 2485 2579 2482 2480 2459 2434 2438 2418 2452 2425 2513 2432 2485 2449 2401 2404 2433 2476 2409 2363 2450 2469 2383 2497 2381 2234 2363 2314 2416 2366 2359 2360 2396 2303 2318 2439 2462 2457 2441 2420 2439 2357 2429 2381 2355 2418 2479 2375 2331 2405 2421 2301 2424 2403 2342 2337 2371 2297 2358 2306 2356 2312 2297 2359 2327 2351 2280 2338 2284 2324 2275 2396 2324 2360 2341 2299 2208 2294 2310 2251 2263 2228 2287 2285 2212 2215 2270 2230 2169 2242 2286 2230 2212 2210 2257 2188 2214 2218 2203 2193 2081 2217 2183 2143 2125 2183 2164 2159 2145 2223 2177 2220 2113 2137 2179 2162 2142 2121 2110 2093 2168 2088 2122 2042 2034 2159 2061 2155 2066 2132 2039 2059 2141 2165 2140 2151 2153 2129 2035 2132 2117 2160 2107 2143 2124 2078 2107 2055 2069 2093 2085 2147 2168 2038 2108 2064 2139 2144 2113 2147 2022 2111 2104 2110 2015 2037 2054 2055 2077 2116 2101 2093 2102 2061 2158 2058 2143 2081 2088 2033 2083 2081 2116 2121 2050 2018 2052 2097 2120 2070 2138 2082 2078 2105 1984 2045 2043 2138 2012 2035 2004 2060 2033 2052 1957 2012 1968 2028 2002 2074 1987 2010 1935 2029 1972 2000 2001 1961 1968 1923 1896 1960 2006 2080 2005 1968 2031 2011 1967 1998 1961 1970 1975 2014 2024 2004 1973 1979 2084 1989 1946 1984 1950 1993 2077 2029 2148 1945 2042 2007 1995 2032 2035 2027 2087 1943 2012 2008 2058 1974 2070 1985 2059 2065 1952 1991 1977 1992 2015 2048 1997 1888 2009 2008 1983 2050 2048 2091 2059 1956 2051 2095 2068 2077 2082 2036 2047 1941 2085 1944 2015 1987 2034 2039 2046 1994 1956 1985 1983 2049 2060 2145 2038 1998 1998 2018 1977 2057 2045 2051 2063 1908 2005 2008 1948 2093 2009 1991 1932 1994 1948 1948 1870 1935 2068 1992 1926 1949 1917 2056 2058 1933 1957 2002 1968 1914 1987 1931 1945 2039 1942 2045 1865 1950 1881 1966 1925 1998 1927 2015 1902 2017 1953 1983 1916 1979 1932 1844 2027 2015 1920 2036 1939 1963 1901 1877 1944 1993 1979 1942 1968 1891 1895 1897 1960 1943 1848 1877 1964 1941 1916 1869 1927 1896 1884 1973 1884 1950 1887 1930 1909 1879 1952 1908 1887 1914 1895 1941 1979 1890 1994 1889 1949 1964 1943 1857 1930 1957 1985 1931 2059 2007 2099 2223 2308 2344 2336 2235 2266 2137 2187 2145 2168 2194 2003 2112 1985 1999 1951 1953 1954 1996 1952 1865 2020 1931 2013 1980 2124 1993 2044 1982 2023 1945 1942 2074 1910 1951 2016 1988 1953 1912 1891 1934 2011 2005 2024 2015 1934 2063 1950 2011 1961 2006 1947 2013 2016 1929 1956 1962 1927 1928 1946 1968 1927 1936 1922 1878 1950 1912 1922 1971 1947 1942 1911 1897 1847 1855 1939 1917 1928 1914 1993 1915 1938 2034 1904 2004 1953 1988 1923 1895 1947 1887 1954 1973 2057 1909 1872 1907 1955 1945 1918 1882 1864 1934 1925 1908 1896 1793 1909 1803 1778 1717 1775 1752 1780 1746 1741 1729 1782 1727 1807 1814 1784 1692 1728 1729 1779 1775 1785 1759 1798 1705 1800 1785 1768 1725 1856 1841 1716 1772 1775 1797 1748 1788 1764 1802 1728 1785 1737 1771 1854 1775 1769 1793 1811 1840 1885 1842 1899 1884 1861 1907 1830 1938 1883 1971 1912 1915 1970 1943 1930 2021 1937 2031 1949 2040 1947 2021 1951 1975 2048 1983 2058 2111 2276 2179 2182 2262 2174 2192 2285 2189 2208 2205 2247 2288 2305 2188 2182 2266 2242 2280 2083 2240 2125 2285 2129 2436 2123 2323 2171 2319 2295 2112 2200 2182 2302 2123 2127 1836 2056 1868 2018 1845 2000 1833 1781 1783 1762 1724 1847 1691 1779 1761 1816 1793 1769 1721 1735 1874 1795 1845 1844 1945 1865 1962 1995 2010 2148 2200 2153 2322 2522 2627 2812 2812 3087 3045 3109 3140 3286 3212 3115 3062 3207 3009 3150 2914 3008 2857 2983 3066 2933 3020 3039 3024 3067 3180 3099 3126 3014 3061 2933 3099 2952 3034 3045 3250 3157 3237 3043 3111 3096 3019 3096 3065 2943 2841 2749 2802 2629 2563 2517 2479 2329 2271 2294 2280 2163 2067 2119 2087 2045 2043 2049 1940 1877 1873 1794 1726 1714 1736 1663 1617 1672 1690 1516 1545 1606 1532 1590 1591 1518 1547 1595 1619 1574 1601 1503 1486 1489 1452 1525 1503 1598 1537 1498 1519 1564 1516 1545 1520 1565 1554 1465 1572 1484 1477 1564 1446 1429 1474 1526 1424 1547 1409 1514 1519 1533 1519 1462 1542 1538 1522 1536 1555 1556 1521 1595 1607 1574 1650 1635 1661 1666 1749 1724 1628 1718 1646 1677 1687 1757 1783 1743 1754 1784 1742 1770 1762 1816 1664 1726 1714 1736 1729 1686 1790 1744 1728 1668 1730 1701 1661 1638 1642 1672 1639 1624 1609 1728 1658 1643 1696 1677 1691 1622 1610 1672 1612 1678 1671 1717 1686 1652 1655 1608 1605 1635 1503 1569 1562 1509 1555 1405 1542 1497 1402 1474 1439 1437 1389 1366 1335 1345 1334 1390 1376 1346 1279 1301 1307 1306 1334 1350 1311 1366 1368 1353 1365 1392 1359 1317 1328 1357 1410 1401 1395 1383 1375 1389 1509 1410 1417 1384 1455 1479 1526 1414 1526 1438 1454 1439 1413 1405 1480 1401 1463 1390 1360 1435 1448 1408 1357 1462 1463 1472 1371 1450 1425 1344 1377 1371 1503 1395 1411 1470 1337 1443 1367 1362 1374 1316 1355 1379 1271 1333 1359 1329 1353 1296 1328 1328 1301 1300 1398 1317 1334 1311 1323 1243 1302 1285 1255 1229 1276 1258 1299 1272 1264 1316 1365 1293 1304 1228 1289 1322 1320 1251 1302 1258 1286 1369 1304 1337 1276 1264 1301 1234 1248 1286 1288 1325 1309 1270 1317 1288 1288 1315 1231 1286 1236 1224 1203 1309 1188 1236 1325 1216 1261 1265 1255 1274 1297 1276 1277 1233 1254 1225 1351 1277 1207 1255 1217 1254 1253 1272 1296 1261 1283 1274 1326 1286 1274 1302 1292 1303 1285 1302 1241 1276 1298 1274 1258 1213 1272 1298 1233 1259 1232 1214 1290 1249 1271 1238 1288 1245 1212 1269 1246 1232 1340 1252 1330 1262 1280 1261 1264 1290 1216 1261 1246 1278 1314 1308 1287 1283 1369 1251 1336 1353 1298 1351 1394 1354 1308 1345 1367 1394 1287 1424 1383 1436 1362 1357 1506 1577 1469 1491 1520 1594 1626 1656 1759 1760 1776 1800 1963 1993 2031 2180 2373 2390 2624 2814 3271 3441 4043 4236 4881 5099 5791 5840 6126 5997 5669 5366 5071 4694 4839 4473 4668 4584 4434 4296 4009 3788 3714 3745 3790 3843 3959 3737 3963 3901 3943 3986 4092 3972 4032 3788 3726 3430 3380 3255 3411 3298 3318 3147 3094 3059 2919 2896 2846 2859 2722 2583 2659 2564 2521 2416 2554 2387 2449 2461 2381 2253 2352 2204 2159 2061 2145 2106 2079 2088 1947 1988 1969 1869 1871 1847 1905 1774 1782 1820 1691 1825 1768 1727 1720 1767 1720 1748 1613 1698 1714 1712 1609 1537 1529 1545 1492 1463 1483 1481 1481 1378 1426 1433 1371 1399 1319 1397 1377 1287 1359 1327 1394 1328 1401 1304 1319 1298 1333 1372 1336 1339 1379 1267 1323 1296 1328 1214 1300 1284 1253 1326 1274 1267 1322 1285 1291 1269 1273 1222 1239 1283 1285 1282 1240 1241 1282 1255 1239 1215 1266 1222 1255 1290 1279 1309 1242 1210 1264 1227 1208 1241 1199 1190 1295 1177 1220 1196 1168 1182 1185 1194 1228 1215 1199 1191 1186 1239 1212 1248 1164 1254 1225 1169 1106 1142 1213 1193 1196 1215 1197 1141 1126 1159 1158 1122 1217 1160 1117 1121 1182 1132 1184 1196 1153 1213 1143 1211 1159 1146 1250 1145 1156 1161 1194 1198 1160 1142 1138 1249 1195 1144 1095 1171 1209 1199 1134 1132 1150 1196 1188 1116 1149 1128 1156 1175 1144 1133 1111 1114 1157 1115 1154 1133 1116 1088 1132 1157 1110 1126 1140 1143 1166 1122 1176 1136 1108 1139 1139 1182 1146 1181 1200 1138 1200 1120 1214 1161 1247 1208 1215 1199 1257 1294 1264 1261 1253 1296 1250 1160 1214 1290 1320 1262 1302 1250 1190 1212 1167 1232 1203 1221 1263 1262 1214 1237 1156 1180 1231 1157 1180 1165 1155 1219 1168 1177 1214 1203 1200 1161 1131 1183 1184 1232 1193 1173 1179 1132 1175 1187 1176 1183 1148 1157 1120 1217 1127 1128 1152 1116 1151 1186 1145 1112 1136 1087 1173 1132 1128 1130 1172 1138 1197 1176 1134 1190 1224 1182 1115 1215 1210 1102 1201 1128 1119 1218 1181 1192 1175 1251 1131 1144 1147 1163 1230 1158 1135 1219 1174 1249 1157 1182 1180 1219 1209 1210 1219 1175 1242 1203 1202 1141 1175 1201 1217 1236 1219 1198 1168 1197 1187 1158 1189 1148 1148 1172 1147 1189 1081 1227 1200 1197 1134 1116 1134 1162 1123 1161 1116 1202 1162 1151 1162 1211 1135 1148 1117 1169 1113 1078 1110 1083 1133 1152 1072 1096 1085 1096 1129 1135 1080 1050 1087 1141 1006 1088 1079 1152 1041 1063 1051 1063 1110 1072 1095 1145 1130 1043 1111 1098 1085 1070 1031 1101 1141 1086 1124 1049 1066 1113 1097 1132 1128 1039 1105 1163 1097 1143 1142 1114 1110 1081 1101 1142 1150 1142 1151 1146 1102 1141 1135 1070 1116 1146 1117 1116 1146 1140 1119 1107 1110 1144 1155 1160 1065 1138 1122 1135 1111 1110 1074 1081 1110 1148 1104 1092 1093 1090 1034 1127 1019 1131 1174 1093 1067 1219 1110 1077 1076 1064 1102 1140 1052 1127 1044 1039 1107 1062 1075 1144 1151 1133 1168 1157 1124 1089 1131 1147 1187 1168 1208 1084 1211 1102 1113 1163 1191 1090 1134 1153 1193 1186 1229 1193 1210 1198 1134 1138 1179 1205 1128 1243 1194 1180 1235 1167 1196 1155 1153 1062 1155 1116 1059 1097 1099 1205 1149 1115 1186 1138 1117 1136 1084 1077 1133 1187 1059 1126 1142 1102 1111 1119 1062 1030 1152 1098 1099 1131 1111 1067 1081 1116 1114 1029 1117 1089 1085 1094 1137 1110 1075 1112 1058 1091 1051 1164 1050 1127 1112 1152 1068 1070 1045 1089 1063 1008 1070 1074 1060 1071 984 1064 1060 1060 1032 1043 1019 1065 1037 1133 1063 1034 1044 1042 1072 1056 1082 1045 1043 1051 1022 1136 1030 1091 1028 1099 1027 1106 1089 1110 1079 1056 1057 1103 1061 1076 1045 1066 1075 1045 1054 1038 1055 1045 1054 1045 987 1048 1061 985 1050 1033 1050 1006 1060 1008 1047 1011 1052 1024 1011 1036 1019 1061 1044 1066 1043 1035 1049 1064 1033 1026 1080 1087 1066 1031 989 1037 1064 1046 1113 1011 1041 1086 1022 1021 1070 1045 1016 1057 1073 1059 1124 1074 1144 1100 1079 1141 1145 1125 1103 1098 1115 1113 1091 1133 1091 1091 1058 1117 1098 1060 1114 1118 1107 1074 1035 1111 1072 1151 1031 1044 1136 1082 1132 1087 1130 1137 1106 1193 1146 1202 1144 1134 1215 1081 1144 1142 1175 1162 1141 1195 1195 1028 1192 1110 1176 1154 1080 1129 1070 1175 1152 1089 1062 1084 1153 1110 1039 1060 1038 1032 1067 1029 1059 1047 1065 1034 1074 1039 1061 1032 1129 1028 1100 1091 1035 1086 1013 982 1026 1077 1041 1007 970 1028 1071 1013 1071 981 1026 997 1048 1015 1066 1034 1044 1056 1021 995 1042 1083 1071 1090 1032 1076 1042 1041 1018 1078 1036 1068 1014 1086 1035 1027 1050 1109 1098 1113 1063 1091 1031 1047 1010 1061 1074 991 1016 1010 993 1042 1092 1065 1062 1012 1002 1020 1063 1004 1056 1099 1007 1096 1073 1065 1113 1061 1012 1067 1056 1062 1006 1082 1000 1021 1107 1009 1073 983 1035 995 1044 1001 1006 1058 993 1024 1029 994 1061 1028 1009 1037 1032 973 978 1064 1005 986 998 1007 979 988 998 1028 1028 1116 1057 1054 1040 1098 1057 1039 1063 992 1055 1076 1074 1064 1054 1076 1038 1088 1058 1027 1032 1100 1106 1070 1013 1068 1103 1089 1069 1021 1025 1031 1053 1093 1105 1082 1023 1045 1005 1068 1020 1053 979 970 970 1029 1053 1000 1013 1061 1064 1078 1071 1070 998 965 1082 990 1032 1072 1071 1078 1013 1155 1061 1084 1003 1054 1030 1046 1007 1075 1047 1088 1078 1096 1080 1092 1099 1119 1157 1142 1100 1055 1054 1128 1065 1122 1083 1145 1138 1099 1109 1076 1146 1120 1109 1088 1075 1106 1065 1140 1098 1129 1152 1093 1078 1098 1155 1131 1141 1078 1155 1090 1087 1070 1104 1090 1127 1181 1118 1088 1106 1094 1085 1109 1128 1122 1145 1113 1044 1092 1042 1084 1019 1060 1095 1084 1049 1078 1117 1016 1119 1108 1063 1150 1162 1120 1085 1077 1056 1084 1078 1149 1131 1192 1157 1165 1200 1183 1174 1207 1189 1201 1118 1155 1204 1186 1181 1195 1185 1213 1167 1232 1195 1233 1198 1218 1168 1147 1238 1167 1257 1158 1164 1139 1159 1209 1126 1136 1143 1165 1103 1125 1123 1147 1139 1132 1105 1143 1137 1125 1056 1091 1084 1079 1080 1140 1055 1095 1036 1030 1038 1043 1076 1037 1046 1001 1073 1075 1037 1046 996 987 1024 1097 1018 1030 1038 1060 1023 1034 937 1017 1035 990 1070 1080 905 1037 916 1061 966 1023 1050 1029 996 1028 966 1033 1036 1004 1061 1108 1017 991 1022 1056 1007 1056 1052 1066 1004 1019 1023 1048 982 1053 1021 1042 1020 1042 1016 1139 1067 1092 1061 1059 1122 1035 1142 1055 1006 1061 1061 1024 1045 1086 1088 1072 1111 1110 1102 1087 1082 1139 1048 1129 1096 1123 1074 1126 1095 1105 1132 1084 1112 1091 1156 1030 1073 1052 1075 1108 1047 1085 1079 1126 1084 1081 1109 1079 1152 1129 1068 1176 1106 1161 1071 1140 1121 1131 1146 1140 1132 1147 1129 1124 1107 1102 1093 1125 1082 1140 1121 1108 1119 1082 1101 1075 1064 1118 1100 1138 1121 1144 1088 1097 1097 1102 1066 1049 1034 1062 1046 1037 1108 1024 1162 1084 1002 1081 1007 1044 1068 1088 1058 1045 1019 1029 1040 1029 1004 1079 1087 1035 1025 1032 1002 1116 1033 1088 1096 1113 1063 1101 1122 1113 1131 1115 1153 1136 1104 1148 1119 1205 1121 1236 1180 1190 1209 1214 1194 1165 1244 1227 1191 1172 1203 1151 1241 1219 1163 1267 1246 1210 1234 1199 1183 1271 1191 1258 1157 1139 1171 1260 1197 1175 1130 1173 1127 1170 1153 1232 1089 1192 1171 1165 1153 1194 1112 1220 1230 1212 1211 1216 1214 1246 1253 1232 1171 1220 1244 1286 1261 1266 1280 1237 1300 1281 1297 1359 1349 1313 1322 1335 1335 1378 1420 1466 1450 1434 1447 1499 1511 1553 1549 1547 1716 1633 1842 1806 1877 1930 1972 1950 2015 2073 2102 2022 2181 2080 2065 2131 2239 2166 2295 2116 2169 2222 2282 2329 2261 2128 2090 2011 2031 2029 1992 1887 1885 1946 1973 1968 1878 1812 1800 1651 1729 1655 1615 1471 1558 1605 1494 1579 1480 1509 1503 1453 1452 1432 1377 1397 1388 1431 1412 1375 1486 1361 1460 1380 1392 1465 1347 1472 1377 1414 1347 1450 1476 1469 1494 1432 1426 1410 1408 1457 1344 1420 1436 1399 1435 1467 1422 1474 1458 1451 1452 1387 1452 1408 1365 1329 1364 1325 1422 1398 1286 1269 1308 1294 1276 1343 1328 1270 1295 1298 1266 1243 1235 1237 1231 1232 1179 1198 1178 1135 1209 1209 1181 1155 1060 1112 1104 1130 1087 1051 1075 1095 1121 1067 1113 1094 1105 1042 1080 1051 1034 1004 1022 1079 1036 1015 1085 1009 1045 1022 988 1011 1070 1008 1014 1066 1031 966 988 1038 961 998 1031 984 1017 1005 1018 1037 1052 1027 999 1016 989 976 985 947 990 928 964 931 975 1049 1029 1030 1041 1000 1049 1024 991 1064 1002 1012 983 974 1029 1087 975 994 1044 967 1001 1086 1007 994 1002 941 934 1003 1000 1023 998 1066 1024 1048 1035 1064 1071 1040 1041 1021 1008 977 1050 1035 1042 1002 1060 1040 1022 1071 1023 1039 1026 1041 982 1053 1023 1042 983 1007 1050 1034 969 1013 1084 1016 992 956 1024 970 1018 983 1074 1030 972 1004 1043 1032 955 1044 968 1033 1032 1005 1008 1037 1047 1078 1092 1157 1139 1197 1114 1151 1033 1092 1006 1129 1211 1170 1243 1291 1213 1272 1266 1226 1286 1283 1304 1326 1332 1416 1331 1346 1416 1394 1369 1370 1393 1421 1409 1498 1374 1465 1441 1388 1390 1471 1457 1361 1342 1333 1385 1427 1365 1340 1352 1387 1343 1278 1293 1233 1321 1212 1260 1262 1297 1208 1188 1186 1202 1180 1164 1169 1137 1145 1115 1161 1123 1078 1123 1094 1067 1104 1009 1052 1058 1058 1011 1057 1003 1040 1015 1064 1045 1010 971 1017 965 1046 971 980 969 1017 960 986 1037 979 1051 1014 1000 957 1008 1055 971 996 966 1003 1042 949 994 1014 1030 962 1089 1075 985 1076 1032 1048 1029 1050 1020 962 1001 1018 991 962 1006 1028 1008 1044 1018 971 979 1079 967 965 973 968 998 920 957 953 934 915 992 936 926 965 981 959 938 915 948 911 962 932 934 947 960 940 908 1000 1000 967 959 943 995 957 970 1021 971 1002 945 969 959 974 996 1026 940 900 939 908 910 979 928 941 904 951 976 884 972 956 943 936 922 909 923 890 943 953 960 921 923 910 938 906 931 983 975 910 901 943 914 962 963 937 937 917 931 940 981 982 972 949 952 991 952 923 951 924 971 955 984 938 943 882 943 966 938 984 960 959 899 951 1039 981 958 879 941 975 970 923 949 938 985 933 984 952 968 934 1020 946 986 919 910 930 937 918 967 912 931 976 982 888 976 904 936 894 940 937 974 976 917 980 927 905 954 945 918 885 1010 917 935 933 978 944 885 967 934 968 1018 944 1000 1013 1015 1002 1027 1005 963 989 930 956 983 977 980 1008 935 1052 983 1054 1026 1015 946 922 961 934 905 985 980 983 957 925 987 964 946 932 934 946 929 948 894 979 954 992 960 974 973 891 919 935 853 961 972 922 884 930 908 917 937 909 948 859 946 901 929 915 960 910 920 908 910 930 931 976 929 941 936 944 908 902 871 933 975 909 896 862 931 977 946 954 913 927 928 931 884 892 930 962 936 931 921 930 972 969 917 957 999 945 1012 995 1014 940 981 1018 1014 967 979 1063 1098 1031 1024 1010 1017 1007 1043 997 1035 983 1018 999 981 1024 1073 1122 1024 1077 1120 1150 1087 1021 1061 993 1011 969 983 987 977 960 984 1030 1003 1018 1043 1007 990 1030 1070 986 973 933 988 989 896 921 929 1006 927 942 981 975 933 956 963 920 911 989 1015 960 945 999 989 968 970 1000 995 947 916 932 965 987 979 986 1036 949 1033 1021 1023 1028 947 991 999 988 960 977 994 1035 1009 950 942 1003 968 988 976 944 956 944 976 913 979 980 968 919 951 976 950 1033 1021 916 931 1032 1013 918 1020 961 951 974 916 907 950 979 997 958 1010 960 916 941 973 981 940 1013 1060 966 1072 1022 1066 1004 993 1026 938 1023 1034 1013 998 936 995 1015 988 993 1024 996 1086 1030 1028 1017 996 956 1030 1030 1028 1059 972 1079 995 1070 1027 1085 1062 1116 1016 1074 1121 1098 1043 1095 1096 1131 1202 1173 1205 1204 1303 1351 1270 1379 1372 1356 1324 1376 1380 1375 1298 1298 1368 1264 1258 1357 1357 1328 1380 1305 1406 1327 1336 1378 1230 1298 1274 1313 1221 1232 1139 1205 1190 1203 1189 1250 1167 1199 1111 1144 1132 1151 1095 1088 1131 1075 1089 1072 1080 1030 1072 1026 1057 1003 1056 974 1033 971 1008 996 977 1019 989 1029 924 1043 1007 934 921 953 956 912 954 984 942 949 964 929 982 971 982 975 939 923 980 960 921 913 962 940 929 1002 907 900 912 962 999 947 944 920 932 862 938 952 904 951 899 980 941 903 940 883 931 875 970 917 958 932 927 875 914 942 885 883 902 935 971 863 909 881 967 843 940 921 898 881 937 943 888 888 924 875 945 938 948 888 936 897 897 988 916 948 971 958 938 974 870 941 926 931 964 965 915 916 935 929 876 892 926 896 857 877 925 932 870 938 948 932 878 942 843 853 872 888 927 841 893 905 873 887 898 861 910 918 936 872 893 922 887 807 845 854 817 920 849 925 958 854 952 891 868 947 932 949 895 883 847 933 924 973 912 883 970 951 971 928 979 1013 1031 1031 1060 1003 944 1039 996 984 993 940 933 976 927 939 959 969 1013 1042 1013 998 1021 969 1001 935 1035 1017 973 1019 1043 1018 995 967 974 997 1032 981 1016 1023 1100 1034 1085 1063 1164 1110 1211 1137 1205 1260 1152 1194 1145 1181 1173 1120 1248 1189 1152 1122 1191 1127 1193 1160 1132 1194 1170 1186 1210 1126 1099 1170 1087 1127 1149 1132 1105 1097 1159 1113 1057 1062 1082 1056 1049 1081 978 1012 991 1013 1022 979 1026 993 1032 1017 1014 995 1001 926 950 1001 970 1000 988 957 960 991 1010 942 1011 994 928 989 959 979 991 991 978 1051 988 972 995 984 1035 997 1036 1056 1003 1071 982 1013 1023 1043 1068 1048 990 992 1106 1091 1057 1086 1096 1068 1021 1097 1113 1136 1078 1064 1114 1097 1146 1133 1073 1124 1132 1099 1153 1073 1116 1156 1165 1070 1107 1079 1125 1075 1108 1078 1102 1175 1074 1008 1037 1107 1121 1025 1102 1035 1064 1033 1041 1063 1046 1001 1005 1057 966 964 1003 970 1024 969 993 951 987 954 1003 930 988 951 961 969 946 911 965 947 945 939 982 1000 957 970 953 969 879 901 955 906 908 916 915 928 967 957 917 938 864 910 910 887 944 924 948 900 889 916 913 906 978 914 939 929 878 970 932 884 921 912 883 862 873 939 989 910 955 896 961 898 886 887 873 896 893 918 897 947 916 891 930 911 929 842 870 913 897 936 899 884 894 947 900 878 832 958 905 929 914 923 939 909 934 897 916 926 873 846 890 866 943 823 921 969 866 902 888 916 843 960 915 957 910 904 856 949 878 963 874 911 914 955 913 952 885 915 890 953 863 902 970 961 955 988 888 980 918 918 947 943 910 944 926 972 1006 960 1026 1029 1010 913 930 978 1023 969 910 921 1006 980 1046 1041 958 1024 988 975 1009 964 934 963 973 941 970 897 929 942 942 974 934 960 984 949 954 919 978 909 989 979 839 938 894 906 945 922 908 910 986 911 898 914 921 858 915 945 881 862 896 895 893 871 862 894 937 904 913 983 843 862 865 931 887 824 823 886 906 881 850 882 918 881 933 890 894 877 902 873 935 931 913 896 938 867 898 895 829 875 912 900 913 847 840 925 875 918 880 920 877 877 900 906 872 878 896 841 850 822 911 874 859 879 877 857 921 853 868 835 912 842 949 865 845 903 773 897 853 909 876 849 881 871 798 857 889 873 878 869 850 849 809 906 849 894 839 882 850 829 842 861 835 836 840 867 827 835 865 844 879 870 870 897 844 883 838 903 846 834 850 853 839 827 885 910 885 840 852 843 829 831 896 861 873 839 840 896 914 877 875 865 842 846 819 915 915 813 901 927 923 881 850 866 876 946 920 913 864 961 870 893 828 885 811 868 900 874 912 870 877 849 844 852 880 838 845 865 882 910 926 849 882 858 919 866 896 883 920 906 851 892 859 941 880 875 857 872 871 863 848 839 927 904 854 878 910 853 864 848 867 885 885 899 876 860 886 906 864 871 858 889 870 884 920 875 887 896 823 890 907 900 921 850 871 846 907 895 860 846 867 840 845 877 858 901 868 892 905 870 837 870 889 848 903 871 833 884 917 911 846 835 818 876 880 837 849 842 852 835 832 814 851 869 883 871 919 894 872 859 863 908 827 879 853 864 817 800 871 871 869 870 837 856 848 854 837 918 854 877 881 839 834 835 826 859 848 876 936 894 821 905 864 894 866 836 866 876 875 939 877 863 876 864 851 870 944 875 917 921 898 902 902 943 875 922 942 879 906 907 953 911 992 874 897 863 884 875 899 881 874 919 902 924 845 904 866 853 923 929 868 874 875 801 892 894 892 862 936 826 893 900 884 876 836 859 870 834 842 838 855 840 834 843 842 909 908 863 856 844 834 815 840 909 839 914 861 814 871 825 826 861 879 877 864 884 837 813 834 888 830 881 843 854 820 887 871 859 854 933 864 834 886 834 896 847 904 853 868 892 885 904 862 882 907 905 881 863 910 841 883 871 920 969 906 902 880 860 877 891 886 939 868 915 881 868 849 917 954 904 850 903 894 892 926 862 847 923 943 861 867 884 922 803 883 890 887 821 930 872 876 849 883 897 912 847 896 919 934 838 915 880 878 840 882 858 866 866 898 939 879 863 876 902 879 825 882 865 915 866 853 876 848 848 924 860 929 925 890 893 864 858 861 881 825 815 842 875 833 869 872 848 877 858 831 792 831 848 847 871 910 851 843 823 823 823 835 858 833 880 839 852 842 898 832 865 876 820 886 834 868 906 870 843 808 847 835 902 850 811 813 859 833 857 896 819 831 858 895 812 909 909 873 854 847 848 854 788 808 869 841 871 851 864 862 902 805 841 840 854 837 853 789 848 849 841 880 800 811 859 854 916 907 852 837 888 919 877 828 829 921 849 859 870 851 900 928 890 862 936 917 868 903 863 948 891 893 906 895 883 923 868 973 884 895 921 941 947 955 907 968 972 931 960 914 925 964 957 961 996 945 1014 994 993 1030 1079 1043 987 1139 1100 1082 1089 1051 1068 981 932 1000 977 992 971 1026 1025 1019 1046 1073 1080 1101 1128 1078 1086 1022 1018 1097 1073 971 1004 990 1042 954 994 925 895 946 961 945 949 953 933 957 950 965 881 956 891 911 949 918 922 916 891 890 886 861 849 869 911 892 906 894 888 807 867 881 905 892 882 881 921 855 837 900 890 936 914 910 901 878 835 877 909 904 947 926 944 898 887 893 938 893 921 916 900 951 882 924 870 942 954 872 938 970 948 941 919 956 849 895 909 926 923 887 913 925 926 930 916 994 884 917 989 927 907 954 944 922 958 820 865 897 937 925 905 985 901 917 866 944 888 925 888 895 896 882 919 898 894 956 917 901 933 913 887 934 924 913 903 881 965 868 958 979 933 932 900 914 944 956 881 908 937 944 916 901 969 888 889 872 902 867 897 921 936 926 905 909 897 896 891 890 862 856 933 873 878 878 844 851 942 853 918 945 893 880 909 847 850 889 877 852 858 845 842 841 856 895 881 860 832 886 925 828 887 837 854 866 849 862 858 867 844 822 848 828 878 783 851 840 941 822 866 864 902 859 897 883 874 841 890 855 839 833 848 852 846 828 825 851 801 834 848 841 911 885 930 853 863 848 816 826 822 824 911 861 859 838 876 847 880 823 848 870 849 866 862 881 954 894 879 858 847 895 908 876 927 849 851 860 878 840 848 879 884 798 851 875 866 921 865 831 867 905 858 932 872 837 884 904 875 900 881 860 885 899 882 873 829 911 854 882 872 880 941 952 954 895 972 1009 975 932 931 910 968 929 961 926 945 891 868 864 929 855 887 906 870 899 904 916 908 992 950 905 935 877 859 872 916 854 932 861 859 874 849 875 835 841 895 883 928 790 837 837 845 854 860 839 850 874 890 867 844 819 833 837 860 839 861 881 861 859 906 844 896 870 864 850 866 864 829 844 873 866 839 875 857 894 851 855 874 854 814 863 844 869 870 845 834 786 868 841 870 886 891 916 867 821 840 843 854 805 876 846 879 827 805 811 834 908 872 884 873 887 888 894 853 920 896 861 866 886 874 877 899 918 859 885 922 908 877 871 897 876 857 837 867 895 905 839 873 866 807 892 908 892 881 843 952 910 934 868 934 892 926 837 872 885 822 949 883 936 939 851 847 867 848 910 873 865 897 885 866 886 876 894 880 890 876 899 835 882 868 875 847 905 895 806 886 887 843 859 875 888 890 881 897 816 922 883 920 848 900 833 848 899 908 842 821 841 894 844 801 865 859 876 871 814 833 874 858 810 882 892 884 871 840 916 889 892 873 970 895 823 847 847 916 810 837 838 899 905 862 902 865 875 872 874 927 892 891 899 833 924 866 923 864 835 854 882 905 890 838 868 845 865 837 937 865 864 867 897 843 855 870 895 832 929 906 928 910 860 888 880 858 886 865 872 894 941 934 876 906 887 919 864 899 840 934 918 876 899 915 844 872 906 837 889 879 812 895 889 957 889 862 929 874 868 907 916 904 923 920 906 898 851 940 923 929 937 909 881 910 874 927 950 885 946 867 912 936 856 898 892 866 923 930 946 937 915 906 924 903 887 877 907 909 899 913 893 865 922 978 912 945 930 919 911 926 957 941 935 898 900 971 931 922 870 1008 987 997 985 990 946 954 1043 1004 1006 1006 1017 1072 1079 1057 1031 1108 1069 1098 1101 1108 1150 1029 1061 1017 1093 1060 1076 1059 1091 1090 1047 1093 1090 1034 1050 1019 1038 1019 975 1061 1030 1073 1052 1111 1048 1011 998 1011 1015 980 1035 1024 1016 927 932 926 948 922 987 938 924 883 961 867 947 878 905 857 930 892 886 910 930 892 890 876 917 919 889 887 936 892 852 904 908 912 895 927 883 927 909 914 948 934 869 881 938 875 922 868 946 973 890 878 908 944 927 954 907 942 957 913 921 973 907 872 868 899 952 890 905 912 817 898 874 940 910 854 966 849 847 883 877 890 886 945 840 897 909 911 902 911 838 866 867 836 932 854 881 917 949 862 918 891 898 869 872 846 929 974 903 879 894 913 869 872 949 963 893 892 923 896 840 845 931 910 932 975 872 925 913 907 954 975 920 900 921 968 843 921 928 938 981 971 937 932 956 910 947 903 911 937 950 951 919 954 927 926 946 934 941 930 915 909 971 935 963 873 950 929 933 950 948 882 955 980 919 961 964 912 911 939 1021 931 976 940 961 945 935 951 986 949 1020 1030 1019 1074 1084 1159 1117 1156 1138 1071 1184 1093 1196 1141 1147 1174 1063 1098 1144 1183 1129 1173 1178 1159 1143 1198 1215 1205 1184 1247 1135 1173 1165 1137 1127 1030 1128 1040 1051 1100 1080 1088 1058 1031 1022 1014 1047 1096 1070 1053 1026 1014 1045 1035 1004 970 1017 991 970 940 927 928 923 952 1001 858 933 907 927 940 918 900 946 912 897 889 912 901 919 909 954 895 958 939 941 896 935 940 916 941 928 926 1005 1005 965 994 938 957 919 981 955 1003 976 955 1004 1015 1029 1049 1016 988 943 954 1005 963 907 994 955 1016 1006 1037 1072 1041 978 1035 1036 1055 1069 1051 1039 1066 1049 974 1051 1026 1005 1080 1016 1020 1010 1007 1048 980 1036 1023 1009 1016 972 918 958 1006 1024 934 1005 936 973 946 1009 948 982 948 937 969 940 910 951 930 965 954 912 895 896 846 963 860 895 925 871 933 909 911 897 911 949 871 901 897 894 895 866 898 908 899 878 913 895 844 871 894 868 904 878 914 892 928 862 850 858 837 918 875 899 912 863 894 839 832 866 862 836 893 885 841 851 853 862 860 906 877 871 841 903 850 884 896 922 913 867 883 807 895 890 892 843 897 896 901 905 848 876 869 892 837 862 886 851 893 872 836 846 869 905 869 913 832 877 873 855 884 857 924 866 847 847 857 892 904 860 856 867 887 831 830 835 834 916 883 848 906 886 906 881 856 892 900 887 896 854 899 891 860 988 914 884 925 850 884 864 905 897 912 910 839 872 881 927 833 830 900 890 876 860 890 850 855 919 899 909 896 859 860 900 899 883 853 932 889 900 804 816 843 854 843 904 811 849 846 896 835 860 880 888 891 852 878 857 862 859 865 850 874 824 856 842 867 878 864 862 887 885 938 890 914 893 859 926 853 884 850 968 797 833 854 928 874 903 877 842 828 883 855 900 865 831 834 893 869 864 814 879 858 806 863 935 853 868 903 875 833 837 899 870 835 845 917 915 864 888 888 865 853 859 809 786 871 828 884 881 837 834 857 879 934 845 868 917 852 872 887 835 859 822 867 842 869 868 815 894 880 859 912 887 875 894 908 843 894 831 849 853 871 903 879 884 864 895 813 896 821 836 868 842 789 804 835 893 910 848 859 837 802 822 892 886 867 906 860 938 848 840 824 855 851 839 864 896 855 814 819 823 847 869 864 868 847 816 813 927 837 854 911 842 841 826 866 883 927 863 861 847 839 809 856 873 886 843 867 908 865 869 821 866 854 852 895 856 876 860 875 874 879 884 838 870 885 897 839 885 888 875 860 883 839 883 884 880 888 863 850 930 910 875 911 834 847 922 869 843 858 871 891 848 874 908 891 893 940 880 865 934 868 865 913 905 883 902 885 910 887 848 912 922 832 853 904 883 855 915 827 859 871 852 903 898 872 869 818 877 841 911 895 919 850 896 832 914 840 843 831 841 869 809 861 846 934 898 868 891 812 856 860 879 848 818 852 805 880 855 881 831 890 921 873 837 871 886 864 907 911 870 878 847 887 906 861 873 850 880 832 884 860 839 895 884 894 862 927 821 873 849 872 877 909 906 860 865 813 797 857 775 905 860 897 866 857 889 862 936 886 849 887 780 825 855 860 819 890 810 861 856 900 867 911 906 863 877 901 893 882 919 872 843 814 951 925 882 841 920 855 828 858 891 912 874 873 902 850 858 903 908 910 892 909 948 862 794 908 899 878 895 885 882 919 925 905 923 844 921 836 883 887 932 841 920 869 882 862 854 904 870 871 869 917 939 910 900 881 898 877 905 938 907 953 932 936 885 889 884 902 939 869 889 931 927 899 844 833 881 889 930 878 907 858 883 901 871 923 879 908 970 906 884 869 876 904 913 916 920 896 936 943 873 909 851 909 925 882 931 864 851 894 861 913 883 908 896 922 862 865 879 883 866 904 887 851 852 847 905 927 844 827 842 916 871 900 882 881 906 879 871 842 908 893 889 902 910 900 896 922 937 878 883 836 883 868 944 859 941 907 857 905 888 879 837 838 911 980 922 930 869 923 934 930 958 950 947 895 967 921 949 924 1006 905 908 938 976 916 993 903 953 939 949 976 931 929 940 995 956 943 975 930 999 950 941 932 957 897 1012 959 926 951 924 949 967 928 975 941 996 1017 897 915 948 959 1050 969 930 987 966 997 920 895 936 949 892 956 1024 1038 1066 941 1043 991 1093 1130 1105 1130 1182 1149 1189 1167 1205 1163 1225 1138 1191 1139 1180 1167 1130 1123 1122 1109 1092 1092 1089 1112 1092 990 1058 1043 1026 1043 1104 1030 1050 1037 1040 1063 1104 1062 1048 988 1013 1085 1042 1027 956 1025 984 1020 1010 999 997 1027 969 970 985 963 954 971 937 1017 906 939 891 919 901 918 905 964 904 906 978 923 996 925 959 939 897 940 911 869 921 931 938 886 949 954 904 906 923 905 936 890 943 916 871 902 939 919 969 911 887 931 956 971 934 975 959 930 930 984 957 988 1046 947 936 905 944 993 945 960 995 993 959 923 929 979 969 935 972 961 912 987 932 921 920 905 979 916 885 912 934 958 897 993 910 1008 913 981 934 901 914 910 890 976 900 922 924 948 914 944 948 966 985 969 982 941 940 963 940 963 966 938 936 951 920 952 942 926 888 923 980 979 942 915 887 929 890 822 942 897 946 975 946 950 883 889 913 882 909 886 950 915 886 963 913 923 930 905 873 828 923 893 937 888 884 894 932 885 905 883 867 851 902 890 941 862 935 841 884 868 874 843 878 867 881 883 840 849 855 871 895 851 833 827 807 854 853 863 893 886 908 858 934 931 840 883 866 879 897 892 850 871 949 875 855 868 886 893 805 902 848 837 917 875 885 816 890 887 880 937 941 864 886 888 865 933 878 874 861 867 879 910 904 905 854 893 937 869 896 905 807 905 882 889 852 883 934 884 822 828 915 865 905 919 839 891 912 929 901 856 834 843 871 884 843 883 883 870 900 936 917 871 914 884 852 841 859 908 902 862 848 904 872 870 888 883 893 840 872 935 879 919 916 861 889 941 930 892 896 848 874 904 908 883 908 862 883 904 855 885 857 891 882 893 910 862 834 873 828 821 886 867 888 845 901 892 923 912 879 917 866 875 881 917 879 920 859 880 848 871 870 884 873 859 830 871 846 871 950 875 851 869 852 878 806 883 883 861 857 851 876 905 897 876 886 873 839 859 867 863 893 860 871 833 853 848 885 938 886 833 861 836 871 840 892 827 940 865 923 864 862 902 864 872 875 889 855 824 825 893 850 861 873 854 886 918 869 860 865 870 865 890 848 898 877 837 905 903 884 854 863 904 855 898 876 903 861 878 883 854 821 828 877 933 893 808 881 887 864 863 890 835 878 849 893 846 860 859 890 879 877 874 874 851 869 882 944 874 848 844 848 941 913</counts>
			</dataPoints>
		</scan>
	</xrdMeasurement>
</xrdMeasurements>
