<?xml version="1.0"?>
<xrdMeasurements xmlns="http://www.xrdml.com/XRDMeasurement/2.3" xmlns:xsi="http://www.w3.org/2001/XMLSchema-instance" xsi:schemaLocation="http://www.xrdml.com/XRDMeasurement/2.3 http://www.xrdml.com/XRDMeasurement/2.3/XRDMeasurement.xsd" status="Completed" recordIdentifier="{364CE571-5DFD-4F23-B46F-43E50706C56B}">
	<comment>
		<entry/>
	</comment>
	<sample type="To be analyzed">
		<id>GPSS_Li1p8Mg0p8V0p2Cl4_121825_6943d914f4d05ae3d69790ba</id>
		<name></name>
		<preparedBy></preparedBy>
	</sample>
	<xrdMeasurement measurementType="Scan" status="Completed" sampleMode="Reflection">
		<usedWavelength intended="K-Alpha 1">
			<kAlpha1 unit="Angstrom">1.5405980</kAlpha1>
			<kAlpha2 unit="Angstrom">1.5444260</kAlpha2>
			<kBeta unit="Angstrom">1.3922500</kBeta>
			<ratioKAlpha2KAlpha1>0.5000</ratioKAlpha2KAlpha1>
		</usedWavelength>
		<incidentBeamPath>
			<radius unit="mm">145.00</radius>
			<xRayTube id="1010048" name="Empyrean Cu LFF HR (9430 033 7310x)">
				<tension unit="kV">40.0</tension>
				<current unit="mA">15.0</current>
				<anodeMaterial>Cu</anodeMaterial>
				<focus type="Line">
					<length unit="mm">12.0</length>
					<width unit="mm">0.4</width>
					<takeOffAngle unit="deg">6.0</takeOffAngle>
				</focus>
			</xRayTube>
			<sollerSlit id="21010002" name="Soller slits 0.04 rad.">
				<opening unit="rad">0.0400</opening>
			</sollerSlit>
			<mask id="22031000" name="Fixed mask 13 mm">
				<width unit="mm">9.00</width>
			</mask>
			<divergenceSlit id="22120001" name="Divergence slit 1°" xsi:type="fixedDivergenceSlitType">
				<distanceToSample unit="mm">50.00</distanceToSample>
				<height unit="mm">1.52</height>
			</divergenceSlit>
		</incidentBeamPath>
		<sampleMovement xsi:type="spinningSampleMovementType">
			<spinnerRevolutionTime unit="seconds">1.0</spinnerRevolutionTime>
		</sampleMovement>
		<diffractedBeamPath>
			<radius unit="mm">145.00</radius>
			<antiScatterSlit id="22090040" name="AS slit 9 mm (PIXcel)" xsi:type="fixedAntiScatterSlitType">
				<height unit="mm">9.00</height>
			</antiScatterSlit>
			<sollerSlit id="21020003" name="Large Soller slits 0.04 rad.">
				<opening unit="rad">0.0400</opening>
			</sollerSlit>
			<filter id="20030001" name="Large beta-filter Nickel">
				<material>Ni</material>
				<thickness unit="mm">0.020</thickness>
			</filter>
			<detector id="7010019" name="PIXcel1D-Medipix3 detector" xsi:type="rtmsDetectorType">
				<phd unit="keV">
					<lowerLevel>4.02</lowerLevel>
					<upperLevel>11.27</upperLevel>
				</phd>
				<mode>Scanning</mode>
				<activeLength unit="deg">5.542</activeLength>
			</detector>
		</diffractedBeamPath>
		<scan appendNumber="0" mode="Continuous" scanAxis="Gonio" status="Completed">
			<header>
				<startTimeStamp>2025-12-22T11:15:10-08:00</startTimeStamp>
				<endTimeStamp>2025-12-22T11:23:17-08:00</endTimeStamp>
				<author>
					<name>AutomatedUser</name>
				</author>
				<source>
					<applicationSoftware version="1.7b (136)">PANalytical Aeris Instrument Suite</applicationSoftware>
					<instrumentControlSoftware version="3.2.00000000 20240306">AERIS</instrumentControlSoftware>
					<instrumentID>950485</instrumentID>
				</source>
			</header>
			<dataPoints>
				<positions axis="2Theta" unit="deg">
					<startPosition>10.00943322</startPosition>
					<endPosition>99.99442286</endPosition>
				</positions>
				<positions axis="Omega" unit="deg">
					<startPosition>5.00471661</startPosition>
					<endPosition>49.99721143</endPosition>
				</positions>
				<commonCountingTime unit="seconds">12.495</commonCountingTime>
				<counts unit="counts">2818 2787 2772 2668 2736 2838 2802 2807 2821 2775 2801 2843 2758 2737 2769 2753 2798 2847 2798 2762 2762 2840 2797 2726 2818 2759 2847 2907 2924 2837 2867 2782 2793 2825 2723 2725 2783 2673 2807 2776 2804 2830 2766 2686 2708 2899 2773 2802 2777 2722 2823 2688 2902 2762 2959 2814 2810 2837 2820 2889 2799 2921 2835 2856 2767 2828 2770 2853 2820 2818 2930 2852 2841 2832 2855 2849 2752 2807 2918 2804 2819 2768 2889 2894 2754 2811 2934 2815 2896 2913 2764 2835 2780 2859 2934 2815 2870 2900 2985 2882 2905 2900 2934 2910 2885 2854 2875 2904 2751 2918 2822 2855 2898 2789 2907 2918 2844 2982 2969 2876 2865 2863 2869 2928 2860 2836 2872 2860 3022 2914 2935 2973 2945 2793 2908 2983 2786 2837 2849 2826 2898 2867 2805 2982 2947 2954 2775 2895 2940 2957 2807 2881 2821 2938 2901 2925 2867 2884 2975 2857 2844 2925 2838 2856 2838 2862 2888 2918 2872 2889 2904 2885 2911 2774 2854 2779 2835 2863 2898 2807 2747 2935 2865 2824 2876 2821 2892 2800 2853 2858 2730 2912 2816 2888 2885 2896 2915 2909 2840 2783 2854 2836 2939 2789 2912 3008 2870 2859 2853 2785 2971 2933 2820 2806 2837 2868 2704 2819 2813 2846 2898 2789 2799 2837 2799 2870 2830 2910 2824 2795 2801 2877 2837 2902 2800 2759 2767 2762 2725 2835 2751 2808 2731 2808 2687 2836 2703 2952 2809 2836 2883 2738 2780 2749 2838 2824 2700 2795 2761 2742 2690 2829 2705 2768 2834 2823 2799 2780 2792 2835 2815 2713 2737 2803 2796 2700 2747 2855 2776 2815 2871 2765 2847 2750 2743 2808 2799 2816 2796 2797 2763 2715 2759 2675 2783 2751 2778 2790 2762 2753 2854 2887 2803 2833 2807 2791 2907 2786 2835 2839 2727 2835 2884 2888 2748 2802 2950 2821 2808 2853 2903 2888 2968 2856 2865 2812 2990 2867 2932 2904 2868 2880 2990 2908 2879 2892 2823 2882 2883 2952 3017 2948 2928 2941 2954 3034 2918 2950 2958 2988 2995 3015 2956 2909 2969 3037 2929 2998 3039 3013 2952 3015 3074 2938 3020 2969 2989 3081 3083 3018 3054 3135 3039 3048 3051 2968 3074 3142 3162 3150 3153 3091 3224 3128 3058 3141 3164 3185 3083 3113 3214 3119 3158 3142 3227 3243 3195 3183 3212 3162 3295 3267 3160 3305 3231 3292 3287 3352 3312 3276 3327 3292 3335 3382 3302 3555 3511 3489 3540 3512 3580 3591 3669 3673 3671 3721 3692 3713 3784 3704 3766 3834 3919 3879 3943 3926 3890 3940 3921 3932 3942 4029 4001 3897 4015 3972 3991 4042 4132 4064 4186 4170 4073 4125 4156 4217 4175 4161 4250 4161 4164 4165 4122 4113 4078 4024 3964 3899 3937 3918 3878 3858 3891 3744 3889 3878 3719 3855 3783 3860 3724 3752 3647 3616 3601 3562 3622 3612 3586 3554 3526 3551 3510 3434 3386 3353 3308 3281 3165 3275 3281 3244 3261 3176 3159 3151 3142 3145 3048 3172 3119 3139 3091 3080 3149 3039 2986 3058 3018 3022 3037 3039 3012 3021 2969 3023 3004 3007 2943 3038 2994 3131 2963 2978 2985 2964 2938 2968 2956 2901 2827 2925 3049 2848 2884 2907 2978 2994 2876 2899 2999 2876 2827 2863 2898 2912 2863 2888 2776 2823 2866 2804 2806 2809 2877 2870 2957 2839 2889 2787 2766 2810 2870 2790 2914 2818 2873 2811 2757 2746 2797 2829 2787 2754 2832 2778 2771 2649 2770 2813 2779 2791 2769 2755 2808 2623 2768 2759 2793 2775 2734 2712 2624 2664 2726 2610 2780 2681 2677 2704 2647 2751 2710 2578 2719 2640 2811 2713 2681 2662 2700 2662 2780 2631 2623 2652 2601 2602 2718 2754 2638 2674 2768 2714 2697 2635 2570 2595 2722 2583 2597 2650 2631 2582 2577 2620 2643 2609 2620 2556 2615 2508 2602 2633 2678 2649 2647 2624 2689 2747 2671 2689 2628 2632 2671 2658 2645 2712 2621 2560 2639 2705 2689 2597 2586 2656 2597 2605 2585 2532 2680 2608 2626 2605 2604 2555 2562 2580 2550 2600 2576 2656 2568 2548 2580 2512 2644 2525 2507 2529 2575 2499 2620 2554 2520 2570 2667 2491 2599 2496 2536 2609 2530 2572 2603 2679 2494 2551 2597 2554 2533 2586 2570 2455 2521 2666 2525 2468 2653 2429 2541 2581 2556 2599 2639 2525 2577 2553 2486 2549 2557 2516 2542 2456 2514 2485 2593 2563 2483 2606 2590 2559 2536 2512 2443 2512 2470 2515 2468 2489 2557 2495 2492 2504 2488 2443 2551 2487 2518 2491 2415 2470 2392 2556 2441 2393 2496 2580 2526 2519 2366 2570 2433 2445 2572 2542 2548 2571 2381 2413 2455 2443 2495 2456 2450 2394 2415 2496 2502 2479 2406 2540 2607 2447 2369 2458 2457 2417 2430 2536 2473 2428 2357 2485 2469 2455 2447 2433 2494 2406 2487 2447 2476 2404 2466 2358 2450 2386 2398 2463 2393 2429 2374 2438 2406 2454 2408 2449 2463 2340 2312 2473 2420 2421 2401 2392 2378 2382 2337 2337 2435 2309 2416 2420 2382 2402 2349 2415 2365 2394 2335 2424 2390 2378 2288 2416 2396 2358 2310 2319 2323 2281 2319 2323 2371 2365 2368 2430 2358 2293 2410 2348 2348 2342 2341 2320 2301 2303 2233 2306 2341 2339 2296 2316 2290 2331 2273 2302 2232 2314 2260 2245 2232 2281 2291 2397 2272 2288 2265 2253 2338 2295 2306 2255 2265 2309 2329 2281 2275 2296 2342 2289 2384 2392 2356 2358 2250 2387 2281 2258 2261 2217 2238 2260 2318 2276 2235 2224 2179 2236 2284 2245 2332 2246 2281 2250 2328 2285 2255 2264 2333 2154 2174 2269 2174 2186 2196 2244 2333 2313 2218 2239 2180 2283 2210 2168 2294 2235 2274 2209 2120 2284 2157 2225 2136 2249 2232 2182 2230 2254 2180 2232 2231 2217 2227 2316 2132 2181 2214 2204 2258 2194 2244 2265 2153 2162 2291 2151 2281 2264 2233 2167 2182 2143 2175 2224 2258 2237 2216 2163 2128 2227 2208 2210 2183 2206 2173 2153 2180 2206 2164 2160 2172 2213 2181 2296 2194 2179 2216 2232 2255 2240 2228 2226 2182 2236 2212 2192 2229 2305 2158 2153 2194 2235 2275 2199 2260 2275 2230 2274 2250 2169 2147 2154 2180 2097 2201 2223 2264 2176 2230 2164 2207 2182 2163 2294 2241 2261 2284 2232 2217 2299 2192 2256 2173 2260 2225 2273 2157 2232 2153 2272 2204 2164 2128 2221 2229 2243 2172 2158 2226 2239 2155 2145 2220 2224 2145 2176 2168 2253 2169 2265 2155 2187 2203 2159 2164 2151 2117 2193 2190 2108 2127 2174 2185 2176 2140 2253 2196 2202 2217 2216 2175 2179 2227 2183 2217 2225 2032 2129 2167 2073 2164 2134 2140 2237 2114 2265 2200 2178 2142 2143 2121 2181 2212 2173 2070 2195 2072 2182 2116 2124 2128 2043 2120 2092 2159 2096 2145 2120 2054 2094 2102 2120 2043 2142 2039 2050 2010 2031 1976 2044 2021 1988 1959 2023 1970 2063 1972 2056 1939 1961 1965 1921 2045 1898 1950 1954 1994 2018 1884 1969 2006 1869 1922 1858 1908 1863 1897 1901 1894 1927 1896 1848 1853 1854 1838 1871 1896 1881 1874 1902 1895 1889 1867 1860 1880 1737 1764 1833 1817 1826 1868 1709 1826 1846 1832 1747 1804 1818 1883 1802 1793 1799 1816 1691 1706 1658 1785 1734 1799 1751 1710 1746 1724 1722 1728 1791 1836 1719 1693 1653 1651 1659 1683 1681 1638 1654 1649 1683 1672 1721 1758 1698 1682 1617 1689 1683 1715 1642 1645 1585 1587 1683 1596 1610 1633 1684 1714 1622 1643 1664 1655 1641 1601 1567 1584 1588 1623 1590 1665 1591 1637 1639 1662 1537 1648 1632 1602 1604 1596 1580 1540 1597 1558 1571 1603 1679 1506 1586 1586 1652 1578 1520 1671 1514 1644 1540 1556 1621 1506 1628 1512 1554 1561 1508 1555 1605 1587 1521 1468 1500 1534 1428 1486 1512 1559 1487 1569 1543 1533 1521 1459 1517 1571 1568 1547 1469 1483 1517 1504 1542 1494 1408 1541 1536 1435 1522 1495 1467 1460 1483 1476 1504 1477 1432 1433 1468 1472 1404 1451 1453 1533 1503 1430 1492 1425 1485 1475 1525 1562 1466 1469 1478 1504 1532 1453 1456 1484 1504 1516 1490 1467 1463 1508 1464 1440 1443 1517 1487 1506 1430 1495 1499 1569 1472 1572 1448 1422 1435 1489 1559 1574 1492 1520 1473 1554 1514 1465 1480 1469 1429 1503 1468 1498 1551 1500 1519 1438 1538 1436 1520 1504 1457 1501 1481 1483 1479 1467 1469 1516 1439 1492 1544 1463 1475 1509 1497 1502 1547 1471 1461 1494 1487 1472 1490 1501 1453 1491 1440 1464 1534 1554 1513 1566 1469 1607 1541 1549 1543 1589 1578 1470 1525 1552 1591 1568 1550 1481 1565 1478 1581 1499 1617 1482 1569 1546 1537 1558 1571 1503 1535 1525 1496 1563 1532 1526 1572 1538 1452 1557 1491 1522 1480 1423 1540 1516 1511 1471 1473 1533 1509 1492 1538 1512 1517 1397 1518 1454 1422 1450 1468 1495 1472 1556 1480 1433 1516 1458 1442 1370 1490 1425 1460 1447 1477 1435 1479 1461 1388 1416 1438 1423 1413 1419 1405 1371 1397 1496 1428 1355 1370 1410 1411 1381 1401 1482 1401 1405 1421 1431 1402 1381 1410 1358 1361 1397 1382 1389 1337 1349 1315 1361 1392 1279 1350 1362 1322 1386 1326 1305 1250 1358 1274 1311 1329 1323 1326 1303 1279 1354 1277 1189 1348 1273 1289 1280 1327 1266 1335 1228 1281 1286 1260 1221 1280 1249 1239 1241 1277 1257 1201 1244 1265 1263 1244 1223 1221 1308 1202 1236 1226 1159 1170 1231 1245 1198 1236 1194 1199 1217 1274 1186 1206 1126 1157 1187 1151 1200 1164 1189 1181 1139 1168 1210 1207 1222 1246 1130 1151 1140 1176 1147 1195 1112 1195 1212 1146 1163 1146 1120 1120 1189 1177 1159 1157 1205 1200 1182 1152 1163 1169 1161 1158 1167 1177 1100 1178 1205 1181 1183 1258 1257 1261 1290 1316 1346 1399 1329 1375 1303 1399 1365 1297 1285 1404 1344 1409 1342 1361 1351 1300 1392 1369 1356 1425 1320 1354 1446 1409 1440 1376 1398 1431 1323 1483 1363 1466 1337 1353 1372 1408 1278 1291 1309 1321 1279 1308 1227 1349 1244 1163 1208 1240 1211 1173 1185 1237 1202 1277 1202 1193 1186 1197 1148 1215 1129 1167 1135 1164 1188 1071 1121 1134 1095 1097 1133 1037 1071 1133 1026 1135 1097 1098 1143 1086 1147 1101 1131 1051 1130 1082 1154 1129 1137 1124 1192 1156 1158 1207 1126 1222 1204 1249 1322 1265 1315 1417 1502 1516 1637 1758 1727 1792 1981 2091 2252 2388 2549 2829 2968 3139 3416 3666 3754 3974 4080 4348 4378 4547 4664 4741 4825 4910 4940 4975 4962 4966 5014 5129 4930 4950 5005 4900 4870 4874 5022 4972 4967 5055 5161 5256 5213 5264 5012 5365 5283 5336 5113 5143 4961 4944 4771 4640 4493 4079 4172 3975 3758 3660 3462 3504 3175 3237 2975 2886 2785 2737 2620 2593 2381 2361 2249 2324 2158 2057 2070 2030 1877 1849 1817 1736 1694 1635 1608 1485 1502 1456 1411 1335 1298 1263 1270 1230 1268 1137 1213 1145 1160 1097 1119 1061 1069 1106 1027 1082 1075 1008 1012 968 975 960 995 1010 935 957 896 925 970 920 918 890 885 955 901 859 921 841 898 907 908 886 828 911 886 853 882 894 863 898 862 883 900 838 891 878 830 936 852 846 846 855 834 821 824 837 859 875 869 872 804 823 825 859 806 793 860 847 836 849 790 816 799 840 815 813 862 830 857 804 796 796 842 883 787 796 819 831 826 832 854 852 783 804 739 790 854 838 824 809 796 812 802 839 853 843 809 792 799 797 790 756 791 864 750 792 835 789 803 823 788 789 799 792 837 753 784 805 781 834 785 816 769 780 814 816 821 765 796 795 768 797 795 855 754 793 795 794 811 779 750 815 818 768 821 780 743 823 763 797 794 835 734 796 824 749 841 776 798 790 794 815 809 800 819 787 823 741 795 785 781 795 800 755 780 719 826 798 752 778 801 781 782 737 761 762 765 718 776 705 790 791 772 777 762 712 694 760 758 723 747 762 787 748 755 755 754 755 716 735 701 742 758 751 689 764 735 815 719 791 740 708 696 749 760 738 745 718 728 776 731 702 759 735 759 761 798 774 778 767 716 788 754 783 779 773 780 816 823 767 750 766 762 763 771 737 750 765 777 747 771 770 783 818 836 776 799 791 822 777 800 762 805 797 781 790 797 806 785 777 807 786 764 847 762 822 842 815 850 869 845 817 862 901 883 858 972 829 856 864 873 895 882 883 899 927 949 937 976 952 1010 1021 1048 1068 1022 1144 1094 1176 1154 1237 1225 1331 1361 1448 1537 1573 1630 1724 1869 1936 2112 2248 2454 2677 2890 2891 3119 3500 3659 3913 4196 4392 4629 4779 4864 5046 5124 5365 5482 5411 5702 5652 5789 5595 5831 5633 5682 5629 5661 5756 5715 5646 5769 5543 5413 5505 5509 5452 5506 5473 5484 5396 5690 5448 5500 5333 5570 5390 5409 5318 5305 5214 5098 5082 5098 5042 4953 4921 4825 4664 4621 4561 4377 4294 4138 3990 3981 3718 3574 3572 3323 3188 2972 3168 2824 2834 2688 2633 2403 2315 2293 2257 2120 2092 1845 1851 1690 1672 1638 1537 1476 1418 1350 1257 1246 1244 1167 1219 1105 1073 1020 1026 1017 998 988 942 967 927 888 822 858 880 867 834 838 840 867 793 852 825 780 838 843 824 773 728 762 737 803 739 782 717 715 723 752 736 690 771 710 679 711 724 740 700 739 723 680 699 687 710 668 681 670 703 688 690 690 698 679 701 653 634 648 703 634 634 684 629 684 650 711 679 690 676 659 663 670 691 653 692 683 702 649 668 636 676 680 638 677 619 606 635 653 634 632 620 643 636 630 643 645 666 648 625 649 640 664 622 605 612 623 628 633 670 614 671 641 622 605 607 593 622 637 644 690 580 606 602 580 637 632 624 603 638 579 593 604 613 640 591 619 610 622 604 615 647 625 626 601 620 589 625 624 568 558 607 669 593 596 588 592 576 633 568 586 618 613 595 558 587 598 603 605 608 645 607 587 581 629 614 562 600 541 564 648 598 573 564 564 571 592 522 587 599 613 563 630 592 593 613 613 614 591 586 602 593 605 577 575 563 551 571 586 558 622 636 570 572 537 577 590 550 525 578 589 581 536 580 615 610 585 589 612 584 567 613 568 607 606 619 563 619 582 564 583 561 591 615 600 611 578 583 594 578 563 585 558 547 558 554 570 582 576 569 544 622 617 603 572 602 532 541 542 614 549 558 554 558 565 589 544 530 552 555 561 584 590 574 563 582 541 536 559 532 542 540 561 508 529 546 581 565 528 572 550 506 545 537 521 551 517 552 494 524 551 513 562 494 535 533 525 534 539 528 557 505 550 519 518 500 525 545 509 497 571 504 484 540 531 552 544 536 541 589 471 519 529 520 498 534 527 505 530 488 503 531 547 534 518 510 500 528 520 473 523 520 520 479 453 509 508 519 453 504 486 485 511 483 499 523 468 524 512 516 498 511 476 525 485 517 513 508 541 513 466 510 480 460 541 490 518 506 512 537 486 539 522 515 504 497 490 490 539 509 486 516 446 445 485 478 497 529 503 521 453 464 482 531 460 477 482 530 479 501 480 490 501 488 466 508 466 528 462 482 486 484 466 476 490 502 489 465 489 486 470 532 480 510 547 523 506 440 492 465 484 477 485 456 492 461 484 496 511 506 452 520 460 557 444 479 483 445 497 480 530 483 483 460 494 480 501 457 486 486 464 474 527 497 472 469 511 494 465 493 520 465 519 468 472 530 493 502 447 520 482 532 527 546 532 502 494 506 511 491 479 488 520 508 493 506 503 512 503 513 492 496 501 448 490 504 549 518 465 504 462 564 469 462 500 511 484 442 469 464 466 471 460 520 468 477 480 454 501 467 524 507 486 444 475 478 472 468 507 466 464 485 497 481 475 476 475 451 460 498 443 444 437 465 484 467 508 483 441 447 476 476 443 488 466 474 453 425 497 496 476 481 451 434 484 508 492 433 500 479 507 492 471 509 460 485 433 456 455 479 455 499 487 458 469 451 512 466 453 505 449 446 470 420 441 429 445 491 459 477 469 464 478 464 464 474 475 466 472 478 436 443 463 504 401 481 474 466 483 446 467 461 446 487 436 451 462 457 473 473 503 495 480 441 465 517 452 477 457 493 473 435 490 454 488 502 454 462 465 494 461 449 473 460 460 495 459 438 517 440 520 463 433 475 436 427 455 453 495 441 480 443 458 389 463 464 498 466 460 445 481 438 414 465 438 463 423 477 432 423 495 489 473 497 434 437 457 452 421 431 431 457 480 465 444 435 447 429 483 425 458 439 443 434 474 487 479 440 406 465 469 424 443 413 422 421 475 429 470 428 421 471 466 438 445 456 457 439 436 452 468 456 417 465 438 442 440 447 427 433 432 478 460 470 469 473 458 427 422 391 452 469 436 441 424 428 454 417 466 450 485 452 407 465 403 429 450 464 446 424 454 439 437 462 445 438 434 430 421 423 441 451 450 434 480 457 483 458 448 417 442 457 478 454 441 413 448 431 462 430 419 456 436 446 441 440 466 404 458 435 451 426 459 393 430 431 419 446 438 461 458 466 453 468 457 479 481 456 464 476 465 518 465 472 479 514 487 522 488 521 558 547 574 510 556 573 580 646 644 675 727 701 755 741 783 832 826 829 830 823 870 833 882 895 885 849 894 893 873 931 876 853 843 840 824 830 890 821 767 801 756 712 745 724 760 698 626 636 604 634 613 588 584 568 575 626 524 545 562 551 524 555 497 520 533 550 542 545 525 533 515 477 513 532 536 521 504 531 510 554 520 556 541 494 526 522 519 573 554 537 549 533 598 581 530 491 523 528 490 525 541 548 579 536 573 509 497 472 506 479 518 492 495 482 466 498 443 485 421 479 452 467 504 473 491 438 497 399 445 445 445 437 415 397 431 415 436 451 434 414 440 432 387 420 415 397 413 436 421 407 410 410 413 476 432 407 411 410 400 394 395 384 446 395 395 400 406 379 413 413 422 429 418 421 392 405 402 435 394 401 355 427 420 372 409 417 392 396 432 415 400 429 414 407 386 421 405 403 332 408 345 473 406 389 396 376 407 379 443 402 402 435 424 424 381 402 407 378 404 437 370 404 405 438 380 404 402 396 429 391 420 399 381 428 376 405 403 381 419 392 418 415 415 434 421 442 374 429 448 424 393 400 428 420 395 420 396 436 425 428 409 434 413 399 423 441 423 406 396 396 443 379 423 424 404 457 421 438 411 408 425 412 454 469 455 479 423 452 412 438 433 433 442 424 438 424 447 400 459 423 484 465 478 509 395 441 399 421 427 387 447 442 440 453 415 433 425 446 444 440 446 448 424 423 430 478 430 448 416 503 451 426 428 422 440 442 445 433 447 420 440 453 444 441 424 449 438 445 461 459 492 448 450 475 444 454 445 447 438 472 419 449 468 450 482 490 470 473 509 508 526 517 531 546 488 537 516 539 625 536 614 573 666 646 675 710 727 739 813 758 849 916 985 1082 1106 1200 1363 1447 1417 1591 1729 1804 1861 2120 2132 2284 2437 2601 2701 2916 3136 3105 3184 3218 3261 3249 3352 3432 3401 3297 3428 3405 3401 3271 3461 3248 3203 3163 3068 2987 2826 2739 2735 2600 2614 2583 2563 2400 2237 2217 2122 2061 1916 1845 1894 1744 1699 1685 1796 1797 1696 1665 1675 1703 1720 1745 1739 1774 1772 1729 1883 1837 1866 1836 2011 1927 1913 1933 1883 1962 1935 1878 1928 1878 1948 1891 1848 1818 1891 1754 1728 1737 1724 1703 1620 1603 1513 1482 1490 1422 1434 1369 1314 1291 1290 1249 1231 1138 1164 1079 1034 980 949 979 939 899 826 921 854 809 789 824 750 790 740 766 771 708 755 650 675 657 595 624 602 601 556 590 583 611 526 565 549 513 549 520 510 543 501 496 502 469 471 442 472 447 485 465 450 388 476 460 471 453 434 418 429 376 424 421 418 424 443 445 424 440 408 409 413 415 417 455 405 430 387 403 391 418 422 367 403 415 399 371 409 412 393 398 378 367 415 413 411 402 387 396 389 428 417 404 410 446 370 402 437 462 412 402 428 384 422 403 411 386 409 410 437 495 453 440 446 508 469 483 473 489 489 494 503 507 534 547 528 586 532 593 557 616 559 515 540 558 614 546 586 643 560 619 607 569 589 602 564 602 568 599 588 556 538 577 519 521 519 505 525 490 551 525 520 491 499 476 480 456 477 502 503 451 475 449 470 475 441 514 497 490 471 466 456 475 505 508 435 474 504 500 465 486 498 466 514 465 515 484 435 454 465 484 506 450 441 471 432 440 473 432 494 437 415 393 455 400 380 401 420 433 422 411 419 417 402 386 408 365 396 378 365 442 396 365 395 395 387 359 375 363 401 357 352 377 366 356 367 397 351 337 348 346 418 346 334 369 340 346 347 378 380 353 354 358 410 362 364 359 356 336 362 366 361 341 377 366 368 374 354 348 358 339 363 360 341 381 314 316 341 343 364 353 357 345 320 384 345 349 366 335 352 331 337 353 354 352 391 341 378 352 358 364 365 357 310 304 343 332 348 324 357 373 324 337 350 333 346 355 350 292 342 320 318 361 336 357 345 324 344 343 353 340 324 336 337 331 333 329 342 353 353 342 376 329 360 327 359 336 319 311 373 377 334 345 308 378 302 386 323 322 384 345 317 347 354 373 362 346 356 338 349 359 320 335 331 342 371 314 346 356 374 334 376 336 348 317 361 366 339 321 356 347 374 380 368 338 360 334 305 373 323 335 337 343 334 334 349 333 348 343 370 309 316 333 350 308 346 356 352 361 322 321 337 309 345 315 327 299 335 354 315 351 342 337 313 317 339 333 346 332 328 331 360 323 315 315 313 341 328 298 340 300 320 316 356 374 345 343 328 335 333 351 319 345 330 337 311 318 322 337 313 346 306 306 318 311 327 357 346 328 337 342 300 334 328 319 328 320 322 326 308 307 341 312 333 310 346 348 311 337 330 343 345 341 310 329 354 336 315 320 327 323 333 330 323 307 266 335 332 293 271 304 328 343 369 308 342 326 306 326 293 338 360 317 346 287 314 365 304 287 311 345 307 330 321 278 329 322 309 306 315 298 341 315 299 296 304 289 330 307 316 330 314 312 331 319 332 320 292 318 277 270 344 331 325 294 356 311 304 338 312 345 327 311 309 296 324 334 315 306 328 283 333 268 322 323 278 304 307 309 333 361 285 308 317 298 332 317 264 282 348 309 312 328 336 303 326 296 322 300 329 295 330 311 292 308 321 269 297 309 309 338 357 305 325 296 345 307 305 338 341 339 310 275 318 314 321 304 329 327 333 326 311 325 320 332 326 297 307 333 348 309 330 302 373 335 346 309 317 331 323 321 341 315 385 339 316 356 318 360 330 308 373 332 350 343 343 348 386 370 397 369 378 346 351 354 357 346 373 310 345 345 371 342 377 351 379 391 379 358 391 377 352 404 375 379 376 388 351 367 415 392 426 404 433 413 412 426 462 486 511 489 500 492 555 513 536 581 674 694 700 638 731 763 723 870 840 889 871 931 1008 990 1031 1038 1100 1027 1098 1085 1100 1175 1164 1141 1201 1139 1101 1191 1162 1117 1065 1143 1028 1015 1032 924 1004 977 913 886 873 885 849 810 735 732 719 744 727 692 678 604 614 623 668 610 587 610 585 564 572 616 613 606 676 655 658 650 689 689 697 726 784 723 804 819 835 795 770 787 836 823 841 843 806 814 794 852 858 851 791 837 829 796 832 801 742 778 740 664 720 690 669 671 667 609 580 576 588 576 579 542 518 507 504 510 506 492 483 454 445 420 432 415 436 415 417 380 399 357 397 383 387 386 373 333 363 370 333 340 352 360 324 338 348 333 321 290 322 331 349 333 331 303 333 311 326 338 309 342 280 329 319 352 319 321 343 301 296 303 286 324 294 305 278 317 307 291 332 321 318 318 299 311 340 339 313 287 320 326 284 308 345 312 262 311 300 321 296 312 298 331 334 307 298 327 305 339 292 312 314 323 325 336 336 307 331 288 327 313 317 356 305 326 314 323 310 347 311 311 336 307 284 335 312 355 384 331 309 354 324 351 381 363 357 334 310 361 355 383 358 306 348 392 413 357 419 391 436 405 439 493 453 461 552 525 589 580 574 662 670 709 750 786 848 795 814 895 945 879 922 975 1035 1028 1064 1001 981 1003 1102 1010 1063 1059 1090 1022 1030 1048 1023 1017 1025 954 966 908 947 873 894 887 852 823 773 740 712 758 670 699 633 637 615 620 597 583 543 569 564 570 572 512 489 497 555 516 484 530 507 503 553 539 546 549 602 672 639 694 671 688 661 743 692 712 818 745 742 743 727 751 709 705 726 724 718 694 683 691 671 681 716 645 648 678 658 629 570 540 546 556 552 512 521 493 467 499 428 448 464 462 431 450 439 374 414 423 367 369 364 442 379 415 375 383 378 390 411 401 394 399 368 340 340 413 372 362 338 403 407 353 345 387 372 386 335 344 333 329 335 338 329 327 330 369 365 320 364 327 326 348 333 306 307 345 347 322 354 323 295 341 321 319 340 352 315 342 313 331 330 307 309 333 314 323 360 312 374 321 335 395 374 361 411 389 375 411 411 380 419 368 425 413 403 402 397 431 482 468 464 459 460 429 431 431 394 449 432 432 410 471 433 432 393 377 423 395 402 412 362 387 385 384 333 358 335 319 361 320 310 355 308 303 322 307 335 312 332 333 301 268 299 295 301 280 307 296 355 316 303 314 315 309 272 327 293 278 318 293 318 311 299 283 270 310 308 276 297 261 280 273 283 293 268 281 304 310 314 269 282 312 291 296 296 289 297 274 275 288 271 282 269 315 306 280 322 276 299 291 319 326 299 333 263 309 332 319 328 307 300 322 307 305 299 331 327 301 296 332 319 296 312 278 306 310 299 328 284 292 284 300 306 277 297 281 294 299 269 291 278 285 296 289 308 282 302 292 261 286 266 280 273 251 244 292 235 278 233 239 257 280 283 263 272 270 274 259 256 295 283 245 234 264 299 249 263 269 260 273 234 280 237 258 272 231 260 264 263 243 242 250 276 249 256 299 264 260 312 237 268 223 260 264 273 237 240 261 228 227 282 241 235 245 247 246 239 202 249 282 266 212 284 222 275 219 218 258 223 248 247 231 235 230 239 247 262 272 261 278 219 271 198 274 241 241 220 229 231 231 224 212 263 237 256 245 237 232 229 237 257 262 248 246 222 245 250 260 256 258 236 227 237 224 276 267 228 221 250 249 269 238 226 228 220 264 224 200 249 262 229 213 270 247 243 235 276 285 227 256 266 269 258 242 256 258 243 232 257 281 236 266 232 245 236 251 280 245 227 250 237 238 245 244 220 224 240 244 269 275 238 262 256 216 248 248 227 232 226 234 261 268 233 240 214 218 238 215 204 248 244 243 256 226 239 239 232 237 218 234 238 275 231 239 224 214 234 261 211 209 242 228 233 262 242 264 222 259 219 244 216 233 250 257 262 234 229 236 240 246 238 241 263 232 210 232 232 210 237 244 242 241 282 224 243 223 225 229 219 261 243 208 220 235 219 244 211 227 238 249 233 257 275 250 212 228 245 264 235 257 232 218 235 209 225 222 232 223 234 231 207 225 246 210 237 244 246 228 214 249 242 226 242 227 230 222 220 188 246 218 198 229 224 229 243 242 241 244 218 214 224 264 235 228 212 263 259 266 248 242 268 232 275 274 240 268 305 280 285 282 298 310 325 302 280 307 308 279 274 272 314 317 347 294 326 285 312 309 303 297 323 338 305 332 305 327 319 330 275 294 273 288 297 301 275 284 315 258 274 271 286 258 241 251 230 274 257 267 247 238 256 259 257 238 258 242 244 230 264 282 241 249 225 228 250 211 268 257 209 275 235 196 275 256 232 237 245 246 223 218 261 226 200 230 247 213 224 265 227 244 232 235 242 282 248 246 215 247 236 230 215 204 232 221 261 276 242 242 244 289 259 256 244 236 242 270 239 282 239 272 228 237 223 256 244 243 245 249 222 238 265 196 227 236 226 212 244 217 234 238 237 243 271 260 215 249 224 258 230 247 231 220 261 264 238 207 266 225 226 205 225 210 196 228 215 248 240 213 241 231 209 232 221 227 241 214 224 202 235 217 220 244 207 212 236 202 237 204 216 197 239 208 221 213 212 238 214 232 231 232 206 224 222 217 219 215 229 213 221 229 234 192 217 217 205 215 212 216 220 210 239 198 227 225 261 242 210 232 247 229 199 268 228 208 214 250 217 248 196 196 233 189 225 246 219 239 213 240 222 217 230 216 227 242 240 266 236 244 227 219 240 235 241 240 240 265 231 240 250 192 233 232 234 260 249 238 240 245 273 272 256 275 273 267 262 270 260 243 272 271 260 288 276 315 302 285 334 347 343 349 369 354 362 339 358 378 382 371 371 433 401 430 427 435 429 447 439 453 488 464 472 479 468 483 490 465 418 458 467 434 509 433 472 447 470 448 483 423 431 420 408 405 438 421 433 387 427 394 386 358 389 351 392 360 335 343 307 336 327 325 307 315 280 347 289 303 304 301 272 286 299 270 320 279 292 285 307 262 294 249 278 335 316 313 319 311 292 328 358 328 337 306 327 360 319 342 352 335 371 370 382 354 370 384 376 387 382 339 398 358 361 376 349 363 408 354 353 366 360 342 348 350 342 336 340 341 348 348 347 332 313 328 319 311 314 279 313 298 283 284 280 324 315 306 289 263 282 281 271 283 259 264 275 267 288 256 274 264 261 261 243 244 231 223 272 246 248 248 221 221 232 221 261 267 267 233 261 236 257 199 256 227 231 272 223 282 250 237 261 244 247 204 234 229 242 237 248 242 231 266 232 246 222 256 228 215 250 241 222 258 229 230 249 256 236 233 212 232 236 211 223 245 217 210 256 229 221 205 218 232 234 221 207 256 221 230 231 219 205 229 247 205 211 192 230 203 234 194 208 195 211 173 199 215 199 230 211 196 203 218 210 200 193 218 194 231 223 234 220 220 204 224 186 195 222 259 212 233 225 225 211 222 229 211 196 232 214 206 237 234 212 198 190 213 212 215 266 231 220 215 215 196 212 238 196 229 244 200 206 217 199 199 224 196 217 225 229 199 209 188 236 197 188 229 203 237 242 220 192 226 211 217 228 215 222 225 206 229 245 233 218 210 229 217 224 205 213 215 227 231 235 250 227 203 216 214 223 228 204 235 231 210 232 238 211 190 218 234 198 234 199 227 227 226 221 215 218 224 243 231 241 237 236 195 218 246 238 206 190 220 226 246 249 198 215 219 228 223 225 206 221 218 265 245 223 223 197 216 198 219 219 236 198 220 256 239 241 187 226 198 238 222 205 205 221 204 212 226 246 193 202 211 209 215 219 181 220 202 194 236 189 224 200 213 208 200 223 223 223 234 188 232 218 207 210 228 229 188 213 225 214 216 223 206 220 204 237 209 214 216 214 239 204 195 218 204 220 219 209 204 216 219 200 208 172 236 231 197 240 210 225 212 200 217 201 221 246 210 222 195 206 207 228 196 234 226 198 225 217 219 218 209 199 209 214 230 225 211 224 227 206 224 227 197 231 229 200 229 203 182 225 201 232 221 209 214 199 205 194 246 207 200 207 238 231 224 232 209 226 231 227 218 227 215 207 210 203 191 209 219 213 206 218 199 228 205 205 216 212 220 228 202 208 227 257 199 201 234 239 205 214 224 195 199 202 217 221 224 225 224 178 215 217 234 233 209 204 220 204 224 195 236 222 230 235 209 231 245 221 193 196 240 229 219 214 211 234 226 215 198 191 215 207 201 228 193 209 234 219 241 228 264 208 244 214 217 248 213 235 217 215 214 240 227 242 203 264 235 243 246 229 228 264 241 260 231 278 289 264 273 234 281 278 270 260 243 263 280 292 242 279 282 280 292 260 272 266 280 269 305 293 287 278 295 289 273 285 303 300 299 325 296 304 294 262 292 290 323 319 297 328 325 302 315 301 308 331 334 325 332 330 340 311 322 357 366 365 367 367 388 404 405 414 408 415 409 419 442 409 463 447 412 467 412 435 436 473 444 420 446 454 473 428 440 440 437 415 411 455 427 429 457 442 430 405 433 412 413 388 383 368 364 346 382 303 344 355 340 352 316 326 338 342 332 302 350 271 327 292 288 322 339 327 289 294 276 294 295 284 284 302 282 275 282 284 277 279 290 281 266 290 327 292 302 305 327 293 324 325 320 344 311 385 354 365 341 352 350 367 362 383 373 371 371 423 416 391 412 411 450 408 434 455 359 399 380 395 382 374 396 431 408 406 397 405 352 395 405 383 394 372 386 343 324 337 351 339 324 360 307 348 323 318 319 312 281 296 315 314 330 299 285 243 320 294 290 270 282 309 321 263 283 270 313 303 282 246 274 283 262 273 292 248 287 266 263 269 279 297 280 284 271 275 305 268 277 300 283 292 271 273 289 286 301 285 273 276 307 304 282 270 290 289 302 271 333 329 339 315 297 336 343 317 314 385 365 352 315 390 382 382 369 451 457 424 427 441 458 500 500 517 504 538 567 574 552 572 662 649 682 634 661 684 678 740 705 696 744 733 732 789 761 779 799 812 730 803 779 768 784 778 666 700 745 706 709 683 697 722 728 703 669 611 673 616 633 629 623 594 597 568 559 569 533 489 497 455 488 449 460 437 429 480 391 447 414 395 410 365 365 370 387 369 375 332 375 351 326 345 378 358 356 350 381 360 342 350 372 373 372 372 397 378 444 398 389 416 405 423 437 475 448 457 467 506 491 482 500 500 505 517 550 510 534 528 538 513 514 576 576 550 559 556 539 517 534 543 546 512 552 507 537 478 516 552 484 485 502 492 489 495 463 473 552 476 421 458 456 469 457 460 464 413 419 401 470 399 408 422 393 382 412 395 391 401 408 359 399 366 379 357 365 362 367 338 352 390 367 331 395 338 332 366 362 352 339 351 349 315 334 361 333 348 324 328 313 334 328 350 347 272 337 323 331 310 321 329 330 326 327 335 303 314 269 296 244 276 312 279 292 277 280 291 278 238 302 262 260 233 263 293 265 265 257 275 285 259 249 273 264 267 273 246 212 220 260 235 221 258 258 273 256 249 276 258 238 220 224 221 268 240 262 218 217 215 275 247 244 261 244 231 272 212 214 261 240 217 267 226 235 286 204 237 222 250 222 269 223 237 264 221 256 223 246 226 270 222 233 233 242 248 270 265 265 239 224 236 261 211 279 226 233 239 225 238 282 219 261 234 261 249 225 216 214 275 225 247 264 230 250 268 260 237 230 233 226 282 222 224 218 245 273 246 246 235 261 206 236 268 235 228 238 242 230 269 249 245 269 212 234 226 240 284 233 266 244 229 241 244 268 258 235 214 238 242 224 264 242 241 219 235 243 241 236 230 239 236 228 259 209 250 244 236 219 233 242 240 227 199 208 243 262 209 231 220 215 216 223 233 228 222 235 203 218 188 204 229 233 230 259 247 228 219 202 229 224 207 244 210 216 214 210 225 194 234 205 232 246 227 235 209 219 195 234 236 185 194 232 226 214 198 228 216 261 220 201 193 193 226 214 209 235 242 228 219 193 201 204 199 256 222 219 208 221 198 209 194 216 206 209 201 225 243 218 215 218 227 204 245 199 212 221 208 225 232 219 223 234 193 203 185 189 188 182 199 206 219 200 203 212 182 203 233 220 209 185 209 223 227 193 228 213 211 212 247 244 220 199 227 216 211 210 213 227 223 219 202 218 220 236 198 223 198 223 238 222 221 185 200 215 207 229 215 214 232 219 218 235 236 225 216 209 193 235 192 198 219 203 223 225 249 226 186 209 194 240 217 212 235 239 203 209 234 214 263 215 212 208 224 261 232 221 208 216 243 233 225 212 212 212 243 224 225 215 212 243 205 222 225 228 207 217 219 225 225 234 202 236 227 220 230 213 266 235 232 268 236 249 201 233 227 220 229 233 230 258 233 211 300 261 268 240 264 233 268 249 271 246 225 278 278 281 246 294 280 216 260 282 235 284 247 270 279 287 237 256 266 275 294 217 276 289 301 280 268 233 269 247 243 243 257 236 268 240 221 223 236 223 249 233 266 212 208 266 243 225 227 244 248 270 257 221 248 241 203 234 213 183 224 199 237 209 203 232 233 218 233 230 203 197 236 212 259 236 241 242 207 216 204 231 205 243 238 240 211 222 217 221 222 245 247 259 213 219 203 214 213 248 219 199 276 220 235 258 226 228 226 236 225 262 219 228 232 201 235 219 240 222 231 208 256 264 237 245 231 227 224 249 235 229 244 250 222 228 243 220 246 240 270 238 230 243 229 275 225 256 225 235 239 227 219 250 233 241 247 240 225 228 221 232 257 214 241 227 225 233 227 233 227 246 205 217 240 236 222 241 233 236 210 260 208 208 206 204 229 236 230 234 235 193 224 235 230 229 202 217 239 225 233 247 249 221 230 245 240 228 256 258 238 267 219 266 232 230 226 233 246 236 226 228 235 229 250 202 208 215 258 231 230 248 246 225 234 259 268 250 264 233 243 233 269 247 266 291 274 275 288 234 277 242 310 261 280 248 307 293 285 297 285 307 312 271 328 335 318 374 342 353 338 397 378 387 369 410 409 441 393 446 404 504 467 468 481 508 473 515 523 547 548 516 567 522 557 565 586 564 554 634 602 578 601 604 552 615 569 618 613 550 625 572 592 613 569 553 548 593 533 500 528 511 517 516 490 486 477 438 423 492 452 465 412 461 434 461 387 412 388 378 424 404 373 349 389 365 327 381 351 354 335 340 327 324 301 359 325 312 304 287 301 296 295 276 283 281 278 273 316 293 313 257 301 266 291 303 307 302 260 287 276 296 293 303 278 300 291 335 310 301 321 384 325 325 321 365 370 362 345 372 371 365 370 397 397 397 371 432 395 420 416 436 373 424 429 427 443 423 426 449 427 431 424 411 387 437 404 409 395 384 375 390 396 448 419 421 375 391 379 370 370 388 382 354 428 394 378 358 379 361 319 346 351 348 347 358 340 322 344 361 330 309 333 327 323 362 309 321 322 335 287 288 340 304 299 300 333 316 293 306 282 301 291 341 274 297 304 280 299 270 300 303 292 270 309 281 267 265 298 282 309 261 304 244 264 291 273 250 262 279 289 249 281 263 260 283 279 276 278 247 276 233 243 213 265 264 257 246 262 233 246 242 213 212 223 224 249 239 262 262 234 240 250 231 265 225 210 182 226 205 220 208 227 222 231 233 232 242 269 214 247 203 232 229 233 220 226 249 216 245 228 219 262 259 211 224 211 218 238 232 220 229 250 217 239 220 239 220 221 247 241 238 211 234 239 226 266 210 229 233 216 189 214 210 235 233 238 181 238 228 208 225 227 229 228 238 200 199 250 204 223 210 188 227 208 232 219 206 224 227 218 230 232 246 235 234 222 262 194 190 208 227 205 196 240 205 221 204 206 197 217 195 233 244 211 201 221 240 234 212 204 218 217 201 261 193 187 219 197 213 228 211 201 183 209 217 196 217 225 200 208 204 219 194 226 199 203 211 221 204 180 196 201 208 222 234 206 209 201 225 197 242 197 227 228 220 231 222 191 203 211 195 208 213 202 209 192 238 204 209 210 238 194 209 211 226 195 215 221 216 224 232 192 194 188 229 183 199 194 195 238 197 215 198 214 220 247 238 256 222 219 222 215 209 204 214 189 220 219 204 207 204 190 187 197 195 221 227 217 201 214 221 218 201 211 220 215 204 196 205 207 225 231 195 226 197 180 218 218 205 211 200 243 217 264 207 209 209 194 206 218 226 225 216 209 229 205 215 224 180 204 212 203 204 214 209 225 208 214 188 236 215 233 205 233 205 209 214 226 216 225 231 209 217 194 223 205 235 245 206 223 211 240 215 215 188 212 218 206 238 223 234 202 216 223 248 226 231 199 232 236 238 239 219 204 219 218 215 198 244 185 220 184 240 211 226 233 238 222 235 209 226 231 223 241 211 219 208 200 202 225 218 235 237 239 223 257 222 233 248 249 250 269 247 241 244 249 239 250 258 231 300 285 272 268 307 264 280 262 290 316 272 273 256 268 280 312 322 289 295 264 292 313 347</counts>
			</dataPoints>
		</scan>
	</xrdMeasurement>
</xrdMeasurements>
