<?xml version="1.0"?>
<xrdMeasurements xmlns="http://www.xrdml.com/XRDMeasurement/2.3" xmlns:xsi="http://www.w3.org/2001/XMLSchema-instance" xsi:schemaLocation="http://www.xrdml.com/XRDMeasurement/2.3 http://www.xrdml.com/XRDMeasurement/2.3/XRDMeasurement.xsd" status="Completed" recordIdentifier="{C880CA79-BEBC-4873-A017-693651CF46E3}">
	<comment>
		<entry/>
	</comment>
	<sample type="To be analyzed">
		<id>GPSS_Li1p85Zn0p425Mg0p425Sc0p15Cl4_111725_691b7e20f3837ac4a0a9937c</id>
		<name></name>
		<preparedBy></preparedBy>
	</sample>
	<xrdMeasurement measurementType="Scan" status="Completed" sampleMode="Reflection">
		<usedWavelength intended="K-Alpha 1">
			<kAlpha1 unit="Angstrom">1.5405980</kAlpha1>
			<kAlpha2 unit="Angstrom">1.5444260</kAlpha2>
			<kBeta unit="Angstrom">1.3922500</kBeta>
			<ratioKAlpha2KAlpha1>0.5000</ratioKAlpha2KAlpha1>
		</usedWavelength>
		<incidentBeamPath>
			<radius unit="mm">145.00</radius>
			<xRayTube id="1010048" name="Empyrean Cu LFF HR (9430 033 7310x)">
				<tension unit="kV">40.0</tension>
				<current unit="mA">15.0</current>
				<anodeMaterial>Cu</anodeMaterial>
				<focus type="Line">
					<length unit="mm">12.0</length>
					<width unit="mm">0.4</width>
					<takeOffAngle unit="deg">6.0</takeOffAngle>
				</focus>
			</xRayTube>
			<sollerSlit id="21010002" name="Soller slits 0.04 rad.">
				<opening unit="rad">0.0400</opening>
			</sollerSlit>
			<mask id="22031000" name="Fixed mask 13 mm">
				<width unit="mm">9.00</width>
			</mask>
			<divergenceSlit id="22120001" name="Divergence slit 1°" xsi:type="fixedDivergenceSlitType">
				<distanceToSample unit="mm">50.00</distanceToSample>
				<height unit="mm">1.52</height>
			</divergenceSlit>
		</incidentBeamPath>
		<sampleMovement xsi:type="spinningSampleMovementType">
			<spinnerRevolutionTime unit="seconds">1.0</spinnerRevolutionTime>
		</sampleMovement>
		<diffractedBeamPath>
			<radius unit="mm">145.00</radius>
			<antiScatterSlit id="22090040" name="AS slit 9 mm (PIXcel)" xsi:type="fixedAntiScatterSlitType">
				<height unit="mm">9.00</height>
			</antiScatterSlit>
			<sollerSlit id="21020003" name="Large Soller slits 0.04 rad.">
				<opening unit="rad">0.0400</opening>
			</sollerSlit>
			<filter id="20030001" name="Large beta-filter Nickel">
				<material>Ni</material>
				<thickness unit="mm">0.020</thickness>
			</filter>
			<detector id="7010019" name="PIXcel1D-Medipix3 detector" xsi:type="rtmsDetectorType">
				<phd unit="keV">
					<lowerLevel>4.02</lowerLevel>
					<upperLevel>11.27</upperLevel>
				</phd>
				<mode>Scanning</mode>
				<activeLength unit="deg">5.542</activeLength>
			</detector>
		</diffractedBeamPath>
		<scan appendNumber="0" mode="Continuous" scanAxis="Gonio" status="Completed">
			<header>
				<startTimeStamp>2025-11-20T12:08:56-08:00</startTimeStamp>
				<endTimeStamp>2025-11-20T12:17:03-08:00</endTimeStamp>
				<author>
					<name>AutomatedUser</name>
				</author>
				<source>
					<applicationSoftware version="1.7b (136)">PANalytical Aeris Instrument Suite</applicationSoftware>
					<instrumentControlSoftware version="3.2.00000000 20240306">AERIS</instrumentControlSoftware>
					<instrumentID>950485</instrumentID>
				</source>
			</header>
			<dataPoints>
				<positions axis="2Theta" unit="deg">
					<startPosition>10.00943322</startPosition>
					<endPosition>99.99442286</endPosition>
				</positions>
				<positions axis="Omega" unit="deg">
					<startPosition>5.00471661</startPosition>
					<endPosition>49.99721143</endPosition>
				</positions>
				<commonCountingTime unit="seconds">12.495</commonCountingTime>
				<counts unit="counts">2745 2795 2721 2691 2708 2831 2777 2620 2746 2739 2841 2795 2773 2663 2848 2772 2801 2751 2770 2781 2886 2706 2827 2741 2755 2883 2751 2808 2761 2786 2816 2763 2761 2769 2834 2846 2851 2785 2766 2788 2895 2819 2811 2814 2804 2882 2742 2832 2813 2931 2714 2888 2830 2855 2874 2804 2879 2874 2886 2849 2900 2916 2910 2903 2962 2863 2884 2884 2823 2856 2922 2903 2948 2861 2860 2886 2960 2798 2997 2834 2851 2877 2886 2879 2943 2970 2863 2961 2907 2972 2963 2969 2957 2904 2966 2957 2993 2929 2928 2957 2965 2947 3013 3062 3038 3103 3054 2979 2965 3068 2949 2960 2964 2987 2962 3028 3014 3069 2976 3045 2977 3086 2919 2920 2974 3017 3000 2995 3050 2976 3084 3079 3050 3036 2990 3121 3093 2958 2978 3013 3040 3044 3071 3031 3161 3030 3020 3131 2938 2998 3011 3042 3045 3075 3052 2983 3164 3071 3019 3082 2994 2933 3077 3096 3073 3024 3055 3058 3026 3052 3077 2922 2964 3060 3017 3117 3093 3021 3003 2923 3003 3055 3022 3018 2875 3017 2967 2982 3044 3076 2973 3005 2896 3055 3031 3015 3039 3018 2936 2926 2970 2965 2994 2939 3021 2992 2962 2940 2999 3028 2994 2971 2947 3109 2997 2907 2901 2953 2903 2935 2943 2879 2947 2980 2891 2845 2969 2938 2914 2850 2921 2929 2957 2943 2914 2861 2938 2917 2962 2878 2800 2863 2716 2807 2807 2839 2842 2863 2842 2838 2908 2850 2847 2855 2756 2821 2793 2813 2688 2755 2802 2783 2821 2803 2706 2820 2794 2811 2817 2686 2839 2858 2812 2697 2829 2831 2730 2791 2768 2789 2830 2613 2704 2809 2746 2591 2704 2603 2715 2634 2748 2790 2766 2779 2704 2646 2748 2783 2776 2825 2680 2682 2706 2700 2661 2663 2700 2727 2848 2766 2659 2749 2733 2791 2713 2754 2740 2726 2650 2739 2669 2660 2749 2724 2738 2648 2784 2777 2830 2747 2686 2767 2759 2752 2822 2759 2875 2733 2812 2743 2782 2727 2769 2704 2763 2790 2764 2794 2788 2757 2808 2763 2775 2751 2695 2692 2682 2813 2823 2772 2783 2728 2832 2780 2798 2803 2817 2873 2729 2832 2819 2787 2887 2852 2798 2787 2759 2782 2821 2825 2765 2762 2675 2761 2795 2816 2810 2854 2759 2844 2876 2945 2766 2763 2837 2926 2874 2883 2840 2798 2777 2861 2878 2932 2871 2997 2799 2777 2923 2891 2949 2983 3035 2932 2900 3041 2942 2936 2951 3051 3002 2994 2888 3013 2980 3061 3007 3012 3029 2972 3011 3008 2995 2852 3058 3009 3037 3032 2952 3024 2943 3018 3097 2975 3117 3039 3082 2975 3119 3028 2995 3003 3059 2926 3044 2994 3033 3039 2974 2973 2992 2969 2941 3041 2952 2843 2909 2929 2946 2926 2957 2889 2964 2981 2943 2881 2881 2880 2791 2849 2835 2822 2762 2858 2945 2832 2922 2856 2817 2757 2832 2815 2706 2789 2807 2717 2788 2869 2620 2810 2780 2722 2844 2760 2725 2737 2676 2566 2705 2668 2696 2804 2716 2770 2727 2636 2741 2802 2663 2674 2685 2651 2615 2685 2742 2666 2670 2658 2745 2658 2636 2607 2546 2632 2684 2700 2602 2597 2496 2602 2528 2528 2622 2574 2599 2701 2585 2721 2672 2647 2498 2515 2596 2534 2506 2576 2586 2646 2595 2671 2473 2540 2620 2560 2564 2520 2563 2625 2617 2527 2585 2631 2616 2518 2509 2527 2441 2602 2429 2563 2473 2519 2510 2553 2412 2575 2483 2452 2574 2473 2459 2542 2549 2541 2454 2453 2483 2514 2453 2520 2480 2465 2400 2430 2416 2328 2490 2470 2489 2380 2468 2414 2424 2418 2364 2487 2509 2393 2393 2421 2369 2410 2415 2412 2467 2399 2341 2357 2377 2382 2406 2384 2395 2321 2399 2361 2316 2365 2449 2250 2324 2429 2290 2435 2258 2331 2270 2287 2325 2332 2396 2452 2386 2468 2310 2354 2357 2350 2388 2417 2387 2428 2362 2401 2436 2347 2387 2375 2306 2276 2396 2334 2315 2396 2352 2333 2386 2338 2227 2345 2347 2329 2423 2392 2330 2391 2237 2351 2402 2249 2326 2330 2305 2322 2289 2351 2394 2353 2339 2330 2380 2237 2309 2244 2321 2293 2348 2354 2304 2329 2281 2286 2256 2276 2364 2244 2325 2309 2233 2226 2295 2318 2282 2255 2306 2243 2336 2244 2285 2310 2198 2336 2341 2311 2298 2243 2302 2321 2271 2358 2277 2305 2316 2298 2378 2237 2456 2440 2399 2480 2366 2361 2434 2402 2446 2380 2345 2299 2302 2306 2347 2351 2299 2404 2306 2364 2380 2470 2322 2287 2420 2337 2319 2343 2264 2294 2320 2324 2397 2366 2416 2360 2272 2353 2348 2375 2365 2344 2286 2446 2403 2329 2336 2361 2293 2408 2394 2286 2374 2411 2371 2219 2388 2249 2259 2295 2261 2268 2376 2211 2265 2256 2159 2271 2105 2292 2193 2220 2234 2174 2158 2335 2208 2254 2302 2218 2201 2202 2259 2230 2192 2244 2214 2217 2184 2134 2162 2228 2227 2289 2236 2291 2201 2236 2199 2203 2174 2184 2213 2096 2251 2155 2150 2154 2166 2165 2144 2162 2125 2117 2149 2169 2186 2128 2140 2111 2197 2074 2172 2125 2107 2140 2144 2089 2107 2071 2102 2147 2185 2129 2069 2132 2109 2089 2029 2112 2145 2122 2147 2115 2179 2071 2211 2120 2123 2156 2129 2148 2031 2087 2150 2046 2141 2072 2125 2125 2151 2101 2177 2066 2104 2142 2183 2088 2100 2097 2155 2083 2075 2072 2114 2113 2059 1993 2018 2132 2034 2018 2039 2055 2105 2095 2069 2102 2107 1916 2047 2026 2131 2040 2044 2051 2148 2080 2124 2111 2139 2061 2098 2050 2075 2153 2063 2084 2096 2080 2105 1981 2081 2026 2059 1982 2052 2057 2011 2074 1971 2008 2147 1991 2011 2030 2042 2072 2007 2043 2119 2021 1995 2139 1988 2052 2015 2003 1993 1958 1974 1954 1997 2034 2044 2033 1996 2061 2074 1961 2101 2013 2062 1984 1914 1961 2001 2013 2053 2022 1965 1986 1972 2029 2034 1950 1965 2005 2043 1939 2082 2016 2019 2031 1904 2071 1955 2008 2010 2021 2021 2028 1987 1984 1966 1991 2083 2050 2025 1968 1966 1997 2018 2016 2056 1960 1957 2026 1985 2040 1988 1965 2049 2066 2068 2026 2036 1960 1995 1997 2044 2008 1970 2029 2008 1983 2112 2044 1989 2015 1968 2049 2017 1902 1953 1959 2014 1961 2016 2009 1956 2083 1987 2019 2045 2017 2099 1950 1955 2069 2031 2064 2084 2017 2063 2028 2158 1996 2048 2045 2039 1980 2037 2051 1953 2057 2051 2006 1916 2020 2061 1977 2025 1936 2008 1972 2013 2052 1990 2044 1936 1961 1974 2005 2038 1896 2016 2012 2029 2060 2030 2017 2070 1954 2028 1991 1922 1886 1904 1881 2040 1927 2020 1979 2086 1946 1992 1949 2001 2010 2037 1967 2024 1911 1956 1964 1931 2026 1987 1882 1939 1995 1889 1973 1842 1842 1894 1959 2048 1914 1867 1894 1910 1928 1936 1880 1898 1899 1893 1883 1939 1942 2000 1815 1856 1850 1877 1904 1868 1821 1849 1842 1828 1837 1808 1855 1775 1855 1942 1821 1916 1814 1851 1853 1824 1802 1773 1832 1776 1754 1836 1747 1818 1774 1751 1788 1773 1790 1779 1745 1835 1771 1820 1822 1788 1755 1854 1707 1844 1767 1792 1705 1794 1784 1783 1696 1773 1717 1711 1730 1708 1732 1686 1669 1670 1688 1626 1668 1663 1740 1645 1703 1628 1644 1687 1673 1715 1619 1636 1755 1572 1676 1661 1632 1716 1682 1644 1619 1620 1730 1576 1617 1691 1636 1695 1696 1650 1571 1656 1712 1680 1600 1547 1635 1555 1644 1640 1689 1695 1637 1684 1691 1642 1649 1666 1737 1682 1734 1734 1734 1695 1679 1838 1822 1737 1671 1841 1684 1840 1683 1763 1750 1738 1756 1657 1716 1638 1612 1622 1663 1675 1630 1663 1666 1667 1640 1678 1607 1625 1668 1609 1640 1644 1626 1684 1556 1522 1619 1588 1576 1652 1584 1583 1574 1591 1639 1669 1682 1612 1691 1525 1589 1622 1491 1563 1595 1575 1511 1611 1556 1506 1540 1495 1538 1537 1559 1592 1494 1498 1528 1497 1540 1512 1504 1518 1532 1481 1509 1458 1427 1468 1428 1412 1436 1514 1465 1392 1460 1456 1493 1461 1439 1445 1347 1406 1432 1436 1425 1491 1465 1414 1468 1423 1438 1320 1479 1446 1450 1376 1479 1528 1450 1483 1466 1467 1468 1437 1477 1446 1410 1461 1402 1411 1411 1421 1438 1526 1442 1442 1410 1537 1389 1418 1371 1427 1373 1568 1485 1432 1437 1409 1419 1419 1387 1388 1432 1377 1380 1449 1455 1476 1406 1433 1432 1417 1419 1378 1438 1434 1377 1377 1450 1402 1452 1447 1496 1442 1430 1424 1445 1436 1434 1428 1426 1418 1361 1463 1394 1505 1434 1387 1389 1431 1368 1349 1407 1426 1355 1362 1421 1390 1414 1362 1409 1424 1410 1431 1418 1382 1457 1412 1389 1418 1445 1418 1410 1440 1410 1417 1417 1389 1375 1380 1401 1377 1383 1435 1428 1441 1457 1402 1367 1421 1450 1384 1402 1406 1378 1466 1423 1375 1413 1371 1421 1408 1329 1350 1362 1349 1423 1481 1368 1355 1423 1482 1407 1375 1277 1353 1401 1375 1390 1348 1379 1397 1368 1380 1330 1347 1405 1404 1324 1394 1347 1390 1398 1321 1386 1344 1357 1386 1397 1344 1403 1379 1375 1365 1362 1361 1414 1414 1440 1337 1272 1350 1278 1262 1330 1418 1330 1251 1340 1312 1249 1247 1379 1274 1323 1352 1332 1335 1296 1272 1320 1304 1309 1267 1325 1351 1262 1270 1289 1270 1227 1270 1270 1292 1254 1354 1335 1333 1302 1386 1344 1336 1296 1304 1466 1403 1412 1370 1366 1297 1367 1344 1210 1326 1337 1322 1309 1308 1258 1328 1277 1246 1268 1208 1285 1203 1258 1260 1265 1260 1272 1230 1313 1280 1308 1255 1286 1260 1321 1228 1261 1272 1265 1288 1271 1220 1234 1201 1329 1294 1263 1249 1256 1217 1271 1235 1318 1224 1294 1273 1263 1301 1289 1331 1346 1246 1357 1271 1309 1246 1273 1347 1385 1312 1335 1377 1226 1329 1294 1325 1302 1243 1272 1280 1272 1239 1229 1215 1284 1263 1199 1352 1260 1233 1227 1264 1352 1251 1272 1246 1229 1227 1189 1204 1295 1179 1263 1213 1319 1250 1222 1238 1301 1264 1248 1200 1172 1216 1226 1184 1206 1191 1176 1175 1154 1239 1262 1252 1215 1243 1232 1210 1230 1219 1192 1201 1143 1136 1111 1180 1156 1170 1229 1170 1107 1124 1091 1132 1134 1156 1115 1171 1104 1145 1132 1086 1192 1163 1122 1164 1071 1178 1110 1108 1078 1124 1096 1087 1178 1122 1213 1113 1135 1223 1179 1304 1271 1430 1406 1436 1597 1627 1678 1845 1880 2079 1971 2243 2115 2338 2240 2343 2233 2220 2190 2124 2053 2087 2007 2039 1936 1997 1921 1879 1859 1720 1750 1820 1729 1889 1746 1791 1798 1798 1689 1707 1702 1651 1754 1725 1682 1567 1660 1616 1600 1638 1581 1659 1530 1548 1545 1520 1480 1471 1564 1530 1622 1691 1775 1652 1810 1590 1750 1690 1662 1665 1614 1533 1636 1398 1383 1428 1266 1279 1238 1206 1207 1167 1084 1147 1041 1065 1070 990 1042 968 1021 981 991 976 947 947 907 928 956 935 905 891 883 883 898 981 827 843 852 855 880 825 826 881 829 805 842 851 854 865 841 857 891 882 825 864 782 866 869 823 843 853 841 865 827 795 819 795 885 858 855 833 888 864 793 822 854 812 823 856 853 817 858 857 863 824 870 879 883 866 851 900 905 956 928 942 941 910 909 926 917 939 944 967 915 880 911 878 899 927 933 840 895 862 880 887 954 907 854 926 892 911 889 897 880 917 882 937 861 923 863 879 865 880 856 890 897 828 870 865 884 838 786 864 852 868 903 860 869 824 810 824 783 857 830 779 808 765 772 848 755 784 693 792 746 776 818 754 778 740 797 811 748 786 755 727 813 757 747 744 833 793 813 773 791 753 748 792 740 709 819 762 763 782 759 748 729 755 755 735 720 757 769 729 727 713 750 708 707 725 695 732 760 775 708 725 726 722 703 749 712 750 785 700 783 764 759 779 707 788 761 742 775 747 709 728 687 742 655 706 695 653 658 659 744 715 711 664 654 651 624 640 664 666 707 692 662 723 678 700 727 695 696 700 709 707 645 713 661 701 681 644 711 628 669 619 627 737 657 655 665 642 673 697 705 705 692 697 632 670 687 663 647 665 657 644 673 655 660 716 697 668 720 652 664 644 663 604 646 667 667 698 724 707 689 658 623 669 659 616 672 672 663 687 665 591 651 691 694 677 652 669 738 657 704 675 651 674 658 678 687 683 706 683 669 700 733 690 681 671 690 671 670 755 667 775 753 764 780 774 794 820 811 835 893 951 965 997 1071 1157 1220 1241 1315 1390 1390 1477 1552 1460 1416 1464 1525 1416 1435 1402 1338 1291 1200 1177 1161 1143 1203 1159 1203 1202 1191 1177 1148 1185 1183 1153 1188 1131 1190 1132 1152 1177 1088 1100 1117 1026 1070 1053 1068 1069 1053 988 1015 1034 1033 1043 1063 1059 1024 1063 1041 1072 1079 1166 1081 1094 1052 1059 1045 987 962 1016 920 910 866 877 816 794 806 782 749 749 736 701 710 697 696 639 706 677 691 594 701 640 636 638 682 631 609 668 617 641 612 642 598 610 634 608 645 655 610 615 592 609 620 592 619 613 579 631 592 617 575 586 595 558 589 576 578 603 568 520 526 571 611 590 596 631 562 587 581 584 602 561 588 593 585 615 595 604 611 625 587 630 605 619 547 599 576 638 610 611 590 601 626 604 589 629 625 616 565 631 594 636 643 587 587 542 636 615 566 593 619 611 606 615 561 579 564 582 551 604 575 549 580 563 584 652 541 608 579 537 569 567 602 586 609 571 538 572 545 534 544 598 560 604 553 538 549 566 597 549 568 541 555 498 586 586 525 563 542 505 543 587 538 568 531 581 515 559 591 578 571 554 559 525 543 585 551 570 540 534 558 534 529 511 497 548 607 514 565 564 552 563 569 550 542 492 509 514 501 564 530 542 491 522 560 530 528 556 554 530 550 557 512 493 559 529 524 515 579 600 525 519 544 592 521 513 537 556 586 525 592 514 569 603 522 530 557 579 610 582 556 604 600 572 552 494 561 581 564 556 583 560 607 590 593 561 524 574 620 519 555 589 572 556 522 543 555 569 594 556 606 575 549 596 588 580 563 557 583 580 563 559 561 608 513 598 515 526 580 526 519 548 587 538 509 521 553 531 553 574 534 518 514 484 509 523 532 538 528 528 551 503 502 524 528 524 512 523 507 529 511 512 475 533 474 481 483 519 475 468 523 516 482 490 518 484 551 507 466 514 487 501 504 484 508 456 481 533 481 499 534 481 516 486 463 476 495 519 508 478 464 500 535 511 485 457 511 491 490 485 479 463 508 501 510 444 485 470 525 481 474 484 517 473 504 467 475 523 502 470 493 493 464 493 513 470 499 486 477 505 468 458 474 425 457 468 471 465 509 472 464 481 455 485 450 427 470 481 451 472 449 457 472 498 489 476 436 466 473 431 499 454 456 437 460 496 443 440 451 453 484 476 451 470 498 426 515 463 460 508 465 462 472 471 453 477 457 451 477 454 490 422 470 478 465 466 486 415 473 448 435 477 479 479 469 455 450 473 456 471 482 454 447 471 435 475 434 463 427 447 482 466 461 450 457 494 454 478 442 489 439 471 461 470 499 474 460 458 453 445 454 478 508 478 486 477 497 459 497 512 431 490 459 513 467 473 460 465 452 432 460 436 449 442 476 474 462 439 485 406 457 450 477 453 448 430 478 443 466 428 442 440 433 474 456 471 464 469 445 464 481 465 434 459 447 463 423 452 450 447 469 439 445 423 436 461 432 444 459 452 469 413 440 464 416 417 476 437 417 442 409 419 387 435 432 442 465 439 425 394 413 460 454 436 420 416 471 430 436 373 472 391 387 424 431 418 430 436 410 443 393 441 435 456 415 386 434 398 444 429 454 467 412 425 475 447 446 400 413 445 412 425 435 432 441 471 417 420 402 426 444 456 448 421 426 455 450 475 462 444 452 444 457 426 458 407 437 443 477 434 465 442 448 466 443 450 427 421 435 472 399 471 449 496 436 426 481 528 493 499 428 469 438 483 471 482 465 459 515 457 486 499 475 452 511 498 486 490 520 432 463 488 444 452 454 472 494 478 467 465 453 515 417 453 465 462 519 453 498 491 454 470 486 444 492 477 431 451 435 478 461 444 482 473 459 449 478 475 453 465 449 432 411 416 457 410 443 450 457 427 408 416 459 466 408 501 421 416 416 421 448 418 408 444 425 380 445 406 397 436 435 389 415 382 435 398 405 405 368 429 437 463 441 448 431 415 389 393 386 430 419 433 415 446 401 437 441 431 400 399 442 401 425 380 379 383 435 430 405 407 415 394 382 389 418 408 426 434 396 385 405 366 375 404 417 439 401 420 436 398 408 363 395 414 453 370 388 392 426 397 418 440 382 376 404 367 425 426 391 415 407 347 428 414 450 405 393 393 403 389 430 425 394 415 408 408 396 393 402 404 390 411 417 410 457 410 423 349 420 355 459 436 457 431 436 414 417 395 409 400 398 403 391 409 410 412 388 424 420 359 450 398 408 426 374 401 375 370 385 395 400 462 418 445 427 488 413 478 464 437 423 492 453 501 459 476 509 421 430 444 474 445 474 449 502 452 506 490 482 451 418 446 494 445 442 441 493 448 478 461 481 500 498 477 456 470 429 452 432 469 473 485 456 456 470 443 463 473 462 448 467 476 453 501 470 445 467 476 453 480 479 458 418 463 434 424 478 436 426 424 437 433 450 450 478 437 403 441 394 416 371 393 408 405 398 429 414 412 394 433 389 411 401 401 390 399 436 383 389 422 379 425 390 371 384 392 360 390 333 395 393 383 369 430 376 378 409 389 407 407 407 397 360 395 405 377 412 357 397 392 389 386 389 380 388 371 397 414 383 389 416 351 393 365 417 355 385 383 391 388 384 369 371 371 350 377 369 363 395 372 388 380 399 355 373 384 384 370 345 378 376 391 383 383 372 357 380 385 382 414 393 431 365 398 334 377 390 381 355 366 362 375 355 353 350 330 413 345 385 342 388 374 346 386 383 376 363 376 373 377 387 380 364 373 356 361 392 392 347 379 311 386 337 346 386 344 371 362 408 351 376 385 351 405 369 379 382 373 402 399 388 377 377 334 407 405 383 390 416 394 388 364 405 346 354 389 434 382 371 376 356 368 405 386 375 393 383 413 411 401 384 372 399 360 415 394 409 367 367 397 397 392 421 410 416 435 416 419 404 361 413 410 375 382 368 410 386 419 391 411 321 402 377 419 388 405 376 422 429 360 369 398 379 422 367 392 372 389 399 384 380 415 404 373 369 373 350 365 354 361 392 369 386 379 369 353 408 399 379 415 369 379 400 400 414 407 371 407 365 375 408 410 386 432 419 448 421 367 416 414 396 425 416 399 448 399 439 426 415 443 395 443 457 409 427 431 470 465 455 448 497 497 506 546 500 549 527 582 585 602 679 706 711 747 782 787 811 824 766 820 840 836 803 865 787 794 820 816 760 781 790 768 731 737 745 722 735 669 732 751 678 649 695 643 634 649 607 603 619 560 602 580 573 594 585 579 576 548 538 501 579 545 523 538 540 556 564 541 577 557 540 531 516 520 507 545 523 483 472 515 497 479 503 469 475 469 455 416 441 396 401 413 412 412 433 385 463 377 389 393 387 367 377 425 361 384 393 367 362 355 378 385 369 378 360 386 377 353 344 389 359 354 384 350 360 380 399 357 377 336 349 345 377 359 352 359 334 351 309 343 333 340 367 357 355 339 384 359 285 358 333 340 343 310 336 339 351 381 333 313 330 323 354 339 336 338 303 321 338 346 324 330 331 353 336 332 333 352 335 372 359 339 337 309 348 330 326 362 334 350 378 333 337 355 329 354 340 312 333 373 354 328 331 313 335 352 369 336 320 327 334 319 354 330 347 341 343 347 341 334 351 311 334 349 355 327 324 354 328 298 350 324 348 400 342 340 318 335 363 319 352 367 336 391 334 342 326 337 360 347 350 376 357 319 343 364 369 356 363 334 361 381 344 371 364 345 320 366 346 361 339 331 355 343 321 357 371 370 372 360 374 303 349 323 337 357 359 344 356 299 326 341 325 317 352 336 324 351 343 328 332 326 381 325 346 359 343 363 332 300 328 315 323 339 313 338 330 335 325 358 328 308 323 321 318 381 335 353 313 353 316 303 357 323 336 338 327 319 339 332 349 330 315 366 380 359 350 330 349 362 381 374 341 407 334 385 402 393 343 397 387 395 374 379 379 357 373 349 383 310 336 353 363 340 389 331 331 381 333 323 346 323 335 332 362 353 326 340 316 362 354 350 366 339 347 369 338 388 333 360 337 322 362 351 371 308 339 345 323 328 327 310 324 321 304 322 317 301 333 321 322 281 298 298 337 313 326 295 333 309 297 328 274 342 276 344 302 287 308 302 294 316 314 299 297 282 314 331 307 323 296 300 311 299 339 296 299 284 292 318 299 309 313 303 343 331 339 352 338 290 295 306 297 309 282 302 324 300 315 307 284 312 311 312 314 314 296 306 298 285 316 315 312 318 329 297 319 300 312 300 285 315 289 318 290 296 285 308 333 299 267 293 279 327 288 304 279 296 300 290 301 340 265 297 257 292 290 280 328 311 293 277 297 319 293 272 297 304 269 281 298 310 303 279 299 310 291 289 282 277 301 274 290 301 287 296 280 267 303 288 266 319 294 285 299 293 303 283 299 297 294 274 273 295 305 296 286 300 263 269 292 288 285 309 295 305 302 250 279 294 270 289 298 293 301 282 289 313 286 308 274 301 301 319 282 291 306 310 271 301 288 306 316 273 300 282 280 321 317 305 282 338 291 279 310 320 317 273 303 294 282 332 338 284 307 283 287 319 291 305 302 311 295 285 342 280 308 292 288 275 284 293 288 304 316 339 323 311 304 292 320 276 249 301 276 289 287 262 269 288 279 272 308 290 311 273 259 244 303 265 270 296 285 284 271 295 273 262 268 298 278 278 292 274 290 274 263 270 307 272 292 298 287 280 271 323 283 298 257 280 276 284 301 292 299 266 305 281 312 261 257 308 297 263 264 265 270 264 318 288 277 244 295 275 262 247 293 259 270 314 304 319 269 305 263 289 272 299 286 256 292 297 283 271 266 280 275 268 242 271 275 284 275 258 273 308 272 260 287 280 282 280 271 280 295 278 294 270 283 243 271 276 264 263 279 265 287 281 298 293 276 297 269 237 285 307 301 274 314 293 282 302 304 294 281 269 266 279 297 280 289 269 326 289 279 324 297 274 295 286 314 289 292 304 268 278 287 289 311 277 320 278 299 284 271 278 284 307 292 294 282 282 288 267 299 299 272 270 296 271 295 277 268 304 319 340 301 339 328 292 312 321 307 313 288 359 331 328 376 356 383 369 349 435 367 367 373 386 368 369 378 382 386 368 327 361 377 394 379 421 403 401 392 408 368 373 364 376 402 399 395 401 375 384 379 381 369 425 348 403 382 366 413 363 395 374 381 338 355 367 377 357 359 342 367 341 342 311 318 341 330 340 339 326 291 274 281 310 307 311 293 300 323 269 312 296 280 314 300 287 300 285 302 310 281 260 303 284 271 288 293 311 288 299 265 281 277 278 299 248 317 266 263 287 293 266 273 251 299 263 302 249 285 245 294 264 248 267 259 272 248 276 273 243 274 250 285 247 250 264 266 242 256 228 246 240 232 268 236 262 275 294 260 240 268 231 259 259 231 259 249 239 274 245 236 285 259 257 268 235 231 236 208 248 261 256 233 261 250 261 247 240 271 284 246 246 266 246 214 277 217 267 206 250 251 264 233 244 246 249 218 274 237 268 225 249 259 242 237 247 257 251 265 277 197 246 235 234 227 222 244 273 237 262 231 223 242 220 246 236 235 227 235 249 231 234 235 220 280 241 235 220 280 215 221 224 244 237 271 226 259 224 260 218 228 280 242 269 224 225 233 240 226 292 273 265 263 248 281 237 283 246 246 262 265 270 268 275 265 290 293 279 265 316 300 294 264 265 275 299 229 332 302 262 287 268 269 301 280 281 283 249 302 301 285 272 258 283 286 296 234 261 267 246 246 245 241 288 265 268 269 259 275 270 262 250 243 241 260 258 234 278 263 292 244 227 261 241 268 232 258 282 268 258 274 276 266 234 245 295 228 271 240 290 258 239 233 249 248 239 226 200 226 232 256 226 241 247 241 217 218 209 220 238 200 258 211 205 241 235 223 248 244 230 250 238 222 238 258 236 219 207 244 256 234 220 229 229 229 244 228 215 228 239 235 204 227 221 242 179 248 232 231 239 241 224 286 243 217 200 232 222 266 209 259 228 236 236 235 205 230 240 214 242 233 245 243 213 214 214 229 226 227 212 219 243 244 213 241 221 241 238 257 227 235 219 228 237 230 217 211 208 228 217 231 244 242 241 232 232 235 245 225 223 215 238 257 225 220 258 224 229 223 241 209 234 245 225 216 236 227 249 242 225 231 229 222 214 234 229 219 221 232 236 215 224 242 213 225 238 247 262 272 229 208 260 246 241 261 237 240 218 207 266 200 240 266 237 248 234 223 200 224 207 231 235 249 242 225 247 204 221 236 229 228 247 220 257 224 268 225 227 205 241 215 202 250 212 195 185 231 219 247 232 225 229 242 224 224 201 258 220 213 225 258 227 228 206 235 230 191 224 220 239 213 212 220 223 201 214 232 240 231 219 203 207 207 211 206 212 200 248 237 216 196 221 217 207 213 223 222 186 231 229 231 212 208 234 198 214 207 220 236 212 227 232 217 210 232 210 235 217 210 213 202 196 221 227 198 223 231 216 170 237 208 223 213 241 208 202 210 261 210 207 237 227 229 200 218 208 238 192 234 250 211 183 229 235 198 197 189 236 193 243 230 231 244 221 184 200 212 226 228 215 223 226 195 204 225 209 195 231 194 236 241 224 203 207 231 235 216 236 266 238 219 243 226 216 215 212 185 213 214 196 224 198 226 243 230 214 216 200 201 232 212 215 223 219 216 197 209 228 198 224 215 189 210 224 188 224 195 231 227 223 180 227 182 227 212 192 238 186 198 206 213 189 206 200 210 191 197 219 212 241 221 230 209 199 206 194 209 183 189 209 234 229 184 193 211 212 212 208 191 192 232 179 205 222 195 230 198 216 184 222 230 231 234 202 223 218 225 192 220 227 207 216 178 229 221 206 209 219 211 176 199 226 220 204 196 225 195 227 211 238 218 213 221 238 233 237 235 243 223 238 250 211 196 209 236 222 219 221 249 231 228 215 223 203 219 185 198 193 208 220 239 231 216 206 240 223 217 211 201 227 186 194 199 210 196 202 203 184 189 192 212 184 210 204 216 205 243 179 242 195 227 208 217 212 236 216 256 176 211 215 216 230 211 220 212 206 229 172 205 190 189 209 200 198 208 214 205 218 197 197 218 219 210 209 206 202 212 216 197 209 223 200 192 224 215 227 211 220 207 205 214 197 209 188 239 199 213 204 221 187 208 215 201 192 224 218 202 211 232 195 225 205 211 191 205 211 210 191 214 196 211 214 218 209 214 222 200 223 192 211 215 241 194 241 187 199 224 210 182 213 211 231 200 201 214 198 208 206 196 211 209 225 240 219 201 211 204 192 217 221 207 224 201 205 231 206 206 210 209 225 231 229 198 221 220 223 193 204 205 238 198 231 226 178 223 202 220 182 224 218 225 205 193 210 202 231 199 181 214 213 231 237 214 218 239 238 218 199 205 221 172 188 222 192 219 226 224 185 201 194 202 199 213 207 201 217 200 196 204 212 204 213 222 210 199 221 200 214 192 218 200 187 224 186 228 236 187 207 204 200 182 202 180 210 244 218 191 202 187 221 221 181 216 211 191 200 223 227 189 216 208 188 197 205 192 219 177 176 201 223 193 226 192 222 210 218 213 216 211 202 204 195 204 205 210 202 204 204 186 200 164 183 236 203 204 210 208 184 224 185 202 192 205 212 211 196 204 196 224 182 217 195 212 218 212 193 204 207 209 186 198 176 209 206 198 209 211 215 209 225 230 197 193 201 199 195 210 238 236 208 225 179 197 161 213 214 209 175 207 217 205 227 206 178 183 208 208 205 220 222 180 204 192 187 207 195 219 186 219 201 220 193 200 215 173 210 217 214 209 201 208 214 208 205 211 201 199 200 190 211 220 195 201 207 190 203 190 218 213 215 193 194 208 189 218 202 216 220 224 205 222 206 191 216 200 230 212 208 203 216 224 249 236 234 264 246 238 232 256 216 283 232 286 231 245 230 261 262 291 286 234 224 247 256 302 296 317 275 265 232 259 258 262 266 266 259 246 223 260 265 261 239 235 238 232 245 226 222 220 241 239 222 267 237 242 266 240 250 222 271 228 241 218 214 241 279 233 256 221 231 218 228 229 234 224 205 238 242 215 224 213 235 220 225 232 227 209 219 204 229 225 214 222 245 223 246 245 204 205 221 212 210 219 215 225 185 204 215 226 185 257 208 233 198 211 187 191 180 216 209 196 202 232 203 198 193 212 214 212 186 219 212 201 196 198 177 208 215 207 198 205 206 197 183 204 196 201 231 200 208 207 206 205 211 192 207 214 204 236 183 212 203 200 180 211 206 206 198 207 201 218 222 221 209 205 217 181 182 189 189 214 193 199 243 204 188 206 208 209 216 210 225 216 214 209 216 211 217 205 224 197 213 201 220 193 191 201 239 199 204 238 229 204 241 199 217 204 207 189 210 230 204 207 199 229 188 225 196 198 218 220 216 210 212 209 207 195 212 224 206 234 235 217 226 239 193 226 213 189 242 234 209 206 226 236 214 231 213 226 240 216 219 219 205 236 244 211 201 234 197 220 186 223 190 185 195 224 194 205 222 203 234 224 189 205 200 199 192 227 186 196 201 195 220 208 195 227 211 211 218 249 184 207 188 198 186 214 189 246 203 208 244 239 235 190 190 186 196 222 207 219 232 166 191 211 189 183 219 196 198 204 223 222 181 207 202 210 168 194 209 206 200 206 236 221 200 219 192 197 222 226 237 210 209 199 210 197 205 222 199 199 204 183 203 205 211 227 194 191 207 201 219 204 191 197 207 172 222 207 199 198 211 200 210 206 199 220 205 223 204 234 218 204 191 193 221 207 220 218 185 212 227 207 201 193 174 206 198 198 189 198 189 186 191 195 207 232 222 202 205 219 232 193 224 203 227 206 222 209 202 189 199 226 214 207 206 174 205 185 210 215 197 214 211 189 206 195 208 212 220 194 207 180 216 219 212 205 238 222 200 191 220 216 217 197 219 209 208 227 193 185 219 208 200 211 190 169 232 222 215 201 195 196 186 205 216 231 218 203 202 234 209 213 208 197 214 202 209 223 219 216 229 223 215 218 216 202 206 193 218 200 211 223 186 202 206 231 210 199 233 211 207 209 204 175 201 198 192 218 224 214 224 223 213 212 235 236 201 226 191 226 222 221 214 217 210 215 218 211 201 234 242 220 182 231 246 205 215 231 206 208 235 213 204 200 210 210 224 218 209 199 224 205 207 197 203 223 228 230 204 202 211 228 202 220 231 207 190 231 231 209 216 195 225 261 213 228 220 219 203 188 203 214 215 204 217 198 216 257 236 227 205 208 188 236 210 216 205 196 211 237 198 206 217 248 210 228 183 207 198 213 219 160 209 225 224 236 222 226 236 228 215 223 236 187 220 226 220 216 246 218 201 206 210 220 218 223 215 217 218 225 199 219 220 185 203 210 203 248 241 223 256 211 237 231 225 222 232 213 208 250 248 248 230 211 213 244 201 218 221 246 242 201 242 215 230 228 218 230 215 248 227 224 222 214 235 228 223 237 234 258 232 258 226 244 262 224 231 257 279 217 261 244 230 230 236 233 226 259 228 247 263 239 235 243 263 216 269 237 248 244 244 264 233 222 246 229 243 225 235 268 250 246 236 258 258 233 230 263 286 251 241 220 260 234 260 248 233 246 247 220 258 235 224 256 214 237 218 265 228 207 266 270 266 245 229 233 232 231 229 236 271 221 242 184 195 245 272 207 214 263 257 201 229 232 230 224 238 229 197 232 229 232 227 219 228 222 256 229 212 229 216 216 217 216 217 212 250 226 234 216 241 237 223 228 214 230 237 234 238 238 219 233 248 209 229 230 243 209 226 215 231 238 231 231 220 256 231 217 194 225 194 233 203 257 213 209 240 239 225 203 218 216 258 213 212 220 209 235 213 197 208 219 209 210 207 208 209 222 243 203 209 220 221 231 237 262 226 211 216 229 208 219 199 205 221 216 209 229 211 231 228 194 191 203 226 216 216 238 218 245 249 225 228 226 211 232 220 203 235 242 211 257 228 204 204 239 258 234 261 231 205 228 215 227 237 233 214 237 224 239 231 229 245 239 268 234 234 264 242 213 247 266 240 234 270 228 236 235 248 260 224 224 229 265 269 259 263 238 263 282 237 240 264 259 247 247 241 257 223 261 209 258 262 241 249 233 238 241 244 240 246 205 257 250 226 211 232 267 218 203 241 228 237 243 218 249 238 225 249 234 242 233 222 216 233 256 215 197 236 262 211 249 246 210 219 250 217 232 224 244 220 246 228 209 191 201 205 208 184 244 228 234 224 227 227 216 245 229 231 224 194 200 207 231 212 183 218 223 240 226 219 231 212 203 223 225 193 195 216 224 203 227 203 224 175 206 212 210 206 224 214 244 211 207 205 226 206 209 243 186 181 179 214 215 209 206 211 196 217 211 204 193 216 219 226 209 190 248 207 200 210 210 208 199 208 192 227 192 189 202 223 208 201 219 213 219 204 220 239 210 210 201 195 193 203 227 200 207 210 203 204 189 212 227 209 201 223 213 230 210 207 223 205 217 234 213 246 216 223 214 227 193 213 211 193 227 187 216 227 228 219 214 198 197 205 234 216 195 204 190 207 221 192 186 232 216 242 218 227 217 215 200 225 198 223 235 198 200 194 221 235 207 200 208 200 234 201 231 199 206 194 205 184 195 203 208 188 193 192 193 196 216 201 206 203 207 203 204 214 207 217 184 198 232 220 221 189 219 214 202 205 198 192 211 202 213 212 186 197 202 188 192 182 201 185 189 180 199 209 184 201 177 199 220 204 215 218 214 187 205 189 226 179 193 182 240 197 195 191 180 177 196 203 207 186 205 200 199 196 187 206 198 192 223 206 221 162 181 201 190 199 179 186 207 177 198 199 198 193 207 192 226 198 211 203 172 187 182 168 227 188 199 208 180 173 207 199 201 187 199 208 203 209 205 190 204 225 237 198 191 188 188 194 174 199 174 205 180 186 188 214 203 187 197 195 218 192 196 171 166 200 189 190 189 203 204 177 215 195 216 210 187 210 185 195 181 193 208 202 197 216 177 197 185 204 179 205 178 197 166 183 187 194 174 211 214 197 195 191 174 176 184 188 197 170 214 191 184 220 209 183 201 189 177 233 202 166 184 182 213 186 191 209 196 219 184 215 172 212 183 216 202 192 194 195 184 168 201 184 216 186 182 225 187 183 168 195 207 192 204 173 185 188 192 214 189 183 206 202 212 171 203 207 214 219 169 199 180 196 178 172 199 216 217 192 196 217 191 182 197 190 206 183 190 181 168 189 173 181 192 180 172 226 210 184 191 192 185 174 189 173 199 180 176 188 184 210 205 179 178 189 213 189 193 200 194 184 211 208 192 212 214 202 182 180 188 172 196 200 192 178 187 199 180 166 176 174 191 216 219 170 181 177 179 179 209 236 189 196 181 195 208 189 178 196 175 195 185 198 213 184 211 178 204 195 214 197 211 209 225 191 185 185 195 203 175 189 182 179 184 195 204 203 189 183 187 191 180 188 182 199 209 214 196 189 182 194 208 154 186 192 205 197 191 182 176 209 206 173 187 171 180 179 199 185 193 198 189 191 159 189 187 201 187 203 193 201 200 224 201 197 213 204 184 194 187 214 191 172 157 187 168 187 194 188 192 226 172 201 203 200 180 180 200 187 186 179 191 209 209 203 178 184 165 190 164 218 193 209 194 196 180 210 187 207 168 203 195 201 206 197 172 163 180 164 193 192 181 190 176 201 210 174 189 202 202 185 184 169 179 174 181 203 181 203 192 166 199 182 173 208 176 182 193 179 200 154 185 185 208 177 186 180 183 206 169 185 200 207 214 169 163 173 147 200 187 188 178 199 203 197 176 186 183 189 182 205 201 182 149 174 188 180 169 177 187 175 161 173 182 155 195 170 185 200 180 161 177 181 204 178 190 195 170 205 180 205 196 192 180 198 174 207 171 179 185 203 202 198 224 184 203 177 171 152 180 182 190 211 188 208 191 197 212 193 219 201 197 217 175 208 184 183 182 207 196 172 161 177 192 194 202 189 198 181 194 168 165 197 180 196 169 200 181 207 213 216 165 184 188 179 200 191 198 192 186 201 198 182 171 199 201 182 195 192 186 230 188 197 195 200 198 222 197 198 210 221 219 203 244 206 229 186 236 183 225 239 218 214 202 217 235 243 229 225 217 239 216 200 224 234 218 218 225 244 214 246 206 220 222 216 219 249 218 211 218 236 232 220 202 227 243 216 240 216 214 190 228 232 203 221 203 231 198 199 218 236 221 199 221 202 221 240 203 195 208 229 214 202 231 224 216 193 193 194 193 216 219 197 206 215 209 179 217 174 199 211 221 214 186 203 204 186 201 204 179 178 167 199 194 195 171 198 200 184 197 198 221 177 177 201 180 206 212 179 165 189 188 181 215 193 204 186 195 176 177 191 186 179 191 184 164 220 200 205 190 192 181 189 185 213 225 175 214 195 201 213 190 197 211 181 168 198 180 184 195 207 181 180 171 203 199 215 195 156 187 196 186 202 197 182 162 190 171 212 207 208 186 220 165 181 212 218 182 210 208 183 189 193 175 187 187 202 199 187 188 221 188 222 206 209 156 204 201 169 168 191 206 176 186 179 214 181 184 185 190 208 196 202 177 232 205 199 226 192 209 205 220 192 215 197 212 183 181 194 232 203 183 179 195 163 187 171 210 211 189 200 200 188 144 203 177 158 206 194 204 188 179 177 199 190 203 165 202 182 183 180 190 210 178 193 183 186 167 159 173 192 200 193 188 170 175 181 202 190 201 165 186 187 177 182 164 148 173 191 188 190 188 207 175 178 173 181 189 189 176 193 205 172 185 189 141 185 182 172 174 197 179 186 176 184 170 198 168 198 183 189 177 204 184 184 184 187 166 179 171 164 188 163 158 168 171 186 172 190 186 171 193 172 184 176 184 178 167 186 188 193 197 177 174 185 192 168 208 175 195 196 219 192 163 192 154 188 170 159 194 136 197 199 162 188 186 188 186 191 210 206 177 187 180 168 180 205 206 203 167 175 184 194 167 179 189 172 199 186 164 180 190 171 171 178 192 162 189 173 180 157 185 181 191 180 184 161 187 186 154 180 165 180 174 188 196 186 179 171 200 164 183 176 203 178 189 169 180 162 192 184 189 190 178 186 180 161 197 183 164 183 168 171 194 181 194 189 179 194 190 198 182 173 177 172 175 177 151 181 186 162 179 194 197 187 188 203 176 186 162 192 224 181 189 177 167 173 158 174 173 181 197 200 171 195 174 195 197 173 185 195 190 171 197 159 181 192 153 167 197 171 183 171 192 203 209 209 189 200 172 207 179 209 192 180 174 170 172 177 179 184 188 166 193 166 187 171 198 169 194 203 171 180 186 192 172 182 187 183 192 201 196 185 174 159 175 186 186 174 186 186 203 183 161 183 170 190 166 188 196 210 195 180 185 183 185 210 193 177 190 192 194 189 162 194 163 186 194 182 192 176 209 193 195 182 182 181 160 189 210 189 167 170 161 173 162 192 166 179 192 180 202 192 152 173 204 163 177 183 181 188 173 180 187 168 183 187 213 191 167 187 175 174 187 175 208 188 175 188 188 189 178 169 166 173 191 165 183 197 189</counts>
			</dataPoints>
		</scan>
	</xrdMeasurement>
</xrdMeasurements>
