<?xml version="1.0"?>
<xrdMeasurements xmlns="http://www.xrdml.com/XRDMeasurement/2.3" xmlns:xsi="http://www.w3.org/2001/XMLSchema-instance" xsi:schemaLocation="http://www.xrdml.com/XRDMeasurement/2.3 http://www.xrdml.com/XRDMeasurement/2.3/XRDMeasurement.xsd" status="Completed" recordIdentifier="{EAE948BD-60DD-44E9-BFCF-367E5F83E9DA}">
	<comment>
		<entry/>
	</comment>
	<sample type="To be analyzed">
		<id>GPSS_Li2FeCl4_072425_6882c10390243da915d8d5f3</id>
		<name></name>
		<preparedBy></preparedBy>
	</sample>
	<xrdMeasurement measurementType="Scan" status="Completed" sampleMode="Reflection">
		<usedWavelength intended="K-Alpha 1">
			<kAlpha1 unit="Angstrom">1.5405980</kAlpha1>
			<kAlpha2 unit="Angstrom">1.5444260</kAlpha2>
			<kBeta unit="Angstrom">1.3922500</kBeta>
			<ratioKAlpha2KAlpha1>0.5000</ratioKAlpha2KAlpha1>
		</usedWavelength>
		<incidentBeamPath>
			<radius unit="mm">145.00</radius>
			<xRayTube id="1010048" name="Empyrean Cu LFF HR (9430 033 7310x)">
				<tension unit="kV">40.0</tension>
				<current unit="mA">15.0</current>
				<anodeMaterial>Cu</anodeMaterial>
				<focus type="Line">
					<length unit="mm">12.0</length>
					<width unit="mm">0.4</width>
					<takeOffAngle unit="deg">6.0</takeOffAngle>
				</focus>
			</xRayTube>
			<sollerSlit id="21010002" name="Soller slits 0.04 rad.">
				<opening unit="rad">0.0400</opening>
			</sollerSlit>
			<mask id="22031000" name="Fixed mask 13 mm">
				<width unit="mm">9.00</width>
			</mask>
			<divergenceSlit id="22120001" name="Divergence slit 1°" xsi:type="fixedDivergenceSlitType">
				<distanceToSample unit="mm">50.00</distanceToSample>
				<height unit="mm">1.52</height>
			</divergenceSlit>
		</incidentBeamPath>
		<sampleMovement xsi:type="spinningSampleMovementType">
			<spinnerRevolutionTime unit="seconds">1.0</spinnerRevolutionTime>
		</sampleMovement>
		<diffractedBeamPath>
			<radius unit="mm">145.00</radius>
			<antiScatterSlit id="22090040" name="AS slit 9 mm (PIXcel)" xsi:type="fixedAntiScatterSlitType">
				<height unit="mm">9.00</height>
			</antiScatterSlit>
			<sollerSlit id="21020003" name="Large Soller slits 0.04 rad.">
				<opening unit="rad">0.0400</opening>
			</sollerSlit>
			<filter id="20030001" name="Large beta-filter Nickel">
				<material>Ni</material>
				<thickness unit="mm">0.020</thickness>
			</filter>
			<detector id="7010019" name="PIXcel1D-Medipix3 detector" xsi:type="rtmsDetectorType">
				<phd unit="keV">
					<lowerLevel>4.02</lowerLevel>
					<upperLevel>11.27</upperLevel>
				</phd>
				<mode>Scanning</mode>
				<activeLength unit="deg">5.542</activeLength>
			</detector>
		</diffractedBeamPath>
		<scan appendNumber="0" mode="Continuous" scanAxis="Gonio" status="Completed">
			<header>
				<startTimeStamp>2025-07-28T17:13:05-07:00</startTimeStamp>
				<endTimeStamp>2025-07-28T17:21:12-07:00</endTimeStamp>
				<author>
					<name>AutomatedUser</name>
				</author>
				<source>
					<applicationSoftware version="1.7b (136)">PANalytical Aeris Instrument Suite</applicationSoftware>
					<instrumentControlSoftware version="3.2.00000000 20240306">AERIS</instrumentControlSoftware>
					<instrumentID>950485</instrumentID>
				</source>
			</header>
			<dataPoints>
				<positions axis="2Theta" unit="deg">
					<startPosition>10.00943322</startPosition>
					<endPosition>99.99442286</endPosition>
				</positions>
				<positions axis="Omega" unit="deg">
					<startPosition>5.00471661</startPosition>
					<endPosition>49.99721143</endPosition>
				</positions>
				<commonCountingTime unit="seconds">12.495</commonCountingTime>
				<counts unit="counts">3289 3333 3345 3293 3334 3381 3284 3250 3333 3268 3284 3345 3317 3334 3199 3402 3271 3342 3340 3263 3353 3358 3275 3395 3354 3423 3339 3364 3256 3361 3229 3298 3231 3272 3273 3341 3222 3334 3254 3280 3259 3272 3236 3213 3323 3291 3181 3180 3255 3271 3260 3266 3249 3414 3204 3341 3273 3278 3255 3255 3267 3297 3373 3357 3216 3294 3339 3378 3334 3240 3372 3314 3361 3334 3313 3310 3238 3369 3365 3401 3342 3362 3296 3252 3237 3310 3303 3301 3415 3198 3225 3323 3332 3326 3338 3327 3282 3308 3289 3243 3278 3298 3204 3184 3360 3229 3243 3182 3252 3265 3400 3226 3315 3262 3226 3264 3356 3277 3227 3314 3294 3301 3334 3222 3192 3288 3414 3330 3340 3335 3345 3294 3241 3285 3314 3271 3226 3304 3236 3250 3255 3194 3199 3225 3358 3236 3188 3304 3270 3310 3289 3327 3253 3386 3253 3281 3249 3383 3413 3230 3184 3326 3220 3288 3462 3284 3305 3212 3311 3164 3189 3195 3257 3222 3316 3274 3303 3348 3258 3174 3294 3271 3252 3359 3307 3249 3348 3140 3266 3420 3208 3188 3312 3239 3314 3304 3275 3317 3363 3217 3312 3177 3306 3308 3361 3289 3371 3331 3309 3331 3268 3268 3341 3249 3223 3304 3212 3250 3204 3381 3345 3239 3430 3232 3428 3383 3292 3293 3370 3362 3354 3298 3367 3253 3467 3347 3353 3253 3343 3318 3383 3378 3313 3395 3427 3385 3374 3339 3357 3416 3361 3391 3363 3429 3337 3411 3333 3385 3365 3421 3413 3421 3376 3354 3354 3410 3459 3366 3443 3425 3395 3415 3422 3384 3365 3375 3395 3443 3376 3352 3380 3447 3492 3449 3385 3423 3473 3529 3390 3368 3537 3443 3417 3430 3386 3537 3395 3415 3467 3414 3463 3470 3573 3446 3485 3458 3573 3412 3464 3542 3489 3575 3577 3508 3528 3569 3578 3481 3522 3491 3581 3637 3575 3557 3469 3516 3556 3681 3677 3620 3504 3702 3679 3526 3529 3639 3593 3550 3655 3523 3494 3676 3763 3627 3696 3619 3735 3623 3655 3677 3724 3748 3716 3748 3610 3787 3712 3611 3686 3743 3777 3865 3714 3754 3796 3800 3828 3657 3778 3751 3826 3774 3886 3797 3815 3818 3925 3930 3827 3945 4010 3838 4017 3841 3826 3941 4011 3838 3949 3980 3964 4029 3875 4120 3896 3938 3995 4085 3970 4141 3971 4046 3999 4082 4059 4267 4163 4359 4128 4335 4146 4173 4161 4278 4292 4127 4223 4316 4343 4289 4390 4505 4577 4503 4561 4599 4738 4831 4880 4941 4947 5088 5237 5281 5297 5556 5674 5829 5753 5984 6064 6329 6451 6580 6336 6609 6556 6622 6441 6328 6375 6261 6323 6119 5951 6022 5965 5930 5979 5706 5499 5679 5616 5470 5509 5389 5323 5317 5350 5397 5476 5525 5514 5502 5528 5657 5753 5720 5568 5632 5681 5518 5596 5511 5535 5483 5382 5382 5237 5159 5078 5027 5003 5000 4950 4740 4736 4669 4698 4596 4609 4589 4638 4520 4477 4570 4544 4626 4570 4484 4370 4531 4454 4320 4451 4464 4290 4534 4316 4339 4379 4209 4419 4408 4462 4274 4322 4271 4402 4373 4284 4117 4243 4240 4208 4289 4237 4221 4226 4195 4257 4122 4194 4192 4169 4264 4224 4179 4001 4197 4195 4052 4135 4131 4278 4090 4098 4197 4117 4198 4121 4135 4061 4055 4071 4010 4107 4125 3984 4021 4016 4055 4030 4060 4000 4031 4037 4014 4032 4138 3998 4034 3899 4098 3945 3980 4067 4037 4009 4019 3870 4039 4009 4007 3919 3943 3929 4008 3894 3943 3932 3944 3910 3946 3860 3923 3926 3959 3986 4001 3942 3940 3970 3872 3927 3980 3942 3918 4012 4001 3986 4018 3990 3921 3807 3973 3881 3968 3949 3826 4057 3935 4095 3954 3949 3962 3915 4003 3907 4041 3940 3998 3926 4030 3956 3860 3913 4087 3932 3946 3965 4048 4168 4223 4081 4066 4252 4222 4137 4134 4225 4128 4181 4250 4185 4165 4241 4249 4348 4241 4285 4145 4208 4248 4286 4072 4086 3994 4138 4051 4000 3976 3942 3969 4023 3975 3928 3891 4024 3870 3954 3878 3895 3935 3851 3991 3836 3913 3835 4062 3983 3980 3919 3867 3922 3906 3871 3946 3872 4012 3828 3854 3779 3804 3957 3884 3921 3877 3875 3901 3879 3887 3928 3871 3926 3963 4043 3893 3964 3897 3896 3910 3892 3860 3887 3907 3908 3833 3891 4004 3902 4030 3955 3847 3886 3933 3919 3840 3889 3968 3941 3890 3888 3983 3866 3829 3820 4006 3826 3926 3845 3851 3809 3831 3826 3926 3981 3996 3901 3966 3847 3855 3806 3856 3807 3943 3933 3837 3932 3827 3845 3844 3940 3855 3781 3789 3879 3930 3915 3906 3913 3827 3930 3879 3865 3721 3835 3798 3885 3895 3826 3902 3864 3890 3864 3816 3956 3874 3969 3867 3896 3796 3771 3838 3870 3853 3757 3832 3800 3738 3868 3799 3930 3874 3975 3764 3840 3898 3956 3936 3806 3954 3909 3683 3908 3919 3849 3981 3957 3801 3834 3645 3872 3811 3807 3839 3737 3875 3798 3790 3776 3789 3927 3871 3793 3787 3861 3812 3870 3840 3874 3933 3807 3875 3695 3762 3680 3840 3783 3793 3808 3945 3861 3793 3773 3784 3803 3856 3776 3880 3750 3869 3845 3779 3803 3807 3886 3750 3843 3802 3810 3816 3771 3732 3813 3840 3839 3748 3747 3828 3691 3702 3763 3769 3782 3789 3826 3697 3812 3643 3793 3810 3764 3815 3722 3752 3697 3687 3713 3834 3760 3800 3788 3648 3743 3791 3797 3844 3721 3678 3817 3628 3716 3807 3732 3816 3725 3845 3680 3727 3751 3775 3645 3798 3838 3801 3702 3685 3768 3794 3601 3796 3783 3704 3807 3645 3714 3848 3708 3670 3701 3736 3785 3641 3691 3701 3645 3822 3790 3690 3751 3807 3880 3744 3669 3807 3691 3752 3692 3782 3711 3752 3809 3635 3778 3648 3753 3707 3749 3700 3711 3709 3773 3755 3820 3778 3706 3765 3708 3773 3727 3830 3809 3808 3896 3774 3775 3841 3842 3894 3766 3766 3632 3737 3758 3664 3777 3752 3733 3706 3792 3698 3763 3851 3776 3757 3718 3762 3710 3769 3755 3649 3712 3745 3804 3661 3753 3722 3817 3682 3723 3691 3759 3801 3734 3818 3750 3649 3790 3802 3930 3785 3817 3616 3737 3810 3754 3900 3879 3770 3642 3891 3757 3805 3920 3754 3729 3910 3771 3764 3725 3676 3735 3665 3786 3737 3897 3877 3809 3770 3816 3838 3768 3774 3843 3793 3708 3765 3742 3775 3811 3954 3752 3847 3772 3775 3802 3735 3743 3725 3688 3897 3676 3809 3766 3824 3772 3823 3742 3775 3799 3805 3872 3772 3751 3751 3759 3794 3787 3686 3698 3762 3791 3770 3813 3742 3884 3784 3862 3700 3663 3812 3800 3803 3780 3806 3700 3794 3782 3758 3889 3717 3862 3780 3785 3778 3768 3747 3737 3707 3682 3808 3752 3720 3726 3680 3736 3704 3781 3758 3744 3713 3681 3618 3787 3705 3667 3650 3716 3688 3646 3727 3679 3689 3688 3668 3710 3607 3672 3734 3611 3541 3602 3642 3637 3666 3424 3580 3689 3579 3580 3601 3564 3657 3731 3709 3730 3665 3618 3593 3557 3580 3591 3596 3614 3570 3567 3490 3553 3659 3488 3558 3556 3690 3536 3581 3467 3560 3494 3620 3522 3635 3568 3511 3628 3529 3424 3456 3443 3455 3519 3546 3522 3520 3666 3489 3486 3412 3515 3402 3439 3449 3473 3520 3405 3432 3597 3463 3364 3415 3513 3402 3439 3451 3345 3493 3307 3358 3492 3484 3468 3411 3461 3373 3291 3331 3387 3435 3387 3467 3374 3376 3264 3325 3360 3333 3365 3501 3374 3398 3451 3383 3437 3240 3231 3348 3285 3328 3286 3375 3394 3482 3257 3254 3344 3366 3363 3367 3372 3370 3351 3392 3408 3349 3341 3371 3316 3350 3403 3327 3329 3334 3342 3263 3495 3370 3363 3343 3430 3426 3404 3282 3462 3573 3519 3502 3404 3489 3382 3556 3456 3471 3531 3456 3453 3470 3409 3445 3339 3334 3340 3409 3317 3335 3438 3221 3413 3291 3339 3271 3315 3248 3284 3323 3282 3187 3203 3189 3249 3240 3345 3338 3212 3352 3243 3241 3226 3254 3315 3144 3262 3233 3087 3200 3214 3288 3332 3252 3250 3258 3284 3189 3197 3188 3292 3194 3278 3278 3311 3150 3229 3284 3229 3151 3353 3242 3190 3258 3243 3311 3334 3268 3275 3203 3291 3258 3174 3334 3202 3235 3276 3295 3365 3213 3202 3244 3189 3283 3152 3222 3233 3271 3258 3231 3188 3258 3241 3238 3308 3288 3197 3178 3176 3280 3254 3247 3233 3154 3292 3254 3209 3332 3168 3319 3213 3202 3233 3245 3251 3308 3241 3285 3153 3232 3212 3273 3237 3176 3184 3230 3281 3157 3234 3287 3322 3270 3257 3372 3321 3285 3139 3286 3256 3174 3353 3267 3203 3230 3213 3196 3228 3270 3261 3097 3251 3301 3149 3345 3326 3361 3257 3291 3145 3170 3230 3188 3227 3286 3105 3241 3251 3323 3136 3328 3202 3159 3234 3293 3322 3319 3238 3269 3182 3197 3175 3220 3212 3231 3289 3164 3236 3158 3267 3229 3210 3246 3189 3247 3180 3246 3202 3154 3287 3137 3204 3179 3270 3230 3178 3242 3199 3169 3246 3235 3233 3263 3235 3170 3170 3218 3113 3215 3217 3164 3124 3146 3159 3131 3150 3248 3197 3163 3202 3198 3148 3161 3128 3205 3256 3147 3159 3186 3139 3103 3098 3104 3169 3143 3086 3143 3057 3240 3131 3143 3127 3315 3024 3170 3184 3124 3107 3086 3042 3119 3116 3163 3166 3129 3109 3208 3184 3135 3195 3102 3097 3093 3152 3063 3160 3020 3060 3035 2974 3134 3098 3051 3020 2988 2959 3112 3013 3029 3052 3050 3011 3027 3070 3025 2991 3056 3127 3047 3145 2966 2976 2976 3149 2993 3054 3026 2987 2991 3019 3025 3028 2934 2930 2985 3028 2988 2933 3000 3080 3003 3019 2974 2955 3020 3095 2861 2997 2927 2925 2908 2921 2938 3118 3030 2968 2981 3062 3020 3020 2930 3056 2949 3048 2972 3001 3002 2949 3067 3043 3091 3096 2865 3079 3008 3093 3038 3139 3134 3119 3173 3229 3117 3319 3368 3470 3508 3553 3682 3795 3834 3939 4030 3989 4063 4049 3997 4005 3901 3944 4027 3898 3983 3756 3802 3701 3665 3638 3663 3541 3527 3587 3470 3476 3634 3454 3494 3435 3431 3414 3287 3250 3233 3246 3161 3302 3190 3252 3134 3162 3165 3093 3103 3135 3060 3007 3132 2969 3257 3160 3097 3103 3077 3092 3117 3062 3068 3171 3065 2964 3017 3056 3038 3028 3012 3067 2938 3048 2931 2949 3018 3043 3006 2982 2967 3037 2973 2926 2847 2954 2803 2992 2971 2937 2850 3047 2913 2898 2948 2863 2940 2978 2879 3013 2945 2907 2911 2908 2937 3043 3056 2917 3027 2930 2933 2964 3035 2986 3070 3170 3216 3290 3337 3540 3616 3768 3982 3910 4184 4329 4418 4483 4705 4726 4809 4750 4785 4766 4846 4686 4654 4672 4605 4541 4366 4496 4442 4462 4376 4424 4469 4689 4762 4690 4684 4583 4540 4575 4381 4288 4168 4212 4035 4002 3993 3855 3760 3574 3471 3447 3283 3198 3258 3158 3132 3075 3116 3115 3011 2932 3044 3054 2942 2809 2891 3011 2880 2859 2986 2907 2935 2941 2923 2883 2967 2868 2811 2873 3015 2968 2900 2956 2962 2948 2902 2896 2955 2808 2914 2930 2971 2901 2911 2952 2870 2811 2825 2768 2873 2804 2810 2717 2810 2884 2694 2866 2734 2716 2722 2803 2811 2764 2677 2652 2675 2611 2671 2752 2690 2694 2744 2718 2623 2712 2626 2688 2748 2643 2744 2691 2666 2689 2717 2663 2740 2669 2683 2622 2694 2710 2590 2804 2752 2782 2711 2653 2711 2760 2656 2578 2700 2667 2695 2650 2612 2699 2736 2673 2729 2709 2699 2779 2678 2669 2687 2647 2696 2637 2653 2765 2657 2633 2660 2708 2626 2637 2663 2704 2649 2713 2643 2723 2705 2595 2667 2587 2599 2633 2735 2668 2706 2708 2713 2703 2650 2683 2599 2618 2613 2634 2633 2571 2567 2578 2549 2644 2628 2601 2609 2547 2594 2638 2596 2646 2605 2642 2588 2578 2555 2666 2656 2571 2600 2542 2647 2596 2615 2645 2616 2527 2591 2680 2621 2601 2568 2705 2573 2590 2655 2649 2626 2579 2623 2673 2584 2545 2591 2692 2590 2587 2576 2612 2618 2683 2641 2570 2613 2598 2661 2634 2606 2559 2613 2587 2635 2577 2608 2582 2590 2630 2672 2560 2521 2708 2569 2674 2671 2629 2572 2629 2582 2618 2578 2560 2569 2542 2561 2594 2575 2618 2583 2672 2647 2645 2602 2535 2554 2544 2577 2508 2653 2593 2671 2637 2640 2643 2640 2628 2557 2562 2675 2558 2531 2543 2498 2569 2577 2514 2606 2678 2553 2562 2625 2579 2549 2612 2569 2694 2563 2590 2575 2631 2596 2631 2536 2564 2549 2670 2580 2671 2673 2544 2638 2505 2597 2618 2587 2635 2709 2620 2676 2675 2575 2570 2710 2661 2713 2613 2674 2585 2668 2627 2660 2686 2602 2669 2702 2680 2669 2746 2723 2693 2543 2677 2712 2650 2663 2532 2598 2673 2609 2713 2727 2661 2615 2685 2667 2713 2663 2680 2633 2679 2634 2655 2616 2633 2677 2676 2721 2686 2656 2733 2746 2684 2791 2706 2838 2727 2782 2794 2809 2786 2836 2762 2920 2773 2907 2856 2929 3035 2962 2953 3042 3039 3066 3241 3177 3295 3228 3500 3522 3709 3775 4029 4228 4533 4740 5052 5355 5894 6401 6915 7576 8220 8626 9434 10034 10442 10720 11054 11227 11546 11203 11325 11156 11175 10570 10386 9985 9814 9404 9137 8875 8794 8458 8196 8488 8425 8517 8766 9001 9420 9290 9485 9461 9179 9082 8751 8593 8160 7936 7678 7366 6974 6790 6285 5862 5608 5381 5003 4799 4469 4366 4210 4224 4032 3684 3712 3582 3616 3546 3561 3443 3459 3391 3374 3301 3352 3457 3308 3375 3375 3459 3287 3488 3517 3486 3370 3390 3317 3341 3329 3467 3305 3389 3269 3229 3304 3226 3259 3252 3156 3122 3186 3145 3095 3023 2990 3011 2978 2992 2953 2944 3030 2863 2831 2827 2812 2909 2842 2771 2809 2799 2835 2832 2765 2769 2598 2809 2718 2786 2755 2703 2771 2550 2791 2745 2606 2644 2547 2703 2729 2724 2602 2610 2564 2609 2679 2663 2648 2780 2661 2638 2682 2643 2660 2613 2646 2550 2591 2570 2625 2555 2595 2580 2634 2581 2671 2590 2533 2514 2613 2622 2486 2601 2600 2537 2596 2546 2519 2556 2650 2551 2602 2488 2576 2586 2557 2563 2503 2541 2573 2562 2469 2554 2582 2577 2576 2584 2618 2474 2536 2592 2478 2511 2548 2548 2486 2502 2625 2525 2464 2421 2487 2524 2559 2480 2525 2549 2636 2486 2432 2523 2590 2511 2589 2532 2561 2511 2487 2483 2486 2566 2538 2525 2463 2487 2493 2550 2492 2506 2522 2551 2546 2485 2455 2538 2541 2447 2538 2634 2532 2500 2560 2415 2544 2434 2556 2504 2551 2558 2512 2526 2515 2470 2456 2641 2554 2532 2531 2416 2500 2557 2651 2473 2526 2505 2430 2523 2498 2414 2512 2488 2548 2488 2483 2565 2508 2499 2483 2487 2548 2552 2428 2441 2424 2474 2351 2490 2511 2435 2499 2487 2601 2486 2607 2571 2596 2557 2528 2515 2553 2632 2572 2552 2562 2561 2610 2576 2635 2650 2621 2600 2645 2614 2543 2575 2634 2690 2526 2625 2455 2607 2561 2627 2577 2546 2540 2579 2502 2544 2528 2566 2574 2553 2611 2603 2573 2537 2515 2656 2543 2482 2618 2546 2626 2507 2434 2538 2500 2542 2472 2493 2553 2510 2503 2581 2507 2496 2535 2459 2483 2431 2433 2435 2392 2502 2423 2430 2518 2466 2492 2476 2409 2457 2438 2518 2613 2410 2536 2581 2470 2458 2513 2415 2498 2531 2459 2409 2577 2512 2505 2495 2515 2460 2418 2464 2523 2477 2490 2426 2446 2569 2459 2511 2391 2455 2479 2498 2375 2538 2508 2494 2440 2540 2508 2575 2509 2482 2555 2578 2509 2572 2481 2558 2552 2452 2569 2470 2589 2555 2592 2567 2629 2605 2435 2499 2396 2531 2498 2483 2434 2420 2454 2438 2518 2428 2486 2431 2412 2595 2447 2294 2511 2403 2343 2465 2441 2371 2356 2378 2344 2409 2431 2466 2362 2366 2410 2421 2465 2414 2381 2410 2380 2484 2358 2495 2301 2385 2401 2450 2418 2466 2467 2413 2426 2391 2473 2383 2369 2330 2470 2400 2504 2484 2348 2364 2357 2442 2382 2439 2412 2406 2384 2426 2406 2418 2317 2444 2380 2383 2423 2274 2388 2419 2386 2364 2468 2408 2346 2318 2501 2441 2473 2423 2389 2390 2418 2337 2329 2365 2399 2400 2496 2460 2407 2447 2372 2456 2344 2314 2365 2391 2371 2403 2417 2380 2335 2408 2454 2337 2363 2326 2395 2389 2442 2329 2426 2384 2288 2320 2381 2405 2364 2301 2442 2321 2386 2373 2426 2321 2293 2394 2365 2371 2354 2468 2382 2374 2351 2306 2407 2412 2403 2439 2456 2409 2387 2387 2321 2355 2322 2331 2436 2456 2502 2520 2302 2356 2340 2377 2425 2346 2361 2326 2393 2393 2373 2373 2402 2417 2356 2473 2362 2342 2412 2340 2391 2358 2356 2348 2347 2386 2378 2429 2280 2440 2356 2380 2376 2422 2408 2394 2445 2316 2258 2416 2379 2406 2344 2371 2239 2324 2418 2379 2399 2431 2412 2408 2443 2334 2334 2359 2355 2300 2390 2359 2366 2325 2350 2391 2297 2337 2319 2336 2232 2349 2372 2312 2303 2346 2407 2367 2377 2394 2327 2335 2371 2389 2296 2422 2333 2355 2383 2311 2371 2365 2397 2374 2443 2317 2346 2315 2276 2399 2433 2448 2328 2364 2332 2299 2383 2382 2322 2372 2361 2347 2395 2510 2375 2353 2310 2355 2326 2297 2338 2421 2348 2330 2345 2422 2350 2364 2317 2329 2377 2491 2279 2363 2302 2411 2382 2421 2351 2329 2228 2263 2385 2407 2352 2399 2423 2294 2390 2369 2289 2368 2316 2286 2366 2338 2442 2275 2414 2417 2286 2290 2305 2411 2407 2392 2364 2415 2403 2449 2270 2446 2380 2404 2341 2389 2365 2435 2453 2368 2526 2439 2439 2404 2385 2448 2356 2491 2393 2505 2394 2439 2363 2460 2553 2477 2476 2508 2531 2504 2485 2471 2505 2401 2375 2433 2392 2399 2516 2420 2490 2388 2357 2375 2415 2357 2511 2241 2355 2423 2305 2429 2393 2334 2402 2392 2441 2392 2343 2342 2384 2400 2351 2377 2313 2334 2350 2335 2333 2371 2412 2394 2295 2328 2344 2365 2354 2394 2403 2379 2368 2379 2296 2400 2301 2363 2356 2365 2404 2315 2441 2343 2422 2317 2332 2303 2396 2388 2393 2301 2347 2423 2336 2313 2323 2330 2449 2341 2337 2277 2371 2257 2357 2328 2384 2409 2361 2335 2371 2362 2332 2384 2343 2359 2382 2327 2343 2359 2439 2316 2331 2345 2365 2382 2279 2306 2402 2341 2374 2316 2387 2320 2282 2393 2311 2356 2252 2329 2375 2457 2391 2383 2441 2313 2372 2325 2292 2303 2422 2395 2343 2418 2318 2362 2425 2300 2337 2296 2387 2326 2303 2269 2346 2378 2342 2381 2382 2370 2323 2336 2407 2368 2316 2321 2364 2395 2284 2359 2319 2363 2326 2322 2417 2390 2338 2378 2362 2354 2440 2318 2290 2389 2322 2362 2277 2292 2227 2336 2382 2375 2393 2397 2363 2380 2367 2422 2411 2431 2415 2402 2382 2378 2423 2393 2494 2469 2461 2545 2489 2580 2599 2686 2751 2846 2797 2924 2900 3091 3043 3217 3120 3135 3091 3138 3055 3052 3106 3118 3146 3051 2993 3024 2963 2990 2851 2930 2857 2875 2751 2744 2710 2580 2711 2660 2677 2684 2676 2634 2666 2712 2591 2696 2685 2753 2695 2711 2730 2644 2691 2617 2661 2546 2526 2524 2596 2610 2558 2528 2460 2370 2466 2434 2422 2423 2443 2404 2444 2405 2434 2352 2425 2467 2388 2399 2382 2517 2374 2390 2300 2423 2357 2415 2392 2456 2474 2409 2357 2429 2298 2338 2315 2353 2388 2440 2400 2410 2438 2356 2438 2425 2396 2442 2331 2386 2358 2383 2443 2375 2413 2382 2373 2421 2281 2413 2395 2414 2425 2377 2353 2411 2400 2327 2347 2322 2341 2342 2428 2285 2326 2357 2373 2331 2338 2415 2368 2310 2326 2347 2381 2345 2356 2428 2324 2364 2303 2267 2324 2341 2410 2308 2343 2377 2392 2408 2383 2323 2326 2322 2249 2325 2341 2238 2329 2357 2335 2471 2329 2365 2287 2339 2341 2376 2365 2308 2310 2354 2358 2417 2261 2371 2321 2311 2191 2427 2306 2286 2350 2373 2368 2323 2335 2379 2206 2358 2367 2279 2325 2345 2321 2306 2324 2327 2357 2218 2307 2429 2264 2316 2333 2400 2347 2291 2327 2305 2336 2363 2346 2292 2375 2350 2292 2301 2331 2305 2341 2377 2332 2263 2313 2334 2377 2321 2349 2315 2376 2357 2342 2288 2357 2429 2258 2351 2342 2321 2311 2373 2338 2337 2310 2299 2376 2402 2270 2302 2298 2443 2248 2342 2316 2343 2374 2410 2322 2417 2286 2365 2261 2211 2375 2328 2308 2413 2324 2272 2355 2331 2357 2390 2450 2394 2299 2351 2365 2323 2344 2396 2287 2409 2362 2408 2369 2388 2376 2282 2345 2281 2384 2337 2407 2252 2351 2343 2339 2336 2339 2375 2404 2253 2366 2435 2329 2311 2386 2399 2387 2331 2247 2372 2338 2351 2370 2448 2372 2352 2358 2355 2361 2398 2341 2340 2337 2369 2428 2340 2434 2376 2363 2370 2351 2309 2381 2379 2364 2365 2382 2349 2452 2407 2302 2343 2386 2411 2413 2368 2450 2357 2462 2401 2370 2406 2399 2375 2375 2301 2474 2399 2393 2460 2507 2404 2466 2294 2442 2343 2422 2447 2445 2496 2484 2594 2515 2467 2479 2655 2517 2596 2651 2771 2683 2800 2872 2902 3059 3109 3288 3557 3777 3956 4225 4535 4857 4962 5157 5320 5293 5283 5307 5224 5266 5332 5340 5328 5305 5254 5147 5045 5099 4845 4576 4543 4437 4327 4183 4016 3995 4053 3932 3726 3752 3568 3708 3573 3612 3688 3623 3782 3727 3811 3849 4031 3990 4058 4018 3939 4088 3929 3827 3774 3621 3769 3635 3537 3610 3554 3433 3350 3399 3257 3154 3137 3086 2932 3024 2868 2843 2840 2791 2768 2789 2732 2629 2595 2713 2708 2642 2634 2653 2618 2607 2713 2575 2666 2709 2615 2725 2734 2706 2833 2811 2775 2932 2998 2968 2926 2989 2892 2872 2914 2810 2898 2779 2796 2766 2777 2769 2734 2716 2699 2642 2657 2595 2633 2679 2640 2599 2548 2618 2502 2441 2543 2388 2528 2511 2485 2510 2466 2423 2501 2404 2542 2451 2476 2519 2367 2484 2420 2449 2432 2349 2427 2400 2370 2479 2436 2466 2318 2445 2349 2448 2460 2407 2342 2397 2360 2449 2350 2327 2381 2293 2275 2335 2402 2336 2305 2351 2374 2366 2444 2246 2410 2373 2325 2411 2348 2344 2338 2325 2297 2436 2299 2284 2306 2331 2243 2313 2321 2324 2294 2285 2284 2317 2274 2251 2340 2399 2276 2282 2254 2332 2293 2268 2294 2276 2255 2274 2346 2378 2379 2411 2289 2338 2401 2380 2305 2371 2333 2403 2360 2336 2465 2418 2426 2549 2537 2591 2685 2621 2639 2695 2641 2760 2607 2638 2787 2673 2711 2738 2670 2632 2699 2612 2616 2617 2556 2756 2606 2592 2528 2552 2525 2565 2465 2477 2464 2344 2419 2535 2493 2415 2425 2505 2499 2450 2540 2466 2512 2513 2404 2530 2509 2555 2497 2381 2484 2470 2493 2442 2520 2479 2467 2510 2430 2372 2354 2510 2422 2411 2416 2417 2420 2404 2419 2420 2350 2407 2442 2343 2343 2334 2338 2303 2326 2312 2307 2356 2459 2345 2323 2309 2283 2240 2454 2348 2312 2332 2385 2410 2397 2378 2399 2434 2529 2518 2514 2509 2442 2498 2447 2476 2437 2421 2540 2579 2351 2446 2465 2479 2397 2516 2560 2401 2363 2314 2485 2455 2392 2463 2402 2422 2425 2400 2339 2348 2297 2355 2324 2357 2355 2361 2300 2392 2297 2382 2425 2370 2418 2311 2295 2341 2352 2396 2253 2281 2269 2348 2283 2305 2281 2311 2302 2326 2300 2328 2311 2266 2318 2278 2350 2243 2305 2324 2258 2353 2187 2304 2279 2294 2280 2235 2262 2286 2296 2248 2235 2272 2318 2350 2379 2233 2248 2260 2286 2205 2285 2282 2264 2224 2272 2227 2209 2296 2224 2219 2197 2190 2281 2289 2214 2194 2250 2276 2271 2212 2226 2272 2300 2192 2192 2229 2227 2293 2276 2379 2219 2234 2313 2255 2297 2248 2180 2317 2312 2287 2268 2237 2232 2349 2292 2294 2206 2299 2234 2322 2222 2241 2284 2325 2245 2216 2289 2281 2179 2251 2245 2240 2305 2265 2183 2258 2303 2276 2211 2178 2218 2265 2211 2211 2263 2244 2240 2225 2245 2225 2245 2279 2183 2217 2264 2282 2193 2209 2240 2281 2207 2346 2266 2293 2233 2279 2272 2264 2274 2319 2283 2178 2258 2256 2183 2218 2266 2214 2253 2247 2283 2284 2190 2260 2275 2208 2231 2237 2229 2279 2204 2294 2210 2200 2241 2316 2257 2171 2332 2206 2195 2190 2269 2310 2137 2314 2291 2334 2229 2186 2173 2140 2165 2268 2272 2208 2169 2215 2268 2281 2217 2212 2319 2309 2224 2250 2279 2188 2181 2327 2308 2235 2250 2206 2255 2259 2290 2289 2205 2324 2242 2292 2181 2262 2165 2274 2190 2198 2268 2236 2239 2302 2203 2229 2298 2307 2208 2202 2270 2247 2272 2241 2310 2236 2222 2207 2294 2301 2187 2177 2291 2220 2158 2285 2183 2257 2239 2218 2258 2148 2274 2228 2314 2256 2255 2220 2184 2387 2320 2278 2307 2230 2273 2191 2269 2236 2162 2221 2224 2337 2248 2308 2274 2289 2323 2267 2265 2236 2227 2260 2279 2282 2214 2295 2312 2269 2202 2353 2286 2256 2309 2252 2260 2238 2213 2293 2325 2265 2299 2289 2188 2288 2317 2278 2302 2242 2278 2250 2279 2335 2219 2235 2284 2314 2196 2268 2289 2173 2198 2193 2246 2192 2185 2276 2233 2231 2209 2307 2362 2290 2248 2233 2236 2310 2263 2231 2158 2197 2304 2169 2232 2255 2275 2144 2205 2176 2185 2284 2330 2225 2294 2267 2231 2230 2204 2218 2221 2279 2211 2330 2172 2212 2196 2249 2197 2320 2191 2217 2175 2228 2215 2284 2197 2246 2225 2214 2331 2195 2304 2153 2315 2280 2191 2309 2189 2254 2261 2202 2174 2273 2331 2250 2245 2212 2145 2210 2193 2298 2236 2229 2185 2253 2187 2214 2136 2250 2181 2188 2292 2218 2259 2338 2271 2189 2308 2252 2324 2297 2267 2322 2396 2312 2251 2352 2247 2362 2321 2266 2269 2208 2279 2329 2225 2267 2378 2268 2317 2268 2288 2292 2234 2291 2277 2296 2277 2335 2274 2168 2259 2237 2175 2364 2277 2267 2283 2343 2262 2235 2303 2286 2224 2318 2307 2300 2250 2245 2247 2260 2354 2244 2315 2270 2211 2227 2269 2293 2287 2397 2386 2347 2362 2462 2301 2513 2365 2465 2578 2550 2497 2554 2537 2522 2526 2482 2560 2578 2577 2472 2483 2429 2672 2633 2627 2616 2588 2583 2532 2416 2460 2521 2387 2436 2433 2420 2453 2415 2338 2426 2401 2261 2389 2488 2404 2341 2476 2453 2434 2456 2492 2543 2531 2566 2530 2575 2583 2619 2686 2569 2678 2619 2521 2649 2672 2536 2504 2608 2539 2548 2523 2491 2560 2520 2524 2575 2439 2472 2418 2420 2344 2316 2315 2300 2390 2302 2330 2260 2434 2303 2336 2352 2282 2318 2366 2271 2326 2353 2276 2264 2298 2254 2282 2281 2260 2300 2201 2263 2187 2203 2201 2302 2302 2260 2285 2276 2248 2257 2276 2143 2251 2261 2265 2281 2224 2299 2289 2291 2255 2192 2271 2306 2245 2197 2246 2255 2248 2242 2263 2253 2205 2236 2285 2212 2183 2192 2187 2283 2231 2248 2287 2270 2301 2217 2207 2217 2234 2240 2240 2138 2225 2261 2302 2209 2234 2188 2187 2257 2257 2181 2207 2303 2217 2217 2160 2223 2364 2194 2233 2196 2240 2224 2215 2234 2250 2219 2221 2258 2221 2283 2211 2191 2159 2224 2227 2191 2196 2259 2316 2173 2204 2168 2282 2204 2245 2272 2276 2299 2296 2251 2224 2169 2236 2160 2233 2265 2177 2265 2180 2312 2290 2226 2175 2234 2206 2278 2219 2291 2219 2225 2216 2245 2143 2198 2335 2295 2217 2209 2245 2245 2193 2231 2265 2191 2272 2204 2324 2312 2388 2212 2164 2292 2286 2305 2281 2290 2297 2280 2273 2226 2276 2327 2291 2279 2266 2357 2305 2484 2374 2422 2490 2606 2719 2693 2760 2744 2964 2863 2874 2963 2947 2850 2939 2889 2814 2880 2899 2888 2769 2941 2912 2896 2919 2865 2805 2853 2759 2804 2715 2665 2720 2727 2703 2622 2623 2604 2535 2570 2610 2454 2502 2517 2520 2570 2476 2477 2394 2553 2471 2476 2488 2521 2581 2624 2660 2650 2581 2630 2609 2686 2527 2601 2559 2577 2600 2580 2577 2586 2526 2545 2604 2438 2472 2519 2574 2521 2469 2576 2480 2482 2461 2421 2410 2380 2339 2384 2393 2303 2355 2391 2381 2331 2407 2316 2262 2315 2269 2319 2262 2285 2314 2339 2342 2353 2295 2318 2249 2259 2268 2377 2266 2309 2364 2307 2227 2343 2305 2277 2193 2386 2219 2331 2338 2320 2396 2322 2384 2303 2269 2300 2280 2338 2328 2301 2259 2309 2215 2261 2196 2332 2309 2436 2268 2189 2256 2276 2300 2236 2264 2247 2324 2321 2286 2261 2303 2184 2243 2327 2302 2214 2306 2303 2220 2282 2251 2318 2355 2233 2322 2324 2246 2306 2312 2367 2300 2241 2279 2340 2284 2327 2315 2335 2335 2301 2254 2264 2317 2295 2288 2194 2296 2235 2245 2354 2326 2358 2331 2362 2299 2384 2462 2349 2354 2435 2403 2351 2377 2383 2439 2412 2389 2371 2416 2361 2353 2461 2370 2299 2537 2438 2385 2335 2389 2398 2399 2326 2350 2440 2357 2457 2391 2438 2360 2302 2322 2308 2324 2376 2250 2277 2339 2312 2374 2326 2229 2325 2206 2322 2338 2234 2424 2219 2250 2252 2289 2311 2388 2361 2353 2256 2336 2309 2287 2378 2185 2323 2293 2338 2247 2208 2189 2247 2214 2290 2389 2288 2190 2287 2285 2218 2224 2246 2303 2152 2211 2180 2186 2221 2204 2266 2207 2242 2273 2282 2268 2186 2213 2213 2210 2180 2247 2192 2142 2191 2218 2234 2179 2150 2162 2214 2254 2205 2238 2161 2248 2246 2316 2355 2190 2240 2274 2268 2357 2237 2201 2263 2288 2246 2208 2270 2258 2268 2208 2067 2247 2161 2272 2214 2347 2215 2319 2222 2232 2180 2200 2285 2241 2212 2176 2172 2238 2218 2247 2179 2200 2256 2197 2118 2223 2200 2269 2233 2259 2270 2341 2163 2326 2165 2161 2122 2248 2186 2222 2198 2268 2237 2221 2143 2186 2167 2164 2175 2150 2262 2176 2203 2260 2095 2178 2313 2189 2199 2222 2218 2198 2182 2196 2236 2175 2191 2176 2113 2136 2223 2192 2175 2213 2172 2232 2277 2227 2211 2123 2207 2165 2272 2135 2201 2206 2163 2185 2227 2186 2123 2200 2178 2134 2171 2165 2236 2143 2175 2194 2200 2233 2149 2213 2251 2131 2089 2212 2158 2184 2235 2134 2169 2247 2171 2185 2273 2180 2222 2198 2202 2198 2120 2150 2210 2187 2273 2295 2154 2096 2179 2283 2133 2167 2240 2260 2186 2147 2164 2084 2204 2188 2199 2189 2177 2250 2172 2323 2171 2178 2189 2194 2238 2232 2195 2143 2237 2155 2204 2097 2181 2231 2229 2200 2260 2191 2189 2216 2221 2155 2220 2236 2185 2209 2088 2209 2230 2137 2169 2225 2224 2202 2221 2244 2168 2189 2251 2258 2158 2098 2193 2176 2165 2088 2195 2084 2204 2176 2230 2217 2279 2195 2175 2173 2135 2185 2147 2152 2236 2192 2210 2162 2205 2158 2230 2227 2174 2219 2116 2186 2175 2139 2177 2128 2234 2180 2191 2198 2149 2221 2186 2190 2199 2176 2223 2171 2224 2289 2255 2270 2178 2159 2133 2206 2204 2193 2211 2189 2219 2154 2221 2136 2114 2182 2200 2224 2181 2145 2147 2151 2144 2305 2231 2186 2103 2214 2168 2156 2221 2184 2278 2219 2174 2242 2117 2119 2187 2182 2218 2180 2155 2156 2291 2145 2210 2231 2187 2220 2164 2186 2176 2153 2220 2215 2211 2161 2194 2174 2233 2169 2157 2157 2253 2240 2219 2253 2086 2225 2193 2186 2124 2245 2176 2179 2221 2123 2197 2213 2119 2189 2235 2179 2143 2162 2105 2253 2098 2183 2210 2218 2196 2153 2217 2204 2174 2166 2205 2204 2191 2197 2174 2280 2252 2231 2157 2167 2231 2147 2156 2274 2248 2168 2163 2178 2149 2210 2243 2194 2143 2205 2291 2173 2251 2229 2156 2155 2223 2167 2210 2285 2174 2312 2270 2315 2232 2253 2230 2293 2316 2256 2345 2379 2303 2272 2277 2350 2323 2229 2286 2319 2277 2314 2267 2286 2250 2331 2189 2303 2293 2242 2257 2208 2193 2180 2200 2248 2261 2230 2174 2291 2266 2268 2205 2173 2108 2256 2306 2238 2144 2234 2199 2228 2246 2290 2250 2230 2204 2199 2220 2199 2162 2169 2249 2173 2293 2288 2199 2270 2349 2211 2312 2225 2297 2207 2187 2284 2210 2281 2160 2167 2250 2232 2238 2221 2258 2226 2178 2165 2224 2171 2125 2210 2087 2267 2134 2234 2244 2233 2193 2206 2252 2248 2196 2248 2221 2203 2178 2182 2166 2173 2177 2102 2158 2236 2255 2094 2203 2190 2225 2160 2142 2158 2152 2242 2182 2123 2151 2280 2227 2213 2190 2205 2143 2080 2206 2139 2217 2186 2209 2195 2206 2173 2188 2278 2183 2196 2182 2169 2144 2212 2188 2255 2281 2212 2227 2194 2280 2174 2172 2250 2271 2163 2163 2110 2281 2177 2234 2086 2141 2174 2120 2179 2176 2243 2274 2208 2185 2282 2231 2185 2208 2177 2233 2184 2177 2130 2172 2184 2212 2262 2272 2265 2211 2185 2200 2230 2170 2221 2168 2133 2151 2232 2262 2122 2200 2154 2166 2221 2142 2231 2187 2137 2179 2154 2224 2223 2120 2174 2215 2242 2287 2128 2178 2121 2107 2251 2201 2163 2209 2183 2195 2119 2112 2306 2199 2180 2243 2198 2215 2221 2145 2219 2256 2247 2164 2103 2205 2201 2180 2100 2198 2267 2171 2210 2216 2254 2158 2216 2218 2241 2248 2198 2189 2155 2287 2193 2225 2231 2194 2254 2100 2225 2137 2215 2154 2216 2150 2209 2215 2202 2212 2214 2326 2186 2221 2253 2312 2250 2315 2276 2272 2240 2165 2305 2268 2335 2295 2263 2285 2362 2274 2359 2446 2324 2390 2429 2367 2401 2447 2488 2459 2514 2452 2527 2564 2492 2494 2615 2509 2538 2506 2555 2568 2523 2487 2446 2525 2504 2549 2523 2510 2507 2481 2641 2507 2477 2453 2498 2532 2459 2474 2431 2412 2411 2428 2455 2382 2362 2425 2421 2322 2384 2432 2362 2407 2277 2291 2412 2355 2301 2362 2414 2333 2406 2479 2463 2430 2515 2431 2445 2460 2445 2593 2564 2506 2524 2457 2472 2617 2525 2553 2524 2569 2479 2395 2344 2348 2380 2423 2381 2321 2344 2377 2430 2375 2431 2382 2350 2315 2302 2386 2369 2326 2271 2312 2237 2255 2203 2265 2341 2261 2235 2252 2228 2183 2246 2166 2183 2257 2265 2198 2292 2181 2219 2198 2275 2186 2163 2244 2151 2095 2160 2242 2340 2241 2237 2188 2235 2178 2198 2252 2171 2244 2212 2249 2100 2182 2205 2226 2217 2225 2221 2197 2245 2242 2253 2201 2230 2282 2193 2191 2267 2188 2272 2241 2124 2111 2224 2222 2195 2134 2162 2232 2281 2202 2268 2197 2157 2110 2126 2176 2197 2214 2135 2122 2167 2246 2205 2117 2103 2217 2243 2149 2222 2225 2284 2129 2174 2250 2170 2159 2214 2206 2212 2105 2230 2182 2184 2175 2223 2196 2183 2192 2182 2161 2083 2266 2289 2199 2207 2207 2138 2159 2249 2187 2172 2247 2171 2184 2183 2147 2186 2166 2198 2202 2181 2180 2163 2284 2154 2190 2212 2171 2209 2233 2207 2202 2202 2166 2164 2149 2124 2170 2193 2189 2123 2232 2223 2218 2139 2189 2168 2196 2239 2220 2301 2137 2196 2136 2210 2201 2255 2252 2188 2179 2166 2199 2158 2182 2130 2234 2189 2223 2169 2158 2179 2273 2244 2209 2207 2143 2164 2165 2264 2257 2190 2119 2147 2164 2178 2122 2181 2167 2188 2160 2208 2099 2120 2177 2207 2186 2200 2223 2122 2190 2159 2164 2159 2117 2236 2163 2229 2191 2149 2108 2161 2215 2089 2166 2139 2175 2180 2152 2073 2133 2183 2150 2203 2197 2133 2206 2172 2161 2189 2284 2226 2126 2181 2227 2213 2239 2210 2230 2124 2244 2208 2107 2197 2192 2244 2163 2165 2116 2203 2224 2220 2260 2159 2204 2215 2135 2202 2112 2197 2157 2224 2192 2230 2174 2102 2140 2146 2185 2201 2238 2173 2211 2245 2165 2185 2105 2223 2201 2149 2212 2171 2178 2288 2241 2251 2034 2205 2151 2201 2127 2193 2159 2147 2176 2218 2108 2131 2160 2147 2187 2126 2257 2203 2214 2208 2191 2200 2163 2117 2098 2229 2203 2181 2145 2132 2179 2171 2209 2204 2194 2210 2171 2152 2182 2235 2173 2107 2172 2112 2139 2158 2106 2129 2185 2159 2061 2219 2132 2191 2160 2155 2187 2108 2155 2186 2152 2239 2250 2131 2215 2136 2113 2094 2154 2249 2161 2139 2157 2155 2123 2182 2193 2121 2163 2222 2227 2117 2166 2160 2135 2138 2219 2223 2228 2248 2130 2149 2116 2149 2205 2106 2136 2279 2157 2148 2192 2104 2126 2220 2253 2167 2152 2267 2191 2151 2126 2200 2249 2210 2114 2179 2120 2153 2159 2144 2189 2159 2159 2091 2296 2240 2265 2285 2098 2192 2177 2196 2202 2169 2191 2187 2102 2121 2271 2198 2157 2279 2138 2212 2201 2198 2194 2171 2165 2232 2229 2177 2173 2104 2186 2160 2105 2183 2166 2206 2228 2180 2110 2148 2201 2191 2263 2244 2150 2119 2208 2143 2082 2205 2170 2228 2194 2193 2220 2226 2245 2241 2258 2149 2154 2230 2180 2220 2194 2163 2213 2181 2321 2191 2074 2221 2194 2196 2208 2133 2251 2155 2221 2161 2267 2173 2137 2161 2154 2189 2180 2242 2171 2176 2201 2166 2199 2119 2179 2148 2252 2185 2148 2205 2188 2215 2169 2207 2148 2186 2198 2176 2268 2159 2191 2181 2165 2219 2147 2169 2099 2188 2141 2204 2165 2105 2246 2212 2218 2282 2249 2142 2284 2176 2219 2229 2283 2174 2241 2170 2161 2195 2215 2232 2159 2277 2288 2234 2187 2294 2209 2171 2250 2243 2308 2232 2331 2234 2318 2206 2116 2257 2267 2307 2168 2222 2300 2253 2235 2238 2203 2298 2209 2237 2181 2196 2241 2282 2232 2147 2271 2189 2210 2181 2138 2251 2297 2232 2264 2217 2280 2212 2231 2266 2237 2262 2110 2208 2143 2302 2264 2286 2184 2330 2300 2229 2216 2337 2213 2273 2285 2243 2219 2251 2337 2304 2248 2315 2255 2308 2171 2307 2331 2300 2252 2282 2247 2339 2321 2219 2241 2231 2271 2264 2230 2259 2249 2260 2239 2263 2254 2204 2222 2279 2280 2153 2260 2238 2234 2112 2290 2273 2267 2257 2165 2247 2281 2298 2184 2204 2210 2251 2259 2261 2191 2254 2198 2210 2184 2250 2241 2317 2201 2256 2276 2257 2332 2266 2339 2230 2318 2321 2347 2368 2357 2295 2214 2250 2248 2216 2270 2115 2286 2260 2259 2329 2208 2238 2173 2177 2284 2278 2315 2247 2311 2261 2289 2254 2217 2339 2233 2251 2311 2264 2158 2236 2179 2193 2169 2186 2240 2227 2255 2251 2170 2232 2217 2246 2230 2140 2269 2172 2126 2286 2231 2204 2224 2193 2186 2208 2238 2225 2174 2185 2255 2179 2199 2146 2231 2140 2269 2223 2201 2219 2262 2241 2143 2230 2165 2171 2335 2180 2287 2171 2285 2199 2215 2239 2193 2259 2254 2208 2253 2115 2132 2219 2254 2193 2191 2349 2230 2176 2227 2229 2204 2215 2273 2164 2233 2210 2178 2147 2152 2145 2294 2206 2203 2244 2220 2244 2327 2195 2181 2234 2199 2285 2240 2202 2170 2189 2216 2192 2239 2280 2285 2227 2251 2179 2220 2231 2346 2330 2272 2191 2291 2266 2314 2295 2355 2385 2372 2380 2461 2403 2400 2523 2551 2472 2565 2696 2613 2803 2738 2745 2817 2829 2776 2763 2771 2719 2679 2777 2726 2598 2630 2764 2628 2678 2541 2570 2699 2709 2746 2815 2712 2803 2736 2718 2608 2564 2675 2648 2567 2599 2649 2519 2629 2506 2508 2468 2516 2584 2434 2480 2503 2452 2466 2452 2458 2487 2389 2421 2362 2457 2441 2373 2484 2402 2416 2333 2443 2323 2416 2404 2385 2429 2399 2324 2446 2498 2522 2555 2358 2474 2496 2624 2519 2526 2642 2515 2570 2607 2613 2575 2528 2505 2466 2611 2489 2450 2453 2551 2443 2378 2317 2508 2439 2505 2358 2437 2325 2485 2322 2479 2390 2490 2409 2345 2382 2429 2297 2343 2359 2403 2275 2295 2331 2253 2263 2293 2265 2275 2328 2304 2262 2320 2280 2253 2367 2234 2199 2240 2352 2203 2344 2249 2217 2245 2227 2218 2229 2192 2185 2249 2318 2302 2263 2203 2144 2248 2273 2203 2276 2226 2241 2231 2200 2239 2143 2151 2200 2256 2251 2285 2242 2312 2282 2243 2150 2240 2256 2260 2296 2314 2213 2303 2320 2206 2220 2295 2329 2285 2333 2279 2356 2251 2287 2316 2259 2325 2284 2332 2342 2305 2268 2372 2315 2310 2339 2284 2389 2206 2292 2318 2341 2338 2354 2372 2343 2304 2379 2304 2274 2283 2325 2297 2290 2297 2410 2287 2314 2384 2320 2251 2297 2249 2217 2293 2224 2241 2327 2270 2234 2212 2277 2275 2256 2315 2281 2292 2278 2256 2330 2361 2348 2202 2289 2242 2293 2214 2267 2172 2344 2296 2260 2249 2246 2211 2287 2393 2190 2190 2257 2273 2281 2217 2216 2248 2155 2273 2135 2268 2214 2250 2184 2298 2268 2347 2240 2203 2209 2299 2250 2250 2315 2284 2204 2225 2161 2250 2198 2216 2241 2195 2284 2203 2197 2210 2212 2167 2182 2216 2243 2246 2192 2206 2172 2199 2144 2236 2270 2163 2179 2176 2145 2182 2127 2203 2254 2230 2154 2204 2192 2266 2189 2240 2156 2258 2198 2139 2233 2283 2279 2226 2244 2227 2175 2248 2154 2223 2234 2302 2263 2295 2141 2206 2138 2165 2206 2164 2298 2239 2276 2192 2193 2156 2188 2195 2104 2222 2187 2215 2243 2169 2268 2165 2268 2138 2139 2286 2177 2186 2296 2136 2185 2137 2154 2175 2251 2188 2202 2228 2224 2181 2167 2219 2168 2130 2183 2145 2228 2213 2191 2178 2258 2163 2153 2173 2146 2278 2257 2233 2166 2163 2192 2133 2229 2210 2121 2144 2167 2202 2191 2147 2196 2170 2142 2147 2180 2186 2209 2241 2136 2219 2185 2273 2248 2219 2173 2181 2127 2201 2244 2192 2198 2189 2163 2133 2134 2211 2204 2133 2212 2131 2263 2185 2160 2173 2179 2166 2079 2154 2128 2212 2164 2201 2076 2185 2216 2118 2193 2248 2130 2246 2147 2138 2134 2187 2231 2185 2229 2174 2218 2183 2292 2181 2231 2125 2216 2094 2170 2258 2210 2162 2243 2257 2116 2205 2234 2163 2302 2174 2209 2202 2150 2224 2154 2232 2148 2172 2202 2197 2226 2164 2035 2223 2190 2095 2206 2173 2270 2196 2242 2203 2202 2156 2331 2171 2210 2151 2149 2266 2121 2128 2202 2172 2198 2216 2153 2122 2102 2159 2183 2162 2132 2126 2082 2192 2194 2227 2154 2230 2125 2163 2198 2223 2237 2223 2155 2195 2238 2236 2172 2221 2192 2186 2216 2162 2206 2199 2145 2107 2149 2256 2211 2270 2161 2179 2248 2163 2156 2285 2096 2212 2186 2156 2226 2257 2100 2167 2107 2239 2209 2248 2243 2221 2164 2171 2194 2240 2139 2173 2177 2167 2188 2129 2130 2181 2206 2190 2197 2220 2152 2271 2154 2174 2276 2220 2174 2183 2175 2164 2204 2257 2240 2088 2181 2262 2242 2236 2209 2218 2233 2191 2273 2221 2224 2193 2259 2195 2209 2185 2161 2275 2244 2121 2282 2286 2197 2351 2233 2338 2354 2298 2317 2310 2182 2205 2226 2259 2284 2234 2195 2255 2250 2198 2244 2348 2293 2215 2251 2209 2202 2241 2253 2237 2205 2292 2351 2308 2336 2222 2270 2220 2264 2295 2132 2228 2164 2194 2215 2184 2214 2150 2184 2123 2192 2218 2230 2244 2269 2255 2165 2240 2209 2287 2150 2208 2127 2206 2291 2217 2184 2129 2226 2247 2225 2189 2191 2291 2221 2294 2150 2162 2226 2172 2209 2147 2286 2193 2250 2222 2159 2190 2177 2203 2229 2246 2176 2237 2201 2368 2227 2205 2331 2177 2191 2273 2213 2242 2243 2167 2181 2317 2201 2152 2226 2201 2239 2271 2268 2178 2181 2174 2146 2228 2224 2203 2223 2241 2148 2175 2141 2213 2286 2169 2286 2178 2222 2154 2211 2164 2264 2156 2246 2241 2160 2329 2276 2142 2206 2197 2209 2132 2217 2185 2181 2155 2168 2243 2301 2201 2241 2225 2209 2123 2213 2183 2124 2163 2221 2114 2222 2172 2212 2192 2217 2266 2180 2254 2118 2206 2174 2191 2151 2168 2183 2155 2207 2149 2262 2264 2137 2116 2230 2240 2285 2151 2233 2224 2194 2192 2209 2196 2176 2207 2218 2189 2095 2189 2281 2202 2225 2188 2286 2222 2179 2188 2231 2165 2277 2161 2272 2243 2183 2159 2192 2218 2148 2221 2212 2233 2262 2259 2245 2275 2172 2180 2197 2238 2157 2255 2190 2202 2210 2280 2333 2229 2227 2205 2232 2142 2253 2200 2273 2148 2284 2161 2217 2200 2253 2167 2136 2174 2248 2229 2221 2186 2145 2220 2190 2244 2241 2258 2199 2281 2317 2221 2249 2307 2197 2302 2282 2246 2270 2368 2314 2255 2310 2333 2250 2327 2323 2383 2414 2333 2353 2370 2450 2422 2610 2464 2503 2522 2576 2375 2533 2564 2588 2390 2554 2504 2460 2529 2472 2391 2534 2456 2494 2450 2574 2418 2488 2416 2458 2527 2477 2511 2519 2468 2461 2465 2415 2610 2400 2483 2501 2430 2382 2447 2402 2481 2321 2369 2360 2409 2487 2410 2407 2332 2359 2344 2303 2419 2367 2300 2281 2335 2414 2409 2309 2137 2259 2327 2384 2338 2402 2386 2309 2303 2339 2297 2270 2194 2206 2354 2363 2230 2279 2281 2255 2283 2286 2275 2259 2351 2413 2439 2422 2254 2345 2405 2404 2401 2361 2395 2442 2437 2494 2430 2433 2452 2321 2289 2299 2226 2406 2298 2301 2344 2401 2245 2308 2312 2341 2360 2265 2302 2309 2387 2265 2291 2284 2334 2261 2286 2302 2344 2325 2307 2296 2240 2214 2231 2259 2247 2176 2214 2336 2184 2260 2310 2178 2232 2259 2238 2289 2187 2223 2249 2163 2240 2269 2165 2135 2190 2194 2271 2222 2213 2219 2208 2264 2279 2275 2194 2312 2184 2227 2158 2175 2181 2172 2137 2235 2198 2215 2306 2281 2297 2197 2238 2167 2289 2213 2171 2224 2243 2244 2255 2327 2215 2157 2234 2180 2268 2305 2293 2219 2239 2230 2279 2215 2160 2223 2239 2210 2202 2237 2231 2286 2321 2229 2223 2216 2290 2263 2221 2221 2250 2181 2194 2267 2297 2294 2265 2205 2304 2160 2294 2280 2193 2314 2264 2281 2260 2234 2235 2296 2217 2261 2169 2238 2272 2228 2313 2258 2260 2154 2243 2259 2227 2308 2188 2215 2314 2242 2221 2188 2272 2196 2221 2288 2233 2263 2186 2048 2231 2169 2159 2200 2178 2169 2198 2292 2257 2283 2162 2246 2335 2245 2265 2152 2226 2169 2190 2270 2142 2168 2096 2198 2260 2154 2168 2227 2201 2159 2172 2245 2234 2188 2167 2215 2128 2167 2138 2334 2277 2233 2265 2186 2214 2200 2217 2238 2215 2193 2193 2158 2208 2173 2162 2178 2271 2202 2156 2136 2149 2202 2262 2236 2178 2212 2198 2204 2138 2220 2232 2157 2289 2198 2179 2186 2187 2154 2190 2216 2181 2266 2142 2129 2117 2206 2165 2143 2029 2188 2126 2222 2145 2210 2201 2244 2259 2078 2242 2194 2056 2145 2188 2127 2166 2225 2163 2187 2152 2179 2161 2185 2127 2111 2188 2110 2172 2178 2202 2204 2325 2161 2243 2186 2164 2207 2253 2215 2168 2144 2104 2272 2146 2249 2157 2170 2203 2196 2178 2269 2152 2261 2188 2190 2173 2249 2243 2272 2233 2259 2150 2217 2229 2201 2086 2276 2189 2223 2165 2195 2139 2193 2221 2231 2141 2230 2179 2197 2157 2186 2211 2250 2143 2158 2202 2195 2214 2300 2247 2168 2212 2222 2171 2224 2252 2095 2288 2147 2204 2101 2167 2223 2097 2146 2172 2167 2225 2240 2201 2217 2191 2145 2175 2137 2162 2148 2247 2200 2184 2109 2227 2162 2220 2204 2151 2179 2148 2255 2163 2189 2164 2173 2184 2227 2150 2192 2143 2169 2285 2121 2272 2293 2240 2218 2194 2181 2114 2173 2195 2222 2201 2185 2216 2239 2177 2187 2175 2133 2147 2176 2207 2179 2171 2197 2200 2237 2134 2144 2166 2198 2178 2151 2282 2199 2184 2219 2270 2300 2156 2232 2175 2201 2150 2196 2172 2232 2123 2203 2282 2199 2176 2212 2126 2348 2205 2132 2141 2220 2176 2245 2140 2272 2218 2281 2215 2092 2268 2201 2098 2140 2117 2130 2194 2173 2208 2296 2185 2195 2163 2190 2272 2246 2303 2151 2229 2262 2208 2141 2226 2167 2214 2288 2160 2298 2161 2142 2195 2235 2210 2299 2191 2189 2170 2145 2215 2198 2167 2108 2191 2205 2204 2195 2153 2171 2115 2183 2136 2178 2238 2137 2248 2205 2151</counts>
			</dataPoints>
		</scan>
	</xrdMeasurement>
</xrdMeasurements>
