<?xml version="1.0"?>
<xrdMeasurements xmlns="http://www.xrdml.com/XRDMeasurement/2.3" xmlns:xsi="http://www.w3.org/2001/XMLSchema-instance" xsi:schemaLocation="http://www.xrdml.com/XRDMeasurement/2.3 http://www.xrdml.com/XRDMeasurement/2.3/XRDMeasurement.xsd" status="Completed" recordIdentifier="{DD5BA1C7-17E7-4873-8A85-AE906C5BD414}">
	<comment>
		<entry/>
	</comment>
	<sample type="To be analyzed">
		<id>GPSS_Li1p4Fe0p8Ta0p2Cl4_081825_68a344c6445190bb35c0d826</id>
		<name></name>
		<preparedBy></preparedBy>
	</sample>
	<xrdMeasurement measurementType="Scan" status="Completed" sampleMode="Reflection">
		<usedWavelength intended="K-Alpha 1">
			<kAlpha1 unit="Angstrom">1.5405980</kAlpha1>
			<kAlpha2 unit="Angstrom">1.5444260</kAlpha2>
			<kBeta unit="Angstrom">1.3922500</kBeta>
			<ratioKAlpha2KAlpha1>0.5000</ratioKAlpha2KAlpha1>
		</usedWavelength>
		<incidentBeamPath>
			<radius unit="mm">145.00</radius>
			<xRayTube id="1010048" name="Empyrean Cu LFF HR (9430 033 7310x)">
				<tension unit="kV">40.0</tension>
				<current unit="mA">15.0</current>
				<anodeMaterial>Cu</anodeMaterial>
				<focus type="Line">
					<length unit="mm">12.0</length>
					<width unit="mm">0.4</width>
					<takeOffAngle unit="deg">6.0</takeOffAngle>
				</focus>
			</xRayTube>
			<sollerSlit id="21010002" name="Soller slits 0.04 rad.">
				<opening unit="rad">0.0400</opening>
			</sollerSlit>
			<mask id="22031000" name="Fixed mask 13 mm">
				<width unit="mm">9.00</width>
			</mask>
			<divergenceSlit id="22120001" name="Divergence slit 1°" xsi:type="fixedDivergenceSlitType">
				<distanceToSample unit="mm">50.00</distanceToSample>
				<height unit="mm">1.52</height>
			</divergenceSlit>
		</incidentBeamPath>
		<sampleMovement xsi:type="spinningSampleMovementType">
			<spinnerRevolutionTime unit="seconds">1.0</spinnerRevolutionTime>
		</sampleMovement>
		<diffractedBeamPath>
			<radius unit="mm">145.00</radius>
			<antiScatterSlit id="22090040" name="AS slit 9 mm (PIXcel)" xsi:type="fixedAntiScatterSlitType">
				<height unit="mm">9.00</height>
			</antiScatterSlit>
			<sollerSlit id="21020003" name="Large Soller slits 0.04 rad.">
				<opening unit="rad">0.0400</opening>
			</sollerSlit>
			<filter id="20030001" name="Large beta-filter Nickel">
				<material>Ni</material>
				<thickness unit="mm">0.020</thickness>
			</filter>
			<detector id="7010019" name="PIXcel1D-Medipix3 detector" xsi:type="rtmsDetectorType">
				<phd unit="keV">
					<lowerLevel>4.02</lowerLevel>
					<upperLevel>11.27</upperLevel>
				</phd>
				<mode>Scanning</mode>
				<activeLength unit="deg">5.542</activeLength>
			</detector>
		</diffractedBeamPath>
		<scan appendNumber="0" mode="Continuous" scanAxis="Gonio" status="Completed">
			<header>
				<startTimeStamp>2025-09-23T12:03:24-07:00</startTimeStamp>
				<endTimeStamp>2025-09-23T12:11:31-07:00</endTimeStamp>
				<author>
					<name>AutomatedUser</name>
				</author>
				<source>
					<applicationSoftware version="1.7b (136)">PANalytical Aeris Instrument Suite</applicationSoftware>
					<instrumentControlSoftware version="3.2.00000000 20240306">AERIS</instrumentControlSoftware>
					<instrumentID>950485</instrumentID>
				</source>
			</header>
			<dataPoints>
				<positions axis="2Theta" unit="deg">
					<startPosition>10.00943322</startPosition>
					<endPosition>99.99442286</endPosition>
				</positions>
				<positions axis="Omega" unit="deg">
					<startPosition>5.00471661</startPosition>
					<endPosition>49.99721143</endPosition>
				</positions>
				<commonCountingTime unit="seconds">12.495</commonCountingTime>
				<counts unit="counts">3119 3199 3159 3263 3126 3228 3254 3274 3197 3209 3035 3201 3211 3269 3256 3299 3176 3299 3292 3273 3182 3113 3186 3203 3193 3177 3212 3248 3230 3235 3295 3220 3064 3180 3264 3298 3239 3218 3260 3290 3217 3262 3209 3208 3149 3337 3250 3261 3304 3248 3278 3247 3214 3236 3214 3203 3212 3317 3275 3304 3308 3227 3303 3193 3187 3300 3380 3300 3210 3362 3342 3347 3334 3302 3339 3403 3244 3304 3429 3442 3254 3193 3381 3280 3362 3312 3276 3283 3312 3313 3328 3443 3301 3423 3419 3387 3401 3479 3311 3460 3447 3354 3346 3392 3406 3440 3397 3506 3482 3446 3480 3446 3570 3463 3438 3535 3468 3635 3575 3542 3579 3545 3503 3504 3488 3620 3273 3354 3487 3385 3421 3475 3359 3437 3302 3489 3334 3416 3266 3339 3372 3319 3307 3307 3483 3286 3237 3294 3355 3351 3379 3554 3430 3328 3360 3413 3544 3284 3494 3426 3427 3296 3447 3383 3432 3407 3284 3399 3290 3479 3339 3394 3316 3346 3397 3391 3298 3388 3424 3423 3344 3340 3270 3402 3390 3362 3344 3385 3376 3468 3379 3335 3478 3346 3378 3331 3397 3355 3271 3366 3283 3495 3266 3349 3374 3432 3461 3442 3423 3357 3338 3409 3394 3426 3320 3365 3284 3397 3350 3323 3356 3342 3475 3355 3336 3364 3361 3279 3306 3355 3382 3365 3490 3290 3359 3416 3365 3399 3372 3511 3408 3284 3340 3380 3379 3266 3373 3331 3443 3401 3417 3283 3331 3414 3331 3374 3326 3364 3440 3359 3452 3404 3524 3350 3435 3305 3463 3461 3441 3415 3338 3439 3383 3438 3422 3498 3480 3305 3372 3482 3384 3362 3494 3403 3457 3328 3449 3463 3493 3415 3355 3388 3480 3405 3425 3369 3390 3381 3429 3468 3401 3525 3453 3511 3437 3522 3570 3502 3425 3474 3526 3454 3515 3498 3369 3545 3476 3530 3513 3496 3542 3562 3510 3622 3416 3495 3550 3546 3549 3482 3582 3589 3641 3534 3653 3515 3625 3672 3618 3578 3628 3581 3508 3698 3760 3614 3654 3658 3639 3608 3768 3792 3761 3639 3734 3801 3777 3816 3723 3638 3768 3843 3763 3768 3797 3741 3949 3825 3754 3809 3775 3755 3844 3866 3760 3876 3836 3847 3874 3815 3911 3963 3986 3958 3824 3865 3761 3887 3984 3877 3927 3939 3934 4031 3959 3839 3935 4020 3884 3974 3995 3996 3938 4015 4071 4010 3852 3967 4065 3897 3910 3861 3918 3958 4027 4037 4118 4101 4093 4090 4033 4024 4048 4142 4084 4051 4050 4072 4184 4221 4113 4139 4062 4309 4187 4250 4208 4344 4334 4283 4289 4295 4263 4374 4421 4385 4498 4473 4425 4467 4472 4561 4434 4611 4450 4669 4703 4675 4819 4814 4860 4805 4990 4925 4925 5105 5134 5055 5285 5300 5266 5127 5251 5206 5256 5222 5344 5291 5120 5199 5191 5409 5250 5212 5227 5358 5350 5439 5309 5398 5363 5410 5466 5513 5366 5566 5594 5427 5595 5619 5781 5600 5481 5437 5394 5409 5292 5210 4961 5021 4892 4822 4605 4709 4472 4475 4489 4454 4264 4140 4176 4034 3935 4117 4048 4082 4031 4022 3871 3945 3890 3935 3889 3917 3936 3790 4015 3950 3937 3795 3899 3797 3864 3835 3950 3886 3805 3829 3915 3847 3849 3832 3687 3806 3816 3722 3845 3769 3704 3662 3748 3683 3803 3728 3786 3665 3702 3693 3668 3667 3679 3703 3656 3570 3587 3581 3623 3678 3637 3673 3611 3630 3753 3697 3677 3766 3623 3593 3754 3662 3520 3513 3710 3689 3544 3671 3561 3571 3638 3585 3561 3649 3576 3655 3560 3608 3613 3563 3544 3495 3600 3562 3532 3557 3534 3544 3659 3585 3583 3554 3538 3541 3518 3505 3545 3489 3516 3492 3604 3540 3608 3468 3560 3586 3593 3536 3508 3591 3534 3609 3553 3506 3524 3557 3597 3565 3493 3603 3623 3507 3641 3541 3544 3632 3514 3659 3548 3630 3542 3586 3526 3564 3568 3615 3610 3536 3552 3454 3618 3547 3520 3432 3511 3565 3601 3506 3505 3546 3477 3540 3610 3581 3574 3650 3626 3504 3697 3518 3556 3587 3550 3458 3555 3581 3587 3436 3539 3579 3574 3479 3474 3577 3510 3642 3502 3496 3486 3578 3548 3591 3538 3543 3549 3454 3407 3437 3474 3439 3442 3380 3463 3442 3292 3427 3484 3418 3586 3472 3466 3446 3530 3392 3395 3473 3513 3460 3468 3512 3475 3487 3459 3589 3458 3515 3485 3393 3422 3508 3402 3353 3494 3441 3422 3514 3518 3467 3551 3544 3449 3457 3465 3448 3495 3413 3472 3403 3385 3333 3407 3455 3447 3454 3508 3427 3389 3303 3368 3471 3410 3353 3391 3446 3609 3482 3328 3394 3447 3508 3552 3408 3456 3442 3379 3484 3530 3390 3388 3426 3435 3389 3400 3342 3414 3383 3391 3377 3458 3395 3455 3361 3390 3381 3520 3434 3346 3508 3402 3437 3388 3438 3441 3383 3347 3403 3477 3427 3473 3455 3319 3475 3424 3376 3381 3355 3385 3470 3425 3411 3423 3364 3423 3430 3421 3500 3372 3459 3384 3339 3417 3426 3383 3520 3462 3367 3259 3363 3342 3436 3322 3286 3371 3442 3307 3392 3268 3336 3355 3329 3331 3419 3368 3306 3353 3327 3387 3284 3361 3378 3483 3391 3379 3262 3253 3301 3331 3421 3339 3327 3320 3422 3281 3354 3345 3237 3374 3363 3346 3346 3316 3425 3300 3291 3327 3349 3418 3404 3237 3370 3323 3455 3313 3346 3228 3252 3369 3310 3263 3252 3380 3337 3397 3277 3237 3325 3297 3298 3258 3308 3295 3385 3188 3294 3342 3335 3263 3347 3297 3354 3341 3342 3165 3324 3204 3371 3364 3292 3307 3240 3376 3291 3240 3249 3242 3196 3352 3284 3328 3345 3349 3309 3259 3289 3294 3240 3346 3284 3321 3224 3307 3278 3381 3241 3413 3210 3290 3219 3172 3356 3303 3222 3274 3275 3310 3409 3232 3332 3292 3349 3437 3313 3394 3308 3306 3334 3242 3386 3196 3270 3317 3224 3292 3362 3245 3270 3294 3270 3333 3327 3260 3298 3322 3241 3294 3315 3410 3261 3242 3289 3297 3263 3276 3174 3348 3312 3217 3255 3266 3231 3278 3299 3357 3199 3394 3298 3343 3392 3346 3342 3392 3350 3191 3304 3226 3297 3312 3258 3373 3284 3396 3323 3228 3255 3333 3303 3358 3344 3256 3238 3350 3304 3303 3285 3327 3266 3241 3230 3191 3298 3299 3327 3318 3330 3279 3316 3364 3296 3334 3264 3348 3355 3335 3334 3251 3335 3329 3321 3391 3321 3301 3353 3437 3362 3406 3363 3263 3372 3262 3318 3270 3289 3329 3211 3336 3307 3256 3298 3377 3428 3273 3415 3312 3338 3273 3403 3309 3255 3298 3338 3392 3367 3279 3301 3298 3376 3293 3278 3301 3280 3316 3371 3265 3337 3321 3270 3140 3324 3265 3199 3325 3309 3264 3323 3203 3235 3218 3142 3312 3212 3251 3248 3242 3229 3238 3168 3194 3240 3160 3316 3135 3215 3146 3142 3225 3250 3300 3218 3182 3091 3131 3084 3152 3117 3281 3194 3140 3156 3299 3219 3051 3218 3196 3199 3203 3218 3118 3213 3126 3088 3059 3133 3197 3157 3135 3145 3156 3030 3163 3048 3174 3072 3118 3111 2979 3075 2974 3141 3061 3075 3043 2942 3049 3114 3080 3090 3066 2988 3018 2909 2959 2996 3021 3098 3081 2913 3081 2981 2952 3012 3124 3007 2928 2929 3011 3078 2988 2951 2962 2949 2927 2929 2875 2858 2953 2976 2985 3011 3051 3005 2952 3125 2902 2901 2915 2893 2965 3005 2955 2974 2863 2980 2920 2895 2959 2801 2833 2924 2848 2799 2925 2859 2898 2862 2900 2871 3015 2823 3001 2887 3011 2786 2879 2821 2929 2873 2922 2834 2960 2943 2777 2825 2871 2776 2820 2825 2931 2839 2876 2855 2886 2842 2881 2829 2965 2905 2868 2953 2785 2978 2804 2825 2929 2871 2878 2971 2910 2865 2907 2824 2913 2959 2866 2900 2896 2988 2862 2888 2926 2906 2914 2814 2854 2921 2952 2864 2769 2846 2924 2827 2885 2895 2905 2783 2809 2907 2852 2840 2916 2864 2947 2818 2875 2857 2874 2847 2840 2824 2917 2908 2817 2810 2880 2952 2905 2807 2870 2861 2740 2874 2804 2823 2857 2864 2784 2830 2956 2826 2721 2684 2761 2811 2781 2778 2899 2809 2779 2830 2790 2821 2780 2856 2750 2730 2882 2902 2769 2759 2697 2790 2784 2824 2729 2767 2815 2992 2822 2749 2771 2858 2827 2888 2746 2835 2858 2892 2688 2803 2890 2767 2946 2782 2782 2775 2762 2805 2766 2902 2836 2860 2722 2891 2829 2855 2849 2840 2860 2957 2828 2890 2851 2804 2790 2833 2779 2900 2796 2917 2876 2776 2856 2882 2734 2968 2880 2848 2830 2827 2856 2764 2836 2793 2765 2869 2771 2798 2721 2766 2835 2797 2753 2864 2847 2854 2867 2765 2777 2822 2792 2967 2806 2960 2817 2988 2777 2789 2827 2859 2943 2781 2777 2841 2783 2863 2897 2836 2873 2923 2900 2884 2750 2773 2775 2781 2898 2801 2802 2886 2742 2722 2742 2889 2783 2820 2821 2762 2764 2773 2881 2677 2915 2789 2892 2799 2793 2847 2864 2823 2724 2760 2870 2723 2895 2725 2645 2852 2803 2881 2797 2812 2808 2778 2714 2673 2808 2762 2737 2825 2704 2684 2699 2766 2741 2720 2805 2757 2786 2759 2688 2782 2801 2857 2755 2774 2711 2757 2697 2632 2750 2721 2696 2707 2602 2831 2682 2792 2730 2709 2780 2649 2646 2672 2568 2661 2696 2672 2683 2624 2783 2604 2665 2667 2562 2637 2637 2714 2631 2585 2630 2638 2741 2557 2581 2636 2682 2775 2674 2692 2675 2630 2637 2724 2603 2697 2629 2581 2699 2618 2601 2634 2575 2600 2543 2703 2660 2608 2635 2571 2736 2570 2657 2519 2595 2553 2585 2634 2567 2505 2596 2664 2557 2562 2475 2527 2573 2597 2616 2634 2511 2628 2571 2490 2548 2649 2572 2574 2590 2616 2603 2611 2582 2596 2499 2506 2479 2538 2601 2504 2504 2619 2530 2500 2484 2552 2565 2515 2556 2561 2564 2545 2455 2555 2474 2514 2516 2673 2624 2508 2470 2516 2596 2547 2497 2562 2552 2532 2535 2615 2569 2504 2541 2587 2644 2595 2526 2555 2507 2596 2619 2539 2615 2549 2680 2561 2673 2648 2560 2610 2728 2593 2642 2717 2638 2641 2704 2566 2620 2782 2619 2650 2755 2804 2719 2763 2783 2730 2788 2715 2774 2847 2758 2762 2845 2840 2826 2799 2708 2710 2797 2723 2755 2762 2720 2705 2714 2685 2734 2719 2696 2664 2618 2680 2620 2651 2723 2590 2660 2744 2622 2678 2731 2610 2649 2610 2709 2662 2627 2671 2574 2579 2616 2633 2641 2608 2594 2623 2517 2626 2627 2496 2522 2636 2510 2580 2497 2564 2619 2598 2569 2610 2601 2581 2586 2538 2546 2492 2644 2669 2453 2527 2541 2596 2561 2562 2614 2582 2560 2580 2558 2593 2599 2715 2704 2720 2728 2711 2761 2788 2682 2724 2840 2786 2809 2932 2885 2950 3048 3112 3124 2994 3216 3304 3253 3255 3344 3352 3280 3384 3413 3320 3307 3168 3260 3243 3227 3243 3181 3278 3212 3313 3320 3297 3324 3230 3277 3323 3284 3283 3337 3420 3191 3269 3426 3393 3349 3368 3257 3311 3338 3209 3229 3207 3133 3037 2961 2941 2918 2760 2792 2707 2777 2651 2674 2573 2574 2575 2484 2451 2505 2472 2381 2568 2442 2450 2436 2518 2394 2418 2513 2510 2417 2330 2377 2471 2468 2509 2481 2428 2430 2428 2388 2463 2413 2514 2373 2457 2349 2328 2433 2501 2394 2403 2410 2429 2305 2460 2569 2454 2326 2425 2417 2422 2363 2501 2433 2433 2382 2470 2405 2349 2391 2337 2365 2378 2379 2375 2403 2380 2380 2471 2385 2354 2325 2394 2424 2328 2384 2447 2361 2412 2427 2334 2461 2424 2444 2456 2421 2493 2460 2356 2442 2459 2391 2423 2433 2466 2432 2456 2415 2381 2408 2396 2445 2491 2349 2426 2418 2382 2397 2427 2357 2463 2459 2456 2444 2433 2474 2411 2359 2480 2416 2500 2414 2433 2448 2397 2414 2420 2466 2420 2382 2409 2557 2473 2491 2338 2399 2521 2428 2392 2430 2471 2463 2479 2477 2485 2469 2446 2444 2349 2500 2435 2457 2488 2436 2497 2411 2419 2440 2457 2441 2349 2397 2385 2473 2423 2389 2424 2434 2477 2385 2392 2442 2346 2410 2409 2386 2333 2519 2480 2462 2421 2444 2436 2440 2464 2447 2330 2451 2416 2380 2461 2510 2410 2463 2401 2477 2409 2378 2395 2432 2435 2377 2430 2456 2404 2382 2450 2395 2454 2492 2486 2422 2428 2428 2314 2425 2431 2418 2425 2520 2406 2504 2381 2478 2419 2454 2470 2462 2381 2429 2384 2390 2488 2360 2430 2417 2437 2375 2527 2501 2372 2439 2423 2378 2401 2356 2430 2461 2425 2439 2446 2399 2515 2380 2399 2438 2334 2412 2345 2427 2401 2482 2459 2437 2469 2359 2422 2382 2449 2292 2387 2397 2488 2350 2346 2458 2361 2359 2424 2379 2381 2416 2353 2489 2403 2421 2528 2452 2402 2373 2384 2368 2473 2401 2450 2352 2388 2487 2391 2474 2499 2442 2475 2470 2444 2401 2394 2343 2383 2440 2407 2356 2439 2355 2451 2457 2425 2414 2504 2466 2437 2337 2411 2329 2474 2458 2540 2421 2405 2359 2355 2436 2345 2407 2408 2516 2400 2444 2428 2353 2381 2467 2273 2391 2370 2393 2427 2430 2426 2517 2430 2447 2468 2601 2471 2489 2498 2518 2534 2466 2555 2632 2514 2531 2623 2706 2624 2668 2649 2835 2766 2858 2898 2991 2914 2964 3110 3095 3040 3303 3204 3160 3300 3350 3493 3541 3676 3852 3893 4039 4020 4248 4323 4260 4248 4214 4200 4193 4297 4166 4337 4191 4312 4253 4277 4247 4243 4218 4072 4241 4213 4061 4211 4086 4106 4198 4090 4088 4039 4070 4095 4224 3953 4135 4081 3976 4046 4022 3971 3811 3723 3765 3564 3542 3403 3418 3315 3212 3185 3119 2982 2895 2835 2823 2838 2660 2589 2563 2570 2629 2548 2594 2510 2512 2461 2410 2519 2548 2530 2469 2524 2407 2499 2486 2490 2301 2437 2428 2367 2405 2444 2426 2471 2380 2422 2442 2329 2378 2429 2466 2402 2343 2406 2423 2346 2388 2389 2313 2326 2334 2405 2275 2416 2310 2381 2354 2374 2384 2428 2311 2372 2305 2398 2386 2340 2386 2331 2393 2402 2296 2344 2384 2305 2314 2388 2292 2281 2285 2337 2282 2416 2409 2295 2296 2287 2348 2292 2400 2323 2347 2452 2364 2324 2241 2268 2350 2305 2301 2378 2231 2304 2299 2413 2267 2381 2296 2366 2319 2267 2298 2347 2273 2299 2303 2293 2389 2342 2286 2308 2265 2323 2239 2251 2280 2293 2259 2315 2298 2352 2236 2285 2335 2346 2309 2395 2341 2256 2252 2319 2266 2377 2275 2244 2257 2319 2245 2264 2310 2202 2303 2298 2293 2283 2244 2342 2237 2230 2253 2320 2236 2210 2290 2340 2264 2351 2235 2274 2290 2281 2218 2337 2212 2295 2303 2328 2297 2301 2256 2214 2212 2232 2276 2202 2225 2279 2260 2249 2267 2288 2275 2278 2192 2293 2163 2292 2106 2259 2204 2273 2302 2259 2299 2302 2242 2156 2256 2276 2232 2225 2278 2156 2200 2263 2303 2215 2150 2312 2327 2320 2250 2201 2201 2260 2185 2337 2199 2267 2163 2179 2148 2225 2261 2234 2241 2274 2252 2163 2267 2286 2294 2320 2160 2303 2176 2206 2242 2295 2294 2192 2203 2275 2207 2305 2260 2172 2227 2217 2223 2310 2201 2164 2217 2258 2193 2207 2237 2209 2247 2301 2121 2242 2286 2269 2211 2255 2205 2309 2257 2252 2212 2187 2117 2192 2290 2197 2242 2163 2178 2105 2238 2209 2123 2138 2224 2061 2105 2155 2137 2136 2084 2183 2224 2106 2155 2166 2189 2099 2150 2164 2134 2158 2240 2228 2169 2156 2116 2187 2163 2226 2165 2157 2118 2105 2104 2251 2209 2262 2136 2124 2173 2185 2147 2179 2128 2240 2190 2140 2178 2227 2193 2120 2156 2147 2166 2194 2143 2220 2194 2284 2104 2212 2151 2189 2209 2143 2200 2127 2143 2192 2133 2193 2144 2151 2091 2197 2066 2146 2119 2169 2141 2217 2169 2157 2157 2154 2083 2112 2154 2046 2088 2110 2181 2119 2071 2168 1994 2094 2135 2114 2148 2144 2142 2094 2116 2063 2009 2132 2193 2043 2072 2116 2078 2067 2094 2072 2040 1940 2129 2072 2155 2209 2122 2101 2159 2010 2079 2113 2018 2110 2002 2081 2055 2097 1993 2093 2026 2035 2050 2032 2085 2170 2007 2063 2059 2165 2089 2110 2120 2148 2052 2072 2017 2042 2073 2095 2101 2058 2057 2075 2092 2127 2036 2073 2047 2138 2086 2053 2094 2094 2091 2104 2082 1994 2084 2130 2017 2069 2102 1977 2050 2024 2078 1931 2099 2018 2056 2061 2048 2096 2088 2115 2110 2065 2076 1997 2050 1979 1984 2025 2039 2170 2012 2017 2065 2132 2101 1988 2105 2100 1981 2017 2074 2053 1997 2017 2033 2062 2085 2084 2002 2149 1992 2015 2070 1927 2025 2001 2033 2002 1996 2050 2053 2099 2053 2023 1948 1976 2007 2057 1984 2072 1995 2041 1975 2070 2001 2010 2067 2053 2050 1990 2127 2128 2072 2099 2081 2103 2022 1988 2029 2048 2100 1991 2038 2070 2067 2003 1991 2061 1999 2042 1968 2060 2010 2018 2040 2017 2045 1942 1964 2049 2027 2077 2006 2067 2010 2083 2047 2048 2016 2029 2069 2020 2006 2017 1984 1942 2033 1972 2078 2072 2024 2073 1992 1980 2021 2097 2063 2109 1960 1921 1933 1983 2083 2043 1942 2012 1959 2032 1991 1983 1993 2076 2000 1985 2066 1970 2113 2092 2087 2018 1965 2091 1978 1931 1892 2037 2050 2016 2057 1986 2101 1980 2058 1966 1997 2088 2011 2073 2087 2101 1975 2135 2055 1986 2107 1990 2010 1994 2054 2053 2019 1981 1975 2045 1946 1993 1975 1992 2076 2028 1995 1962 2004 2043 2009 2021 1995 2108 2017 2065 1994 2001 2082 1972 2052 2015 2035 2111 2076 2053 2032 1967 2013 1969 2045 2012 1969 1994 2041 1970 2100 2012 1937 2071 2025 2012 2041 2020 2001 2001 1982 2053 2044 1981 2167 2060 2155 2033 2094 1977 2088 2011 2095 2082 2020 2041 2103 2070 1994 2048 2110 2018 1987 2059 2101 1962 2038 2001 2101 1988 1995 2012 2020 2089 2017 2033 1991 2093 2058 2004 1970 2083 2054 1950 1969 2091 1911 1977 1938 2020 2040 2015 1953 2018 2019 2077 2078 1985 1991 1987 2047 2004 2070 1987 2015 1942 1975 2007 1990 2023 1925 2017 2065 2050 1999 1990 2059 1971 1986 1960 1990 2035 1962 1987 1972 2040 2073 1941 2012 1951 1973 1975 2001 2016 2022 2076 2128 1933 2009 1952 1962 1964 1973 1943 1963 2006 2025 1914 2031 2080 2089 2088 2052 2051 1991 1972 2066 2030 2002 1963 1970 2003 1990 2056 1986 1947 2045 1955 1989 2015 1965 1966 2040 2006 2029 2003 1943 2031 1994 1980 2057 2072 2013 2029 1981 2056 1970 2066 2030 2010 1988 2077 1999 1970 2071 1947 1919 1943 2016 1930 1974 2008 1996 2018 2061 2109 2034 1967 2038 2043 2007 2019 2002 1940 1986 1988 2015 1983 1980 1961 2030 2063 2036 2028 1991 1967 2040 1996 2031 1977 1959 1991 1993 2067 2037 2001 2063 2025 1927 2000 2024 2019 2063 2013 2020 2101 1986 1977 2068 2075 2011 2055 2050 2037 1946 2044 1977 2009 2026 2064 1973 2091 2041 2050 2032 2134 2053 2027 2083 2053 2022 2090 1993 2048 2116 2023 2061 2126 2114 2091 2062 2141 2108 2146 2090 2059 2033 2117 2175 2171 2147 2206 2141 2181 2156 2084 2179 2209 2105 2105 2120 2219 2172 2193 2132 2157 2129 2168 2142 2142 2151 2128 2081 2203 2126 2131 2120 2120 2129 2119 2196 2119 2078 2099 2069 1996 2076 2107 2119 2134 2064 2089 2073 2070 2083 2042 2034 1996 2009 1957 2024 2065 1944 2082 2074 2082 2003 2059 2061 2016 2086 2077 2084 2013 1968 2061 2033 2064 2061 2017 2012 1987 2003 1934 2013 2009 2055 2045 1988 1978 2148 2061 2103 2091 1924 2016 2059 2004 2025 2020 2063 1979 2121 2036 2119 1988 2093 2051 2109 2108 2106 2042 2095 2089 2068 2028 2096 1931 2054 1967 1986 2066 2014 2092 2066 2118 2114 2068 2021 2094 2162 2114 1985 2068 2101 2000 2043 2025 2165 2149 2062 2054 2153 2127 2150 2063 2042 2082 2059 2029 2062 1971 2094 2062 2021 2010 2069 2054 2085 2014 2089 1985 2117 1972 2000 2012 2074 2078 2057 2059 1999 2043 2078 2039 2063 2073 2104 2017 2006 2028 1985 2059 2009 2122 1990 2027 2085 2022 2089 2041 2072 2050 2126 2091 2142 2064 1990 2038 2107 2049 2136 2003 2108 1993 1998 2017 2084 2091 2042 2029 2104 2071 2106 1946 1954 2080 2017 2049 2084 2081 2060 2072 2132 2104 2080 2027 2062 1982 2031 2008 2000 2065 2071 2042 2051 2022 2051 2015 2101 2072 1966 2068 2169 2119 1962 2031 1967 2010 2040 2048 2049 2078 2039 2037 2033 1998 2046 2060 2063 2009 2166 2041 2117 2033 2061 2103 2038 2020 1971 2040 2133 2075 2185 2119 2092 2035 2123 2129 2066 2029 2016 2058 2050 2052 2080 2108 2126 2043 2056 2076 1976 2055 2046 1973 2192 2138 2076 2047 2105 1968 1999 1990 2009 1978 2029 1981 2163 2157 2065 2006 2068 2090 2042 2022 2050 2014 2082 2105 2079 2061 2041 2024 2065 2004 2044 2056 2032 1987 2061 2083 2087 1978 2109 2010 2045 2087 2077 2047 2030 2035 1983 2006 2073 2041 2040 2017 2087 2054 2062 2101 2117 2132 2075 2157 2150 1971 2134 2027 2084 2029 2035 2113 2097 2113 1997 2061 2120 2113 2091 2003 2045 2155 2200 2096 1987 2140 2165 2215 2209 2108 2200 2181 2244 2200 2242 2261 2244 2320 2321 2384 2330 2422 2391 2285 2399 2470 2428 2446 2462 2405 2542 2487 2479 2551 2613 2543 2635 2695 2750 2722 2764 2866 2852 2902 2889 2979 2951 2976 3006 2951 2901 3045 2935 3098 3047 3060 3082 3112 2927 2901 2974 2926 2894 2881 2865 2888 2918 2907 2893 2941 2895 2870 2856 2839 2800 2803 2857 2858 2782 2821 2801 2757 2812 2717 2789 2830 2724 2756 2675 2682 2852 2731 2737 2704 2714 2662 2790 2680 2645 2672 2707 2633 2705 2725 2703 2655 2672 2634 2777 2718 2736 2764 2806 2694 2782 2823 2811 2832 2917 2844 2841 2889 2835 2885 2759 2875 2836 2764 2748 2757 2775 2654 2814 2676 2688 2670 2619 2551 2467 2529 2415 2560 2450 2439 2420 2332 2301 2276 2268 2224 2209 2172 2130 2246 2170 2135 2236 2116 2103 2151 2203 2029 2057 2027 2053 2104 1997 2037 2109 2044 2055 2108 2007 2049 2011 2115 2007 1990 2028 2033 2066 2067 2089 2012 2033 2083 2022 2030 2064 2013 2082 1971 2043 1981 2069 1980 2022 1951 2071 2106 2050 2043 1960 1981 2048 1970 1982 2078 2040 2017 2000 2025 2066 2093 2070 2065 1981 2050 2038 2040 2078 2082 2024 2072 2064 2015 2070 1986 1991 1997 2072 1980 1980 1968 2047 1946 2014 1980 2071 2043 2060 2040 2023 1914 2066 2098 2061 1987 1984 2020 2063 2053 2000 2025 2022 2093 2106 2068 2066 2090 2114 1977 2072 2054 2180 2122 2111 2096 2147 2092 2036 2075 2090 2156 2058 2046 2066 2084 2074 2095 2174 2120 2167 2091 2108 2111 2151 2098 2185 2073 2142 2176 2089 2141 2050 2119 2086 2107 2140 2181 2080 2086 2086 2071 2150 2076 2021 2177 2102 2028 2125 2080 2083 2041 2085 2115 2073 2124 2095 2122 2137 2112 2175 2224 2152 2161 2180 2113 2156 2212 2260 2190 2276 2157 2348 2219 2222 2138 2332 2223 2215 2266 2253 2339 2227 2303 2259 2269 2339 2204 2275 2263 2333 2209 2320 2327 2226 2377 2374 2276 2347 2265 2374 2266 2179 2258 2198 2223 2251 2180 2217 2155 2145 2177 2149 2176 2176 2122 2116 2076 2121 2072 2034 2036 2119 2024 2062 2022 2056 1985 1997 1946 2044 2009 1991 2044 2008 1987 2117 1982 2022 2049 1980 1923 1978 1915 2008 2036 1962 2025 1978 1999 2057 2018 1980 2011 1969 1989 1968 1992 2055 2028 2013 1962 1976 1984 1968 1990 2039 1933 2042 2058 1983 1951 1957 1946 1903 2040 1879 1993 1993 2029 1968 2083 1932 1998 1972 1928 1953 1932 2071 2002 1957 2017 1994 1955 1946 1945 1912 1952 1927 1972 2039 1981 1932 2055 1909 2033 2003 1949 2048 1991 1947 2034 1970 1966 1966 1923 1872 1982 1973 2041 1906 2017 1958 1947 2001 1961 1956 1933 1940 1927 1840 1990 1935 1930 2011 2044 1921 1974 1903 1991 1948 1943 2089 2006 1948 1991 1914 1987 1995 1942 1959 1930 1944 1986 2038 2009 1984 1891 1959 1961 1995 1890 1994 2008 1954 1952 2001 1873 1952 1948 1971 1956 1983 1907 1914 1953 1993 1907 1964 1937 1924 1911 1919 1938 2066 1939 1963 1984 1926 2048 1978 1977 1932 2007 1921 1922 1952 1923 1971 1969 1928 1941 1976 1890 1927 1920 1983 1982 1985 2011 1903 1961 1954 1841 2019 1964 1971 1969 1891 2003 1989 2015 1952 1996 1967 1934 1934 1884 1974 1917 1966 2023 1927 1938 1950 1978 1931 1852 2025 1938 1972 1912 1972 2017 1882 1966 1999 1937 1968 1972 2032 2002 1946 2008 1958 1975 1938 2008 1935 1984 1944 1992 1982 2003 1963 1948 1924 1947 1924 2024 1988 1990 1951 2049 1936 1977 1914 1945 1935 2029 1905 1986 1965 1938 1959 1971 1925 1980 1935 1901 1903 1975 1886 2004 1981 1878 1978 1936 1932 1943 1887 2030 1944 1926 1930 1920 1805 1879 1909 1992 1979 1938 1949 1956 1903 1939 2014 2002 1867 1913 1900 1926 1989 1914 1886 1949 1939 1870 1864 1896 1938 1853 1930 1990 1975 1956 1821 2004 1880 1988 1995 1872 1875 1993 1954 2027 1904 1926 1903 1900 1898 1956 1914 1909 1898 1973 1856 1874 1959 2063 1829 1974 1955 1913 1839 1926 1957 1902 1945 1937 1917 1923 1946 1930 1898 1901 1885 1880 1846 1951 1860 2022 1927 1949 1962 1960 2069 1855 1816 1860 1868 1961 2010 1919 1933 1869 1987 1912 1942 1857 1951 1990 1946 1932 2003 1925 1883 1874 1842 1937 1947 1804 1900 1905 2004 1834 1888 1959 1849 1852 1963 1893 1900 1893 1942 1886 1923 1872 1859 1937 1893 1958 1906 1932 1962 1925 1913 1849 1937 1909 1971 1891 1897 1966 1904 1933 1897 1918 1933 1961 1968 1919 2046 1897 1865 1948 1892 1879 1960 1880 1953 2010 1823 2064 1895 1919 1951 1885 1932 1862 1860 1954 1967 2037 1918 1926 1905 1966 1949 1966 1900 1985 1971 1891 1910 1981 1982 1934 1983 1834 1950 1933 1902 1953 1972 1986 1928 2028 1910 2040 1910 2018 1919 1996 1903 1977 2040 1885 1941 1973 1972 1988 1935 1920 1962 1976 1906 1911 1951 1971 1965 1985 1987 1986 1950 2013 2031 2003 1876 2035 2048 1905 2069 2000 1969 2052 2035 2010 2088 2109 2066 1936 2100 2026 2064 2123 2028 2063 2123 2134 2085 2212 2226 2251 2203 2191 2271 2202 2233 2207 2217 2249 2211 2312 2310 2290 2203 2242 2277 2292 2283 2259 2242 2255 2235 2219 2377 2318 2343 2358 2261 2265 2269 2292 2309 2205 2264 2231 2312 2179 2152 2182 2200 2175 2201 2105 2101 1980 2072 2080 2128 2026 2043 2057 2047 2082 1990 1963 1963 2021 1960 1999 2029 1941 1969 1918 1936 1927 2027 1942 2025 1990 1923 1916 1997 1960 1815 1966 1927 1971 2013 2072 1984 1962 1966 1930 1877 1976 1946 1918 1971 1895 1931 1964 1931 1943 1904 1926 1897 1905 1905 1946 1882 1934 1938 1936 1963 1918 1952 1880 1984 1942 1893 1940 1955 1906 1927 1984 2011 1984 1901 1907 1923 1935 1948 1933 1926 1916 1975 1942 1871 1929 2010 1982 1956 1828 1969 1931 1918 1959 1952 1994 1928 1898 1959 1899 1999 1967 1953 1985 1919 1910 1910 1819 1966 1997 1985 1969 1980 1879 1991 1842 1908 1945 1878 1933 2008 1886 1896 1914 1920 1992 1864 1931 1919 1987 1902 2008 1896 1941 2005 1956 1888 1911 1857 1926 1946 2034 2050 1942 1928 1900 1907 1901 1924 1902 1900 1923 1981 1934 1969 1947 1979 1880 1917 1895 1872 1910 1927 1922 1937 1984 1981 1960 1890 1966 1965 1954 1996 1897 1980 1969 2036 1966 1979 1945 2010 1967 1951 1973 2019 2018 2012 1984 2057 2057 2003 2035 2036 1994 2037 2009 2049 2076 2022 2039 2046 2118 1936 2068 2097 2082 2099 2018 2055 2023 2067 2046 2103 2137 2101 1991 2212 2122 2105 2180 2156 2100 2105 2046 2235 2179 2191 2132 2088 2121 2223 2234 2200 2183 2206 2203 2126 2143 2199 2138 2200 2191 2178 2098 2119 2093 2050 2106 2148 2166 2177 2188 2095 2133 2154 2087 2177 2116 2111 2190 2108 2144 2086 2162 2054 2069 2144 2064 2124 2086 2006 2089 2033 2034 2085 1972 2061 2036 2075 2015 2001 1985 1957 1999 1961 2072 1977 1950 1976 2044 1956 2031 1928 1992 1976 1964 2025 1971 2038 1961 2002 1899 1925 1879 1853 1961 2024 1974 2011 1968 1937 2003 1929 1920 1961 2017 1966 1910 1972 2062 1991 1956 1988 1923 2004 2003 2036 2046 1959 2110 1952 2064 2026 2002 2033 1992 2064 1959 2018 2087 2055 2086 2024 1996 2002 2026 1972 2045 1978 2000 1985 1979 2070 1984 2038 2016 2082 2062 1964 1980 1962 1937 1953 2044 1938 1992 2115 1981 2042 2030 2061 2058 2121 1991 1980 2024 1977 1919 2030 1927 2052 1935 1923 2027 2037 1973 1943 1985 1976 2058 2002 1943 2000 1912 1972 1994 1988 2059 1942 1965 2088 2019 2006 1975 1932 1951 1959 1977 1938 1954 1973 1901 1970 2037 2004 1977 2022 1971 2029 1951 2035 1984 2014 1975 1974 1936 1976 1935 1941 1937 1964 1906 2021 1866 1957 1938 2017 1977 1975 1969 1936 1971 1878 1934 1974 1918 1988 1918 1941 1970 1988 1931 1907 1936 1942 1927 1885 1909 1900 1846 1910 1897 1913 1920 1925 1835 1926 1992 2029 1923 1917 1889 1918 1961 1913 1945 1929 1906 1946 1859 1904 1949 1921 1932 1952 1913 1848 1931 1884 1844 1864 1948 1943 1931 1924 1908 1960 1902 1921 1933 1924 1877 1838 1970 1942 1929 1855 1813 1860 1933 1821 1941 1955 1929 1953 1894 1794 1913 1886 1896 1946 1930 1896 1881 1950 1981 1897 1897 1856 1871 1860 1881 1867 1974 1999 1900 1913 1919 1881 1881 1894 1945 1836 1889 1920 1988 1841 1936 1945 1895 1868 1855 1865 1855 1891 1849 1903 1886 1838 1908 1890 2035 1884 1849 1888 1853 1863 1888 1862 1976 1886 1826 1794 1855 1944 1970 1939 1884 1808 1912 1858 1815 1894 1862 1866 1917 1847 1854 1840 1924 1920 1927 1822 1955 1949 1880 1833 1895 1903 1928 1793 1912 1805 1859 1927 1828 1897 1934 1867 1941 1891 1860 1925 1840 1936 1919 1812 1841 1894 1913 1840 1899 1834 1944 1898 1866 1872 1794 1862 1911 1891 1846 1825 1851 1903 1877 1890 1883 1838 1960 1846 1899 1833 1868 1922 1895 1878 1893 1802 1882 1858 1928 1784 1818 1798 1873 1888 1872 1859 1800 1753 1953 1900 1900 1857 1867 1911 1834 1795 1797 1811 1883 1772 1855 1887 1809 1873 1878 1874 1807 1882 1936 1841 1871 1967 1898 1802 1948 1856 1846 1911 1810 1910 1874 1770 1793 1854 1912 1874 1863 1836 1897 1802 1910 1861 1871 1933 1892 1841 1841 1875 1956 1819 1880 1866 1816 1961 1875 1807 1824 1824 1830 1892 1827 1859 1870 1901 1948 1879 1803 1841 1840 1858 1876 1776 1933 1861 1886 1871 1880 1840 1808 1911 1873 1907 1863 1878 1905 1904 1926 1891 1898 1837 1891 1799 1926 1850 1869 1832 1907 1863 1836 1875 1828 1917 1839 1924 1895 1889 1813 1817 1868 1878 1846 1850 1918 1935 1901 1920 1891 1843 1923 1860 1929 1939 1942 1881 1901 1810 1777 1850 1877 1853 1877 1840 1943 1882 1865 1854 1889 1917 1856 1873 1881 1872 1876 1931 1851 1890 1797 1876 1941 1791 1881 1940 1821 1870 1775 1850 1845 1892 1917 1839 1949 1809 1878 1904 1916 1895 1886 1895 1846 1870 1814 1832 1900 1829 1832 1798 1863 1899 1898 1813 1876 1922 1789 1875 1833 1899 1823 1871 1887 1827 1871 1824 1819 1888 1858 1867 1863 1832 1920 1800 1839 1837 1884 1795 1911 1788 1857 1877 1868 1789 1922 1802 1899 1865 1903 1866 1926 1820 1883 1859 1896 1894 1819 1865 1898 1867 1849 1817 1883 1953 1873 1995 1876 1940 1964 1898 1780 1872 1902 1870 1873 1892 1823 1921 1940 1901 1879 1879 1851 1973 1873 1933 1899 1926 1913 1832 1877 1977 1903 1835 1891 1983 1886 1917 1883 1866 1955 1906 1922 1864 1910 1869 1864 1909 1887 1929 1896 1860 1922 1886 1881 1871 1943 1884 1875 1833 1957 1931 1886 1887 1837 1885 1822 1901 1933 1926 1865 1883 1939 1861 1925 1938 1877 1841 1815 1885 1925 1846 1869 1822 1848 1858 1892 1887 1844 1900 1903 1910 1813 1820 1861 1799 1827 1844 1960 1839 1839 1852 1952 1934 1837 1957 1925 1727 1961 1883 1807 1873 1842 1926 1915 1892 1769 1811 1829 1862 1884 1778 1905 1876 1877 1840 1836 1884 1916 1807 1814 1907 1895 1855 1842 1817 1831 1825 1869 1919 1891 1867 1884 1842 1943 1845 1878 1895 1891 1935 1858 1845 1890 1884 1879 1889 1889 1901 1867 1871 1970 1892 1959 1904 1871 1902 1935 1868 1845 1947 1965 1931 1918 1907 1989 1894 1866 1930 1853 1843 1907 1891 1861 1862 1856 1888 1861 1862 1812 1853 1886 1920 1921 1892 1913 1808 1935 1822 1881 1900 1894 1884 1996 1867 1961 1854 1784 1845 1884 1878 1873 1896 1789 1896 1917 1850 1862 1860 1879 1952 1867 1912 1898 1894 1737 1875 1887 1931 1904 1826 1931 1801 1953 1877 1762 1797 1908 1814 1923 1882 1854 1857 1886 1944 1894 1813 1872 1819 1842 1939 1855 1811 1874 1841 1858 1814 1959 1841 1913 1909 1845 1849 1888 1786 1860 1914 1803 1845 1849 1838 1847 1925 1853 1932 1903 1819 1838 1858 1830 1962 1766 1927 1881 1932 1870 1854 1853 1813 1831 1798 1868 1864 1865 1972 1892 1850 1934 1895 1854 1898 1879 1793 1878 1903 1892 1900 1864 1868 1881 1890 1885 1931 1785 1854 1945 1898 1861 1802 1909 1917 1951 1904 1821 1826 1904 1837 1952 1988 1874 1882 1970 1878 1858 1912 1935 1892 1883 1915 1936 1882 1934 1966 1907 1937 1984 1977 1890 1944 1940 1911 1867 1909 1979 1924 1877 1919 1902 1989 1970 1978 1937 2015 1923 1902 1929 1992 1977 2024 1924 1927 1979 2029 2039 1879 1984 1938 1936 1959 2019 1969 1939 1893 1924 2021 2021 1967 1976 2082 1911 2001 2010 1968 1947 1921 1931 1968 1950 2006 1920 1853 1960 1970 1889 1921 1933 1932 1942 1939 1966 1923 1901 1898 1887 1901 1970 1868 1956 1890 1880 1932 1829 1874 1940 1930 1840 1850 1921 1918 1818 1841 1907 1881 1898 1861 1881 1883 1820 1863 1900 1879 1922 1867 1937 1941 1920 1903 1856 1843 1828 1916 1876 1830 1882 1827 1811 1861 1815 1868 1787 1920 1876 1897 1903 1888 1930 1880 1887 1815 1851 1876 1925 1914 1836 1868 1859 1776 1895 1918 1887 1834 1861 1852 1877 1860 1855 1887 1837 1827 1775 1786 1867 1900 1894 1773 1893 1824 1857 1880 1944 1827 1906 1859 1855 1859 1831 1867 1975 1764 1890 1867 1907 1869 1846 1843 1821 1853 1910 1857 1798 1881 1914 1864 1867 1873 1852 1875 1874 1920 1941 1939 1944 1818 1840 1813 1835 1884 1876 1874 1789 1815 1784 1945 1865 1896 1898 1850 1900 1833 1891 1831 1910 1853 1862 1925 1771 1868 1846 1855 1825 1855 1785 1801 1867 1837 1891 1867 1794 1894 1857 1894 1890 1903 1848 1828 1804 1907 1836 1866 1887 1856 1890 1868 1850 1779 1908 1861 1915 1874 1806 1916 1798 1839 1803 1939 1821 1939 1896 1777 1862 1868 1898 1849 1834 1817 1873 1876 1839 1855 1910 1818 1869 1815 1862 1808 1739 1874 1910 1876 1782 1813 1860 1876 1903 1888 1866 1863 1871 1875 1824 1865 1818 1772 1858 1890 1841 1854 1826 1881 1851 1870 1894 1915 1841 1816 1812 1964 1778 1842 1800 1856 1805 1804 1909 1829 1839 1848 1838 1840 1858 1895 1828 1883 1778 1756 1885 1807 1867 1862 1921 1845 1841 1844 1860 1940 1879 1823 1942 1873 1859 1845 1879 1853 1875 1809 1847 1819 1784 1861 1778 1859 1880 1864 1870 1864 1775 1833 1861 1834 1847 1883 1819 1762 1789 1865 1875 1790 1845 1821 1854 1871 1836 1834 1899 1873 1842 1849 1895 1916 1864 1836 1872 1864 1818 1866 1890 1871 1835 1840 1791 1821 1831 1875 1841 1817 1853 1849 1839 1854 1854 1830 1899 1841 1884 1870 1875 1838 1871 1859 1869 1834 1827 1909 1792 1823 1835 1852 1886 1824 1930 1849 1936 1892 1872 1773 1867 1845 1862 1896 1775 1820 1960 1880 1806 1803 1778 1875 1916 1870 1906 1873 1851 1914 1899 1854 1886 1855 1894 1844 1899 1849 1875 1804 1787 1867 1835 1851 1876 1857 1835 1849 1894 1811 1877 1935 1881 1926 1898 1858 1816 1863 1866 1833 1879 1899 1806 1858 1904 1817 1845 1852 1934 1880 1845 1788 1885 1827 1835 1986 1872 1805 1858 1912 1867 1842 1888 1847 1804 1791 1893 1855 1842 1806 1880 1832 1872 1881 1845 1835 1926 1854 1895 1849 1853 1853 1789 1895 1897 1866 1854 1956 1854 1894 1868 1836 1911 1825 1870 1940 1809 1873 1904 1808 1876 1911 1891 1902 1943 1901 1821 1849 1804 1798 1894 1885 1868 1852 1920 1883 1869 1856 1849 1915 1844 1811 1821 1879 1846 1804 1834 1821 1801 1733 1876 1756 1857 1960 1857 1862 1930 1913 1811 1904 1855 1908 1880 1816 1866 1848 1857 1797 1930 1909 1880 1865 1923 1863 1893 1793 1940 1917 1819 1923 1882 1881 1993 1843 1865 1855 1872 1861 1904 1849 1829 1844 1828 1906 1846 1854 1957 1908 1828 1874 1847 1855 1842 1864 1844 1854 1900 1834 1808 1886 1852 1807 1876 1902 1915 1894 1853 1857 1853 1889 1841 1830 1857 1867 1910 1908 1771 1847 1884 1927 1821 1910 1853 1927 1859 1869 1805 1888 1822 1934 1939 1883 1862 1926 1859 1852 1847 1815 1882 1879 1873 1854 1964 1928 1938 1905 1910 1781 1819 1895 1905 1861 1798 1885 1815 1916 1868 1821 1875 1965 1893 1882 1898 1909 1863 1820 1855 1912 1904 1955 1921 1978 1959 1899 1903 1858 1896 1932 1848 1857 1879 1847 1892 1892 1926 1915 1973 1901 1929 1899 1872 1899 1935 1931 1898 1845 1879 1941 1937 1832 1822 1919 1845 1840 1876 1854 1840 1903 1942 1969 1956 1926 1938 1822 1935 1915 1881 1951 1964 1884 1943 1892 1898 1956 1925 1940 1921 1901 1893 1943 1890 1973 2053 1952 1932 1965 1919 2027 1982 2025 2046 1965 2000 2026 1961 2036 1911 1993 2018 1962 1953 2049 1954 2024 1998 2015 1968 1952 1994 1991 2006 1974 1903 1983 1896 1844 2022 1993 1930 1880 1931 1938 1922 1989 1884 1957 1898 1918 1968 1911 1916 1904 1918 1906 1878 1867 1912 1924 1974 1936 1877 1921 1842 1863 1930 1920 1877 1878 1916 1917 1954 1895 1890 1832 1979 1847 1859 1869 1925 1941 1948 1847 1905 1945 1933 1907 1939 1826 1824 1939 1925 1922 1990 1955 1884 1912 1912 1908 1927 1917 1801 1903 1926 1980 1799 1925 1933 1942 1870 1949 1889 1914 1881 1955 1905 1959 1826 1928 1891 1869 1839 1899 1914 1875 1919 1932 1844 1871 1891 1870 1920 1891 1918 1921 1871 1913 1897 1923 1828 1907 1883 1934 1927 1866 1903 1852 1858 1892 1856 1919 1947 1946 1919 1884 1876 1937 1917 1913 1915 1975 1906 1857 1849 2021 1919 1900 1947 1923 1980 1937 1942 1972 1910 1919 1991 1894 2034 2072 1950 1974 1973 1974 2010 2014 2023 1981 1939 1968 1964 2014 1993 2082 1980 1997 2065 1983 1912 2013 2008 1993 2033 1964 2042 1920 1991 2063 2006 2059 2050 2003 2016 2092 2006 1994 1983 2039 1993 2072 2071 2022 2032 1991 2013 2092 2030 2044 2086 2053 2006 2124 2027 2061 2107 2040 2110 2085 2036 2131 2130 2035 2141 2179 2085 2103 2193 2254 2120 2125 2246 2110 2106 2064 2130 2155 2160 2137 2110 2158 2116 2033 2082 2179 2017 2146 2163 2237 2051 2022 2101 2111 2042 2100 2032 2041 2052 2034 1967 1969 1981 2010 2077 1999 1991 1994 1940 1980 1961 2055 2066 2015 1960 1925 1925 2053 1966 1978 2001 1909 1971 1912 1919 1924 1987 1896 1894 1937 1912 1950 1906 1937 1924 1895 1930 1897 1922 1928 1999 1903 1978 1936 1903 1893 1890 1927 1959 1895 1916 1992 1979 2001 1923 1809 1962 1938 1929 1948 2026 1956 2037 1929 1928 1907 1902 1966 1974 1957 1952 1942 2000 1891 1942 1919 2000 1945 1950 2040 2044 1960 1968 1937 2011 1994 1984 1982 2055 2007 2044 1996 2093 2006 1985 2038 2008 2011 2065 1966 2073 2062 2015 2034 2046 2021 2117 2031 2056 2043 2002 2060 2018 2072 2036 2053 2024 1965 2028 1959 2055 1957 2005 1988 2047 2037 2039 2055 2049 1992 2026 2027 2003 2069 1964 2085 2019 1974 1939 1969 2029 2052 2000 1948 2069 1915 1997 1973 1987 1980 1962 1948 2027 2004 1913 1922 1959 1916 1936 1981 1896 1933 1819 1846 1936 1949 1955 1865 1981 2013 1987 1968 1946 1993 1961 2021 1955 1969 1949 1937 1929 1947 1924 1888 1917 1922 1959 1929 1886 1901 1918 1847 1949 2011 1884 1866 1879 1913 1927 1933 1898 1966 1924 1931 1927 1960 1884 1947 1904 1835 1957 1890 1910 1879 1968 1920 1899 1906 1877 1885 1992 1869 1889 1928 1917 1898 1899 1828 1944 1927 1837 1861 1803 1896 1922 1925 1827 1810 1932 1877 1914 1973 1870 1930 1864 1898 1848 1911 1936 1909 1897 1872 1846 1894 1891 1823 1825 1902 1898 1887 1908 1855 1834 1814 1866 1936 1881 1985 1956 1849 1919 1916 2003 1908 1826 1842 1879 1827 1947 1877 1864 1843 1875 1898 1809 1815 1875 1851 1891 1853 1814 1854 1815 1852 1852 1810 1889 1858 1912 1865 1923 1939 1935 1889 1912 1890 1846 1868 1851 1876 1837 1736 1857 1838 1838 1813 1867 1940 1888 1885 1902 1889 1913 1910 1874 1807 1852 1841 1901 1822 1879 1864 1951 1782 1884 1911 1842 1974 1800 1800 1774 1825 1965 1839 1919 1893 1928 1891 1951 1820 1786 1826 1869 1894 1809 1936 1858 1836 1870 1782 1812 1833 1841 1848 1823 1824 1891 1873 1823 1788 1917 1860 1955 1899 1853 1903 1931 1902 1880 1853 1939 1802 1907 1859 1885 1874 1832 1889 1794 1858 1880 1873 1752 1885 1868 1896 1866 1910 1890 1912 1772 1886 1860 1879 1850 1874 1828 1835 1792 1888 1882 1924 1782 1941 1879 1837 1953 1901 1878 1842 1939 1883 1952 1846 1858 1881 1854 1851 1839 1916 1879 1747 1891 1820 1944 1847 1866 1934 1878 1942 1836 1867 1909 1831 1877 1877 1863 1838 1946 1891 1817 1902 1883 1877 1887 1790 1775 1896 1926 1886 1864 1847 1893 1838 1863 1788 1887 1887 1886 1882 1865 1877 1842 1886 1856 1891 1791 1877 1789 1887 1848 1911 1906 1814 1895 1829 1771 1848 1970 1929 1819 1835 1861 1867 1831 1942 1846 1986 1821 1900 1904 1865 1777 1834 1774 1874 1811 1923 1874 1808 1814 1890 1906 1941 1892 1874 1879 1960 1907 1898 1917 1859 1855 1828 1841 1887 1832 1902 1906 1886 1899 1859 1835 1895 1887 1919 1815 1843 1904 1838 1915 1890 1844 1859 1890 1847 1790 1869 1885 1817 1847 1912 1898 1838 1910 1808 1864 1826 1869 1881 1811 1793 1893 1856 1810 1857 1842 1873 1882 1867 1848 1792 1854 1836 1850 1914 1945 1880 1858 1830 1945 1834 1899 1936 1891 1843 1854 1885 1873 1863 1866 1909 1902 1893 1959 1931 1931 1892 1860 1930 1953 1834 1890 1812 1872 1841 1896 1822 1885 1805 1919 1844 1866 1877 1833 1860 1883 1904 1919 1821 1999 1903 1849 1890 1849 1937 1874 1806 1954 1870 1949 1822 1885 1752 1902 1829 1759 1874 1826 1895 1832 1848 1831 1885 1884 1819 1805 1893 1906 1856 1847 1837 1860 1878 1819 1842 1875 1873 1796 1783 1738 1810 1911 1893 1829 1947 1828 1829 1859 1905 1848 1961 1851 1880 1891 1865 1880 1900 1895 1872 1858 1887 1817 1863 1947 1927 1850 1888 1855 1954 1823 1899 1850 1789 1823 1854 1857 1815 1825 1843 1860 1836 1936 1829 1830 1815 1866 1849 1843 1860 1874 1862 1873 1884 1826 1864 1888 1781 1870 1864 1853 1890 1880 1869 1905 1886 1922 1801 1878 1746 1810 1865 1897 1817 1917 1899 1805 1799 1868 1806 1888 1886 1904 1865 1853 1917 1859 1813 1873 1893 1889 1865 1884 1883 1837 1831 1922 1829 1881 1796 1945 1891 1863 1849 1897 1830 1878 2007 1828 1914 1903 1855 1934 1823 1885 1833 1864 1843 1957 1831 1875 1818 1854 1876 1823 1868 1960 1941 1849 1847 1900 1779 1884 1872 1902 1921 1989 1895 1833 1895 1915 1860 1845 1825 1843 1871 1849 1909 1926 1894 1868 1843 1882 1875 1852 1885 1901 1864 1950 1959 1963 1872 1877 1986 1928 1930 1840 1947 1786 1836 1904 1908 1880 1929 1859 1888 1871 1922 1947 1889 1889 1986 1872 1887 1867 1945 1921 1804 1950 1895 1847 1895 1880 1918 1897 1936 1879 1957 1906 1942 1937 1957 1936 1914 1985 1982 1950 1897 1940 1884 1971 1944 1918 1898 1945 1987 1978 2018 1986 1975 1951 1905 2041 1920 2021 1971 1926 1936 1981 1917 1892 1950 1996 1976 1924 1955 1902 1884 2040 2003 1946 1957 1969 1878 1961 1861 1972 2026 1983 2000 2018 2090 2039 2078 2018 2076 2011 2060 1983 2023 2022 2071 1981 2056 1979 1996 2043 2075 2094 2040 1991 2011 2065 1925 2055 2079 2028 2026 2078 1916 2059 2014 1945 2034 1975 2081 1991 1920 2015 2056 1913 1964 1983 2000 1947 1899 1943 1982 1928 1951 2029 1882 2009 1914 1926 1904 2007 1959 1997 1907 1899 1965 1971 1869 1846 1885 1921 1787 1891 1860 1879 1903 1877 1933 1920 1861 1872 1937 1856 1880 1915 1923 1841 1879 1848 1951 1890 1844 1929 1836 1879 1931 1939 1938 1872 1845 1911 1909 1914 1907 1916 1847 1926 1970 1861 1936 2012 1952 1932 1932 1967 2002 1968 2009 1888 1902 1784 1952 1952 1917 1876 1917 1959 2001 1967 1941 1962 1955 1883 2021 1909 1900 1927 1892 1954 1922 1859 1976 1952 1988 1844 1976 1886 1845 1930 1938 1915 1903 1888 1891 1992 1875 1915 1955 1907 2004 1950 1853 1904 1925 1915 1936 1868 1972 1849 1925 2004 1872 1930 1912 1963 1900 1929 1915 1893 1911 1892 1983 1891 1875 1932 1873 1900 1939 1867 1839 1847 1870 1846 1891 1898 1916 1884 1835 1907 1881 1896 1843 1883 1889 1899 1958 1927 1962 1854 1929 1905 1895 1854 1891 1874 1878 1896 1929 1830 1846 1864 1836 1782 1852 1845 1845 1757 1900 1835 1906 1840 1844 1820 1897 1879 1985 1884 1857 1919 1879 1870 1905 1944 1866 1926 1781 1929 1865 1846 1924 1911 1882 1849 1923 1932 2010 1818 1942 1846 1841 1783 1912 1827 1887 2008 1908 1859 1903 1858 1928 1835 1882 1833 1832 1882 1888 1953 1895 1865 1836 1859 1957 1892 1867 1965 1934 1861 1857 1867 1881 1881 1941 1896 1865 1936 1882 1920 1890 1948 1928 1846 1842 1928 1893 1934 1882 1911 2000 1944 1900 1923 1948 1924 1960 1839 1942 1849 1873 1909 1885 1916 1815 1929 1839 2003 1933 1855 1899 1870 1928 1842 1885 1857 1803 1913 1932 1941 1858 1864 1899 1833 1915 1899 1923 1946 1936 1879 1878 1944 1884 1861 1889 1860 1864 1842 1880 1880 1862 1865 1829 1862 1840 1851 1925 1799 1832 1947 1851 1832 1810 1878 1860 1872 1833 1844 1870 1885 1896 1823 1864 1866 1892 1770 1850 1881 1960 1779 1883 1918 1840 1906 1821 1938 1937 1815 1852 1851 1848 1829 1843 1856 1898 1902 1927 1912 1888 1808 1985 1925 1890 1872 1976 1827 1909 1894 1852 1924 1932 1753 1825 1847 1860 1896 1862 1838 1815 1874 1790 1895 1832 1879 1864 1926 1827 1810 1903 1907 1832 1949 1890 1810 1864 1791 1837 1861 1828 1824 1902 1881 1880 1918 1885 1923 1774 1874 1833 1891 1782 1919 1843 1845 1816 1895 1833 1889 1819 1861 1822 1886 1826 1840 1803 1885 1821 1839 1925 1812 1837 1927 1890 1830 1876 1763 1880 1823 1942 1797 1938 1849 1791 1778 1822 1862 1872 1808 1893 1837 1902 1847 1847 1882 1860 1897 1853 1853 1846 1811 1848 1803 1846 1879 1906 1805 1826 1830 1850 1886 1823 1888 1894 1824</counts>
			</dataPoints>
		</scan>
	</xrdMeasurement>
</xrdMeasurements>
