<?xml version="1.0"?>
<xrdMeasurements xmlns="http://www.xrdml.com/XRDMeasurement/2.3" xmlns:xsi="http://www.w3.org/2001/XMLSchema-instance" xsi:schemaLocation="http://www.xrdml.com/XRDMeasurement/2.3 http://www.xrdml.com/XRDMeasurement/2.3/XRDMeasurement.xsd" status="Completed" recordIdentifier="{6B53DD21-50EF-48D2-B64E-11301B1D2499}">
	<comment>
		<entry/>
	</comment>
	<sample type="To be analyzed">
		<id>GPSS_Li1p9Fe0p7Zn0p35Cl4_111725_691b7e20f3837ac4a0a99373</id>
		<name></name>
		<preparedBy></preparedBy>
	</sample>
	<xrdMeasurement measurementType="Scan" status="Completed" sampleMode="Reflection">
		<usedWavelength intended="K-Alpha 1">
			<kAlpha1 unit="Angstrom">1.5405980</kAlpha1>
			<kAlpha2 unit="Angstrom">1.5444260</kAlpha2>
			<kBeta unit="Angstrom">1.3922500</kBeta>
			<ratioKAlpha2KAlpha1>0.5000</ratioKAlpha2KAlpha1>
		</usedWavelength>
		<incidentBeamPath>
			<radius unit="mm">145.00</radius>
			<xRayTube id="1010048" name="Empyrean Cu LFF HR (9430 033 7310x)">
				<tension unit="kV">40.0</tension>
				<current unit="mA">15.0</current>
				<anodeMaterial>Cu</anodeMaterial>
				<focus type="Line">
					<length unit="mm">12.0</length>
					<width unit="mm">0.4</width>
					<takeOffAngle unit="deg">6.0</takeOffAngle>
				</focus>
			</xRayTube>
			<sollerSlit id="21010002" name="Soller slits 0.04 rad.">
				<opening unit="rad">0.0400</opening>
			</sollerSlit>
			<mask id="22031000" name="Fixed mask 13 mm">
				<width unit="mm">9.00</width>
			</mask>
			<divergenceSlit id="22120001" name="Divergence slit 1°" xsi:type="fixedDivergenceSlitType">
				<distanceToSample unit="mm">50.00</distanceToSample>
				<height unit="mm">1.52</height>
			</divergenceSlit>
		</incidentBeamPath>
		<sampleMovement xsi:type="spinningSampleMovementType">
			<spinnerRevolutionTime unit="seconds">1.0</spinnerRevolutionTime>
		</sampleMovement>
		<diffractedBeamPath>
			<radius unit="mm">145.00</radius>
			<antiScatterSlit id="22090040" name="AS slit 9 mm (PIXcel)" xsi:type="fixedAntiScatterSlitType">
				<height unit="mm">9.00</height>
			</antiScatterSlit>
			<sollerSlit id="21020003" name="Large Soller slits 0.04 rad.">
				<opening unit="rad">0.0400</opening>
			</sollerSlit>
			<filter id="20030001" name="Large beta-filter Nickel">
				<material>Ni</material>
				<thickness unit="mm">0.020</thickness>
			</filter>
			<detector id="7010019" name="PIXcel1D-Medipix3 detector" xsi:type="rtmsDetectorType">
				<phd unit="keV">
					<lowerLevel>4.02</lowerLevel>
					<upperLevel>11.27</upperLevel>
				</phd>
				<mode>Scanning</mode>
				<activeLength unit="deg">5.542</activeLength>
			</detector>
		</diffractedBeamPath>
		<scan appendNumber="0" mode="Continuous" scanAxis="Gonio" status="Completed">
			<header>
				<startTimeStamp>2025-11-20T19:12:49-08:00</startTimeStamp>
				<endTimeStamp>2025-11-20T19:20:57-08:00</endTimeStamp>
				<author>
					<name>AutomatedUser</name>
				</author>
				<source>
					<applicationSoftware version="1.7b (136)">PANalytical Aeris Instrument Suite</applicationSoftware>
					<instrumentControlSoftware version="3.2.00000000 20240306">AERIS</instrumentControlSoftware>
					<instrumentID>950485</instrumentID>
				</source>
			</header>
			<dataPoints>
				<positions axis="2Theta" unit="deg">
					<startPosition>10.00943322</startPosition>
					<endPosition>99.99442286</endPosition>
				</positions>
				<positions axis="Omega" unit="deg">
					<startPosition>5.00471661</startPosition>
					<endPosition>49.99721143</endPosition>
				</positions>
				<commonCountingTime unit="seconds">12.495</commonCountingTime>
				<counts unit="counts">3325 3343 3237 3234 3315 3294 3366 3298 3289 3325 3348 3305 3324 3309 3246 3387 3338 3329 3428 3322 3342 3301 3291 3228 3364 3355 3288 3357 3360 3328 3496 3310 3329 3476 3301 3345 3356 3367 3406 3402 3430 3475 3369 3463 3367 3368 3513 3343 3517 3427 3528 3400 3458 3450 3482 3442 3429 3441 3426 3511 3387 3469 3583 3566 3521 3519 3487 3619 3521 3568 3646 3590 3696 3653 3780 3523 3640 3676 3712 3758 3685 3691 3750 3726 3660 3746 3670 3753 3791 3759 3605 3704 3728 3790 3791 3809 3750 3575 3747 3729 3763 3655 3791 3795 3675 3738 3566 3589 3591 3672 3718 3693 3622 3594 3516 3535 3484 3693 3541 3619 3590 3587 3601 3631 3614 3674 3569 3707 3668 3610 3593 3662 3659 3656 3561 3557 3704 3733 3682 3588 3585 3509 3655 3699 3546 3633 3700 3639 3683 3622 3696 3606 3699 3774 3717 3509 3722 3693 3638 3658 3770 3660 3656 3583 3667 3645 3587 3635 3635 3654 3605 3626 3612 3704 3564 3648 3679 3621 3656 3752 3658 3753 3594 3646 3635 3758 3660 3661 3580 3555 3688 3595 3615 3714 3665 3647 3708 3598 3637 3708 3698 3659 3626 3661 3606 3708 3641 3626 3643 3682 3636 3697 3613 3582 3701 3609 3513 3571 3572 3553 3590 3580 3636 3565 3635 3602 3694 3660 3625 3536 3512 3580 3640 3589 3544 3547 3555 3599 3552 3584 3644 3525 3541 3410 3511 3576 3571 3523 3580 3594 3492 3581 3657 3454 3636 3559 3655 3466 3506 3493 3622 3509 3692 3549 3557 3567 3620 3585 3630 3595 3609 3593 3625 3621 3602 3581 3601 3608 3506 3583 3467 3493 3512 3621 3621 3526 3587 3635 3495 3539 3621 3528 3645 3658 3597 3604 3454 3658 3569 3531 3648 3639 3664 3566 3613 3631 3593 3637 3712 3640 3661 3578 3790 3608 3702 3639 3655 3656 3702 3586 3666 3676 3687 3837 3653 3672 3641 3802 3797 3738 3624 3711 3698 3752 3817 3620 3734 3779 3708 3882 3775 3809 3754 3646 3756 3760 3773 3813 3966 3882 3805 3773 3918 3896 3691 3902 3816 3836 3821 3878 3821 3967 3943 3952 3956 4002 3983 3992 4010 3855 4080 4003 4087 4038 3970 3955 4147 4046 4286 4088 4184 4107 4076 4151 4207 4140 4114 4093 4242 4284 4173 4270 4104 4315 4150 4180 4287 4200 4047 4148 4243 4134 4124 4098 4136 4170 4149 4111 4251 4175 4210 4171 4327 4245 4221 4229 4230 4271 4352 4351 4355 4359 4425 4582 4589 4554 4689 4824 4725 4683 4737 4744 4939 5075 5193 5154 5250 5336 5336 5220 5332 5489 5514 5425 5457 5614 5631 5664 5677 5676 5797 5540 5402 5326 5098 5005 4994 4766 4604 4548 4459 4276 4443 4219 4219 4148 4163 4155 3968 4134 4124 3996 3937 4048 3919 3903 3894 3880 4015 3934 4003 3968 4021 3844 3858 3996 3979 3863 3867 3862 3858 3890 3856 4001 3723 3782 3785 3724 3970 3775 3785 3746 3769 3886 3749 3754 3787 3842 3746 3764 3642 3762 3748 3736 3745 3725 3798 3599 3708 3694 3705 3617 3834 3715 3819 3591 3785 3756 3643 3730 3677 3587 3621 3684 3570 3619 3604 3607 3601 3552 3775 3608 3534 3527 3703 3689 3605 3596 3598 3721 3590 3660 3444 3416 3637 3540 3585 3600 3606 3630 3559 3684 3714 3542 3662 3659 3623 3590 3603 3608 3688 3702 3644 3581 3650 3720 3616 3629 3585 3693 3644 3550 3500 3706 3534 3546 3400 3472 3424 3502 3476 3454 3381 3518 3544 3434 3458 3473 3502 3434 3454 3447 3471 3446 3550 3411 3448 3432 3471 3537 3429 3485 3392 3520 3359 3393 3431 3337 3463 3421 3455 3383 3397 3471 3382 3426 3467 3440 3416 3412 3312 3241 3306 3410 3447 3351 3369 3216 3390 3306 3456 3323 3423 3330 3373 3520 3373 3416 3374 3380 3491 3447 3498 3368 3404 3485 3471 3407 3408 3429 3460 3378 3385 3335 3510 3449 3356 3388 3451 3395 3468 3431 3349 3329 3442 3492 3508 3319 3448 3374 3256 3434 3390 3343 3352 3411 3405 3466 3461 3337 3338 3318 3185 3262 3278 3375 3333 3317 3268 3360 3315 3326 3323 3274 3228 3178 3343 3308 3372 3278 3327 3306 3303 3359 3326 3350 3242 3327 3364 3298 3319 3352 3245 3279 3360 3266 3232 3295 3310 3280 3417 3361 3419 3355 3270 3313 3278 3246 3367 3234 3295 3252 3279 3285 3327 3295 3253 3377 3268 3246 3392 3382 3308 3355 3312 3287 3266 3414 3247 3311 3234 3333 3304 3285 3428 3281 3398 3264 3312 3255 3375 3353 3319 3335 3358 3311 3311 3285 3200 3235 3407 3309 3384 3386 3377 3380 3507 3351 3448 3461 3469 3503 3457 3518 3513 3486 3447 3614 3465 3602 3548 3672 3544 3554 3488 3538 3575 3475 3574 3630 3454 3607 3502 3626 3390 3389 3504 3255 3327 3317 3221 3287 3187 3266 3241 3192 3265 3304 3200 3195 3225 3227 3304 3080 3198 3196 3106 3200 3248 3234 3316 3113 3129 3267 3179 3184 3170 3206 3276 3162 3241 3110 3177 3110 3164 3109 3207 3177 3160 3144 3116 3102 3192 3188 3061 3160 3118 3176 3173 3205 3204 3075 3123 3096 3097 3134 3083 3190 3105 3169 3175 3098 3147 3098 3087 3106 3242 3054 3125 3156 3098 3149 3188 3017 3151 3211 3043 3148 3190 3121 3087 3090 3109 3032 3075 3105 3093 3145 3105 3162 3151 3077 3026 3122 3155 3144 3148 3146 3106 3020 3062 3061 3023 3167 3050 3050 3138 3163 3060 3131 3042 2998 3067 3028 3165 2999 3086 3012 3043 3090 3048 3025 3020 3115 3097 2989 3005 3079 3099 3096 3096 3006 3048 3045 3106 3085 3078 3009 2961 3076 3096 2978 3084 2959 3042 3014 3147 3055 2933 2973 2962 2994 2995 3076 3040 3108 3096 3037 2961 3049 3024 2993 3013 3007 2891 3150 2947 2881 2963 2941 3009 2932 2998 3093 3078 3053 2988 2932 2990 2928 3161 3055 3025 3014 2977 3016 3033 3040 3102 2998 3046 3061 3022 2952 3010 3039 3031 3088 3063 3024 3111 2968 3141 2965 3029 3047 3025 3037 3075 3010 3061 3104 2962 3095 3155 3005 2971 3031 3129 3130 3038 3074 3022 3104 2966 3028 3182 3040 2972 3119 3057 3111 3035 3062 3115 3118 3064 3053 2905 3146 3031 3085 3064 3049 3038 3036 3065 3097 3062 3056 2946 3047 3060 3094 2989 3033 3017 3097 3069 3041 3115 3108 3091 3074 2882 3103 3028 3101 3075 3034 3040 3012 3060 3033 3001 3032 2941 3107 2986 3029 2981 3002 3133 3053 3065 3146 2991 3048 3089 3051 3128 2932 2990 3094 3066 2937 3035 3119 2973 3052 2949 3173 3045 2995 2974 2906 3001 3057 3078 2990 3104 2937 3070 2975 2960 2981 2976 2881 3010 3022 3005 2854 2906 2999 2989 2989 2854 3003 2908 2909 3005 2834 2879 2838 3008 2946 2917 2883 2958 2847 2923 2761 2882 2925 2849 2806 2893 2835 2801 2783 2819 2838 2812 2756 2831 2832 2887 2889 2798 2827 2860 2834 2756 2825 2742 2886 2848 2861 2870 2758 2828 2735 2717 2832 2891 2691 2695 2746 2788 2733 2757 2736 2771 2834 2822 2695 2880 2730 2666 2724 2633 2679 2727 2716 2587 2704 2695 2648 2611 2670 2745 2641 2719 2638 2749 2689 2651 2654 2597 2626 2668 2655 2624 2541 2661 2706 2638 2683 2573 2685 2612 2525 2581 2577 2558 2691 2569 2597 2589 2605 2688 2581 2628 2625 2624 2668 2570 2571 2626 2532 2556 2608 2587 2543 2560 2579 2618 2457 2596 2470 2517 2578 2651 2494 2595 2548 2590 2516 2604 2515 2445 2461 2607 2559 2503 2553 2545 2524 2497 2644 2587 2610 2637 2624 2593 2628 2698 2530 2727 2663 2695 2753 2723 2753 2774 2878 2899 3024 2919 3005 3032 3133 3095 3134 3078 3198 3146 3133 3220 3171 3166 3175 3106 3114 3104 3081 2973 2867 3013 2955 2775 2821 2776 2703 2614 2607 2673 2637 2588 2577 2466 2641 2540 2579 2528 2415 2440 2341 2477 2411 2635 2388 2512 2469 2406 2491 2471 2482 2574 2424 2466 2491 2385 2400 2447 2506 2472 2486 2493 2441 2364 2466 2402 2426 2499 2428 2396 2475 2401 2444 2490 2439 2385 2403 2460 2481 2515 2418 2407 2493 2388 2427 2447 2480 2481 2424 2540 2454 2449 2435 2467 2488 2477 2437 2528 2479 2438 2484 2395 2367 2507 2619 2528 2388 2577 2514 2589 2537 2633 2561 2554 2577 2609 2533 2405 2542 2496 2617 2497 2619 2454 2499 2533 2582 2458 2410 2487 2498 2496 2520 2453 2547 2477 2386 2450 2504 2452 2526 2470 2424 2566 2614 2565 2438 2436 2518 2457 2463 2353 2509 2536 2468 2456 2456 2471 2425 2487 2487 2403 2437 2345 2349 2535 2463 2450 2421 2483 2404 2502 2449 2470 2424 2488 2402 2435 2515 2394 2429 2520 2421 2444 2476 2455 2428 2440 2424 2482 2425 2511 2476 2477 2432 2417 2472 2434 2367 2380 2445 2367 2449 2326 2390 2408 2407 2455 2380 2395 2401 2301 2419 2357 2455 2421 2460 2354 2375 2373 2358 2443 2401 2443 2305 2346 2356 2365 2392 2417 2351 2378 2369 2399 2342 2353 2455 2384 2391 2356 2451 2360 2324 2381 2267 2306 2299 2424 2365 2374 2342 2338 2355 2364 2327 2336 2361 2261 2327 2347 2300 2317 2290 2306 2331 2314 2302 2318 2320 2288 2334 2242 2322 2332 2296 2278 2254 2321 2329 2196 2342 2224 2299 2262 2330 2192 2187 2272 2266 2287 2257 2189 2212 2293 2304 2206 2204 2207 2325 2137 2207 2152 2238 2309 2246 2244 2249 2152 2268 2176 2173 2175 2230 2168 2245 2230 2196 2107 2229 2213 2199 2218 2186 2258 2251 2174 2071 2248 2161 2230 2218 2214 2248 2211 2214 2198 2192 2229 2164 2231 2127 2159 2166 2205 2179 2223 2137 2119 2072 2189 2071 2160 2145 2311 2247 2176 2205 2181 2168 2200 2283 2225 2213 2249 2344 2262 2244 2319 2309 2385 2142 2411 2340 2319 2355 2390 2368 2392 2405 2485 2485 2513 2693 2541 2723 2768 2799 2832 3097 2989 3115 3247 3290 3378 3405 3515 3483 3662 3632 3742 3810 3921 3768 3798 3727 3700 3720 3682 3831 3543 3471 3390 3330 3268 3215 3118 2960 2903 2846 2764 2648 2619 2552 2458 2379 2506 2301 2358 2363 2298 2281 2277 2207 2229 2153 2190 2143 2213 2121 2197 2131 2145 2116 2198 2142 2138 2099 2067 2101 2078 2138 2074 2112 2099 1984 2069 2121 2096 2022 2039 2130 2113 2134 2127 2088 2082 2102 1955 2088 2087 2123 2021 2034 2097 2062 2003 2078 2092 2207 2103 2079 2104 2102 2040 2142 2142 2234 2168 2290 2244 2120 2243 2268 2291 2339 2230 2379 2426 2473 2644 2681 2849 2936 3105 3253 3395 3594 3887 4155 4201 4404 4697 4910 5075 5393 5508 5747 5799 6060 6110 6201 6245 6232 6119 6097 6040 6033 5859 5908 5736 5487 5383 5343 5101 4844 4702 4448 4188 4099 3973 3669 3511 3377 3212 3017 2914 2821 2717 2658 2541 2455 2431 2400 2356 2301 2185 2199 2155 2195 2142 2101 2061 1988 2090 1981 1995 1994 2037 2091 2059 1960 1951 1945 1956 1954 1987 1958 2021 1931 1944 1892 1961 1988 1911 1999 1944 1941 1963 1966 1929 1951 2068 1995 1992 1977 1973 1954 1962 2027 2012 1950 2150 2059 2074 2072 2075 2131 2061 2117 1996 2092 2104 2115 2154 2060 2152 2212 2158 2182 2121 2139 2151 2150 2098 2096 2078 2122 2063 2061 2076 1949 2059 2007 1961 1974 1952 1981 1916 1929 1931 1888 1860 1923 1881 1894 1902 1938 1922 1915 1852 1916 1840 1903 1880 1886 1887 1929 1906 1941 1879 1985 1893 1842 1788 1853 1892 1891 1966 1871 1823 1884 1802 1906 1858 1845 1895 1831 1823 1876 1865 1864 1845 1873 1819 1891 1826 1799 1777 1871 1791 1790 1814 1855 1783 1826 1871 1880 1913 1827 1910 1796 1808 1831 1824 1911 1883 1790 1779 1871 1776 1844 1852 1784 1808 1861 1777 1884 1865 1846 1863 1828 1795 1848 1817 1862 1782 1848 1849 1893 1815 1788 1805 1874 1756 1843 1804 1799 1813 1762 1704 1885 1905 1829 1768 1842 1754 1752 1917 1728 1793 1786 1835 1776 1783 1753 1837 1804 1829 1834 1857 1859 1861 1815 1793 1859 1855 1764 1751 1715 1801 1736 1821 1779 1840 1790 1761 1794 1809 1810 1880 1834 1810 1812 1751 1820 1737 1788 1831 1863 1794 1845 1836 1753 1731 1868 1709 1852 1851 1710 1831 1808 1774 1815 1768 1755 1868 1765 1757 1879 1788 1885 1766 1754 1752 1782 1764 1864 1758 1838 1838 1827 1808 1791 1770 1751 1786 1766 1671 1798 1772 1747 1848 1773 1767 1862 1753 1775 1799 1795 1887 1810 1779 1768 1842 1841 1768 1803 1781 1818 1892 1819 1844 1811 1854 1838 1836 1808 1812 1850 1868 1886 1781 1878 1885 1834 1832 1850 1970 1774 1798 1776 1846 1822 1794 1777 1812 1852 1835 1819 1831 1856 1748 1910 1807 1855 1818 1811 1870 1841 1857 1865 1852 1880 1824 1820 1864 1818 1927 1805 1892 1830 1872 1841 1909 1868 1920 1871 1930 1902 1935 1907 1944 1871 1870 1957 2018 2043 1960 2052 2092 2041 2089 2118 2219 2159 2156 2247 2232 2222 2460 2346 2512 2593 2689 2778 2922 3102 3269 3315 3653 3891 4324 4652 4972 5148 5765 5972 6618 6770 7162 7540 8021 8004 8555 8616 8930 8664 8854 8713 8779 8652 8648 8395 8313 7911 7612 7338 6902 6467 6297 5902 5708 5301 4957 4698 4354 4204 3905 3664 3429 3196 3012 2865 2811 2682 2486 2608 2426 2363 2376 2320 2183 2137 2183 2209 2087 2045 2019 1994 2093 1917 1996 1983 1896 1935 1901 1876 1908 1870 1811 1857 1913 1921 1926 1880 1894 1852 1883 1871 1854 1860 1806 1853 1843 1808 1777 1923 1855 1858 1924 1828 1835 1911 1819 1849 1836 1867 1842 1974 1818 1831 1775 1864 1956 1843 1860 1865 1892 1820 1808 1842 1729 1870 1799 1816 1789 1648 1800 1818 1730 1834 1744 1789 1833 1771 1746 1814 1711 1800 1793 1688 1775 1728 1718 1797 1778 1703 1795 1767 1692 1795 1812 1800 1801 1746 1824 1685 1733 1707 1744 1781 1729 1795 1746 1819 1768 1714 1771 1757 1703 1784 1761 1768 1730 1707 1757 1797 1809 1738 1693 1714 1786 1760 1789 1691 1741 1672 1728 1753 1720 1645 1721 1743 1720 1759 1751 1700 1701 1701 1773 1750 1734 1794 1743 1694 1705 1751 1648 1696 1651 1831 1677 1710 1699 1783 1741 1750 1665 1707 1736 1753 1733 1753 1717 1771 1797 1735 1681 1674 1711 1707 1724 1771 1776 1684 1765 1747 1747 1712 1732 1759 1677 1741 1683 1699 1779 1708 1673 1752 1712 1648 1684 1715 1753 1725 1652 1674 1739 1676 1773 1727 1714 1714 1750 1650 1659 1729 1642 1723 1754 1686 1673 1800 1691 1752 1697 1678 1707 1736 1746 1694 1659 1730 1733 1781 1716 1683 1732 1754 1739 1729 1745 1668 1813 1773 1801 1772 1698 1729 1767 1754 1711 1873 1781 1841 1778 1813 1865 1846 1806 1772 1805 1856 1807 1862 1926 1907 1864 1927 1979 1950 1921 1952 1972 1957 2027 2005 2015 2005 1978 2061 1915 1989 1941 1987 1983 1961 1945 1813 1868 1837 1804 1852 1890 1728 1805 1831 1689 1700 1779 1646 1778 1703 1766 1767 1774 1681 1716 1593 1687 1724 1635 1656 1702 1746 1682 1686 1679 1753 1695 1731 1723 1679 1708 1710 1657 1683 1636 1706 1647 1670 1600 1707 1722 1761 1683 1697 1654 1619 1614 1668 1702 1616 1651 1668 1680 1700 1729 1653 1687 1658 1742 1655 1698 1641 1765 1768 1659 1668 1575 1628 1692 1665 1785 1747 1727 1612 1656 1693 1677 1658 1727 1730 1747 1726 1716 1608 1644 1690 1706 1670 1697 1737 1625 1685 1713 1755 1682 1758 1642 1703 1641 1729 1665 1752 1669 1665 1662 1646 1602 1632 1647 1619 1740 1770 1575 1710 1657 1710 1675 1726 1704 1624 1633 1583 1657 1718 1655 1629 1720 1741 1733 1682 1660 1701 1687 1767 1753 1870 1827 1756 1780 1790 1766 1866 1797 1808 1837 1806 1878 1902 1941 1887 1938 1919 1910 1878 1883 1908 1939 1885 1899 1835 1818 1779 1755 1737 1745 1784 1825 1753 1808 1759 1806 1734 1786 1744 1745 1635 1742 1598 1670 1658 1671 1683 1677 1743 1752 1683 1678 1622 1647 1713 1703 1668 1633 1661 1712 1697 1673 1675 1643 1614 1639 1681 1591 1582 1605 1603 1625 1667 1626 1596 1648 1665 1710 1708 1643 1685 1616 1611 1599 1654 1625 1646 1635 1595 1612 1645 1752 1662 1685 1669 1677 1718 1663 1632 1650 1643 1718 1672 1624 1603 1613 1622 1680 1610 1676 1584 1641 1704 1674 1692 1587 1655 1658 1617 1695 1667 1629 1611 1582 1644 1701 1570 1612 1684 1601 1613 1586 1627 1612 1622 1622 1660 1575 1699 1600 1643 1661 1589 1658 1652 1562 1682 1658 1724 1652 1665 1546 1647 1682 1599 1630 1667 1549 1644 1552 1648 1639 1623 1672 1610 1692 1566 1693 1684 1600 1582 1680 1567 1651 1689 1639 1556 1637 1737 1677 1726 1631 1628 1666 1664 1664 1597 1601 1691 1660 1666 1682 1609 1637 1632 1646 1556 1609 1613 1669 1669 1631 1685 1557 1615 1653 1641 1651 1679 1618 1564 1596 1637 1610 1671 1614 1583 1627 1603 1611 1677 1630 1660 1654 1654 1708 1645 1636 1599 1579 1575 1624 1589 1586 1618 1703 1603 1574 1623 1664 1493 1704 1628 1686 1581 1632 1695 1584 1576 1653 1671 1643 1696 1591 1644 1594 1656 1620 1617 1634 1659 1671 1683 1647 1666 1590 1623 1654 1657 1655 1675 1671 1698 1695 1672 1649 1711 1650 1683 1612 1734 1661 1597 1712 1761 1704 1711 1814 1699 1769 1870 1803 1825 1833 1857 1843 1949 1889 1971 1947 1920 1888 1897 1860 1855 1914 2008 1856 1931 1962 1900 1805 1834 1865 1852 1859 1834 1853 1903 1759 1769 1762 1733 1782 1728 1772 1754 1713 1757 1693 1677 1773 1703 1726 1667 1631 1693 1689 1677 1596 1717 1653 1620 1623 1614 1637 1717 1696 1654 1647 1642 1619 1584 1649 1657 1624 1697 1682 1693 1696 1711 1649 1634 1744 1620 1615 1635 1657 1687 1705 1656 1632 1660 1682 1669 1582 1750 1691 1669 1703 1654 1654 1651 1708 1655 1655 1622 1722 1673 1719 1640 1622 1685 1648 1606 1627 1620 1643 1590 1586 1639 1630 1597 1676 1637 1610 1618 1612 1681 1581 1670 1618 1601 1627 1528 1567 1656 1505 1652 1649 1640 1644 1585 1658 1569 1574 1577 1665 1589 1564 1623 1584 1657 1644 1599 1616 1627 1564 1688 1589 1554 1695 1585 1618 1620 1640 1632 1668 1615 1596 1627 1587 1554 1577 1601 1644 1594 1596 1616 1632 1664 1693 1619 1604 1590 1637 1544 1674 1624 1646 1532 1602 1628 1639 1589 1624 1681 1562 1619 1655 1643 1675 1610 1628 1662 1515 1603 1647 1613 1609 1635 1633 1573 1610 1615 1615 1629 1566 1602 1637 1594 1642 1639 1628 1654 1616 1702 1647 1655 1690 1672 1645 1635 1686 1652 1766 1676 1691 1724 1662 1743 1748 1754 1785 1780 1646 1794 1807 1886 1843 1933 1918 2003 2035 2067 2253 2190 2337 2341 2300 2614 2549 2542 2697 2649 2662 2736 2635 2744 2679 2730 2751 2660 2665 2578 2644 2591 2465 2509 2429 2318 2264 2229 2147 2200 2188 2008 2049 2047 1981 1868 1916 1875 1937 1821 1846 1810 1791 1737 1751 1727 1755 1707 1672 1684 1683 1719 1633 1726 1674 1647 1578 1650 1704 1609 1627 1614 1647 1656 1690 1606 1630 1544 1602 1552 1684 1643 1718 1625 1620 1726 1595 1576 1625 1562 1603 1630 1636 1632 1594 1552 1662 1588 1521 1625 1579 1613 1626 1600 1677 1637 1625 1623 1684 1588 1573 1638 1581 1646 1561 1494 1628 1560 1620 1584 1642 1593 1651 1624 1615 1618 1570 1685 1579 1611 1600 1682 1632 1546 1629 1648 1610 1588 1623 1626 1560 1638 1644 1540 1637 1621 1604 1619 1592 1615 1607 1598 1605 1495 1593 1619 1574 1578 1639 1584 1703 1607 1541 1652 1660 1692 1644 1673 1714 1610 1718 1637 1683 1674 1703 1653 1660 1676 1744 1689 1691 1653 1603 1609 1631 1638 1650 1604 1630 1597 1620 1642 1635 1551 1545 1682 1640 1665 1561 1542 1573 1570 1634 1624 1580 1701 1584 1595 1566 1586 1561 1645 1594 1549 1606 1558 1543 1539 1613 1610 1583 1625 1698 1617 1589 1536 1696 1593 1628 1569 1602 1669 1656 1585 1540 1548 1649 1633 1603 1632 1599 1615 1610 1572 1586 1614 1509 1629 1587 1547 1736 1664 1609 1640 1666 1667 1628 1641 1584 1672 1642 1574 1576 1622 1545 1608 1588 1662 1626 1617 1646 1643 1607 1663 1546 1603 1676 1594 1556 1571 1612 1644 1614 1647 1611 1577 1619 1669 1613 1700 1603 1619 1629 1558 1637 1561 1619 1591 1609 1556 1662 1541 1511 1631 1588 1625 1545 1652 1624 1556 1584 1594 1591 1684 1610 1655 1608 1650 1623 1643 1618 1589 1592 1600 1669 1597 1727 1669 1616 1563 1639 1602 1676 1650 1651 1641 1659 1598 1521 1630 1586 1705 1655 1653 1695 1690 1697 1648 1675 1635 1682 1705 1682 1661 1707 1653 1770 1668 1725 1538 1712 1738 1674 1665 1743 1700 1677 1772 1730 1685 1743 1715 1815 1754 1758 1801 1799 1748 1786 1785 1791 1842 1841 1848 1922 1982 1905 1961 2043 2031 2008 2094 2083 2240 2336 2322 2488 2478 2604 2777 2911 3192 3397 3571 3783 4023 4469 4550 4859 4978 5518 5613 5969 5803 5959 5993 6222 6091 6006 6232 6283 6043 6123 6095 5842 5649 5571 5473 5200 5169 5109 4810 4916 4653 4409 4258 4120 3870 3792 3688 3488 3329 3350 3120 3082 3023 2808 2765 2724 2604 2548 2471 2457 2343 2228 2329 2015 2138 2064 2039 1995 1939 1902 1853 1875 1807 1790 1788 1771 1778 1759 1799 1701 1791 1694 1713 1735 1724 1675 1662 1737 1688 1649 1767 1701 1729 1681 1707 1600 1719 1720 1669 1674 1723 1670 1763 1737 1701 1619 1578 1699 1699 1668 1636 1669 1618 1606 1649 1683 1639 1556 1698 1578 1707 1679 1615 1590 1622 1627 1650 1661 1627 1670 1711 1602 1566 1661 1666 1600 1671 1628 1569 1578 1562 1630 1610 1655 1599 1607 1535 1579 1605 1604 1627 1577 1514 1663 1540 1511 1570 1605 1570 1515 1656 1646 1668 1551 1677 1629 1569 1677 1557 1661 1648 1587 1560 1547 1569 1603 1622 1585 1580 1601 1572 1590 1618 1613 1621 1685 1609 1623 1594 1557 1637 1578 1631 1632 1601 1580 1548 1624 1613 1632 1582 1629 1615 1638 1616 1629 1569 1594 1543 1599 1614 1632 1571 1672 1656 1658 1578 1637 1649 1668 1662 1568 1659 1688 1613 1695 1717 1671 1692 1689 1683 1649 1752 1757 1796 1812 1794 1820 1850 1802 1887 1866 1936 1897 2003 1969 1999 1980 2005 2053 2011 1997 1932 1887 1993 1894 1971 1931 1894 1990 1873 1858 1802 1834 1782 1792 1725 1792 1757 1739 1768 1676 1680 1678 1645 1643 1646 1658 1626 1642 1688 1680 1557 1677 1598 1736 1570 1653 1616 1583 1629 1618 1553 1656 1599 1560 1592 1636 1545 1545 1571 1557 1525 1608 1572 1612 1533 1632 1517 1569 1621 1588 1590 1552 1611 1575 1600 1599 1570 1554 1620 1536 1559 1680 1600 1631 1607 1654 1548 1560 1542 1670 1663 1617 1605 1650 1579 1608 1605 1603 1638 1625 1570 1634 1611 1590 1564 1640 1587 1549 1649 1515 1620 1551 1662 1567 1624 1595 1567 1544 1558 1516 1523 1574 1501 1594 1566 1577 1588 1629 1651 1541 1567 1697 1638 1656 1605 1583 1644 1547 1616 1694 1614 1629 1549 1579 1631 1649 1664 1611 1613 1562 1614 1594 1662 1575 1575 1558 1595 1595 1585 1605 1618 1574 1553 1577 1621 1556 1574 1523 1569 1553 1590 1590 1538 1581 1589 1518 1457 1632 1506 1580 1508 1587 1519 1500 1576 1510 1570 1581 1504 1501 1510 1548 1546 1561 1476 1541 1556 1534 1535 1542 1560 1563 1586 1551 1610 1627 1568 1588 1536 1589 1515 1552 1552 1549 1466 1525 1485 1512 1515 1579 1570 1450 1535 1506 1564 1568 1550 1506 1510 1533 1598 1493 1596 1528 1608 1542 1524 1543 1529 1551 1448 1539 1563 1544 1586 1513 1596 1546 1545 1541 1587 1515 1541 1570 1550 1558 1550 1562 1524 1577 1540 1527 1564 1582 1594 1565 1525 1634 1570 1540 1548 1549 1621 1573 1606 1446 1506 1555 1559 1527 1576 1533 1524 1514 1539 1492 1525 1566 1581 1561 1541 1580 1594 1553 1484 1450 1541 1534 1602 1525 1585 1644 1569 1547 1524 1519 1490 1523 1623 1533 1528 1539 1536 1569 1578 1506 1575 1485 1495 1579 1511 1601 1521 1519 1538 1544 1580 1518 1494 1526 1542 1565 1542 1506 1508 1569 1474 1518 1602 1520 1548 1574 1566 1516 1532 1526 1528 1540 1544 1491 1573 1512 1589 1564 1549 1553 1569 1552 1651 1570 1490 1556 1581 1608 1560 1616 1572 1641 1675 1690 1601 1635 1618 1657 1586 1558 1633 1645 1687 1676 1607 1670 1688 1677 1659 1650 1687 1690 1665 1551 1707 1635 1666 1596 1617 1627 1656 1565 1592 1573 1611 1569 1596 1611 1593 1591 1571 1522 1534 1586 1551 1549 1530 1610 1551 1589 1563 1497 1527 1537 1529 1589 1557 1484 1494 1566 1515 1593 1569 1573 1563 1564 1599 1623 1492 1570 1600 1578 1567 1619 1581 1522 1557 1529 1518 1545 1561 1514 1561 1599 1617 1525 1579 1525 1554 1504 1541 1556 1521 1571 1596 1555 1492 1570 1584 1530 1610 1553 1620 1537 1501 1550 1547 1566 1562 1629 1564 1534 1512 1517 1524 1546 1489 1467 1509 1552 1502 1533 1523 1518 1571 1541 1471 1554 1484 1553 1558 1530 1547 1478 1560 1488 1570 1562 1627 1570 1586 1580 1562 1509 1509 1623 1397 1598 1504 1508 1493 1508 1522 1523 1548 1561 1600 1494 1581 1568 1546 1491 1559 1542 1466 1537 1543 1462 1545 1507 1526 1588 1512 1495 1500 1555 1475 1536 1518 1600 1547 1592 1585 1521 1529 1556 1624 1616 1553 1577 1559 1677 1641 1610 1594 1610 1601 1636 1683 1654 1699 1679 1707 1660 1674 1679 1713 1710 1738 1679 1677 1741 1672 1647 1738 1682 1670 1807 1659 1706 1675 1732 1665 1788 1619 1637 1679 1689 1657 1697 1628 1674 1648 1581 1636 1650 1622 1636 1576 1675 1663 1593 1615 1597 1602 1608 1549 1614 1622 1713 1643 1613 1644 1688 1645 1700 1676 1698 1704 1719 1788 1769 1765 1877 1902 1939 1920 1989 1896 2014 2126 2143 2185 2224 2179 2203 2298 2281 2288 2374 2343 2334 2296 2394 2323 2383 2386 2299 2388 2297 2291 2302 2343 2352 2299 2284 2323 2111 2176 2131 2051 2086 2041 2040 2024 2013 1939 1868 1898 1918 1885 1884 1874 1730 1741 1709 1712 1684 1676 1696 1695 1650 1652 1702 1635 1699 1621 1745 1604 1660 1608 1606 1557 1555 1588 1610 1639 1578 1587 1643 1670 1582 1653 1573 1617 1626 1548 1601 1542 1595 1606 1553 1578 1652 1705 1643 1616 1567 1609 1612 1590 1611 1503 1595 1569 1599 1540 1595 1552 1572 1514 1589 1592 1488 1486 1537 1565 1524 1521 1524 1454 1603 1505 1514 1543 1560 1505 1536 1538 1487 1572 1578 1496 1524 1522 1543 1625 1515 1484 1579 1484 1547 1545 1539 1579 1539 1504 1587 1477 1517 1523 1499 1506 1558 1544 1585 1477 1516 1482 1542 1478 1525 1549 1464 1523 1530 1566 1466 1502 1421 1478 1532 1509 1525 1583 1516 1472 1539 1579 1504 1472 1562 1493 1460 1490 1547 1530 1508 1516 1531 1474 1559 1603 1483 1538 1514 1549 1521 1468 1525 1515 1475 1533 1503 1540 1489 1512 1571 1526 1532 1559 1513 1539 1502 1565 1474 1589 1579 1561 1566 1568 1578 1531 1549 1513 1511 1574 1582 1563 1490 1498 1426 1535 1543 1552 1551 1523 1506 1587 1500 1542 1584 1552 1584 1573 1534 1635 1619 1529 1589 1594 1624 1654 1562 1607 1593 1602 1633 1647 1680 1692 1719 1722 1672 1800 1724 1795 1840 1937 1942 2054 1980 2159 2211 2284 2289 2279 2312 2386 2289 2380 2396 2345 2407 2401 2382 2331 2321 2330 2285 2303 2280 2293 2141 2288 2268 2167 2106 2142 2048 2063 2021 1921 2016 1913 1906 1922 1842 1895 1760 1746 1714 1744 1696 1691 1663 1780 1726 1716 1649 1651 1628 1765 1623 1658 1668 1715 1594 1625 1624 1656 1594 1592 1597 1611 1637 1628 1618 1581 1595 1544 1627 1633 1599 1617 1600 1678 1625 1510 1521 1544 1515 1526 1562 1580 1546 1527 1595 1564 1571 1497 1466 1597 1507 1484 1537 1529 1570 1587 1504 1508 1553 1518 1503 1559 1470 1478 1513 1465 1536 1452 1547 1489 1501 1524 1497 1553 1521 1513 1473 1493 1470 1499 1542 1463 1512 1543 1504 1491 1466 1533 1459 1512 1478 1539 1479 1515 1517 1442 1490 1472 1449 1559 1543 1477 1429 1565 1460 1489 1563 1511 1540 1544 1541 1428 1544 1585 1471 1541 1570 1483 1510 1539 1498 1491 1412 1568 1480 1474 1546 1537 1590 1489 1588 1544 1537 1507 1579 1577 1526 1565 1511 1554 1659 1463 1557 1610 1643 1562 1581 1495 1581 1517 1595 1649 1674 1676 1636 1721 1683 1690 1729 1749 1705 1796 1678 1778 1746 1761 1631 1766 1680 1673 1724 1674 1777 1683 1686 1733 1720 1677 1596 1647 1775 1649 1620 1658 1538 1604 1628 1572 1595 1589 1638 1633 1548 1568 1574 1581 1523 1532 1559 1501 1542 1557 1541 1613 1556 1514 1542 1502 1554 1547 1477 1525 1571 1469 1591 1581 1500 1514 1563 1577 1543 1563 1519 1551 1551 1516 1515 1463 1488 1459 1521 1515 1527 1516 1498 1543 1490 1513 1455 1474 1502 1470 1496 1485 1479 1526 1464 1518 1528 1520 1423 1514 1488 1491 1447 1542 1444 1549 1445 1541 1551 1531 1535 1554 1506 1555 1506 1515 1450 1510 1482 1520 1511 1552 1511 1432 1470 1532 1545 1553 1545 1590 1468 1563 1584 1553 1553 1510 1562 1537 1558 1586 1489 1569 1521 1570 1500 1453 1538 1472 1560 1476 1500 1520 1483 1587 1540 1475 1536 1478 1561 1573 1530 1589 1547 1457 1505 1550 1538 1474 1478 1480 1458 1538 1519 1451 1523 1448 1458 1509 1453 1455 1479 1559 1485 1502 1492 1458 1493 1534 1553 1562 1486 1515 1528 1469 1492 1457 1520 1571 1476 1448 1474 1444 1400 1447 1518 1450 1513 1490 1457 1478 1491 1454 1449 1501 1462 1497 1481 1441 1457 1501 1485 1483 1487 1439 1497 1505 1556 1479 1553 1461 1442 1478 1500 1514 1485 1497 1463 1558 1485 1516 1568 1486 1497 1456 1476 1500 1463 1518 1434 1491 1447 1566 1479 1528 1473 1497 1445 1489 1467 1423 1497 1511 1452 1488 1446 1456 1474 1491 1465 1521 1481 1545 1489 1412 1507 1374 1480 1423 1457 1535 1504 1500 1547 1530 1429 1460 1501 1538 1457 1451 1453 1523 1532 1476 1463 1498 1490 1379 1517 1517 1513 1476 1514 1488 1482 1520 1447 1481 1450 1507 1436 1478 1436 1527 1494 1542 1504 1517 1490 1515 1502 1477 1575 1487 1522 1495 1550 1543 1458 1518 1505 1535 1510 1547 1537 1554 1578 1586 1560 1600 1498 1546 1587 1590 1530 1600 1622 1618 1608 1585 1499 1571 1571 1629 1564 1627 1507 1567 1596 1558 1574 1493 1518 1529 1545 1517 1534 1593 1601 1537 1545 1539 1479 1502 1573 1504 1539 1492 1428 1495 1422 1456 1453 1505 1435 1443 1510 1459 1494 1493 1553 1434 1543 1475 1482 1473 1425 1487 1485 1495 1503 1476 1447 1511 1401 1501 1530 1484 1467 1476 1450 1485 1517 1503 1504 1554 1511 1498 1465 1426 1484 1518 1486 1474 1447 1463 1510 1507 1586 1454 1523 1392 1483 1527 1403 1452 1504 1486 1493 1501 1446 1456 1486 1456 1422 1454 1489 1495 1505 1433 1539 1475 1397 1500 1569 1487 1464 1440 1549 1490 1446 1437 1414 1475 1461 1535 1521 1478 1470 1497 1473 1463 1515 1489 1456 1451 1518 1499 1474 1475 1447 1489 1515 1528 1521 1486 1493 1488 1496 1492 1525 1514 1472 1542 1472 1418 1481 1500 1499 1517 1471 1553 1559 1569 1564 1592 1559 1497 1620 1574 1538 1575 1611 1590 1586 1613 1644 1636 1654 1651 1656 1652 1592 1598 1681 1676 1658 1632 1668 1599 1660 1678 1662 1634 1641 1593 1683 1600 1692 1636 1634 1628 1572 1537 1588 1663 1631 1562 1479 1566 1554 1575 1587 1544 1651 1442 1594 1545 1523 1599 1489 1463 1474 1524 1552 1583 1545 1551 1554 1496 1446 1504 1459 1541 1543 1506 1515 1470 1520 1447 1538 1459 1501 1453 1440 1453 1428 1478 1463 1471 1511 1550 1537 1509 1514 1550 1466 1487 1468 1507 1489 1494 1470 1510 1481 1481 1444 1463 1492 1439 1446 1462 1468 1375 1461 1437 1502 1393 1418 1506 1508 1478 1457 1470 1474 1438 1482 1521 1479 1493 1560 1589 1481 1481 1468 1447 1490 1432 1545 1484 1448 1465 1489 1487 1400 1482 1508 1462 1560 1464 1444 1487 1434 1508 1411 1492 1570 1519 1457 1546 1517 1570 1470 1478 1523 1496 1532 1508 1497 1544 1447 1474 1533 1551 1506 1480 1486 1453 1488 1589 1552 1446 1464 1472 1470 1520 1434 1530 1525 1515 1459 1429 1423 1534 1428 1445 1496 1444 1461 1460 1423 1519 1486 1401 1471 1469 1537 1520 1470 1435 1505 1508 1508 1471 1432 1532 1420 1457 1504 1511 1459 1447 1592 1452 1475 1478 1483 1480 1431 1519 1465 1489 1425 1473 1483 1456 1459 1532 1496 1428 1503 1492 1564 1496 1444 1474 1484 1449 1477 1493 1514 1427 1430 1537 1488 1549 1476 1493 1462 1539 1525 1450 1438 1475 1498 1469 1506 1522 1528 1446 1484 1526 1429 1475 1483 1508 1460 1449 1532 1513 1555 1466 1495 1497 1459 1471 1507 1525 1468 1593 1495 1522 1561 1524 1479 1527 1462 1526 1547 1499 1607 1565 1538 1512 1621 1523 1562 1554 1507 1669 1638 1683 1673 1623 1678 1731 1804 1676 1781 1717 1823 1894 1845 1830 1861 1900 1791 1950 1859 1864 1897 1860 1858 1881 1943 1868 1880 1851 1883 1950 1950 1932 1920 1955 1903 1941 1877 1895 1907 1913 1917 1809 1902 1798 1889 1753 1785 1632 1730 1682 1754 1694 1685 1765 1670 1681 1602 1668 1683 1698 1698 1541 1576 1585 1595 1568 1568 1506 1553 1538 1638 1592 1588 1486 1557 1484 1481 1541 1483 1551 1494 1540 1491 1562 1500 1520 1489 1477 1458 1479 1579 1475 1557 1493 1427 1496 1527 1472 1514 1543 1473 1517 1544 1451 1486 1411 1522 1472 1517 1475 1416 1434 1497 1478 1497 1508 1471 1456 1512 1525 1510 1459 1450 1492 1459 1488 1527 1424 1476 1468 1456 1483 1489 1408 1462 1496 1490 1454 1449 1480 1479 1456 1515 1463 1515 1461 1458 1452 1446 1457 1485 1534 1454 1454 1459 1542 1460 1461 1451 1504 1415 1503 1447 1449 1438 1485 1545 1461 1464 1464 1359 1448 1400 1505 1491 1481 1452 1479 1508 1513 1451 1468 1525 1511 1515 1496 1475 1482 1482 1475 1485 1463 1539 1481 1553 1530 1518 1434 1520 1524 1487 1448 1529 1520 1559 1536 1507 1442 1449 1590 1502 1490 1512 1518 1488 1462 1429 1524 1501 1558 1574 1457 1451 1464 1486 1500 1511 1515 1439 1486 1462 1545 1510 1498 1465 1400 1493 1508 1499 1460 1433 1481 1527 1549 1489 1465 1513 1463 1483 1530 1430 1420 1449 1489 1485 1454 1464 1543 1416 1488 1503 1389 1472 1495 1439 1435 1566 1466 1545 1436 1441 1436 1424 1420 1454 1470 1468 1455 1501 1447 1483 1445 1467 1447 1504 1474 1439 1510 1521 1472 1518 1479 1496 1421 1449 1448 1411 1510 1555 1457 1479 1487 1459 1439 1477 1518 1446 1477 1472 1513 1417 1499 1428 1470 1496 1514 1468 1508 1543 1487 1455 1486 1514 1493 1470 1493 1459 1496 1465 1488 1515 1449 1533 1480 1475 1476 1503 1483 1526 1452 1509 1429 1495 1466 1566 1490 1469 1458 1397 1426 1500 1487 1508 1465 1559 1465 1414 1460 1408 1486 1435 1494 1480 1542 1436 1468 1554 1460 1421 1534 1484 1471 1446 1518 1456 1473 1499 1490 1491 1373 1412 1454 1574 1425 1507 1490 1410 1492 1464 1538 1490 1488 1465 1436 1442 1439 1445 1397 1506 1497 1446 1363 1470 1372 1422 1527 1420 1429 1401 1525 1472 1501 1465 1507 1495 1471 1492 1505 1508 1503 1464 1468 1373 1501 1528 1449 1491 1509 1418 1479 1517 1391 1497 1484 1495 1402 1495 1419 1473 1535 1456 1479 1448 1476 1421 1422 1486 1442 1513 1461 1411 1437 1487 1435 1497 1454 1469 1501 1479 1445 1457 1437 1477 1429 1512 1488 1494 1495 1440 1524 1498 1512 1445 1464 1500 1457 1509 1465 1435 1488 1480 1470 1473 1468 1428 1447 1495 1446 1496 1540 1450 1566 1540 1415 1444 1475 1479 1466 1458 1398 1518 1414 1533 1469 1511 1437 1481 1508 1552 1589 1530 1489 1541 1530 1490 1494 1590 1490 1556 1519 1430 1507 1467 1495 1558 1560 1486 1510 1459 1499 1551 1461 1473 1560 1527 1493 1499 1585 1564 1511 1531 1485 1450 1479 1475 1486 1461 1530 1498 1477 1423 1510 1475 1503 1519 1514 1476 1509 1431 1548 1554 1388 1479 1504 1482 1432 1443 1447 1444 1503 1484 1497 1459 1451 1526 1420 1548 1541 1395 1508 1517 1497 1484 1423 1481 1495 1499 1531 1525 1486 1524 1488 1509 1475 1458 1480 1389 1440 1451 1497 1450 1474 1477 1488 1504 1405 1480 1449 1451 1441 1417 1559 1525 1450 1451 1442 1462 1473 1534 1488 1532 1517 1474 1478 1518 1477 1457 1514 1465 1473 1444 1519 1460 1518 1525 1467 1436 1493 1505 1468 1444 1509 1450 1488 1520 1446 1495 1465 1557 1515 1491 1488 1499 1520 1513 1536 1496 1510 1513 1528 1533 1566 1514 1490 1507 1484 1601 1574 1553 1610 1583 1574 1559 1602 1681 1642 1523 1574 1564 1615 1552 1537 1586 1537 1632 1563 1623 1597 1650 1593 1602 1569 1637 1626 1624 1513 1631 1541 1599 1572 1556 1619 1647 1473 1494 1577 1584 1580 1612 1567 1534 1583 1569 1602 1571 1586 1501 1522 1607 1562 1579 1628 1577 1658 1547 1608 1674 1643 1639 1617 1625 1698 1723 1669 1711 1643 1697 1704 1675 1633 1689 1689 1654 1700 1764 1730 1734 1766 1712 1691 1662 1699 1697 1705 1638 1706 1659 1673 1634 1729 1664 1595 1670 1676 1606 1745 1667 1619 1688 1561 1614 1683 1699 1655 1606 1592 1588 1715 1681 1640 1635 1588 1609 1595 1600 1602 1661 1587 1568 1567 1644 1628 1591 1555 1567 1487 1490 1541 1571 1545 1622 1526 1614 1509 1551 1516 1523 1476 1518 1547 1464 1589 1480 1482 1538 1555 1532 1570 1478 1498 1513 1500 1498 1578 1530 1526 1529 1502 1534 1556 1533 1495 1516 1407 1449 1502 1495 1409 1486 1414 1519 1503 1463 1582 1553 1483 1454 1517 1475 1514 1496 1453 1544 1457 1455 1512 1451 1507 1456 1469 1566 1515 1456 1452 1441 1473 1506 1473 1451 1519 1440 1488 1466 1520 1490 1477 1588 1514 1474 1494 1486 1487 1523 1505 1519 1464 1492 1487 1514 1502 1485 1429 1524 1523 1480 1549 1485 1500 1495 1538 1479 1498 1539 1502 1468 1498 1430 1470 1440 1573 1538 1517 1568 1566 1528 1466 1536 1581 1498 1569 1531 1544 1487 1551 1473 1520 1611 1539 1512 1552 1566 1607 1583 1519 1592 1576 1577 1613 1535 1536 1578 1536 1630 1653 1616 1596 1597 1609 1620 1679 1741 1703 1774 1754 1825 1871 1852 1827 1960 1985 1974 2029 2113 1984 2158 2059 2151 2172 2211 2128 2225 2209 2182 2097 2112 2120 2024 2091 2081 2002 1980 2121 1992 2095 2050 2084 2078 2014 2031 2120 2033 1932 2041 1957 1958 1948 1891 1955 1861 1931 1831 1909 1852 1814 1769 1810 1764 1753 1778 1805 1778 1738 1781 1690 1692 1718 1678 1642 1667 1667 1704 1677 1638 1640 1581 1590 1629 1636 1571 1552 1590 1546 1600 1622 1533 1587 1553 1582 1474 1562 1513 1529 1569 1440 1522 1541 1531 1585 1543 1521 1542 1461 1516 1470 1511 1584 1484 1543 1507 1469 1551 1498 1537 1457 1459 1527 1415 1508 1444 1479 1592 1489 1504 1494 1529 1492 1465 1510 1522 1462 1432 1499 1597 1549 1485 1513 1495 1471 1528 1505 1511 1479 1576 1523 1483 1491 1582 1477 1454 1445 1512 1480 1466 1516 1558 1602 1514 1529 1523 1591 1547 1505 1505 1591 1428 1542 1455 1472 1513 1468 1575 1502 1465 1488 1476 1582 1507 1436 1528 1544 1517 1528 1489 1575 1491 1517 1487 1520 1607 1494 1553 1534 1531 1569 1472 1521 1498 1518 1617 1518 1550 1601 1503 1625 1497 1627 1582 1568 1521 1511 1546 1614 1548 1492 1537 1487 1483 1560 1445 1532 1558 1579 1565 1476 1542 1469 1582 1505 1562 1513 1511 1556 1483 1517 1495 1528 1495 1469 1465 1537 1489 1496 1477 1502 1491 1513 1525 1548 1515 1507 1479 1504 1497 1498 1596 1508 1468 1486 1534 1468 1563 1488 1447 1546 1532 1537 1521 1560 1444 1492 1566 1485 1474 1465 1534 1527 1470 1471 1483 1437 1468 1424 1413 1494 1459 1525 1499 1450 1504 1508 1453 1489 1484 1495 1411 1497 1498 1477 1474 1451 1570 1434 1485 1559 1465 1492 1553 1468 1564 1482 1403 1541 1504 1503 1492 1578 1467 1477 1506 1580 1459 1535 1479 1482 1538 1486 1462 1457 1483 1460 1437 1546 1483 1524 1513 1538 1474 1561 1543 1426 1492 1475 1483 1451 1451 1514 1498 1514 1528 1415 1477 1486 1523 1568 1409 1538 1451 1409 1523 1453 1501 1433 1416 1454 1445 1488 1500 1524 1547 1496 1479 1517 1445 1410 1533 1516 1479 1469 1488 1505 1512 1477 1523 1511 1488 1408 1539 1488 1492 1497 1402 1434 1437 1539 1474 1499 1496 1544 1483 1490 1422 1413 1513 1488 1481 1432 1467 1509 1402 1397 1417 1551 1521 1496 1572 1464 1536 1538 1496 1438 1478 1494 1498 1485 1485 1538 1465 1508 1473 1448 1477 1517 1547 1448 1481 1461 1491 1483 1488 1551 1478 1478 1501 1498 1436 1403 1451 1515 1509 1432 1476 1479 1454 1455 1535 1447 1451 1441 1483 1465 1480 1499 1531 1554 1406 1601 1513 1448 1499 1423 1531 1457 1496 1488 1424 1447 1463 1491 1466 1507 1504 1553 1431 1477 1490 1441 1464 1556 1543 1548 1437 1467 1457 1454 1421 1467 1505 1488 1491 1536 1515 1460 1520 1453 1578 1488 1568 1554 1498 1554 1619 1470 1480 1472 1532 1496 1464 1439 1516 1417 1506 1492 1457 1517 1475 1479 1503 1524 1487 1409 1490 1419 1494 1523 1432 1515 1466 1499 1523 1541 1482 1461 1506 1451 1468 1518 1513 1510 1476 1491 1528 1531 1482 1518 1498 1439 1489 1489 1486 1478 1470 1472 1480 1499 1518 1535 1514 1464 1563 1463 1536 1468 1461 1437 1485 1473 1482 1423 1463 1449 1475 1479 1536 1405 1475 1517 1559 1508 1489 1512 1506 1495 1477 1486 1480 1486 1485 1519 1437 1462 1579 1496 1492 1539 1562 1467 1501 1466 1504 1540 1528 1527 1447 1539 1515 1527 1536 1572 1546 1501 1492 1454 1544 1483 1475 1449 1493 1456 1407 1582 1478 1508 1445 1484 1423 1506 1518 1551 1543 1528 1483 1541 1521 1451 1524 1571 1571 1562 1516 1552 1583 1520 1562 1545 1528 1599 1500 1601 1639 1576 1549 1557 1575 1649 1554 1588 1596 1492 1581 1567 1675 1548 1576 1556 1548 1570 1607 1526 1497 1517 1508 1539 1546 1554 1509 1575 1535 1602 1556 1539 1548 1610 1495 1576 1602 1592 1586 1567 1517 1537 1509 1528 1590 1480 1451 1473 1602 1494 1444 1565 1557 1508 1491 1505 1516 1554 1515 1520 1578 1527 1488 1395 1545 1479 1536 1483 1493 1481 1537 1508 1476 1530 1528 1496 1506 1510 1586 1494 1441 1527 1463 1473 1509 1514 1483 1450 1535 1503 1516 1420 1452 1529 1462 1463 1533 1449 1582 1498 1441 1482 1463 1562 1562 1479 1437 1467 1440 1459 1410 1597 1531 1467 1477 1499 1500 1543 1572 1509 1482 1546 1567 1527 1470 1459 1546 1552 1469 1557 1587 1512 1537 1480 1402 1540 1479 1521 1593 1441 1515 1455 1518 1501 1439 1563 1532 1563 1513 1486 1559 1534 1466 1574 1468 1512 1560 1506 1485 1510 1484 1525 1449 1504 1452 1552 1493 1553 1514 1571 1492 1461 1489 1487 1533 1542 1493 1491 1504 1503 1472 1491 1459 1551 1509 1456 1527 1486 1488 1510 1511 1498 1584 1444 1495 1448 1438 1606 1497 1506 1535 1496 1529 1507 1549 1481 1459 1554 1549 1534 1523 1469 1443 1520 1480 1483 1559 1533 1491 1442 1551 1442 1529 1478 1555 1484 1458 1565 1475 1536 1527 1532 1506 1483 1492 1531 1464 1523 1502 1509 1523 1525 1505 1539 1490 1518 1492 1536 1522 1536 1508 1441 1575 1470 1569 1548 1578 1529 1562 1549 1516 1564 1588 1475 1594 1597 1550 1614 1619 1588 1664 1637 1586 1573 1663 1640 1696 1747 1730 1734 1818 1780 1769 1720 1786 1847 1875 1835 1850 1931 2119 1960 1985 1912 1970 1978 1936 2007 1896 1942 1985 1992 1922 1959 1986 1983 1965 1920 2024 1920 1942 1916 1958 1990 1906 1955 1943 1970 1993 1939 1926 2011 1920 1932 1946 1917 1890 1887 1869 1867 1857 1771 1762 1769 1767 1722 1706 1745 1791 1786 1763 1734 1691 1669 1683 1727 1706 1668 1768 1742 1725 1666 1677 1673 1714 1612 1653 1663 1679 1619 1611 1639 1603 1589 1491 1612 1623 1584 1611 1628 1575 1551 1627 1568 1623 1614 1571 1596 1599 1592 1602 1594 1547 1558 1636 1569 1595 1583 1565 1540 1488 1559 1516 1598 1509 1556 1539 1557 1494 1576 1505 1508 1541 1531 1542 1532 1487 1504 1570 1497 1497 1466 1523 1471 1537 1521 1578 1501 1475 1495 1522 1527 1553 1498 1509 1486 1474 1593 1539 1556 1479 1570 1528 1517 1569 1499 1522 1533 1445 1499 1514 1582 1510 1471 1524 1522 1511 1503 1449 1503 1560 1465 1524 1491 1470 1502 1512 1448 1511 1508 1507 1448 1542 1538 1527 1525 1533 1532 1499 1525 1574 1462 1512 1568 1575 1527 1570 1467 1599 1614 1582 1519 1515 1547 1484 1587 1527 1536 1556 1500 1522 1481 1548 1561 1462 1532 1489 1522 1558 1487 1578 1500 1537 1490 1489 1495 1496 1416 1521 1466 1514 1564 1550 1482 1540 1481 1543 1544 1450 1485 1474 1570 1539 1443 1505 1534 1463 1478 1442 1501 1495 1518 1516 1555 1521 1490 1524 1482 1455 1573 1441 1492 1502 1550 1465 1409 1501 1506 1469 1513 1512 1471 1476 1530 1452 1428 1452 1479 1402 1505 1474 1556 1465 1433 1524 1491 1457 1531 1499 1532 1514 1504 1508 1439 1493 1410 1497 1543 1493 1502 1514 1536 1528 1480 1524 1494 1540 1523 1510 1549 1462 1495 1539 1457 1457 1508 1477 1472 1482 1410 1497 1519 1551 1488 1536 1539 1460 1514 1488 1500 1491 1461 1521 1466 1456 1489 1519 1480 1514 1485 1466 1486 1544 1502 1461 1466 1501 1437 1497 1483 1462 1502 1506 1475 1476 1486 1476 1479 1478 1470 1409 1431 1490 1468 1543 1473 1483 1441 1504 1462 1504 1478 1461 1524 1479 1523 1464 1505 1468 1516 1489 1431 1464 1523 1451 1500 1558 1498 1516 1594 1516 1464 1411 1577 1536 1497 1499 1507 1510 1470 1483 1477 1467 1466 1472 1437 1493 1532 1525 1472 1528 1535 1490 1435 1498 1463 1469 1450 1437 1498 1481 1452 1472 1484 1507 1552 1564 1501 1451 1472 1524 1502 1440 1572 1478 1504 1459 1435 1503 1522 1513 1552 1515 1486 1559 1535 1514 1484 1509 1442 1561 1493 1546 1453 1477 1472 1522 1491 1552 1557 1478 1552 1550 1466 1591 1560 1458 1444 1504 1517 1497 1479 1522 1442 1475 1508 1419 1532 1538 1491 1455 1500 1491 1453 1441 1492 1613 1480 1468 1489 1486 1534 1537 1499 1535 1488 1388 1555 1554 1468 1570 1558 1475 1517 1623 1536 1505 1405 1508 1562 1515 1562 1581 1496 1494 1543 1495 1544 1482 1484 1567 1494 1575 1526 1515 1505 1513 1495 1524 1486 1555 1484 1520 1493 1546 1506 1487 1554 1534 1572 1490 1547 1503 1484 1458 1504 1538 1508 1555 1543 1492 1507 1471 1506 1500 1516 1512 1480 1464 1435 1543 1457 1510 1500 1445 1511 1457 1503 1538 1500 1493 1565 1460 1460 1478 1474 1494 1415 1563 1426 1521 1431 1475 1414 1504 1531 1520 1556 1467 1549 1472 1448 1453 1525 1536 1574 1556 1500 1450 1536 1514 1520 1462 1510 1569 1510 1517 1428 1460 1517 1449 1503 1556 1455 1461 1571 1517 1460</counts>
			</dataPoints>
		</scan>
	</xrdMeasurement>
</xrdMeasurements>
