<?xml version="1.0"?>
<xrdMeasurements xmlns="http://www.xrdml.com/XRDMeasurement/2.3" xmlns:xsi="http://www.w3.org/2001/XMLSchema-instance" xsi:schemaLocation="http://www.xrdml.com/XRDMeasurement/2.3 http://www.xrdml.com/XRDMeasurement/2.3/XRDMeasurement.xsd" status="Completed" recordIdentifier="{EEF91B14-F06A-4B1C-8104-F0AD68CA9360}">
	<comment>
		<entry/>
	</comment>
	<sample type="To be analyzed">
		<id>GPSS_Li2Fe0p8Mn0p2Cl4_081225_689c052571f8245643114706</id>
		<name></name>
		<preparedBy></preparedBy>
	</sample>
	<xrdMeasurement measurementType="Scan" status="Completed" sampleMode="Reflection">
		<usedWavelength intended="K-Alpha 1">
			<kAlpha1 unit="Angstrom">1.5405980</kAlpha1>
			<kAlpha2 unit="Angstrom">1.5444260</kAlpha2>
			<kBeta unit="Angstrom">1.3922500</kBeta>
			<ratioKAlpha2KAlpha1>0.5000</ratioKAlpha2KAlpha1>
		</usedWavelength>
		<incidentBeamPath>
			<radius unit="mm">145.00</radius>
			<xRayTube id="1010048" name="Empyrean Cu LFF HR (9430 033 7310x)">
				<tension unit="kV">40.0</tension>
				<current unit="mA">15.0</current>
				<anodeMaterial>Cu</anodeMaterial>
				<focus type="Line">
					<length unit="mm">12.0</length>
					<width unit="mm">0.4</width>
					<takeOffAngle unit="deg">6.0</takeOffAngle>
				</focus>
			</xRayTube>
			<sollerSlit id="21010002" name="Soller slits 0.04 rad.">
				<opening unit="rad">0.0400</opening>
			</sollerSlit>
			<mask id="22031000" name="Fixed mask 13 mm">
				<width unit="mm">9.00</width>
			</mask>
			<divergenceSlit id="22120001" name="Divergence slit 1°" xsi:type="fixedDivergenceSlitType">
				<distanceToSample unit="mm">50.00</distanceToSample>
				<height unit="mm">1.52</height>
			</divergenceSlit>
		</incidentBeamPath>
		<sampleMovement xsi:type="spinningSampleMovementType">
			<spinnerRevolutionTime unit="seconds">1.0</spinnerRevolutionTime>
		</sampleMovement>
		<diffractedBeamPath>
			<radius unit="mm">145.00</radius>
			<antiScatterSlit id="22090040" name="AS slit 9 mm (PIXcel)" xsi:type="fixedAntiScatterSlitType">
				<height unit="mm">9.00</height>
			</antiScatterSlit>
			<sollerSlit id="21020003" name="Large Soller slits 0.04 rad.">
				<opening unit="rad">0.0400</opening>
			</sollerSlit>
			<filter id="20030001" name="Large beta-filter Nickel">
				<material>Ni</material>
				<thickness unit="mm">0.020</thickness>
			</filter>
			<detector id="7010019" name="PIXcel1D-Medipix3 detector" xsi:type="rtmsDetectorType">
				<phd unit="keV">
					<lowerLevel>4.02</lowerLevel>
					<upperLevel>11.27</upperLevel>
				</phd>
				<mode>Scanning</mode>
				<activeLength unit="deg">5.542</activeLength>
			</detector>
		</diffractedBeamPath>
		<scan appendNumber="0" mode="Continuous" scanAxis="Gonio" status="Completed">
			<header>
				<startTimeStamp>2025-08-14T19:13:16-07:00</startTimeStamp>
				<endTimeStamp>2025-08-14T19:21:23-07:00</endTimeStamp>
				<author>
					<name>AutomatedUser</name>
				</author>
				<source>
					<applicationSoftware version="1.7b (136)">PANalytical Aeris Instrument Suite</applicationSoftware>
					<instrumentControlSoftware version="3.2.00000000 20240306">AERIS</instrumentControlSoftware>
					<instrumentID>950485</instrumentID>
				</source>
			</header>
			<dataPoints>
				<positions axis="2Theta" unit="deg">
					<startPosition>10.00943322</startPosition>
					<endPosition>99.99442286</endPosition>
				</positions>
				<positions axis="Omega" unit="deg">
					<startPosition>5.00471661</startPosition>
					<endPosition>49.99721143</endPosition>
				</positions>
				<commonCountingTime unit="seconds">12.495</commonCountingTime>
				<counts unit="counts">2804 2871 2784 2773 2742 2806 2773 2750 2848 2851 2705 2743 2768 2819 2874 2645 2833 2818 2795 2824 2779 2732 2904 2886 2839 2719 2788 2759 2739 2823 2756 2825 2679 2845 2771 2720 2765 2823 2796 2805 2797 2773 2742 2813 2638 2847 2704 2913 2744 2820 2785 2698 2778 2716 2754 2673 2732 2833 2759 2688 2900 2710 2790 2699 2721 2887 2706 2814 2847 2853 2727 2775 2764 2721 2780 2725 2795 2838 2825 2734 2779 2737 2763 2646 2795 2799 2796 2813 2802 2809 2790 2746 2839 2836 2852 2854 2878 2922 2777 2857 2732 2773 2850 2817 2733 2818 2758 2827 2828 2765 2801 2794 2798 2778 2888 2872 2812 2785 2700 2777 2753 2877 2881 2890 2726 2883 2814 2808 2828 2877 2783 2810 2805 2830 2836 2840 2771 2778 2811 2853 2774 2817 2773 2939 2894 2820 2813 2862 2825 2837 2859 2812 2813 2932 2869 2740 2783 2697 2699 2728 2748 2702 2826 2806 2764 2826 2759 2802 2796 2788 2743 2847 2766 2770 2844 2771 2747 2792 2854 2762 2803 2782 2780 2838 2804 2725 2795 2771 2887 2831 2765 2848 2808 2729 2864 2751 2702 2685 2808 2717 2815 2865 2865 2765 2747 2820 2807 2749 2818 2813 2781 2794 2821 2887 2883 2773 2821 2873 2814 2795 2704 2754 2833 2759 2805 2854 2744 2817 2833 2688 2783 2754 2771 2768 2813 2771 2787 2811 2688 2809 2710 2756 2673 2727 2788 2719 2756 2859 2740 2790 2675 2696 2815 2860 2840 2739 2861 2815 2785 2782 2832 2828 2851 2891 2726 2772 2870 2809 2765 2755 2759 2719 2755 2725 2934 2872 2745 2784 2804 2840 2746 2750 2861 2739 2877 2860 2771 2873 2845 2764 2833 2888 2879 2802 2955 2877 2766 2902 2826 2810 2798 2846 2910 2847 2845 2884 2837 2834 2973 2783 2871 2818 2808 2917 2920 2856 2886 2889 2844 2861 2928 2838 2952 2911 2952 2925 2951 2866 2897 2999 2939 2856 3028 2968 3050 2963 2922 3018 2865 2970 2994 3057 3046 3011 3029 2968 3024 3013 3016 2959 3078 3100 3092 3064 3047 2977 3008 3029 2981 3045 3100 3085 3146 3085 3062 3022 2988 3136 3035 3130 3093 3093 3114 3152 3110 3094 3102 3088 3228 3034 3162 3252 3257 3200 3183 3209 3289 3136 3211 3151 3286 3140 3189 3373 3341 3287 3217 3140 3256 3236 3238 3235 3278 3310 3357 3332 3258 3347 3318 3409 3380 3348 3412 3392 3362 3350 3349 3364 3361 3334 3459 3497 3436 3404 3526 3535 3533 3557 3547 3587 3545 3569 3635 3736 3680 3697 3656 3791 3818 3806 3792 3865 3847 3922 3947 3909 3985 3973 3963 3941 4078 4043 4152 4190 4112 4162 4160 4314 4287 4224 4108 4226 4181 4255 4164 4256 4278 4341 4247 4249 4318 4393 4400 4376 4482 4446 4467 4487 4597 4610 4473 4543 4658 4488 4627 4546 4667 4695 4671 4579 4631 4570 4539 4649 4577 4470 4667 4369 4492 4296 4458 4460 4507 4455 4339 4427 4310 4278 4301 4341 4232 4259 4157 4073 4239 4216 4314 4124 4164 3994 4067 4001 4105 3988 4157 4038 4148 3961 4066 3869 3970 4025 3836 3857 3794 3807 3791 3870 3826 3830 3829 3803 3749 3833 3792 3661 3757 3606 3674 3746 3593 3591 3641 3533 3458 3525 3474 3452 3561 3508 3418 3487 3469 3353 3434 3434 3606 3508 3446 3509 3400 3535 3410 3437 3411 3543 3284 3557 3425 3438 3395 3428 3410 3419 3552 3450 3408 3333 3381 3319 3451 3374 3349 3421 3340 3373 3322 3428 3433 3364 3441 3442 3372 3369 3398 3436 3381 3402 3338 3376 3307 3412 3358 3398 3373 3383 3241 3331 3233 3385 3294 3366 3357 3469 3328 3458 3282 3373 3244 3232 3319 3255 3203 3241 3223 3327 3410 3377 3339 3362 3256 3308 3359 3314 3378 3337 3359 3316 3326 3359 3207 3318 3244 3312 3278 3270 3264 3324 3220 3304 3368 3337 3202 3301 3264 3318 3284 3272 3391 3331 3346 3357 3389 3194 3312 3326 3255 3354 3286 3285 3296 3227 3335 3284 3332 3319 3343 3359 3274 3275 3269 3278 3175 3335 3331 3366 3414 3402 3363 3324 3464 3353 3235 3208 3234 3247 3230 3363 3249 3191 3325 3298 3265 3242 3334 3450 3313 3268 3329 3306 3310 3387 3360 3162 3111 3278 3238 3249 3268 3361 3250 3219 3261 3134 3298 3254 3282 3293 3187 3344 3213 3236 3174 3305 3152 3206 3226 3280 3289 3239 3315 3281 3295 3191 3260 3248 3167 3238 3280 3233 3147 3304 3229 3259 3217 3264 3331 3282 3264 3308 3281 3330 3231 3314 3267 3270 3349 3162 3232 3271 3211 3320 3328 3227 3235 3347 3216 3226 3346 3285 3326 3255 3262 3268 3388 3327 3336 3301 3261 3222 3216 3330 3259 3252 3122 3290 3233 3271 3327 3204 3262 3236 3285 3171 3215 3328 3313 3236 3243 3162 3318 3228 3203 3212 3253 3108 3188 3296 3307 3284 3306 3282 3123 3156 3196 3253 3313 3318 3281 3242 3157 3322 3204 3327 3247 3262 3251 3233 3356 3307 3203 3211 3166 3316 3135 3297 3234 3340 3076 3207 3240 3212 3235 3361 3238 3244 3222 3382 3241 3334 3144 3115 3340 3164 3140 3350 3221 3128 3211 3346 3250 3270 3191 3357 3158 3198 3186 3224 3193 3360 3185 3291 3110 3106 3186 3240 3182 3194 3193 3224 3191 3192 3153 3209 3211 3178 3182 3348 3251 3122 3194 3117 3205 3136 3146 3130 3245 3202 3295 3287 3277 3079 3275 3167 3090 3161 3106 3164 3200 3175 3148 3086 3249 3181 3308 3249 3191 3242 3134 3228 3246 3212 3196 3121 3193 3164 3281 3217 3155 3145 3105 3205 3277 3192 3180 3120 3180 3123 3174 3185 3102 3156 3138 3267 3165 3199 3132 3184 3211 3276 3209 3227 3243 3156 3146 3197 3143 3213 3156 3163 3194 3186 3132 3249 3131 3229 3137 3238 3156 3217 3097 3159 3069 3056 3237 3116 3167 3049 3171 3135 3172 3063 3201 3132 3110 3182 3021 3123 3139 3210 3212 3159 3240 3219 3134 3167 3230 3283 3299 3267 3075 3171 3305 3211 3221 3199 3241 3222 3110 3142 3193 3138 3192 3170 3212 3127 3250 3154 3198 3134 3111 3185 3142 3093 3272 3089 3148 3141 3206 3187 3144 3238 3086 3218 3184 3156 3233 3269 3190 3179 3186 3109 3160 3319 3144 3254 3179 3114 3193 3183 3166 3175 3272 3159 3207 3234 3101 3229 3226 3251 3229 3196 3274 3283 3179 3082 3164 3111 3161 3188 3140 3111 3200 3091 3217 3215 3124 3321 3229 3148 3224 3247 3091 3313 3257 3140 3377 3111 3176 3250 3151 3215 3225 3217 3106 3167 3156 3306 3383 3269 3204 3256 3214 3245 3256 3206 3171 3209 3178 3217 3144 3219 3136 3185 3254 3295 3190 3106 3197 3262 3047 3107 3260 3332 3223 3251 3181 3230 3158 3196 3187 3093 3255 3243 3217 3194 3186 3046 3251 3097 3109 3180 3180 3126 3158 3153 3138 3142 3146 3068 3180 3314 3126 3167 3125 3143 3081 3222 3203 3132 3273 3163 3160 2996 3123 3233 3141 3159 3059 3152 3063 3147 3092 3188 3063 3137 3013 3099 2996 3135 3111 3159 3055 3078 3157 3021 3126 2981 3045 2989 3103 3116 2993 3002 3088 2971 2966 3081 2992 3015 3023 2870 3055 3012 3038 2931 3031 3065 2981 3031 3028 2912 2978 3005 2961 3071 2901 3138 2922 2972 3016 2853 3023 2913 2859 2919 2868 2909 3006 2885 2937 2896 2953 2900 2878 2914 3020 2898 2887 3000 2843 2925 2940 2814 2904 2915 2864 2957 3012 2884 2836 2987 2749 2916 2876 2900 2881 2913 2854 2858 2920 2906 2783 2891 2874 2724 2836 2848 2864 2799 2902 2845 2848 2814 2781 2686 2840 2732 2819 2814 2753 2780 2774 2822 2759 2778 2812 2862 2856 2706 2723 2723 2768 2750 2780 2805 2859 2854 2756 2840 2738 2794 2856 2803 2796 2770 2721 2724 2785 2701 2825 2811 2813 2867 2828 2776 2828 2815 2803 2815 2751 2789 2771 2782 2757 2762 2803 2665 2688 2712 2695 2776 2712 2798 2688 2772 2769 2720 2821 2800 2833 2700 2814 2651 2742 2714 2683 2820 2786 2663 2727 2710 2686 2780 2709 2795 2764 2827 2697 2614 2670 2631 2650 2694 2738 2750 2779 2720 2617 2681 2734 2643 2711 2687 2773 2796 2698 2679 2671 2652 2725 2755 2749 2700 2724 2726 2673 2678 2686 2507 2723 2755 2743 2696 2680 2679 2776 2640 2729 2721 2713 2601 2808 2805 2666 2734 2699 2633 2711 2739 2630 2686 2695 2759 2711 2631 2690 2767 2754 2729 2828 2649 2652 2688 2697 2770 2667 2786 2729 2709 2731 2680 2764 2704 2778 2626 2782 2737 2808 2753 2755 2802 2668 2782 2724 2764 2786 2768 2667 2771 2791 2739 2774 2746 2715 2769 2666 2776 2745 2769 2755 2707 2704 2673 2749 2747 2721 2732 2809 2752 2784 2794 2701 2827 2700 2703 2703 2762 2731 2778 2754 2733 2705 2721 2843 2658 2681 2834 2748 2793 2755 2706 2748 2724 2768 2794 2729 2666 2654 2790 2788 2779 2814 2778 2659 2712 2818 2763 2719 2801 2652 2714 2730 2846 2820 2709 2777 2768 2844 2753 2698 2657 2707 2728 2743 2700 2692 2667 2686 2800 2696 2642 2636 2716 2727 2659 2661 2720 2893 2713 2711 2716 2624 2733 2713 2752 2764 2738 2776 2621 2716 2717 2689 2738 2777 2581 2770 2700 2634 2693 2591 2683 2760 2796 2682 2641 2590 2687 2710 2572 2692 2604 2661 2606 2616 2643 2632 2767 2673 2605 2605 2762 2649 2615 2547 2529 2622 2674 2558 2589 2664 2644 2542 2582 2650 2655 2598 2552 2619 2531 2670 2626 2669 2629 2674 2612 2596 2613 2542 2607 2610 2534 2569 2556 2522 2570 2533 2540 2618 2646 2622 2605 2590 2570 2619 2546 2625 2538 2585 2567 2575 2403 2546 2614 2502 2549 2581 2560 2497 2495 2410 2542 2533 2525 2490 2503 2555 2552 2666 2527 2545 2630 2541 2623 2574 2559 2570 2467 2550 2580 2641 2537 2677 2558 2571 2716 2698 2715 2670 2727 2680 2694 2715 2663 2676 2643 2698 2784 2688 2769 2785 2741 2830 2798 2869 2816 2918 2889 2903 2892 2905 2873 2963 2948 2969 2982 3032 2946 2903 2905 2910 2826 2832 2821 2855 2921 2834 2814 2832 2829 2891 2785 2843 2804 2860 2785 2805 2809 2766 2861 2841 2833 2785 2763 2783 2724 2740 2746 2719 2636 2677 2748 2721 2691 2663 2763 2652 2668 2652 2705 2743 2682 2695 2636 2662 2568 2690 2703 2637 2612 2524 2719 2699 2680 2551 2575 2621 2602 2675 2583 2682 2554 2495 2559 2618 2682 2566 2497 2493 2529 2577 2592 2592 2547 2556 2537 2592 2590 2561 2604 2639 2661 2552 2594 2601 2594 2710 2656 2719 2729 2768 2784 2785 2727 2721 2724 2804 2809 2821 2917 2940 3019 2998 3068 3010 3118 3062 3042 3132 3110 3152 3261 3113 3131 3236 3172 3173 3142 3076 3106 3279 3230 3224 3161 3234 3271 3264 3206 3353 3280 3354 3466 3373 3445 3420 3420 3434 3409 3445 3388 3390 3415 3337 3302 3296 3211 3247 3224 3296 3157 3103 3066 3011 3063 3016 3016 3047 3027 2980 3110 2975 2951 2887 2836 2908 2939 2757 2696 2805 2736 2663 2709 2649 2634 2626 2579 2565 2552 2602 2543 2550 2555 2461 2522 2400 2378 2424 2408 2494 2370 2508 2419 2426 2402 2400 2458 2438 2362 2323 2407 2378 2416 2419 2364 2340 2296 2310 2308 2288 2335 2322 2364 2342 2336 2329 2342 2336 2333 2209 2271 2287 2308 2328 2306 2261 2272 2337 2270 2291 2422 2371 2280 2256 2332 2279 2378 2395 2275 2276 2250 2353 2231 2308 2433 2313 2263 2302 2205 2184 2362 2210 2234 2344 2241 2299 2337 2363 2239 2250 2186 2216 2405 2363 2319 2296 2333 2294 2329 2298 2327 2285 2321 2310 2264 2291 2236 2326 2328 2327 2251 2209 2319 2294 2300 2316 2345 2214 2299 2320 2313 2310 2341 2253 2326 2300 2315 2317 2251 2286 2238 2272 2235 2259 2346 2305 2391 2281 2260 2342 2313 2239 2323 2305 2340 2247 2218 2246 2295 2225 2286 2273 2268 2277 2337 2356 2265 2271 2394 2327 2331 2220 2318 2315 2297 2321 2226 2272 2255 2183 2331 2270 2258 2304 2234 2270 2330 2271 2241 2319 2313 2297 2274 2237 2211 2206 2322 2330 2327 2245 2243 2203 2235 2273 2216 2239 2199 2178 2274 2293 2233 2362 2225 2277 2268 2274 2278 2319 2181 2242 2243 2301 2293 2259 2223 2351 2273 2234 2282 2289 2310 2285 2334 2230 2255 2186 2300 2346 2285 2239 2320 2412 2242 2232 2231 2261 2272 2239 2263 2284 2180 2216 2258 2256 2277 2200 2247 2201 2246 2221 2330 2263 2310 2330 2311 2222 2244 2296 2176 2246 2253 2301 2276 2330 2383 2346 2303 2308 2162 2267 2319 2244 2318 2268 2346 2270 2234 2253 2285 2288 2328 2302 2199 2235 2330 2316 2293 2312 2309 2259 2224 2302 2300 2288 2417 2265 2317 2284 2341 2364 2345 2331 2268 2271 2338 2384 2226 2363 2309 2307 2306 2302 2390 2296 2407 2303 2286 2315 2345 2333 2316 2407 2398 2348 2451 2392 2380 2455 2376 2337 2469 2388 2445 2506 2419 2450 2518 2453 2601 2540 2588 2731 2631 2764 2661 2765 2855 2807 2890 2927 3011 3058 3058 2982 3114 3091 3113 3406 3344 3351 3417 3529 3600 3720 3854 3807 4104 4027 4324 4596 4621 4722 4961 4964 5091 5094 5330 5417 5249 5184 5173 5241 5244 5472 5218 5356 5257 5230 5384 5226 5181 5143 5146 5052 5069 5250 5162 5049 5269 5264 5217 5126 5253 5235 5285 5152 5271 5268 5381 5207 5252 5199 4960 5035 5031 4860 4818 4803 4654 4770 4609 4655 4662 4536 4513 4414 4415 4353 4250 4291 4016 4120 4015 3958 3767 3637 3664 3538 3506 3389 3242 3192 3156 3138 3067 3133 3041 2919 2939 2893 2914 2897 2891 2804 2859 2856 2718 2893 2749 2673 2716 2788 2761 2632 2646 2673 2616 2585 2604 2682 2654 2614 2617 2614 2679 2558 2561 2609 2473 2450 2525 2491 2565 2485 2466 2439 2448 2385 2436 2465 2516 2400 2441 2406 2432 2419 2454 2325 2388 2332 2372 2434 2458 2373 2420 2343 2401 2348 2332 2310 2347 2284 2312 2244 2346 2332 2376 2297 2336 2230 2247 2345 2279 2393 2190 2201 2340 2268 2273 2246 2180 2233 2221 2307 2216 2249 2320 2139 2224 2342 2364 2266 2276 2231 2267 2210 2235 2257 2288 2267 2170 2279 2225 2242 2217 2241 2254 2223 2306 2210 2202 2269 2274 2296 2149 2157 2191 2154 2253 2210 2269 2218 2231 2224 2295 2191 2157 2209 2198 2195 2252 2223 2221 2223 2173 2218 2192 2154 2186 2222 2210 2211 2155 2173 2224 2269 2213 2174 2239 2191 2191 2175 2287 2270 2305 2211 2220 2160 2084 2223 2254 2178 2190 2185 2311 2201 2282 2196 2176 2154 2187 2227 2243 2203 2134 2187 2140 2107 2214 2177 2269 2200 2147 2289 2107 2084 2207 2144 2123 2252 2127 2246 2264 2165 2114 2243 2168 2165 2189 2205 2174 2194 2146 2225 2168 2205 2204 2133 2263 2190 2290 2253 2179 2280 2252 2156 2149 2217 2157 2232 2290 2261 2261 2226 2303 2199 2202 2260 2241 2308 2169 2186 2262 2138 2305 2281 2253 2218 2201 2158 2254 2226 2171 2168 2214 2215 2282 2208 2236 2250 2224 2170 2180 2128 2275 2245 2286 2138 2277 2204 2209 2213 2221 2183 2262 2229 2174 2197 2167 2127 2227 2208 2141 2263 2137 2187 2188 2228 2231 2229 2141 2151 2285 2241 2147 2128 2231 2185 2226 2167 2119 2159 2117 2153 2223 2137 2166 2130 2064 2113 2087 2187 2284 2179 2162 2124 2237 2201 2145 2157 2186 2200 2146 2190 2152 2217 2114 2208 2160 2146 2246 2100 2177 2195 2115 2174 2123 2179 2171 2072 2222 2117 2209 2161 2136 2222 2102 2215 2106 2153 2093 2108 2190 2111 2110 2158 2142 2109 2095 2193 2144 2080 2062 2174 2143 2175 2159 2150 2129 2127 2091 2149 2066 2128 2091 2102 2175 2137 2105 2192 2043 2098 2177 2044 2113 2181 2044 2101 2164 2049 2106 2142 2099 2134 2215 2086 2162 2080 2083 2063 2108 2086 2104 2049 2151 2087 2184 2078 2095 2205 2117 2095 2072 1994 2071 2122 2051 2089 2049 2111 2157 2014 2091 2103 2066 2072 2069 2113 2130 2111 2115 2116 2092 2096 2110 2133 2109 2118 2103 2120 1997 2020 2083 2069 2061 2036 2093 2016 2017 2066 2165 2102 2053 2112 2064 2030 2117 2041 2102 2133 2083 2030 2109 2031 2111 2075 2107 2072 2042 2106 2004 2052 2063 2041 2079 2037 2060 2018 2073 2104 2083 2095 2032 2038 2048 2035 2055 2033 2135 2088 2030 2121 1966 2044 2125 2085 2072 2042 2071 2011 2073 2019 2017 1999 2013 1972 2049 1996 2013 2035 1970 2009 2048 2040 2132 2018 2024 2046 2060 2083 2109 2071 2087 2057 2016 2080 2003 1992 2030 2007 2007 2019 2026 2010 2060 2122 2048 2054 2072 2056 2073 2097 2018 2095 2056 2106 2056 2042 2034 2018 2054 2021 2073 2064 2040 2086 1983 1990 2072 2153 2040 2082 2063 2092 2005 2141 2112 2056 2065 2020 2072 2045 2146 1978 1972 2051 2059 2146 2133 2109 2053 1994 2123 2031 2046 2150 2093 2147 2048 2089 1975 2102 2109 2086 2036 2052 2169 2090 2001 2061 2122 2054 2113 1973 2055 2062 2106 2052 2027 1992 2057 2032 2030 1980 2046 2076 2023 2061 2107 2051 2101 2019 2087 2123 2027 2129 2098 2036 1965 2022 2019 2072 1992 2038 2074 2014 1977 2021 2070 2052 2063 2035 1999 2034 2021 2067 1987 2029 2023 2077 2125 2084 2096 2009 2000 2053 1963 1989 2037 2009 1956 2079 2029 2104 2027 2020 2115 2056 2036 2082 1982 2106 2040 1980 2065 2106 2108 1971 2061 2036 2023 2030 1910 2029 2061 1963 2006 2003 2104 2099 2050 1972 2002 2059 2047 2028 2105 1965 2008 2022 2061 1977 2028 2050 2053 2096 2074 2047 2110 2058 2111 2071 2000 1982 2085 2016 2031 2052 2092 2080 2033 2050 2022 1967 2062 2060 2089 2059 2051 2097 2124 2123 2105 1952 2093 2094 2114 2086 2052 2055 2068 2024 2086 2086 2029 2026 2105 2040 2042 2118 2117 2018 2111 2106 2047 2007 2031 2105 2081 2042 2056 2015 2026 2024 2076 2046 1959 2032 2137 2047 2000 2071 1987 2134 2006 2015 2020 2048 2027 2026 2072 2126 2049 2083 2112 2018 2109 1979 2017 2017 1995 2024 2060 2059 2045 2125 2043 2017 1999 2127 2053 2072 1989 2076 2012 2001 2063 2087 1980 2118 2074 2033 2046 2080 2035 2041 1972 2062 2076 1976 2013 2054 2041 1958 2030 2011 2029 2017 2094 2004 2033 2013 2036 2085 2055 2046 1985 2104 2078 2037 2057 2040 1937 1978 2053 2176 2049 1981 1994 2016 2029 2063 2008 1984 2126 2055 2080 2115 2033 1999 2088 2004 2043 2053 2091 2055 1973 2019 2077 2092 2067 2084 2046 2113 2017 2177 2089 2070 2062 2081 2015 2090 2047 2122 2065 2042 2122 2016 2054 2009 2070 2105 2115 2061 2100 2201 2115 2095 2075 2119 2140 2087 2122 2047 2104 2078 2133 2146 2132 2103 2163 2156 2222 2189 2110 2217 2213 2210 2223 2286 2211 2233 2257 2230 2268 2283 2317 2257 2310 2394 2267 2436 2313 2345 2342 2452 2397 2362 2356 2341 2351 2257 2518 2287 2315 2341 2337 2354 2345 2375 2245 2268 2226 2255 2305 2260 2283 2319 2288 2314 2201 2315 2273 2314 2313 2222 2276 2268 2256 2269 2334 2319 2350 2285 2277 2185 2185 2216 2219 2243 2253 2237 2255 2223 2174 2129 2220 2248 2154 2185 2234 2166 2095 2133 2142 2187 2119 2147 2127 2119 2083 2188 2142 2156 2032 2163 2129 2068 2063 2085 2202 2124 2113 2081 2115 2079 2143 2143 2077 2069 2114 2095 2077 2039 2035 2036 2072 2085 2151 2128 2084 2025 2072 2134 2099 2087 2096 2053 2083 2031 2090 2066 2076 2096 2080 2117 2172 2033 2067 2071 2140 2159 2158 1983 2102 2096 2014 2129 2034 2119 2069 2036 2076 2159 2093 2132 2175 2018 2048 2081 2125 2080 2079 2062 2139 2161 1993 2108 2090 2069 2056 2024 2111 2039 2083 2019 2100 2108 2072 2061 1996 2054 2025 2102 2040 2127 2142 2101 2063 2034 2068 2051 2111 2088 2041 2046 2031 2036 2030 2099 2081 2056 2073 2084 2031 2086 2069 2027 2035 1939 2076 2027 2131 2059 2082 2088 2092 2035 2078 1993 2030 2054 1984 2058 2002 2072 2082 2141 2013 2059 2093 2015 2126 2017 2026 2050 2074 2048 2015 2137 2014 2030 2067 2063 2088 2019 2156 2098 2054 2076 1996 2095 1994 2049 2061 2050 2045 2043 2082 2023 2114 2071 2090 2104 2057 2064 2026 2108 2047 2058 2058 2082 1980 2068 2133 1980 2117 2114 2067 2073 2087 2077 2044 2089 1970 2075 2119 2052 2052 2062 2067 2129 2021 1976 1974 2081 2051 2099 2077 2099 2080 2103 2039 2015 2032 2070 2103 2010 2085 2087 2169 2043 2015 2139 2081 2034 1987 2051 2063 1983 2130 2115 2036 2004 2110 2126 2148 2004 2045 2077 2112 2041 2039 2089 2028 2062 2135 2082 2055 2083 2069 2113 2095 2062 2099 2103 2086 2099 2086 2159 2164 2155 2130 2108 2060 2080 2096 2103 2186 2220 2244 2241 2237 2149 2192 2236 2259 2351 2307 2293 2364 2364 2420 2361 2366 2393 2527 2439 2488 2492 2495 2421 2583 2569 2646 2536 2531 2608 2630 2751 2781 2691 2777 2746 2720 2768 2859 2895 2902 2924 2963 2988 3039 3150 3065 3081 3167 3248 3215 3434 3355 3555 3469 3406 3486 3442 3561 3504 3416 3389 3468 3499 3495 3575 3499 3433 3519 3425 3456 3479 3440 3434 3383 3300 3385 3335 3186 3319 3221 3233 3159 3269 3045 3182 3083 3045 3049 3091 2988 3004 3122 3068 3043 3052 2976 2995 3022 2956 2998 2999 2877 3086 2993 2986 2912 2946 2924 2879 2987 2872 2876 2851 2838 2807 2891 2849 2767 2727 2797 2777 2665 2714 2715 2752 2629 2684 2614 2728 2609 2659 2499 2526 2502 2536 2539 2534 2603 2439 2537 2522 2500 2595 2546 2587 2689 2639 2611 2665 2628 2686 2636 2570 2597 2607 2670 2677 2587 2657 2600 2520 2590 2586 2660 2573 2539 2560 2624 2507 2578 2450 2574 2493 2433 2489 2434 2454 2369 2415 2441 2411 2411 2355 2394 2297 2364 2350 2303 2239 2321 2241 2298 2287 2381 2273 2239 2294 2166 2206 2178 2151 2184 2173 2189 2136 2164 2088 2141 2172 2110 2045 2118 2166 2124 2118 2123 2043 2124 2100 2010 2042 2130 2095 2133 2111 2094 2096 2012 2031 2074 2087 2060 2147 2097 2052 2093 2091 2044 2097 2161 2112 2051 2138 2149 2054 2245 2127 2164 2155 2121 2163 2198 2213 2129 2187 2199 2181 2190 2129 2140 2171 2164 2200 2181 2118 2186 2199 2173 2207 2191 2156 2227 2250 2174 2090 2118 2182 2151 2236 2243 2219 2214 2180 2211 2134 2249 2232 2201 2214 2301 2193 2265 2145 2193 2182 2210 2153 2231 2206 2189 2171 2243 2175 2198 2139 2156 2130 2190 2081 2147 2078 2089 2147 2152 2135 2098 2118 2046 2135 2128 2109 2123 2075 2121 2074 2077 2044 2084 2094 2107 2172 1998 2097 2033 2117 2127 2046 2160 2106 2123 2147 2124 2070 2099 2065 2176 2000 2030 2047 2002 2018 2039 2078 2073 2068 2086 2077 2107 2163 2047 2058 2037 2035 2074 2090 2049 2030 2117 2009 2083 2116 2037 2054 2221 2095 2148 2163 2144 2164 2217 2217 2155 2191 2031 2167 2197 2274 2182 2244 2219 2199 2175 2194 2185 2196 2222 2116 2243 2106 2233 2173 2145 2113 2169 2086 2232 2054 2197 2117 2089 2132 2152 2082 2155 2126 2137 2115 2164 2098 2049 2052 1993 1990 2120 2055 2126 2102 2103 2087 2061 2112 2064 2086 2020 1961 2084 2055 2056 2004 1977 2067 2023 2081 2058 1968 2114 1956 1957 2008 1893 1996 1984 1976 1986 2022 2063 2040 2029 2029 2022 1971 1982 1938 2012 1974 1976 2001 2052 2030 2056 1974 1970 1986 1958 1943 1932 2021 1966 1999 1938 1951 2004 2021 1992 1990 1943 1965 1978 2043 1918 1985 1980 1947 1943 1977 1931 2013 2044 1984 1980 2008 1930 2041 2003 1956 1999 1987 1915 1927 2051 1924 1930 1956 2015 2007 2037 1975 1911 1941 2005 1977 2028 1989 2076 2021 2050 2018 1987 1926 2028 1952 1946 1983 1987 1973 1981 2040 2006 1889 1959 1995 1915 2048 1958 2018 1972 2031 1964 1882 1908 1998 1968 1979 1947 2005 2016 1965 1930 1979 2002 1942 1998 1982 2003 2010 2023 1969 2087 1978 1988 1920 1970 2001 1953 1871 1964 1958 1952 1942 1928 1988 2016 1989 1970 1936 2036 1996 1981 2004 1950 1988 1956 1911 1986 1953 1889 1951 1903 2007 1892 1986 1983 1952 2048 2024 1990 1995 1984 1958 2047 1951 2026 1931 1940 1984 2023 1949 2019 1996 1980 1948 2011 1975 2048 2006 2022 2063 1942 2011 1986 1900 2027 1936 1995 2026 1958 2006 1996 2001 1984 1956 1992 2040 1956 1913 1941 1928 1946 2016 1937 2005 2024 1926 2034 1979 1919 2042 2018 1946 2026 1942 1955 1979 1973 2018 1939 1872 1925 1937 1967 2045 1945 2002 1986 1922 1993 1978 1918 1958 2023 2019 2000 1989 1946 1939 1997 2011 2086 1921 1968 1943 1910 1989 1999 1950 1986 1907 1954 1985 1907 1947 1949 1910 1954 1984 1883 2020 2015 1999 2019 1987 1920 2036 1918 2014 2015 1999 1968 1942 1952 1925 1929 1964 2006 1979 2029 1999 1955 1958 1963 1999 1915 1866 1887 2025 2025 1942 1987 1998 1983 2057 2050 1983 2054 1969 1991 2080 1967 2037 1948 2063 1968 1987 2062 1935 1987 1952 1899 1965 2064 1914 1980 1968 1983 1977 1965 1974 1952 1975 1903 2025 1896 1928 2042 1966 1921 2028 2069 1966 2063 1956 2023 1987 2048 1877 2026 1994 1936 2010 1910 1939 1958 1920 1917 1979 1948 1980 1961 2009 1972 2001 1999 1947 1899 1972 1985 1961 1950 1976 1999 1998 2065 2055 2034 1920 1948 2079 1986 2018 2019 1925 1961 1939 1990 1878 1962 1962 1965 1978 2005 2011 1914 2001 1988 2026 2037 1956 1989 1960 1948 2025 1983 2031 2079 2088 1977 1966 2050 1960 1936 2087 2054 1979 1991 2001 1922 1967 2049 1988 2001 2071 1958 2011 2014 2122 2060 1999 2000 2022 2001 1988 2004 2107 2103 2056 2047 2066 2022 2041 2047 2024 2028 2100 2047 2039 2055 2181 2056 1997 2078 2030 1992 2046 1969 2126 2075 2121 2099 2097 2056 2086 2008 2166 2073 2172 1992 2049 2124 2129 2067 2108 2112 2164 2142 2188 2066 2088 2111 2153 2024 2092 2115 2157 2142 2257 2180 2121 2113 2076 2148 2114 2155 2167 2171 2122 2142 2173 2102 2081 2132 2199 2117 2172 2004 2087 2086 2089 2063 2031 2186 2128 2105 2104 2087 2188 2070 2149 2115 2147 2146 2188 2170 2219 2209 2244 2201 2247 2279 2220 2213 2209 2139 2264 2109 2298 2233 2238 2283 2286 2244 2248 2219 2192 2225 2245 2151 2200 2189 2228 2207 2171 2239 2121 2212 2177 2094 2223 2099 2151 2157 2115 2150 2091 2068 2019 2115 2147 2018 2047 2065 1978 2107 2035 2072 2094 1992 2060 1980 2054 1978 2039 2034 2046 1970 2024 1909 1991 2045 2047 2032 2039 1952 2051 1904 2008 2064 2017 2016 2070 1938 1988 1945 2021 1922 2020 1936 1964 2006 1954 2025 2083 1947 1993 2009 1931 2009 1913 1943 1942 2014 1989 2083 1941 1917 1913 1976 2011 1964 1901 2025 1994 1961 2039 1876 2008 1971 1958 1899 1945 2048 2016 1969 1935 1969 2031 1960 2004 1876 2018 1981 1962 1932 2004 1992 1949 1995 1948 2006 1924 1971 1918 1940 1965 2085 1957 1996 2002 2003 1920 1941 2022 1911 2068 2009 1973 2058 2030 2001 2018 2001 2000 2068 2057 2041 2021 2087 2035 1971 2032 2060 2049 2061 2120 2013 2166 2044 2076 2067 2140 1987 2075 2064 2164 2136 2164 2101 2085 2101 2140 2014 2182 2176 2156 2159 2175 2221 2129 2161 2237 2141 2110 2220 2250 2158 2138 2157 2287 2152 2198 2275 2244 2300 2298 2311 2289 2258 2330 2321 2346 2293 2361 2320 2260 2306 2280 2349 2374 2345 2331 2292 2296 2190 2297 2284 2217 2378 2363 2355 2225 2292 2275 2259 2211 2257 2159 2185 2222 2246 2208 2258 2133 2278 2214 2153 2159 2187 2184 2197 2185 2118 2091 2078 2158 2175 2135 2139 2098 2115 2253 2192 2151 2163 2212 2062 2188 2197 2156 2170 2198 2146 2207 2206 2186 2237 2133 2138 2072 2174 2214 2136 2179 2192 2144 2145 2100 2138 2125 2087 2166 2162 2078 2152 2107 2092 1979 2057 2124 2139 2057 2165 2072 2148 2031 2087 2115 2050 2031 2039 2098 2052 2104 2081 2067 2055 2083 1858 2010 2047 2007 2061 1953 1961 1907 1967 2046 2035 2055 2000 2034 2070 2001 1982 2063 2042 2008 2002 2034 1971 1999 2023 1986 1978 2012 2044 2065 2009 1989 2042 2022 1966 2012 2002 1930 2025 2045 1973 1964 1928 2037 2055 2088 2112 2101 2031 2057 2024 2071 2046 2082 2067 2053 2064 2155 2020 2220 2060 2101 2129 2038 2163 2130 2121 2077 2064 2120 2102 2084 1997 2075 2030 2086 2115 2212 2155 2094 2085 2103 2114 2133 2107 2131 2031 2188 2152 2064 2058 2101 2095 2093 2073 1951 2056 2152 2075 2169 2136 2074 2089 2047 2003 2023 2121 2079 2075 2083 2207 1949 2109 1997 2085 2089 2015 2049 2034 1998 2031 2008 2063 2054 2030 2003 2056 2041 2012 2048 2101 1992 2067 1941 1985 1987 2041 1984 1913 2014 1980 2067 1964 2035 2023 2016 1989 2070 1945 1958 1979 1996 2069 2003 1963 2035 2034 2010 1958 1967 1980 1979 1959 2000 1962 1950 1938 2031 1977 2055 1963 1926 1999 1935 1947 1949 2044 1998 1977 1959 2018 1894 1957 2085 1934 1952 1977 2047 1926 1999 1893 2000 1961 1964 1989 1941 1961 1944 1947 1995 1931 1936 1873 1936 1946 1960 2027 1975 2004 2017 2045 2002 1969 1946 1962 2067 1941 1986 1956 2065 1953 1951 2023 1960 1954 1898 1972 2009 1955 1922 2057 1998 2017 1936 1976 2001 1967 1929 2005 1896 2008 1970 1939 1974 1946 1981 2005 1985 1999 1955 2059 1985 1924 2049 1966 1955 1942 1928 1929 1914 1985 1953 1861 1957 2064 1905 1967 1932 1999 1897 2008 2019 1939 2000 2004 1896 2003 1936 1900 1978 1906 1924 1918 1948 1888 1998 1982 2005 1896 1911 1962 1943 1945 1909 1997 1982 1882 1970 1899 1938 1982 1930 1953 1948 1932 1955 1949 1943 1892 2017 1930 1961 1935 1949 1933 2054 1998 1925 1923 1887 1974 1912 1955 1911 1861 1905 1901 1910 1970 1918 1920 1872 2007 1959 1911 1997 1917 1954 2032 1924 1959 1998 1911 1960 1879 1955 1930 1925 1975 2015 1984 1848 2003 1940 1888 1924 2029 1934 1861 1891 1917 1903 1943 1924 1892 1968 1913 1910 1984 1937 1800 1850 1868 1958 1873 1927 1910 1932 1950 1832 1966 1901 1897 1952 2000 1825 1896 1964 1938 1962 2062 1904 1860 1974 1966 1871 1968 1919 1959 1900 1933 2011 1959 1917 1911 1966 1885 1854 1825 1919 1896 1908 1943 1916 1980 1909 1879 1946 1903 1897 1912 1958 1901 1987 1980 1990 1855 1945 1944 1984 2031 1989 1859 1917 1962 1893 1867 1900 1916 1880 1905 1892 1974 1912 1914 1888 1932 1871 1896 1957 1995 1983 1987 1896 1965 1891 1901 1987 1991 1946 1854 1938 1966 1949 1936 1809 1873 1997 1846 1902 1886 1926 1942 1992 1919 1999 1991 1939 1960 1975 1913 1937 1902 1931 1896 2028 1904 1914 1946 1950 1962 1927 1883 1972 1912 1896 1886 1925 1886 2013 1906 1860 1917 1924 1941 1830 2018 1920 1886 1926 1909 1908 1937 1980 1864 1935 1806 2008 1912 1987 1949 1896 1966 1973 1901 1878 1892 2012 1949 1942 2011 2005 1960 1917 1934 1987 1979 1970 1962 1889 1926 1956 1921 1958 1908 1922 2015 1944 1917 1924 1943 1916 1963 1871 1876 1967 1984 2040 1958 2019 1989 1943 1915 1973 1906 2083 1912 1890 1927 1943 1920 1978 2105 2069 2030 2013 1987 2020 2064 1969 1898 1953 1966 1931 2038 1964 2060 2042 2016 1971 1989 1962 1960 1939 2020 2013 1948 2061 1927 1979 1982 1974 2007 2012 1928 2021 2001 1990 1909 1972 2033 1991 2041 2002 2120 2097 2003 2058 1949 1957 2010 1951 1933 1982 2034 1954 2035 1893 1978 1905 1995 1960 1960 1951 1892 1968 1946 1965 1978 1916 1951 1990 1910 1887 1924 1952 1980 2021 1926 1873 1922 1870 1858 1905 1970 1980 1878 1947 1942 1960 1920 1952 1928 1856 1858 1928 1999 1926 1915 1947 1899 1979 1975 1950 1941 1933 1969 1930 1952 1981 1897 1993 1960 1966 1904 1978 1912 1994 1905 1988 1947 1914 1959 1961 1959 1950 1863 1890 1907 2040 1951 1932 1912 1893 1925 1978 1860 1957 1957 1952 1910 1902 1787 1919 1938 1998 1856 1813 1932 1917 2002 1977 1905 1923 1966 1999 1911 1942 1956 1941 1921 1854 1930 1931 1995 1941 2003 1970 1966 1957 1929 1954 1922 1932 1943 1983 1886 1923 1938 2000 1976 1878 1916 1957 1995 1938 2011 1954 1889 1942 1991 1934 1930 1950 1929 1991 1925 1902 1940 1988 1992 1997 1914 1933 1963 1990 1962 1905 1980 1948 1927 1930 1982 1974 1941 1950 1944 1916 1865 1954 1993 1972 1930 1858 1934 2025 1956 1941 1966 1905 1955 1967 1897 1968 1946 1965 1960 1966 1918 2028 1960 1896 1994 1988 2036 1925 1946 1888 1883 2013 1978 1925 1962 1864 1969 1918 2006 1946 1926 1934 2006 1877 1957 1961 1885 1951 1939 2010 1871 2001 2013 1967 2001 2005 1962 1963 1960 1958 1937 2010 1922 1977 1997 1985 1955 1981 1973 1971 1939 2032 1962 1880 1959 1954 1971 1975 1960 2135 1944 1953 1910 2001 1991 1970 2094 1956 1986 1951 2042 1938 1975 2006 1993 2021 2073 1982 2030 2054 1946 1987 2007 2138 1974 2043 2049 2054 2058 2013 2102 2111 2008 2044 2022 2052 2037 2061 2120 2050 2064 2064 2083 2117 1992 2115 2083 2168 2105 2040 2118 2059 2022 2103 2056 2099 2050 2056 2075 2054 1973 2111 2096 2023 2147 2071 1943 2019 2056 2054 2064 2062 2037 1963 2025 2044 1992 1978 2037 2005 1970 2058 2055 2061 2019 2078 2041 1986 2000 1956 2038 1976 1977 2026 2009 1996 2090 1985 2060 1937 2010 1989 2075 1960 2035 2009 2021 1988 1989 2034 1999 1998 2070 2086 2054 2092 1933 2065 1976 1954 2039 1991 2010 2066 2014 2053 1949 1973 1985 2017 1934 2076 2031 2025 1970 1979 1963 1969 1987 2010 1964 2041 1984 2042 1972 2033 2017 2014 1945 1961 2024 1955 1968 1919 1950 1918 2004 1925 2040 1869 2047 1962 2013 1954 1992 1963 1932 2031 2005 1999 1963 1975 1877 1992 1942 1937 1932 1889 1884 1924 1967 1880 1903 1932 1941 1953 1964 1996 1939 1947 1990 1891 1967 1976 1909 1934 1913 1955 1865 1989 1857 1973 1938 2002 1896 2055 1925 2044 1940 1969 1989 1930 1959 1982 1873 1938 1867 1920 1948 1967 1913 1953 1926 1925 2021 2005 1904 1916 1949 1944 1892 1931 1934 1986 1935 1880 1917 1962 1968 1918 1924 1926 1925 1947 1905 1834 1948 1849 1831 1932 1990 1953 1953 1931 1905 1966 2014 1867 1864 1884 1991 1894 1909 1866 1982 1925 1978 1917 1928 1879 1961 1945 1842 1964 1848 1926 1923 1965 1885 1876 1939 1964 1903 1962 1941 2009 1974 1918 1959 1945 1914 1839 1935 1987 1880 1851 1931 1913 1950 1913 1872 1915 1939 1985 1916 1943 1945 1894 1960 1941 1969 1913 1964 1974 1962 1889 1954 1902 1928 1930 1947 1926 1914 1959 1990 1921 1873 2032 1898 1972 1866 1895 1944 1899 1937 1977 1861 1859 1991 1899 1969 1892 1848 1961 1849 1931 1963 1889 1878 1978 1957 1913 1943 1904 1929 1896 1870 1877 1963 1978 1933 1955 1919 1918 1866 1918 1902 1860 1959 1954 1976 1912 1818 1936 1962 1881 1938 1870 1882 1937 2021 1952 1906 1868 1937 1862 1909 1894 1969 1903 1944 1953 1886 1970 1955 1962 1999 1876 1966 1955 1928 1996 1936 1927 1951 1889 1984 1900 1924 1993 2040 1948 1950 1960 1900 1922 1915 1930 1947 1990 1946 1943 1940 1987 1954 1945 1896 2003 1931 1963 1873 1965 2058 1927 1857 2044 1987 1939 1889 1887 1943 1925 1879 1996 1930 1942 1996 1913 1891 1909 1938 1966 1948 1933 1900 1918 1871 1900 1972 1874 1961 1834 1896 1952 1867 1935 1977 1901 1897 1925 1901 1956 1877 1918 1914 1946 1946 1916 1886 1901 1906 2002 1887 1922 1895 1979 1981 1896 1924 1937 1873 1954 1971 1965 1936 1958 1878 1817 1913 1917 1877 1986 1951 1995 1952 1906 1854 1932 1879 1905 1899 1975 1887 1956 1823 1894 1934 1951 1958 1930 1857 1951 1864 1863 1991 1923 1883 1959 1942 1858 1905 1958 1930 1920 1898 1901 1898 1894 1952 1943 1917 1938 1963 1977 1811 1881 1943 1914 1995 1930 1859 1950 1929 1930 1906 1921 2007 1959 1907 1960 1884 1869 1897 1950 1815 1996 1928 1954 1869 1978 1943 1904 1906 1894 1909 1945 1934 1930 2008 1939 1845 1940 1965 2014 1860 1885 1922 2025 1917 1874 1917 1981 2001 1964 1980 1949 1873 1958 1933 1962 1958 1887 1996 1896 1966 1917 1926 1926 1872 1972 1941 1958 1974 1984 1957 1988 1948 1985 1956 2009 1927 1874 1930 1955 1951 1967 1954 1958 1868 1945 1837 1889 1996 1935 1971 2034 1919 1952 1983 1935 1987 1928 1997 1961 1970 1923 1949 1937 1898 1921 1940 1992 1894 1943 1924 1961 1911 1897 2013 2003 2000 2001 1942 1984 1924 1972 2029 1946 1932 1913 2047 2005 1973 2048 1911 1890 1967 1898 2019 1993 2004 1945 2008 2008 1987 1965 1998 1958 1873 2037 2047 1982 2023 1977 2016 2078 1858 1974 2028 1966 1948 1977 1958 2007 2032 1926 2007 1911 2023 2032 2098 1959 1982 1929 2032 1876 1995 1968 1992 1990 2013 1980 1952 1953 2031 2070 1971 1997 1995 2011 1985 2035 1951 1964 2028 1987 1967 1963 1901 2025 1999 1960 1999 1910 2028 2019 2016 1961 2025 1905 1963 1939 1873 1982 2015 1948 1889 2071 2006 2033 2034 1981 2006 1989 2018 1936 2036 1968 1966 1965 1985 1963 2046 1922 1934 2009 2025 1924 1936 1960 2007 1988 1965 2012 2077 2004 2052 1913 1979 2060 1875 1976 1991 2015 2071 1894 2021 2000 2111 1919 2031 2018 1987 1936 1982 1926 1971 1959 1994 1928 1985 1957 1980 2014 1945 1970 2028 2033 2038 1968 1986 2021 1954 1925 1979 2009 2009 1991 1957 1980 1984 1987 2129 2029 2045 2021 2104 1970 1967 2022 2056 2067 2017 2008 2091 2085 2072 2035 2080 1980 2060 2124 1997 1999 2010 2019 2031 1991 2122 1960 2065 1909 2007 2041 2021 1998 2041 1922 2063 2078 2007 2010 2052 2013 1982 1978 1940 1881 1952 1909 2060 2004 1972 2007 1926 1923 2039 1985 2066 2004 2016 1973 2001 2045 1962 2079 2045 1987 2092 2040 1992 2017 2032 1979 1984 1994 2050 2009 1980 2070 1961 1954 2118 2060 2034 2065 2021 2084 2110 2090 2043 2122 2194 2034 2090 2014 2078 2066 2045 2063 2062 2017 2078 2062 2037 2086 2076 2002 2085 2064 1977 2047 2103 2054 2037 2110 2100 2064 2129 2141 2073 2174 2104 2112 2137 2134 2065 2183 2197 2063 2114 2170 2145 2102 2196 2227 2190 2136 2237 2152 2286 2220 2133 2136 2197 2197 2227 2184 2150 2240 2266 2211 2309 2190 2275 2245 2182 2209 2260 2253 2301 2283 2288 2270 2152 2239 2183 2263 2285 2169 2132 2289 2339 2195 2169 2189 2208 2209 2192 2227 2203 2141 2179 2152 2161 2058 2209 2084 2140 2156 2105 2085 2151 2084 2175 2154 2124 2189 2135 2026 2124 2019 2094 2089 2136 2034 2124 2017 2042 2058 2007 2002 2017 2116 2147 2111 2048 2060 2067 2104 2064 2095 2115 2052 2135 2113 2079 2090 2054 2114 2102 2078 2138 2172 2032 2114 2197 2242 2205 2148 2153 2114 2221 2134 2165 2259 2132 2130 2231 2124 2240 2235 2201 2277 2139 2151 2205 2266 2228 2129 2124 2202 2219 2211 2251 2185 2103 2179 2075 2227 2162 2135 2161 2110 2130 2119 2004 2128 2043 1991 2098 2120 2081 2097 2062 2073 2043 2110 2091 2114 2119 1982 1989 2037 2066 2029 2107 1926 2014 1985 2113 2002 2054 2020 1968 1980 2005 2092 2036 2079 2062 1952 2007 2027 2101 2084 2021 1989 1971 1999 1989 2067 2069 2015 2076 2020 2015 2006 2168 2026 1998 2012 2021 2069 2019 2082 2128 2079 2111 2035 1956 1993 2107 2081 2127 2061 2033 1957 2132 2048 1927 2017 2024 2057 2084 2025 2004 2078 2101 2047 2060 2048 2135 2086 2035 2046 2013 2027 2079 2067 2112 2110 2065 2029 2120 2078 2035 2089 2107 2065 2073 1917 2097 2116 2027 2098 2082 2072 2123 2023 2107 2101 2053 1982 2060 2014 2090 2041 2122 2088 2044 2102 1997 2070 2083 1997 2132 2020 2004 2036 1982 2028 2002 1998 2054 2015 1941 2013 1956 1983 1894 2063 2062 2021 1942 2032 1919 2062 1930 1845 1951 2010 2017 2039 1999 2038 1984 1977 2006 2046 1912 1912 1978 2040 2006 2012 1930 1965 1933 2015 2067 1917 1985 1957 2003 1916 1891 1951 2021 1970 2007 2059 1972 1925 2012 1935 2037 1989 1898 1939 2062 1923 1976 1993 2037 1992 1976 1974 1982 2034 2111 1919 1992 1983 1940 2097 1930 2007 1969 2025 1944 1962 2013 1972 1860 1973 1852 1906 1969 1949 1983 1951 1933 1959 1976 1977 1919 1953 1901 1910 1907 1902 1910 1963 1903 1980 1951 1951 1879 1951 1909 1935 1964 1908 1913 2063 1948 1969 1930 1938 1973 1992 1906 1901 1921 1885 1989 1851 1968 1933 1943 1945 1943 1941 1993 1898 1962 1929 1989 1990 1982 1983 2010 1895 1901 1915 1946 2032 1901 1979 1904 1973 1940 1943 1880 1980 1875 1942 1955 1957 1891 1908 1917 1888 1944 1888 1960 1906 2005 1939 1954 1944 1981 1918 2044 2085 2061 2025 1929 1951 2026 1874 1912 1885 1981 1840 1921 1996 1956 1984 2013 1931 2001 1951 1972 1933 2050 1959 2011 1999 2001 1963 1979 1968 1957 1933 1929 1950 1938 1963 2028 1937 1974 1960 1932 1914 1907 1961 1856 1989 1966 1922 1992 1933 1953 1908 1964 1869 1976 1904 1872 1999 1923 1926 1985 1993 1933 1971 1979 1867 1918 1884 1967 1943 1899 1961 1946 1947 1949 1956 1876 1893 1915 1938 1912 1931 1894 1959 1925 1906 1932 1903 2022 2010 1938 1872 1945 1940 1913 1875 1941 1861 2032 1921 1928 1986 1931 1983 1922 1919 1992 1942 1898 2005 1874 2011 1969 1870 1920 1896 1933 1945 1943 1894 1966 1908 2016 1989 1975 1933 1920 1911 1880 1964 1909 2018 1882 1991 1935 1947 1926 2003 1902 1880 1937 1989 1913 1949 2094 1901 1898 1949 1979 1939 1918 1879 1954 1991 1957 1933 1979 1924 1993 1973 1875 1945 1957 2045 1985 1943 1922 2025 1923 1936 1937 1999 1984 1950 1973 2048 2054 1958 1903 1971 1921 1935 1952 2021 1991 1887 1940 1935 1909 2011 1945 2035 2027 1996 1911 1994 1948 1998 1944 2023 1964 1961 2034 2001 1941 2055 1908 2014 2050 1959 2012 2010 2022 2027 1923 2031 1955 1986 1948 1929 1980 1976 1934 1875 2008 1950 2009 1999 1915 1976 2006 2055 1950 1855 2011 1996 2026 1988 1952 2005 2049 1962 1984 1929 1955 2022 1984 1956 1911 1907 1932 1922 1958 1953 1972 1977 2011 1904 2014 1914 1874 1956 1986 1901 1922 1993 2056 2049 2028 1982 1898 1993 1898 1896 2057 1938 1987 1999 1873 1932 2001 1943 1892 1955 1903 1947 2018 1936 1975 1903 1975 1911 1893 1961 1966 1936 1939 1990 1944 1891 1865 1980 1971 1992 2000 1954 1994 1982 1931 1945 1952 1956 1936 1908 1981 1950 1985 2032 1914 1958 1978 2036 2003 2070 1959 1981 1937 1997 1903 1931 1968 1907 1971 1984 1959 1961 1879 1978 1937 1862 1943 2026 1945 1938 2003 1892 1963 1990 1897 1987 2035 1969 1916 2074 1923 1936 1999 1904 1939 1961 1951 1941 1913 1829 2018 1924 1956 1972 1900 1903 1891 1972 1890 1974 2016 1998 1982 1977 1888 2009 2030 2041 2041 1936 1961 1906 1870 1932 1874 2002 1958 1950 2030 2061 1965 1984 2004 1931 2029 1973 1962 1935 1975 1935 1938 1984 1965 2026 1932 1952 1967 1981 1998 1946 1958 2003 2011 2055 2003 1995 2046 2080 2085 1990 2102 1995 1980 2074 2139 2031 2037 2046 2027 1989 2046 1996 2047 1997 1947 2031 1970 1978 1981 2018 1912 1999 1968 2008 1968 1907 2107 1950 1970 2025 2094 2013 2060 2008 2037 2034 1997 1984 2060 2058 2050 2031 2098 2013 2061 2032 2119 2108 2024 1964 2044 2097 2137 2107 2101 2076 2143 2056 2197 2088 2138 2046 2087 2079 2104 2088 2213 2154 2078 2206 2187 2149 2175 2231 2172 2214 2262 2155 2226 2216 2183 2136 2126 2162 2279 2139 2205 2119 2110 2196 2127 2218 2163 2194 2140 2118 2129 2138 2110 2183 2078 2063 2237 2130 2145 2158 2122 2094 2115 2050 2055 2077 2055 2116 2104 2110 2090 2059 2027 2112 2017 2022 2007 2001 1983 2028 2048 2036 2061 2066 1994 1950 1973 1990 1935 2023 2002 1915 2019 2023 2054 1996 1968 2044 2059 1985 1922 1991 2052 2050 1930 2049 1998 2024 1959 2078 2024 2004 1999 2018 1885 2025 1987 2034 2050 2010 2133 2082 2119 2064 1953 2104 2073 2010 2041 1996 2033 2129 2083 2091 2128 2049 2018 2042 2080 2076 2025 2015 2078 2056 2069 2069 2048 2100 2006 2133 2070 1970 2060 2085 2132 2054 2091 2067 2025 2055 2038 2028 2026 1992 1987 2054 2048 1969 2049 2030 2012 2051 2026 1987 2086 2072 1988 2042 1987 2039 1949 1978 2019 2028 1987 2086 2023 2039 2015 2044 2051 2080 2106 1959 1992 2049 1929 1978 2017 2004 1972 1987 2045 1961 1907 1996 1989 1943 2040 1966 1942 2037 2104 2006 2033 1968 2009 2019 1961 2028 2014 2006 2046 2046 2003 1969 1937 1954 2016 1989 1926 2005 1936 2035 1967 2052 1984 1994 2066 2017 2065 2085 1991 2066 2037 2030 2135 2009 1956 2045 1961 2031 2020 2039 2007 2053 1997 1946 1928 2055 2037 2018 2002 1996 2072 2020 2007 2007 2127 1979 2048 1952 2011 1946 1970 2008 2011 2022 2062 2068 2013 1996 1947 1992 1952 1989 2029 2011 2030 1958 1983 1995 1971 2029 1949 1971 1948 1876 1987 1891 1992 2022 1876 2039 1977 1945 2000 1939 2028 1942 1987 1975 1906 1963 2030 1993 1950 1892 1940 1908 1926 2006 1996 1943 1944 1976 1923 2009 1929 1959 1945 1959 1882 2002 1994 1862 1975 2008 2015 1930 1894 1999 1988 1948 1970 1962 1877 1918 1903 1937 1993 2050 2010 1919 1933 1988 2016 1956 2050 2038 1946 1904 1891 1997 2031 1946 1971 1953 1959 1913 1924 1974 1967 1910 1994 2059 1925 1950 1920 1977 1960 1985 1935 1965 1980 1919 1967 1947 1998 1988 1971 1918 1901 1984 1972 1943 1915 1900 2025 1935 1926 1899 1903 1920 1979 2027 1906 2051 1937 2016 1953 1941 1905 1944 1994 1981 2001 1983 1911 1933 1990 1950 1970 1933 2025 1973 1959 2028 2018 1917 2036 1977 1979 1991 1960 1998 2014 1984 1933 1925 1864 1904 1939 1960 1989 1978 1939 1954 1964 1991 1935 1946 1969 1990 1984 1969 1927 2003 1962 1945 1909 1923 2005 1973 1902 2057 1918 1905 1921 2069 1975 1997 1981 1934 1837 1895 1900 1933 1885 1902 1916 1905 1876 1895 2064 1947 1918 1968 1952 1962 1900 2023 1966 1968 2042 1938 1949 1903 1965 1974 1859 2050 1977 1953 1967 1924 1982 1898 2015 1971 1959 1967 1942 1911 1971 1852 1957 1887 1941 1966 1953 1964 1940 1862 1921 1919 1942 1956 1920 2014 1860 1889 2029 1990 1895 1971 1911 1861 1937 1999 1934 1890 1961 1931 2000 1997 2022 1964 1928 1920 1851 1983 1935 2038 1888 1906 1899 2049 1971 1940 2026 2002 2012 1939 1954 1964 2016 1952 2027 1933 1982 1936 1981 1942 1865 2032 1966 1891 1939 2015 1888 1991 1958 2028 2009 1914 1956 1953 1973 1986 1946 1937 1949 1967 1964 2018 1968 1975 1941 1923 2034 2018 1961 2009 1947 2014 2051 1943 1981 1891 2019 1926 1911 1892 2035 2025 1991 1923 1981 2034 1915 1993 1929 1956 2030 1882 2067 1970 1914 1902 1947 2014 1971 1895 2041 1929 1987 1950 1979 1987 1950 1890 2028 2021 1968 1960 2072</counts>
			</dataPoints>
		</scan>
	</xrdMeasurement>
</xrdMeasurements>
