<?xml version="1.0"?>
<xrdMeasurements xmlns="http://www.xrdml.com/XRDMeasurement/2.3" xmlns:xsi="http://www.w3.org/2001/XMLSchema-instance" xsi:schemaLocation="http://www.xrdml.com/XRDMeasurement/2.3 http://www.xrdml.com/XRDMeasurement/2.3/XRDMeasurement.xsd" status="Completed" recordIdentifier="{02886F0E-CBFC-4984-BA29-C35737B38C8E}">
	<comment>
		<entry/>
	</comment>
	<sample type="To be analyzed">
		<id>GPSS_Li1p7Fe1p15Cl4_112625_69278cb0f4e53d1f7239ae4d</id>
		<name></name>
		<preparedBy></preparedBy>
	</sample>
	<xrdMeasurement measurementType="Scan" status="Completed" sampleMode="Reflection">
		<usedWavelength intended="K-Alpha 1">
			<kAlpha1 unit="Angstrom">1.5405980</kAlpha1>
			<kAlpha2 unit="Angstrom">1.5444260</kAlpha2>
			<kBeta unit="Angstrom">1.3922500</kBeta>
			<ratioKAlpha2KAlpha1>0.5000</ratioKAlpha2KAlpha1>
		</usedWavelength>
		<incidentBeamPath>
			<radius unit="mm">145.00</radius>
			<xRayTube id="1010048" name="Empyrean Cu LFF HR (9430 033 7310x)">
				<tension unit="kV">40.0</tension>
				<current unit="mA">15.0</current>
				<anodeMaterial>Cu</anodeMaterial>
				<focus type="Line">
					<length unit="mm">12.0</length>
					<width unit="mm">0.4</width>
					<takeOffAngle unit="deg">6.0</takeOffAngle>
				</focus>
			</xRayTube>
			<sollerSlit id="21010002" name="Soller slits 0.04 rad.">
				<opening unit="rad">0.0400</opening>
			</sollerSlit>
			<mask id="22031000" name="Fixed mask 13 mm">
				<width unit="mm">9.00</width>
			</mask>
			<divergenceSlit id="22120001" name="Divergence slit 1°" xsi:type="fixedDivergenceSlitType">
				<distanceToSample unit="mm">50.00</distanceToSample>
				<height unit="mm">1.52</height>
			</divergenceSlit>
		</incidentBeamPath>
		<sampleMovement xsi:type="spinningSampleMovementType">
			<spinnerRevolutionTime unit="seconds">1.0</spinnerRevolutionTime>
		</sampleMovement>
		<diffractedBeamPath>
			<radius unit="mm">145.00</radius>
			<antiScatterSlit id="22090040" name="AS slit 9 mm (PIXcel)" xsi:type="fixedAntiScatterSlitType">
				<height unit="mm">9.00</height>
			</antiScatterSlit>
			<sollerSlit id="21020003" name="Large Soller slits 0.04 rad.">
				<opening unit="rad">0.0400</opening>
			</sollerSlit>
			<filter id="20030001" name="Large beta-filter Nickel">
				<material>Ni</material>
				<thickness unit="mm">0.020</thickness>
			</filter>
			<detector id="7010019" name="PIXcel1D-Medipix3 detector" xsi:type="rtmsDetectorType">
				<phd unit="keV">
					<lowerLevel>4.02</lowerLevel>
					<upperLevel>11.27</upperLevel>
				</phd>
				<mode>Scanning</mode>
				<activeLength unit="deg">5.542</activeLength>
			</detector>
		</diffractedBeamPath>
		<scan appendNumber="0" mode="Continuous" scanAxis="Gonio" status="Completed">
			<header>
				<startTimeStamp>2025-12-01T18:32:10-08:00</startTimeStamp>
				<endTimeStamp>2025-12-01T18:40:17-08:00</endTimeStamp>
				<author>
					<name>AutomatedUser</name>
				</author>
				<source>
					<applicationSoftware version="1.7b (136)">PANalytical Aeris Instrument Suite</applicationSoftware>
					<instrumentControlSoftware version="3.2.00000000 20240306">AERIS</instrumentControlSoftware>
					<instrumentID>950485</instrumentID>
				</source>
			</header>
			<dataPoints>
				<positions axis="2Theta" unit="deg">
					<startPosition>10.00943322</startPosition>
					<endPosition>99.99442286</endPosition>
				</positions>
				<positions axis="Omega" unit="deg">
					<startPosition>5.00471661</startPosition>
					<endPosition>49.99721143</endPosition>
				</positions>
				<commonCountingTime unit="seconds">12.495</commonCountingTime>
				<counts unit="counts">3507 3406 3493 3421 3485 3407 3435 3400 3438 3577 3438 3435 3454 3387 3468 3421 3545 3576 3463 3471 3410 3520 3516 3422 3445 3445 3542 3482 3517 3465 3639 3550 3437 3544 3529 3519 3526 3476 3477 3489 3509 3608 3566 3541 3664 3581 3439 3643 3551 3613 3546 3509 3551 3602 3622 3588 3593 3597 3532 3627 3650 3614 3718 3687 3659 3591 3655 3635 3679 3617 3550 3800 3656 3650 3740 3785 3605 3697 3825 3660 3675 3804 3651 3861 3798 3830 3654 3785 3816 3774 3815 3798 3794 3712 3916 3708 3801 3858 3756 3733 3708 3739 3721 3804 3743 3768 3698 3705 3820 3789 3705 3781 3771 3653 3817 3769 3791 3812 3750 3788 3818 3711 3716 3817 3795 3770 3845 3819 3723 3810 3740 3732 3874 3767 3866 3804 3713 3821 3790 3826 3783 3793 3934 3881 3781 3859 3769 3862 3775 3879 3785 3821 3918 3817 3827 3959 3861 3973 3908 3786 3790 3776 3853 3731 3933 3897 3707 3776 3815 3782 3819 3818 3804 3917 3858 3977 3910 3916 3932 3752 3893 3912 3779 3896 3917 3887 3844 3792 3870 3898 3938 3814 3810 3853 3769 3816 3777 3671 3898 3797 3822 3777 3724 3977 3887 3844 3835 3893 3934 3801 3855 3776 3787 3910 3878 3812 3728 3721 3878 3821 3849 3987 3877 3888 3782 3880 3915 3951 3813 3865 3919 4000 3823 3920 3813 3748 3888 3813 3728 3830 3780 3906 3895 3845 3912 3956 3816 3958 3783 3657 3798 3917 3870 3928 3773 3835 3809 3899 3864 3742 3718 3801 3714 3743 3826 3883 3826 3792 3815 3977 3798 3803 3700 3849 3876 3874 3878 3802 3816 3826 3753 3881 3879 3916 3854 3910 3857 3830 3816 3774 3908 3792 3805 3883 3770 3840 3811 3818 3862 3756 3851 3797 3783 3850 3771 3984 3901 3946 3978 3839 3935 3828 3900 3960 3876 3929 3951 3853 3956 3946 3860 4008 3922 3958 3844 4097 3969 3827 3985 3974 4033 3956 3945 3975 3935 4006 3991 3954 3953 3932 3937 4008 4060 3903 4006 4013 3992 3989 4017 4026 4058 4067 4091 4086 4101 4044 3905 3926 4046 4010 4025 4054 4022 4107 4088 4111 4026 4041 4038 4180 4192 4033 4020 4164 4055 4172 4082 4156 4186 4293 4128 4165 4212 4199 4136 4037 4217 4173 4202 4242 4203 4120 4252 4274 4326 4226 4216 4317 4210 4228 4165 4379 4121 4321 4350 4434 4477 4417 4284 4314 4408 4454 4583 4512 4544 4568 4469 4552 4610 4723 4752 4774 4884 4874 4980 5017 5157 5063 5173 5231 5384 5562 5575 5695 5801 5777 5961 6065 6081 6262 6251 6386 6376 6384 6297 6516 6407 6428 6396 6326 5895 5987 5907 5765 5605 5492 5370 5478 5381 5459 5285 5322 5207 5160 5192 5099 5242 5251 5167 5240 5273 5304 5103 5175 5147 5150 5083 5025 5181 5188 4988 4901 4998 4932 4868 4867 4829 4768 4668 4595 4511 4638 4507 4518 4575 4510 4379 4497 4376 4347 4283 4282 4275 4273 4345 4298 4416 4341 4384 4231 4373 4180 4225 4300 4429 4247 4255 4280 4219 4156 4257 4274 4225 4188 4125 4095 4134 4072 4125 4036 4113 4095 4143 4135 4095 4037 4067 4105 3905 4004 4050 4145 4064 4048 4072 4053 4018 3912 4089 4034 4170 3996 4039 4082 3915 4099 4128 4051 4107 4086 4121 4152 4170 4103 4054 4031 4092 3986 4075 4099 4006 4147 4092 3989 3882 3995 3906 3932 3963 3962 3830 3864 3808 4025 3945 3859 3950 3875 4062 3800 3888 3939 3887 3911 3939 3973 3984 3948 3924 3841 3915 3965 3861 3875 4049 4025 3945 3871 3979 3938 3929 3941 3839 3929 3771 3873 3902 3907 3847 3770 3939 3995 3971 3805 3817 3963 3838 3819 3884 3869 3912 3821 3777 3828 3809 3872 3842 3845 3874 3828 3789 3732 3758 3812 3992 3892 3808 3914 3877 3953 3796 3795 3818 3881 3884 3786 3918 3861 3856 3867 3817 3870 3818 3791 3916 3825 3914 3934 3933 4004 3890 3793 3901 3833 3828 3797 3791 3872 3832 3850 3853 3809 3882 3810 3875 3671 3693 3854 3810 3763 3728 3877 3798 3851 3885 3796 3749 3796 3854 3819 3720 3843 3716 3833 3749 3849 3690 3824 3724 3728 3829 3770 3819 3807 3861 3777 3735 3643 3845 3753 3828 3869 3823 3726 3664 3680 3902 3801 3770 3810 3715 3920 3816 3761 3752 3666 3796 3756 3850 3860 3682 3708 3700 3938 3847 3866 3742 3752 3767 3757 3809 3766 3735 3773 3741 3767 3650 3817 3618 3841 3751 3709 3818 3716 3848 3826 3807 3691 3763 3819 3867 3841 3873 3714 3934 3744 3727 3836 3768 3763 3789 3783 3765 3613 3763 3701 3749 3756 3682 3673 3861 3750 3754 3811 3742 3727 3781 3823 3717 3808 3845 3778 3751 3546 3662 3715 3770 3813 3858 3738 3711 3677 3574 3748 3695 3761 3730 3546 3740 3697 3693 3721 3591 3702 3639 3694 3721 3698 3624 3790 3765 3550 3717 3779 3655 3742 3649 3847 3662 3775 3747 3794 3681 3764 3678 3755 3687 3693 3699 3606 3711 3702 3728 3653 3692 3622 3639 3683 3641 3638 3768 3630 3780 3620 3762 3711 3739 3683 3680 3608 3665 3695 3614 3692 3730 3759 3634 3690 3632 3711 3669 3626 3610 3694 3661 3640 3620 3586 3667 3689 3585 3653 3648 3695 3638 3547 3622 3826 3596 3720 3583 3685 3610 3726 3726 3628 3623 3593 3666 3698 3600 3604 3599 3579 3607 3598 3711 3603 3690 3556 3622 3585 3701 3661 3717 3716 3513 3632 3598 3625 3557 3616 3592 3607 3656 3603 3559 3547 3640 3719 3487 3688 3642 3596 3633 3611 3589 3621 3682 3570 3636 3743 3615 3554 3641 3620 3542 3587 3543 3636 3542 3601 3629 3553 3551 3593 3542 3631 3612 3590 3559 3572 3700 3514 3535 3664 3664 3584 3659 3636 3659 3563 3609 3626 3592 3658 3622 3672 3506 3549 3589 3639 3666 3751 3655 3708 3635 3632 3696 3463 3470 3478 3639 3609 3592 3537 3584 3554 3648 3741 3582 3620 3646 3619 3673 3614 3604 3647 3641 3556 3596 3534 3578 3620 3661 3552 3605 3625 3606 3551 3578 3568 3586 3525 3560 3650 3592 3542 3647 3542 3597 3596 3706 3533 3458 3661 3541 3640 3650 3561 3604 3564 3660 3745 3608 3686 3701 3628 3636 3559 3537 3580 3621 3640 3611 3537 3600 3583 3556 3598 3648 3647 3684 3564 3662 3590 3598 3626 3570 3545 3653 3625 3592 3692 3587 3611 3615 3573 3748 3556 3643 3644 3583 3589 3635 3634 3636 3525 3661 3629 3681 3582 3594 3756 3624 3585 3539 3515 3590 3622 3556 3594 3558 3567 3606 3549 3527 3519 3599 3583 3551 3606 3584 3554 3618 3571 3622 3566 3504 3499 3514 3553 3532 3637 3564 3568 3580 3607 3671 3548 3538 3588 3472 3521 3616 3419 3495 3515 3499 3680 3412 3493 3400 3555 3527 3480 3429 3441 3469 3486 3424 3448 3533 3459 3427 3487 3550 3412 3500 3463 3513 3353 3409 3536 3397 3448 3409 3408 3455 3442 3316 3390 3390 3422 3449 3330 3337 3375 3283 3343 3289 3482 3360 3370 3396 3370 3293 3326 3339 3423 3369 3309 3338 3439 3336 3280 3215 3301 3354 3377 3202 3342 3254 3319 3135 3266 3248 3257 3264 3324 3282 3339 3312 3240 3209 3241 3236 3231 3270 3304 3315 3178 3352 3268 3196 3202 3145 3180 3225 3230 3385 3245 3157 3135 3156 3119 3246 3188 3269 3149 3036 3079 3179 3191 3162 3195 3167 3126 3271 3188 3181 3095 3210 3169 3209 3156 3140 3201 3063 3058 3078 3141 3195 3179 3076 3165 3144 3031 3221 3084 3123 3253 3145 3172 3032 3154 3168 3140 3122 3171 3132 3063 3075 3123 3017 3103 3014 2968 3042 3132 3115 3102 3057 3126 2967 3083 3068 3164 3084 3127 3112 3151 3093 3086 3105 3116 3148 3023 3107 3116 3111 3112 3153 3040 3063 3033 3015 3036 3063 3150 3086 3118 3077 3167 3131 3095 3060 3153 3087 3016 3043 3037 3113 3068 2990 2983 3027 3023 3052 3023 3061 2996 2985 3014 3098 3001 3048 2946 3046 3025 3111 3076 3010 2999 2947 3018 3069 3050 2968 3008 3003 3128 3062 2905 3026 3019 3077 2914 3002 3024 2954 2944 3019 3022 3017 3100 3041 3025 2962 3011 3025 3026 3019 2932 2976 3010 2951 2892 2979 3090 3047 3023 3002 3134 2999 3071 3058 2938 3008 2985 2928 3055 2992 2970 2982 2955 3054 3121 2996 3046 2941 2931 3020 2947 3098 3128 3017 3072 3001 3075 2979 3075 3092 3050 2997 3015 2916 2983 3061 3037 3028 3001 3079 3104 2998 3009 2988 3130 3058 3110 2961 3041 2997 3071 3091 2993 2968 2972 3080 3045 2901 3130 3031 2979 2967 2938 2998 2795 2959 2978 2850 2917 3024 2969 3010 2961 2976 2976 3096 3052 3060 3006 3093 3022 2967 3074 3001 3058 2972 3003 2985 3055 3008 3007 2993 2950 2946 3014 2941 3034 2978 2974 2955 3031 2936 3065 2952 3057 3000 2903 3034 2909 2880 2936 3035 2973 2956 3008 3001 2989 2932 3067 2849 3028 2948 2910 2948 3006 3018 3041 3075 2898 2893 3025 2910 2898 2979 2917 3068 3035 3013 2890 2879 2851 2919 2912 2918 2866 3030 2933 2929 2957 2909 2853 2956 2979 2977 2892 2855 2929 2815 2912 2909 2810 2854 2885 2870 2903 2869 2896 2807 2810 2916 2863 2927 2885 2839 2868 2810 2897 2749 2785 2828 2809 2931 2906 2770 2854 2841 2833 2886 2850 2912 2699 2763 2841 2788 2736 2776 2842 2845 2791 2819 2838 2743 2816 2817 2680 2869 2714 2688 2750 2844 2701 2775 2700 2792 2645 2765 2707 2814 2606 2836 2643 2716 2778 2715 2662 2705 2787 2721 2703 2747 2734 2725 2774 2727 2735 2825 2669 2757 2664 2633 2623 2800 2663 2744 2765 2760 2764 2726 2670 2632 2698 2774 2678 2722 2763 2699 2648 2748 2666 2671 2654 2707 2684 2651 2651 2693 2640 2787 2700 2695 2738 2832 2721 2784 2780 2735 2741 2766 2793 2880 2836 2863 2865 2982 2880 2879 2958 3034 3073 3129 3136 3354 3471 3450 3538 3504 3538 3604 3591 3617 3701 3533 3621 3623 3556 3583 3531 3454 3361 3403 3312 3410 3283 3210 3247 3306 3109 3111 3171 3024 3079 3098 3030 2950 2970 3052 3047 2983 2940 2886 3053 2982 2898 2869 2937 2968 3003 2834 2942 2871 2821 2873 2850 2895 2862 2732 2744 2738 2764 2707 2744 2729 2738 2768 2710 2677 2595 2590 2632 2645 2638 2685 2658 2627 2588 2638 2668 2571 2702 2698 2603 2554 2524 2661 2605 2763 2527 2621 2607 2572 2645 2568 2629 2583 2681 2595 2612 2537 2587 2611 2689 2695 2642 2632 2695 2605 2804 2709 2753 2773 2974 2885 2878 2942 3051 3126 3255 3416 3380 3617 3671 3739 3841 3960 4090 4097 4182 4422 4424 4488 4392 4295 4478 4386 4380 4230 4191 4236 4067 4072 3864 3914 3772 3782 3662 3519 3514 3484 3437 3356 3359 3254 3149 3102 3133 3149 3095 3120 2939 3009 2976 3027 2975 3020 3046 2925 2846 2965 2863 2759 2739 2688 2774 2763 2775 2725 2682 2731 2641 2505 2660 2623 2570 2704 2492 2668 2557 2499 2555 2431 2530 2425 2484 2504 2527 2412 2487 2506 2470 2562 2490 2449 2393 2428 2496 2345 2477 2428 2467 2431 2531 2475 2493 2457 2417 2380 2438 2445 2437 2440 2431 2453 2396 2475 2455 2458 2431 2473 2355 2431 2412 2328 2436 2330 2402 2449 2383 2440 2424 2342 2422 2379 2456 2466 2420 2380 2395 2390 2444 2354 2316 2415 2503 2429 2433 2385 2402 2384 2387 2379 2417 2351 2487 2410 2488 2343 2363 2414 2367 2383 2319 2344 2374 2429 2430 2353 2357 2353 2325 2389 2378 2385 2364 2313 2325 2430 2352 2228 2325 2413 2312 2299 2382 2444 2390 2431 2382 2279 2326 2251 2295 2357 2280 2294 2423 2384 2346 2306 2324 2278 2485 2281 2374 2331 2394 2345 2357 2326 2427 2418 2343 2355 2417 2303 2390 2358 2392 2338 2262 2263 2288 2371 2313 2371 2437 2421 2303 2385 2347 2418 2335 2323 2363 2315 2432 2397 2415 2302 2316 2400 2267 2274 2343 2264 2403 2268 2348 2355 2395 2280 2401 2346 2322 2288 2255 2328 2341 2332 2407 2378 2400 2410 2325 2391 2351 2380 2452 2459 2293 2278 2355 2398 2430 2322 2364 2330 2400 2373 2327 2318 2319 2290 2428 2293 2342 2256 2295 2301 2323 2369 2253 2301 2346 2309 2370 2390 2324 2290 2334 2263 2355 2324 2427 2288 2285 2243 2365 2263 2400 2383 2274 2323 2260 2276 2315 2295 2317 2245 2345 2269 2392 2338 2304 2333 2302 2290 2355 2286 2360 2330 2244 2330 2454 2233 2246 2388 2340 2224 2297 2316 2293 2334 2350 2395 2344 2315 2342 2276 2381 2310 2240 2355 2310 2247 2277 2389 2267 2292 2224 2299 2339 2348 2325 2367 2331 2314 2340 2377 2309 2355 2336 2374 2290 2333 2350 2320 2239 2338 2342 2398 2386 2419 2313 2331 2307 2395 2316 2272 2379 2326 2368 2338 2199 2340 2326 2339 2318 2379 2324 2389 2421 2407 2348 2411 2315 2317 2425 2338 2427 2393 2446 2377 2439 2398 2438 2421 2457 2490 2473 2534 2475 2535 2525 2579 2485 2599 2660 2631 2656 2672 2816 2828 2852 3002 2944 3197 3283 3410 3521 3712 3958 4067 4572 4664 5208 5236 5639 5897 6418 6801 7217 7380 7748 7988 8144 8371 8867 9086 9382 8966 8842 8220 8259 8042 7957 7762 7602 7082 6808 6262 6312 5838 5676 5369 5176 4984 5011 4959 4860 4575 4491 4428 4277 4271 4184 4268 4085 3974 3979 3912 3793 3671 3636 3563 3534 3316 3351 3292 3234 3231 3089 3108 3104 3029 2884 2923 2861 2871 2762 2836 2662 2697 2748 2628 2677 2701 2660 2677 2646 2647 2584 2695 2609 2616 2630 2675 2698 2567 2625 2571 2435 2560 2570 2602 2628 2554 2504 2591 2528 2582 2507 2580 2452 2510 2509 2542 2436 2402 2456 2459 2454 2565 2469 2382 2325 2422 2378 2406 2355 2317 2454 2359 2384 2331 2245 2394 2364 2391 2401 2292 2430 2372 2273 2306 2318 2285 2289 2290 2327 2317 2280 2310 2387 2296 2320 2274 2231 2247 2289 2224 2292 2296 2315 2249 2360 2246 2285 2265 2296 2289 2294 2297 2250 2199 2267 2262 2289 2206 2329 2253 2237 2289 2241 2157 2199 2325 2309 2215 2225 2245 2206 2258 2241 2269 2187 2278 2273 2237 2209 2275 2238 2315 2261 2200 2241 2262 2159 2300 2224 2228 2269 2283 2215 2219 2210 2231 2227 2220 2341 2240 2199 2149 2216 2243 2203 2184 2262 2237 2143 2306 2248 2232 2271 2243 2200 2192 2233 2226 2319 2338 2214 2254 2122 2196 2184 2190 2193 2269 2200 2220 2245 2291 2301 2258 2264 2180 2223 2209 2208 2236 2225 2269 2241 2268 2232 2224 2281 2146 2221 2211 2249 2290 2238 2259 2256 2184 2228 2235 2329 2190 2142 2204 2292 2199 2231 2280 2167 2246 2176 2193 2280 2149 2246 2180 2246 2210 2199 2197 2173 2193 2164 2234 2185 2145 2226 2201 2269 2281 2226 2302 2352 2174 2253 2272 2275 2327 2313 2339 2254 2301 2321 2297 2309 2275 2267 2319 2257 2265 2264 2292 2296 2297 2311 2289 2311 2203 2262 2321 2324 2301 2260 2292 2242 2180 2328 2278 2280 2199 2274 2212 2141 2184 2217 2195 2280 2275 2224 2277 2223 2248 2229 2202 2235 2106 2198 2282 2273 2097 2180 2271 2149 2171 2234 2251 2190 2258 2272 2091 2245 2124 2212 2184 2233 2213 2195 2130 2198 2249 2190 2163 2115 2137 2182 2120 2231 2178 2203 2137 2142 2210 2115 2147 2211 2200 2208 2129 2254 2117 2123 2167 2177 2150 2175 2215 2236 2181 2207 2151 2217 2127 2206 2196 2233 2248 2120 2193 2207 2156 2181 2194 2169 2345 2290 2176 2172 2182 2229 2058 2165 2169 2158 2196 2233 2062 2165 2173 2126 2188 2235 2203 2283 2198 2146 2220 2187 2250 2195 2213 2166 2133 2232 2177 2172 2199 2139 2162 2159 2172 2078 2127 2223 2164 2060 2205 2165 2168 2102 2077 2131 2155 2207 2140 2155 2115 2108 2176 2138 2199 2105 2190 2147 2113 2146 2097 2170 2180 2151 2162 2118 2133 2233 2246 2202 2174 2160 2175 2146 2082 2144 2138 2114 2096 2170 2000 2117 2080 2207 2117 2069 2224 2153 2211 2218 2100 2180 2166 2185 2185 2210 2188 2195 2078 2238 2152 2164 2202 2166 2138 2122 2097 2156 2103 2127 2142 2144 2081 2159 2129 2098 2091 2104 2162 2126 2152 2151 2105 2090 2101 2251 2108 2179 2182 2124 2143 2161 2138 2136 2122 2138 2171 2178 2152 2038 2090 2126 2171 2096 2084 2093 2171 2138 2124 2180 2054 2144 2103 2137 2095 2199 2110 2082 2127 2132 2117 2169 2170 2144 2070 2125 2053 2118 2004 2160 2155 2129 2246 2124 2074 2219 2150 2210 2035 2159 2168 2141 2237 2100 2150 2155 2004 2186 2148 2181 2130 2115 2180 2129 2137 2238 2189 2154 2006 2138 2161 2162 2092 2247 2164 2182 2100 2180 2116 2165 2100 2063 2163 2177 2101 2159 2106 2183 2191 2123 2118 2076 2170 2141 2137 2232 2166 2149 2171 2073 2145 2157 2114 2190 2162 2115 2207 2126 2127 2109 2170 2156 2107 2090 2231 2105 2207 2082 2150 2134 2145 2116 2092 2107 2120 2091 2061 2079 2071 2043 2189 2143 2224 2169 2097 2072 2106 2153 2088 2114 2080 2100 2041 2163 2074 2097 2112 2190 2083 2076 2198 2204 2077 2104 2165 2075 2187 2134 2078 2141 2110 2107 2119 2194 2105 2167 2148 2074 2176 2205 2203 2147 2169 2133 2174 2106 2143 2179 2169 2059 2126 2161 2111 2125 2117 2116 2142 2086 2096 2146 2118 2129 2145 2111 2194 2172 2165 2171 2207 2089 2227 2095 2129 2160 2112 2168 2122 2104 2173 2096 2202 2120 2177 2103 2128 2183 2150 2063 2040 2210 2094 2148 2176 2072 2137 2138 2150 2156 2141 2059 2178 2078 2116 2149 2119 2227 2131 2146 2155 2197 2182 2066 2035 2165 2203 2177 2113 2114 2209 2120 2177 2184 2240 2186 2133 2189 2072 2169 2178 2115 2131 2111 2138 2157 2231 2190 2112 2169 2169 2110 2125 2170 2169 2137 2129 2170 2089 2132 2129 2113 2165 2152 2083 2118 2166 2160 2105 2145 2160 2153 2094 2078 2150 2117 2134 2062 2124 2065 2082 2067 2079 2064 2177 2196 2102 2074 2092 2224 2139 2123 2200 2198 2136 2150 2117 2134 2124 2066 2076 2253 2119 2156 2145 2094 2116 2150 2201 2161 2069 2159 2097 2138 2163 2139 1982 2097 2153 2122 2116 2224 2093 2193 2063 2112 2052 2104 2151 2095 2122 2141 2075 2085 2074 2201 2120 2059 2006 2177 2110 2134 2137 2169 2107 2142 2089 2146 2114 2086 2112 2151 2117 2189 2162 2212 2047 2140 2105 2171 2170 2066 2151 2182 2112 2157 2040 2121 2025 2073 2144 2146 2194 2159 2043 2084 2129 2005 2160 2103 2116 2023 2215 2037 2096 2079 2124 2147 2144 2151 2138 2187 2182 2154 2192 2259 2144 2083 2142 2140 2115 2044 2128 2157 2178 2153 2178 2100 2134 2172 2209 2118 2207 2231 2138 2172 2119 2132 2194 2228 2221 2175 2220 2147 2226 2238 2250 2349 2358 2396 2509 2503 2547 2607 2659 2732 2739 2776 2845 2757 2928 2785 2835 2907 2858 2949 2915 2848 2753 2922 2843 2819 2780 2669 2734 2675 2604 2574 2554 2588 2463 2513 2453 2439 2510 2391 2383 2314 2434 2295 2355 2414 2366 2381 2284 2277 2282 2318 2266 2242 2310 2154 2250 2167 2187 2167 2220 2117 2253 2199 2179 2141 2241 2135 2058 2161 2197 2179 2093 2157 2117 2184 2112 2114 2138 2104 2159 2150 2152 2215 2125 2166 2134 2096 2122 2093 2110 2167 2159 2151 2111 2092 2223 2113 2153 2160 2154 2104 2215 2149 2177 2122 2145 2150 2054 1993 2051 2162 2216 2106 2128 2073 2137 2182 2142 2024 2103 2100 2111 2155 2126 2128 2119 2126 2101 2079 2067 2107 2110 2031 2140 2165 2091 2048 2097 2154 2096 2204 2103 2107 2100 2056 2122 2029 2110 2087 2077 2073 2121 2093 2060 2026 2149 2148 2078 2099 2147 2083 2094 2009 2091 2027 2069 2038 2009 2082 2127 2053 2119 2121 2144 2064 2083 2120 2118 2035 2016 2083 2025 2082 1962 2146 2132 2042 2057 2026 2074 2140 2110 2014 2041 1980 2141 2044 2074 2051 2078 2099 2079 2083 2136 2087 2052 2155 2095 2059 2080 2087 2112 2068 2086 2161 2023 1969 2135 2054 2093 2070 2021 2043 2110 2048 2137 2058 2035 2106 2079 2112 2162 2133 2027 2062 2038 2044 2079 2095 2180 2058 2180 2082 2085 2146 2119 2070 2096 2087 2089 2086 2139 2025 2165 2098 2079 2010 2146 2089 2100 2096 2147 2130 2173 2100 2094 2077 2104 2079 2154 2134 2041 2129 2148 2120 2094 2128 2076 2105 2110 2099 2140 2119 2167 2190 2196 2045 2111 2164 2132 2151 2093 2113 2094 2096 2064 2084 2181 2105 2045 2094 2075 2034 2129 2141 2114 2088 2164 2192 2091 2095 2079 2117 2094 2079 2246 2063 2062 2115 2119 2085 2172 2158 2163 2133 2198 2139 2062 2131 2125 2125 2155 2137 2156 2159 2082 2117 2058 2113 2153 2174 2173 2059 2184 2098 2197 2156 2142 2104 2112 2128 2164 2153 2217 2138 2095 2175 2060 2156 2131 2109 2179 2198 2117 2119 2224 2123 2220 2172 2260 2195 2215 2309 2221 2268 2299 2145 2220 2235 2282 2313 2214 2324 2384 2260 2406 2420 2473 2470 2639 2703 2717 2817 2880 2983 3233 3530 3639 3745 4139 4247 4526 4756 4802 4959 5023 5273 5185 5193 5551 5526 5688 5598 5547 5520 5555 5331 5230 5253 5085 4968 4894 4830 4611 4455 4357 4206 4196 3911 4025 3830 3682 3798 3609 3549 3470 3234 3279 3258 3209 3119 3037 2934 2936 2912 2896 2936 2859 2782 2769 2715 2683 2631 2667 2572 2619 2581 2515 2553 2412 2625 2450 2380 2537 2488 2506 2468 2333 2337 2333 2333 2339 2285 2253 2299 2248 2283 2223 2305 2352 2138 2232 2205 2272 2257 2238 2216 2196 2278 2229 2287 2131 2199 2189 2238 2175 2255 2224 2153 2142 2211 2241 2117 2283 2215 2177 2148 2165 2198 2236 2182 2174 2227 2177 2141 2190 2211 2112 2235 2164 2174 2237 2129 2080 2151 2188 2148 2200 2162 2161 2169 2136 2158 2165 2174 2247 2133 2147 2193 2128 2164 2120 2183 2098 2103 2035 2089 2155 2145 2108 2063 2100 2140 2167 2116 2120 2086 2076 2149 2124 2071 2193 2137 2089 2039 2146 2059 2082 2160 2034 2118 2055 2104 2060 2109 2073 2134 2055 2118 2060 2176 2189 2093 2173 2144 2122 2126 2101 2124 2142 2098 2164 2030 2107 2121 2065 2063 2138 2055 2107 2162 2107 2119 2128 1977 2151 2086 2117 2081 2080 2226 2092 2087 2114 2146 2148 2068 2187 2203 2209 2232 2175 2259 2310 2363 2349 2393 2387 2441 2478 2504 2486 2431 2496 2526 2440 2498 2657 2485 2569 2463 2477 2444 2409 2386 2385 2543 2423 2386 2361 2285 2340 2332 2350 2327 2238 2267 2259 2316 2239 2213 2254 2199 2120 2164 2246 2200 2192 2144 2112 2140 2193 2199 2170 2153 2206 2164 2136 2157 2121 2145 2199 2068 2083 2216 2180 2112 2114 2206 2158 2074 2126 2110 2109 2102 2098 2132 2126 2216 2099 2096 2186 2003 2134 2002 2131 2131 2068 2142 2038 2128 2103 2091 2073 2097 2120 2137 2110 2128 2210 2043 2084 2142 2085 2068 2087 2054 2125 2140 2052 2117 2018 2189 2182 2071 2038 2161 2076 2022 2115 2076 2045 2170 2144 2063 2118 2070 2141 2100 2101 2156 2098 2118 2045 2074 2061 2065 2076 2235 2121 2133 2036 2043 2110 1994 2075 2065 2057 2090 2063 2098 2033 2123 2008 2047 2018 2075 2057 2019 1982 2104 2086 2050 2058 2113 2013 2099 2067 2043 2080 1941 2025 2038 2069 2031 2042 2130 1923 2083 2114 2055 1987 2062 2125 2123 2066 2044 2011 2074 2039 2072 2080 1958 2109 2063 2027 2016 2035 2075 2045 2078 2038 2034 1989 2090 2095 2081 2012 2050 1996 2079 2165 2037 1994 2045 2041 2088 2048 2060 2052 2140 2073 2098 2063 2021 2046 1985 2077 2032 2051 2080 2060 2113 2119 2099 2006 2001 2029 2069 1978 2140 2166 2062 1958 1981 2014 2015 2067 2062 2026 2002 1970 2068 2057 2114 2066 2007 2151 2074 2024 2102 2009 2028 2044 2021 2024 2102 1999 2067 1991 2030 2040 2065 2033 2105 2102 2152 1990 2046 2065 2077 2008 2055 2054 2033 2106 2011 2029 2018 2095 2004 1981 2018 2005 2052 2134 1987 2138 2027 2098 2075 2031 2107 1972 2091 2014 1979 2102 2066 2080 2082 2086 2046 1971 2028 2100 2038 1971 2039 2106 1993 2008 2032 2017 2061 2026 2026 2034 1947 2060 1994 2061 1998 2088 1970 2112 2035 2043 2076 1939 2061 2024 2090 2041 1983 2005 2074 2058 1976 2052 2055 2048 2112 1952 2119 2040 2007 1984 2134 2018 2031 1983 2004 2129 2050 2079 2038 2022 2144 2084 2050 2053 1942 2071 2039 2032 2027 2058 2086 2008 2107 2001 1999 2046 1985 2047 2052 1977 1989 2061 2111 2080 2016 2085 1995 2044 2019 2114 1975 2098 1937 2093 1978 2061 2003 1987 2085 1976 2033 2007 2092 2072 1971 2087 2025 1995 2036 1978 2013 2029 1997 2095 2025 2064 2050 1975 2117 2022 2025 2090 2042 2053 2062 2121 2052 2089 2054 2061 2072 2014 2066 2023 2096 2063 2136 2048 2045 2027 2015 2054 2068 2082 2048 2017 2166 2111 2004 2124 2040 2023 2121 1961 2077 1985 2034 2013 1998 2052 2094 2038 2053 2019 2047 2039 2064 2118 2125 2051 2140 2103 2025 1990 2053 2098 2042 2034 2068 2153 2064 2060 2087 2026 2088 2072 2044 2117 2098 2096 2064 1978 2001 2118 1949 1990 2007 2047 1988 2113 2021 2026 2055 1993 1999 2105 2040 2056 2094 2028 2012 1946 2049 2088 2059 2005 2040 2035 2011 2039 2000 2073 2028 2088 2150 1985 1950 2049 2010 2071 2073 1973 1998 2119 2007 2061 2027 2019 2055 2013 2079 2023 2130 1992 2115 2003 2004 2008 2086 2002 1965 2067 2032 2046 2107 2123 2091 2041 2139 2045 2099 2050 2098 2157 2107 1967 2049 2004 2094 2089 2052 2093 2143 2095 2173 2206 2109 2083 2152 2159 2063 2204 2120 2067 2168 2160 2137 2145 2094 2107 2121 2141 2031 2188 2127 2103 2048 2091 2094 2107 2106 2077 2062 2117 2081 2122 2061 2045 2085 2060 2054 2181 2139 2067 2014 2129 2079 2113 2087 2162 2055 2042 2181 2125 2167 2156 2150 2211 2236 2266 2246 2238 2288 2205 2352 2307 2483 2366 2388 2364 2319 2346 2385 2380 2404 2400 2412 2354 2425 2299 2357 2360 2317 2372 2308 2403 2243 2285 2231 2248 2211 2274 2221 2147 2210 2255 2145 2194 2180 2228 2125 2157 2167 2136 2175 2199 2253 2123 2152 2124 2095 2167 2079 2132 2126 2077 2130 2124 2121 2201 2100 2080 2060 2087 2121 2020 2087 2155 2127 2057 2071 2063 2120 2050 2062 2028 2067 2016 2102 2077 2035 2032 2000 2037 2034 2060 2090 2104 2081 1984 2001 2042 2029 2098 1993 2120 2031 2087 2024 1976 1972 2022 2007 2007 1983 2051 2060 2096 2090 1987 2068 1993 2055 2026 2083 2054 2054 2004 2041 2083 2026 2073 2057 1974 1984 1987 1956 2043 2031 1923 2072 2056 2026 2016 1975 2058 2011 2001 1954 2081 2036 2048 2091 2060 2042 1981 2015 1973 2048 2228 2040 2071 2011 2026 2050 2082 1999 2102 2062 2064 2062 1985 2056 2056 2076 2083 2021 2022 2045 2020 2134 2063 2002 1975 2023 1964 2000 2033 2047 2112 2130 2022 2090 2046 2118 2055 2037 2046 2030 2103 2061 2116 2020 2061 1993 2057 2048 1995 2031 1986 2071 2057 2087 1978 2018 2071 2016 2026 2031 1971 2006 1999 1940 1987 2064 2062 2015 2061 2035 2101 2041 2041 1962 2051 2125 2054 2054 2050 2050 1995 2081 2082 2088 2043 2053 2077 2068 2058 2042 2102 2107 2102 2138 2115 2032 2086 2024 2071 2113 2117 2077 2035 2105 2140 2125 2134 2162 2140 2118 2136 2215 2240 2228 2240 2374 2397 2601 2589 2513 2589 2697 2699 2731 2646 2834 2799 2804 2802 2837 2866 2822 2896 2864 2921 2898 2935 2802 2922 2886 2782 2995 2696 2714 2694 2775 2692 2654 2726 2632 2588 2585 2559 2495 2464 2484 2442 2353 2460 2362 2311 2422 2307 2312 2305 2228 2259 2277 2300 2293 2324 2233 2144 2239 2113 2268 2176 2287 2241 2192 2172 2233 2232 2172 2103 2141 2058 2226 2224 2161 2216 2161 2183 2151 2188 2235 2239 2169 2210 2200 2224 2145 2081 2134 2231 2167 2127 2113 2079 2160 2085 2069 2202 2103 2126 2185 2095 2163 2044 2100 2151 2099 2081 2089 2031 2058 2087 2036 2124 1997 2065 1968 2114 2099 2069 1978 2091 2035 2078 1998 2108 2128 1983 2113 2071 2087 2022 2112 2006 1979 2067 2004 2036 2076 2114 2019 2029 2099 1995 2054 2009 2058 2072 2023 2012 2069 2079 2105 2069 2028 2084 2049 2144 2015 2088 2082 1992 2084 2123 2013 2069 2072 2041 2042 2021 2083 2108 1928 2100 2089 2092 1990 2044 2052 2064 2024 2113 2024 2089 2075 2063 2078 2050 2058 2079 2039 2100 2082 2103 2154 2091 2106 2174 2166 2256 2269 2176 2159 2224 2208 2183 2282 2197 2231 2206 2316 2309 2195 2196 2274 2281 2329 2284 2289 2295 2229 2236 2127 2122 2216 2287 2234 2218 2255 2246 2150 2201 2202 2199 2205 2210 2085 2090 2136 2128 2039 1990 2149 2020 2170 2142 2187 2095 2131 2107 2009 2106 2050 2135 2132 2114 2052 2083 2160 2016 2117 2062 2060 2025 2078 2038 2030 1985 2042 2072 2085 1970 2064 1984 2007 2041 1971 1994 2043 2015 2051 2113 1994 2143 2029 1998 2046 2048 2010 2029 2048 2027 1963 1984 2064 2041 2069 1979 2077 2022 2019 2150 1920 2032 1990 2106 2045 2029 2019 2089 2081 2028 1996 2055 2078 1991 2051 2088 2024 2067 2076 1996 2091 2042 1992 2091 1975 2037 2026 1976 2023 2098 2062 2083 1940 2026 2012 2160 2148 2022 2021 1974 1998 2033 1954 2052 2063 1947 1985 1992 2065 1997 2043 2058 2069 2046 2025 2063 1925 1992 2011 2022 2046 2110 2034 2015 1983 2059 2019 1950 2030 1969 1991 1998 1921 2100 1966 1946 2001 2047 2046 2034 2070 1985 2065 2049 2043 2092 2087 2010 2008 2128 2050 2000 2088 2025 2025 1976 2015 2096 2152 2048 2080 1987 1954 2001 1880 2046 1964 1991 1920 2023 2057 2039 2033 1985 2006 2057 1962 2064 1988 1967 2015 2047 1936 2014 2033 2059 2002 1955 2047 2010 2003 2035 2018 1953 1991 2035 1974 2025 1987 1950 1976 2047 2042 2021 1988 1931 2041 2013 2023 2032 1994 2051 1942 1982 2040 1996 2050 2070 2017 1931 2046 2007 1916 1977 1977 2110 2011 2080 2022 2009 2066 2085 2025 1992 2017 2031 2031 2070 1996 1966 1952 1950 1978 2004 2030 1964 2037 2038 2004 2098 2045 2021 2037 1978 2070 1935 2039 2047 2056 2019 1969 2050 2066 1919 2005 2006 2049 2054 2050 1993 1997 2069 2045 1941 2029 2106 2007 2013 2052 2077 1973 2066 1991 2050 2038 1996 1975 2041 1957 1977 2054 1911 2051 1940 2007 1934 2049 2028 2041 1974 2044 1995 2045 2036 2019 1963 1962 1990 2013 1950 2053 1939 2002 2030 1988 2034 2050 2013 2023 1912 1985 2031 1973 2065 2048 1996 1980 2030 1988 1959 2010 2047 1999 1963 1994 2026 2057 2012 1986 2024 2046 2024 2063 1957 1987 2057 2027 2007 1994 2041 1921 1980 1952 1943 1950 1994 2015 2044 1946 2031 2035 2059 2011 2058 2062 2033 1939 1971 2017 2028 2033 2020 2065 1907 2074 2060 2007 2022 1994 2021 1985 2046 2002 2045 2071 2013 2036 1989 2025 2079 1988 2026 2021 2086 1989 1962 2006 2041 2016 2053 2117 2028 2030 2010 1924 2038 2030 2018 2011 1997 2027 2068 1981 2012 1999 1941 2011 2035 1986 2020 1984 1927 1957 2069 2108 1926 2037 1979 2009 2119 2071 2015 2086 1951 2011 2030 1991 2000 2003 1955 2029 2000 2039 1953 1992 2046 2048 1968 2080 2097 2065 2001 2009 2001 2050 2037 2013 2059 2027 1983 2080 2007 2112 1938 2101 2098 2136 2058 2062 2159 2122 2096 2112 2117 2165 2147 2045 2090 2080 2144 2194 2187 2139 2068 2057 2191 2123 2153 2158 2153 2111 2151 2136 2078 2109 2053 2106 2048 2117 2155 2089 2045 2051 2036 2143 2092 2076 2089 2050 2032 2074 2094 1966 2042 2045 2036 1963 1999 2060 1999 2072 1952 2020 2007 2062 2122 2091 2051 2024 2049 2082 1959 1956 2001 2010 2001 1997 2039 1975 2016 1996 2036 2063 2067 2045 2017 1997 2061 2098 2021 2098 2022 1978 2048 1976 2001 2000 1961 2054 2057 2080 2021 2069 2049 1990 2111 2058 2050 2033 2058 2003 2047 1879 1992 2013 2020 2042 2041 1984 1933 2045 2072 1952 1957 2083 2030 2078 1984 2028 1934 2029 2014 2042 1946 2048 2079 1979 1984 2046 2009 2064 1987 2015 1981 2025 1996 2014 2004 1981 2012 1950 2052 2080 2018 2055 1970 1991 2005 2047 1967 2048 2038 1986 1930 2077 2044 2060 1969 2006 2025 2104 1999 1993 2127 2040 2040 1915 2061 1980 1993 1937 2039 1992 2050 2047 2005 2005 2001 2057 2100 2122 2030 2008 2005 1969 2050 1972 2024 2003 2017 1954 2000 2029 2089 2030 2078 1950 1995 2044 1950 1970 2001 1993 1995 2001 1987 2086 2035 2085 2073 2052 1999 1991 2066 2068 2037 1970 2028 1961 2001 2055 2017 2005 1985 2065 1971 1978 2014 2045 2014 1970 1991 2017 2072 2029 2076 2008 1968 1929 1986 2133 2001 2019 1978 1956 1990 1923 1996 1892 2084 1963 2074 1962 1970 2063 2003 2146 2005 2021 2091 2032 2005 1939 2041 2001 1977 2097 2128 1978 1991 2125 2028 2049 2059 2053 1987 2037 2035 2063 2042 2067 2028 2075 2100 1954 2042 2039 2036 2053 2148 2054 2043 2069 2154 2099 2161 2108 2206 2079 2299 2262 2152 2238 2242 2222 2251 2217 2298 2316 2356 2246 2266 2237 2311 2321 2382 2430 2392 2487 2571 2530 2527 2476 2449 2439 2263 2289 2324 2299 2324 2320 2197 2289 2189 2214 2316 2319 2247 2269 2289 2187 2222 2173 2216 2200 2099 2182 2028 2113 2139 2076 2129 2098 2125 2000 2055 2109 2086 2039 2104 2013 2113 2072 2055 2088 2104 2058 2130 2062 2114 1973 2056 2115 1985 2089 2082 2119 2041 2129 2000 2102 1932 2000 2135 2132 2031 2036 2019 1976 2015 2127 2041 2020 2014 1958 2117 1974 2065 2078 2068 2043 1978 1979 1999 2103 2017 2006 1982 1993 2005 1995 2025 1976 1982 2038 2011 2049 2096 1956 2089 1974 2051 1964 2043 2107 2053 1996 2013 1995 1992 2014 2110 1981 2034 2019 2063 2022 2040 2071 2006 2066 2123 1974 2054 2074 2014 2008 1996 1999 2058 1978 2060 2062 1999 1924 2046 1995 1988 1922 2039 2052 1973 1970 1979 1944 1964 2022 2092 1905 2025 1995 2104 2041 1911 1992 2023 1929 2019 2019 2007 1991 1969 2021 1963 2079 1957 2043 1953 2012 2035 1955 2070 1999 2017 2039 1977 2091 1977 1895 1991 2067 1879 2051 2032 1999 2083 1966 2082 1979 2071 2058 2150 1988 2046 2080 2067 2038 2011 2021 2041 2019 1915 2043 2037 1940 2043 2068 2022 1934 2047 1975 2008 1997 1913 2072 1984 1959 1974 2044 1981 2083 1980 1862 2032 1909 1980 2042 1950 2015 1916 2035 2051 1980 2004 1999 1999 2073 2038 1863 2038 1913 2059 2013 1953 1950 2055 1940 2088 2055 1985 2053 1972 1944 1981 1984 2036 1973 1944 2080 1976 1926 2054 1987 1984 1916 2045 1919 1970 2027 1952 2035 2026 1951 2036 1978 2056 2046 1990 1950 1934 1981 2089 2044 1974 1979 1992 1999 1992 2051 2028 2083 2057 1994 1989 1986 1898 2077 2027 2028 1988 1961 1989 1946 1985 2050 1895 2019 2109 1983 2037 1933 2038 2059 1995 2060 2037 2034 2024 1979 1973 2070 2008 2066 2016 2025 2028 2043 1980 2007 2022 2015 2006 2009 2032 1938 2051 1991 2050 1978 1993 1994 1975 1914 2023 1960 2014 2005 1895 2030 2077 1978 1986 2054 2137 1998 2061 2021 2062 1986 1984 2050 2125 1960 2035 1973 1982 2010 2011 2006 1969 2004 1995 2027 2041 1969 1983 2016 1980 2040 1960 2075 2028 1996 2085 1937 2052 1979 2029 2088 1988 2001 1993 2008 2016 2079 1957 1991 2016 1965 2069 2038 2038 2042 1972 2015 2043 1972 1976 2010 2012 2010 2024 2029 1977 1947 1993 2048 2032 2049 2042 1939 2037 1962 2034 2001 2045 2030 2091 2004 1941 1926 2014 1991 2079 1912 1973 2054 2037 2077 2044 1974 2005 2042 2028 2005 1981 1999 2027 2035 2007 1975 1965 2006 2031 2014 2045 2059 1942 2034 1922 2033 2040 2005 1999 1986 2009 1971 2015 2018 1931 1973 2058 1993 1958 1960 2021 1955 1971 1996 1942 1897 1980 2048 1963 1969 2016 2021 1982 2028 2067 1981 2022 2011 1979 1985 2057 2041 2059 2014 2097 2039 1966 2072 2053 1979 2023 2008 2003 2024 1960 2011 1989 2049 2040 1997 2028 2016 1992 1895 1995 2033 1946 2014 2029 2067 2083 2004 1937 2008 1998 1989 2077 1995 2019 1921 1978 2037 2122 2023 2058 1972 1874 1995 1947 1992 2021 2098 2044 2025 1978 1966 2046 2057 1976 2063 1991 1990 1992 2038 2028 1985 2070 2093 2043 1991 2044 1990 1998 1974 1958 1915 2062 1977 2072 1986 2008 1989 1960 2129 2060 2004 2088 2065 1976 2068 2028 1956 1962 2029 1976 1912 2105 1987 2071 1955 2031 2003 2031 2003 2011 2046 2024 1971 1961 1986 1973 2003 2072 2067 1951 1974 2139 1966 1978 2066 2042 2005 1972 2034 2036 2088 2031 1994 1991 2052 2061 2077 2061 1994 2021 2031 1983 2004 2100 2038 2056 2077 2013 2085 2112 2081 2032 2024 2100 2074 2117 2131 2039 2205 2074 2092 2091 2168 2019 2084 2181 2030 2105 2067 2114 2169 2114 2170 2109 2062 2118 2161 2004 2175 2091 2050 2033 2065 2086 2066 2093 2054 2113 2112 2015 2091 2059 2034 1980 2082 2028 2077 2121 1948 2130 2106 2087 2080 2091 2022 2041 2144 2062 2006 2134 2082 2073 2141 2168 2101 2163 2078 2101 1997 2017 2163 2058 2111 2160 2127 2083 2140 2112 2028 2120 2098 2124 2077 2132 2031 2022 2105 2117 2108 2158 2093 2086 2247 2066 2171 2098 2117 2050 2085 2044 2124 2024 2130 2105 2057 2131 2053 1991 2082 2046 2024 2124 2053 2067 1986 2072 2030 2011 1975 2122 2075 2055 1993 2094 2001 2015 2050 1989 1958 1969 1988 2048 1989 1976 2017 2090 2039 2032 2052 2075 1991 1957 2020 2068 1967 1991 2076 2126 2091 2007 2103 1996 2030 2008 2025 2091 2054 2053 2035 2035 2060 2000 2001 2006 2078 2028 2065 2030 2049 2098 2033 2008 2042 2033 2027 1980 2012 2056 1949 2016 1988 2087 2011 2033 2011 2024 2054 2044 2005 2103 2031 2041 2001 2021 2053 1970 2029 2026 1962 2016 1987 2102 2014 2016 2056 2039 2023 2017 2003 2022 1942 1953 2070 2058 2026 2034 2041 1989 2003 2055 2019 2095 2021 2055 2054 2060 1994 2016 2064 2034 2084 2050 2138 2081 2079 2099 1948 2006 2074 2046 2023 2040 2015 2078 2037 1991 2041 2112 2079 2066 2047 2045 2084 2099 2055 2035 2046 1987 2048 2157 2119 2090 2071 2091 2012 2125 2048 2080 2022 2166 2052 2085 2110 2086 2071 2058 2105 2129 2075 2130 2174 2227 2163 2245 2243 2256 2288 2276 2231 2291 2423 2284 2416 2469 2540 2631 2616 2566 2611 2465 2680 2535 2632 2532 2587 2535 2535 2549 2554 2620 2664 2660 2677 2704 2810 2771 2751 2666 2661 2688 2601 2693 2664 2533 2606 2534 2485 2479 2459 2501 2396 2395 2424 2539 2518 2535 2369 2461 2520 2382 2410 2348 2297 2244 2297 2277 2226 2327 2229 2205 2220 2158 2113 2257 2289 2120 2116 2107 2213 2127 2190 2192 2057 2153 2133 2151 2216 2141 2118 2159 2105 2105 2078 2115 2154 2183 2075 2120 2041 2131 2055 2116 2128 2071 2211 2092 2011 2111 2090 2032 2118 2137 2056 2108 2018 2098 2033 2154 2138 2031 2114 2030 2152 2051 2083 2107 2151 2040 2111 2087 2066 2118 2087 2112 2052 2113 2109 2095 2018 2113 2154 2118 2130 2010 2094 2118 2080 2091 2112 2071 2042 2109 2135 2108 2092 2047 2054 2015 2051 2067 1987 2053 2052 2070 2040 2056 2115 2089 2056 2100 1925 2141 2009 2029 2053 2098 2080 2077 1981 1979 2070 1963 2083 2154 2056 2144 2123 1994 2085 2114 2092 2131 2225 2231 2128 2119 2096 2074 2135 2082 2118 2094 2133 2107 2170 2132 2153 2087 2119 2138 2168 2160 2125 2092 2030 2107 2107 2081 2111 2145 2169 2062 2039 2084 2119 2115 2209 2096 1975 2132 2082 2033 2082 1989 2071 2155 2149 2067 2111 2054 2089 2038 2074 2074 2136 2070 2098 2187 2045 2090 2088 2034 2017 2032 2040 2028 2078 2062 2052 2011 1938 2134 2054 2070 2005 2032 1977 2068 1973 2015 2063 2050 2116 1978 2001 2069 2044 2080 2169 2087 2036 2103 2001 2018 2054 2026 2048 1988 1974 2030 2046 2045 2096 2094 2054 2030 2032 2044 2045 1961 2098 2026 2075 1968 2079 2039 2079 1915 1977 1957 2023 2093 2109 2047 2042 2130 1975 2087 1976 2045 2082 1974 2035 2026 1975 2061 1992 1994 2027 1907 2062 2021 2043 2056 2037 2134 2081 2039 2052 2041 2089 2062 1987 1996 2035 2053 2034 2025 2063 2034 2013 2031 1963 2027 1966 2016 2013 1979 2065 2017 1993 2034 2016 2062 2016 2047 2047 2013 2060 1997 2069 2068 2017 1973 2045 1948 2003 2020 2104 2015 2013 2040 2008 1975 2036 1998 1939 1975 1980 2044 2043 2018 2041 2040 1964 2037 1975 2103 2005 2038 2021 2035 1966 2078 2042 2033 2088 2016 2054 2014 2047 1970 2003 1991 2063 2117 2048 2050 2050 1987 2033 1965 1938 2013 2006 2029 1971 1997 2010 1989 2066 2022 2040 2032 1996 1976 2016 2085 2060 1999 2092 2018 1990 2008 2082 2013 2019 1966 2023 1961 1992 1989 1955 1965 2048 2076 2003 2041 2020 1945 1936 1967 2012 1998 1970 2031 2038 2102 1946 1999 1952 2084 2041 2071 2036 2078 1982 2049 1924 1981 2086 2029 1980 1930 2086 2090 2014 2045 1988 1947 2029 2095 1972 2014 1909 1985 1979 2007 1990 1986 1974 2056 2027 1953 2049 1993 2012 1979 2029 2006 2017 2003 2035 2004 2051 2021 1903 2046 1972 2029 1972 2001 2099 2056 1969 1971 2018 2005 2009 2004 1974 1994 1910 2088 2047 2031 2016 1985 1925 2002 1994 2047 1987 1999 2015 2054 1986 1978 1989 2106 1997 2026 2100 2058 1930 2070 1983 2013 1983 2045 2001 1947 2000 1998 1964 2076 2029 1938 2014 2029 2009 2060 2028 1969 1988 2062 2063 2066 2071 1995 2025 2091 2015 2031 2031 2016 2010 2023 2025 1983 1991 2005 2054 2103 2030 2075 2086 2083 2059 2104 2033 2049 2073 2080 2051 2077 2048 2016 2045 2043 2037 1994 2022 1992 2091 2082 2093 2020 2066 2047 2000 2109 2156 2006 1990 2176 2006 2015 2029 2049 2102 2020 2058 2088 2019 2056 2042 1999 2002 2018 2090 2033 2068 2064 2112 2079 2020 2130 2034 2078 2119 2115 2143 2017 2061 2115 2143 2121 2102 2074 2143 2136 2120 2037 2086 2107 2061 2189 2079 2081 2158 2070 2148 2140 2085 2146 2091 2198 2079 2102 2132 2073 2155 2026 2185 2036 2049 2118 2136 2125 2128 2068 2042 2080 2097 2123 1997 2065 2030 2051 2179 2074 2088 2072 2101 2129 2049 2074 2054 2107 2060 1970 1985 2071 2077 2064 2022 2073 2036 2073 2041 2023 2065 2140 2109 1990 2044 2045 2054 2070 1980 2038 2043 2028 1982 2011 2114 2084 1997 2014 2116 2038 2041 2028 1992 1980 2133 2060 2049 2043 2054 2002 2111 2041 2033 2019 2088 2075 2022 2046 2023 2001 2101 1945 1974 2085 2045 1989 2079 2015 2008 2062 1971 2008 2016 2017 2001 2137 1979 2061 1982 1998 2112 2016 1982 2105 2052 2093 2064 2022 2067 2011 2016 1999 1994 2085 1977 2011 2070 2050 2021 1941 2016 2002 2022 2030 2092 1992 2064 2021 2077 2051 2102 1945 2000 1975 1949 2054 2012 1971 2035 2022 2092 1941 2054 1957 2076 2045 2038 2054 2085 2020 1985 1993 1949 2046 2051 2022 2034 2017 2106 2123 2044 2066 2067 2054 2005 2007 2060 1970 2053 2021 1958 2140 1975 2076 1996 2054 1980 2046 1966 2181 2025 2051 2026 1978 2067 2071 2043 1995 2108 2007 2074 2061 2052 2056 2016 2079 2018 2010 2076 2037 2045 2102 2097 1983 1962 1986 2030 2074 1986 2074 2104 2043 2023 2021 2030 2080 2014 1994 2091 2065 2068 2079 2046 1974 1993 2094 2065 2156 2061 2001 2063 2069 1947 2003 2085 2056 2065 1986 2057 1996 2161 2102 1973 2070 2072 2170 2045 2056 2051 2105 2126 2145 2127 2066 2110 2191 2150 2217 2275 2343 2276 2330 2381 2416 2442 2356 2404 2355 2348 2433 2353 2336 2355 2362 2239 2400 2391 2407 2352 2398 2407 2383 2385 2485 2293 2408 2404 2450 2414 2420 2432 2458 2475 2357 2443 2406 2352 2405 2375 2322 2343 2389 2248 2304 2294 2257 2289 2243 2228 2297 2152 2278 2264 2229 2295 2258 2179 2239 2165 2225 2190 2169 2176 2169 2281 2112 2125 2119 2125 2172 2129 2113 2184 2057 2121 2095 2040 2102 2108 2073 2051 2146 2137 2062 2113 2085 2091 2052 2140 2090 2129 2090 1973 2039 2098 2104 2086 2055 2091 2107 2046 2145 2054 2092 2193 2135 2004 2074 2138 2116 2073 2103 2053 2108 2110 2085 2153 2069 2114 2036 2102 2056 2027 2086 2187 2170 2066 2055 2105 2084 1999 2118 2103 2078 2068 2138 2096 2074 2072 2072 2027 2120 2100 2036 2051 2025 1989 2041 2159 2053 2115 2097 2119 2079 2068 2124 2145 2015 2004 2040 2116 2071 2103 2046 2078 2010 2013 2040 1976 2068 2070 2092 2013 2067 2030 2035 2113 2001 2056 2044 2040 2058 1981 2038 2021 2037 2109 2084 2116 2061 2023 2039 2018 2059 2155 2007 2075 2130 2096 2022 2041 2134 2070 2133 2123 2135 2119 2088 2064 2130 2141 2069 2059 2038 2212 2010 2069 2143 2003 2090 1951 2077 2012 2134 2073 2052 2015 2075 2048 2020 2064 2062 2127 2012 2064 2018 2068 2085 2056 2011 2137 2030 2005 2044 2108 2049 1981 2093 2042 2035 2097 2035 2019 2009 2044 2021 1987 2076 2054 2042 2035 2040 2073 1978 2071 1989 2125 2056 1980 2006 2018 2081 2017 2053 2007 2044 2076 2048 2029 2029 2012 2032 2005 2120 1997 2177 1999 2119 2080 2000 2023 1964 2096 2023 2000 2028 2054 1997 1958 2105 2019 2035 1984 2089 2081 2006 2125 2003 2029 2097 2105 1955 2053 2061 2075 2069 2049 2068 2143 2090 2097 2011 2047 2003 1993 1981 2076 1979 1989 2021 1914 2051 2031 1979 2027 2066 2034 2036 1963 1932 2038 2072 1965 2040 1984 2079 2009 2030 2061 1990 2102 2103 2036 2006 1981 2134 1952 1985 2077 2030 2085 2027 2031 2035 2076 2005 1939 2063 1996 2042 1996 2088 2028 2135 2080 2007 2107 1995 2054 2006 2020 2038 2089 1996 2026 2022 2001 2067 2076 2058 1943 2051 2082 2076 2079 1989 2071 1983 2006 1984 2061 2019 2052 2021 2007 2014 2052 2018 2021 2076 2036 2095 2039 1977 1970 2015 2055 1983 2061 2009 2123 2029 2067 2052 2036 1951 2095 2159 2002 1981 2068 1987 2020 2030 1967 2015 2078 2046 1943 2079 2018 2159 2029 2075 1992 2000 1997 1987 2001 2037 2008 2060 2086 2061 1954 2036 2058 2024 2047 2050 1963 1979 2058 2065 2075 2062 2033 1980 2077 1951 2045 2044 2041 1984 2088 2109 2006 1967 2006 1947 2008 2032 2106 2034 1987 2011 2042 2023 1957 2012 1902 2055 1966 2026 2042 2040 2043 2046 2106 1989 2021 2165 2045 2058 2062 2092 2046 2036 1943 2094 2022 2094 2099 1978 1963 2009 2000 2005 1961 1992 2031 2073 2026 2028 2094 2063 1999 2080 1940 2018 2026 1965 2033 2046 1933 2024 1989 1997 1970 2068 2044 2030 2017 1996 2024 2161 2159 2079 2013 2060 1992 2048 1986 1971 2000 2065 2065 1966 2022 1979 1950 2006 2060 2112 2028 2079 2075 2015 2015 2065 2014 1949 1983 2056 2002 1981 2085 2110 1984 2052 1997 2013 1989 2051 2024 1996 1994 2070 2092 1941 1975 1976 2045 2061 2061 2131 2064 2007 2009 2025 1987 2042 2045 2106 1971 1990 1990 2037 2009 2075 2003 2048 2018 2010 2102 2019 2068 2083 2060 2009 2042 2188 2104 2069 2057</counts>
			</dataPoints>
		</scan>
	</xrdMeasurement>
</xrdMeasurements>
