<?xml version="1.0"?>
<xrdMeasurements xmlns="http://www.xrdml.com/XRDMeasurement/2.3" xmlns:xsi="http://www.w3.org/2001/XMLSchema-instance" xsi:schemaLocation="http://www.xrdml.com/XRDMeasurement/2.3 http://www.xrdml.com/XRDMeasurement/2.3/XRDMeasurement.xsd" status="Completed" recordIdentifier="{19B15964-698B-4E7A-99C0-5223E13426F2}">
	<comment>
		<entry/>
	</comment>
	<sample type="To be analyzed">
		<id>GPSS_Li1p4Mg0p6Mn0p15Hf0p15Nb0p1Cl4_112425_69248ac4f4e53d1f723993d7</id>
		<name></name>
		<preparedBy></preparedBy>
	</sample>
	<xrdMeasurement measurementType="Scan" status="Completed" sampleMode="Reflection">
		<usedWavelength intended="K-Alpha 1">
			<kAlpha1 unit="Angstrom">1.5405980</kAlpha1>
			<kAlpha2 unit="Angstrom">1.5444260</kAlpha2>
			<kBeta unit="Angstrom">1.3922500</kBeta>
			<ratioKAlpha2KAlpha1>0.5000</ratioKAlpha2KAlpha1>
		</usedWavelength>
		<incidentBeamPath>
			<radius unit="mm">145.00</radius>
			<xRayTube id="1010048" name="Empyrean Cu LFF HR (9430 033 7310x)">
				<tension unit="kV">40.0</tension>
				<current unit="mA">15.0</current>
				<anodeMaterial>Cu</anodeMaterial>
				<focus type="Line">
					<length unit="mm">12.0</length>
					<width unit="mm">0.4</width>
					<takeOffAngle unit="deg">6.0</takeOffAngle>
				</focus>
			</xRayTube>
			<sollerSlit id="21010002" name="Soller slits 0.04 rad.">
				<opening unit="rad">0.0400</opening>
			</sollerSlit>
			<mask id="22031000" name="Fixed mask 13 mm">
				<width unit="mm">9.00</width>
			</mask>
			<divergenceSlit id="22120001" name="Divergence slit 1°" xsi:type="fixedDivergenceSlitType">
				<distanceToSample unit="mm">50.00</distanceToSample>
				<height unit="mm">1.52</height>
			</divergenceSlit>
		</incidentBeamPath>
		<sampleMovement xsi:type="spinningSampleMovementType">
			<spinnerRevolutionTime unit="seconds">1.0</spinnerRevolutionTime>
		</sampleMovement>
		<diffractedBeamPath>
			<radius unit="mm">145.00</radius>
			<antiScatterSlit id="22090040" name="AS slit 9 mm (PIXcel)" xsi:type="fixedAntiScatterSlitType">
				<height unit="mm">9.00</height>
			</antiScatterSlit>
			<sollerSlit id="21020003" name="Large Soller slits 0.04 rad.">
				<opening unit="rad">0.0400</opening>
			</sollerSlit>
			<filter id="20030001" name="Large beta-filter Nickel">
				<material>Ni</material>
				<thickness unit="mm">0.020</thickness>
			</filter>
			<detector id="7010019" name="PIXcel1D-Medipix3 detector" xsi:type="rtmsDetectorType">
				<phd unit="keV">
					<lowerLevel>4.02</lowerLevel>
					<upperLevel>11.27</upperLevel>
				</phd>
				<mode>Scanning</mode>
				<activeLength unit="deg">5.542</activeLength>
			</detector>
		</diffractedBeamPath>
		<scan appendNumber="0" mode="Continuous" scanAxis="Gonio" status="Completed">
			<header>
				<startTimeStamp>2025-11-27T11:03:44-08:00</startTimeStamp>
				<endTimeStamp>2025-11-27T11:11:51-08:00</endTimeStamp>
				<author>
					<name>AutomatedUser</name>
				</author>
				<source>
					<applicationSoftware version="1.7b (136)">PANalytical Aeris Instrument Suite</applicationSoftware>
					<instrumentControlSoftware version="3.2.00000000 20240306">AERIS</instrumentControlSoftware>
					<instrumentID>950485</instrumentID>
				</source>
			</header>
			<dataPoints>
				<positions axis="2Theta" unit="deg">
					<startPosition>10.00943322</startPosition>
					<endPosition>99.99442286</endPosition>
				</positions>
				<positions axis="Omega" unit="deg">
					<startPosition>5.00471661</startPosition>
					<endPosition>49.99721143</endPosition>
				</positions>
				<commonCountingTime unit="seconds">12.495</commonCountingTime>
				<counts unit="counts">2920 2803 2960 2894 2892 2916 2909 2794 2860 2833 2835 2838 2828 2896 2930 2901 2847 2839 2857 2899 2861 2796 2881 2790 2834 2753 2838 2880 2855 2764 2815 2832 2860 2791 2831 2855 2892 2706 2802 2824 2810 2884 2827 2831 2952 2864 2919 2866 2797 2837 2825 2859 2985 2867 2878 2815 2874 2827 2672 2794 2850 2841 2872 2713 2875 2825 2811 2811 2737 2844 2868 2819 2866 2827 2843 2908 2847 2913 2869 2817 2862 2822 2861 2779 2903 2694 2826 2830 2842 2857 2784 2812 2708 2802 2837 2789 2817 2820 2807 2870 2825 2904 2867 2931 2854 2880 2841 2879 2911 2823 2787 2804 2814 2889 2798 2812 2918 2944 2908 2885 2837 2903 2807 2843 2788 2773 2843 2814 2814 2784 2770 2844 2935 2747 2869 2893 2879 2814 2797 2767 2828 2875 2844 2883 2791 2922 2891 2871 2869 2820 2801 2808 2777 2849 2730 2927 2818 2848 2763 2903 2793 2793 2890 2938 2784 2840 2849 2826 2772 2830 2779 2750 2819 2914 2802 2906 2851 2763 2931 2874 2837 2888 2858 2704 2732 2802 2810 2856 2658 2882 2819 2888 2680 2791 2820 2827 2786 2832 2682 2808 2739 2830 2768 2798 2787 2800 2730 2768 2742 2824 2739 2736 2884 2785 2825 2782 2815 2779 2821 2871 2854 2820 2781 2610 2797 2729 2739 2777 2752 2687 2779 2748 2890 2670 2645 2681 2749 2850 2791 2706 2714 2795 2815 2654 2739 2729 2727 2775 2710 2750 2775 2792 2782 2851 2763 2832 2667 2761 2792 2764 2722 2772 2812 2741 2754 2709 2829 2797 2869 2851 2803 2736 2778 2779 2760 2765 2794 2812 2816 2820 2864 2821 2912 2863 2824 2872 2748 2740 2791 2864 2893 2790 2894 2795 2823 2746 2931 2834 2886 2792 2934 2902 2943 2881 2900 2863 2868 2890 2939 2925 2961 2962 2961 3013 2935 3019 3005 2963 2939 3079 2992 2980 3048 2897 2988 2958 2970 3101 3027 3033 3009 2977 3003 2991 2986 3097 3008 3057 3076 3121 3123 3125 3144 3127 3085 3135 3091 3119 3058 3156 3135 3117 3171 3224 3116 3226 3221 3231 3221 3234 3203 3162 3273 3115 3299 3146 3170 3240 3322 3261 3291 3275 3286 3282 3285 3245 3257 3346 3316 3290 3253 3365 3298 3421 3490 3324 3284 3460 3291 3369 3379 3546 3313 3449 3465 3467 3498 3518 3450 3564 3609 3636 3614 3681 3686 3565 3822 3824 3857 3949 3978 3936 4052 3978 4140 4392 4358 4503 4536 4432 4660 4828 4884 4841 4934 4952 5066 5098 5083 5194 5165 4955 5087 5123 5029 5191 5087 5125 4926 4927 4943 4969 4958 5137 4925 4963 4905 4901 5006 4851 4938 5039 5035 4891 4958 5004 4958 5059 4899 4799 4564 4788 4563 4525 4447 4310 4266 4297 4162 4279 4151 4179 4147 4022 4045 3969 3912 3938 3924 3844 3818 3841 3681 3596 3614 3657 3523 3569 3501 3421 3477 3459 3317 3353 3447 3334 3353 3334 3279 3338 3287 3236 3253 3310 3296 3279 3184 3265 3191 3222 3234 3276 3109 3177 3126 3132 3079 3103 3183 3214 3136 3197 3107 3238 3185 3171 3105 3165 3125 3097 3052 3006 3094 3031 3085 3032 3160 3075 3049 3166 3089 3048 3012 3012 3131 3007 2951 3023 3109 3048 3019 3105 3078 3052 3042 2983 3138 3018 3077 2927 2964 2901 2879 2946 2952 2926 3004 2903 2945 2883 2928 2974 2953 2853 2921 2971 2813 2952 2906 2999 2818 2948 2908 2829 2926 2893 2807 2954 2909 2941 2914 2870 2809 2929 2983 2920 2918 2792 2865 2842 2980 2848 2929 2859 2858 2809 2937 2823 2799 2869 2878 2814 2765 2917 2871 2730 2841 2789 2841 2717 2839 2764 2747 2838 2782 2904 2912 2859 2776 2862 2824 2711 2800 2890 2703 2797 2838 2794 2647 2730 2763 2733 2807 2821 2792 2736 2774 2769 2718 2736 2816 2762 2743 2702 2676 2693 2727 2756 2660 2738 2735 2758 2752 2793 2795 2672 2653 2716 2791 2706 2790 2778 2787 2781 2797 2753 2751 2764 2682 2639 2701 2654 2741 2723 2709 2619 2762 2670 2732 2767 2688 2799 2722 2716 2714 2705 2708 2629 2655 2612 2715 2776 2652 2643 2709 2701 2721 2622 2605 2655 2684 2631 2690 2593 2648 2707 2693 2723 2627 2565 2621 2688 2712 2678 2725 2642 2682 2666 2697 2649 2745 2715 2712 2708 2581 2728 2726 2594 2605 2644 2632 2671 2659 2558 2759 2687 2651 2653 2609 2617 2599 2631 2566 2625 2602 2615 2639 2641 2626 2554 2652 2682 2581 2659 2579 2635 2560 2639 2609 2562 2531 2674 2597 2554 2634 2614 2643 2598 2691 2652 2598 2510 2633 2627 2564 2619 2616 2640 2595 2596 2514 2537 2594 2439 2575 2529 2531 2531 2558 2594 2567 2527 2572 2554 2544 2561 2520 2600 2534 2525 2534 2585 2493 2602 2698 2527 2582 2542 2633 2479 2533 2515 2526 2493 2572 2541 2622 2482 2452 2477 2645 2543 2493 2447 2486 2470 2569 2592 2620 2464 2496 2456 2485 2514 2528 2480 2574 2461 2458 2534 2532 2455 2481 2409 2445 2446 2476 2541 2475 2373 2507 2471 2481 2486 2413 2430 2470 2503 2455 2478 2418 2457 2532 2436 2348 2403 2438 2433 2453 2449 2477 2408 2447 2367 2426 2442 2453 2371 2429 2449 2482 2384 2430 2370 2390 2473 2439 2420 2439 2376 2435 2416 2389 2370 2363 2406 2443 2315 2439 2452 2396 2459 2413 2488 2442 2346 2427 2416 2274 2385 2361 2317 2278 2441 2349 2354 2345 2358 2415 2413 2306 2308 2285 2416 2374 2435 2346 2369 2374 2391 2316 2293 2317 2321 2356 2370 2269 2254 2314 2335 2294 2261 2244 2301 2378 2322 2367 2395 2320 2190 2360 2356 2290 2293 2236 2316 2366 2377 2317 2347 2238 2356 2381 2362 2343 2316 2359 2393 2316 2274 2286 2258 2292 2265 2208 2317 2330 2355 2284 2316 2315 2306 2302 2334 2286 2332 2353 2268 2267 2373 2280 2310 2309 2245 2384 2329 2263 2387 2377 2310 2287 2372 2364 2279 2391 2343 2319 2296 2341 2379 2263 2195 2328 2237 2360 2307 2298 2273 2359 2305 2282 2346 2340 2226 2318 2353 2217 2444 2363 2306 2316 2236 2341 2316 2261 2334 2221 2397 2263 2343 2255 2413 2239 2244 2344 2298 2308 2267 2276 2325 2245 2326 2396 2200 2310 2271 2356 2326 2261 2256 2332 2378 2369 2396 2322 2327 2275 2339 2339 2370 2309 2344 2230 2298 2411 2327 2376 2311 2336 2302 2271 2329 2344 2311 2354 2241 2217 2284 2270 2214 2315 2216 2263 2221 2202 2308 2216 2331 2255 2302 2250 2294 2273 2219 2175 2319 2170 2301 2187 2217 2220 2269 2326 2189 2308 2328 2289 2306 2217 2210 2289 2264 2208 2200 2189 2178 2212 2228 2218 2266 2309 2274 2187 2148 2201 2238 2255 2201 2239 2134 2216 2202 2105 2219 2151 2139 2179 2118 2153 2159 2119 2133 2108 2221 2138 2190 2194 2134 2188 2223 2163 2123 2113 2015 2071 2118 2162 2064 2153 2128 2128 2026 2048 2048 2073 2004 2056 2021 1957 2090 1968 2040 2058 2036 2047 2026 1965 2040 1998 2083 1933 2003 2003 1977 1952 1983 2004 1899 2066 1878 2059 1925 1888 2014 1909 1898 1944 1991 1989 1916 1943 1889 1910 1909 1890 1929 1954 1941 1888 1886 1920 1927 1835 1849 1846 1875 1882 1824 1865 1774 1910 1774 1901 1878 1848 1815 1843 1749 1789 1802 1804 1817 1860 1715 1743 1801 1848 1829 1792 1857 1830 1861 1831 1718 1738 1819 1881 1774 1832 1681 1764 1845 1793 1752 1738 1754 1750 1715 1770 1734 1726 1667 1797 1793 1871 1777 1755 1736 1785 1796 1711 1665 1758 1708 1796 1768 1754 1739 1703 1726 1669 1725 1770 1731 1695 1694 1683 1659 1709 1687 1678 1667 1720 1708 1789 1695 1633 1766 1688 1678 1681 1688 1675 1726 1612 1701 1650 1637 1656 1641 1564 1598 1581 1750 1686 1701 1628 1684 1655 1627 1650 1654 1644 1676 1719 1653 1647 1601 1639 1654 1620 1589 1628 1636 1629 1662 1594 1620 1526 1642 1595 1589 1625 1587 1683 1558 1626 1646 1660 1641 1592 1602 1680 1578 1560 1610 1612 1628 1616 1673 1662 1629 1579 1640 1618 1624 1580 1580 1625 1569 1636 1598 1547 1538 1698 1542 1665 1532 1673 1591 1673 1634 1602 1615 1623 1646 1604 1658 1647 1613 1638 1590 1670 1631 1583 1649 1575 1636 1633 1642 1632 1652 1615 1525 1654 1607 1560 1534 1654 1635 1646 1625 1602 1619 1577 1647 1647 1615 1652 1715 1631 1570 1617 1635 1643 1611 1575 1637 1647 1694 1583 1607 1512 1576 1611 1599 1568 1556 1659 1637 1680 1613 1641 1637 1554 1572 1605 1643 1672 1696 1637 1640 1633 1545 1590 1709 1683 1708 1617 1699 1623 1661 1576 1643 1619 1610 1653 1679 1614 1612 1560 1659 1664 1586 1532 1660 1674 1653 1630 1629 1605 1530 1589 1625 1564 1621 1599 1659 1702 1639 1542 1698 1623 1637 1524 1623 1566 1653 1650 1612 1652 1622 1694 1590 1608 1632 1594 1643 1506 1552 1614 1577 1582 1587 1553 1577 1572 1600 1657 1637 1527 1521 1578 1549 1445 1567 1484 1596 1595 1591 1545 1569 1503 1518 1541 1504 1448 1528 1510 1563 1508 1528 1494 1498 1513 1431 1550 1552 1472 1450 1418 1527 1502 1585 1496 1498 1581 1462 1449 1449 1437 1512 1493 1464 1548 1416 1451 1492 1399 1461 1395 1423 1493 1393 1502 1360 1362 1350 1423 1408 1394 1391 1459 1443 1451 1399 1476 1350 1474 1312 1386 1400 1379 1365 1431 1438 1365 1335 1358 1372 1451 1402 1364 1306 1347 1423 1367 1430 1393 1379 1322 1328 1398 1359 1379 1433 1306 1291 1333 1346 1339 1388 1362 1418 1360 1353 1318 1310 1329 1351 1390 1360 1323 1388 1390 1471 1319 1419 1356 1460 1403 1412 1434 1441 1476 1491 1550 1438 1474 1606 1582 1657 1678 1684 1695 1811 1774 1797 1878 1860 1845 1856 1904 1938 1912 1901 1855 1975 1825 1794 1845 1850 1874 1747 1790 1728 1724 1783 1740 1634 1635 1675 1644 1601 1666 1525 1650 1586 1544 1553 1501 1436 1424 1522 1506 1477 1440 1489 1511 1423 1412 1437 1429 1376 1381 1414 1394 1319 1332 1310 1318 1327 1320 1378 1281 1361 1239 1287 1296 1319 1326 1284 1345 1258 1287 1333 1283 1283 1330 1287 1277 1343 1302 1267 1289 1253 1308 1311 1347 1344 1373 1397 1351 1331 1363 1313 1378 1388 1431 1436 1465 1525 1512 1614 1468 1631 1655 1708 1826 1857 2017 2178 2237 2451 2526 2792 3107 3332 3515 3792 4206 4489 4768 5275 5743 6098 6680 6848 7192 7444 7711 7791 8129 8185 8285 8348 8254 8184 8138 7937 7696 7381 7183 6912 6653 6266 6106 5713 5585 5337 5091 4853 4624 4518 4324 4108 4173 3993 3929 3818 3827 3745 3746 3806 3869 3892 4097 3917 3946 3929 3989 3789 3738 3590 3507 3230 3244 3155 2946 2990 2727 2695 2643 2522 2526 2434 2312 2255 2292 2204 2210 2154 2158 1969 2019 1934 1985 1882 1795 1841 1746 1649 1545 1555 1587 1561 1505 1491 1450 1368 1384 1345 1349 1319 1250 1333 1199 1283 1168 1258 1191 1199 1133 1196 1162 1104 1197 1121 1128 1112 1131 1145 1143 1117 1085 1134 1097 1091 1100 1171 1086 1058 1054 1073 1109 1114 1038 1047 1080 1093 1031 1000 1034 1026 979 1028 1045 1015 1003 1044 1024 1034 992 1073 1089 1045 1030 1074 1065 988 1095 1024 1015 1035 1063 962 1000 1036 975 1013 1000 1058 944 1006 976 1085 1006 1019 962 1043 974 1000 1009 1015 971 963 998 992 1015 991 1044 973 1040 966 966 986 974 996 998 963 1009 1017 994 959 1002 1064 954 1015 950 1024 1021 928 1003 988 1003 987 948 1007 975 946 938 985 952 947 968 973 1027 982 1050 923 960 989 949 981 989 986 977 993 935 928 980 956 916 988 954 994 939 1004 976 989 953 967 1011 965 928 910 1005 932 942 909 955 971 942 970 961 909 938 947 973 908 910 935 927 935 946 929 959 909 896 976 903 942 961 925 946 872 904 916 916 902 899 866 919 952 953 973 908 930 904 907 981 871 928 919 914 853 874 850 895 889 904 909 975 905 899 911 924 914 866 893 925 900 936 930 932 931 902 925 929 906 938 916 939 916 915 904 879 934 877 871 891 926 922 955 886 954 944 906 915 965 966 925 906 915 950 975 980 905 917 928 949 955 916 962 872 916 882 971 927 949 916 956 931 923 916 984 964 980 972 902 929 960 895 940 954 953 968 962 999 948 954 993 925 973 981 984 1029 995 990 997 1053 954 1011 1013 1018 1020 1044 1061 1099 1093 1080 1092 1107 1099 1130 1194 1089 1167 1221 1184 1239 1251 1302 1317 1308 1341 1437 1502 1559 1641 1757 1779 1827 1960 2108 2288 2453 2630 2895 3157 3414 3637 4000 4419 4959 5378 5694 6107 6656 7031 7599 7909 8241 8500 8755 8998 9166 9279 9255 9218 9196 9017 8848 8750 8457 8148 7941 7541 7342 6807 6443 6344 6169 5843 5552 5208 4889 4683 4477 4209 4079 3956 3724 3626 3556 3494 3483 3379 3447 3288 3310 3370 3496 3448 3404 3360 3395 3437 3589 3424 3616 3462 3454 3550 3486 3431 3259 3301 3236 3067 2946 2854 2795 2724 2537 2535 2422 2298 2159 2119 2041 1930 1824 1747 1705 1660 1573 1528 1439 1457 1378 1391 1253 1320 1258 1261 1164 1154 1146 1141 1112 1079 1084 1047 1093 1066 1031 1029 1003 987 952 1017 978 929 926 938 893 889 860 950 872 886 918 856 942 907 943 860 842 835 860 888 903 924 872 915 876 888 880 920 829 874 826 853 811 830 916 906 831 817 863 899 814 807 862 840 811 836 809 830 881 866 830 817 807 822 797 838 863 826 803 854 809 792 803 851 815 790 791 822 822 841 782 767 815 833 784 778 832 799 829 821 817 806 808 810 892 806 806 789 791 800 775 807 787 828 810 852 802 786 783 774 769 815 765 784 807 794 772 811 768 807 838 787 809 831 849 787 775 756 745 764 731 804 826 788 771 787 803 726 787 794 754 770 850 755 786 820 816 777 821 752 750 793 785 781 772 818 749 769 750 783 826 753 776 816 782 810 761 794 756 736 766 689 779 791 818 811 759 773 770 777 785 762 764 802 735 796 749 792 798 724 767 730 769 766 776 749 773 765 791 793 776 705 757 795 733 762 718 783 771 772 788 772 784 732 789 767 801 759 728 739 744 775 714 794 726 760 743 757 744 738 739 721 729 748 744 743 700 759 722 762 790 724 783 745 738 751 693 740 779 729 727 744 762 795 708 723 689 737 745 740 682 712 794 753 705 696 736 746 711 719 717 727 738 765 726 768 740 686 756 698 705 706 694 721 758 722 699 732 675 691 690 713 743 731 704 690 707 645 715 729 694 704 695 777 731 710 651 702 725 729 693 688 680 735 714 705 755 684 706 705 696 689 698 642 718 688 665 694 675 695 649 714 648 657 712 717 708 657 676 708 644 684 714 689 705 660 733 735 654 651 658 716 699 671 681 707 646 654 704 655 689 655 707 635 684 688 681 687 657 719 659 648 649 649 670 699 670 726 665 658 726 612 678 724 701 678 679 665 658 682 690 611 688 685 661 690 696 694 719 649 668 640 657 681 688 656 666 713 692 684 642 667 670 644 676 657 656 639 696 665 664 724 661 686 683 649 675 672 636 642 628 671 655 683 653 692 620 685 666 618 681 684 708 691 637 665 642 598 680 651 694 671 684 653 670 659 658 616 630 680 651 650 639 651 689 631 660 671 625 691 696 652 679 672 680 636 653 602 621 641 662 646 653 623 656 650 648 646 683 690 658 652 668 651 680 621 658 626 658 656 654 681 590 616 651 652 668 624 647 712 669 671 631 668 709 641 659 704 643 633 656 642 660 634 644 656 635 684 647 634 627 647 641 635 678 675 708 678 694 643 661 691 597 641 651 633 652 610 651 653 602 660 651 631 615 642 663 641 690 666 612 644 670 626 613 683 639 646 664 634 633 658 631 614 678 671 648 661 662 666 646 625 688 660 672 653 636 664 624 679 646 679 636 672 617 649 630 655 600 652 658 663 647 603 671 671 617 600 595 605 640 610 606 615 647 639 630 598 615 619 636 640 618 632 668 592 638 627 617 608 648 660 641 632 662 605 644 616 628 612 630 645 627 604 629 614 671 638 627 610 619 646 591 630 685 653 613 683 658 653 620 639 611 593 648 632 627 615 633 635 656 609 639 614 623 642 618 707 656 646 661 611 636 684 590 628 631 649 638 631 575 597 608 595 631 622 594 626 618 624 590 666 643 663 663 629 636 637 615 583 624 628 626 653 626 664 607 612 650 646 580 637 663 625 631 615 627 639 635 673 652 659 626 639 638 593 669 587 591 654 657 620 625 611 626 609 635 619 648 600 614 642 609 605 633 629 642 618 617 575 614 649 624 607 644 639 586 599 620 660 637 569 644 539 626 635 611 637 622 614 606 586 613 626 696 640 644 628 628 640 633 604 621 630 646 667 640 642 643 609 600 641 593 637 645 599 618 596 606 626 609 643 602 610 588 603 649 626 559 642 586 598 594 656 623 613 583 682 681 611 620 611 627 621 652 640 608 624 618 585 644 666 611 634 621 631 661 617 656 666 637 644 663 634 630 657 592 636 613 630 601 627 616 604 654 640 653 667 668 638 596 618 655 718 634 737 704 643 671 668 705 675 752 746 754 762 812 773 841 853 821 924 909 969 982 1027 1084 1092 1138 1197 1233 1304 1265 1261 1288 1338 1325 1412 1374 1412 1339 1361 1426 1358 1232 1311 1251 1246 1225 1165 1167 1122 1172 1045 1055 1009 1046 980 964 916 893 791 828 857 826 837 764 806 748 774 772 745 675 794 660 742 727 659 722 689 700 673 683 682 621 673 655 643 678 615 667 679 643 668 655 618 698 671 693 615 694 636 657 667 679 659 645 717 676 704 681 621 703 605 656 668 691 689 704 676 692 701 630 652 650 713 662 629 608 650 617 637 619 598 628 598 650 625 598 626 575 625 645 607 618 613 623 639 589 647 574 592 596 612 614 612 638 586 636 569 578 598 619 586 601 618 626 605 573 568 627 592 586 615 582 583 587 547 578 600 610 586 618 572 606 631 618 566 606 560 573 630 588 551 649 584 583 575 583 626 579 571 576 560 616 618 615 571 598 575 572 589 590 565 586 584 556 598 562 618 574 561 559 596 584 610 596 570 582 590 616 574 574 642 624 594 601 591 584 575 606 551 556 591 564 584 560 584 606 611 606 584 585 616 534 604 591 619 605 566 636 605 607 599 602 578 619 601 585 581 583 659 610 619 577 619 612 613 540 603 616 604 621 611 619 670 637 613 626 581 640 617 629 621 654 685 633 599 612 668 616 572 601 627 585 609 604 563 635 622 590 613 595 609 609 624 611 605 578 616 632 595 613 629 627 599 558 614 635 604 656 638 666 600 608 659 656 623 632 621 629 665 637 628 596 645 590 614 631 593 575 610 628 618 588 624 623 634 615 650 622 615 653 662 625 690 651 658 667 677 648 644 675 661 649 702 717 660 690 729 737 719 718 726 721 794 793 754 770 770 829 785 833 918 851 955 980 999 995 1017 1048 1116 1200 1232 1335 1401 1492 1646 1632 1768 1862 2106 2215 2425 2544 2854 3091 3181 3491 3751 3906 4194 4427 4661 4903 4973 5120 5182 5300 5392 5531 5609 5630 5689 5461 5401 5234 5045 4808 4671 4620 4402 4358 4212 3948 3724 3662 3322 3222 3097 2839 2674 2614 2484 2310 2254 2112 1967 1873 1834 1761 1744 1619 1568 1477 1432 1397 1393 1302 1367 1307 1258 1206 1251 1180 1229 1243 1233 1181 1191 1230 1198 1219 1203 1273 1237 1301 1356 1391 1315 1412 1434 1401 1451 1493 1504 1545 1470 1475 1482 1497 1456 1440 1512 1498 1436 1347 1431 1404 1338 1270 1292 1387 1328 1222 1229 1214 1130 1121 1108 1141 1118 1073 1060 1043 1043 981 934 976 891 914 863 844 866 838 837 802 810 797 778 815 792 743 731 733 695 741 685 651 716 645 664 662 670 643 679 617 646 621 623 596 610 606 581 642 627 605 636 619 651 580 637 568 610 604 621 577 566 569 600 586 612 635 575 632 589 609 560 614 546 597 577 587 556 574 608 585 591 605 566 600 570 565 607 596 584 594 595 560 612 575 584 537 578 593 614 605 608 603 591 613 602 628 597 613 605 637 636 641 637 606 656 670 642 678 660 722 683 689 741 754 779 762 810 786 822 814 823 889 817 848 836 905 883 882 897 852 861 871 885 904 858 843 844 844 795 793 791 741 778 721 746 730 724 744 697 643 677 706 597 655 656 633 654 600 618 618 608 651 598 596 600 660 606 618 608 578 620 597 606 615 572 608 537 587 605 600 634 578 601 609 572 599 578 545 600 564 585 638 589 612 630 597 569 589 537 593 574 577 582 559 581 578 570 558 522 573 551 547 577 551 569 520 586 556 518 534 540 548 539 555 584 513 599 537 486 526 556 532 500 494 479 555 544 555 523 533 552 547 523 523 520 545 564 521 545 541 497 516 516 541 483 558 548 496 544 525 569 528 561 540 511 502 534 529 546 539 486 533 532 510 541 563 545 508 522 541 534 542 508 478 547 521 546 533 493 496 526 505 517 549 492 558 518 504 488 518 550 552 546 490 534 516 531 523 528 536 544 533 519 504 551 528 554 498 511 553 523 541 520 504 501 547 502 463 525 494 552 508 506 503 579 540 488 499 522 485 516 507 476 525 491 515 518 472 496 526 501 500 520 525 514 499 489 477 515 507 486 536 575 541 533 487 529 523 474 505 517 509 512 542 476 523 552 515 494 507 518 516 468 511 474 502 479 509 490 490 507 483 534 476 514 495 513 506 546 493 486 502 521 517 475 431 529 469 472 492 488 500 493 545 524 482 494 480 493 496 538 546 522 476 514 477 530 484 532 515 480 531 518 506 514 500 529 470 488 531 504 476 512 519 466 489 498 500 445 469 493 490 492 486 500 502 483 480 498 507 479 492 535 512 526 484 504 521 504 481 458 530 494 454 467 516 481 522 520 538 508 483 525 502 484 540 560 484 501 498 463 481 481 468 509 509 491 530 500 525 488 491 509 460 474 480 521 466 483 496 449 495 458 499 485 478 479 512 512 491 482 511 507 535 482 510 496 505 504 486 486 484 477 521 492 531 461 501 478 510 516 483 471 461 508 500 510 542 485 519 491 479 503 485 504 472 485 480 482 461 498 442 494 479 453 491 482 491 483 510 489 522 509 484 458 502 495 472 534 500 510 515 487 468 488 511 465 502 499 516 535 504 474 488 467 505 515 530 485 528 487 549 498 481 516 519 525 484 551 461 502 494 487 494 497 509 498 521 537 502 491 454 474 551 472 499 491 498 477 519 510 547 471 487 481 510 528 464 533 491 508 488 497 513 498 478 507 498 491 489 449 539 528 465 538 482 516 514 524 526 471 513 516 493 477 483 504 509 513 536 573 512 537 523 538 528 536 547 571 576 549 579 540 588 550 569 519 557 603 566 567 572 538 556 563 561 602 609 532 555 529 562 590 572 533 543 547 564 604 567 493 522 564 587 559 553 568 591 618 592 596 599 605 651 586 583 643 613 640 633 668 718 714 755 780 806 825 823 935 999 977 1090 1065 1074 1131 1248 1250 1363 1428 1548 1514 1591 1635 1694 1634 1730 1748 1788 1682 1765 1694 1687 1738 1708 1672 1647 1623 1602 1551 1545 1511 1393 1365 1388 1345 1246 1198 1182 1130 1136 974 1049 1012 967 1014 848 856 764 813 787 796 748 717 731 687 681 674 676 627 655 600 624 649 585 644 617 647 597 556 580 604 638 628 584 593 596 620 602 599 636 645 619 668 657 642 707 733 748 837 752 791 835 758 863 802 859 877 910 938 920 912 937 862 893 854 865 921 926 855 869 876 859 811 856 821 802 822 701 715 726 741 668 658 709 643 627 635 666 599 632 621 560 569 581 577 563 588 593 530 588 548 541 534 533 559 569 564 531 483 499 522 527 495 527 508 470 480 531 494 562 516 496 456 510 486 501 475 527 494 479 464 523 495 584 475 518 474 433 521 468 504 504 518 481 496 504 524 508 511 458 505 468 528 485 498 517 491 490 512 456 475 477 522 526 501 502 483 511 474 517 501 487 476 499 465 494 475 529 453 500 501 520 539 473 469 499 493 529 525 535 520 500 495 503 474 523 526 520 553 512 556 551 589 594 535 571 536 560 542 587 616 572 606 645 649 636 704 679 705 736 685 705 770 853 845 957 918 1025 1018 1099 1127 1181 1224 1283 1330 1420 1425 1469 1487 1604 1655 1599 1699 1671 1746 1632 1776 1728 1661 1746 1611 1626 1533 1558 1491 1384 1460 1311 1345 1333 1216 1205 1247 1210 1144 1135 1098 1074 1037 945 883 834 871 825 778 801 751 695 747 690 665 639 664 633 639 621 635 573 612 611 608 604 619 580 636 553 534 566 584 539 607 547 562 587 510 603 569 543 581 599 594 540 623 586 641 630 647 634 657 634 672 641 674 657 682 693 673 703 714 689 706 717 697 641 698 713 640 664 657 650 663 680 633 699 675 662 637 621 649 589 601 561 619 557 551 552 509 542 493 519 543 555 563 517 497 508 554 561 573 549 551 528 564 575 600 548 562 596 565 527 558 612 575 571 558 495 596 543 557 558 565 561 492 578 522 504 517 522 512 570 557 516 499 486 481 516 556 452 547 518 532 532 542 505 536 586 548 579 538 557 537 608 598 631 622 577 622 657 635 680 656 609 721 658 694 690 669 705 701 684 649 623 674 666 660 666 641 676 668 676 637 631 595 586 611 587 594 643 536 625 589 541 526 487 494 484 540 573 503 497 497 514 514 498 455 510 466 490 464 454 497 451 485 497 481 483 427 445 461 500 477 463 452 474 442 472 450 448 437 466 473 437 446 458 460 462 473 441 435 417 459 406 475 447 477 445 404 479 434 447 430 434 449 453 456 427 449 462 416 430 466 462 452 464 445 444 428 412 426 459 470 430 440 488 476 472 434 487 436 508 438 455 431 504 457 449 470 488 485 500 498 506 451 486 479 463 476 467 477 502 485 435 470 412 531 491 480 472 445 460 485 475 444 452 412 454 417 463 451 464 426 460 452 466 423 498 465 449 470 455 424 473 422 461 459 434 424 440 424 448 432 441 455 397 405 453 458 474 458 471 400 458 434 426 429 438 448 401 465 425 413 433 459 438 409 429 433 420 423 427 413 411 429 415 453 431 459 399 406 430 434 411 416 432 417 433 427 422 417 412 401 436 445 439 396 407 419 421 405 403 451 430 423 416 389 417 433 408 428 442 433 411 418 427 422 401 422 444 420 410 418 441 412 425 399 396 442 406 408 403 399 447 441 440 411 468 444 434 424 416 464 447 461 426 416 415 415 416 424 385 442 453 455 436 435 436 385 416 408 421 463 419 426 421 409 386 444 367 440 447 454 392 436 421 382 405 437 438 440 452 407 423 411 419 417 412 428 447 423 422 435 437 414 453 402 457 405 455 425 436 441 419 454 410 384 437 447 409 395 406 426 428 446 429 423 383 387 416 440 375 409 412 423 397 441 441 418 407 443 416 391 424 408 376 383 482 362 433 439 498 413 416 414 406 444 419 404 420 385 391 415 436 391 402 427 399 371 389 376 431 399 437 402 398 423 408 412 386 400 437 399 442 399 397 387 474 380 384 419 420 420 447 400 430 400 451 396 458 406 425 438 394 408 401 404 411 404 389 403 432 431 436 427 422 407 450 416 409 391 408 416 390 389 399 386 378 410 405 405 404 414 380 401 425 425 438 424 430 414 438 420 452 437 422 395 460 440 428 385 412 441 449 442 435 468 430 472 430 426 432 468 445 506 452 496 488 511 464 502 510 555 517 492 500 553 485 544 536 520 511 550 553 528 525 575 530 532 553 531 541 541 550 516 523 509 454 504 511 492 523 476 482 535 446 482 496 464 477 468 480 482 400 481 464 443 479 449 445 449 443 419 466 438 447 451 446 412 372 434 427 428 448 397 420 406 400 436 407 385 404 431 444 411 392 421 380 406 407 402 430 416 435 427 410 395 400 405 375 409 411 438 418 392 407 418 416 416 423 410 404 397 431 423 428 428 435 404 404 436 369 383 433 442 433 434 391 399 421 405 385 407 411 429 439 429 418 430 437 371 405 430 417 384 414 387 396 389 403 421 376 435 407 390 393 398 415 436 400 381 413 417 407 417 406 376 410 443 405 390 403 430 425 408 427 416 397 420 405 441 415 416 378 381 399 337 399 413 373 426 349 413 377 458 418 394 409 389 428 434 400 377 410 430 408 387 393 398 423 393 417 426 433 407 378 400 392 362 436 379 406 396 397 429 416 422 374 384 421 423 401 403 397 418 415 409 368 381 379 390 384 402 438 399 396 409 411 406 426 397 371 432 386 400 408 416 391 406 458 419 396 391 437 397 435 425 376 419 437 436 397 429 431 438 435 451 464 467 448 445 489 450 431 480 419 420 439 415 464 448 475 462 499 505 519 462 477 491 516 540 470 562 550 569 522 545 558 603 618 637 626 618 626 689 642 693 698 722 731 778 710 764 787 744 808 798 787 841 780 776 769 747 774 781 755 740 725 732 656 691 682 726 677 636 660 698 602 689 642 594 623 619 569 611 558 549 530 519 518 538 506 485 508 497 489 465 474 443 514 438 442 420 460 474 490 467 521 442 454 415 424 428 440 428 414 411 452 406 445 411 479 466 418 433 371 423 459 447 453 453 404 464 447 434 432 436 435 429 439 378 421 453 426 446 423 462 448 414 458 489 462 451 476 449 475 489 479 474 500 466 471 507 485 495 456 490 471 498 504 464 469 470 474 500 462 437 460 505 512 457 501 463 468 402 433 493 459 473 488 473 490 487 435 450 432 447 451 442 419 446 419 399 412 417 395 417 413 422 434 429 423 375 413 412 394 404 389 436 442 399 402 408 398 415 409 458 424 393 468 423 400 434 436 403 459 434 430 433 442 415 443 421 463 396 485 434 472 455 445 413 459 408 389 403 409 424 424 439 410 418 403 401 391 408 380 421 372 415 403 417 438 400 457 406 395 379 408 426 419 416 423 430 387 398 426 401 372 399 404 392 411 368 348 378 378 400 426 387 393 404 376 415 425 361 375 393 389 390 396 398 388 342 361 399 408 369 432 384 354 413 358 417 394 379 379 364 404 394 397 411 407 384 402 390 372 392 409 398 388 408 352 362 390 404 422 410 391 362 382 380 400 428 369 438 420 397 400 367 370 407 372 371 423 378 395 410 363 400 414 395 372 420 379 374 410 442 356 409 390 413 368 358 415 382 368 393 403 395 390 375 382 402 391 399 378 418 403 375 377 373 404 372 364 398 365 387 405 377 364 386 384 395 399 359 415 386 395 368 378 366 402 414 409 380 401 384 380 420 398 388 365 417 408 392 406 405 401 394 393 400 406 377 388 385 397 403 410 379 413 378 403 364 403 353 374 402 376 414 374 388 361 363 372 357 412 384 369 353 390 375 376 395 387 375 373 420 397 383 407 360 431 386 382 382 393 396 411 395 374 391 379 383 422 393 421 390 388 383 368 339 398 388 369 395 410 410 406 366 390 420 415 403 386 391 385 400 407 428 406 385 385 381 367 404 407 388 425 382 382 398 387 396 399 408 389 382 371 388 391 381 405 402 414 366 394 412 380 414 405 398 401 353 370 392 379 398 400 423 413 419 413 415 406 382 358 354 390 383 436 386 392 349 401 420 392 422 438 407 408 404 380 396 376 383 410 413 389 414 355 404 437 403 390 400 395 389 405 399 397 374 386 400 372 406 366 415 403 401 387 410 348 398 413 406 364 441 397 388 355 378 441 386 383 368 432 437 427 395 395 398 399 390 395 409 351 388 367 435 483 386 410 378 409 392 391 374 393 402 396 393 414 388 395 404 419 430 377 420 403 398 393 390 405 415 393 421 406 393 427 415 419 413 395 388 416 430 418 435 414 445 462 409 439 433 429 453 421 430 461 482 473 448 445 448 465 433 487 482 457 459 465 466 439 457 493 461 474 498 526 515 503 502 449 546 540 524 487 504 505 505 496 523 507 490 495 498 517 514 492 508 508 507 492 511 506 524 484 522 485 525 555 542 560 535 568 592 571 554 533 581 566 576 548 620 648 648 611 642 701 692 704 679 726 663 695 712 703 742 703 743 738 718 712 713 698 695 695 721 720 675 665 631 637 691 645 592 649 604 616 643 605 591 585 606 548 570 563 565 532 500 544 540 537 505 502 510 491 510 484 483 482 440 507 463 488 441 464 444 458 466 437 474 511 477 457 506 448 417 461 407 460 464 395 447 418 458 484 423 420 405 427 455 434 460 379 447 429 436 453 409 448 458 454 449 438 423 418 410 468 447 495 449 434 412 432 446 482 430 464 412 450 486 441 498 482 500 489 487 503 468 508 493 489 517 552 602 521 481 566 509 506 528 546 545 539 547 520 553 545 521 570 536 560 468 550 550 504 529 523 508 455 546 478 481 507 455 490 477 481 484 476 495 515 458 440 478 480 505 438 484 457 464 466 425 487 451 458 432 466 466 448 481 501 484 501 500 500 464 517 532 504 533 513 560 530 551 542 569 521 564 548 568 556 530 560 597 636 620 643 665 663 696 720 743 711 759 791 779 880 805 909 878 900 996 975 982 1032 996 1021 1043 1084 1130 1145 1167 1119 1203 1133 1202 1243 1166 1280 1237 1187 1188 1245 1262 1238 1209 1125 1218 1112 1207 1109 1117 1060 1128 1047 1017 1000 979 1006 938 878 955 933 913 876 892 823 797 803 811 763 786 732 727 678 658 672 655 623 637 580 571 586 581 565 544 541 545 549 528 566 550 543 526 505 516 484 513 508 477 474 509 451 498 496 452 475 463 503 444 467 471 452 492 483 475 496 503 462 456 470 462 443 460 477 482 435 519 475 470 480 518 480 489 459 454 490 495 466 512 490 465 533 490 549 510 530 549 587 527 518 561 553 597 609 586 566 614 529 562 562 629 636 632 597 646 616 626 627 626 603 616 589 657 619 587 646 618 599 598 637 591 585 559 619 550 596 631 625 560 590 592 544 591 563 587 593 606 562 574 579 567 552 600 561 554 509 591 529 553 544 537 545 524 550 567 551 523 544 512 441 504 501 512 465 502 493 495 489 525 502 509 483 464 463 446 442 481 478 455 443 466 455 438 446 471 456 434 445 459 425 427 446 441 427 399 416 437 423 393 428 415 411 432 466 455 419 382 419 407 397 419 386 400 422 427 389 372 425 374 397 455 443 385 413 425 400 422 419 417 391 379 414 421 431 451 380 429 415 434 402 382 416 407 400 426 372 383 388 386 354 372 347 398 379 437 416 377 401 380 408 408 397 426 388 407 423 365 368 392 406 413 379 403 402 441 439 387 420 442 422 364 424 402 380 399 391 402 417 376 416 410 390 419 408 405 388 404 401 424 402 360 432 411 413 385 364 393 446 426 433 410 381 366 434 412 409 416 421 431 386 429 407 362 391 417 395 426 400 408 391 411 422 423 422 389 409 412 396 374 398 394 409 410 395 383 417 424 400 360 365 381 366 380 381 408 365 412 383 388 419 373 402 388 416 425 377 366 347 435 374 381 380 418 392 408 402 388 355 360 373 388 388 395 429 421 410 390 432 427 429 391 385 394 364 412 390 426 387 374 359 413 377 423 422 397 376 374 390 376 422 408 456 373 410 387 379 349 371 430 420 382 434 402 400 434 390 371 406 383 374 410 414 375 385 419 380 398 386 402 410 358 359 401 387 378 391 406 372 359 400 409 359 377 408 382 441 374 384 375 383 391 416 388 411 361 369 407 424 406 369 378 389 362 349 406 395 398 412 374 447 407 404 383 384 358 377 395 356 385 365 392 373 372 377 369 389 379 385 418 382 442 405 419 420 425 401 407 355 430 387 411 381 429 376 391 352 416 392 408 379 395 386 363 403 402 386 402 363 413 443 412 366 390 366 419 414 377 410 350 400 368 405 412 378 383 410 427 416 396 404 396 412 407 385 391 395 419 424 405 385 368 366 394 416 391 436 381 393 408 476 379 391 418 401 431 415 407 419 418 403 459 433 387 403 384 411 459 439 437 439 429 434 419 443 475 457 485 439 437 443 486 446 454 484 457 443 466 485 530 456 487 470 450 475 466 456 469 431 472 495 448 449 462 492 440 490 456 457 475 434 462 430 430 432 433 436 458 433 479 458 405 486 432 443 410 425 459 449 443 404 435 421 441 433 358 403 396 432 392 412 408 435 403 400 378 361 431 409 405 401 393 395 397 404 388 424 450 385 380 396 384 418 407 423 419 395 429 394 413 409 380 430 368 378 449 381 391 368 380 412 387 428 399 388 357 393 395 395 407 386 408 384 423 391 370 382 390 382 381 378 370 418 366 396 418 428 445 399 401 395 431 434 392 407 392 381 377 369 392 394 437 410 393 433 394 403 391 396 393 413 372 368 421 414 383 342 388 397 426 410 412 387 404 364 395 390 414 415 359 377 406 426 371 401 428 400 421 398 392 380 389 433 396 395 393 393 405 372 405 377 422 354 412 409 414 432 386 408 411 392 408 421 377 429 441 430 385 416 371 391 397 407 371 399 423 387 407 434 413 404 422 441 387 406 403 431 421 399 456 433 435 397 439 401 449 452 434 427 445 442 462 407 421 465 468 461 482 462 506 458 454 461 450 469 490 485 502 540 529 534 516 513 541 513 554 548 583 599 614 573 578 612 653 608 644 686 680 708 652 639 740 760 779 829 768 808 819 811 867 885 858 954 901 903 902 930 914 968 949 913 971 974 1003 987 949 957 1007 888 979 976 922 915 892 860 946 840 839 797 826 882 795 729 776 786 742 780 767 816 751 761 766 679 698 694 676 660 685 616 608 696 638 562 618 584 575 554 558 498 529 518 481 470 485 484 471 463 499 483 466 466 462 480 445 436 449 434 436 437 432 407 440 424 463 453 425 429 454 429 411 406 412 425 475 436 441 445 442 423 424 404 418 408 439 412 421 423 439 466 465 414 439 439 424 442 450 416 444 450 426 459 427 440 445 450 471 414 462 447 452 412 427 511 443 478 444 441 453 465 471 447 492 459 499 475 486 484 465 507 513 531 506 477 492 537 494 467 498 509 540 530 509 532 553 538 523 512 528 523 539 538 567 534 526 499 543 513 544 468 467 481 513 512 497 484 517 458 527 494 490 512 442 492 515 501 482 483 507 475 461 486 467 468 473 468 444 418 440 475 454 422 461 502 444 431 418 467 428 422 444 399 433 417 459 427 426 448 408 449 387 423 451 462 434 422 441 398 430 389 408 428 418 439 455 437 381 403 454 407 428 378 419 427 424 369 397 386 444 400 376 379 397 397 410 404 399 416 403 443 408 438 439 392 415 365 431 396 405 403 414 396 418 419 422 391 416 416 391 403 440 415 410 404 391 428 410 400 441 399 387 417 380 403 405 391 365 417 373 412 392 404 394 364 403 391 402 428 400 386 375 401 422 370 378 409 401 405 406 419 400 379 389 387 401 368 348 361 369 396 425 381 416 409 376 396 454 373 366 410 382 395 370 355 393 371 400 424 405 427 403 392 405 423 406 405 389 401 393 423 399 436 385 380 390 404 369 380 373 387 401 387 396 389 378 357 388 422 355 368 383 383 372 386 381 393 374 348 370 382 388 387 365 381 370 396 404 360 353 383 370 409 406 393 415 386 403 368 376 377 416 414 364 398 423 372 364 374 386 401 400 427 466 376 406 424 381 402 335 371 419 406 374 404 404 364 431 369 376 383 378 398 384 397 383 417 388 419 396 368 386 401 394 396 412 365 367 377 352 427 422 397 377 388 370 345 393 342 382 384 432 374 373 377 359 398 417 355 403 369 378 390 352 395 392 401 385 406 385 390 408 357 377 351 430 363 353 415 388 388 361 376 376 369 409 360 392 358 392 381 393 354 435 360 377 394 353 385 386 397 372 393 408 395 388 377 376 388 398 373 389 421 378 357 379 417 400 417 463 405 387 388 377 374 412 411 405 415 439 400 394 426 415 402 383 434 428 383 389 375 378 387 393 402 406 390 416 371 394 389 408 376 373 411 371 389 402 396 415 419 411 429 403 382 392 451 410 412 392 390 404 400 414 438 439 408 419 398 393 410 396 418 421 441 424 392 424 408 425 447 454 466 480 460 461 481 461 490 489 441 450 480 481 506 494 523 496 487 484 561 505 491 507 541 513 541 536 523 546 547 515 532 515 509 568 542 522 518 543 549 548 521 510 546 542 549 507 529 510 526 562 533 491 541 572 559 529 550 556 565 515 515 534</counts>
			</dataPoints>
		</scan>
	</xrdMeasurement>
</xrdMeasurements>
