<?xml version="1.0"?>
<xrdMeasurements xmlns="http://www.xrdml.com/XRDMeasurement/2.3" xmlns:xsi="http://www.w3.org/2001/XMLSchema-instance" xsi:schemaLocation="http://www.xrdml.com/XRDMeasurement/2.3 http://www.xrdml.com/XRDMeasurement/2.3/XRDMeasurement.xsd" status="Completed" recordIdentifier="{61220C9A-207D-46A4-BC08-386ABFDBE9B5}">
	<comment>
		<entry/>
	</comment>
	<sample type="To be analyzed">
		<id>GPSS_Li1p7Mg0p35Mn0p35V0p3Cl4_121825_6943d914f4d05ae3d69790bf</id>
		<name></name>
		<preparedBy></preparedBy>
	</sample>
	<xrdMeasurement measurementType="Scan" status="Completed" sampleMode="Reflection">
		<usedWavelength intended="K-Alpha 1">
			<kAlpha1 unit="Angstrom">1.5405980</kAlpha1>
			<kAlpha2 unit="Angstrom">1.5444260</kAlpha2>
			<kBeta unit="Angstrom">1.3922500</kBeta>
			<ratioKAlpha2KAlpha1>0.5000</ratioKAlpha2KAlpha1>
		</usedWavelength>
		<incidentBeamPath>
			<radius unit="mm">145.00</radius>
			<xRayTube id="1010048" name="Empyrean Cu LFF HR (9430 033 7310x)">
				<tension unit="kV">40.0</tension>
				<current unit="mA">15.0</current>
				<anodeMaterial>Cu</anodeMaterial>
				<focus type="Line">
					<length unit="mm">12.0</length>
					<width unit="mm">0.4</width>
					<takeOffAngle unit="deg">6.0</takeOffAngle>
				</focus>
			</xRayTube>
			<sollerSlit id="21010002" name="Soller slits 0.04 rad.">
				<opening unit="rad">0.0400</opening>
			</sollerSlit>
			<mask id="22031000" name="Fixed mask 13 mm">
				<width unit="mm">9.00</width>
			</mask>
			<divergenceSlit id="22120001" name="Divergence slit 1°" xsi:type="fixedDivergenceSlitType">
				<distanceToSample unit="mm">50.00</distanceToSample>
				<height unit="mm">1.52</height>
			</divergenceSlit>
		</incidentBeamPath>
		<sampleMovement xsi:type="spinningSampleMovementType">
			<spinnerRevolutionTime unit="seconds">1.0</spinnerRevolutionTime>
		</sampleMovement>
		<diffractedBeamPath>
			<radius unit="mm">145.00</radius>
			<antiScatterSlit id="22090040" name="AS slit 9 mm (PIXcel)" xsi:type="fixedAntiScatterSlitType">
				<height unit="mm">9.00</height>
			</antiScatterSlit>
			<sollerSlit id="21020003" name="Large Soller slits 0.04 rad.">
				<opening unit="rad">0.0400</opening>
			</sollerSlit>
			<filter id="20030001" name="Large beta-filter Nickel">
				<material>Ni</material>
				<thickness unit="mm">0.020</thickness>
			</filter>
			<detector id="7010019" name="PIXcel1D-Medipix3 detector" xsi:type="rtmsDetectorType">
				<phd unit="keV">
					<lowerLevel>4.02</lowerLevel>
					<upperLevel>11.27</upperLevel>
				</phd>
				<mode>Scanning</mode>
				<activeLength unit="deg">5.542</activeLength>
			</detector>
		</diffractedBeamPath>
		<scan appendNumber="0" mode="Continuous" scanAxis="Gonio" status="Completed">
			<header>
				<startTimeStamp>2025-12-22T12:19:27-08:00</startTimeStamp>
				<endTimeStamp>2025-12-22T12:27:35-08:00</endTimeStamp>
				<author>
					<name>AutomatedUser</name>
				</author>
				<source>
					<applicationSoftware version="1.7b (136)">PANalytical Aeris Instrument Suite</applicationSoftware>
					<instrumentControlSoftware version="3.2.00000000 20240306">AERIS</instrumentControlSoftware>
					<instrumentID>950485</instrumentID>
				</source>
			</header>
			<dataPoints>
				<positions axis="2Theta" unit="deg">
					<startPosition>10.00943322</startPosition>
					<endPosition>99.99442286</endPosition>
				</positions>
				<positions axis="Omega" unit="deg">
					<startPosition>5.00471661</startPosition>
					<endPosition>49.99721143</endPosition>
				</positions>
				<commonCountingTime unit="seconds">12.495</commonCountingTime>
				<counts unit="counts">2760 2788 2730 2784 2725 2777 2795 2818 2796 2709 2752 2770 2724 2773 2812 2771 2849 2865 2702 2746 2623 2785 2715 2771 2756 2811 2646 2831 2705 2767 2783 2731 2654 2742 2710 2714 2767 2759 2753 2746 2778 2735 2791 2713 2709 2819 2704 2804 2803 2758 2764 2819 2700 2789 2655 2738 2797 2796 2797 2728 2814 2834 2708 2762 2666 2776 2867 2792 2757 2843 2735 2751 2796 2807 2773 2788 2842 2781 2723 2914 2816 2762 2829 2697 2822 2822 2868 2781 2851 2797 2860 2831 2822 2826 2777 2745 2860 2821 2917 2818 2821 2793 2861 2712 2897 2855 2906 2829 2847 2842 2823 2895 2820 2857 2825 2850 2854 2842 2906 2863 2940 2826 2928 2893 2886 2890 2826 2798 2744 2890 2795 2826 2809 2835 2846 2827 2787 2869 2852 3027 2926 2863 2833 2878 2846 2826 2854 2856 2827 2837 2853 2680 2820 2820 2884 2841 2841 2892 2869 2938 2849 2913 2847 2910 2860 2898 2810 2791 2793 2813 2782 2753 2856 2792 2803 2727 2769 2816 2827 2693 2813 2736 2753 2770 2725 2832 2770 2716 2660 2776 2750 2668 2831 2713 2739 2726 2803 2786 2625 2797 2805 2806 2719 2707 2710 2787 2735 2782 2754 2781 2714 2724 2739 2788 2676 2695 2682 2761 2737 2686 2668 2689 2784 2771 2707 2674 2720 2626 2530 2625 2725 2700 2637 2650 2668 2559 2630 2651 2633 2616 2582 2616 2633 2668 2606 2559 2678 2587 2697 2653 2687 2570 2658 2693 2666 2638 2588 2559 2613 2611 2613 2541 2601 2622 2609 2531 2610 2662 2498 2660 2610 2537 2556 2470 2651 2523 2610 2551 2697 2498 2518 2510 2509 2545 2553 2549 2579 2503 2459 2495 2528 2504 2535 2525 2633 2573 2553 2577 2552 2581 2548 2469 2482 2483 2512 2503 2604 2432 2473 2487 2488 2552 2417 2537 2596 2607 2601 2508 2535 2568 2617 2429 2491 2483 2534 2510 2532 2467 2554 2613 2454 2457 2449 2451 2400 2546 2554 2468 2485 2513 2365 2492 2519 2483 2532 2458 2547 2520 2673 2502 2497 2505 2550 2470 2426 2436 2471 2397 2475 2466 2471 2575 2541 2444 2563 2528 2519 2512 2487 2537 2491 2467 2562 2561 2583 2509 2572 2505 2504 2586 2497 2613 2448 2529 2512 2496 2497 2500 2404 2572 2595 2605 2518 2558 2508 2618 2513 2598 2572 2582 2659 2694 2591 2533 2622 2624 2584 2627 2720 2720 2794 2716 2804 2782 2841 2773 2637 2757 2805 2815 2797 2797 2907 2845 2836 2957 2920 2956 2875 2947 2921 2947 2995 2947 2965 2959 2956 2946 2882 3023 2925 3105 3036 2986 2950 2997 2954 3124 2995 3153 3187 3160 3119 3084 3160 3181 3119 3293 3168 3171 3292 3171 3183 3262 3122 3124 3102 3067 3142 3108 3053 2971 3034 3007 2880 2932 2820 3001 2809 2831 2782 2724 2873 2854 2855 2850 2801 2812 2712 2882 2766 2833 2826 2890 2787 2857 2680 2722 2678 2685 2654 2644 2672 2662 2693 2629 2616 2540 2614 2563 2662 2580 2575 2560 2561 2512 2462 2552 2502 2531 2593 2454 2501 2499 2544 2435 2468 2453 2415 2497 2377 2364 2436 2463 2417 2460 2383 2425 2417 2405 2374 2360 2350 2419 2295 2425 2394 2462 2250 2382 2311 2397 2336 2354 2374 2353 2317 2326 2305 2241 2204 2365 2299 2290 2360 2318 2282 2257 2261 2234 2271 2179 2235 2373 2228 2263 2228 2162 2082 2215 2181 2224 2229 2186 2251 2240 2212 2172 2255 2185 2163 2178 2205 2227 2226 2179 2116 2133 2142 2159 2181 2251 2091 2208 2145 2097 2152 2040 2128 2125 2167 2017 2224 2115 2182 2125 2203 2128 2083 2113 2159 2066 2139 2129 2139 2089 2115 2143 2017 2040 2070 2001 2129 2028 2148 2065 2049 2004 2094 2140 2052 2054 1980 2072 2048 2092 1912 2037 1935 2002 2047 2129 2042 2036 1994 2054 2074 2047 2096 2010 1979 1954 2065 2022 1996 1952 1974 1983 2105 1995 1991 2044 1952 2020 2018 2006 2040 2079 1967 1976 1982 1967 1991 1937 1926 2011 1992 2021 1912 1934 1918 1940 2009 1966 1919 1882 1886 1924 1877 1852 1987 1913 1943 1908 1995 1943 1927 1826 1986 1907 1882 1887 1877 1895 1939 1868 1816 1952 1900 1901 1945 1905 1889 1891 1928 1820 1941 1832 1922 1887 1882 1884 1846 1830 1902 1856 1880 1816 1887 1911 1753 1949 1885 1977 1835 1882 1841 1725 1841 1761 1843 1884 1815 1748 1815 1844 1945 1731 1836 1810 1784 1855 1825 1754 1785 1842 1707 1767 1794 1802 1776 1781 1833 1712 1851 1744 1770 1772 1774 1867 1752 1770 1780 1658 1726 1846 1742 1747 1755 1785 1762 1717 1837 1755 1805 1709 1802 1729 1752 1815 1815 1742 1751 1765 1765 1778 1753 1710 1788 1668 1726 1785 1740 1722 1730 1751 1663 1649 1707 1770 1730 1723 1689 1777 1795 1710 1642 1623 1700 1733 1656 1641 1755 1709 1644 1673 1656 1749 1730 1692 1682 1741 1654 1606 1657 1616 1627 1674 1632 1712 1679 1636 1680 1664 1664 1641 1625 1616 1603 1714 1627 1615 1721 1672 1737 1706 1645 1661 1632 1554 1647 1643 1589 1661 1654 1694 1629 1628 1546 1622 1584 1610 1597 1575 1637 1563 1595 1656 1624 1604 1644 1604 1637 1579 1629 1572 1550 1585 1641 1617 1568 1596 1640 1674 1604 1544 1696 1591 1599 1543 1569 1590 1581 1504 1598 1493 1660 1535 1518 1518 1557 1604 1633 1583 1550 1583 1604 1549 1501 1539 1576 1629 1511 1594 1585 1575 1588 1584 1536 1571 1552 1527 1550 1430 1549 1554 1610 1566 1463 1498 1539 1559 1565 1497 1493 1559 1463 1434 1505 1505 1485 1534 1574 1601 1482 1482 1533 1534 1443 1469 1493 1501 1470 1451 1432 1432 1514 1546 1464 1556 1444 1498 1502 1472 1497 1492 1514 1485 1546 1540 1517 1489 1393 1457 1417 1473 1499 1414 1452 1538 1366 1457 1456 1441 1439 1427 1457 1421 1429 1461 1441 1468 1532 1437 1471 1502 1462 1515 1420 1478 1468 1471 1394 1382 1466 1403 1471 1427 1503 1426 1413 1398 1384 1379 1452 1402 1441 1494 1417 1423 1433 1351 1412 1438 1398 1488 1424 1452 1404 1398 1402 1487 1474 1445 1408 1497 1392 1399 1420 1353 1397 1394 1416 1325 1323 1363 1440 1380 1430 1434 1413 1452 1366 1375 1378 1403 1419 1348 1395 1409 1435 1401 1411 1409 1357 1464 1385 1413 1432 1348 1426 1410 1394 1366 1408 1354 1410 1375 1390 1383 1444 1393 1382 1380 1415 1378 1398 1406 1395 1410 1379 1370 1365 1378 1353 1334 1356 1288 1397 1347 1366 1341 1368 1424 1370 1314 1333 1374 1393 1354 1349 1343 1311 1319 1318 1302 1341 1293 1364 1328 1309 1336 1354 1337 1408 1369 1379 1344 1291 1246 1318 1281 1336 1321 1352 1223 1402 1318 1302 1354 1342 1369 1342 1265 1376 1299 1295 1308 1268 1373 1283 1280 1363 1276 1301 1286 1273 1287 1361 1325 1270 1316 1294 1300 1249 1346 1259 1317 1365 1339 1243 1309 1316 1342 1270 1322 1234 1251 1311 1277 1280 1310 1211 1346 1266 1253 1304 1230 1273 1216 1287 1281 1286 1259 1287 1231 1270 1229 1224 1211 1281 1280 1299 1341 1221 1197 1230 1263 1224 1262 1253 1319 1166 1191 1277 1218 1260 1272 1166 1282 1165 1267 1211 1222 1260 1245 1222 1219 1206 1215 1243 1195 1176 1200 1215 1211 1227 1207 1227 1252 1227 1221 1183 1228 1180 1214 1180 1188 1199 1187 1199 1308 1163 1198 1171 1191 1176 1170 1134 1205 1140 1143 1244 1180 1221 1162 1213 1178 1156 1208 1216 1221 1217 1197 1185 1203 1192 1172 1188 1170 1202 1217 1201 1203 1126 1155 1237 1159 1120 1224 1129 1180 1182 1213 1213 1183 1167 1169 1113 1187 1126 1203 1157 1217 1185 1198 1158 1208 1183 1153 1218 1132 1154 1168 1186 1143 1066 1174 1159 1161 1144 1103 1181 1147 1146 1204 1152 1142 1159 1192 1121 1083 1158 1153 1170 1165 1135 1156 1193 1156 1150 1118 1112 1089 1136 1148 1173 1132 1178 1122 1117 1207 1149 1078 1118 1123 1071 1108 1132 1136 1126 1075 1108 1098 1077 1163 1081 1093 1114 1087 1127 1105 1161 1087 1083 1106 1061 1119 1072 1115 1105 1080 1072 1099 1123 1120 1088 1114 1108 1172 1079 1089 1098 1053 1102 1050 1097 1175 1076 1060 1064 1106 1102 1114 1058 1101 1124 1116 1127 1062 1068 1099 1080 1130 1072 1058 1059 1090 1117 1041 1038 1097 1076 1149 1103 1100 1071 1174 1099 1090 1082 1136 1118 1080 1181 1086 1116 1068 1097 1052 1084 1109 1087 1055 1096 1085 1104 1090 1132 1118 1077 1109 1106 1108 1082 1100 1114 1102 1065 1122 1161 1063 1092 1121 1096 1074 1093 1087 1091 1052 1086 1055 1048 1110 1126 1101 1057 1053 1063 1096 1078 1113 1112 1104 1077 1122 1048 1088 1068 1067 1152 1077 1090 1084 1069 1083 1140 1104 1089 1059 1069 1066 1068 1074 1055 1022 1074 1075 1086 1128 1043 1121 1082 1073 1075 1075 1080 1112 1037 1053 1086 1133 1023 1098 1052 1042 1123 1043 1120 1048 1093 1065 1015 1078 1086 1138 1071 1090 1086 975 1084 1044 1037 1083 1029 1072 1085 1046 1051 1051 1001 1024 1074 1032 1064 993 1044 1018 1062 1068 1081 964 1032 1082 1094 986 1024 1052 1044 1024 1031 1066 1014 1045 1075 1028 1029 1057 1077 1003 1004 1053 988 1021 1075 1018 1029 1074 1038 1091 1005 1062 1034 1052 1040 1103 1026 1032 1095 1051 1000 1034 989 1041 1061 1036 1107 1052 1083 1043 1046 1080 1065 977 1052 1012 1088 966 1067 1032 1063 1005 959 1012 996 1081 985 1018 1040 1009 1029 1053 1053 1029 1024 1030 1016 1041 1084 1018 1077 1065 1065 1069 1073 1064 1143 1067 1118 1123 1130 1193 1158 1223 1144 1185 1201 1248 1215 1258 1232 1337 1267 1284 1316 1283 1291 1352 1259 1299 1312 1286 1358 1286 1323 1321 1292 1338 1298 1304 1386 1400 1360 1318 1367 1343 1331 1342 1384 1360 1304 1374 1329 1370 1330 1315 1321 1328 1325 1352 1314 1328 1279 1267 1278 1195 1303 1232 1216 1165 1141 1141 1219 1115 1102 1149 1072 1040 1157 1140 1075 1128 1034 1095 1072 1088 1104 1009 1075 1101 1092 1067 1046 1068 1050 1060 1037 1038 978 981 1005 1050 996 1062 1041 1041 984 1036 998 993 1043 950 1022 1070 1104 1012 1046 1063 1137 1100 1174 1173 1169 1225 1208 1289 1304 1302 1319 1413 1407 1495 1409 1593 1676 1746 1712 1844 1810 1821 1928 1967 2022 1987 1996 2118 2064 1999 2093 2109 2093 2018 2134 2107 2021 2105 2118 2136 2182 2260 2322 2186 2341 2370 2406 2360 2416 2525 2556 2687 2708 2726 2686 2786 2883 2962 2862 2958 2830 2798 2693 2657 2578 2524 2428 2505 2375 2285 2233 2093 2140 2044 1948 1924 1800 1887 1854 1793 1818 1720 1776 1655 1727 1673 1631 1631 1609 1655 1694 1594 1609 1560 1541 1438 1495 1490 1473 1359 1368 1237 1270 1242 1215 1223 1177 1124 1112 1148 1132 1024 1061 1039 1048 965 1083 998 977 965 1008 940 972 944 1007 990 1015 914 967 962 984 923 1011 980 933 923 941 925 982 954 940 916 886 930 943 889 927 909 897 919 924 862 905 925 881 898 870 902 842 892 916 897 879 948 859 844 834 919 859 824 862 864 876 880 917 874 916 867 880 829 912 861 909 891 895 859 836 840 858 820 920 849 875 869 833 868 795 897 802 822 923 839 839 848 808 827 817 819 887 872 850 770 809 816 815 833 838 829 867 816 877 824 814 832 853 862 867 801 789 805 836 807 820 795 838 889 818 818 797 859 835 878 898 822 888 852 798 804 812 786 838 831 806 844 803 838 838 805 843 810 868 788 856 840 801 811 826 846 812 862 899 858 845 817 847 820 829 813 853 837 774 825 820 849 883 856 816 800 790 912 821 828 869 769 821 809 796 782 821 841 811 843 802 836 843 822 832 846 830 792 852 812 804 871 828 838 859 877 803 869 856 790 824 839 908 813 832 788 786 861 880 830 821 865 841 781 820 859 763 852 805 830 874 806 851 828 805 829 815 823 847 851 775 826 861 879 811 850 811 872 821 905 859 873 846 856 880 866 851 885 827 900 839 823 855 892 879 840 911 870 881 880 874 916 881 855 861 827 880 872 900 853 941 882 886 913 862 888 917 948 875 900 926 832 958 886 860 931 923 900 914 916 884 905 874 930 930 937 934 954 991 1031 979 1017 1004 1011 1066 1013 1117 1142 1129 1184 1205 1309 1246 1375 1378 1458 1487 1615 1570 1601 1748 1754 1832 1905 1924 2047 2150 2178 2234 2286 2498 2563 2604 2876 2931 2921 2943 3011 3150 3160 3139 3375 3439 3420 3292 3488 3573 3690 3589 3675 3688 3665 3597 3667 3589 3481 3616 3699 3638 3609 3647 3710 3745 3794 3759 3855 4029 4095 4040 3988 4023 4219 4182 4163 4055 4072 4008 4090 3970 3878 3696 3786 3614 3350 3263 3162 2999 2947 2757 2711 2560 2433 2253 2347 2146 2054 2020 1964 1907 1924 1931 1896 1782 1694 1710 1757 1627 1620 1718 1716 1605 1583 1519 1572 1493 1547 1487 1475 1430 1391 1388 1320 1240 1343 1276 1214 1226 1230 1160 1223 1121 1138 1079 1097 1065 1085 1012 1036 969 980 985 966 924 924 972 921 936 885 892 897 909 889 895 889 855 860 892 869 851 837 834 881 871 850 884 870 820 895 777 876 883 767 821 841 796 837 794 794 825 865 847 840 833 800 827 779 821 807 837 800 803 778 765 823 798 783 762 788 778 773 783 809 815 830 780 799 789 735 788 765 766 743 777 761 704 766 702 760 785 776 804 766 765 791 760 729 723 758 738 739 755 726 725 771 744 717 745 772 716 708 735 714 708 752 687 760 715 746 714 732 722 732 802 775 670 728 742 741 754 686 680 723 695 705 710 734 739 723 721 726 715 654 763 752 729 738 675 664 689 689 735 676 759 690 702 666 655 660 724 705 699 774 672 733 680 753 688 751 707 727 662 730 668 662 789 708 681 691 728 693 709 723 681 694 682 706 680 700 720 737 707 704 746 742 731 712 658 712 698 695 697 729 732 686 740 758 713 725 714 691 724 709 722 699 788 683 696 717 661 706 665 700 742 763 692 732 726 708 701 759 754 691 726 783 782 720 760 697 718 726 733 729 710 691 720 727 718 700 689 692 742 712 705 722 695 686 671 711 742 717 744 707 682 776 693 685 692 670 690 698 710 729 701 677 630 723 732 673 722 690 687 648 689 696 709 714 652 648 608 659 637 672 705 660 676 681 670 697 639 698 701 670 688 688 651 694 655 698 698 664 663 658 630 681 670 657 693 667 589 720 647 607 624 635 661 628 629 652 640 659 642 676 652 642 677 691 677 686 674 698 662 669 640 654 663 609 630 699 651 677 657 681 604 627 638 677 658 696 652 635 647 651 645 666 635 643 663 669 683 697 606 652 693 660 621 630 665 601 639 632 645 615 661 652 663 654 686 620 657 658 600 660 658 650 623 626 644 643 638 620 637 634 606 665 645 649 593 622 623 639 608 674 685 639 680 603 638 658 621 622 652 640 626 674 659 597 607 634 654 581 643 718 644 686 632 657 630 600 647 667 618 634 623 657 607 634 641 635 609 607 639 647 609 639 586 635 641 645 599 605 619 594 617 646 620 627 645 638 597 585 656 671 622 648 630 628 604 609 615 641 626 628 628 609 615 629 663 684 636 657 604 610 631 624 662 614 615 637 597 642 635 648 599 659 640 618 632 628 635 647 623 596 650 653 635 643 597 594 621 607 566 630 612 655 597 584 590 638 561 584 613 635 626 627 659 604 600 610 594 620 591 629 649 607 622 715 610 625 621 601 630 602 629 637 579 626 655 545 656 646 596 655 602 574 594 585 611 612 610 618 634 614 618 625 612 613 594 583 567 582 596 608 618 596 617 605 629 594 599 583 591 599 570 638 599 604 621 600 623 608 627 639 642 618 633 598 616 675 595 569 650 555 598 589 638 573 668 627 589 623 613 644 625 652 619 624 588 598 631 590 609 656 577 602 638 618 609 586 681 655 600 628 614 603 603 623 651 625 582 621 566 624 607 574 627 598 606 610 597 610 642 654 604 643 602 595 610 595 616 646 625 612 599 557 644 623 593 607 599 617 631 574 659 615 570 633 604 661 597 574 572 590 589 650 651 615 631 648 673 616 601 597 615 635 597 635 644 627 605 646 657 636 631 632 637 576 613 626 613 564 620 632 618 642 599 611 620 656 619 616 639 617 660 636 647 645 578 601 605 612 644 647 587 662 600 580 575 637 636 614 611 563 630 590 621 624 602 655 571 606 599 608 618 604 637 658 636 604 615 608 612 600 650 622 589 618 639 652 644 631 641 572 613 619 625 644 630 647 659 588 656 629 617 638 684 565 630 603 553 589 631 639 610 593 622 623 630 617 642 582 648 651 612 614 617 617 621 595 616 576 620 579 647 633 565 589 625 589 625 610 603 615 637 590 521 648 639 634 583 654 572 623 614 624 626 614 621 575 589 589 586 595 620 606 634 606 585 564 625 615 618 644 617 611 626 627 672 599 590 673 619 636 621 613 640 668 684 652 654 687 661 672 703 689 717 739 758 743 701 719 732 771 799 773 813 762 825 827 819 833 832 811 886 810 783 897 836 903 849 864 928 830 884 881 882 861 863 855 868 867 883 907 868 859 824 916 892 879 911 898 883 943 893 869 876 853 856 814 826 860 832 824 804 813 831 767 793 716 678 771 739 733 700 706 702 723 746 699 706 719 706 688 635 644 678 678 632 648 651 648 687 635 642 653 679 684 614 626 627 656 655 636 672 664 690 645 670 665 620 703 642 661 709 669 714 651 647 621 644 631 589 696 660 647 629 622 659 668 602 629 649 609 612 595 604 600 619 658 658 646 643 620 632 629 632 646 616 595 611 603 640 599 613 619 626 564 658 574 606 618 621 629 558 598 602 594 645 582 589 603 601 618 570 602 604 587 629 623 567 580 613 590 580 574 615 574 574 577 570 566 612 583 569 570 527 635 623 576 574 566 575 598 562 559 552 578 552 558 569 567 625 525 651 563 601 604 546 560 585 586 586 632 599 579 590 564 621 556 555 559 596 624 581 562 561 603 594 523 615 571 571 581 571 620 559 602 562 577 577 572 540 614 612 603 620 543 594 604 609 600 558 571 593 590 555 618 594 590 584 555 624 554 591 565 580 528 593 582 595 571 591 634 580 654 590 568 566 590 588 570 609 623 584 589 565 576 580 614 554 584 569 588 585 633 583 590 578 623 592 588 602 618 649 586 597 543 620 613 633 633 625 613 596 632 627 617 581 647 607 584 600 560 625 595 634 541 574 602 627 614 589 620 582 579 607 604 607 591 605 642 623 638 666 600 597 645 577 644 610 648 652 657 624 624 631 627 632 623 636 642 634 670 612 706 678 716 675 728 698 709 784 772 740 818 806 785 800 796 931 957 972 1024 1013 1015 1048 1122 1161 1144 1216 1351 1343 1375 1420 1403 1453 1558 1561 1623 1750 1674 1909 1875 1999 1935 2024 2123 2144 2166 2127 2186 2189 2249 2340 2425 2235 2332 2264 2394 2342 2316 2395 2359 2332 2360 2311 2256 2314 2315 2260 2308 2243 2341 2307 2324 2239 2154 2178 2154 2064 2082 2075 2009 1892 1861 1721 1752 1716 1768 1598 1688 1564 1592 1541 1564 1470 1443 1449 1414 1366 1303 1320 1257 1255 1159 1188 1172 1141 1159 1117 1173 1131 1116 1072 1119 1144 1101 1166 1088 1111 1120 1089 1080 1108 1103 1111 1126 1169 1083 1083 1060 1043 983 1027 1052 1010 1110 1051 1029 1019 978 988 942 917 891 943 962 902 848 841 899 854 937 845 803 822 796 768 769 801 877 775 817 820 781 808 761 767 751 780 748 787 730 725 692 725 689 691 699 729 692 725 684 676 680 650 693 724 702 707 661 664 680 637 656 592 633 638 634 634 641 611 624 647 629 627 607 635 640 590 620 633 680 633 634 604 592 613 637 584 625 588 592 555 574 600 620 603 611 584 605 590 572 615 629 624 646 619 613 584 607 592 619 590 646 609 629 612 623 673 617 594 644 652 672 656 673 610 706 665 681 673 701 672 696 715 718 684 742 702 750 722 696 713 731 744 774 748 730 722 825 790 799 779 760 773 761 812 742 759 768 768 822 694 780 756 799 753 763 802 774 803 807 740 749 751 762 732 750 709 761 726 680 706 690 682 720 716 667 691 651 689 700 633 663 622 633 668 639 625 666 664 625 641 674 616 595 647 563 611 605 620 598 645 617 580 621 615 625 530 651 606 578 566 584 581 541 615 581 585 558 583 577 574 553 573 560 575 602 602 564 566 559 582 588 568 519 552 602 577 537 555 551 572 549 532 592 542 528 520 547 549 607 523 567 576 535 511 593 538 516 560 553 512 526 538 550 517 559 542 539 561 533 531 531 505 512 546 579 544 504 559 527 535 521 531 507 532 560 538 543 549 609 553 547 553 525 560 530 544 534 525 520 525 508 537 567 510 538 522 550 503 507 508 540 509 524 557 518 517 530 519 548 525 495 536 505 521 580 503 518 502 463 528 556 556 518 532 494 513 532 537 542 539 517 503 536 548 492 518 544 523 524 507 532 466 544 503 522 515 550 539 514 531 463 503 517 531 534 439 537 572 541 563 535 487 543 550 515 528 499 486 522 499 548 500 533 481 533 525 528 550 542 505 515 596 525 563 546 485 552 553 511 498 556 497 567 557 523 514 550 535 514 513 522 526 553 509 514 548 550 507 509 500 519 523 551 483 529 508 532 518 531 533 515 517 503 536 510 513 504 530 506 532 520 525 514 493 586 525 526 511 551 535 481 492 517 513 506 525 543 573 537 527 502 497 516 492 521 504 493 555 539 532 507 507 489 500 527 514 494 516 485 506 496 539 540 529 527 555 528 508 568 463 538 530 541 499 504 529 521 521 504 533 515 528 499 511 518 515 517 530 541 565 523 514 525 491 477 520 504 492 490 495 526 521 516 512 507 513 496 505 499 508 441 494 514 511 534 502 505 542 549 497 501 505 496 469 489 545 523 475 506 463 495 480 547 507 467 490 496 470 556 504 489 522 538 456 512 508 521 517 498 503 503 501 538 536 538 514 489 548 496 478 470 529 504 506 482 502 459 515 501 494 496 503 482 479 505 518 473 487 539 533 503 512 503 541 548 496 482 522 476 492 524 523 529 538 575 482 505 526 453 554 489 498 528 523 533 517 470 474 523 516 531 507 537 517 472 534 484 521 497 522 519 538 493 462 528 497 540 492 510 522 516 505 489 507 509 490 531 485 502 524 505 524 518 485 515 530 503 512 506 531 498 555 494 546 524 523 523 551 499 515 556 532 497 532 506 529 562 561 537 546 565 518 567 555 555 520 544 531 512 581 564 539 541 550 583 517 574 570 558 545 563 523 515 563 553 603 530 566 560 548 546 533 532 579 562 588 532 592 604 603 595 593 652 623 641 642 634 628 618 646 614 644 689 680 644 659 745 667 665 658 701 679 730 732 732 730 700 771 802 761 751 766 788 833 810 827 846 783 861 840 856 820 834 812 852 846 801 837 857 790 887 860 852 847 807 786 807 777 825 756 763 755 742 744 744 797 742 773 786 701 642 713 693 700 692 678 672 675 678 656 645 581 608 585 649 628 634 721 642 617 639 629 619 671 683 692 698 624 691 676 676 651 719 637 714 692 681 717 737 722 712 683 732 733 722 721 727 712 632 731 689 768 685 701 683 682 698 648 705 776 697 684 656 641 637 643 626 631 626 591 620 615 625 572 596 574 620 584 601 568 581 562 586 518 547 534 551 492 583 496 531 469 563 541 549 529 500 510 513 502 542 521 544 516 493 526 477 500 508 480 510 468 526 510 530 490 526 523 541 492 516 529 479 513 447 534 483 475 492 482 471 507 499 473 498 525 516 509 491 516 518 476 564 498 563 491 451 515 499 491 474 499 444 519 517 516 526 520 552 458 507 496 485 509 464 498 525 531 530 503 555 489 510 540 507 538 520 544 484 563 525 509 571 620 578 544 556 584 556 548 580 573 540 607 599 595 624 634 581 600 671 668 631 669 688 679 671 707 730 712 719 744 777 753 780 805 770 795 812 850 825 828 838 899 905 882 923 933 939 929 910 986 950 989 974 989 969 990 933 948 991 940 976 929 967 988 957 952 968 1015 966 945 963 932 909 910 876 886 834 893 869 847 861 816 810 816 780 774 711 806 741 738 728 659 658 672 690 693 654 646 618 666 677 637 633 615 625 603 594 634 618 595 603 590 591 611 574 591 607 616 620 638 613 606 609 570 603 626 608 567 637 628 618 606 631 572 619 624 636 609 629 629 615 586 604 645 625 600 618 603 624 639 587 558 614 552 616 594 620 627 601 574 532 534 583 589 555 604 550 531 553 516 527 555 554 499 518 539 525 533 506 513 539 546 544 561 547 545 544 525 536 534 497 533 560 501 525 516 515 543 541 524 566 544 577 598 582 533 558 559 544 590 551 549 538 543 554 558 559 562 538 616 600 544 627 529 561 597 594 586 585 540 570 583 565 598 561 621 597 612 579 583 633 595 587 614 580 605 600 613 624 595 616 599 569 608 569 602 625 579 605 625 621 511 580 587 578 598 600 580 552 558 592 552 542 530 553 518 578 562 582 545 568 560 531 591 521 510 528 493 513 540 524 543 548 531 470 518 489 516 477 502 493 465 488 499 500 485 521 499 514 507 489 462 496 493 522 510 541 491 537 511 492 502 539 464 506 467 460 546 469 421 529 488 486 470 497 471 522 459 468 456 463 500 523 534 521 478 488 511 442 488 477 492 492 471 462 514 490 482 496 511 529 480 524 448 476 484 465 507 493 441 481 455 504 438 487 455 464 476 499 523 526 492 464 471 480 507 486 486 477 501 493 474 446 454 502 464 496 468 444 450 505 458 467 445 481 455 491 426 483 481 484 453 489 501 481 485 470 498 460 478 481 504 476 478 467 513 525 492 465 474 518 483 462 487 480 464 449 465 475 472 491 432 443 445 464 481 505 477 448 435 467 510 461 465 459 449 468 464 465 453 447 453 500 464 455 471 479 479 483 467 467 438 473 494 447 467 435 504 433 464 429 449 479 464 434 456 463 494 434 480 437 447 432 485 420 504 437 471 446 443 481 441 451 476 451 437 453 435 451 458 420 461 450 450 448 430 469 467 485 469 454 444 437 423 452 416 463 448 478 468 456 461 444 440 468 439 451 465 423 449 476 463 496 474 426 441 490 456 448 457 473 448 478 465 499 486 422 467 495 460 466 485 447 456 515 497 458 426 439 489 480 444 446 457 439 482 468 429 440 448 481 453 494 429 462 442 467 440 465 435 474 474 503 450 498 475 493 449 479 508 474 431 436 452 464 431 442 484 469 442 468 430 461 416 473 438 463 446 419 434 459 439 467 439 452 467 467 485 477 445 468 476 446 447 456 472 423 414 425 452 443 434 455 442 445 454 472 477 446 459 448 445 475 481 451 428 428 454 419 479 439 462 468 427 433 466 478 459 447 457 478 437 471 472 425 431 439 449 445 452 449 453 492 437 461 452 452 472 430 453 437 429 466 490 432 416 457 455 431 435 475 457 451 416 444 470 410 492 459 454 457 495 428 487 464 487 407 425 431 513 459 485 484 492 477 458 475 528 457 500 510 498 502 457 499 492 514 482 485 517 487 515 500 512 512 514 508 474 535 488 503 504 492 470 467 520 536 526 515 539 518 503 495 490 537 452 514 492 522 498 511 503 499 493 488 477 477 482 491 454 490 520 486 497 486 543 463 508 503 460 465 482 457 509 470 475 462 506 495 486 488 492 433 448 448 462 461 509 502 445 473 457 453 443 498 468 442 432 460 472 463 488 461 490 455 453 450 461 436 443 466 452 443 467 479 451 477 457 502 434 483 501 446 449 468 442 465 468 474 488 489 446 444 486 504 433 464 479 468 440 498 477 510 509 458 436 434 461 474 489 442 457 462 442 456 469 407 465 456 487 466 475 457 430 451 487 431 440 477 446 430 455 446 427 450 458 446 455 495 419 429 432 421 429 435 448 475 432 444 420 438 436 438 443 454 471 444 434 464 468 477 454 430 490 436 431 472 440 423 502 429 452 466 424 467 441 436 423 443 439 420 446 457 444 432 477 436 410 452 459 443 460 421 466 474 446 416 456 467 446 482 426 451 478 433 464 487 413 421 430 456 406 461 473 520 443 458 476 448 452 479 468 428 463 450 428 455 454 472 456 492 460 483 476 519 466 475 513 494 466 496 475 497 501 473 497 482 531 495 451 502 535 487 505 465 505 509 534 511 497 492 517 528 500 542 503 525 508 525 526 543 502 537 539 547 558 572 578 587 522 552 579 585 565 564 647 566 615 578 606 579 603 575 591 587 597 574 597 620 662 630 599 621 662 589 603 635 628 624 596 583 569 533 595 594 566 581 560 571 596 603 573 576 566 579 559 547 542 559 544 552 519 526 545 503 538 564 482 544 565 521 542 530 518 504 556 524 486 459 503 511 513 447 475 481 480 477 477 483 502 501 529 498 493 486 480 477 494 498 522 456 490 483 479 505 480 473 523 519 492 503 507 523 480 468 485 525 499 511 486 484 518 523 521 471 439 484 498 448 515 491 506 470 482 467 509 438 468 484 455 483 476 469 494 494 496 514 492 469 499 467 477 442 456 499 482 453 472 433 456 424 462 460 442 449 414 469 442 462 425 469 461 478 481 464 455 467 464 453 459 445 492 476 451 438 465 448 384 458 485 476 461 446 449 438 426 473 493 461 437 469 452 443 481 461 507 451 444 490 458 496 432 440 459 445 469 441 479 430 439 456 439 452 459 432 454 441 464 472 422 461 428 468 455 471 432 414 419 443 480 426 483 437 499 446 429 435 435 423 420 465 442 439 441 467 443 449 427 434 461 423 432 430 396 459 406 402 462 396 441 395 431 432 407 413 434 417 447 449 447 423 438 435 417 417 421 399 467 432 436 422 383 436 430 432 471 448 470 455 435 443 426 409 440 405 465 407 429 442 452 450 412 466 460 444 432 417 435 424 423 442 440 450 462 425 435 405 452 467 475 408 430 426 433 447 432 415 418 434 414 464 437 436 420 443 387 419 431 430 436 431 456 432 424 413 421 445 449 445 425 431 403 433 416 410 420 436 450 435 448 462 460 475 455 449 468 434 494 451 444 428 445 466 397 417 450 430 454 413 446 433 454 467 434 459 421 457 402 412 401 450 438 437 442 418 441 455 452 468 435 409 413 450 443 441 438 435 443 460 454 449 446 409 437 441 456 444 425 448 472 413 461 418 446 465 421 415 472 462 454 438 446 459 438 453 411 442 484 460 437 394 447 460 427 441 451 460 409 442 469 456 457 436 438 441 460 422 453 405 441 452 406 449 414 400 462 405 441 427 437 423 487 473 433 434 459 411 465 444 446 448 445 421 390 441 447 413 432 432 413 450 438 447 465 438 467 448 458 467 459 445 453 449 468 482 469 414 464 454 421 431 413 448 436 452 488 434 488 401 505 424 456 454 453 395 447 453 432 459 423 406 472 475 457 458 416 434 398 457 448 448 418 422 407 418 423 473 450 445 454 469 461 439 442 412 464 423 428 458 417 431 423 407 432 465 473 439 457 431 463 446 426 451 474 417 430 420 411 415 455 451 436 457 411 446 430 445 437 437 426 473 404 435 461 431 447 459 451 440 428 447 429 436 435 452 454 505 475 477 433 459 456 487 400 447 466 451 484 479 443 477 465 465 443 441 443 496 450 504 440 471 470 447 434 447 447 452 483 438 454 451 485 488 452 479 434 479 498 488 487 533 490 467 493 469 528 474 489 477 496 473 493 456 511 509 524 530 503 495 501 514 502 515 543 550 465 492 491 525 500 491 474 486 505 490 493 531 542 525 523 515 523 503 497 521 557 519 490 545 533 503 496 536 548 549 555 503 540 515 505 536 518 537 519 543 563 529 531 557 564 512 549 504 522 565 528 522 555 480 500 523 510 543 504 579 548 573 545 535 545 524 559 535 541 546 549 541 525 524 509 513 513 513 566 513 495 481 582 529 536 484 524 498 512 499 492 537 509 519 530 519 511 519 475 477 506 517 493 499 480 537 498 441 495 479 497 523 501 529 498 468 488 468 449 462 513 500 496 468 487 449 489 454 438 516 502 452 496 459 455 471 468 461 458 491 473 472 474 486 515 492 490 480 478 518 499 513 484 467 520 485 556 507 547 523 494 473 493 522 552 478 515 544 472 507 526 560 499 508 505 546 498 527 507 556 527 510 481 526 526 521 470 511 484 503 524 533 505 503 520 511 464 497 525 533 519 493 511 474 512 507 449 508 497 492 494 523 487 496 554 508 465 512 521 530 489 490 474 495 539 480 532 516 517 503 521 544 561 533 507 578 500 529 557 538 559 564 591 598 596 601 573 629 600 604 611 657 654 633 635 665 627 693 642 688 661 699 675 697 695 668 712 731 671 740 715 751 802 760 749 757 736 763 773 790 756 788 789 775 860 763 806 810 793 797 836 788 828 770 777 843 813 817 780 794 843 794 836 793 758 758 796 744 744 761 748 744 771 701 751 794 701 682 731 658 672 684 696 643 642 670 657 643 657 598 614 613 631 549 625 558 619 587 573 574 557 575 581 519 556 536 502 576 515 565 534 521 521 554 524 522 541 509 514 539 499 552 550 505 498 535 516 525 526 524 546 498 527 516 506 542 561 530 537 527 546 527 540 557 523 520 528 542 577 579 577 564 583 576 596 517 578 575 566 564 546 573 570 612 592 559 570 599 620 603 601 587 600 608 613 582 619 579 607 570 574 541 603 625 589 543 605 587 551 579 530 568 570 551 591 557 572 597 581 553 571 552 580 575 512 563 530 503 567 534 529 575 484 527 480 541 507 538 501 547 500 527 476 513 522 502 528 526 473 506 516 519 484 481 494 527 530 539 524 513 457 511 481 494 513 529 469 516 488 469 515 485 485 484 527 479 482 459 448 475 485 492 476 478 467 524 465 459 480 474 518 480 422 440 457 461 505 443 463 461 489 474 475 490 479 467 434 507 448 458 457 424 457 442 420 444 411 459 421 458 485 447 440 460 425 440 440 446 452 480 460 477 477 503 459 442 450 426 470 482 447 464 448 453 463 438 524 449 473 443 445 441 445 453 489 399 434 496 446 478 450 407 449 464 438 483 478 464 454 441 437 434 493 460 438 436 446 447 447 424 482 473 492 433 480 447 491 458 486 455 463 441 444 423 479 426 484 419 481 418 419 490 448 489 475 458 461 442 444 446 453 406 465 475 447 463 441 450 501 458 422 422 447 429 432 452 479 465 441 425 440 415 498 429 482 433 459 480 469 465 474 439 468 472 469 437 415 479 460 442 437 477 437 464 473 482 457 442 471 467 468 491 458 462 469 493 434 451 477 449 473 454 475 437 459 423 448 499 449 469 446 422 486 454 466 456 458 445 421 448 454 432 452 447 429 411 461 458 475 442 454 453 458 412 452 447 428 455 434 415 406 444 427 444 451 451 440 430 420 448 446 468 456 421 410 433 454 463 418 390 432 474 425 439 509 455 452 440 427 434 466 472 449 454 456 469 483 434 452 442 437 395 420 461 443 448 427 448 428 435 422 436 442 451 432 452 429 415 439 452 445 470 449 438 452 450 422 441 462 450 487 454 480 412 454 427 435 436 425 447 465 446 458 431 490 443 432 451 450 433 467 447 401 411 427 428 460 423 437 460 447 469 446 512 453 437 436 457 457 437 413 476 473 489 422 499 411 424 455 467 410 437 444 445 441 441 457 474 434 441 458 444 448 445 458 463 474 427 449 467 464 513 465 444 454 452 447 451 445 502 428 483 470 452 471 482 468 497 437 467 449 493 431 480 510 465 448 475 428 463 464 448 445 468 446 464 482 462 486 453 469 449 494 419 488 491 488 463 479 474 495 453 508 498 464 458 464 465 483 428 464 495 508 472 469 492 524 465 547 494 496 489 460 485 476 498 444 484 461 475 469 458 485 450 472 508 436 459 473 463 473 504 443 455 491 466 445 478 472 457 449 440 483 424 499 444 427 467 444 432 448 426 474 498 425 425 464 438 476 444 444 471 465 424 455 445 424 384 473 411 443 439 435 478 415 446 457 448 459 409 484 432 453 454 469 488 425 452 418 455 481 468 459 465 466 458 446 499 487 463 459 478 468 423 494 431 451 402 438 437 447 446 457 455 440 442 489 484 446 462 431 467 416 416 476 471 434 432 434 450 419 454 468 453 470 420 467 450 456 459 447 462 459 438 445 461 445 431 450 454 414 458 471 430 494 467 436 461 445 454 429 443 448 458 454 460 463 461 464 481 438 443 448 463 446 453 484 472 448 453 472 455 464 434 454 435 456 435 460 482 478 449 503 446 436 477 462 470 449 519 463 477 451 441 505 464 478 456 475 445 504 497 493 503 490 485 493 500 489 496 482 499 532 490 528 516 523 500 484 541 491 529 510 493 548 550 576 543 564 535 574 562 586 590 525 588 556 556 567 550 578 625 614 604 622 572 608 580 613 630 592 622 614 669 617 632 616 644 636 648 652 609 658 673 652 681 667 723 691 669 709 680 693 695 635 675 726 637 716 684 681 692 730 716 650 700 670 681 678 666 677 625 688 644 631 655 661 592 673 628 672 658 618 594 660 613 580 644 637 608 599 617 575 556 610 568 585 574 577 582 559 544 521 541 597 518 522 524 517 527 521 527 530 526 544 497 522 508 560 493 524 533 472 495 497 533 508 471 466 461 437 466 484 503 498 440 453 502 518 451 496 497 525 445 466 481 502 432 501 453 521 527 483 504 494 528 484 489 529 447 513 531 496 506 503 485 476 536 511 521 509 535 501 535 531 511 528 535 547 554 497 518 565 503 528 494 572 529 603 577 517 558 511 548 579 512 577 513 546 494 499 497 510 502 523 533 484 500 502 497 520 518 478 524 552 519 551 545 513 509 506 509 457 543 521 513 467 510 490 509 476 493 535 497 496 508 512 497 494 447 467 476 508 503 486 469 447 469 497 549 465 490 468 518 479 490 487 463 479 491 462 459 464 447 429 456 451 473 449 435 461 458 493 472 471 394 418 443 457 477 410 447 468 457 432 449 418 476 447 450 455 482 434 454 415 460 468 436 446 448 413 433 447 484 435 477 463 482 462 411 442 444 446 443 453 440 450 490 481 467 445 464 451 508 425 475 421 446 481 488 455 461 448 476 476 435 435 464 426 438 443 463 445 463 431 468 477 446 394 411 423 458 448 448 451 435 455 449 448 441 450 480 448 463 448 468 406 438 463 407 421 440 441 454 471 441 470 448 429 418 467 474 451 441 403 447 453 461 444 444 444 460 418 469 437 435 474 427 483 455 412 422 419 467 450 504 456 395 463 478 458 441 479 455 397 455 454 412 433 479 396 468 435 460 406 420 426 444 426 448 439 426 460 451 435 464 468 380 446 464 460 510 469 466 470 436 426 458 431 409 443 451 462 425 416 423 474 456 447 396 479 425 399 440 440 459 454 430 392 447 446 436 423 420 410 444 436 426 451 409 425 417 468 420 447 464 408 458 400 445 450 474 397 436 409 471 435 490 429 447 444 444 450 423 408 463 451 430 441 453 443 444 442 400 436 433 409 417 452 400 431 438 452 418 426 453 464 467 452 449 433 417 423 482 439 467 467 434 441 457 443 425 435 436 439 469 437 428 455 444 431 457 441 398 420 424 408 425 475 469 464 441 447 454 427 442 448 425 434 446 446 451 463 401 404 430 431 422 412 466 455 444 448 451 484 450 479 471 465 479 416 477 427 475 423 454 422 427 441 447 475 457 435 460 409 483 434 481 417 438 455 449 445 477 447 459 469 490 456 431 500 471 463 469 429 470 417 446 429 473 417 460 466 446 491 435 444 451 445 464 513 448 459 418 480 474 459 500 489 443 495 463 471 460 436 484 479 516 466 456 530 504 452 464 509 479 500 503 499 487 492 527 483 487 467 505 489 515 476 509 455 538 503 458 503 490 571 499 499 531 516 569 502 533 530 505 530 518 529 515 506 459</counts>
			</dataPoints>
		</scan>
	</xrdMeasurement>
</xrdMeasurements>
