<?xml version="1.0"?>
<xrdMeasurements xmlns="http://www.xrdml.com/XRDMeasurement/2.3" xmlns:xsi="http://www.w3.org/2001/XMLSchema-instance" xsi:schemaLocation="http://www.xrdml.com/XRDMeasurement/2.3 http://www.xrdml.com/XRDMeasurement/2.3/XRDMeasurement.xsd" status="Completed" recordIdentifier="{6379AC71-A23A-4319-8C72-0D5217EBAF4F}">
	<comment>
		<entry/>
	</comment>
	<sample type="To be analyzed">
		<id>GPSS_Li1p6Mn0p8Zr0p2Cl4_111125_691433d647a6a0fd7c657728</id>
		<name></name>
		<preparedBy></preparedBy>
	</sample>
	<xrdMeasurement measurementType="Scan" status="Completed" sampleMode="Reflection">
		<usedWavelength intended="K-Alpha 1">
			<kAlpha1 unit="Angstrom">1.5405980</kAlpha1>
			<kAlpha2 unit="Angstrom">1.5444260</kAlpha2>
			<kBeta unit="Angstrom">1.3922500</kBeta>
			<ratioKAlpha2KAlpha1>0.5000</ratioKAlpha2KAlpha1>
		</usedWavelength>
		<incidentBeamPath>
			<radius unit="mm">145.00</radius>
			<xRayTube id="1010048" name="Empyrean Cu LFF HR (9430 033 7310x)">
				<tension unit="kV">40.0</tension>
				<current unit="mA">15.0</current>
				<anodeMaterial>Cu</anodeMaterial>
				<focus type="Line">
					<length unit="mm">12.0</length>
					<width unit="mm">0.4</width>
					<takeOffAngle unit="deg">6.0</takeOffAngle>
				</focus>
			</xRayTube>
			<sollerSlit id="21010002" name="Soller slits 0.04 rad.">
				<opening unit="rad">0.0400</opening>
			</sollerSlit>
			<mask id="22031000" name="Fixed mask 13 mm">
				<width unit="mm">9.00</width>
			</mask>
			<divergenceSlit id="22120001" name="Divergence slit 1°" xsi:type="fixedDivergenceSlitType">
				<distanceToSample unit="mm">50.00</distanceToSample>
				<height unit="mm">1.52</height>
			</divergenceSlit>
		</incidentBeamPath>
		<sampleMovement xsi:type="spinningSampleMovementType">
			<spinnerRevolutionTime unit="seconds">1.0</spinnerRevolutionTime>
		</sampleMovement>
		<diffractedBeamPath>
			<radius unit="mm">145.00</radius>
			<antiScatterSlit id="22090040" name="AS slit 9 mm (PIXcel)" xsi:type="fixedAntiScatterSlitType">
				<height unit="mm">9.00</height>
			</antiScatterSlit>
			<sollerSlit id="21020003" name="Large Soller slits 0.04 rad.">
				<opening unit="rad">0.0400</opening>
			</sollerSlit>
			<filter id="20030001" name="Large beta-filter Nickel">
				<material>Ni</material>
				<thickness unit="mm">0.020</thickness>
			</filter>
			<detector id="7010019" name="PIXcel1D-Medipix3 detector" xsi:type="rtmsDetectorType">
				<phd unit="keV">
					<lowerLevel>4.02</lowerLevel>
					<upperLevel>11.27</upperLevel>
				</phd>
				<mode>Scanning</mode>
				<activeLength unit="deg">5.542</activeLength>
			</detector>
		</diffractedBeamPath>
		<scan appendNumber="0" mode="Continuous" scanAxis="Gonio" status="Completed">
			<header>
				<startTimeStamp>2025-11-14T12:10:53-08:00</startTimeStamp>
				<endTimeStamp>2025-11-14T12:19:01-08:00</endTimeStamp>
				<author>
					<name>AutomatedUser</name>
				</author>
				<source>
					<applicationSoftware version="1.7b (136)">PANalytical Aeris Instrument Suite</applicationSoftware>
					<instrumentControlSoftware version="3.2.00000000 20240306">AERIS</instrumentControlSoftware>
					<instrumentID>950485</instrumentID>
				</source>
			</header>
			<dataPoints>
				<positions axis="2Theta" unit="deg">
					<startPosition>10.00943322</startPosition>
					<endPosition>99.99442286</endPosition>
				</positions>
				<positions axis="Omega" unit="deg">
					<startPosition>5.00471661</startPosition>
					<endPosition>49.99721143</endPosition>
				</positions>
				<commonCountingTime unit="seconds">12.495</commonCountingTime>
				<counts unit="counts">2789 2881 2682 2708 2831 2850 2738 2824 2872 2842 2659 2870 2813 2838 2839 2884 2833 2838 2882 2860 2902 2832 2848 2927 2761 2818 2676 2879 2867 2951 2846 2844 2854 2826 2906 2826 2861 2916 2770 2825 2961 2919 2764 2895 2830 2878 2918 2906 2807 2805 2791 2831 2881 2806 2918 2835 2893 2947 2899 2883 2965 2869 2985 2940 3013 2994 2938 2992 2910 3110 3024 3033 2923 3059 2980 3148 3042 3045 2955 3102 3148 3050 3214 3148 3251 3151 3188 3173 3245 3230 3300 3328 3172 3283 3297 3302 3245 3164 3223 3241 3252 3233 3241 3181 3268 3197 3085 3185 3177 3116 3143 3147 3111 3065 3122 3133 3125 3136 3113 3140 3207 3054 3240 3095 3140 3076 3069 3020 3083 3148 3204 3192 3149 3167 3116 3105 3117 3162 3136 3105 3103 3211 3206 3170 3212 3118 3156 3101 3074 3189 3158 3254 3184 3221 3144 3092 2996 3036 3124 3107 3202 3074 3200 3226 3059 3144 3089 3124 3139 3067 3140 3150 3180 3141 3008 3146 3038 3234 3107 3220 3008 3154 3193 3106 3075 3133 3122 3036 3135 3055 3162 3102 3015 3093 3027 3074 3160 3042 3153 3140 3141 3176 3144 3167 3146 2931 3059 3097 3108 3078 3107 3090 3007 3033 3139 3094 3077 3129 3128 3188 3238 3097 3125 3133 3031 3009 3170 2993 3129 3092 3070 3003 3108 3045 3135 3049 3124 3105 3086 3036 3173 3065 3053 3105 2989 3057 3094 3068 2959 3013 2999 3043 3067 3126 3013 2954 3015 3035 3188 3076 3098 3072 3163 3020 2933 3036 3106 3124 3102 3003 3093 2915 2964 3050 2976 3045 2939 2946 3022 3087 3019 3000 2986 3006 3055 3119 3027 3077 3009 3036 3023 3052 3085 3168 3104 2945 3069 3009 3109 3005 3085 3100 3104 3098 3044 3044 3020 3057 3068 3004 2981 3007 3138 3023 3135 3163 3039 3026 3100 3113 3112 3180 3051 3075 3014 3115 3116 3154 3115 3114 2967 3064 3049 3143 3131 3158 3050 3094 3165 3182 3093 3223 3091 3144 3108 3152 3178 3144 3136 3088 3125 3143 3310 3161 3176 3218 3156 3189 3174 3135 3247 3164 3222 3283 3122 3122 3193 3122 3211 3353 3204 3218 3211 3176 3204 3174 3211 3247 3322 3252 3189 3320 3238 3374 3187 3236 3132 3279 3277 3369 3327 3390 3336 3453 3378 3346 3357 3363 3422 3450 3380 3393 3335 3446 3468 3490 3513 3461 3466 3597 3514 3582 3528 3650 3572 3734 3680 3692 3757 3846 3732 3798 3891 3878 3954 3956 4049 4232 4235 4268 4287 4271 4205 4303 4216 4121 4192 4174 3915 3874 3869 3876 3838 3776 3859 3828 3741 3635 3693 3729 3603 3629 3473 3548 3554 3625 3491 3561 3465 3490 3434 3471 3567 3569 3475 3461 3416 3467 3565 3498 3381 3413 3438 3395 3427 3397 3462 3390 3405 3274 3292 3308 3295 3338 3361 3479 3360 3317 3295 3269 3240 3301 3324 3212 3356 3263 3243 3253 3308 3162 3293 3229 3247 3142 3251 3102 3146 3381 3126 3244 3219 3234 3164 3058 3197 3216 3053 3137 3190 3156 3095 3152 3011 3173 3168 3175 3063 3226 3113 3147 3076 3126 3198 3117 3070 3102 3095 3056 3178 3022 2986 3060 3089 3065 3162 3058 2988 3079 3017 3013 3046 3040 2946 3012 2975 2942 3071 2954 2989 3034 3007 2950 3069 3065 3028 2938 3127 2987 2978 3021 3010 2943 2991 2898 2865 2870 2962 2978 3106 2914 2926 2892 3018 2941 2995 2908 2969 3049 3063 2999 2892 2947 2947 2855 2939 2913 3007 2842 2903 2916 2868 2898 2904 2861 2886 2878 2835 2880 2890 2862 2934 2848 2859 2873 2911 3010 2894 2952 2852 2945 2941 2815 2873 2826 2946 2871 2819 2907 2816 2911 2950 2873 2838 2904 2925 2852 2944 2738 2907 2757 2894 2887 2941 2833 2781 2841 2791 2826 2797 2891 2912 2874 2856 2894 2976 2899 2808 2860 2729 2948 2834 2787 2802 2778 2977 2886 2812 2747 2858 2901 2794 2834 2822 2732 2798 2833 2796 2833 2855 2847 2845 2843 2875 2870 2819 2913 2806 2754 2733 2780 2889 2782 2821 2781 2733 2931 2814 2846 2814 2735 2805 2888 2784 2752 2801 2761 2814 2774 2787 2801 2747 2722 2758 2866 2857 2733 2794 2699 2797 2727 2816 2755 2760 2753 2786 2797 2674 2839 2757 2752 2826 2737 2766 2785 2837 2744 2800 2749 2874 2739 2804 2829 2751 2773 2741 2768 2738 2790 2808 2776 2767 2829 2785 2738 2772 2720 2777 2812 2793 2800 2718 2720 2792 2684 2779 2736 2657 2721 2822 2723 2737 2734 2797 2781 2726 2681 2766 2722 2705 2684 2583 2688 2748 2687 2728 2617 2720 2715 2681 2739 2728 2634 2751 2716 2755 2675 2748 2659 2664 2697 2705 2693 2648 2779 2709 2608 2668 2692 2710 2706 2688 2709 2719 2689 2766 2713 2687 2757 2660 2600 2606 2717 2681 2657 2591 2552 2675 2709 2664 2710 2736 2658 2569 2623 2618 2666 2635 2678 2651 2653 2719 2558 2777 2640 2678 2657 2712 2612 2668 2665 2643 2668 2710 2643 2706 2669 2518 2561 2665 2743 2708 2654 2643 2666 2629 2619 2689 2688 2610 2751 2607 2754 2620 2635 2609 2625 2518 2647 2611 2545 2509 2637 2631 2630 2708 2598 2600 2614 2606 2635 2500 2585 2552 2566 2610 2572 2625 2593 2572 2667 2620 2656 2571 2574 2623 2642 2632 2572 2517 2595 2587 2603 2589 2542 2603 2557 2516 2582 2516 2677 2566 2678 2630 2551 2487 2600 2482 2571 2613 2661 2447 2445 2488 2519 2563 2581 2507 2431 2616 2578 2506 2563 2475 2512 2643 2528 2554 2502 2534 2580 2442 2605 2534 2581 2473 2538 2630 2565 2541 2621 2577 2546 2512 2478 2512 2575 2416 2532 2586 2555 2509 2542 2526 2515 2531 2503 2602 2524 2457 2537 2537 2540 2632 2529 2410 2504 2577 2563 2503 2602 2492 2560 2539 2570 2517 2568 2601 2539 2600 2544 2483 2519 2563 2431 2455 2507 2487 2550 2539 2549 2486 2434 2484 2437 2536 2610 2602 2534 2479 2512 2500 2502 2546 2533 2579 2423 2509 2576 2622 2713 2471 2646 2544 2535 2439 2469 2545 2499 2595 2499 2489 2519 2656 2544 2623 2548 2558 2524 2536 2550 2454 2584 2529 2470 2496 2467 2631 2541 2580 2537 2445 2629 2601 2640 2498 2553 2549 2545 2525 2426 2544 2534 2585 2595 2563 2640 2560 2541 2540 2532 2533 2568 2516 2483 2526 2492 2527 2571 2546 2548 2522 2624 2565 2437 2580 2576 2475 2531 2588 2539 2621 2475 2486 2497 2464 2646 2567 2502 2552 2405 2563 2493 2564 2580 2485 2475 2572 2497 2398 2559 2406 2451 2548 2520 2473 2416 2437 2445 2510 2495 2397 2431 2476 2432 2469 2436 2444 2459 2551 2451 2508 2402 2413 2395 2442 2444 2347 2385 2482 2385 2299 2473 2457 2430 2414 2346 2439 2305 2430 2428 2423 2309 2418 2337 2376 2377 2440 2377 2347 2408 2392 2302 2333 2332 2379 2282 2284 2368 2354 2431 2326 2352 2304 2322 2369 2220 2385 2301 2295 2400 2272 2279 2355 2287 2282 2281 2353 2332 2288 2257 2167 2260 2252 2271 2331 2148 2308 2315 2343 2220 2247 2224 2249 2199 2293 2168 2200 2236 2159 2152 2129 2204 2222 2225 2220 2186 2277 2223 2147 2158 2116 2207 2126 2175 2179 2211 2089 2185 2107 2232 2176 2104 2167 2091 2150 2080 2191 2088 2187 2190 2158 2137 2163 2117 2133 2211 2106 2199 1982 2101 2125 2027 2115 2008 2002 2025 2128 2073 2104 2051 2094 2108 2043 2068 2174 2056 1965 2080 2034 2114 2093 2029 2065 2004 2027 2026 2082 2049 2101 2001 1997 2081 1998 2050 2030 2005 2033 2022 1964 2064 2086 2037 2037 2071 1982 1997 2027 2019 2066 2008 2005 2078 1939 1999 2005 2036 2002 2026 1984 1887 1987 1961 1934 2010 1999 1981 1916 1985 1959 1980 1905 1984 1931 2017 1952 1958 1960 1942 1937 1981 2022 1928 1957 1928 1974 1953 1965 1880 1957 1974 1967 1975 1979 1954 1830 2059 1934 1937 2021 1950 1966 2014 1905 1891 1924 1938 1961 1988 1955 1976 1936 1908 1854 1870 1851 1940 1912 1993 1932 1889 1872 1904 1973 1948 1872 1868 1940 1927 1950 1967 1964 1982 1894 1917 1896 1919 1942 1887 1875 1971 1931 2020 1858 1954 1975 1968 1907 1918 1934 1862 1986 1900 1954 1924 1937 1907 1927 1949 2056 1895 1989 1925 1823 1972 1849 1987 1895 1926 1925 1943 1913 1952 1964 1952 2026 2040 2000 2026 2044 2042 2016 1938 1908 2015 1919 1952 1999 1917 1989 1897 1993 1984 1942 1876 1939 1927 1879 2006 1955 1923 1909 1896 1925 2047 1988 1891 2024 1912 2052 1959 1969 1986 1951 2042 1988 1920 1865 1837 1902 1977 1928 1946 1983 2022 1986 1976 1955 1982 1903 1961 1953 1988 1934 1975 1952 1995 1904 1883 1959 1921 1949 1925 1980 1976 1913 1859 1970 2024 1940 1954 1902 1962 1971 1963 1926 1916 1963 1936 1919 1960 1917 1865 1955 1952 1817 1984 1868 1920 1921 1971 1913 1920 1855 1889 1930 1930 1996 1973 1902 1859 1880 1808 1946 1950 1903 1907 1871 1895 1941 1883 1863 1835 1892 1935 1914 1868 1877 1892 1911 1875 1831 1802 1868 1867 1788 1793 1819 1856 1809 1728 1806 1831 1806 1872 1833 1833 1863 1797 1787 1779 1878 1851 1809 1804 1773 1724 1768 1872 1770 1828 1770 1798 1788 1798 1779 1747 1861 1831 1716 1804 1799 1779 1770 1803 1819 1662 1721 1729 1791 1824 1799 1810 1826 1800 1738 1734 1816 1753 1712 1735 1777 1774 1719 1775 1775 1729 1753 1712 1785 1815 1738 1798 1785 1791 1749 1723 1692 1736 1763 1722 1633 1770 1703 1780 1696 1725 1752 1797 1717 1740 1800 1706 1698 1763 1722 1770 1770 1778 1810 1927 1838 1902 2045 1889 2028 1976 2050 2037 2166 2247 2342 2373 2417 2491 2405 2555 2524 2659 2680 2747 2751 2777 2715 2641 2638 2622 2495 2509 2416 2393 2301 2276 2232 2190 2067 2094 1991 1969 1880 1880 1898 1892 1754 1869 1713 1706 1724 1746 1808 1738 1739 1726 1700 1656 1695 1648 1715 1670 1616 1650 1639 1672 1695 1645 1683 1671 1639 1625 1667 1646 1653 1672 1641 1561 1655 1582 1549 1599 1571 1570 1497 1553 1525 1545 1496 1533 1555 1565 1599 1534 1570 1540 1517 1561 1616 1562 1522 1561 1632 1569 1546 1630 1523 1624 1610 1617 1584 1613 1619 1669 1677 1689 1735 1652 1832 1823 1860 1937 1948 1999 2122 2252 2270 2338 2506 2538 2680 2665 2893 3070 3227 3108 3364 3520 3584 3701 3900 3895 3811 3820 3751 3825 3563 3567 3417 3348 3084 3001 2904 2654 2743 2546 2445 2452 2200 2166 2067 1996 2072 2017 1986 1931 1899 1851 1818 1912 1899 1881 1831 1802 1778 1759 1849 1826 1815 1833 1864 1739 1792 1809 1828 1816 1816 1863 1818 1848 1873 1773 1817 1822 1844 1843 1932 1871 1835 1833 1853 1847 1878 1906 1806 1764 1788 1801 1719 1737 1660 1715 1566 1659 1641 1602 1568 1472 1574 1487 1514 1629 1646 1564 1472 1542 1542 1601 1500 1541 1532 1461 1459 1507 1535 1441 1488 1470 1443 1392 1483 1440 1437 1398 1432 1455 1463 1445 1429 1412 1393 1343 1366 1400 1485 1376 1389 1466 1421 1355 1455 1429 1445 1274 1376 1358 1400 1422 1407 1410 1429 1477 1305 1427 1411 1430 1403 1373 1391 1357 1352 1358 1358 1345 1358 1324 1401 1404 1317 1360 1385 1406 1380 1401 1268 1350 1385 1293 1295 1332 1369 1295 1312 1320 1324 1357 1291 1366 1320 1311 1324 1313 1351 1289 1381 1317 1427 1341 1345 1292 1373 1269 1300 1284 1365 1339 1346 1369 1320 1262 1248 1342 1295 1349 1304 1286 1351 1390 1356 1300 1350 1317 1295 1295 1259 1307 1332 1362 1346 1406 1356 1328 1359 1314 1339 1368 1255 1322 1247 1378 1309 1317 1323 1277 1364 1366 1257 1345 1331 1392 1351 1372 1359 1301 1386 1361 1304 1305 1335 1356 1370 1309 1424 1408 1393 1432 1422 1387 1399 1461 1492 1456 1530 1537 1597 1625 1597 1611 1656 1667 1665 1683 1700 1736 1800 1816 1838 1793 1835 1789 1861 1792 1778 1817 1898 1870 1841 1779 1791 1730 1735 1789 1730 1728 1604 1579 1631 1609 1613 1585 1568 1546 1586 1644 1518 1599 1526 1510 1448 1499 1475 1546 1419 1470 1427 1440 1409 1389 1472 1382 1357 1456 1408 1399 1410 1417 1467 1359 1423 1411 1371 1420 1397 1346 1407 1381 1442 1339 1465 1445 1379 1411 1388 1389 1433 1450 1374 1358 1342 1377 1392 1448 1378 1459 1341 1399 1337 1369 1420 1344 1383 1355 1365 1370 1451 1481 1346 1418 1374 1365 1396 1366 1343 1430 1390 1397 1414 1393 1342 1331 1385 1338 1323 1392 1275 1394 1323 1309 1374 1449 1392 1390 1365 1387 1352 1437 1415 1332 1417 1431 1482 1421 1433 1400 1450 1456 1483 1546 1527 1511 1553 1502 1612 1593 1694 1736 1826 1892 2016 2162 2206 2380 2568 2713 2951 3238 3411 3730 3890 4281 4714 4848 5347 5566 5915 6259 6505 7019 7288 7931 8296 8591 8538 8873 8656 8467 8090 7745 7397 7225 7088 6777 6307 5876 5431 4996 4487 4375 4016 3816 3705 3428 3364 3126 3042 2791 2643 2615 2330 2458 2327 2321 2178 2162 2088 2011 1952 1904 1859 1882 1858 1826 1790 1763 1808 1700 1774 1766 1751 1707 1752 1669 1613 1601 1626 1584 1555 1561 1650 1497 1554 1516 1481 1544 1517 1522 1563 1552 1481 1578 1514 1608 1528 1490 1497 1519 1493 1466 1437 1420 1403 1441 1370 1389 1367 1409 1355 1319 1335 1319 1245 1300 1295 1274 1348 1297 1345 1305 1280 1267 1304 1333 1237 1231 1268 1369 1246 1286 1221 1313 1275 1213 1368 1305 1293 1241 1312 1285 1263 1269 1314 1268 1308 1271 1348 1321 1314 1292 1289 1297 1285 1307 1348 1284 1310 1345 1304 1265 1301 1336 1302 1300 1279 1328 1296 1305 1288 1231 1323 1309 1284 1325 1305 1318 1246 1240 1284 1181 1190 1200 1245 1265 1253 1269 1217 1206 1211 1272 1250 1315 1204 1236 1238 1245 1223 1313 1267 1249 1225 1219 1281 1285 1218 1202 1197 1227 1209 1264 1200 1212 1298 1132 1242 1309 1252 1193 1158 1158 1200 1175 1265 1222 1255 1251 1147 1128 1249 1200 1236 1202 1229 1182 1155 1225 1142 1183 1240 1193 1152 1192 1135 1136 1188 1211 1237 1215 1199 1205 1141 1203 1124 1211 1244 1189 1156 1175 1237 1178 1142 1195 1211 1230 1251 1206 1168 1187 1200 1218 1244 1193 1180 1218 1229 1193 1193 1214 1122 1094 1116 1103 1177 1124 1254 1181 1171 1244 1154 1161 1151 1208 1198 1155 1178 1159 1151 1176 1235 1182 1178 1184 1197 1204 1218 1185 1225 1163 1188 1218 1274 1251 1207 1250 1232 1242 1216 1229 1191 1199 1217 1216 1253 1220 1260 1268 1236 1287 1175 1141 1158 1179 1166 1174 1137 1200 1182 1186 1163 1140 1182 1207 1184 1130 1180 1098 1166 1184 1073 1176 1117 1158 1213 1156 1067 1169 1138 1154 1113 1225 1127 1131 1164 1153 1115 1161 1160 1166 1114 1158 1113 1112 1140 1171 1139 1065 1105 1164 1148 1136 1166 1172 1156 1167 1179 1175 1145 1132 1141 1141 1158 1141 1133 1093 1112 1054 1128 1105 1152 1171 1100 1180 1154 1124 1129 1141 1081 1131 1151 1108 1169 1131 1151 1142 1139 1105 1154 1127 1036 1177 1073 1140 1098 1149 1097 1151 1125 1147 1030 1132 1160 1129 1164 1133 1106 1113 1162 1078 1143 1098 1114 1049 1140 1159 1106 1134 1090 1114 1078 1110 1108 1123 1121 1086 1161 1116 1100 1126 1078 1031 1116 1083 1104 1132 1107 1144 1077 1094 1096 1090 1049 1116 1150 1137 1110 1108 1127 1101 1092 1075 1139 1044 1147 1140 1115 1064 1167 1137 1130 1104 1110 1150 1075 1113 1111 1081 1088 1051 1126 1125 1044 1169 1148 1122 1157 1101 1099 1051 1125 1161 1112 1087 1097 1060 1111 1085 1137 1086 1132 1065 1139 1062 1103 1112 1078 1053 1097 1119 1088 1085 1115 1083 1079 1091 1097 1108 1048 1142 1130 1106 1127 1104 1150 1098 1102 1073 1127 1107 1116 1055 1082 1089 1099 1145 1094 1110 1027 1044 1169 1113 1093 1074 1085 1157 1152 1109 1111 1076 1039 1078 1108 1096 1015 1030 1041 1064 1088 1108 1090 1078 1120 1019 1126 1062 1133 1086 1065 1138 1069 1104 1106 1117 1073 1122 1069 1125 1164 1034 1034 1084 1143 1117 1080 1100 1093 1135 1096 1082 1073 1101 1032 1138 1061 1102 1137 1144 1087 1112 1101 1098 1065 1065 1121 1073 1084 1165 1141 1093 986 1069 1072 1097 1048 1068 1090 1048 1041 1096 1083 1069 1087 1138 1097 1075 1159 1074 1061 1090 1113 1092 1133 1047 1111 1051 1082 1067 1118 1078 1041 1061 1090 1076 1117 1068 1105 1051 1099 1076 1083 1080 1102 1023 1099 1044 1056 1086 1081 1088 1023 1062 1092 1114 1073 1094 1050 1147 1029 1070 1036 1052 1118 1050 1024 1101 1069 1111 1132 1115 1120 1126 1066 1055 1041 1086 1029 1040 1087 1040 1117 1137 1043 1079 1129 1099 1180 1041 1039 1095 1071 1091 1072 1055 1071 1107 1104 1084 1074 1081 1121 1066 1139 1073 1093 1083 1056 1034 1091 1114 1113 1036 1089 1097 1093 1096 1063 1121 1070 1118 1099 1032 1046 1043 1056 1141 1155 1086 1123 1127 1118 1048 1071 1104 1073 1119 1107 1079 1110 1060 1080 1081 1140 1074 1069 1059 989 1094 1051 1061 1104 1087 1078 1109 1120 1106 1120 1129 1094 1059 1052 1106 1059 1082 1102 1103 1123 1087 1061 1073 1101 1107 1134 1043 1092 1076 1091 1041 1070 1117 1040 1071 1121 1066 1074 1123 1080 1057 1054 1095 1075 1081 1064 1070 1026 1119 1103 1088 1035 1067 1117 1099 1094 1067 1087 1149 1067 1096 1072 1059 1075 1040 1081 1079 1080 1062 1110 1090 1085 1101 1075 1072 1079 1046 1139 1104 1043 1083 1118 1096 1041 991 1075 1099 1072 1022 1076 1047 1128 1099 1082 1071 1100 1115 1069 1137 1098 1015 1118 1077 1084 1117 1052 1082 1122 1127 1033 1101 1097 1086 1128 1059 1153 1100 1185 1090 1112 1086 1082 1120 1095 1076 1194 1151 1146 1122 1101 1105 1115 1176 1123 1197 1150 1075 1134 1147 1103 1162 1194 1163 1075 1153 1149 1115 1227 1122 1146 1193 1189 1117 1218 1209 1141 1181 1196 1180 1179 1174 1246 1209 1225 1165 1093 1179 1151 1197 1108 1166 1165 1121 1118 1104 1111 1165 1120 1224 1113 1130 1140 1109 1126 1099 1083 1139 1115 1151 1104 1078 1094 1095 1115 1116 1110 1138 1108 1075 1165 1133 1107 1120 1134 1151 1146 1128 1178 1136 1191 1147 1215 1236 1276 1234 1261 1338 1360 1305 1384 1434 1466 1510 1538 1625 1663 1692 1714 1745 1933 1993 2081 2026 2097 2102 2046 1950 1894 1849 1835 1832 1840 1757 1803 1729 1706 1629 1534 1561 1429 1425 1343 1396 1325 1300 1266 1274 1295 1209 1188 1221 1169 1213 1200 1132 1175 1170 1190 1167 1121 1154 1086 1111 1144 1140 1079 1186 1102 1129 1103 1082 1125 994 1119 1095 1111 1125 1087 1138 1082 1077 1011 1056 1040 1037 1046 1037 1081 1044 1067 1094 1020 1105 1093 1076 1134 1092 1094 1040 1102 1032 1132 1029 1070 1052 1033 1062 1054 1103 1060 1042 1054 1010 1089 1067 1102 1039 1062 1032 1060 1126 1039 1005 1058 1013 1069 1061 1036 1092 1046 1133 1082 1047 994 1096 1123 998 1090 1098 1069 1042 1048 1031 1052 1042 1109 1049 1048 1067 1067 966 1102 1005 1041 1056 1089 1066 1057 999 1057 1008 1067 1076 1000 1040 1028 1067 1040 983 1033 1056 1009 1024 1047 1051 1095 1135 1036 983 1073 1076 1034 1043 1016 1065 1032 1024 1042 1126 1056 1048 1080 1022 1102 1000 1068 1058 1076 1077 1044 1089 1096 1118 1028 1088 1078 1029 1066 1000 994 1012 1065 1060 1096 1018 1046 1042 1017 1107 1052 1101 1085 1064 1059 1014 1072 1005 1008 1080 1031 1053 1059 1012 1027 1069 1056 1054 1142 1103 993 1094 1061 1131 1033 1105 1081 1019 1144 1101 1056 1065 1119 1079 1051 1099 1076 1047 1078 1026 1060 1097 1085 1099 1112 1054 1069 1051 1044 1083 1049 1061 1120 1029 1084 1065 1046 1103 1053 1098 1092 1059 1025 1070 1116 1122 1061 1040 1067 1096 1084 1102 1096 1078 1117 1039 1097 1110 1123 1095 1107 1044 1076 1107 1091 1127 1110 1078 1104 1051 1087 1074 1073 1078 1046 991 1066 1089 1132 1077 1104 1099 1110 1037 1081 1129 1082 1104 1133 1044 1028 1088 1044 1071 1096 1100 1085 1119 1108 1075 1082 1061 1087 1139 1072 1134 1094 1052 1138 1065 1060 1117 1098 1143 1136 1106 1040 1077 1138 1127 1149 1166 1108 1211 1075 1189 1114 1198 1119 1206 1182 1191 1204 1229 1173 1274 1228 1243 1262 1246 1209 1350 1246 1307 1279 1348 1376 1448 1450 1522 1591 1700 1767 1959 2025 2142 2261 2411 2584 2776 3104 3245 3579 3673 4016 4286 4663 4998 5412 5882 6079 6562 6478 6610 6323 6110 5862 5256 5339 5130 4925 5128 4899 4756 4613 4375 4145 3770 3661 3245 3069 2830 2605 2451 2396 2238 2069 2046 1954 1876 1831 1711 1708 1635 1640 1503 1571 1540 1508 1462 1367 1452 1359 1355 1335 1324 1297 1279 1309 1293 1269 1227 1218 1222 1221 1173 1150 1140 1208 1114 1175 1171 1190 1089 1157 1110 1135 1023 1126 1086 1142 1138 1064 1113 1122 1162 1117 1120 1124 1132 1134 1084 1081 1164 1102 1065 1107 1115 1147 1152 1147 1144 1199 1190 1189 1162 1188 1250 1240 1191 1305 1279 1238 1247 1260 1247 1259 1318 1235 1217 1273 1217 1194 1226 1307 1247 1193 1206 1235 1190 1188 1198 1204 1179 1188 1224 1196 1181 1157 1229 1169 1236 1150 1230 1178 1180 1134 1175 1186 1104 1180 1133 1161 1124 1166 1165 1155 1114 1120 1091 1136 1054 1139 1131 1083 1091 1133 1110 1065 1101 1183 1086 1100 1107 1090 1098 1100 1094 1080 1070 1085 1050 1059 1075 1064 1020 1095 1107 1046 1029 1078 1051 1002 1088 1070 1015 1042 1038 1017 1052 1063 1015 1096 1102 1078 1002 1032 1063 1077 1096 1061 1124 1098 1034 1117 1141 1127 1120 1150 1235 1094 1193 1236 1251 1237 1279 1376 1351 1380 1475 1481 1518 1542 1577 1560 1604 1565 1553 1494 1415 1457 1398 1437 1444 1409 1402 1398 1376 1327 1303 1334 1252 1246 1207 1273 1207 1121 1127 1172 1137 1132 1027 1066 1097 1086 1076 1091 1074 1048 1012 1023 1055 1068 1018 1051 1006 1079 1040 1008 1036 1098 1037 1018 1009 989 1034 1004 994 1032 1016 955 1041 994 1043 1002 985 976 1022 1052 981 1013 1075 1018 1056 1047 1017 1020 1038 969 1047 980 1022 987 1017 993 1053 992 1015 950 982 961 1044 967 970 1008 1026 1044 1009 950 951 1020 980 1023 1036 1000 1009 991 1039 994 965 955 1004 981 969 993 961 1048 944 1033 1026 1038 929 988 1022 970 988 980 981 992 959 976 1016 1010 992 999 1043 1039 984 1043 983 970 1013 969 1017 1004 1013 1022 1057 946 974 952 989 994 998 999 1023 1027 997 1077 970 962 1006 1024 992 1001 986 1058 1003 997 1001 1018 1013 1033 991 1001 1011 937 992 966 987 998 1011 956 988 986 978 952 978 1035 1005 951 922 975 980 1004 1040 996 995 1083 1009 965 1016 1010 1022 952 1050 1084 948 1068 979 973 946 1018 1065 1004 1014 1079 1054 1043 955 974 1000 971 1048 984 1004 1008 926 933 959 971 970 1028 997 1009 989 959 1038 971 969 937 967 1021 1007 967 949 1058 959 1030 987 968 982 965 985 966 973 987 948 929 1036 932 1034 985 1002 958 956 947 1017 958 1005 1043 987 950 965 985 1030 928 970 1027 1010 945 977 961 1010 981 1015 947 1000 953 961 986 997 1000 981 952 906 992 977 924 940 983 951 958 963 953 978 1040 971 963 945 999 1010 1002 970 910 940 1030 995 940 931 994 1007 925 1026 982 987 933 971 973 966 961 985 996 930 985 1014 1014 925 1015 1027 944 986 987 976 895 1006 954 979 943 959 953 977 1001 978 948 993 996 979 979 934 953 1003 1014 940 1000 946 1002 897 1012 993 988 1054 994 982 1006 956 958 947 910 937 941 955 965 971 954 975 950 969 990 943 966 958 1026 952 987 980 969 900 1007 948 1024 964 953 994 1021 1009 982 979 987 1002 940 983 932 971 926 962 980 964 973 929 938 953 975 1030 1019 928 1005 1038 951 949 967 1019 1007 979 924 998 963 937 953 989 1013 991 946 1019 985 1009 974 900 989 944 1033 1002 981 993 990 1001 923 1008 971 971 990 916 966 995 982 1015 949 959 918 1007 961 962 948 970 953 953 954 950 988 940 940 963 962 988 1017 924 972 1021 1003 954 969 974 985 956 925 1003 966 962 942 976 965 949 913 1010 938 932 986 1009 1008 986 944 966 978 944 992 1014 993 1010 975 949 965 966 923 972 976 1011 1009 969 965 932 995 981 987 1011 953 996 1013 972 947 981 995 1041 979 978 1056 953 1033 974 948 1020 1011 1063 1040 1013 1043 1117 1047 1125 1155 1108 1109 1109 1103 1133 1122 1081 1096 1091 1105 1077 1051 1039 1037 1071 1041 1100 1097 1134 1066 1051 1047 1022 1004 974 1000 1034 1007 993 980 1039 995 1003 954 983 1002 996 962 1014 1016 1053 1050 1002 975 1036 1064 989 977 1037 1058 1085 1103 1055 1143 1116 1124 1132 1226 1252 1330 1357 1390 1412 1519 1496 1612 1590 1617 1708 1670 1741 1721 1712 1600 1540 1597 1468 1539 1534 1450 1475 1509 1421 1488 1388 1482 1305 1370 1333 1271 1273 1189 1168 1122 1207 1159 1136 1133 1127 1050 1038 1051 1021 1063 1024 1013 1048 1037 977 1065 1026 1030 1022 1063 1011 961 1050 986 973 953 1006 1028 979 942 970 1038 1020 956 996 970 992 933 1042 1009 1004 955 1040 1033 966 979 1018 969 1061 987 1038 1052 1025 941 1033 1003 993 1071 985 1011 1040 1052 979 990 993 963 994 1028 1010 978 1065 988 915 1033 952 989 1021 1017 1031 986 1038 976 990 997 1038 1002 967 990 1040 985 1087 1057 1000 1059 1091 1098 1073 1018 1114 1062 1019 1033 1123 1116 1090 1088 1063 1051 1056 1022 946 1070 991 1024 994 1040 1011 995 1050 1052 1017 1022 984 1024 1045 1097 998 1059 1049 1008 978 994 1030 1053 1056 1032 979 1001 1001 988 1024 1026 1035 986 1021 972 1025 978 1014 1028 993 1074 987 992 941 976 1008 1027 1040 989 1061 991 982 1054 1009 1070 1029 999 991 1018 1013 1005 1028 1055 1012 1031 1012 992 1017 990 989 1010 1014 1045 971 1007 996 1017 975 1049 927 1036 1080 1048 1050 1015 1044 1039 1073 1006 1010 1021 987 1060 1035 1004 1086 1008 950 1051 1049 1055 1081 1097 1042 1092 1054 1128 1011 1122 1099 1165 1235 1248 1279 1348 1280 1454 1499 1517 1575 1701 1748 1847 1985 2092 2181 2309 2233 2339 2267 2362 2104 2114 1955 1923 1825 1764 1804 1749 1683 1817 1828 1824 1819 1825 1728 1612 1525 1535 1466 1446 1410 1407 1264 1173 1238 1221 1171 1261 1077 1138 1062 1110 1025 1094 1014 997 1074 1026 1039 1016 1016 1012 1050 1023 1027 920 999 969 1003 1026 1020 1054 978 962 926 984 929 1000 931 958 990 1010 958 931 992 1015 959 954 970 1007 1006 964 939 957 921 943 999 1035 962 1001 974 985 994 975 1009 951 972 953 898 985 997 984 998 1020 1007 973 993 969 970 961 969 1009 969 997 991 979 970 981 926 1016 1014 939 952 984 893 938 961 932 1005 1032 1023 1030 954 926 976 1030 979 1009 976 1028 996 981 1011 988 1015 998 1031 987 987 982 997 982 1020 1062 1022 996 1002 938 939 978 939 953 985 947 1013 929 890 979 990 1029 977 979 973 980 1033 956 1020 985 1017 998 1010 1033 970 994 996 977 996 995 1040 1051 1061 1136 1109 1201 1186 1209 1235 1208 1251 1226 1297 1218 1270 1199 1149 1196 1213 1128 1129 1142 1159 1180 1093 1105 1213 1145 1139 1074 1084 1086 1028 1106 1089 1055 1014 1017 1021 1038 992 971 979 956 988 1037 984 956 941 917 922 982 902 950 924 969 915 966 906 930 971 970 969 972 971 928 923 890 1006 918 894 933 965 983 917 927 941 919 969 911 971 961 926 882 937 944 952 971 981 917 921 914 970 930 871 993 960 863 919 977 869 904 916 947 950 940 960 940 876 978 916 941 951 897 959 962 924 957 905 928 915 1018 967 977 987 1022 918 936 944 919 944 926 923 925 927 929 911 945 962 899 928 949 956 924 897 924 973 941 926 936 917 914 920 910 934 979 929 927 898 953 885 918 974 949 932 910 907 892 956 950 918 939 974 909 919 945 952 925 926 932 977 932 993 968 962 962 935 943 932 943 886 913 964 927 911 892 896 938 965 888 880 874 920 968 912 930 940 900 919 983 965 989 933 911 925 903 941 966 953 859 877 908 852 954 959 879 932 914 999 981 890 887 982 887 909 876 876 945 921 928 908 939 897 968 949 940 957 959 939 972 915 919 906 920 894 964 953 910 928 950 855 931 983 918 945 918 968 902 905 922 938 967 953 949 927 860 926 893 931 939 929 965 935 933 1008 960 908 976 925 920 979 934 980 915 912 891 929 983 933 945 897 947 957 938 908 876 899 909 930 910 967 958 891 869 887 891 953 939 938 881 925 930 959 956 940 988 963 949 939 885 902 907 982 899 973 934 918 965 881 917 936 924 938 884 873 934 900 935 958 865 887 967 918 920 928 845 876 956 956 910 941 1005 952 875 942 870 920 967 886 916 974 936 951 943 880 863 929 904 939 899 923 952 887 906 912 890 968 909 1001 916 934 1004 943 917 865 909 896 937 898 913 921 913 965 921 878 932 926 937 967 911 947 918 916 921 883 915 928 868 865 887 864 964 979 918 943 948 967 975 927 964 930 893 939 852 916 898 921 943 924 941 906 902 905 910 921 933 916 904 1003 890 909 969 918 903 946 905 884 923 938 975 955 960 959 894 931 934 940 947 890 880 955 865 949 945 936 937 932 925 936 907 882 903 904 901 902 918 950 990 960 993 953 967 924 905 966 932 961 914 1010 959 1001 1052 1016 1052 1056 1032 1108 1049 1112 1109 1124 1087 1113 1059 1059 1027 1058 1031 1003 1028 1034 1062 1007 1094 1033 994 1028 1049 1045 1045 1029 928 1000 965 1012 967 1012 972 923 971 945 967 1011 938 947 988 941 973 945 975 952 971 942 894 927 913 923 894 939 967 839 968 926 942 933 942 1000 894 944 904 943 970 915 910 926 920 918 910 893 967 939 942 894 920 920 870 832 988 929 898 901 948 950 877 940 893 927 903 922 931 910 921 910 892 918 970 954 940 919 959 846 987 923 944 889 937 908 911 954 885 899 932 949 917 894 928 905 955 905 931 926 929 874 929 946 884 864 906 922 952 936 904 874 873 892 889 930 907 912 905 914 876 896 897 866 937 872 924 951 929 930 898 946 981 950 888 901 874 891 926 917 900 891 932 932 986 914 905 904 895 942 930 862 893 923 921 880 906 945 886 907 879 875 907 863 886 907 913 917 905 926 922 944 889 924 961 899 966 923 863 891 858 893 843 909 881 875 930 900 909 935 918 907 845 882 917 939 947 944 909 957 929 952 993 924 898 922 871 912 891 930 906 936 980 976 902 926 935 925 945 942 867 921 870 948 904 875 917 993 962 866 900 950 928 975 938 939 964 932 950 926 978 951 959 905 924 906 933 966 954 909 915 926 938 983 995 1008 973 937 966 1060 984 1000 1009 1028 1089 1006 1087 1112 1155 1129 1168 1188 1322 1276 1341 1400 1445 1429 1481 1497 1508 1453 1480 1392 1373 1363 1385 1265 1240 1259 1227 1217 1208 1221 1301 1262 1261 1223 1251 1263 1239 1214 1154 1209 1134 1126 1027 1097 1063 983 1037 1015 986 953 965 988 968 978 978 982 998 1048 972 956 935 893 976 924 990 989 883 945 942 924 944 917 940 922 921 953 995 898 931 875 905 905 960 918 927 900 956 918 858 914 935 899 880 940 917 908 861 917 863 970 860 950 920 960 925 884 924 917 961 945 933 905 916 890 915 893 925 887 883 959 931 940 860 922 954 905 913 872 952 929 918 892 917 884 935 955 940 902 915 912 863 902 936 891 893 917 910 910 942 935 915 915 925 900 898 901 876 885 925 904 912 912 940 913 943 887 960 880 845 916 905 919 944 952 963 930 841 941 933 905 964 899 918 912 919 955 912 988 953 927 940 910 953 946 898 943 860 895 882 916 891 911 890 845 946 882 898 906 888 859 949 938 908 882 928 905 870 897 919 895 869 903 923 865 914 876 899 909 922 912 989 896 910 900 902 929 924 909 933 882 911 930 913 914 921 908 944 939 938 900 943 899 964 910 923 932 896 886 910 882 909 965 884 905 876 928 947 889 922 898 944 941 896 972 885 930 869 894 886 957 898 923 904 920 924 897 885 960 872 909 872 899 854 930 872 944 941 880 945 917 884 919 908 893 916 951 940 897 848 882 913 959 957 893 945 897 878 928 854 901 899 864 885 864 904 910 910 833 938 918 916 860 956 926 884 913 897 900 909 889 907 930 883 901 890 887 906 903 884 947 959 903 940 885 916 891 888 864 874 870 899 871 905 913 885 970 900 950 916 924 845 962 908 956 928 879 902 900 891 881 923 947 880 1017 900 921 896 951 924 938 896 964 925 936 884 878 980 871 896 901 927 914 937 901 894 882 882 935 822 846 872 940 916 916 903 919 911 898 914 958 894 919 881 966 874 891 918 903 888 874 935 867 883 844 867 936 953 920 942 883 880 897 915 889 922 900 920 925 865 947 928 915 924 920 866 874 874 937 895 886 894 907 895 897 874 874 921 891 837 812 877 855 891 895 957 884 927 889 881 925 934 941 888 939 885 889 912 934 868 950 925 855 923 876 898 965 924 868 845 876 902 855 902 963 892 914 918 903 860 943 886 958 871 917 901 934 929 959 894 851 934 904 946 863 930 875 933 875 897 943 886 878 862 929 855 914 917 918 906 918 946 914 893 887 900 857 892 927 898 922 931 916 869 985 906 911 892 913 897 959 850 900 908 890 916 928 935 937 836 936 888 928 884 965 868 929 905 886 881 916 958 903 925 885 921 920 871 951 911 879 931 892 891 894 885 904 880 926 866 958 956 932 940 881 878 902 881 907 884 887 901 951 921 929 903 938 916 928 931 924 954 922 925 918 903 944 930 962 920 888 910 939 955 893 992 920 957 882 895 980 938 915 983 823 940 931 908 954 919 999 1000 1027 999 998 964 1106 1028 1098 997 1077 1092 1087 1088 1070 1056 1080 978 1022 1034 989 987 1035 968 1043 1005 1055 975 1023 1030 1006 1039 972 1022 1029 994 1050 992 999 914 987 1004 986 913 939 963 968 914 982 999 931 914 979 993 969 997 951 1036 1035 1066 1002 1033 1077 1046 1136 1107 1192 1139 1160 1147 1146 1120 1108 1127 1136 1059 1047 1079 1098 1110 1038 1026 1071 1013 1046 996 1021 1088 1003 1080 1070 1027 1033 1030 1053 1024 1021 985 977 989 1012 911 959 987 1010 1034 1001 994 937 905 962 970 974 908 917 940 902 955 918 898 997 922 914 853 935 912 935 944 910 945 931 932 877 920 963 927 957 892 919 926 938 965 976 956 973 979 873 945 920 947 943 921 872 948 932 908 968 943 890 945 941 959 989 946 891 916 950 870 968 960 916 904 939 933 905 945 895 949 883 902 936 862 907 919 932 900 970 888 939 888 965 956 883 932 968 1018 930 920 935 950 949 982 898 877 919 915 947 943 969 940 945 907 902 936 931 950 944 974 927 948 990 922 898 939 951 940 935 942 973 989 977 1035 1012 887 910 963 972 932 1009 949 891 932 970 972 967 915 964 967 963 944 1024 955 1016 1028 979 935 1028 1000 1010 1001 957 1010 988 1009 1049 995 1037 985 1067 1031 993 1069 952 1062 1018 1016 1078 1065 1117 1076 1120 1130 1195 1150 1230 1214 1325 1399 1364 1476 1489 1513 1710 1750 1886 1986 2034 2123 2268 2282 2303 2211 2184 2074 1911 1822 1760 1655 1556 1511 1548 1470 1530 1430 1488 1567 1587 1609 1585 1748 1654 1646 1637 1574 1585 1577 1470 1422 1435 1385 1368 1233 1184 1230 1152 1097 1144 1114 1139 1049 1095 1060 1018 954 1024 999 986 1024 964 1035 1013 1026 1002 988 1028 952 906 1005 1006 967 991 922 967 869 961 907 929 913 910 934 942 861 912 972 967 958 928 922 952 950 931 907 908 979 931 903 1011 920 933 942 959 941 933 943 964 954 937 952 892 959 921 941 950 917 966 970 950 905 965 913 909 912 913 958 922 926 934 970 923 923 970 961 951 977 909 925 969 974 965 967 909 928 965 947 909 985 961 910 863 866 936 926 911 897 919 879 955 916 907 974 982 944 891 934 901 964 974 1012 954 976 957 949 944 1043 924 1007 1037 1006 1018 1037 1021 1069 1077 1060 1067 979 1090 1072 999 1016 1101 1051 945 976 999 1014 1006 1019 952 1028 977 1003 1008 1029 968 1012 1099 1038 960 955 1003 992 966 929 924 963 956 941 1012 935 986 934 986 928 993 940 943 952 954 953 971 910 1005 937 932 931 955 885 896 939 970 918 931 925 915 889 916 912 899 878 954 858 956 919 881 939 869 909 919 885 868 923 921 897 953 907 912 934 995 854 934 914 897 945 959 873 918 877 911 953 931 914 992 909 989 919 877 935 912 957 906 909 897 939 957 954 942 874 885 971 877 968 928 941 994 851 953 866 981 901 906 915 947 936 923 932 894 886 923 904 944 884 907 895 886 881 879 911 969 899 935 907 921 927 908 876 884 872 934 902 947 866 915 919 922 900 930 862 939 862 927 937 971 901 884 881 908 894 903 870 966 951 897 866 941 842 924 883 891 980 849 959 900 905 947 921 927 870 934 968 883 935 894 900 872 931 904 1012 921 919 923 883 871 883 998 918 912 892 850 927 911 905 899 953 906 947 952 887 974 907 888 920 856 939 861 907 841 972 906 938 874 876 947 887 927 910 940 899 855 898 916 888 920 939 850 932 834 946 928 918 869 944 897 906 897 910 920 928 893 976 879 872 878 910 948 884 863 964 908 875 886 944 963 887 905 899 902 859 922 877 916 917 937 941 921 894 946 928 894 949 926 942 925 897 947 912 891 928 865 917 924 866 958 922 879 949 895 825 929 848 977 895 891 897 917 887 945 884 923 884 950 866 903 884 923 905 926 901 910 889 913 972 933 907 909 858 918 902 911 932 907 896 893 856 883 890 875 907 923 920 941 920 971 977 891 917 859 906 942 949 932 940 954 916 970 940 897 909 896 906 915 958 878 936 871 950 914 883 926 934 889 931 855 881 902 896 955 911 867 880 868 945 894 879 920 940 911 935 934 900 891 939 915 913 889 907 900 911 905 969 953 904 982 941 980 923 935 880 938 870 900 937 916 941 893 890 945 972 941 979 993 980 949 993 933 955 981 1049 948 1001 1032 1038 1096 1064 1095 1061 1069 993 989 1072 1058 1056 993 942 990 951 979 975 952 985 963 945 955 986 993 984 952 1014 978 901 934 961 935 953 956 987 953 973 986 935 985 945 922 953 895 959 974 921 893 934 910 912 919 967 923 961 881 846 941 969 942 948 953 973 898 897 962 949 926 877 958 925 930 922 876 880 922 946 933 869 888 917 869 920 908 939 961 949 996 892 929 911 903 900 917 909 942 912 908 890 934 938 910 886 893 889 924 889 918 958 936 962 867 944 862 923 888 935 875 917 902 894 928 916 872 884 929 909 873 949 914 887 931 896 954 970 858 958 866 952 937 911 941 914 960 958 915 965 934 993 924 862 884 938 965 867 979 1000 870 953 882 926 887 888 931 903 914 947 949 930 942 847 885 893 899 939 899 901 959 868 920 845 844 953 896 964 934 893 914 860 922 899 935 914 945 881 870 902 943 939 928 867 926 964 937 890 982 1004 923 884 962 929 939 888 901 896 848 849 941 944 990 959 910 923 894 932 878 927 908 921 936 942 914 904 884 922 936 918 917 974 964 921 945 940 915 926 950 1033 953 970 940 983 965 984 1004 1016 974 977 997 944 954 1004 985 976 928 1028 997 1043 1072 1048 972 1051 1061 1055 1076 1081 1178 1158 1245 1248 1301 1403 1463 1505 1617 1732 1747 1815 1904 1875 1960 1807 1769 1699 1633 1536 1445 1467 1395 1328 1356 1299 1292 1261 1262 1275 1242 1305 1307 1307 1282 1345 1368 1454 1334 1455 1465 1475 1466 1413 1388 1295 1282 1239 1218 1120 1099 1077 1092 1033 1038 1078 1023 1002 1014 1035 963 984 991 982 971 929 971 958 947 937 965 995 936 958 948 917 948 888 920 931 974 961 950 917 924 913 914 920 949 947 982 893 924 878 903 954 978 943 923 960 897 895 940 970 908 895 945 890 924 908 949 918 891 915 937 917 860 923 822 965 910 929 923 879 898 927 887 961 909 870 928 886 885 940 929 967 892 876 952 882 884 911 993 916 901 943 900 917 895 925 890 893 876 935 986 916 897 935 909 969 920 919 943 888 868 864 937 992 958 931 936 956 932 925 921 975 947 913 922 923 969 960 956 904 966 959 885 949 949 991 954 951 1008 964 925 944 955 890 893 944 909 899 914 938 967 992 949 941 974 987 957 926 915 965 982 933 954 950 921 894 931 936 996 917 910 966 864 865 922 933 928 930 925 940 925 1025 990 928 978 987 936 917 943 972 889 879 944 937 911 953 932 957 884 914 953 931 850 924 880 905 1001 932 918 895 900 920 983 896 944 916 961 950 923 900 881 913 885 944 978 901 922 985 888 932 875 926 927 903 919 927 923 856 977 924 911 925 909 895 875 880 941 902 955 927 922 935 852 924 892 910 875 898 911 876 954 929 934 861 852 901 932 947 890 864 947 926 925 935 906 856 904 919 906 898 837 909 913 907 923 915 912 887 934 899 874 924 858 888 888 897 884 912 910 908 932 891 942 974 861 950 931 924 847 867 885 940 846 918 875 894 927 892 919 918 922 919 918 945 964 961 891 904 897 920 897 880 878 889 863 899 841 950 891 879 912 923 926 826 873 898 891 857 916 878 923 904 852 952 970 908 919 924 944 870 944 885 940 864 865 933 892 852 880 911 921 903 936 894 861 891 883 872 887 881 932 932 836 925 880 936 920 889 882 920 951 947 858 911 848 855 876 914 852 878 841 957 929 919 933 906 946 943 824 850 907 906 927 907 865 910 925 956 920 929 923 887 877 961 949 878 988 878 907 895 941 925 939 919 906 868 989 952 948 896 946 923 875 921 936 890 898 867 893 899 914 956 897 853 859 927 907 941 908 931 887 920 835 887 874 910 895 853 952 933 938 889 858 885 917 918 946 858 873 870 876 954 902 936 841 925 914 933 889 914 878 930 916 916 840 926 913 897 901 923 904 867 896 921 939 951 900 915 888 883 866 931 898 926 933 852 847 867 908 874 909 920 924 955 862 933 958 895 841 909 934 936 875 884 932 930 926 918 894 935 852 912 855 926 905 885 925 887 929 917 852 949 906 945 903 953 890 953 910 927 929 981 962 923 942 920 877 962 966 984 883 1017 958 954 983 1001 998 1011 997 1000 1042 1032 1104 1032 1008 1121 1151 1135 1111 1075 1100 1119 1062 1059 1025 1016 1023 1004 1023 1023 933 978 962 941 942 933 986 979 971 1004 1007 1012 1072 978 1004 1037 998 1042 1021 1028 1045 1012 1012 995 978 998 1015 1000 1044 997 968 1009 968 988 1091 990 986 962 979 1040 1030 1117 1027 1081 1054 1089 1084 1096 1061 1085 1072 1001 1046 954 1051 1002 1031 990 939 954 961 955 948 966 978 987 964 966 1054 959 1028 992 995 1015 1003 976 983 996 1017 981 999 976 988 998 958 961 962 960 971 932 929 916 928 946 891 1004 921</counts>
			</dataPoints>
		</scan>
	</xrdMeasurement>
</xrdMeasurements>
