<?xml version="1.0"?>
<xrdMeasurements xmlns="http://www.xrdml.com/XRDMeasurement/2.3" xmlns:xsi="http://www.w3.org/2001/XMLSchema-instance" xsi:schemaLocation="http://www.xrdml.com/XRDMeasurement/2.3 http://www.xrdml.com/XRDMeasurement/2.3/XRDMeasurement.xsd" status="Completed" recordIdentifier="{64671254-3C74-4D69-8196-8ADBBC9AEA59}">
	<comment>
		<entry/>
	</comment>
	<sample type="To be analyzed">
		<id>GPSS_Li1p4Fe0p8Nb0p2Cl4_121225_693c5ab8f4d05ae3d6974f15</id>
		<name></name>
		<preparedBy></preparedBy>
	</sample>
	<xrdMeasurement measurementType="Scan" status="Completed" sampleMode="Reflection">
		<usedWavelength intended="K-Alpha 1">
			<kAlpha1 unit="Angstrom">1.5405980</kAlpha1>
			<kAlpha2 unit="Angstrom">1.5444260</kAlpha2>
			<kBeta unit="Angstrom">1.3922500</kBeta>
			<ratioKAlpha2KAlpha1>0.5000</ratioKAlpha2KAlpha1>
		</usedWavelength>
		<incidentBeamPath>
			<radius unit="mm">145.00</radius>
			<xRayTube id="1010048" name="Empyrean Cu LFF HR (9430 033 7310x)">
				<tension unit="kV">40.0</tension>
				<current unit="mA">15.0</current>
				<anodeMaterial>Cu</anodeMaterial>
				<focus type="Line">
					<length unit="mm">12.0</length>
					<width unit="mm">0.4</width>
					<takeOffAngle unit="deg">6.0</takeOffAngle>
				</focus>
			</xRayTube>
			<sollerSlit id="21010002" name="Soller slits 0.04 rad.">
				<opening unit="rad">0.0400</opening>
			</sollerSlit>
			<mask id="22031000" name="Fixed mask 13 mm">
				<width unit="mm">9.00</width>
			</mask>
			<divergenceSlit id="22120001" name="Divergence slit 1°" xsi:type="fixedDivergenceSlitType">
				<distanceToSample unit="mm">50.00</distanceToSample>
				<height unit="mm">1.52</height>
			</divergenceSlit>
		</incidentBeamPath>
		<sampleMovement xsi:type="spinningSampleMovementType">
			<spinnerRevolutionTime unit="seconds">1.0</spinnerRevolutionTime>
		</sampleMovement>
		<diffractedBeamPath>
			<radius unit="mm">145.00</radius>
			<antiScatterSlit id="22090040" name="AS slit 9 mm (PIXcel)" xsi:type="fixedAntiScatterSlitType">
				<height unit="mm">9.00</height>
			</antiScatterSlit>
			<sollerSlit id="21020003" name="Large Soller slits 0.04 rad.">
				<opening unit="rad">0.0400</opening>
			</sollerSlit>
			<filter id="20030001" name="Large beta-filter Nickel">
				<material>Ni</material>
				<thickness unit="mm">0.020</thickness>
			</filter>
			<detector id="7010019" name="PIXcel1D-Medipix3 detector" xsi:type="rtmsDetectorType">
				<phd unit="keV">
					<lowerLevel>4.02</lowerLevel>
					<upperLevel>11.27</upperLevel>
				</phd>
				<mode>Scanning</mode>
				<activeLength unit="deg">5.542</activeLength>
			</detector>
		</diffractedBeamPath>
		<scan appendNumber="0" mode="Continuous" scanAxis="Gonio" status="Completed">
			<header>
				<startTimeStamp>2025-12-15T16:42:21-08:00</startTimeStamp>
				<endTimeStamp>2025-12-15T16:50:28-08:00</endTimeStamp>
				<author>
					<name>AutomatedUser</name>
				</author>
				<source>
					<applicationSoftware version="1.7b (136)">PANalytical Aeris Instrument Suite</applicationSoftware>
					<instrumentControlSoftware version="3.2.00000000 20240306">AERIS</instrumentControlSoftware>
					<instrumentID>950485</instrumentID>
				</source>
			</header>
			<dataPoints>
				<positions axis="2Theta" unit="deg">
					<startPosition>10.00943322</startPosition>
					<endPosition>99.99442286</endPosition>
				</positions>
				<positions axis="Omega" unit="deg">
					<startPosition>5.00471661</startPosition>
					<endPosition>49.99721143</endPosition>
				</positions>
				<commonCountingTime unit="seconds">12.495</commonCountingTime>
				<counts unit="counts">3218 3119 3183 3163 3186 3221 3205 3271 3246 3141 3238 3257 3125 3174 3306 3162 3265 3264 3244 3180 3186 3264 3139 3224 3088 3187 3159 3149 3323 3203 3208 3253 3260 3190 3227 3174 3129 3233 3150 3216 3231 3229 3241 3165 3270 3260 3226 3223 3189 3107 3265 3227 3260 3370 3233 3337 3205 3310 3325 3361 3341 3374 3362 3376 3281 3421 3483 3471 3435 3531 3509 3593 3452 3564 3599 3552 3623 3622 3653 3793 3631 3706 3664 3757 3803 3865 3627 3658 3640 3744 3625 3671 3619 3619 3556 3537 3500 3535 3533 3510 3378 3503 3342 3377 3346 3196 3247 3263 3250 3230 3115 3251 3179 3225 3246 3192 3272 3303 3198 3182 3262 3098 3262 3094 3152 3169 3160 3107 3217 3180 3189 3304 3145 3128 3206 3182 3283 3215 3191 3147 3177 3171 3204 3112 3023 3204 3222 3148 3120 3168 3113 3068 3190 3100 3137 3158 3214 3195 3139 3035 3125 3153 3223 3086 3089 3276 3182 3134 3134 3005 3110 3041 3135 3192 3155 3158 3125 3173 3155 3167 3127 3127 3183 3086 3091 3200 3199 3023 3212 3234 3149 3142 3194 3237 3190 3197 3073 3182 2994 3130 3155 3106 3137 3093 3137 3160 3056 3144 3093 3133 3149 3077 3222 3133 3050 3143 3046 3194 3066 3075 3196 3157 3105 3101 3179 3124 3179 3199 3138 3269 3169 3101 3126 3154 3127 3124 3166 3138 3156 3190 3204 3197 3162 3142 3130 3162 3225 3284 3103 3159 3053 3114 3255 3120 3293 3193 3184 3123 3226 3180 3176 3211 3226 3260 3209 3181 3281 3217 3340 3190 3163 3191 3168 3225 3268 3202 3280 3228 3233 3207 3259 3214 3324 3319 3235 3368 3254 3309 3263 3221 3204 3319 3307 3333 3283 3389 3362 3329 3347 3267 3367 3290 3260 3385 3323 3443 3361 3399 3430 3390 3430 3513 3364 3415 3416 3497 3488 3465 3444 3497 3405 3555 3456 3471 3437 3496 3415 3304 3523 3537 3557 3563 3556 3549 3405 3485 3513 3544 3525 3566 3604 3563 3604 3499 3698 3618 3600 3687 3639 3748 3604 3558 3684 3571 3584 3696 3675 3700 3745 3625 3637 3655 3648 3767 3799 3663 3715 3747 3790 3817 3684 3795 3723 3821 3813 3779 3774 3829 3843 3733 3827 3653 3880 3912 3896 3903 3847 3907 3822 3894 3954 3952 3830 3865 3884 3931 3955 3882 4019 3904 3830 3939 3852 3926 3931 3989 4012 4042 4068 4019 3972 3928 4150 3961 4154 3996 4134 4015 4039 4180 4251 4166 4255 4316 4431 4494 4469 4646 4718 4795 4807 4973 5078 5094 5149 5146 5137 5333 5269 5386 5176 5464 5314 5300 5310 5255 5278 5014 5014 4929 4733 4790 4874 4705 4770 4615 4663 4615 4378 4540 4557 4664 4465 4416 4407 4267 4382 4332 4207 4179 4354 4236 4233 4150 4050 4143 4084 4062 4023 4019 3824 3997 4021 3994 3985 3797 3888 3886 3857 3935 3871 3910 3772 3889 3757 3809 3814 3753 3761 3841 3796 3794 3810 3868 3775 3680 3821 3794 3707 3881 3682 3742 3778 3811 3759 3627 3742 3695 3684 3631 3726 3711 3667 3597 3738 3641 3651 3632 3764 3724 3812 3721 3645 3612 3705 3728 3649 3658 3717 3663 3657 3666 3668 3766 3643 3717 3629 3671 3579 3630 3586 3566 3586 3710 3683 3740 3642 3631 3631 3554 3615 3601 3657 3560 3695 3518 3541 3520 3498 3505 3555 3483 3470 3636 3617 3498 3578 3606 3561 3493 3444 3531 3396 3542 3452 3422 3601 3478 3385 3483 3523 3482 3475 3486 3618 3472 3441 3384 3425 3510 3546 3396 3436 3506 3519 3434 3470 3422 3405 3440 3538 3435 3461 3519 3452 3480 3455 3432 3445 3469 3482 3381 3470 3368 3423 3475 3387 3425 3405 3383 3438 3490 3454 3339 3466 3374 3507 3488 3315 3382 3466 3490 3329 3483 3392 3440 3393 3392 3440 3506 3388 3588 3398 3459 3439 3478 3549 3468 3461 3501 3407 3569 3481 3409 3406 3522 3413 3441 3355 3486 3383 3559 3413 3401 3406 3403 3412 3338 3396 3398 3508 3353 3439 3412 3442 3392 3262 3368 3319 3378 3344 3312 3353 3432 3362 3405 3313 3415 3259 3315 3367 3328 3495 3497 3368 3377 3371 3500 3415 3273 3320 3389 3339 3339 3207 3363 3394 3368 3406 3419 3324 3313 3361 3321 3435 3347 3343 3318 3383 3325 3338 3318 3352 3340 3314 3365 3387 3393 3403 3295 3290 3377 3372 3291 3421 3356 3350 3397 3434 3382 3400 3414 3317 3357 3304 3264 3252 3409 3324 3231 3361 3259 3356 3522 3329 3322 3291 3416 3278 3342 3364 3242 3259 3393 3344 3259 3314 3350 3407 3406 3377 3306 3321 3329 3405 3193 3261 3347 3319 3404 3352 3305 3354 3410 3343 3304 3362 3358 3331 3363 3232 3329 3326 3236 3305 3297 3361 3248 3375 3209 3310 3221 3278 3237 3227 3280 3187 3215 3333 3217 3306 3242 3186 3329 3234 3206 3309 3314 3316 3288 3326 3314 3363 3201 3279 3193 3275 3314 3283 3268 3238 3226 3265 3247 3223 3266 3337 3177 3251 3264 3265 3281 3219 3188 3105 3236 3278 3343 3252 3303 3175 3246 3221 3132 3286 3252 3226 3317 3274 3254 3033 3179 3220 3199 3242 3194 3237 3219 3088 3246 3095 3195 3197 3125 3205 3246 3271 3151 3256 3148 3182 3141 3125 3212 3161 3096 3194 3114 3205 3096 3179 3153 3170 3124 3020 3173 3120 3194 3187 3125 3230 3227 3243 3183 3168 3029 3255 3111 3311 3142 3153 3161 3212 3014 3132 3162 3162 3075 3230 3128 3062 3177 3146 3144 3085 3228 3134 3129 3129 3027 3129 3146 3081 3153 3139 3047 3121 3077 3055 3206 3103 3217 3141 3193 3118 3066 3101 3162 3098 3152 3086 3119 3062 3103 3160 3156 3038 3164 3096 3084 3103 3008 3200 3085 3093 3105 3151 3197 3227 3163 3138 3189 3209 3194 3169 3140 3068 3214 3072 2998 3189 3157 3135 3136 3163 3110 3213 3259 3032 3129 3138 3109 3087 3129 3229 3120 3188 3125 3144 3102 3033 3146 3129 3035 3197 3172 3084 3137 3105 3127 3064 3284 3159 3157 3040 3152 3100 3067 3131 3103 3084 3197 3298 3104 3120 3116 3146 3187 3135 3093 3219 3165 3059 3086 3106 3178 3099 3133 3062 3132 3218 3182 3082 3082 3183 3110 3199 3190 3078 3080 3108 3054 3016 3105 3202 3147 3207 3084 3156 3080 3130 3174 3121 3135 3165 3146 3159 3048 3122 3123 3091 3187 3134 3166 3157 3177 3221 3224 3055 3187 3134 3060 3098 3094 3207 3070 3151 3171 3103 3147 3138 3128 3178 3084 3086 3110 3089 3175 3156 3098 3134 3154 3011 3111 3127 3097 3064 3072 2998 3009 3071 3030 3070 3123 3104 2968 2994 3015 3098 3203 3080 3046 2957 3035 3061 2982 2997 3064 2971 3088 2993 3087 3044 2942 2998 2990 3075 3060 3072 3034 2922 2895 2955 2978 2963 2878 2989 2999 2918 3047 2960 2905 2966 2919 2985 2916 2930 2873 2936 2862 2904 2888 2891 2948 2803 2882 2943 2887 2936 2935 2846 2817 2866 2838 2858 2788 2781 2922 2718 2800 2796 2800 2784 2910 2761 2789 2795 2767 2819 2842 2743 2774 2775 2700 2738 2816 2784 2742 2730 2864 2713 2709 2740 2660 2748 2647 2635 2688 2656 2650 2592 2797 2694 2753 2709 2716 2709 2564 2652 2703 2616 2701 2746 2693 2798 2627 2722 2600 2644 2635 2586 2525 2715 2603 2626 2513 2709 2607 2580 2517 2622 2540 2670 2667 2678 2642 2593 2545 2574 2535 2461 2572 2592 2536 2572 2569 2596 2599 2435 2595 2599 2627 2574 2530 2651 2593 2531 2580 2521 2569 2570 2507 2504 2464 2578 2480 2508 2431 2479 2456 2489 2550 2517 2492 2505 2500 2485 2618 2476 2562 2400 2576 2476 2506 2496 2449 2579 2452 2455 2525 2419 2456 2508 2435 2508 2471 2456 2505 2531 2526 2513 2446 2595 2540 2465 2497 2558 2505 2515 2475 2517 2515 2471 2485 2576 2522 2515 2422 2444 2462 2381 2421 2456 2400 2459 2471 2373 2412 2428 2375 2337 2361 2393 2450 2431 2510 2369 2440 2450 2412 2427 2453 2370 2477 2417 2352 2398 2482 2467 2424 2479 2484 2469 2393 2377 2507 2406 2419 2422 2413 2456 2521 2384 2344 2439 2332 2536 2376 2385 2425 2428 2389 2396 2430 2387 2477 2396 2325 2433 2367 2494 2483 2440 2427 2457 2480 2390 2517 2479 2538 2453 2446 2352 2477 2517 2542 2395 2435 2381 2460 2430 2422 2452 2463 2489 2380 2437 2437 2482 2435 2292 2440 2402 2352 2482 2393 2432 2416 2353 2475 2381 2435 2440 2411 2395 2448 2458 2461 2425 2426 2431 2431 2519 2459 2475 2428 2444 2480 2397 2491 2415 2421 2501 2425 2451 2424 2494 2439 2407 2490 2441 2430 2424 2500 2585 2360 2400 2388 2500 2455 2391 2461 2389 2448 2442 2479 2516 2532 2385 2434 2437 2422 2455 2345 2394 2450 2321 2470 2341 2393 2392 2417 2379 2387 2403 2430 2404 2368 2430 2427 2446 2404 2429 2434 2353 2280 2395 2408 2400 2272 2424 2367 2256 2332 2302 2408 2418 2438 2357 2391 2329 2370 2380 2356 2293 2274 2364 2290 2434 2257 2357 2267 2320 2311 2319 2347 2352 2308 2214 2233 2347 2237 2352 2285 2277 2256 2306 2306 2267 2260 2226 2340 2263 2294 2191 2297 2247 2206 2227 2216 2249 2236 2285 2168 2274 2279 2209 2228 2220 2250 2304 2287 2246 2344 2237 2355 2153 2246 2234 2190 2103 2142 2119 2107 2246 2181 2248 2186 2125 2190 2214 2174 2191 2105 2221 2136 2093 2120 2041 2205 2191 2151 2192 2121 2101 2207 2176 2128 2152 2180 2134 2160 2172 2085 2121 2138 2137 2159 2094 2124 2141 2054 2074 2060 2020 2156 2083 2087 2127 2096 2081 2131 2022 2144 2050 2107 2048 2059 2085 2046 2033 2169 2046 2091 2035 2133 2074 2090 2086 2039 2189 2061 2006 2085 2048 2105 2072 2131 2099 2118 2029 2058 2106 2097 1999 2042 2078 2014 2029 2086 2084 2169 2060 2170 2109 2114 2098 2127 2303 2292 2261 2295 2402 2545 2389 2558 2574 2614 2667 2742 2746 2819 2807 2729 2779 2729 2732 2575 2550 2636 2567 2504 2553 2425 2447 2378 2340 2343 2303 2382 2327 2218 2256 2166 2250 2254 2168 2177 2106 2159 2134 2077 2084 2121 2089 2120 2052 2050 2004 2049 2059 1963 2019 1934 2032 2055 2018 1994 2063 1935 2009 1924 1973 1949 1921 2048 1956 2014 1911 1987 2027 1999 1950 1910 1933 1936 1972 1902 1945 1922 1935 1925 1924 2041 1904 2063 1876 1903 1965 1829 1897 1859 1901 1958 1915 1871 1912 1921 1919 1995 1982 1977 1894 1986 1947 1990 1945 1913 1975 1944 1906 2016 2075 2027 2046 2133 2118 2188 2311 2299 2428 2572 2553 2613 2704 2855 3004 3196 3185 3096 3154 3261 3108 3153 3241 3191 3040 3025 2938 2803 2874 2645 2673 2673 2652 2621 2553 2568 2470 2491 2398 2447 2397 2327 2326 2153 2216 2156 2120 2171 2118 2159 1998 2049 2042 2005 1957 1930 1960 1934 1898 1964 1877 1916 1855 1882 1865 1909 1823 1952 1831 1963 1913 1855 1816 1860 1882 1859 1757 1813 1893 1915 1821 1889 1836 1808 1768 1791 1786 1818 1806 1802 1823 1774 1796 1798 1802 1730 1830 1814 1794 1752 1757 1750 1767 1772 1733 1772 1768 1690 1786 1831 1781 1765 1809 1731 1808 1726 1787 1809 1770 1784 1792 1766 1735 1757 1803 1816 1716 1752 1707 1775 1751 1727 1750 1758 1685 1802 1789 1726 1782 1770 1730 1799 1690 1783 1786 1727 1655 1747 1695 1802 1765 1789 1816 1775 1663 1742 1702 1701 1729 1722 1699 1733 1777 1739 1774 1701 1764 1714 1763 1724 1666 1642 1683 1794 1675 1667 1662 1632 1687 1623 1697 1740 1726 1676 1643 1785 1714 1686 1801 1655 1723 1725 1690 1705 1669 1683 1676 1656 1725 1683 1809 1680 1708 1689 1735 1590 1674 1706 1676 1716 1712 1659 1751 1660 1698 1636 1687 1715 1690 1730 1721 1686 1643 1695 1714 1807 1710 1808 1740 1644 1690 1712 1746 1699 1623 1741 1732 1681 1621 1698 1649 1664 1688 1748 1677 1704 1727 1601 1666 1730 1689 1733 1670 1729 1755 1752 1709 1788 1716 1818 1825 1765 1723 1763 1714 1837 1791 1785 1794 1822 1795 1785 1858 1870 1935 1802 1867 1928 1890 1911 2025 2065 2013 2019 2057 2170 2075 2049 2121 2152 2150 2135 2184 2199 2161 2158 2165 2167 2123 2142 2119 2158 2018 2038 2083 2129 2058 2045 2001 2018 2022 1970 1932 1918 2009 1880 2009 1865 1843 1851 1782 1818 1803 1782 1766 1845 1835 1773 1704 1776 1770 1740 1756 1734 1766 1742 1765 1755 1735 1727 1774 1787 1812 1844 1786 1744 1687 1797 1704 1825 1711 1689 1768 1843 1627 1719 1679 1621 1679 1684 1618 1671 1644 1630 1692 1704 1658 1696 1737 1697 1689 1700 1759 1656 1658 1786 1716 1746 1656 1642 1662 1693 1695 1684 1640 1669 1582 1621 1614 1697 1679 1676 1696 1694 1681 1674 1555 1690 1589 1580 1687 1696 1671 1656 1643 1667 1712 1719 1683 1732 1719 1693 1725 1717 1794 1742 1634 1727 1741 1684 1646 1755 1739 1663 1782 1736 1798 1784 1862 1837 1821 1952 1932 1956 1993 2101 2165 2285 2304 2395 2564 2784 2993 3224 3492 3706 4118 4506 5061 5368 5974 6166 6562 6503 6576 6626 6402 6503 6285 6087 5990 5660 5449 5248 5000 4701 4389 4224 3929 3816 3704 3512 3321 3358 3251 3146 2999 2974 2955 2857 2791 2809 2717 2611 2639 2570 2445 2334 2258 2245 2245 2220 2096 1993 1890 1973 1994 1914 1830 1854 1663 1757 1737 1729 1836 1810 1752 1724 1673 1746 1650 1726 1687 1749 1656 1716 1665 1711 1708 1729 1677 1711 1674 1650 1683 1592 1726 1740 1689 1711 1618 1634 1659 1646 1655 1643 1660 1609 1596 1615 1615 1689 1601 1573 1633 1612 1635 1585 1588 1626 1623 1580 1651 1629 1580 1592 1644 1599 1596 1680 1620 1606 1598 1535 1602 1653 1644 1613 1617 1563 1577 1569 1567 1585 1543 1675 1625 1611 1674 1657 1622 1611 1610 1700 1591 1619 1611 1606 1657 1611 1589 1587 1648 1650 1590 1555 1689 1653 1632 1639 1646 1643 1557 1589 1598 1598 1513 1637 1529 1619 1568 1551 1650 1554 1615 1589 1617 1486 1550 1577 1561 1569 1601 1649 1653 1540 1545 1580 1482 1520 1506 1507 1511 1605 1579 1509 1527 1500 1515 1488 1531 1519 1546 1521 1537 1473 1541 1449 1461 1520 1603 1485 1585 1497 1532 1464 1511 1509 1523 1548 1511 1566 1519 1545 1513 1500 1531 1490 1539 1572 1539 1551 1513 1471 1456 1575 1497 1509 1496 1485 1454 1464 1530 1471 1517 1507 1511 1426 1554 1428 1482 1508 1523 1436 1476 1428 1465 1527 1498 1518 1554 1542 1436 1491 1466 1460 1468 1500 1492 1523 1461 1461 1471 1540 1509 1472 1542 1534 1512 1489 1448 1461 1544 1455 1415 1489 1520 1468 1476 1540 1478 1467 1442 1453 1550 1413 1531 1542 1434 1523 1479 1471 1455 1505 1462 1538 1505 1552 1478 1550 1484 1572 1515 1603 1626 1584 1534 1497 1515 1532 1498 1505 1495 1505 1476 1490 1500 1526 1442 1515 1541 1491 1428 1545 1499 1480 1499 1473 1493 1521 1485 1449 1436 1400 1475 1409 1479 1450 1428 1517 1429 1431 1471 1403 1480 1419 1471 1415 1492 1499 1422 1496 1495 1484 1439 1391 1398 1417 1480 1440 1469 1398 1460 1390 1460 1467 1470 1394 1458 1425 1441 1399 1412 1411 1369 1412 1398 1450 1450 1406 1496 1359 1440 1402 1481 1430 1481 1501 1427 1509 1429 1451 1441 1443 1416 1510 1461 1463 1520 1482 1424 1506 1416 1398 1395 1486 1463 1428 1405 1392 1390 1403 1390 1465 1374 1445 1433 1447 1510 1402 1456 1492 1479 1431 1443 1480 1429 1433 1431 1407 1427 1407 1472 1401 1395 1382 1340 1431 1424 1419 1482 1382 1389 1394 1426 1436 1360 1393 1455 1343 1368 1416 1393 1383 1384 1415 1426 1407 1381 1387 1434 1397 1390 1457 1412 1438 1419 1358 1400 1372 1383 1419 1394 1306 1469 1437 1441 1388 1491 1350 1390 1431 1387 1410 1418 1489 1433 1365 1377 1404 1453 1484 1389 1465 1306 1406 1350 1454 1427 1472 1455 1388 1383 1402 1438 1425 1478 1389 1398 1346 1397 1422 1424 1402 1518 1357 1446 1421 1462 1404 1488 1384 1432 1370 1380 1387 1402 1484 1388 1421 1393 1396 1422 1394 1409 1346 1333 1295 1353 1364 1377 1389 1388 1384 1352 1382 1407 1332 1437 1359 1349 1303 1351 1451 1475 1380 1352 1378 1404 1362 1388 1376 1365 1352 1369 1351 1371 1400 1372 1444 1452 1357 1388 1318 1331 1384 1355 1462 1328 1362 1399 1387 1364 1409 1420 1411 1385 1368 1340 1316 1351 1353 1372 1427 1413 1384 1421 1396 1391 1325 1407 1421 1396 1460 1397 1349 1378 1417 1318 1303 1309 1308 1345 1392 1405 1368 1418 1394 1367 1378 1338 1396 1301 1345 1378 1412 1384 1362 1381 1361 1362 1437 1281 1339 1372 1339 1332 1340 1383 1419 1321 1324 1357 1351 1354 1354 1353 1270 1392 1393 1397 1359 1359 1258 1366 1365 1373 1376 1366 1369 1382 1387 1330 1368 1361 1308 1323 1365 1331 1279 1345 1349 1320 1349 1326 1368 1348 1349 1313 1356 1319 1344 1311 1353 1363 1402 1397 1393 1292 1356 1308 1422 1333 1344 1320 1445 1383 1374 1320 1365 1365 1311 1429 1295 1343 1342 1345 1370 1399 1319 1299 1379 1350 1417 1344 1359 1390 1312 1391 1301 1300 1425 1350 1348 1416 1404 1325 1321 1369 1302 1335 1421 1362 1364 1363 1355 1414 1414 1363 1424 1347 1312 1354 1257 1296 1251 1335 1359 1376 1363 1283 1346 1307 1374 1403 1336 1340 1309 1315 1347 1377 1346 1364 1370 1375 1347 1374 1372 1313 1385 1315 1378 1349 1289 1305 1381 1422 1317 1345 1358 1317 1420 1304 1377 1325 1352 1385 1314 1400 1295 1359 1306 1346 1316 1403 1392 1324 1359 1331 1363 1369 1372 1393 1371 1388 1382 1405 1389 1347 1315 1361 1301 1374 1422 1347 1339 1376 1357 1311 1331 1288 1280 1253 1266 1344 1388 1330 1360 1291 1345 1312 1264 1317 1320 1353 1393 1327 1376 1333 1287 1361 1340 1260 1361 1243 1373 1324 1324 1315 1324 1322 1358 1356 1354 1393 1361 1390 1354 1375 1315 1325 1365 1261 1340 1340 1400 1331 1400 1395 1330 1399 1336 1374 1337 1441 1377 1361 1413 1376 1401 1402 1395 1350 1376 1367 1305 1369 1395 1382 1391 1466 1366 1393 1401 1412 1334 1460 1415 1342 1402 1277 1401 1343 1411 1363 1443 1438 1341 1428 1339 1409 1386 1380 1356 1309 1327 1335 1323 1371 1344 1377 1374 1361 1324 1357 1326 1290 1375 1356 1393 1306 1348 1398 1340 1338 1395 1311 1400 1327 1318 1398 1344 1336 1316 1412 1327 1377 1286 1379 1381 1337 1284 1334 1349 1314 1370 1401 1302 1268 1300 1285 1268 1297 1314 1309 1301 1279 1278 1261 1319 1372 1371 1295 1331 1278 1314 1339 1322 1300 1338 1339 1345 1380 1311 1372 1411 1348 1439 1451 1461 1375 1505 1589 1587 1616 1622 1678 1666 1740 1704 1724 1721 1739 1765 1775 1728 1746 1745 1706 1717 1631 1672 1656 1588 1580 1562 1591 1525 1488 1420 1429 1391 1524 1416 1450 1385 1436 1368 1334 1395 1431 1422 1451 1420 1390 1350 1391 1314 1319 1387 1337 1375 1341 1321 1285 1333 1298 1232 1296 1373 1310 1321 1347 1379 1237 1317 1312 1259 1231 1310 1300 1293 1276 1193 1263 1234 1285 1366 1265 1288 1302 1309 1272 1252 1224 1279 1275 1289 1293 1209 1296 1218 1273 1226 1250 1238 1294 1332 1248 1322 1311 1322 1353 1267 1265 1316 1260 1346 1252 1297 1302 1263 1369 1282 1262 1299 1263 1263 1252 1248 1294 1342 1219 1295 1250 1231 1312 1221 1322 1314 1278 1320 1287 1208 1239 1254 1244 1250 1230 1271 1284 1222 1260 1247 1218 1316 1173 1271 1228 1283 1238 1267 1309 1214 1277 1221 1257 1248 1195 1288 1252 1311 1292 1309 1280 1205 1284 1304 1265 1247 1262 1260 1306 1311 1256 1300 1263 1300 1260 1281 1271 1246 1314 1250 1287 1267 1290 1338 1281 1262 1344 1268 1364 1228 1263 1239 1238 1207 1276 1284 1259 1197 1245 1234 1302 1281 1193 1301 1293 1212 1293 1271 1262 1210 1164 1226 1257 1167 1265 1242 1245 1234 1233 1232 1229 1263 1272 1312 1235 1246 1257 1192 1270 1217 1185 1188 1317 1298 1209 1269 1223 1291 1238 1324 1298 1247 1247 1277 1299 1219 1338 1306 1278 1270 1208 1309 1206 1294 1221 1258 1324 1261 1256 1269 1300 1238 1256 1288 1247 1244 1300 1210 1268 1274 1273 1289 1262 1317 1282 1330 1233 1316 1264 1190 1292 1202 1297 1208 1237 1283 1273 1222 1310 1255 1305 1242 1319 1261 1200 1280 1252 1264 1204 1262 1288 1285 1232 1250 1261 1232 1265 1292 1225 1233 1222 1223 1215 1237 1163 1300 1290 1292 1216 1263 1271 1333 1200 1337 1241 1283 1252 1194 1215 1219 1243 1265 1220 1271 1262 1196 1326 1285 1289 1316 1215 1286 1203 1239 1267 1195 1281 1238 1238 1270 1309 1260 1183 1261 1257 1349 1266 1259 1274 1264 1228 1331 1267 1330 1295 1290 1287 1283 1293 1276 1375 1299 1291 1354 1334 1296 1408 1285 1360 1345 1395 1329 1362 1464 1439 1446 1590 1648 1655 1787 1915 2070 2176 2311 2461 2621 2713 2742 2897 2911 2935 2978 3082 3057 2997 2979 3014 2904 2911 2908 2877 2811 2652 2705 2550 2618 2507 2329 2333 2142 2106 2103 2143 1991 1943 1889 1934 1765 1830 1772 1736 1726 1733 1727 1645 1651 1627 1654 1612 1592 1662 1546 1593 1529 1511 1506 1536 1462 1435 1431 1421 1387 1408 1371 1290 1347 1384 1373 1389 1373 1468 1323 1269 1375 1351 1310 1298 1269 1240 1307 1248 1280 1212 1257 1294 1297 1269 1274 1254 1341 1377 1246 1256 1259 1261 1273 1251 1296 1352 1297 1319 1287 1234 1331 1246 1273 1307 1303 1329 1282 1308 1301 1322 1295 1248 1295 1274 1226 1274 1272 1183 1255 1286 1300 1223 1267 1259 1247 1221 1266 1257 1242 1256 1260 1182 1214 1300 1278 1295 1189 1185 1242 1294 1321 1251 1257 1230 1297 1338 1236 1287 1271 1255 1271 1222 1295 1199 1201 1245 1259 1242 1257 1285 1260 1218 1258 1203 1274 1292 1214 1245 1209 1254 1228 1274 1175 1185 1218 1261 1206 1193 1227 1232 1245 1210 1176 1186 1232 1182 1279 1253 1206 1239 1178 1230 1201 1143 1267 1200 1166 1180 1161 1230 1271 1222 1224 1096 1196 1263 1192 1227 1181 1201 1177 1260 1246 1158 1261 1235 1200 1207 1241 1255 1207 1244 1303 1342 1312 1395 1402 1394 1360 1353 1426 1359 1463 1383 1312 1475 1381 1450 1404 1409 1434 1371 1380 1375 1392 1304 1319 1331 1339 1275 1351 1315 1331 1327 1233 1262 1323 1306 1253 1166 1283 1232 1215 1214 1217 1265 1232 1197 1177 1295 1260 1212 1146 1216 1227 1230 1186 1218 1192 1254 1221 1292 1178 1235 1169 1259 1225 1195 1186 1217 1134 1166 1189 1237 1183 1190 1134 1171 1187 1163 1112 1188 1193 1154 1241 1160 1175 1240 1101 1199 1229 1167 1182 1216 1185 1194 1143 1162 1214 1160 1175 1229 1148 1163 1132 1241 1205 1229 1172 1197 1184 1194 1170 1236 1237 1196 1237 1220 1218 1158 1214 1191 1170 1192 1233 1205 1187 1217 1163 1175 1190 1109 1186 1192 1219 1173 1197 1199 1119 1141 1163 1174 1265 1218 1165 1176 1130 1188 1157 1146 1176 1158 1192 1225 1139 1169 1148 1263 1182 1104 1187 1197 1218 1177 1175 1126 1182 1181 1194 1167 1161 1169 1151 1147 1182 1112 1202 1215 1142 1173 1146 1146 1176 1117 1130 1137 1124 1133 1158 1204 1154 1184 1165 1186 1181 1141 1167 1131 1177 1136 1194 1213 1152 1196 1192 1232 1170 1217 1171 1105 1125 1205 1223 1202 1118 1146 1171 1095 1179 1140 1142 1137 1178 1132 1131 1129 1184 1147 1159 1265 1184 1168 1187 1214 1178 1218 1167 1147 1171 1197 1110 1139 1099 1130 1163 1148 1134 1087 1109 1174 1223 1132 1131 1188 1158 1201 1113 1139 1180 1168 1140 1124 1155 1118 1159 1177 1174 1113 1156 1161 1113 1160 1123 1192 1150 1117 1151 1058 1130 1162 1136 1139 1130 1188 1099 1131 1180 1156 1138 1210 1109 1164 1162 1153 1152 1140 1137 1139 1168 1090 1128 1114 1165 1120 1110 1125 1184 1135 1171 1173 1152 1124 1165 1093 1108 1112 1109 1147 1190 1131 1102 1166 1094 1070 1160 1172 1128 1209 1153 1150 1041 1195 1112 1171 1095 1178 1103 1147 1105 1061 1120 1107 1159 1155 1158 1192 1156 1103 1157 1139 1091 1128 1136 1155 1153 1093 1164 1191 1164 1086 1134 1144 1119 1054 1164 1099 1115 1116 1125 1175 1102 1143 1124 1113 1116 1076 1092 1167 1072 1111 1140 1105 1143 1111 1086 1146 1105 1157 1196 1080 1120 1090 1095 1159 1108 1123 1123 1134 1121 1083 1112 1133 1137 1114 1167 1115 1141 1117 1136 1057 1131 1145 1088 1146 1155 1072 1160 1133 1169 1108 1116 1124 1141 1091 1073 1130 1146 1102 1136 1150 1211 1134 1081 1101 1091 1104 1108 1118 1076 1111 1099 1100 1149 1080 1084 1125 1118 1145 1137 1135 1085 1112 1093 1073 1115 1127 1099 1094 1159 1075 1119 1123 1146 1120 1127 1138 1132 1175 1113 1105 1102 1087 1101 1161 1134 1165 1152 1079 1067 1112 1183 1076 1069 1084 1120 1105 1120 1063 1123 1135 1118 1135 1141 1121 1051 1080 1177 1126 1114 1132 1100 1127 1071 1088 1104 1106 1123 1092 1111 1080 1149 1097 1068 1087 1145 1096 1086 1164 1085 1111 1126 1138 1101 1147 1133 1050 1120 1122 1132 1100 1131 1091 1122 1093 1099 1120 1166 1178 1180 1151 1064 1111 1156 1082 1161 1064 1130 1068 1105 1106 1118 1172 1122 1107 1102 1120 1106 1110 1158 1081 1080 1077 1081 1083 1116 1078 1105 1138 1139 1121 1140 1125 1104 1184 1139 1099 1156 1177 1170 1119 1144 1154 1136 1143 1149 1165 1215 1106 1153 1179 1157 1190 1176 1137 1101 1134 1114 1097 1149 1129 1205 1094 1055 1083 1150 1111 1129 1106 1178 1117 1143 1144 1101 1126 1151 1074 1131 1122 1103 1122 1104 1113 1076 1092 1151 1190 1180 1136 1148 1183 1168 1195 1133 1170 1167 1220 1141 1190 1171 1180 1251 1307 1223 1260 1237 1251 1239 1279 1259 1268 1254 1256 1250 1291 1274 1266 1302 1234 1262 1285 1304 1273 1235 1257 1242 1267 1188 1145 1144 1185 1174 1118 1179 1170 1202 1123 1077 1160 1148 1082 1063 1168 1113 1115 1181 1125 1170 1175 1125 1157 1144 1110 1107 1178 1172 1061 1135 1194 1173 1173 1141 1177 1176 1103 1137 1111 1088 1094 1079 1136 1099 1088 1104 1133 1110 1129 1148 1146 1115 1028 1040 1069 1062 1138 1108 1152 1092 1073 1123 1145 1137 1040 1097 1072 1072 1153 1075 1114 1084 1102 1117 1049 1057 1032 1104 1022 1039 1062 1039 1131 1057 1037 1117 1029 1075 1068 1059 1078 1073 1066 1034 1079 1109 1059 1061 1053 1062 1061 1069 1109 1103 1128 1083 1015 1131 1115 1105 1100 1038 1103 1059 1067 1084 1081 1094 1072 1129 1069 1077 1074 1039 1045 1068 1120 1123 1086 1082 1062 1074 1133 1035 1122 1090 1021 1139 1090 1064 1118 1081 1027 1110 1080 1115 998 1058 1061 1025 1021 1105 1041 1100 1086 1075 1107 1126 1096 1047 1077 1051 1174 1058 1102 1141 1100 1096 1060 1175 1065 1103 1177 1084 1075 1084 1065 1039 1090 1045 1113 1094 1112 1092 1091 1055 1072 1113 1184 1056 1150 1140 1056 1092 1096 1099 1053 1038 1172 1059 1089 1092 1170 1060 1107 1065 1077 1107 1061 1110 1079 1124 1147 1105 1082 1110 1069 1150 1074 1152 1103 1054 1127 1115 1148 1133 1086 1135 1139 1114 1131 1109 1120 1103 1146 1155 1220 1294 1271 1288 1377 1435 1480 1464 1418 1457 1421 1482 1416 1436 1325 1500 1455 1485 1454 1356 1407 1494 1368 1454 1411 1405 1379 1377 1287 1324 1322 1249 1338 1181 1216 1199 1220 1208 1207 1244 1107 1173 1105 1190 1157 1103 1138 1046 1126 1137 1136 1110 1135 1074 1112 1174 1158 1154 1076 1201 1141 1104 1159 1087 1154 1066 1058 1072 1068 1107 1050 1126 1133 1082 1078 1076 1081 1129 1091 1177 1044 1131 1061 1054 1069 1104 1000 1105 1067 1114 1121 1059 1091 1059 1036 1068 1113 1039 1069 1106 1094 1062 1083 1068 1104 1098 1052 1071 1099 1026 1072 1117 1085 1059 1063 1054 1038 1088 1024 1000 1084 1107 1014 1095 1075 1012 1030 1097 1019 1091 1088 1049 1075 1062 1083 1019 1078 1054 1022 1082 1016 1055 1064 1054 1116 1098 1082 1112 1075 1100 1107 1143 1023 1079 1058 1076 1082 1034 1056 1033 1081 1065 1079 1001 1031 1118 1058 1031 1052 1058 1064 1091 1086 1093 1101 1052 1064 1022 1049 1035 1072 1047 1086 1077 1134 1054 1010 1090 1092 1059 1099 1042 1078 1122 1120 1056 1033 1103 1083 1101 1101 1164 1116 1115 1135 1134 1127 1156 1255 1117 1168 1142 1155 1151 1114 1098 1150 1176 1118 1113 1110 1153 1106 1164 1071 1102 1079 1081 1146 1058 1122 1066 1028 1012 1080 1079 1116 1066 1027 1049 1052 1049 1091 1077 1084 1075 1065 1079 1020 1062 1073 1081 1041 1089 1062 1084 1065 1058 1078 1148 1051 1069 1020 1034 1038 983 1009 1077 1051 1017 992 1061 1001 1081 1039 1029 1060 998 1067 1063 1060 992 992 1030 1036 1056 1030 1018 1022 1019 1030 1026 1024 1012 987 1010 1043 1056 1018 1006 1028 1051 978 967 1020 1029 1068 1086 1012 1062 1012 1038 1045 1011 1042 1055 1028 1064 1080 1072 1027 1079 1080 1001 989 1046 987 1043 999 1032 1024 1051 1055 1056 1000 1011 1104 1067 983 1003 1065 987 987 1028 1019 1044 973 1031 1047 1086 1043 1008 985 1040 1031 1092 970 1077 1010 1017 1058 1029 1052 1044 1019 1034 1061 1010 1016 1020 1091 1054 1032 996 978 1038 1005 985 1090 1011 1031 977 1034 1067 962 1018 1051 1069 975 999 1031 1032 1036 1020 997 1026 963 987 1016 1006 984 1055 1031 1094 1019 976 1004 1043 1049 1016 1059 992 999 987 1051 999 1022 1062 1000 1042 976 1015 1002 1033 1020 1032 1030 957 989 1052 1061 1026 1020 997 1059 1019 1049 1068 1019 1030 1036 1006 1019 1072 1064 1058 1034 1008 1021 957 1026 1049 979 1088 1020 973 1006 998 1029 1023 1037 1017 1040 1012 998 1013 993 1071 1049 1102 1008 1002 1004 1015 1011 994 1002 1065 1064 964 1019 958 986 1018 1066 1011 1081 957 1035 1018 964 1026 1027 1038 1018 1009 998 1048 1028 1039 1042 973 1023 1041 1020 1070 1040 982 1027 985 1044 1042 1032 994 982 982 981 985 1016 1015 967 1040 990 990 990 1007 1015 1078 1102 976 1010 1088 1031 1030 1050 987 994 955 997 983 1084 1045 1030 995 1016 1030 1073 1008 992 1054 1049 1005 1033 970 1035 1039 1010 968 982 975 1001 998 945 1059 1014 1007 954 1040 1087 954 1025 1041 1030 972 1020 1002 1040 994 983 1015 1031 1051 982 1009 1039 1067 940 1034 1034 999 1023 984 1051 1007 1015 990 954 1046 954 991 990 996 1023 1042 1019 1010 980 1020 1023 1066 1038 1027 1008 1059 1023 1014 988 1020 1007 1033 1047 1011 993 973 1013 1025 968 974 1025 1017 1080 1041 1051 1048 1008 1033 981 1002 999 1015 966 1068 1043 1004 1025 1068 1052 1091 1091 957 1043 1029 933 974 1039 1035 1053 1002 996 1012 990 998 1063 1033 1074 970 1032 988 982 1025 1024 966 1010 1040 1079 1037 1024 1024 970 985 984 989 902 996 1025 1051 1016 1020 1009 1055 980 1041 1000 1006 1017 941 998 1015 1013 1037 1035 1035 1048 1036 1063 1052 1054 976 1090 1040 1104 1104 1071 1064 1055 1081 1057 1027 1073 1001 1051 1029 1041 1065 1086 1064 1045 1086 1041 1041 1001 1044 1072 1053 1076 1036 1050 1028 1086 1048 984 1027 1055 1004 1028 1019 972 1017 962 1007 959 1042 1018 981 1023 1002 1043 1064 1033 987 1027 997 994 1020 1047 1012 1051 983 994 1043 977 982 1007 1017 1036 995 1014 1003 1023 974 1043 988 1010 953 1023 998 972 1051 963 1005 958 1016 1018 1065 949 976 1002 971 1020 1100 986 1035 1051 1031 1009 1021 1013 953 1010 993 1030 942 1014 987 1026 934 975 988 1024 983 997 1037 961 951 1024 1007 995 991 989 1026 970 966 1039 983 935 985 978 956 931 1006 1017 976 946 969 1040 997 985 992 938 980 996 1016 991 974 982 937 1039 906 968 1012 1021 1050 987 948 950 938 1010 1000 944 1019 965 975 949 981 982 998 953 970 962 1011 979 985 966 986 1044 968 927 921 1042 1036 984 979 985 1001 1056 1029 990 943 931 940 995 955 1012 945 992 981 973 928 963 982 954 1034 972 986 981 1007 1026 1015 981 958 974 1078 989 965 1007 1000 986 995 955 991 1038 941 912 999 966 1004 942 1001 997 950 977 958 996 1065 909 967 956 963 975 1021 984 1016 949 1001 986 947 1016 989 1030 995 974 981 997 988 944 1054 973 965 920 1016 998 1028 965 987 993 992 935 1029 969 1001 966 968 967 932 1042 985 913 1015 1030 964 1001 996 961 1007 1013 1007 980 1002 1030 1065 980 981 1015 1007 1021 1042 1040 1054 1011 1119 997 1068 1140 1109 1086 1083 1133 1179 1186 1152 1179 1183 1116 1197 1124 1102 1136 1151 1112 1150 1098 1090 1136 1102 1127 1110 1128 1129 1120 1086 1125 1087 1082 1122 1075 1049 1073 1066 1031 1075 1041 979 1026 1064 1017 972 1029 1015 965 1007 1031 1022 1015 1066 993 1096 1006 1057 1021 1034 1020 1004 1059 1011 1030 999 1050 1006 991 1035 1002 997 992 1066 985 1019 957 1058 968 944 1008 1017 977 1012 1004 1024 997 970 988 1000 954 958 1018 949 974 1001 1030 961 960 985 1055 1009 1005 939 989 1054 962 1002 988 928 965 1018 1021 1004 999 1011 994 996 1034 971 984 1040 941 937 960 949 1020 1003 980 1017 979 955 998 962 977 973 954 971 947 979 1011 989 955 999 1036 968 946 950 967 994 949 1014 960 959 1033 966 957 964 953 936 958 949 920 939 962 986 959 948 975 962 994 988 941 1027 1009 921 975 966 965 978 954 1005 955 941 928 938 1003 1012 1000 969 929 988 973 982 1022 987 1044 1054 1032 1009 996 949 950 943 1030 878 984 976 997 1031 1041 968 945 971 924 960 933 927 982 969 961 983 975 984 934 1008 1031 981 969 982 972 953 1002 942 1003 954 991 1048 941 966 968 946 1002 964 953 968 950 958 1030 999 981 948 946 953 947 985 984 974 955 1006 1010 912 989 989 943 930 981 946 1002 929 941 952 984 950 976 1005 939 964 963 974 971 958 957 974 929 982 1005 975 999 931 936 943 945 966 989 940 969 917 966 994 935 934 984 961 954 951 963 1013 1040 963 945 954 989 955 928 963 1007 1012 948 976 994 994 928 961 955 1013 1013 999 1011 972 990 919 1003 1018 937 957 993 956 921 939 940 954 1021 959 941 983 950 978 962 971 936 1008 991 960 950 960 931 919 947 980 901 914 1008 980 920 953 995 971 946 947 948 964 979 896 923 974 985 975 952 1016 988 943 966 942 961 938 982 959 944 912 996 1003 933 969 968 953 943 928 962 944 990 948 931 947 983 990 928 936 950 921 940 1001 947 976 1000 999 993 1006 971 1037 917 928 969 999 1021 959 934 939 953 1003 990 1002 926 991 963 903 940 936 928 996 1005 997 1028 948 974 999 962 961 981 938 1018 1003 966 984 998 978 968 974 970 952 960 994 1024 981 946 1034 964 1032 1005 976 959 980 943 969 897 987 960 971 929 965 941 953 1006 1009 896 967 973 979 958 988 912 972 1024 965 1002 984 911 932 887 1009 947 995 960 975 979 978 1010 931 984 937 1018 961 959 955 1041 1024 999 960 1002 971 913 1015 1017 967 966 932 963 1034 950 978 964 945 982 934 931 978 947 986 924 927 951 930 997 999 1020 978 979 968 1064 980 897 961 1042 912 975 974 956 1014 932 908 977 952 939 929 953 935 941 1012 968 947 992 942 1022 956 901 960 940 977 990 989 976 997 979 927 947 1007 951 971 992 995 992 979 987 946 950 951 999 1032 938 955 939 1002 961 955 903 962 982 974 969 929 1022 973 975 1026 1022 975 953 940 891 995 980 983 967 950 965 942 972 954 918 976 904 1002 953 944 1017 946 955 921 993 930 982 1009 950 966 1006 991 913 994 953 993 990 975 989 968 981 1008 996 979 1054 1044 1060 987 970 960 1050 985 969 1035 973 999 991 1017 1021 977 1066 988 994 1002 869 1006 995 1051 1015 982 978 967 1059 992 967 995 967 938 998 1033 959 980 958 1044 970 991 963 1020 993 962 1005 957 1006 979 981 971 957 946 991 1031 1007 940 1028 1006 1024 1017 1026 977 994 1047 1023 991 964 1077 1023 1056 1080 943 1032 977 995 1041 1019 1012 1042 973 997 1010 1010 984 1038 988 988 953 933 1003 1001 1000 960 947 1022 1004 1029 1023 1009 946 957 982 934 996 990 991 1072 984 1032 1044 957 944 982 993 971 983 948 941 962 973 968 996 981 973 980 982 973 1036 929 942 971 1078 961 1007 976 961 976 978 955 1012 939 983 1020 1014 991 997 992 964 970 1004 945 928 970 1000 998 934 965 904 924 975 930 984 911 1060 967 949 979 942 995 985 946 959 969 977 904 977 1039 939 968 988 996 962 945 992 956 962 953 976 1022 915 890 937 958 986 939 971 959 1010 953 980 973 913 1006 954 985 919 920 956 1018 961 930 981 969 974 979 982 962 959 945 996 998 996 1014 965 938 928 996 1028 1004 891 1013 1030 960 942 1013 1003 1015 928 979 1000 1005 940 982 928 979 1002 971 1007 1018 951 955 1042 975 921 975 933 979 979 937 979 958 1003 983 1046 988 1005 991 919 1005 978 958 972 969 1022 1011 935 1010 961 1059 1021 994 1046 1029 1035 1079 1056 1029 1077 1055 1048 1034 1095 1109 1125 1170 1208 1229 1196 1284 1309 1192 1182 1160 1210 1209 1233 1155 1195 1187 1195 1207 1221 1160 1206 1150 1150 1199 1223 1167 1178 1234 1162 1173 1158 1120 1128 1151 1069 1109 1070 1054 1128 1093 1099 1100 1052 1035 1093 991 1049 1008 1059 1056 1107 1054 1016 1038 1023 992 995 960 1040 1054 955 1025 977 1061 1001 975 992 964 960 1021 949 1026 1000 1021 1023 1009 1028 1023 1008 986 943 951 1004 1027 1000 986 999 1012 1020 977 938 963 999 1000 989 960 976 1006 1036 1017 975 1000 998 1000 1003 980 1033 986 961 928 1006 986 964 951 956 940 969 1034 1005 928 941 941 1036 986 968 968 948 990 983 962 1003 939 990 992 969 974 982 975 985 941 944 1020 929 944 984 997 940 998 931 962 923 958 932 932 916 934 1003 1030 959 894 956 1004 992 989 1015 961 923 932 926 950 954 993 952 930 980 926 1009 967 980 999 1011 985 988 995 986 981 970 968 1006 943 974 940 1032 951 957 946 986 937 1002 977 944 975 985 977 962 995 974 975 948 1016 968 963 958 990 973 933 947 928 1031 977 983 949 1011 933 899 916 945 928 971 938 953 976 895 921 921 964 1000 999 926 918 905 931 1013 992 981 953 884 967 950 881 927 970 946 945 966 962 971 898 963 952 928 934 955 889 906 945 881 997 950 952 916 941 938 932 951 928 920 940 975 1019 925 919 950 989 944 1024 888 966 922 930 952 909 958 902 945 950 943 920 982 877 959 925 931 900 940 903 930 927 927 884 985 920 923 905 961 926 905 891 960 902 923 981 950 923 887 932 964 946 965 913 945 909 891 878 918 967 927 937 948 928 893 955 930 894 962 992 920 911 932 946 928 922 982 900 948 962 931 945 965 916 956 911 949 910 930 991 904 976 991 922 933 932 918 929 914 953 926 960 938 979 925 946 931 964 971 930 932 964 909 903 989 931 939 925 950 930 899 947 868 937 953 938 931 947 929 970 921 983 894 936 948 883 952 888 924 930 965 953 936 927 939 929 923 950 978 913 928 935 961 880 860 874 913 886 888 946 931 946 971 988 931 890 948 939 972 908 905 894 998 950 978 904 957 975 958 898 933 917 868 912 953 940 939 937 864 942 946 931 951 937 889 916 877 932 950 947 956 909 934 893 933 917 964 945 932 887 926 900 946 950 936 915 913 961 916 973 929 933 954 917 917 936 937 908 910 935 985 934 881 881 981 974 948 932 922 890 931 963 933 944 919 996 922 960 989 902 891 912 895 949 902 875 921 943 944 979 911 912 898 954 926 941 946 912 911 970 903 893 890 929 959 899 956 964 907 899 900 932 898 929 939 939 864 917 867 908 901 953 949 917 967 944 938 922 903 893 929 902 884 915 924 952 953 942 967 900 990 943 929 945 902 865 935 965 933 894 916 938 982 866 884 927 999 897 860 929 875 960 935 956 913 928 893 958 927 918 973 922 893 936 892 939 928 1011 894 929 945 928 972 920 946 980 929 887 943 950 926 942 970 948 943 964 956 961 894 956 969 970 959 970 1023 936 945 918 987 908 980 950 921 955 899 942 959 938 991 952 1030 957 965 931 954 934 993 992 912 952 944 961 917 911 931 910 919 942 928 915 978 1018 911 908 908 897 980 959 943 960 894 972 879 930 933 914 959 926 923 911 925 942 854 931 939 895 956 963 945 876 949 936 933 896 931 903 868 944 866 962 950 944 971 913 954 934 927 877 870 882 879 908 894 869 892 905 915 934 934 925 902 915 937 870 940 913 897 923 902 909 914 918 903 908 922 947 892 1000 949 950 905 914 897 878 916 937 883 904 966 928 929 908 974 944 903 904 931 908 889 870 949 902 908 972 895 973 891 940 946 904 914 840 927 922 884 938 899 939 927 885 938 972 889 899 919 885 936 894 927 881 889 894 919 972 882 959 919 852 883 896 901 958 920 917 914 878 923 886 853 853 912 903 935 947 889 898 848 879 851 941 913 861 876 982 922 959 920 892 918 908 976 917 905 885 868 884 902 903 928 938 919 958 935 909 878 962 904 871 934 878 914 892 903 940 936 909 904 937 907 899 915 886 934 870 888 936 913 886 906 911 960 912 956 928 924 983 927 859 904 920 918 906 940 920 938 890 904 996 936 929 987 951 1013 980 926 992 950 922 980 964 969 979 1014 1003 1000 1015 987 1092 1051 1083 1096 1118 1120 1112 1134 1079 1018 1060 1011 1040 1030 1056 1060 1077 1086 1038 1021 993 994 983 992 1057 1072 1038 1019 1061 1045 1014 1002 1059 1023 1038 1074 980 1014 1043 984 990 1039 997 978 962 965 971 1009 1020 964 959 972 971 976 986 998 940 967 916 884 948 963 927 948 950 934 938 938 903 871 871 959 956 898 945 885 903 952 951 923 878 861 884 906 974 961 884 908 889 927 929 946 912 988 895 969 927 927 904 942 894 939 893 912 992 961 954 966 964 926 958 907 908 926 908 903 867 864 925 961 920 902 902 928 921 947 914 968 951 902 907 906 942 908 929 920 911 900 857 936 886 876 926 930 934 908 923 844 895 879 946 964 941 927 902 898 919 851 893 907 917 885 938 905 907 910 866 881 886 938 909 921 897 900 899 886 931 809 905 884 954 962 940 913 885 907 990 837 917 887 926 882 972 922 952 881 903 914 921 882 885 836 902 897 892 881 855 885 965 901 927 918 936 894 941 936 907 925 902 905 916 943 869 931 951 901 915 904 918 916 909 897 906 887 826 909 917 919 877 887 859 923 899 897 904 896 881 883 921 910 882 922 941 909 938 851 944 890 899 854 896 903 856 833 898 883 875 902 910 945 890 895 901 858 909 893 904 887 875 908 893 892 857 907 920 898 895 885 949 882 879 917 870 883 916 915 884 904 878 869 910 849 896 872 857 872 884 906 910 923 860 966 905 923 913 910 928 878 883 874 923 876 978 903 910 843 863 873 872 860 883 900 913 923 886 917 913 900 938 865 908 876 907 920 907 883 901 806 921 886 954 907 896 818 795 884 944 923 926 931 863 948 931 908 939 920 930 932 890 919 902 899 909 908 922 848 850 891 852 904 892 877 832 874 876 932 858 869 902 874 907 889 878 890 891 898 909 860 919 873 902 893 898 896 913 870 871 892 940 887 928 930 865 953 861 919 827 889 858 852 907 907 860 869 901 883 862 888 919 893 889 895 914 869 909 874 937 895 938 926 920 889 902 839 832 888 907 918 904 869 931 914 866 863 880 894 874 880 941 883 925 851 851 905 879 859 903 919 913 883 844 859 839 935 861 948 835 850 852 912 875 896 891 862 897 884 904 930 916 827 865 900 858 930 872 846 888 879 894 852 893 919 914 898 886 895 884 901 935 836 881 889 926 841 924 905 888 894 909 925 922 891 899 883 861 833 892 874 874 871 863 867 916 895 915 901 886 879 901 937 876 917 953 904 896 858 886 889 927 876 902 888 938 837 838 907 870 924 931 874 923 936 883 846 887 877 870 860 898 883 882 844 852 916 906 869 843 884 861 898 934 879 880 912 902 903 920 933 885 867 879 882 888 880 917 889 909 882 922 889 873 923 887 868 902 885 873 846 923 846 850 907 916 961 830 928 877 885 897 903 831 887 880 946</counts>
			</dataPoints>
		</scan>
	</xrdMeasurement>
</xrdMeasurements>
