<?xml version="1.0"?>
<xrdMeasurements xmlns="http://www.xrdml.com/XRDMeasurement/2.3" xmlns:xsi="http://www.w3.org/2001/XMLSchema-instance" xsi:schemaLocation="http://www.xrdml.com/XRDMeasurement/2.3 http://www.xrdml.com/XRDMeasurement/2.3/XRDMeasurement.xsd" status="Completed" recordIdentifier="{EC550B24-EF97-42C7-8DA5-2FD1D6BD71EC}">
	<comment>
		<entry/>
	</comment>
	<sample type="To be analyzed">
		<id>GPSS_Li1p60Mn0p90V0p15Bi0p05Cl4_112425_69248ac4f4e53d1f723993d4</id>
		<name></name>
		<preparedBy></preparedBy>
	</sample>
	<xrdMeasurement measurementType="Scan" status="Completed" sampleMode="Reflection">
		<usedWavelength intended="K-Alpha 1">
			<kAlpha1 unit="Angstrom">1.5405980</kAlpha1>
			<kAlpha2 unit="Angstrom">1.5444260</kAlpha2>
			<kBeta unit="Angstrom">1.3922500</kBeta>
			<ratioKAlpha2KAlpha1>0.5000</ratioKAlpha2KAlpha1>
		</usedWavelength>
		<incidentBeamPath>
			<radius unit="mm">145.00</radius>
			<xRayTube id="1010048" name="Empyrean Cu LFF HR (9430 033 7310x)">
				<tension unit="kV">40.0</tension>
				<current unit="mA">15.0</current>
				<anodeMaterial>Cu</anodeMaterial>
				<focus type="Line">
					<length unit="mm">12.0</length>
					<width unit="mm">0.4</width>
					<takeOffAngle unit="deg">6.0</takeOffAngle>
				</focus>
			</xRayTube>
			<sollerSlit id="21010002" name="Soller slits 0.04 rad.">
				<opening unit="rad">0.0400</opening>
			</sollerSlit>
			<mask id="22031000" name="Fixed mask 13 mm">
				<width unit="mm">9.00</width>
			</mask>
			<divergenceSlit id="22120001" name="Divergence slit 1°" xsi:type="fixedDivergenceSlitType">
				<distanceToSample unit="mm">50.00</distanceToSample>
				<height unit="mm">1.52</height>
			</divergenceSlit>
		</incidentBeamPath>
		<sampleMovement xsi:type="spinningSampleMovementType">
			<spinnerRevolutionTime unit="seconds">1.0</spinnerRevolutionTime>
		</sampleMovement>
		<diffractedBeamPath>
			<radius unit="mm">145.00</radius>
			<antiScatterSlit id="22090040" name="AS slit 9 mm (PIXcel)" xsi:type="fixedAntiScatterSlitType">
				<height unit="mm">9.00</height>
			</antiScatterSlit>
			<sollerSlit id="21020003" name="Large Soller slits 0.04 rad.">
				<opening unit="rad">0.0400</opening>
			</sollerSlit>
			<filter id="20030001" name="Large beta-filter Nickel">
				<material>Ni</material>
				<thickness unit="mm">0.020</thickness>
			</filter>
			<detector id="7010019" name="PIXcel1D-Medipix3 detector" xsi:type="rtmsDetectorType">
				<phd unit="keV">
					<lowerLevel>4.02</lowerLevel>
					<upperLevel>11.27</upperLevel>
				</phd>
				<mode>Scanning</mode>
				<activeLength unit="deg">5.542</activeLength>
			</detector>
		</diffractedBeamPath>
		<scan appendNumber="0" mode="Continuous" scanAxis="Gonio" status="Completed">
			<header>
				<startTimeStamp>2025-11-27T11:21:14-08:00</startTimeStamp>
				<endTimeStamp>2025-11-27T11:29:22-08:00</endTimeStamp>
				<author>
					<name>AutomatedUser</name>
				</author>
				<source>
					<applicationSoftware version="1.7b (136)">PANalytical Aeris Instrument Suite</applicationSoftware>
					<instrumentControlSoftware version="3.2.00000000 20240306">AERIS</instrumentControlSoftware>
					<instrumentID>950485</instrumentID>
				</source>
			</header>
			<dataPoints>
				<positions axis="2Theta" unit="deg">
					<startPosition>10.00943322</startPosition>
					<endPosition>99.99442286</endPosition>
				</positions>
				<positions axis="Omega" unit="deg">
					<startPosition>5.00471661</startPosition>
					<endPosition>49.99721143</endPosition>
				</positions>
				<commonCountingTime unit="seconds">12.495</commonCountingTime>
				<counts unit="counts">2973 2948 2868 2917 2925 2863 2985 2897 2897 3076 2897 2880 2903 2865 2969 2992 3052 2961 2965 2930 3062 2880 2906 2970 2816 3054 3064 2916 2995 3015 2960 3030 3050 2957 3066 2959 2963 3009 3094 2842 2891 2982 2921 3047 3061 2923 3031 2973 2915 2979 2966 2995 2934 2973 2964 3085 2984 2931 2978 3092 3036 3019 3010 2957 3035 2905 3034 2937 3099 3078 2994 3067 3026 3027 3108 3140 3048 3027 3038 3088 3018 3015 3050 2998 3106 2991 2967 3191 3115 3080 3111 3133 3066 3034 3249 3093 2995 3133 3092 3087 3125 3090 3079 3154 3136 3082 3157 3239 3161 3053 3050 3112 3157 3027 3165 3135 3190 3065 3130 3071 3114 3111 3322 3231 3246 3094 3227 3016 3123 3226 3153 3058 3064 3071 3215 3228 3185 3244 3224 3186 3137 3190 3238 3195 3189 3259 3160 3184 3193 3156 3136 3147 3093 3048 3161 3188 3227 3134 3247 3174 3110 3113 3130 3162 3142 3175 3067 3293 3247 3229 3303 3184 3241 3165 3193 3104 3218 3167 3217 3199 3145 3193 3078 3159 3174 3073 3181 3105 3149 3136 3249 3112 3246 3126 3140 3151 3086 3176 3070 3311 3101 3179 3101 3251 3054 3200 3244 3159 3183 3068 3179 3172 3210 3142 3135 3159 3126 3129 3141 3142 3144 3161 3098 3132 3223 3235 3115 3126 3215 3170 3109 3130 3167 3081 3186 3098 3114 3155 3122 3068 3009 3055 3219 3038 3024 2937 3109 3130 3208 3135 3159 3046 3209 3046 3148 3096 2980 3062 3046 3075 3052 3050 2956 3064 2985 3074 2998 3030 3090 2995 3029 3031 3012 3019 3053 2957 3057 2985 3033 3065 3052 3042 2978 2989 3150 2929 3072 2984 3062 2895 2969 2985 2881 2953 2975 2969 3073 3150 2933 3042 2982 2980 2982 2962 2957 2890 3037 2956 3043 3064 2919 3079 3031 3017 3070 3085 3004 3013 3033 3011 3166 2962 2969 3055 3034 3023 3121 3028 3011 2916 2949 3103 3056 3023 3127 3068 3139 3202 3100 2990 3059 3200 3110 3089 3104 3192 3142 3079 3164 3122 3108 3127 3121 3129 3139 3087 3161 3123 3249 3141 3134 3185 3262 3114 3227 3093 3210 3144 3116 3222 3257 3159 3192 3191 3094 3294 3190 3284 3236 3301 3246 3248 3300 3196 3281 3254 3175 3208 3300 3196 3275 3346 3204 3364 3383 3431 3304 3351 3277 3354 3329 3306 3336 3461 3534 3344 3355 3503 3492 3637 3537 3437 3518 3607 3654 3658 3712 3609 3609 3695 3675 3593 3623 3712 3729 3650 3637 3611 3502 3733 3706 3576 3750 3642 3530 3675 3715 3586 3681 3662 3776 3650 3802 3778 3744 3753 3855 3820 3858 3881 3942 3844 3826 3842 4107 3867 4056 4043 3974 4122 4061 3900 4129 3977 4072 3906 3844 3973 3906 3823 3889 3833 3949 3823 3765 3799 3749 3887 3779 3832 3721 3772 3819 3786 3881 3721 3686 3755 3721 3786 3730 3712 3654 3728 3628 3772 3697 3840 3714 3689 3583 3639 3754 3577 3671 3539 3566 3503 3607 3443 3535 3432 3472 3459 3532 3492 3426 3422 3525 3356 3494 3443 3325 3429 3381 3283 3336 3276 3224 3335 3272 3248 3254 3198 3228 3109 3202 3127 3158 3174 3260 3092 3199 3118 3143 3218 3076 3210 3081 3093 3084 3121 3200 3084 3131 3008 3010 3077 3096 3086 3116 3002 3080 3075 3033 3066 3131 3017 3053 3042 2971 3049 3080 3001 2873 2963 3031 3021 2900 2967 2995 2953 3035 2923 2945 2995 2789 2957 2928 3011 2800 2909 2931 2902 2890 3072 2994 2972 2907 2908 2940 2965 2917 2919 2928 2928 2969 2877 2932 2813 2832 2913 2756 2922 2895 2953 2849 2981 2830 2839 2928 2922 2876 2873 2796 2886 2770 2824 2899 2868 2918 2923 2898 2875 2818 2812 2895 2907 2852 2912 2859 2822 2817 2856 2876 2886 2849 2844 2854 2834 2938 2779 2770 2754 2813 2753 2821 2900 2799 2803 2781 2810 2837 2689 2837 2755 2866 2798 2752 2820 2826 2825 2874 2864 2762 2726 2859 2745 2910 2826 2812 2864 2784 2780 2753 2797 2955 2772 2809 2769 2771 2802 2720 2879 2831 2930 2795 2814 2796 2798 2826 2787 2804 2696 2702 2736 2750 2759 2796 2740 2747 2744 2750 2753 2720 2832 2768 2779 2820 2805 2765 2760 2785 2795 2821 2715 2713 2718 2682 2769 2705 2859 2742 2791 2764 2722 2736 2831 2706 2788 2687 2693 2662 2709 2724 2725 2692 2744 2700 2745 2736 2768 2832 2660 2747 2614 2629 2786 2668 2665 2818 2688 2751 2704 2713 2702 2743 2687 2712 2660 2725 2753 2767 2570 2684 2646 2750 2678 2781 2731 2635 2734 2691 2652 2747 2629 2671 2639 2671 2775 2650 2722 2647 2617 2615 2635 2679 2713 2637 2645 2657 2729 2686 2629 2723 2735 2787 2625 2685 2720 2695 2572 2606 2680 2691 2645 2703 2628 2685 2589 2629 2633 2674 2606 2704 2644 2631 2643 2632 2800 2666 2601 2663 2598 2676 2693 2700 2667 2619 2605 2677 2587 2543 2596 2611 2612 2618 2651 2712 2633 2583 2594 2659 2605 2573 2629 2718 2688 2600 2560 2741 2698 2650 2622 2648 2562 2624 2626 2602 2654 2548 2586 2533 2643 2582 2761 2665 2694 2707 2634 2588 2572 2587 2606 2662 2521 2615 2592 2692 2617 2557 2600 2544 2591 2591 2635 2663 2683 2639 2614 2564 2594 2631 2530 2614 2643 2538 2577 2509 2524 2502 2638 2626 2619 2599 2524 2635 2631 2522 2597 2610 2554 2547 2499 2474 2592 2444 2575 2536 2556 2507 2443 2515 2504 2589 2503 2529 2514 2544 2614 2540 2490 2525 2485 2612 2526 2454 2498 2578 2497 2504 2487 2482 2515 2515 2598 2546 2451 2496 2436 2417 2433 2474 2521 2569 2562 2538 2436 2586 2406 2485 2512 2540 2396 2315 2416 2486 2459 2453 2439 2469 2559 2513 2520 2466 2399 2434 2493 2518 2530 2475 2439 2383 2454 2484 2418 2391 2354 2442 2494 2443 2444 2470 2381 2435 2440 2435 2537 2391 2533 2504 2424 2492 2429 2544 2417 2406 2490 2446 2432 2541 2544 2435 2516 2542 2439 2527 2474 2468 2490 2434 2515 2410 2360 2492 2473 2495 2456 2460 2533 2529 2304 2442 2589 2481 2514 2467 2524 2423 2500 2479 2505 2452 2444 2481 2410 2504 2536 2387 2467 2442 2458 2471 2376 2545 2469 2448 2465 2429 2422 2482 2489 2538 2545 2500 2503 2467 2591 2529 2607 2610 2496 2484 2485 2464 2440 2491 2485 2506 2443 2534 2449 2376 2563 2444 2406 2534 2423 2393 2490 2547 2407 2474 2464 2402 2509 2433 2426 2460 2413 2440 2407 2441 2420 2411 2369 2518 2524 2450 2426 2484 2403 2435 2480 2433 2437 2428 2381 2448 2383 2419 2328 2350 2393 2571 2450 2456 2412 2426 2436 2412 2385 2419 2301 2387 2350 2442 2455 2424 2401 2447 2462 2411 2310 2339 2346 2347 2337 2332 2393 2378 2307 2310 2358 2279 2303 2327 2427 2381 2264 2318 2285 2325 2243 2311 2271 2278 2293 2294 2320 2226 2290 2235 2239 2220 2241 2297 2223 2191 2167 2281 2244 2205 2234 2260 2193 2262 2199 2201 2257 2231 2265 2289 2095 2237 2134 2176 2101 2230 2131 2267 2205 2152 2076 2237 2161 2245 2134 2109 2136 2227 2117 2145 2097 2054 2098 2090 2137 2106 2046 2105 2060 1961 2058 2019 1998 2140 2095 2083 2099 2089 2010 2074 2074 2130 2012 2030 2008 2036 2008 2088 2093 2030 2026 1990 2063 2004 2047 1914 2003 2044 2033 2058 2009 1960 2044 1975 1951 1924 1968 1942 1883 2016 1933 1964 1941 1838 1983 1911 1911 1978 1825 1961 1963 1872 1952 1929 1890 1877 1895 1910 1911 1914 1897 1903 1866 1919 1899 1973 1905 1887 1900 1871 1950 1948 1845 1859 1882 1826 1912 1874 1942 1898 1884 1868 1877 1851 1883 1841 1831 1839 1876 1852 1870 1890 1868 1840 1827 1974 1794 1838 1912 1825 1837 1842 1813 1909 1862 1809 1813 1811 1814 1914 1683 1766 1808 1821 1874 1953 1730 1821 1811 1872 1795 1831 1863 1778 1840 1835 1848 1841 1785 1821 1858 1865 1905 1802 1824 1840 1852 1840 1911 1820 1863 1834 1862 1882 1886 1799 1842 1786 1817 1794 1910 1822 1796 1895 1873 1812 1788 1782 1823 1825 1810 1768 1844 1751 1762 1837 1800 1841 1727 1796 1772 1907 1887 1813 1831 1866 1799 1802 1724 1826 1840 1809 1809 1751 1713 1765 1858 1776 1847 1760 1790 1858 1800 1839 1736 1763 1844 1832 1772 1870 1747 1850 1759 1827 1778 1791 1800 1707 1810 1821 1789 1720 1710 1829 1766 1732 1760 1825 1892 1832 1852 1736 1800 1759 1763 1790 1779 1774 1758 1798 1724 1841 1757 1801 1811 1841 1775 1726 1821 1779 1760 1830 1754 1791 1706 1843 1794 1829 1746 1833 1767 1856 1809 1695 1770 1845 1765 1718 1774 1872 1734 1766 1743 1769 1794 1776 1783 1830 1795 1792 1862 1737 1811 1751 1823 1767 1757 1770 1784 1750 1687 1752 1750 1817 1728 1869 1820 1780 1785 1725 1814 1684 1778 1771 1838 1781 1824 1773 1727 1694 1760 1739 1701 1719 1715 1748 1729 1798 1769 1705 1708 1726 1719 1736 1735 1811 1698 1747 1697 1730 1690 1718 1732 1694 1692 1669 1740 1659 1715 1667 1767 1765 1653 1707 1666 1757 1647 1690 1705 1673 1648 1634 1729 1602 1693 1677 1667 1674 1653 1831 1604 1597 1626 1617 1635 1703 1681 1659 1725 1641 1652 1605 1648 1624 1634 1614 1571 1598 1643 1562 1592 1565 1586 1703 1538 1583 1594 1592 1666 1555 1621 1563 1604 1568 1532 1584 1525 1562 1589 1628 1577 1556 1586 1598 1583 1450 1557 1588 1608 1548 1500 1627 1549 1596 1591 1561 1563 1557 1550 1535 1589 1611 1569 1415 1597 1635 1575 1594 1598 1654 1615 1699 1715 1745 1790 1842 1814 1791 1962 1954 2087 1979 2007 2084 1975 2057 2025 2057 1991 2032 1924 1914 1952 1908 1852 1795 1700 1798 1714 1733 1647 1727 1771 1662 1656 1727 1716 1627 1668 1665 1600 1652 1666 1632 1669 1692 1709 1615 1723 1691 1687 1734 1704 1719 1709 1733 1705 1774 1740 1598 1678 1621 1636 1644 1605 1581 1523 1616 1576 1628 1537 1641 1543 1588 1517 1499 1548 1551 1511 1467 1440 1445 1439 1441 1471 1495 1450 1482 1410 1468 1377 1409 1365 1355 1416 1340 1385 1405 1358 1411 1412 1390 1359 1398 1346 1358 1431 1350 1386 1388 1395 1366 1347 1375 1438 1484 1468 1368 1484 1499 1518 1497 1497 1629 1656 1630 1718 1774 1802 1892 1881 2022 2051 2040 2036 2039 2020 2073 1979 2016 2042 2045 1941 1918 1940 1843 1841 1803 1779 1747 1679 1809 1714 1682 1717 1608 1751 1738 1725 1753 1740 1777 1837 1824 2030 1959 2064 2151 2092 2082 2222 2280 2244 2352 2339 2340 2503 2366 2440 2315 2297 2298 2268 2205 2085 2074 2052 2131 2011 2000 2002 1888 1768 1823 1779 1744 1789 1739 1632 1727 1677 1681 1731 1690 1628 1767 1653 1632 1674 1753 1591 1650 1670 1741 1716 1612 1652 1664 1695 1611 1626 1586 1653 1579 1514 1582 1524 1520 1573 1520 1511 1542 1474 1426 1446 1329 1372 1379 1370 1358 1338 1358 1325 1322 1261 1320 1338 1312 1307 1260 1309 1243 1200 1295 1285 1296 1295 1260 1233 1195 1209 1212 1216 1170 1237 1208 1257 1188 1176 1203 1124 1167 1223 1198 1157 1179 1197 1103 1208 1200 1190 1194 1173 1162 1167 1137 1153 1115 1163 1137 1146 1201 1280 1188 1177 1149 1159 1112 1213 1108 1216 1188 1170 1138 1147 1114 1199 1129 1106 1156 1163 1094 1155 1119 1160 1113 1157 1111 1137 1145 1105 1189 1148 1140 1096 1172 1113 1157 1099 1180 1115 1131 1103 1149 1005 1162 1145 1130 1151 1032 1133 1090 1109 1098 1096 1134 1078 1146 1114 1123 1113 1040 1134 1095 1104 1050 1081 1172 1209 1048 1126 1083 1117 1074 1082 1083 1109 1198 1108 1086 1165 1111 1099 1095 1132 1107 1151 1200 1072 1154 1119 1175 1160 1151 1110 1106 1167 1210 1117 1136 1062 1171 1095 1123 1129 1137 1153 1183 1134 1158 1125 1134 1126 1154 1088 1143 1100 1155 1144 1169 1111 1119 1141 1141 1116 1140 1056 1123 1083 1165 1134 1160 1094 1117 1130 1108 1106 1144 1103 1145 1067 1071 1067 1099 1126 1075 1105 1150 1162 1096 1100 1057 1099 1078 1103 1158 1100 1054 1107 1085 1156 1076 1094 1069 1114 1063 1117 1094 1102 1021 1097 1130 1116 1121 1080 1073 1051 1077 1058 1047 1137 1066 1115 1082 1037 1102 1062 1100 1119 1040 1091 1038 1054 1120 1061 1055 1084 1133 1088 1098 1050 1103 1120 1066 1103 1086 1182 1102 1103 1159 1133 1148 1130 1128 1066 1163 1134 1121 1167 1068 1161 1123 1065 1100 1117 1177 1119 1138 1153 1152 1178 1207 1149 1148 1122 1176 1158 1093 1233 1117 1195 1134 1230 1103 1229 1222 1173 1208 1276 1253 1348 1261 1323 1245 1344 1374 1348 1386 1520 1560 1567 1646 1706 1772 1861 1908 1986 2115 2156 2209 2357 2521 2510 2746 2676 2773 2942 2787 2930 2823 2922 2788 2737 2726 2869 2622 2743 2597 2596 2647 2530 2550 2389 2409 2443 2549 2581 2631 2581 2675 2794 2850 2983 2950 3110 3148 3141 3064 3329 3232 3412 3436 3281 3345 3282 3246 3252 3230 3206 3123 3167 3086 3026 3133 3021 2996 2969 2946 2906 2815 2919 2871 2808 2785 2773 2631 2660 2645 2544 2514 2398 2414 2338 2341 2394 2307 2272 2245 2173 2164 2086 2003 2068 1941 1922 2037 1988 1938 1932 1911 1903 1807 1835 1830 1783 1795 1840 1767 1791 1756 1643 1720 1630 1587 1597 1544 1627 1514 1526 1406 1434 1426 1471 1367 1321 1320 1341 1290 1264 1222 1244 1212 1167 1177 1210 1151 1142 1122 1145 1109 1080 1088 1118 1110 1074 1101 1109 1070 1076 1075 1118 1038 1062 1045 1010 1022 1037 1015 998 1026 1030 996 1002 1001 968 993 996 1014 1053 1014 1010 1008 1006 1026 985 927 1023 1009 1059 972 1038 984 1048 974 988 1025 986 957 995 995 1053 984 1042 972 1035 1068 957 988 963 953 998 1003 971 949 922 1013 990 946 1024 1044 1022 934 995 905 991 952 993 924 929 968 909 948 978 964 1022 1004 953 1002 952 939 949 1017 955 997 960 974 952 941 902 1000 955 979 933 965 942 943 1006 1000 944 948 926 1002 915 994 943 981 963 991 959 990 949 981 949 964 932 975 986 968 1024 1010 974 963 1042 950 940 949 950 895 918 985 968 948 973 937 978 974 918 977 1016 903 932 938 959 1011 915 975 970 975 986 916 953 916 967 978 1005 948 1027 1008 952 965 965 1022 991 907 943 966 933 1023 1017 934 965 924 968 968 1060 892 920 949 934 899 915 942 909 946 917 961 956 1009 976 932 961 1004 994 1012 1039 1036 1014 1003 1041 1047 1019 1034 1029 1019 1061 1109 1039 1063 1110 1105 1117 989 1123 1051 1046 1052 1097 1058 977 1054 1040 1045 990 997 1022 972 1024 928 967 995 983 942 912 1012 981 941 988 953 980 949 1004 933 1014 979 952 941 940 991 964 921 933 923 963 974 979 926 871 941 956 951 949 944 944 923 976 927 939 928 878 896 904 882 924 937 859 860 871 857 919 931 933 892 904 908 898 902 945 920 931 909 845 958 874 889 930 925 899 929 904 854 927 904 939 940 892 922 905 901 874 899 909 897 926 922 937 908 876 935 854 958 901 920 949 891 889 968 933 924 891 919 931 939 863 927 908 890 915 954 883 874 892 898 954 961 898 964 902 930 862 926 885 879 879 838 868 867 887 869 893 926 878 916 918 914 888 869 898 843 870 888 833 865 891 863 907 811 827 900 920 815 850 921 850 886 820 878 905 862 837 882 821 812 813 888 816 859 855 823 839 919 846 828 869 809 832 832 839 884 832 846 872 838 856 871 894 845 858 844 842 880 822 821 819 878 878 818 891 862 824 865 868 832 832 855 823 817 828 901 831 863 816 836 812 847 847 833 789 810 877 889 831 873 852 814 847 825 879 877 852 829 867 816 838 852 853 813 840 852 844 808 858 800 849 828 833 824 801 814 841 849 802 861 821 860 800 807 835 883 879 875 886 827 820 854 861 859 846 860 870 841 842 844 893 851 789 869 838 791 842 887 835 792 827 838 884 806 836 840 838 822 844 814 868 826 848 816 867 829 856 851 854 821 803 831 858 825 838 863 798 856 849 891 833 821 842 847 814 836 828 782 796 805 839 854 858 831 798 778 802 821 860 817 839 830 850 801 785 801 769 871 821 829 868 765 818 853 849 796 826 848 800 844 850 858 817 853 778 870 832 799 854 811 798 816 856 830 891 906 802 822 841 800 839 802 790 839 808 845 824 808 829 802 833 862 796 805 795 755 840 764 846 796 837 825 824 789 810 818 869 789 811 864 812 873 860 875 785 823 804 847 825 809 854 800 869 794 835 839 802 894 812 802 856 767 768 859 811 836 818 823 824 826 793 826 815 769 788 795 863 835 795 818 806 827 772 813 836 875 814 826 855 787 774 851 847 811 789 850 807 754 829 861 828 801 800 778 830 822 817 809 782 819 815 801 823 846 829 813 830 814 788 822 814 753 776 862 842 815 787 841 818 752 839 866 798 811 838 805 763 784 797 836 811 793 771 792 743 824 805 795 807 820 768 800 819 765 845 779 853 829 819 839 799 824 818 792 792 791 765 816 825 892 795 819 835 849 843 848 828 822 829 819 833 829 857 847 784 762 783 830 852 799 805 823 833 820 807 830 815 778 860 784 741 795 783 780 768 801 803 808 799 844 804 827 773 857 826 877 818 852 844 835 826 838 835 853 810 808 768 843 809 852 798 857 833 855 826 856 844 848 860 902 867 862 841 892 885 851 836 865 863 873 898 887 949 949 921 968 916 971 935 1048 963 962 965 974 1011 995 971 958 974 912 926 953 955 964 883 889 927 955 941 920 878 879 911 910 908 906 856 887 865 920 922 914 872 917 848 850 905 846 945 861 910 937 871 863 969 819 869 841 912 884 907 868 925 886 905 958 933 876 904 937 900 866 876 857 864 911 879 900 870 851 894 844 872 888 879 927 932 890 935 931 937 921 948 951 946 932 974 865 916 937 880 867 949 897 835 892 898 877 906 893 839 908 850 849 881 805 864 844 851 840 862 864 859 835 823 852 824 816 797 879 817 845 806 848 868 915 812 838 793 837 845 893 805 867 873 856 819 812 860 827 831 842 814 819 798 815 795 784 794 809 801 818 736 752 845 820 806 819 788 780 767 795 796 795 803 839 783 826 818 789 823 791 764 820 776 837 819 805 845 795 812 778 801 853 827 793 774 815 813 828 822 821 826 800 843 811 807 832 783 820 847 788 846 831 867 842 802 811 794 799 807 804 837 848 806 811 807 782 810 814 812 826 812 809 799 812 884 866 878 758 880 824 842 883 809 818 816 809 804 818 808 815 842 835 828 841 863 880 832 827 778 831 776 775 816 809 788 769 875 771 843 789 819 796 795 861 774 818 844 812 799 821 825 812 811 790 851 799 824 788 815 793 789 761 811 810 800 823 788 753 807 750 856 838 785 758 832 821 803 784 781 793 796 821 846 808 853 773 783 805 825 752 776 783 820 799 829 788 836 826 822 767 818 833 784 798 829 783 793 862 805 806 764 839 778 802 755 804 851 863 769 814 827 854 826 802 835 806 754 791 866 793 832 869 846 876 870 876 845 901 897 921 896 1017 996 976 965 1018 1045 1109 1081 1159 1274 1274 1397 1368 1501 1646 1607 1647 1682 1748 1845 1857 1962 1988 1992 2078 2118 2115 2062 2205 2121 2224 2175 2117 2053 2131 2040 2040 1874 1988 1936 1931 1787 1813 1761 1729 1662 1639 1661 1628 1589 1560 1511 1489 1436 1503 1489 1497 1476 1440 1507 1458 1518 1434 1426 1358 1427 1447 1376 1387 1454 1344 1382 1288 1294 1341 1320 1347 1261 1318 1294 1305 1286 1339 1354 1261 1319 1269 1204 1316 1279 1259 1267 1304 1230 1339 1332 1304 1335 1320 1331 1302 1261 1333 1334 1310 1304 1267 1307 1301 1360 1347 1327 1267 1292 1268 1309 1252 1283 1222 1265 1310 1306 1365 1364 1406 1407 1351 1353 1325 1302 1305 1268 1362 1284 1269 1255 1282 1230 1293 1176 1236 1205 1107 1187 1109 1121 1129 1029 992 1050 1017 1034 1044 958 998 938 982 1000 968 932 944 935 885 926 913 993 915 884 897 870 891 848 892 860 855 859 818 849 869 845 882 873 878 865 858 776 815 825 776 833 833 772 788 777 810 791 822 846 812 804 796 763 752 798 757 768 748 808 742 760 759 783 759 826 768 776 787 740 793 742 739 781 774 740 807 795 788 780 802 789 772 822 794 747 749 778 826 862 808 853 841 806 850 871 932 899 933 934 897 969 948 954 955 958 1007 1039 1034 1005 949 963 1023 1036 1055 1045 1001 1014 996 946 978 893 920 930 898 923 910 841 856 872 807 864 848 886 806 878 865 848 854 825 838 835 803 798 827 850 781 825 793 847 813 813 856 812 784 905 760 785 771 777 734 764 832 739 774 786 758 762 801 788 758 749 792 766 765 698 751 772 802 756 772 756 798 747 784 773 789 759 760 735 742 710 750 756 743 717 759 757 726 728 709 751 752 697 754 784 754 767 750 745 736 695 733 704 763 746 697 734 756 766 755 742 686 712 751 738 737 737 755 691 713 691 717 692 770 737 737 753 714 755 715 755 732 760 678 745 776 714 767 689 794 733 718 743 693 701 679 722 704 733 688 732 751 702 738 717 707 713 703 663 702 715 731 717 672 754 725 671 715 714 673 727 732 734 721 708 708 652 695 694 692 716 686 682 701 720 731 661 746 704 729 690 680 698 735 719 787 705 653 718 733 678 699 678 680 691 728 739 687 754 719 640 684 726 710 684 705 720 722 672 700 714 736 690 682 680 695 699 702 725 728 747 738 686 731 685 683 728 711 737 662 749 685 724 689 717 725 710 720 665 677 663 693 722 651 690 709 695 678 701 743 714 688 706 661 713 678 724 686 737 708 679 679 681 696 715 712 703 711 679 683 757 664 735 749 687 710 732 721 705 728 685 700 707 714 681 713 693 678 659 682 693 785 670 674 694 674 707 714 683 645 654 684 698 715 701 712 636 687 681 756 726 697 710 711 715 657 735 660 655 670 603 704 652 674 677 723 653 694 646 653 692 700 720 689 691 688 646 703 679 683 659 650 717 672 672 712 683 629 679 644 676 599 699 678 692 694 655 676 672 692 683 683 669 672 697 723 684 680 710 684 713 699 712 690 693 685 734 694 616 724 671 641 765 665 706 688 675 714 644 709 684 704 672 652 687 656 644 710 653 711 655 674 672 652 669 643 710 720 654 634 707 674 659 700 683 683 703 647 738 702 675 675 641 715 710 649 718 694 679 676 687 673 693 652 710 632 722 733 675 691 653 687 674 661 660 734 669 713 721 615 650 655 684 708 725 690 698 699 698 716 723 645 679 645 671 677 708 681 687 655 733 708 663 695 692 718 699 713 739 646 674 682 686 671 660 701 647 669 698 677 689 669 648 705 678 680 686 709 632 649 760 649 702 686 631 671 698 681 649 684 666 704 674 660 644 673 688 681 708 713 720 710 693 734 778 656 736 662 722 755 703 718 715 705 728 762 743 786 711 721 723 723 756 743 634 729 698 743 705 748 693 711 662 705 709 706 720 677 654 706 715 696 698 687 723 746 646 715 711 726 737 709 738 716 667 705 763 751 712 729 719 674 726 695 706 721 723 694 698 681 701 708 725 742 788 737 739 737 769 729 783 794 728 770 811 751 746 830 744 829 783 823 769 828 840 793 804 793 816 787 751 828 712 774 784 799 750 759 751 760 742 810 776 763 754 752 756 761 775 796 735 751 721 705 759 767 776 764 732 759 699 778 695 814 753 748 776 748 694 796 740 662 737 724 735 752 758 756 737 743 734 747 728 718 722 756 763 753 733 769 813 770 740 772 677 769 726 763 752 832 755 789 791 816 775 795 753 749 769 817 869 820 792 790 816 771 809 802 805 808 819 818 838 827 817 818 868 822 817 806 781 807 813 800 816 800 793 782 823 699 741 777 719 758 738 796 762 742 753 711 774 722 744 730 703 735 702 692 750 704 756 681 698 676 684 687 721 672 650 688 715 698 663 679 673 665 656 678 645 671 660 700 675 669 699 683 716 695 672 634 691 699 694 687 642 675 701 680 613 668 685 676 634 649 658 675 674 651 627 682 681 681 637 678 664 644 604 657 682 662 626 681 688 623 691 685 684 661 639 653 671 628 674 678 714 686 632 630 636 672 693 700 687 677 684 605 669 649 691 635 660 705 650 691 672 691 703 649 699 727 713 724 771 743 730 730 737 726 745 766 733 779 800 806 812 823 825 882 921 946 892 945 935 990 967 972 987 1014 965 985 1020 1031 988 1005 1040 989 1008 988 1009 1001 956 1028 1007 961 987 948 925 1020 961 977 898 954 956 938 844 888 917 904 879 879 801 835 844 819 804 814 784 793 852 843 768 793 760 779 732 771 771 771 740 755 724 742 784 730 701 746 732 715 776 752 741 701 730 661 698 747 737 714 709 750 727 773 725 735 737 774 729 698 766 761 735 726 809 765 792 760 781 735 797 765 734 782 789 791 752 790 741 753 757 746 738 752 743 763 747 729 722 734 762 743 740 775 738 736 711 673 724 704 691 722 731 698 750 708 726 687 702 693 691 666 685 703 680 718 671 640 715 640 694 678 635 690 702 658 689 735 686 661 704 692 679 652 649 657 682 669 659 673 683 653 666 674 730 678 679 647 667 648 684 702 670 669 633 661 660 655 701 714 713 714 709 666 723 722 676 719 709 707 770 673 724 772 785 671 760 711 741 777 807 762 757 745 739 792 722 733 721 761 755 696 715 778 731 716 678 711 753 745 695 674 744 686 675 688 730 663 695 705 685 695 699 660 689 662 636 669 733 727 701 692 670 631 673 670 696 635 656 635 657 650 669 672 685 712 650 729 668 666 656 704 645 691 650 648 691 655 678 662 618 696 651 633 679 648 697 643 629 607 694 652 681 683 612 687 613 649 663 682 618 648 659 646 651 637 586 679 660 678 632 680 589 705 633 633 624 662 601 676 654 650 610 646 611 689 658 643 636 624 656 642 649 633 682 636 649 672 631 643 617 707 658 671 681 611 616 670 640 659 633 601 637 615 624 629 667 664 650 654 658 653 633 723 610 608 625 686 632 663 617 702 654 616 694 686 678 708 632 649 669 624 652 656 664 658 641 624 653 647 632 683 686 654 619 626 704 625 641 649 641 583 637 638 641 633 659 632 639 639 599 583 641 675 667 653 616 612 582 578 646 665 630 575 631 598 609 677 596 645 617 645 641 664 645 615 674 624 632 592 670 682 664 668 596 651 609 633 651 598 635 618 624 627 648 638 584 677 607 616 611 650 647 597 600 620 628 584 612 648 613 650 603 617 615 668 676 648 602 617 597 659 586 628 619 596 632 630 627 612 616 662 644 646 632 598 647 588 604 633 596 626 625 604 662 596 638 638 632 659 596 618 633 642 620 581 663 608 616 622 646 602 626 601 609 591 624 660 637 650 579 623 676 591 631 615 620 609 610 621 637 639 609 621 593 649 615 578 591 635 552 670 623 652 606 606 603 596 614 642 639 567 633 573 607 624 639 609 624 633 587 580 618 635 605 634 604 645 577 607 615 650 652 622 614 617 664 618 617 622 610 594 610 560 599 647 639 631 550 623 605 635 626 640 614 609 613 618 619 606 573 637 627 642 628 620 626 602 606 599 589 648 621 610 596 637 598 605 592 630 583 600 637 611 623 625 601 604 637 575 616 619 634 649 615 615 650 637 648 610 675 635 578 586 557 601 626 634 636 622 658 595 619 635 656 590 659 639 605 607 598 573 624 645 663 573 676 631 655 624 596 631 667 655 658 636 559 589 605 645 649 637 636 636 647 648 706 675 631 664 666 679 653 671 666 643 609 654 661 597 631 642 653 662 662 681 615 660 652 639 635 661 641 668 644 678 582 640 684 629 570 629 621 611 615 601 663 671 643 574 632 565 599 602 628 649 616 583 631 694 613 596 617 641 640 655 630 590 630 591 653 652 665 599 648 621 695 673 633 678 654 614 650 672 622 659 601 634 598 589 608 649 618 619 649 620 649 614 627 627 594 635 588 615 660 670 601 656 641 650 599 639 645 597 628 651 638 629 622 657 613 615 634 609 627 613 606 653 597 597 625 626 615 631 644 625 610 588 619 608 607 605 661 616 578 607 581 597 557 621 621 591 632 608 605 591 566 645 618 646 637 627 603 603 576 617 600 606 595 621 586 588 604 600 622 642 602 581 596 603 620 633 600 591 593 580 598 621 612 608 605 592 583 598 618 580 614 633 607 630 588 591 622 628 632 586 561 649 616 628 600 618 615 625 619 607 563 585 605 626 613 593 575 611 635 595 629 606 573 575 604 598 589 621 635 610 584 623 591 644 592 583 585 591 616 598 647 593 578 553 629 612 608 636 566 578 592 581 625 633 642 602 598 562 576 631 636 576 569 587 600 652 655 602 612 604 631 598 613 655 661 654 643 636 647 565 586 635 620 641 615 672 657 675 651 658 629 667 668 665 671 656 689 675 678 657 686 649 639 631 681 656 690 735 722 701 733 715 678 710 643 678 727 606 695 717 707 728 718 663 663 694 664 676 682 689 692 650 649 686 642 653 653 721 639 662 687 681 658 664 650 675 658 704 653 671 636 681 709 622 688 620 630 627 640 694 670 620 663 653 604 669 647 654 595 695 680 715 655 686 666 650 698 676 704 687 673 676 710 689 635 680 664 657 720 680 669 665 683 623 669 720 660 627 640 629 695 629 653 643 693 677 634 656 689 614 651 666 677 667 645 659 667 640 650 659 649 690 666 648 648 652 619 646 695 628 645 663 659 663 663 615 682 637 670 632 594 626 609 606 647 635 603 635 651 632 597 633 656 600 656 679 630 612 592 608 654 645 634 639 660 604 644 637 612 601 626 643 571 617 620 656 591 580 627 614 630 600 596 619 583 611 648 613 615 586 588 577 581 594 641 630 621 584 606 596 624 624 593 583 636 595 586 550 612 618 625 585 628 616 579 633 623 588 597 646 605 625 608 604 606 597 602 609 642 583 578 567 631 592 627 605 598 630 586 626 569 608 575 595 625 623 583 566 602 656 583 641 594 613 600 620 614 590 633 578 581 651 544 575 642 582 562 574 628 592 597 600 611 585 580 564 551 583 589 617 601 603 598 604 583 579 620 567 575 560 606 624 540 613 556 564 591 620 619 552 610 599 611 608 601 578 574 564 629 609 637 623 581 543 569 587 592 588 568 588 622 603 581 570 621 583 660 553 623 596 588 595 606 589 607 612 582 574 614 579 590 635 575 602 598 629 602 594 590 610 626 585 562 595 619 576 566 573 566 617 605 595 588 583 620 611 616 582 618 634 612 600 577 587 642 590 568 637 590 597 600 584 564 573 598 564 585 588 629 581 589 652 597 594 581 608 619 599 590 565 618 555 614 609 599 638 591 630 613 590 624 647 565 621 624 572 566 636 618 605 596 580 604 587 565 568 607 558 625 614 612 524 582 570 627 585 584 591 561 623 597 615 577 606 592 591 584 599 605 637 576 571 589 603 571 584 599 575 556 565 569 627 565 603 616 554 611 605 604 618 610 563 599 588 605 599 574 617 653 584 619 626 622 566 594 584 582 622 613 553 603 582 620 602 603 618 571 632 611 573 581 577 618 609 642 542 582 607 599 591 591 568 603 619 617 543 591 569 646 639 599 594 608 607 591 581 577 585 584 651 620 602 557 642 572 624 611 613 600 565 648 576 592 582 611 565 612 575 571 584 647 585 624 628 636 589 605 643 636 633 594 596 574 598 571 574 618 608 575 625 583 610 584 617 587 586 621 599 607 537 618 597 643 597 584 618 646 618 630 610 582 620 619 605 672 597 561 576 653 635 614 595 643 607 650 544 582 684 609 621 596 631 621 611 646 580 633 639 576 602 590 591 582 600 600 631 609 576 617 592 635 602 695 622 618 673 643 653 643 603 613 621 649 637 600 658 660 644 631 623 677 629 610 614 630 663 635 569 609 638 639 600 617 587 611 620 646 620 575 611 622 640 595 637 616 627 638 662 657 640 589 666 639 627 621 647 642 649 667 614 632 618 573 600 596 608 660 633 588 611 605 654 645 621 640 615 596 609 602 672 641 611 643 651 641 599 621 644 651 672 582 634 635 649 642 678 614 654 600 624 650 603 624 677 668 645 633 623 692 636 607 627 599 631 625 656 604 606 646 603 615 626 606 651 578 630 684 610 634 663 629 609 663 634 639 658 625 660 615 610 600 602 611 600 648 583 656 597 630 616 604 615 650 589 632 633 632 614 588 583 635 616 616 599 620 612 590 627 622 577 627 595 609 586 621 628 578 612 615 592 663 643 634 585 652 599 689 626 648 606 641 603 611 626 641 677 626 710 611 637 632 664 635 670 612 647 623 647 650 635 641 662 656 663 687 653 665 641 652 625 636 644 635 614 625 661 657 628 646 669 665 666 648 657 638 618 691 633 608 674 612 679 675 673 678 684 676 668 666 644 624 631 594 640 620 646 640 640 648 648 654 624 645 605 680 676 636 639 615 715 627 649 638 637 648 649 620 638 680 688 636 667 684 649 678 656 643 663 678 692 644 659 704 652 770 673 697 694 661 708 741 735 768 753 807 791 784 802 880 784 803 828 869 888 860 843 849 879 843 882 841 878 835 797 776 803 817 777 759 772 790 810 818 806 797 778 808 787 768 784 829 837 805 793 777 731 819 791 779 797 742 726 754 724 710 743 722 722 748 729 731 659 688 710 691 664 680 719 662 699 703 728 710 729 715 647 678 701 671 725 658 636 661 684 667 690 677 656 658 661 649 719 637 680 657 650 658 689 656 712 634 657 619 626 597 674 638 646 656 649 635 623 618 613 635 644 657 684 659 644 639 690 655 671 679 629 628 640 674 637 635 680 707 699 655 639 718 692 709 646 697 618 668 703 700 705 672 680 682 696 687 672 685 687 644 699 708 702 708 683 716 708 668 690 679 719 703 731 714 724 748 660 767 725 703 773 697 705 705 692 719 692 746 769 767 739 727 715 734 762 745 697 721 720 738 726 727 715 721 736 726 687 709 710 663 677 750 737 708 713 722 706 709 694 625 686 637 684 677 693 681 642 640 700 626 669 653 670 641 696 668 630 639 619 593 623 635 606 638 613 696 597 646 671 590 664 616 665 628 682 662 616 674 592 632 631 590 627 652 612 607 620 586 602 583 638 597 586 615 601 617 581 637 578 585 625 589 589 593 652 561 583 575 630 600 592 591 605 578 585 631 612 635 589 582 632 583 572 573 630 607 598 589 606 591 575 615 616 627 561 644 598 636 642 647 602 572 576 624 631 603 632 560 592 582 594 562 609 617 610 615 626 615 619 600 614 626 594 595 599 597 594 628 647 594 593 613 579 595 640 614 582 544 552 606 578 595 623 595 601 601 575 562 581 573 551 591 612 611 599 631 599 593 642 609 592 611 619 598 646 581 603 607 584 602 596 589 571 625 581 608 563 560 592 580 620 587 618 531 626 557 602 577 595 586 588 617 573 591 583 591 614 571 569 604 606 592 546 591 564 566 560 627 509 608 557 602 571 554 613 569 603 623 593 596 588 584 605 608 577 597 604 594 577 587 622 543 570 555 628 559 588 585 575 562 580 601 636 576 586 606 570 610 563 568 587 599 591 611 555 571 591 592 619 601 571 637 599 554 611 623 585 619 611 600 594 572 599 571 574 601 617 597 592 557 610 579 574 575 615 589 546 577 601 598 534 594 556 558 605 569 577 580 530 574 560 573 542 528 579 579 604 559 572 584 606 570 583 562 592 575 598 619 582 580 588 640 622 567 638 635 587 585 610 524 622 550 588 616 600 584 590 585 582 529 573 575 586 553 575 597 534 584 550 554 570 614 588 596 573 594 604 581 526 603 577 630 610 550 581 562 575 591 578 627 560 595 591 567 640 562 591 610 550 601 601 600 589 615 568 574 584 590 592 563 604 566 610 549 591 586 572 556 577 575 569 618 590 599 569 575 626 568 618 603 614 598 587 550 593 565 599 592 565 622 577 552 636 609 594 615 614 580 589 615 597 618 593 581 617 578 629 587 616 596 575 595 568 598 597 599 597 539 610 595 602 605 600 605 564 638 586 603 600 588 601 611 613 580 580 638 625 593 614 608 606 584 575 582 591 616 587 593 597 643 579 564 588 594 586 611 607 542 578 593 584 671 593 606 618 578 620 571 601 578 624 570 646 643 596 628 602 612 623 614 560 647 601 594 613 569 586 602 568 565 568 571 585 614 564 570 549 588 597 550 595 605 560 598 603 623 563 616 582 574 569 552 602 616 552 585 571 541 604 570 582 582 610 585 564 554 576 607 564 550 616 567 556 531 597 561 600 587 578 568 593 597 584 558 567 583 579 603 572 565 547 597 604 576 564 627 616 591 577 609 574 608 559 592 628 609 559 563 576 599 591 588 601 571 615 564 532 586 576 624 636 583 609 607 633 514 614 563 562 581 606 605 594 567 586 552 588 606 602 616 560 606 564 603 587 571 599 634 636 582 546 592 596 599 589 561 588 526 632 608 588 565 632 580 582 568 583 589 571 574 593 627 577 611 580 566 539 613 660 595 590 611 632 571 616 598 672 614 652 644 611 670 657 655 603 660 672 683 651 722 646 638 603 667 657 639 683 673 685 666 684 659 667 639 712 684 702 705 681 723 701 697 697 694 777 689 702 661 715 697 733 720 679 701 698 661 710 701 725 709 695 705 678 717 672 677 698 683 666 686 683 686 666 692 690 701 609 666 694 657 714 631 694 652 666 688 677 656 626 683 674 662 674 641 682 645 643 624 668 675 611 669 703 663 676 670 640 615 641 684 646 666 656 626 668 624 626 604 637 620 662 608 666 623 598 664 642 650 668 654 671 621 613 674 621 637 656 648 657 620 635 614 576 628 596 575 648 593 598 607 631 631 606 601 633 643 602 581 600 586 626 594 655 611 593 639 597 600 575 589 610 612 618 637 595 617 616 623 603 609 594 583 633 633 622 641 625 619 608 595 600 649 665 665 619 603 628 585 640 619 611 602 649 641 640 625 624 609 600 668 589 592 670 626 651 673 661 641 617 613 639 622 659 638 640 683 639 622 639 626 664 620 635 663 646 654 608 669 644 623 655 648 620 650 653 629 650 584 636 616 663 642 600 576 638 580 638 616 680 631 661 627 635 600 643 644 636 593 630 640 612 596 632 613 614 607 598 605 585 605 641 592 573 656 595 523 572 601 594 593 645 591 545 596 571 594 526 607 514 594 575 544 610 533 548 541 555 547 563 584 549 622 547 585 552 587 569 567 589 552 593 599 582 592 587 549 616 581 586 572 586 575 549 596 601 564 597 621 597 564 579 619 560 604 598 581 581 572 601 583 615 564 539 606 589 632 576 598 599 616 577 595 626 611 615 561 615 579 550 593 594 594 596 574 624 544 604 562 620 589 570 599 593 586 552 586 671 566 552 559 604 575 542 588 567 583 590 544 575 580 619 593 553 592 564 544 596 640 586 596 563 560 597 579 612 577 561 582 568 601 542 502 586 622 582 611 561 599 542 568 592 575 561 587 583 583 570 599 562 619 571 560 533 576 586 598 557 544 586 572 552 594 586 528 536 601 596 542 597 601 549 580 565 578 579 551 606 572 572 519 572 586 597 523 585 633 567 538 621 551 581 575 566 548 590 591 582 608 577 573 579 568 565 566 568 555 580 542 611 555 585 526 567 536 557 581 549 593 588 576 540 561 556 563 538 537 544 593 548 533 535 609 559 585 557 577 548 565 562 559 545 582 546 547 560 543 571 540 569 584 555 549 581 614 565 578 492 519 586 559 586 538 532 506 580 583 574 534 494 515 611 579 611 607 554 573 554 586 557 587 530 569 621 529 533 562 519 580 572 587 599 518 579 554 571 552 604 564 615 509 550 581 580 561 579 607 583 575 635 568 575 576 563 549 558 589 523 551 555 603 578 534 583 558 509 570 539 571 604 557 551 537 575 617 578 591 569 507 563 536 616 580 562 532 590 551 587 575 593 586 576 583 585 559 565 622 541 562 570 621 562 588 601 580 602 562 569 541 575 605 565 569 572 599 572 590 575 576 623 630 589 596 592 624 604 574 566 631 608 634 606 626 564 580 604 567 605 581 595 595 585 611 604 555 586 589 600 626 534 585 581 579 585 596 585 589 560 602 592 525 619 593 604 576 548 576 621 598 570 594 573 591 560 568 557 624 605 631 545 577 626 585 648 580 631 550 602 550 594 552 570 614 592 571 589 585 600 588 555 591 623 599 567 586 562 562 560 645 595 574 588 595 563 619 575 588</counts>
			</dataPoints>
		</scan>
	</xrdMeasurement>
</xrdMeasurements>
