<?xml version="1.0"?>
<xrdMeasurements xmlns="http://www.xrdml.com/XRDMeasurement/2.3" xmlns:xsi="http://www.w3.org/2001/XMLSchema-instance" xsi:schemaLocation="http://www.xrdml.com/XRDMeasurement/2.3 http://www.xrdml.com/XRDMeasurement/2.3/XRDMeasurement.xsd" status="Completed" recordIdentifier="{3D2EB364-16FA-4275-BF8E-D7A6E18E0F04}">
	<comment>
		<entry/>
	</comment>
	<sample type="To be analyzed">
		<id>GPSS_Li1p6Mn0p8Zr0p2Cl4_111725_691b7e20f3837ac4a0a9937d</id>
		<name></name>
		<preparedBy></preparedBy>
	</sample>
	<xrdMeasurement measurementType="Scan" status="Completed" sampleMode="Reflection">
		<usedWavelength intended="K-Alpha 1">
			<kAlpha1 unit="Angstrom">1.5405980</kAlpha1>
			<kAlpha2 unit="Angstrom">1.5444260</kAlpha2>
			<kBeta unit="Angstrom">1.3922500</kBeta>
			<ratioKAlpha2KAlpha1>0.5000</ratioKAlpha2KAlpha1>
		</usedWavelength>
		<incidentBeamPath>
			<radius unit="mm">145.00</radius>
			<xRayTube id="1010048" name="Empyrean Cu LFF HR (9430 033 7310x)">
				<tension unit="kV">40.0</tension>
				<current unit="mA">15.0</current>
				<anodeMaterial>Cu</anodeMaterial>
				<focus type="Line">
					<length unit="mm">12.0</length>
					<width unit="mm">0.4</width>
					<takeOffAngle unit="deg">6.0</takeOffAngle>
				</focus>
			</xRayTube>
			<sollerSlit id="21010002" name="Soller slits 0.04 rad.">
				<opening unit="rad">0.0400</opening>
			</sollerSlit>
			<mask id="22031000" name="Fixed mask 13 mm">
				<width unit="mm">9.00</width>
			</mask>
			<divergenceSlit id="22120001" name="Divergence slit 1°" xsi:type="fixedDivergenceSlitType">
				<distanceToSample unit="mm">50.00</distanceToSample>
				<height unit="mm">1.52</height>
			</divergenceSlit>
		</incidentBeamPath>
		<sampleMovement xsi:type="spinningSampleMovementType">
			<spinnerRevolutionTime unit="seconds">1.0</spinnerRevolutionTime>
		</sampleMovement>
		<diffractedBeamPath>
			<radius unit="mm">145.00</radius>
			<antiScatterSlit id="22090040" name="AS slit 9 mm (PIXcel)" xsi:type="fixedAntiScatterSlitType">
				<height unit="mm">9.00</height>
			</antiScatterSlit>
			<sollerSlit id="21020003" name="Large Soller slits 0.04 rad.">
				<opening unit="rad">0.0400</opening>
			</sollerSlit>
			<filter id="20030001" name="Large beta-filter Nickel">
				<material>Ni</material>
				<thickness unit="mm">0.020</thickness>
			</filter>
			<detector id="7010019" name="PIXcel1D-Medipix3 detector" xsi:type="rtmsDetectorType">
				<phd unit="keV">
					<lowerLevel>4.02</lowerLevel>
					<upperLevel>11.27</upperLevel>
				</phd>
				<mode>Scanning</mode>
				<activeLength unit="deg">5.542</activeLength>
			</detector>
		</diffractedBeamPath>
		<scan appendNumber="0" mode="Continuous" scanAxis="Gonio" status="Completed">
			<header>
				<startTimeStamp>2025-11-20T12:17:42-08:00</startTimeStamp>
				<endTimeStamp>2025-11-20T12:25:49-08:00</endTimeStamp>
				<author>
					<name>AutomatedUser</name>
				</author>
				<source>
					<applicationSoftware version="1.7b (136)">PANalytical Aeris Instrument Suite</applicationSoftware>
					<instrumentControlSoftware version="3.2.00000000 20240306">AERIS</instrumentControlSoftware>
					<instrumentID>950485</instrumentID>
				</source>
			</header>
			<dataPoints>
				<positions axis="2Theta" unit="deg">
					<startPosition>10.00943322</startPosition>
					<endPosition>99.99442286</endPosition>
				</positions>
				<positions axis="Omega" unit="deg">
					<startPosition>5.00471661</startPosition>
					<endPosition>49.99721143</endPosition>
				</positions>
				<commonCountingTime unit="seconds">12.495</commonCountingTime>
				<counts unit="counts">3208 3117 3169 3093 3200 3190 3029 3065 3047 3177 3004 3077 3138 3154 3161 3186 3277 3136 3180 3224 3177 3151 3177 3133 3252 3116 3186 3261 3184 3177 3221 3269 3188 3250 3254 3193 3330 3191 3347 3218 3306 3146 3331 3257 3373 3209 3267 3321 3383 3388 3294 3279 3250 3368 3378 3284 3370 3424 3418 3279 3440 3436 3398 3495 3505 3534 3620 3592 3663 3574 3639 3687 3749 3851 3750 3764 3748 3839 3683 3771 3844 3723 3813 3844 3815 3700 3888 3832 3819 3788 3933 3810 3752 3817 3855 3831 3787 3781 3916 3712 3827 3776 3717 3744 3772 3617 3688 3753 3675 3788 3678 3827 3587 3731 3587 3625 3655 3637 3652 3646 3623 3751 3665 3641 3557 3485 3430 3574 3574 3545 3524 3614 3555 3623 3564 3702 3593 3702 3666 3708 3601 3577 3714 3595 3621 3648 3643 3698 3639 3674 3650 3695 3664 3652 3604 3540 3684 3641 3594 3648 3577 3725 3645 3583 3643 3662 3565 3623 3564 3678 3667 3700 3693 3602 3622 3593 3650 3560 3678 3551 3611 3669 3638 3741 3702 3665 3668 3593 3593 3594 3695 3772 3626 3641 3637 3667 3606 3669 3557 3664 3639 3577 3606 3661 3737 3488 3653 3622 3590 3582 3627 3564 3651 3483 3613 3616 3484 3614 3675 3481 3596 3492 3653 3609 3492 3417 3459 3541 3599 3506 3546 3626 3581 3620 3566 3523 3506 3497 3508 3524 3590 3471 3601 3485 3590 3476 3538 3565 3516 3467 3455 3555 3477 3457 3581 3550 3419 3426 3381 3456 3397 3587 3549 3402 3607 3418 3518 3437 3443 3361 3433 3423 3467 3494 3462 3494 3412 3522 3465 3380 3505 3429 3448 3534 3478 3354 3461 3489 3545 3426 3392 3534 3502 3395 3577 3405 3435 3398 3385 3430 3385 3440 3439 3426 3389 3557 3451 3374 3489 3553 3567 3441 3463 3456 3460 3529 3514 3542 3561 3419 3465 3391 3526 3589 3585 3497 3500 3433 3509 3514 3400 3452 3370 3447 3543 3483 3480 3487 3427 3533 3458 3540 3475 3408 3531 3471 3597 3672 3478 3635 3622 3544 3561 3594 3590 3477 3566 3640 3631 3701 3617 3525 3638 3658 3674 3536 3593 3479 3601 3653 3597 3648 3645 3650 3677 3559 3703 3621 3586 3735 3817 3735 3619 3671 3677 3704 3802 3766 3712 3904 3789 3960 3894 4012 4002 3965 3970 4128 4159 4109 4211 4230 4342 4448 4356 4658 4474 4807 4771 4893 5089 5077 5211 5153 5181 5007 5139 5029 4900 4870 4836 4842 4727 4863 4801 4737 4735 4613 4627 4586 4544 4491 4452 4482 4458 4428 4474 4400 4385 4433 4498 4474 4337 4346 4216 4156 4117 4001 4038 3936 3767 3782 3797 3746 3720 3630 3643 3650 3630 3648 3686 3695 3627 3624 3682 3571 3598 3673 3624 3685 3511 3508 3528 3486 3549 3603 3627 3486 3564 3552 3572 3602 3584 3533 3607 3548 3563 3453 3561 3659 3518 3415 3605 3518 3338 3489 3318 3485 3455 3464 3334 3518 3346 3399 3392 3415 3393 3442 3363 3395 3379 3423 3337 3408 3399 3370 3486 3305 3345 3400 3367 3444 3323 3357 3338 3407 3307 3371 3352 3354 3302 3284 3362 3233 3344 3341 3294 3375 3279 3248 3359 3270 3333 3307 3446 3333 3343 3281 3184 3302 3286 3275 3319 3125 3272 3237 3157 3234 3246 3264 3229 3159 3150 3181 3254 3168 3172 3164 3210 3216 3150 3262 3220 3229 3160 3193 3245 3215 3128 3122 3307 3237 3193 3199 3120 3148 3184 3170 3139 3181 3170 3125 3150 3171 3179 3126 3100 3312 3072 3113 3056 3074 3107 3040 3167 3034 3076 3094 3116 3202 3181 3158 3161 2958 3013 3055 3103 3209 3074 3138 3092 3017 3106 3065 3028 3024 3130 3059 3045 2969 3046 3026 3040 3129 3148 3147 3081 3103 3060 3058 3050 3011 3164 2975 2939 3010 3016 3027 3069 3044 2983 3063 3154 2926 3060 3034 2962 3016 3120 3027 3127 3059 3080 2985 3101 3016 3047 3019 2971 3003 2889 3043 3024 3082 2924 2996 3014 3030 2950 3104 3009 3057 2965 3104 3027 3106 2955 3065 3009 3056 2918 2987 3041 2981 3043 2934 3061 3001 3020 2986 3063 2853 2974 2924 2913 2984 2967 2915 3014 3046 2979 3013 2965 2955 2994 2965 2882 3039 2898 2935 2991 3019 2970 2950 2982 2919 2876 2853 2933 2978 2948 2968 2926 2890 3022 2971 2905 2938 2998 2948 2924 2949 3072 2990 2888 2896 2911 2927 2979 2982 3057 3008 3000 2906 2994 3022 2937 2993 2876 3004 2957 3013 2933 2892 3026 2852 2918 3005 3009 2956 2968 2845 2877 2911 2816 2854 2873 2793 2923 2944 2906 2944 2848 2854 2934 2983 2823 2866 2995 2893 2922 2836 2900 2971 2986 2823 2927 2959 2810 2910 2837 2922 2852 2853 2872 2947 2843 2788 2881 2843 2873 2830 2868 2821 2845 2884 2872 2826 2790 2885 2783 2793 2753 2856 2811 2796 2972 2887 2949 2876 2838 2826 2893 2845 2850 2779 2847 2878 2815 2983 2814 2859 2724 2826 2826 2864 2935 2824 2955 2860 2861 2795 2783 2777 2849 2824 2703 2786 2765 2798 2854 2823 2867 2786 2732 2831 2777 2830 2825 2763 2716 2783 2658 2883 2667 2780 2834 2849 2771 2837 2850 2795 2886 2807 2679 2747 2758 2717 2795 2715 2808 2807 2861 2773 2757 2772 2725 2815 2736 2740 2651 2769 2870 2729 2863 2780 2675 2694 2735 2725 2748 2715 2743 2740 2709 2704 2697 2711 2714 2654 2797 2693 2756 2718 2748 2615 2729 2700 2764 2716 2642 2650 2664 2755 2611 2677 2708 2789 2647 2672 2591 2678 2691 2664 2742 2788 2783 2625 2684 2752 2765 2724 2717 2698 2678 2796 2631 2709 2638 2696 2702 2656 2811 2682 2736 2678 2696 2610 2652 2695 2732 2658 2678 2696 2673 2706 2632 2717 2634 2640 2584 2615 2710 2637 2710 2699 2660 2673 2709 2644 2674 2775 2666 2704 2672 2682 2725 2641 2671 2713 2721 2766 2680 2639 2627 2681 2644 2676 2708 2697 2563 2774 2630 2613 2679 2623 2701 2665 2626 2625 2619 2634 2708 2640 2746 2530 2661 2719 2575 2701 2601 2561 2616 2690 2637 2629 2671 2693 2716 2733 2729 2683 2642 2710 2659 2542 2720 2660 2678 2580 2740 2801 2610 2600 2632 2724 2736 2660 2618 2611 2664 2692 2738 2654 2653 2706 2705 2667 2615 2711 2627 2696 2736 2613 2579 2652 2694 2691 2633 2724 2595 2603 2689 2675 2713 2689 2697 2646 2637 2577 2593 2736 2682 2627 2670 2693 2568 2579 2620 2584 2580 2724 2710 2582 2597 2656 2553 2707 2575 2605 2581 2695 2555 2684 2548 2614 2626 2569 2636 2600 2535 2641 2562 2582 2509 2536 2594 2594 2592 2496 2604 2659 2470 2672 2561 2466 2581 2594 2612 2503 2508 2591 2491 2568 2583 2534 2508 2506 2559 2575 2483 2524 2592 2566 2453 2492 2417 2579 2452 2539 2473 2451 2494 2509 2479 2504 2443 2425 2434 2418 2451 2445 2494 2532 2398 2366 2443 2525 2419 2426 2405 2454 2432 2432 2406 2419 2417 2338 2410 2326 2455 2316 2379 2345 2337 2384 2357 2357 2292 2335 2312 2385 2326 2437 2338 2369 2256 2310 2338 2294 2222 2421 2330 2253 2265 2301 2354 2278 2259 2224 2344 2242 2282 2284 2255 2274 2333 2307 2254 2261 2199 2354 2189 2219 2227 2215 2255 2265 2254 2175 2213 2193 2225 2180 2267 2213 2157 2260 2203 2233 2114 2247 2150 2179 2135 2174 2232 2197 2201 2201 2226 2154 2152 2207 2197 2221 2243 2150 2146 2184 2097 2144 2096 2130 2182 2168 2131 2128 2160 2094 2130 2189 2086 2094 2139 2157 2119 2163 2159 2072 2103 2139 2101 2037 2094 2172 2118 2059 2085 2073 2040 2126 1981 2131 2009 2090 2102 2070 2155 2015 2030 2036 2102 2058 2075 1988 2013 2073 2052 2045 2000 2035 2039 2010 2021 2122 2049 2043 2062 2028 2010 2035 2104 1948 2106 2014 1922 2045 1930 2052 2033 2011 2028 2004 2008 1984 2087 2044 1956 2025 2016 1979 2060 2036 1918 2003 2037 2044 2014 1991 1959 1964 1964 2040 2056 2067 1958 1995 2001 2032 2026 2015 1958 1962 2037 2015 2006 1986 1963 1996 1936 2014 2025 2050 2032 1945 2048 2037 1938 2032 2059 1997 2034 1960 1995 2006 2026 1974 1953 2165 1954 1995 2054 2055 1957 2032 1997 2050 2005 1985 1989 1980 1953 2093 1957 2001 1977 1890 2009 1947 1953 2012 1971 1987 2083 2019 1952 2030 1994 1969 1996 1947 2143 2026 1920 1906 1956 1973 2020 2012 1997 1941 2027 1897 2003 1977 2042 2113 1918 1958 1942 1933 1994 1971 1956 2008 1945 1888 1979 1998 2006 1969 2044 1949 1922 1894 1941 2020 1997 1943 2025 1938 2028 1900 1947 1937 1941 1963 1971 2052 1937 1962 2044 2051 2019 2012 1972 1999 1977 1994 2009 2001 1960 1934 2005 1960 1899 1901 1968 1994 1907 2013 1959 2002 1998 1944 1967 1965 1960 1984 1893 2047 1916 2043 2035 1932 1935 2002 2024 1880 1978 1907 1995 1877 1932 1967 1832 2007 1885 1868 1953 1874 1918 1939 1910 1863 1949 1912 1953 1932 1855 1980 1821 1905 2026 1918 1904 1862 1891 1889 1876 1784 1905 1891 1879 1880 1791 1860 1944 1843 1847 1850 1913 1879 1852 1786 1796 1846 1859 1850 1789 1883 1780 1777 1894 1873 1873 1790 1808 1764 1854 1865 1824 1862 1732 1777 1810 1829 1801 1761 1805 1810 1782 1757 1849 1805 1793 1787 1746 1795 1775 1748 1682 1821 1721 1762 1755 1675 1768 1692 1736 1796 1851 1684 1776 1727 1733 1713 1772 1768 1778 1825 1739 1704 1798 1796 1747 1778 1746 1726 1697 1712 1802 1754 1700 1812 1730 1698 1708 1735 1785 1767 1717 1829 1855 1926 1868 1914 1988 1956 1956 2084 2191 2136 2258 2319 2587 2464 2619 2633 2692 2645 2758 2714 2716 2679 2558 2509 2453 2352 2380 2338 2295 2272 2144 2111 2101 2023 2053 2013 2113 2053 2062 2123 2129 2112 2123 2122 2080 2101 2040 2044 2067 2048 1900 1887 1938 1872 1893 1770 1795 1752 1650 1700 1683 1749 1678 1652 1633 1597 1635 1582 1636 1686 1629 1639 1623 1568 1653 1676 1579 1630 1536 1570 1607 1587 1617 1640 1557 1611 1524 1555 1607 1652 1656 1597 1610 1535 1589 1624 1636 1543 1600 1608 1558 1535 1555 1578 1661 1624 1659 1563 1580 1619 1652 1623 1645 1687 1675 1716 1689 1715 1823 1852 1859 1851 2087 2084 2184 2333 2434 2614 2849 3052 3150 3401 3474 3646 3788 3879 3881 3901 3780 3682 3547 3398 3347 3188 3202 3009 2785 2669 2615 2450 2561 2459 2381 2382 2316 2305 2382 2491 2316 2485 2390 2395 2425 2550 2454 2442 2300 2285 2265 2077 2009 2001 1816 1935 1873 1802 1714 1778 1722 1693 1680 1617 1684 1682 1697 1734 1858 1805 1799 1739 1884 1817 1830 1913 1799 1805 1803 1772 1704 1819 1806 1774 1727 1717 1688 1656 1608 1689 1678 1612 1597 1583 1625 1602 1548 1649 1617 1657 1542 1694 1602 1667 1606 1604 1555 1575 1562 1508 1505 1574 1476 1520 1487 1496 1546 1526 1474 1422 1465 1441 1487 1459 1495 1423 1491 1425 1442 1428 1421 1400 1431 1441 1316 1438 1406 1445 1465 1502 1444 1423 1416 1437 1443 1399 1400 1435 1388 1360 1394 1393 1440 1363 1422 1445 1353 1307 1355 1373 1419 1368 1360 1356 1381 1346 1347 1291 1296 1292 1400 1364 1366 1308 1294 1370 1366 1364 1335 1321 1333 1377 1328 1333 1316 1426 1287 1352 1339 1386 1419 1363 1300 1360 1377 1348 1310 1381 1308 1383 1332 1363 1371 1361 1304 1381 1370 1429 1294 1286 1338 1305 1324 1401 1378 1291 1354 1309 1374 1287 1336 1342 1351 1265 1352 1338 1385 1252 1347 1335 1300 1318 1275 1358 1352 1356 1376 1373 1292 1345 1323 1341 1325 1300 1229 1289 1305 1369 1327 1292 1346 1377 1336 1262 1319 1311 1281 1368 1285 1313 1372 1372 1392 1352 1382 1295 1324 1361 1297 1414 1360 1395 1330 1402 1412 1392 1385 1363 1434 1440 1449 1462 1480 1503 1494 1531 1612 1547 1545 1620 1618 1664 1605 1618 1665 1719 1672 1636 1652 1724 1626 1724 1677 1759 1665 1674 1648 1658 1647 1715 1702 1634 1670 1693 1553 1695 1596 1608 1530 1598 1651 1564 1489 1598 1606 1634 1588 1631 1613 1528 1573 1544 1528 1488 1523 1468 1428 1466 1470 1465 1487 1448 1400 1396 1380 1443 1398 1438 1385 1396 1364 1330 1425 1343 1394 1388 1313 1385 1348 1393 1354 1324 1340 1390 1376 1343 1330 1312 1437 1337 1344 1281 1373 1384 1393 1338 1437 1356 1415 1355 1332 1343 1419 1344 1423 1395 1318 1437 1368 1376 1381 1380 1376 1345 1415 1395 1387 1408 1390 1355 1357 1413 1416 1403 1418 1401 1420 1453 1377 1462 1444 1475 1437 1504 1417 1447 1423 1438 1555 1480 1550 1546 1445 1553 1563 1607 1622 1691 1706 1762 1921 2035 2116 2289 2401 2670 2839 3279 3619 4143 4423 4982 5582 6161 6855 7465 7957 8403 8635 8754 8678 8217 8113 7719 7460 7178 6785 6368 6121 5498 5147 4716 4387 4138 3922 3864 3889 3719 3732 3807 3713 3815 3980 3875 4072 3923 3956 3812 3724 3578 3469 3336 3196 2861 2731 2523 2437 2195 2179 2063 1839 1858 1682 1627 1542 1525 1452 1476 1390 1436 1402 1416 1382 1486 1412 1434 1414 1515 1415 1514 1492 1542 1546 1546 1523 1513 1510 1529 1456 1506 1390 1451 1425 1388 1436 1447 1373 1357 1384 1261 1323 1355 1360 1402 1311 1318 1319 1338 1351 1327 1340 1268 1401 1282 1316 1247 1303 1272 1311 1324 1337 1250 1287 1274 1356 1201 1362 1172 1311 1257 1239 1256 1256 1239 1214 1228 1261 1195 1213 1234 1215 1226 1188 1109 1185 1223 1177 1214 1248 1252 1255 1161 1215 1250 1233 1237 1273 1241 1199 1153 1258 1207 1218 1271 1220 1230 1222 1265 1212 1330 1237 1187 1243 1215 1247 1161 1155 1204 1227 1196 1226 1211 1254 1158 1245 1207 1216 1192 1256 1240 1209 1221 1150 1238 1221 1208 1156 1192 1218 1218 1164 1208 1190 1192 1156 1190 1129 1149 1141 1200 1171 1157 1160 1102 1216 1240 1157 1212 1180 1194 1158 1166 1102 1122 1150 1173 1174 1213 1135 1151 1173 1113 1190 1204 1071 1131 1134 1132 1231 1158 1099 1169 1154 1180 1131 1137 1087 1157 1098 1079 1111 1137 1145 1168 1192 1072 1158 1147 1103 1098 1067 1142 1138 1082 1087 1112 1114 1186 1201 1107 1138 1116 1178 1071 1128 1074 1129 1081 1114 1154 1049 1101 1092 1096 1117 1074 1138 1077 1109 1110 1128 1142 1102 1079 1138 1071 1031 1171 1097 1146 1104 1176 1168 1112 1154 1156 1180 1129 1142 1246 1151 1215 1129 1190 1119 1187 1175 1117 1207 1198 1144 1128 1133 1175 1124 1161 1128 1103 1120 1158 1149 1127 1074 1108 1102 1084 1099 1061 1098 1109 1090 1086 1124 1102 1083 1105 1074 1031 1041 1073 1035 1055 1050 1026 1023 1056 1086 1099 1072 1080 1075 1063 1101 1043 1030 1079 1117 1047 1106 1080 999 1080 1077 1075 1026 1059 1090 1054 1086 1129 1075 1032 1056 1065 1030 1025 1022 1058 1093 1107 1083 1025 1067 1093 1073 1107 1056 968 1006 1074 1133 1084 1149 1038 1038 1054 1084 1067 993 1139 1047 1041 1032 1047 1083 1076 1082 1013 1034 1087 1061 1035 1036 1126 1025 1074 1059 1029 1010 1114 1019 1031 1075 1007 1037 1041 1076 1065 982 1059 1014 1049 1078 1071 1070 1037 1048 1034 1056 1006 1052 1132 1050 1020 1043 1036 1034 1041 1070 1031 1042 1053 1044 1017 1055 1094 1046 1034 1041 1005 970 1035 1033 986 1045 1015 1054 1027 1062 1030 1045 998 1041 984 1092 1057 1049 987 945 1020 998 1043 1081 1058 1036 996 1037 996 1095 1023 1013 1030 1066 1038 1037 1041 1004 1011 967 981 1004 966 1045 987 1061 1040 1021 1048 1023 1019 1031 1037 1065 1017 1044 968 982 1064 1016 1026 1058 1019 1045 1047 1051 1044 1073 988 1031 1019 994 1051 991 983 999 1026 1082 1000 943 1056 980 998 1006 1012 952 991 1010 1074 1006 995 1036 1014 1045 1086 978 988 1028 985 1053 980 1023 993 1012 981 1038 1014 1027 1018 973 1007 1056 1002 993 1046 1003 1034 1050 958 997 1027 992 1010 1025 977 1076 1004 981 1009 1044 1019 982 1007 975 1006 975 983 985 970 1030 973 1001 1055 1011 955 957 1019 1014 999 1098 1005 1039 1001 1022 956 1006 972 1059 1043 1039 1047 1046 986 1019 977 1009 997 955 1037 984 1026 960 1025 994 1032 1061 980 1037 940 1010 1010 1009 960 999 982 1049 969 1042 949 952 1065 1055 991 996 984 964 951 1018 978 1016 963 1034 1006 1056 976 964 989 1019 985 1015 1014 1033 979 983 946 958 984 1013 1020 960 976 1025 1027 919 979 965 968 1028 966 954 960 1027 984 946 1022 938 996 977 1016 1000 1006 1035 985 940 1050 954 969 967 932 945 1028 987 972 980 1031 974 953 981 1017 985 971 1004 1027 1011 1002 1007 972 962 1036 952 995 939 997 964 1008 968 964 947 956 1036 1043 1025 1051 1000 969 928 991 989 940 1018 959 1045 954 956 1030 1008 982 973 980 972 950 987 995 1007 1004 967 961 981 930 985 1008 997 929 1007 980 1019 937 956 977 1031 998 1002 931 966 1003 1006 990 1042 1007 941 1010 1016 977 990 982 954 995 1002 1012 1024 999 1024 1009 994 986 978 967 1035 979 1014 1007 991 999 928 998 975 938 959 952 981 934 1029 998 974 1005 946 971 906 984 1002 926 994 1018 970 956 1008 1023 998 986 968 990 953 977 946 988 989 982 1010 1003 942 967 982 972 911 995 1002 995 925 1048 958 914 978 1030 984 992 964 971 965 1005 948 959 957 1007 1007 956 976 949 1040 981 977 973 1003 1052 1006 951 1016 1023 993 976 1013 935 1008 949 959 955 977 972 1054 1007 982 1002 1025 1045 942 972 1035 1038 1009 1041 989 988 1043 1024 1087 995 1071 1045 1077 1087 1031 1057 1038 1117 1040 1075 1077 1081 1051 1010 1060 1012 992 1060 1023 1069 1089 1014 1017 1031 1021 1053 1047 1062 1037 1063 995 1094 1058 1061 1069 1082 1036 1025 1049 1007 1062 985 1049 965 1047 1027 984 1034 1004 1064 971 1021 983 1000 998 1009 1069 1041 1069 1060 1066 1067 1018 1012 1091 1115 1137 1091 1139 1248 1254 1306 1379 1456 1465 1549 1633 1678 1705 1738 1698 1678 1628 1603 1575 1488 1545 1555 1536 1451 1485 1516 1366 1388 1361 1329 1280 1303 1237 1169 1228 1203 1345 1257 1194 1248 1163 1218 1243 1137 1148 1168 1236 1108 1090 1098 1081 1079 1065 1078 1048 989 1031 1025 985 942 959 967 982 990 948 973 917 979 950 991 954 966 935 966 969 965 976 990 970 910 945 924 993 944 916 978 938 946 932 925 918 968 945 984 967 953 955 950 962 1009 932 919 962 941 948 927 934 952 984 895 926 958 949 939 912 924 961 914 921 926 975 947 984 920 957 841 939 958 933 983 909 935 924 963 910 971 922 896 906 969 922 927 907 954 879 900 923 926 906 880 905 913 927 915 981 922 907 906 877 973 861 949 967 928 931 935 977 964 961 933 895 935 914 892 920 967 959 882 914 991 932 878 940 894 884 976 911 965 930 955 925 952 902 945 930 943 931 906 977 959 909 947 955 960 922 912 919 937 919 901 922 956 891 928 908 885 953 922 927 936 918 855 922 923 911 933 903 906 908 959 940 905 947 897 927 919 922 993 885 954 964 968 881 911 889 986 881 957 924 997 982 930 923 918 933 929 919 946 902 946 888 921 954 871 933 926 946 910 975 911 976 934 924 958 875 953 982 889 978 918 990 965 934 923 909 893 924 946 967 934 925 930 876 883 912 931 941 939 908 894 951 959 932 920 948 956 943 983 922 954 986 957 927 966 948 964 977 928 973 901 932 993 927 887 943 1019 952 898 984 951 947 918 920 982 1005 956 975 967 958 942 977 925 991 892 918 934 986 999 962 994 1009 946 967 1003 987 957 950 1001 935 914 973 968 894 1055 993 999 993 1071 1048 1051 1065 1015 1102 1070 1035 1128 1058 1056 1104 1140 1139 1152 1181 1209 1232 1241 1386 1414 1432 1606 1731 1870 2052 2310 2607 2997 3345 3772 4082 4426 4590 4624 4756 4547 4266 3978 3777 3753 3501 3615 3604 3576 3501 3467 3381 3216 3167 2945 2843 2712 2655 2538 2504 2537 2525 2538 2541 2414 2400 2293 2284 2246 2106 2031 1966 1874 1799 1805 1688 1629 1608 1608 1544 1456 1484 1378 1373 1305 1228 1160 1089 1062 1078 1034 1055 1061 1005 1015 987 985 1020 1022 928 1076 933 1010 1019 974 968 975 967 1014 1000 969 962 975 939 1023 966 997 978 999 964 1008 977 961 1028 952 1007 1035 1022 990 1011 1063 1037 994 1048 1081 1098 1027 1077 1129 1075 1148 1068 1036 1091 1012 1037 1010 1026 1075 978 1041 1010 1043 1039 988 1034 965 1014 1001 1006 1041 1059 1050 981 1027 1027 995 1034 994 1004 978 986 1012 996 999 1053 941 1003 974 979 992 1009 980 993 971 990 957 1013 1001 951 989 950 975 993 1006 968 1002 909 1021 954 925 930 1030 930 984 955 927 955 949 993 995 986 981 949 967 907 920 984 941 928 920 916 928 909 872 915 910 945 855 893 910 908 952 895 920 897 906 950 935 991 896 927 916 890 916 946 889 913 1017 998 931 1002 1052 1051 1119 1153 1217 1231 1245 1334 1246 1262 1205 1242 1145 1222 1135 1103 1162 1115 1050 1129 1139 1146 1139 1096 1056 1094 1135 1008 1070 1098 943 990 1056 980 988 1014 962 999 982 1008 929 988 926 968 960 940 1011 946 894 929 886 936 864 873 864 952 857 873 907 877 856 814 841 887 879 871 900 858 925 831 855 877 840 832 892 891 917 867 832 814 860 860 884 826 859 856 900 827 913 875 864 821 895 874 815 866 805 861 807 895 860 843 842 876 876 796 893 878 897 892 822 901 854 884 804 841 912 856 825 892 822 793 808 884 840 895 839 927 872 878 864 818 832 808 863 850 842 799 859 929 862 863 804 859 802 838 832 869 829 912 808 826 858 887 823 849 819 801 806 806 893 870 852 885 839 875 828 848 851 850 858 873 815 859 842 844 843 877 834 835 829 839 794 854 812 808 820 814 854 859 846 838 813 792 853 815 852 829 819 812 898 815 797 868 817 839 821 852 847 872 823 852 787 848 791 810 815 794 860 875 856 816 809 868 875 856 866 835 822 868 879 865 861 879 843 809 847 869 815 847 845 869 868 812 842 817 846 845 867 856 833 867 775 831 818 866 779 813 813 793 824 834 823 810 884 857 850 877 880 833 850 847 872 831 841 857 871 854 828 768 778 794 783 840 854 829 824 874 797 859 859 866 881 822 833 848 814 821 808 870 819 856 829 798 863 809 874 844 840 826 808 834 864 826 838 773 850 829 815 787 802 837 810 857 866 802 845 791 795 805 804 855 874 810 823 844 829 810 833 830 818 901 782 825 845 822 776 816 782 736 797 823 815 862 784 770 841 869 847 879 810 849 783 878 792 854 818 796 812 847 786 782 803 850 834 867 877 825 792 799 793 815 776 818 821 786 791 840 821 782 851 832 849 781 818 847 808 798 787 832 846 819 787 773 840 778 810 785 900 788 803 804 756 801 820 802 820 825 809 758 864 838 826 758 903 832 830 803 774 815 782 804 820 794 796 818 815 781 868 774 789 826 835 786 795 786 787 823 824 745 786 819 828 833 813 777 751 808 833 805 864 779 795 831 839 834 811 751 849 824 821 827 843 804 837 815 787 812 829 804 822 873 810 797 762 799 837 774 812 773 770 818 833 744 762 849 793 845 815 794 852 812 787 844 790 796 848 813 771 812 792 825 825 770 788 815 826 841 834 805 788 820 814 839 770 848 807 805 799 818 844 770 818 797 787 838 782 795 846 789 841 786 847 850 859 860 819 792 795 787 780 816 840 876 806 819 854 791 842 862 822 871 898 866 847 904 937 919 931 911 904 935 899 829 874 851 831 901 890 902 869 911 866 878 902 879 880 843 889 810 834 891 804 863 858 941 883 790 867 854 863 856 840 845 798 887 815 817 806 831 859 805 824 883 876 846 806 825 879 836 840 921 885 927 953 1037 999 1028 1088 1157 1181 1241 1221 1278 1305 1237 1292 1186 1186 1049 1069 1178 1088 1116 1095 1162 1090 1145 1116 1138 1116 1133 1067 1029 1004 1082 1046 1043 932 976 1026 978 1020 904 994 933 962 937 903 882 934 905 868 896 820 939 886 908 888 880 887 818 848 844 841 883 812 805 878 810 832 845 878 834 793 795 782 789 844 791 846 852 848 837 801 848 815 844 864 806 850 866 841 839 755 822 779 810 801 840 797 829 833 850 849 791 852 860 846 840 802 868 867 839 871 856 770 834 777 874 835 803 818 905 804 828 824 830 837 834 834 856 870 837 879 895 971 883 887 915 927 827 856 830 838 899 865 839 855 864 874 841 877 843 900 877 796 852 867 837 792 841 870 840 839 809 791 869 825 809 820 852 830 838 857 840 805 840 803 850 812 921 850 862 766 830 824 869 852 833 858 912 850 845 824 836 820 849 821 861 719 828 797 879 788 838 817 801 834 866 892 843 823 793 848 874 829 849 835 847 822 803 809 866 801 820 797 862 845 843 777 836 850 767 845 837 816 834 826 852 891 871 884 819 846 848 802 799 819 865 851 859 859 853 878 834 882 800 863 810 891 909 869 915 865 967 916 1033 1036 1116 1128 1268 1381 1411 1508 1625 1630 1700 1563 1625 1543 1378 1348 1348 1250 1183 1292 1324 1273 1347 1327 1395 1372 1352 1323 1319 1247 1195 1269 1182 1144 1211 1125 1059 1054 1037 1085 1009 978 1007 998 960 962 918 940 865 989 890 944 969 945 920 927 907 821 864 831 857 816 746 834 832 830 759 849 791 785 832 826 813 775 812 802 795 814 803 782 768 784 743 804 844 746 756 720 761 817 795 757 771 765 779 742 770 740 775 795 804 809 785 800 775 775 811 780 795 798 816 837 790 808 804 708 772 733 749 823 740 786 785 791 812 788 824 776 788 807 808 801 811 752 803 821 760 798 775 816 888 817 809 820 794 786 791 776 766 804 787 860 786 721 808 779 746 818 781 800 798 740 789 810 775 756 818 807 782 758 794 769 851 757 841 777 800 784 719 785 814 771 760 775 745 782 784 761 842 777 850 838 862 816 802 893 858 942 870 961 983 1003 987 950 1049 970 1001 885 934 918 907 871 900 876 917 922 870 941 880 910 894 899 868 858 831 860 866 881 837 836 883 835 810 769 828 852 830 773 797 808 783 744 803 800 815 771 834 834 827 822 779 750 783 829 791 781 823 768 803 763 734 765 749 742 797 699 742 771 789 734 764 763 736 773 768 810 808 778 736 721 725 731 751 771 705 756 742 769 752 776 722 752 738 762 729 784 711 752 804 765 773 772 783 756 760 769 746 732 752 711 732 708 720 713 781 678 745 790 790 795 774 698 751 726 714 752 721 732 767 712 827 776 730 757 695 783 783 762 815 715 752 712 781 712 808 720 806 745 763 751 709 804 752 760 744 725 785 725 733 769 688 711 750 765 767 751 731 721 734 747 783 802 800 790 731 713 753 735 740 739 714 721 735 723 785 745 773 747 758 762 681 759 699 745 792 758 746 731 782 754 745 768 725 732 736 737 724 775 693 716 753 763 743 684 780 741 729 730 783 746 738 730 802 714 740 786 729 770 790 744 729 782 730 779 741 735 775 742 704 750 762 718 739 784 795 739 739 734 743 780 758 787 733 745 788 741 721 705 709 735 729 726 719 719 754 754 791 703 738 775 764 692 784 740 735 721 729 694 744 742 750 761 751 727 796 794 735 769 760 753 731 710 736 720 756 750 724 752 748 733 746 752 750 721 780 704 717 726 748 797 697 700 730 723 789 766 738 749 747 712 748 735 751 796 738 682 740 782 764 734 731 756 737 774 722 754 743 708 742 743 761 745 763 773 753 715 745 726 685 733 729 743 726 778 745 767 741 746 764 723 750 733 695 750 685 715 736 752 705 702 678 760 735 752 684 800 743 731 786 743 723 730 714 733 726 726 739 728 750 708 707 741 736 676 680 724 752 732 734 763 712 779 734 810 715 775 708 781 719 731 739 722 767 758 717 709 692 714 695 738 751 776 746 754 741 764 751 733 776 763 756 730 750 705 740 733 767 688 735 794 735 740 761 718 770 721 748 678 730 711 752 733 801 729 737 747 736 745 719 766 777 695 725 716 723 719 738 759 731 720 690 753 738 754 699 777 754 810 692 754 741 735 728 743 753 770 795 716 711 770 772 787 757 764 756 814 803 817 885 851 849 857 923 837 869 835 788 810 820 779 776 792 742 795 794 847 841 778 788 837 835 865 850 844 817 821 766 731 812 798 760 733 751 690 786 785 772 751 762 733 739 730 765 775 758 755 691 745 747 744 677 721 776 712 727 680 754 703 757 766 767 728 789 687 741 685 754 714 740 751 704 718 735 741 739 720 721 760 740 741 738 734 742 761 743 673 717 740 696 753 757 727 734 752 771 741 703 730 747 781 734 742 722 690 753 733 718 706 703 689 714 733 708 756 675 696 724 715 667 659 743 723 733 710 765 707 731 713 680 712 677 719 724 691 709 721 727 748 757 730 715 726 686 718 711 769 712 769 762 713 709 759 711 725 714 700 725 753 714 739 724 760 779 731 746 683 763 723 705 737 738 752 767 687 768 714 711 745 741 735 727 726 682 732 710 732 751 714 752 776 726 705 744 731 680 746 775 729 741 735 701 678 731 741 707 728 708 706 693 750 726 719 745 706 671 673 721 713 691 740 779 754 762 700 749 700 730 654 727 717 749 746 702 699 743 710 765 718 671 743 714 778 758 745 750 746 745 740 770 679 741 674 769 682 684 743 726 708 734 748 688 709 762 781 736 752 718 748 743 733 682 734 725 783 719 673 728 784 726 739 733 735 716 861 717 754 817 789 801 828 827 874 819 850 857 888 983 987 1033 1025 1114 1101 1111 1162 1080 1103 1136 1049 1038 947 972 949 913 950 955 952 982 965 1021 975 1042 1002 1006 954 1053 1019 952 1015 927 890 878 833 859 825 833 845 824 782 798 843 816 765 821 811 800 823 766 772 737 817 799 763 739 750 722 743 813 734 762 780 720 751 720 682 780 752 737 712 718 756 720 713 712 708 742 690 698 772 738 705 726 698 703 726 753 698 704 727 759 725 705 693 746 686 715 680 741 745 745 664 750 740 690 706 746 741 680 678 687 755 746 704 720 757 717 737 708 714 721 668 744 737 750 674 670 695 698 722 747 725 691 721 739 705 720 687 732 721 654 687 752 720 696 767 719 753 762 701 753 696 743 640 736 784 741 726 719 679 734 725 725 750 757 754 743 703 712 715 709 713 703 720 723 703 675 734 708 716 703 725 738 715 729 710 715 733 684 656 735 655 702 680 678 722 763 688 692 744 693 707 689 724 744 675 739 771 695 708 687 714 709 673 720 730 730 738 682 724 773 655 738 715 692 690 681 734 670 714 699 698 747 735 728 719 718 677 717 736 700 733 713 663 703 699 710 721 710 717 711 671 702 705 728 779 726 689 719 743 680 711 698 697 712 710 709 719 722 719 669 717 700 790 694 710 681 729 688 710 671 767 710 718 685 671 748 715 690 685 696 728 726 700 655 668 741 704 723 672 752 705 732 793 709 718 690 728 645 727 717 732 702 775 744 713 729 672 734 741 702 680 729 686 693 710 707 734 707 694 655 714 719 729 691 690 714 709 701 647 730 693 731 712 674 686 710 696 716 714 692 710 721 700 695 650 733 685 684 707 740 667 732 719 749 737 709 677 737 679 707 686 738 734 678 738 677 779 723 710 710 701 717 706 752 754 696 710 741 698 741 688 732 678 740 673 677 728 707 700 706 702 696 720 727 715 737 710 698 709 691 712 686 731 743 659 720 658 727 736 709 637 675 675 735 759 716 773 665 687 657 710 699 691 739 684 687 701 683 676 669 679 695 700 670 675 737 718 705 721 640 711 721 692 763 702 688 709 735 692 682 717 698 724 708 710 698 716 665 704 700 750 763 709 715 709 717 705 753 742 707 704 745 719 724 752 696 662 737 732 753 718 710 730 704 674 694 700 697 696 699 727 754 724 717 656 767 713 706 676 694 707 710 709 671 713 700 686 709 710 734 754 722 725 683 685 684 656 754 761 708 727 707 670 744 713 725 716 707 711 710 675 644 688 692 721 709 663 737 664 691 718 720 740 726 733 714 726 635 731 743 716 696 750 688 631 724 693 675 685 687 646 744 667 727 698 777 716 687 742 697 736 701 742 703 700 698 761 777 712 731 722 735 730 685 707 730 691 630 786 721 700 692 718 712 694 679 716 723 716 681 691 695 739 729 730 689 694 705 723 729 699 723 727 674 715 705 748 733 676 696 731 713 724 679 749 731 734 715 736 759 755 715 765 753 766 766 790 809 893 863 818 795 804 842 719 760 748 732 730 717 783 725 751 757 784 834 763 787 841 813 789 774 819 780 817 816 746 746 769 724 776 764 749 768 726 709 735 753 747 792 719 746 794 764 743 736 779 790 784 763 767 844 810 812 783 824 823 889 852 871 885 893 839 796 850 774 787 826 744 771 742 744 847 789 808 808 829 827 792 776 840 772 834 814 767 794 768 736 765 772 761 734 739 728 742 771 768 748 721 729 723 770 734 787 689 722 755 729 688 738 769 691 717 707 732 729 736 721 723 752 701 738 693 709 731 734 688 765 718 720 735 722 719 718 735 756 754 725 740 689 717 722 734 735 704 712 735 702 752 752 724 736 744 744 717 675 707 713 725 699 776 734 726 678 731 714 750 704 710 707 665 676 745 707 744 722 692 687 736 673 703 715 751 733 743 717 718 719 706 704 695 759 685 695 697 693 689 784 665 691 739 722 739 739 702 706 752 748 710 717 714 750 757 756 766 738 686 755 768 760 709 731 793 777 756 773 760 725 737 737 761 745 685 747 756 723 720 767 758 792 732 772 742 811 791 794 759 819 751 750 730 775 745 831 755 768 710 771 795 749 801 772 813 756 756 804 836 789 834 829 813 772 877 840 825 856 912 918 969 966 1011 1087 1229 1294 1410 1401 1401 1577 1511 1524 1518 1408 1337 1290 1230 1166 1138 1031 1060 1105 1098 1071 1030 1088 1093 1161 1221 1242 1269 1316 1313 1370 1294 1217 1214 1143 1121 1075 1028 963 865 958 892 881 897 895 842 867 807 818 854 842 858 897 871 862 827 822 782 751 763 792 801 786 772 787 768 743 731 724 753 757 701 727 775 734 796 719 713 765 743 728 750 732 728 741 756 723 721 674 750 713 717 745 742 719 745 707 723 701 706 715 723 695 778 748 739 758 720 708 747 718 708 733 743 766 676 684 717 657 698 790 718 724 687 731 701 751 734 717 701 673 736 748 762 733 700 726 690 739 694 724 714 697 706 727 747 741 731 724 706 721 761 699 743 711 749 725 718 750 717 748 756 736 715 690 744 718 738 716 744 726 779 832 748 767 804 766 805 779 778 816 827 809 780 763 734 741 774 769 804 755 749 724 769 753 774 790 729 751 814 736 819 812 793 724 750 803 778 803 751 783 717 764 768 732 753 760 753 714 740 744 712 690 776 710 768 760 708 715 673 717 752 720 736 700 697 674 759 676 642 723 739 701 747 715 683 722 699 708 709 709 693 637 714 720 700 737 675 729 701 671 740 665 707 760 642 720 654 728 666 684 709 699 678 674 669 685 712 700 736 692 703 743 654 692 695 698 694 711 686 690 741 710 707 689 759 689 673 723 680 773 722 716 760 720 672 737 651 708 711 690 680 672 699 684 684 736 668 645 692 682 688 708 705 672 723 699 627 689 684 691 679 695 705 688 703 709 662 727 659 659 698 670 689 736 750 733 704 685 711 715 699 727 661 674 686 749 665 741 694 715 682 702 691 674 680 680 677 723 687 711 656 708 690 709 692 724 725 691 739 743 698 683 687 676 669 711 708 649 688 726 704 666 672 723 714 667 711 662 657 669 702 651 658 692 713 686 694 675 716 675 652 641 706 676 705 733 706 655 717 710 729 638 692 765 649 694 712 680 689 665 689 680 733 654 699 647 672 680 685 712 614 647 688 692 677 624 631 679 679 652 688 694 683 673 660 727 712 658 688 701 691 642 685 660 705 659 676 713 655 687 734 721 686 692 685 702 718 700 663 727 737 723 716 679 718 702 661 671 650 678 724 686 676 689 710 648 722 667 694 658 687 630 694 680 670 686 693 653 690 704 680 693 623 694 694 663 714 707 734 667 637 718 673 616 728 691 709 709 647 621 711 694 695 655 678 707 718 686 687 666 676 694 654 645 668 679 693 659 720 659 685 681 692 724 730 670 687 681 699 670 687 726 657 674 671 700 711 699 715 699 674 671 686 707 630 623 740 731 677 682 672 735 657 717 678 727 715 681 722 688 664 658 714 693 695 691 724 701 658 750 722 711 707 727 715 726 741 724 681 676 789 699 694 733 741 732 758 695 696 709 725 767 744 768 751 714 747 794 747 749 766 803 741 814 803 794 744 772 759 744 742 737 761 745 713 756 684 706 740 762 714 711 720 754 740 671 746 739 800 729 695 701 795 744 736 747 670 760 644 678 693 716 683 747 678 687 675 668 711 731 701 702 617 714 679 721 687 682 711 695 652 665 664 694 652 683 680 670 678 722 685 655 734 682 688 694 681 725 641 697 679 701 687 692 697 716 673 719 677 693 657 668 701 694 703 684 662 668 677 682 719 687 694 639 688 687 690 714 700 671 688 708 710 728 645 677 670 680 651 690 658 647 710 719 715 706 690 691 687 699 670 704 753 656 637 661 672 643 705 740 651 674 686 742 735 688 702 724 654 755 726 694 774 708 714 685 703 684 708 757 711 697 679 657 666 654 676 692 678 681 695 669 696 672 694 664 695 726 677 705 673 736 701 701 735 660 758 680 676 685 686 675 683 750 747 700 711 660 694 632 686 709 666 665 703 711 694 712 705 710 645 687 677 663 695 677 722 679 703 706 691 694 677 695 680 654 645 726 743 684 723 722 719 691 672 654 702 669 703 678 727 723 708 685 700 779 747 758 728 787 756 709 719 764 700 702 707 678 709 697 717 734 716 728 779 711 726 761 758 729 702 769 786 824 760 756 853 854 871 877 925 942 981 1073 1130 1225 1165 1224 1234 1185 1145 1105 1053 1016 1039 962 992 964 937 894 916 943 875 934 937 921 997 1004 1004 1014 1037 1037 1037 998 1008 963 975 942 948 920 903 874 891 819 863 794 780 791 800 811 797 819 702 803 793 770 728 769 774 759 719 737 782 714 735 748 785 758 662 683 735 755 695 669 735 675 759 693 681 696 732 633 697 695 685 702 664 678 706 707 703 677 705 654 676 688 723 713 713 646 706 664 710 652 686 738 706 666 717 706 667 673 683 655 661 662 677 710 647 708 649 661 625 630 668 693 731 661 693 709 690 612 665 653 615 662 718 715 694 667 664 667 706 714 662 727 661 686 730 660 658 730 662 699 668 712 684 725 695 711 697 708 697 659 693 635 758 671 682 682 665 737 729 663 709 702 684 725 718 710 726 728 734 685 700 723 716 741 645 683 684 666 675 683 689 661 678 684 742 662 682 703 739 655 687 706 714 702 765 690 715 719 655 682 691 652 723 690 696 709 696 640 683 691 676 678 665 685 728 707 652 722 648 659 693 717 715 698 709 681 731 692 674 709 670 723 649 705 661 679 694 685 692 697 683 686 709 674 654 679 729 641 698 663 702 654 659 716 739 671 663 700 717 698 747 684 652 701 673 691 661 712 626 654 690 689 668 700 713 656 696 728 634 647 655 667 695 675 637 664 680 691 704 707 708 682 670 653 662 675 638 627 678 664 683 717 677 680 699 708 664 688 694 651 659 705 658 738 716 688 713 684 686 660 722 702 656 690 651 692 663 705 661 650 637 648 688 672 673 662 657 695 679 681 706 675 640 645 665 707 676 628 674 659 723 670 661 688 695 703 709 665 644 726 685 685 677 709 656 703 640 647 665 704 619 683 689 650 621 696 654 630 671 663 650 651 649 632 671 683 663 694 635 667 660 656 671 691 683 685 711 672 706 694 679 683 647 707 633 662 635 677 660 646 665 656 662 672 668 676 666 681 677 651 669 668 679 701 670 673 654 663 704 693 670 696 652 701 685 677 664 670 693 681 668 660 676 691 675 663 664 670 700 654 666 605 634 629 666 653 598 668 675 656 726 687 715 694 666 695 700 685 670 655 682 705 696 696 705 712 649 646 689 699 670 664 672 674 665 737 652 645 664 697 665 703 703 701 696 692 691 702 680 706 663 688 684 660 713 711 686 652 697 653 686 624 636 680 633 697 648 675 648 684 675 668 658 706 671 657 654 661 665 646 636 654 664 617 670 695 681 626 705 657 624 667 621 697 677 647 694 674 676 672 711 711 690 714 661 666 640 673 671 624 654 664 680 639 706 670 666 649 644 687 661 681 661 650 639 669 661 733 639 683 690 695 664 693 661 727 686 677 626 693 622 663 689 682 695 665 697 667 675 693 713 705 687 688 666 714 704 697 724 707 701 721 739 708 726 718 723 764 753 735 824 780 758 785 800 837 746 761 719 740 769 761 726 748 703 708 708 759 702 743 724 715 779 690 718 760 736 700 741 758 722 700 766 769 699 776 782 740 717 714 759 734 739 717 704 696 686 680 736 717 722 744 740 722 769 720 764 774 847 778 777 759 802 773 762 789 758 724 702 687 654 698 708 680 712 740 706 718 697 711 671 726 741 726 723 706 698 732 750 700 746 711 716 717 662 710 668 708 709 694 700 706 735 718 703 706 680 726 659 703 719 683 698 675 672 709 659 678 670 666 704 657 645</counts>
			</dataPoints>
		</scan>
	</xrdMeasurement>
</xrdMeasurements>
