<?xml version="1.0"?>
<xrdMeasurements xmlns="http://www.xrdml.com/XRDMeasurement/2.3" xmlns:xsi="http://www.w3.org/2001/XMLSchema-instance" xsi:schemaLocation="http://www.xrdml.com/XRDMeasurement/2.3 http://www.xrdml.com/XRDMeasurement/2.3/XRDMeasurement.xsd" status="Completed" recordIdentifier="{BAFB2B0E-5B6B-4CC3-9E8E-DB99D8DD9123}">
	<comment>
		<entry/>
	</comment>
	<sample type="To be analyzed">
		<id>GPSS_Li1p5Mn0p5Sc0p4V0p1Cl4_111725_691b7e20f3837ac4a0a99375</id>
		<name></name>
		<preparedBy></preparedBy>
	</sample>
	<xrdMeasurement measurementType="Scan" status="Completed" sampleMode="Reflection">
		<usedWavelength intended="K-Alpha 1">
			<kAlpha1 unit="Angstrom">1.5405980</kAlpha1>
			<kAlpha2 unit="Angstrom">1.5444260</kAlpha2>
			<kBeta unit="Angstrom">1.3922500</kBeta>
			<ratioKAlpha2KAlpha1>0.5000</ratioKAlpha2KAlpha1>
		</usedWavelength>
		<incidentBeamPath>
			<radius unit="mm">145.00</radius>
			<xRayTube id="1010048" name="Empyrean Cu LFF HR (9430 033 7310x)">
				<tension unit="kV">40.0</tension>
				<current unit="mA">15.0</current>
				<anodeMaterial>Cu</anodeMaterial>
				<focus type="Line">
					<length unit="mm">12.0</length>
					<width unit="mm">0.4</width>
					<takeOffAngle unit="deg">6.0</takeOffAngle>
				</focus>
			</xRayTube>
			<sollerSlit id="21010002" name="Soller slits 0.04 rad.">
				<opening unit="rad">0.0400</opening>
			</sollerSlit>
			<mask id="22031000" name="Fixed mask 13 mm">
				<width unit="mm">9.00</width>
			</mask>
			<divergenceSlit id="22120001" name="Divergence slit 1°" xsi:type="fixedDivergenceSlitType">
				<distanceToSample unit="mm">50.00</distanceToSample>
				<height unit="mm">1.52</height>
			</divergenceSlit>
		</incidentBeamPath>
		<sampleMovement xsi:type="spinningSampleMovementType">
			<spinnerRevolutionTime unit="seconds">1.0</spinnerRevolutionTime>
		</sampleMovement>
		<diffractedBeamPath>
			<radius unit="mm">145.00</radius>
			<antiScatterSlit id="22090040" name="AS slit 9 mm (PIXcel)" xsi:type="fixedAntiScatterSlitType">
				<height unit="mm">9.00</height>
			</antiScatterSlit>
			<sollerSlit id="21020003" name="Large Soller slits 0.04 rad.">
				<opening unit="rad">0.0400</opening>
			</sollerSlit>
			<filter id="20030001" name="Large beta-filter Nickel">
				<material>Ni</material>
				<thickness unit="mm">0.020</thickness>
			</filter>
			<detector id="7010019" name="PIXcel1D-Medipix3 detector" xsi:type="rtmsDetectorType">
				<phd unit="keV">
					<lowerLevel>4.02</lowerLevel>
					<upperLevel>11.27</upperLevel>
				</phd>
				<mode>Scanning</mode>
				<activeLength unit="deg">5.542</activeLength>
			</detector>
		</diffractedBeamPath>
		<scan appendNumber="0" mode="Continuous" scanAxis="Gonio" status="Completed">
			<header>
				<startTimeStamp>2025-11-20T20:04:08-08:00</startTimeStamp>
				<endTimeStamp>2025-11-20T20:12:15-08:00</endTimeStamp>
				<author>
					<name>AutomatedUser</name>
				</author>
				<source>
					<applicationSoftware version="1.7b (136)">PANalytical Aeris Instrument Suite</applicationSoftware>
					<instrumentControlSoftware version="3.2.00000000 20240306">AERIS</instrumentControlSoftware>
					<instrumentID>950485</instrumentID>
				</source>
			</header>
			<dataPoints>
				<positions axis="2Theta" unit="deg">
					<startPosition>10.00943322</startPosition>
					<endPosition>99.99442286</endPosition>
				</positions>
				<positions axis="Omega" unit="deg">
					<startPosition>5.00471661</startPosition>
					<endPosition>49.99721143</endPosition>
				</positions>
				<commonCountingTime unit="seconds">12.495</commonCountingTime>
				<counts unit="counts">2657 2733 2702 2683 2801 2716 2701 2619 2670 2667 2785 2651 2698 2592 2696 2568 2654 2733 2766 2608 2650 2687 2663 2672 2620 2752 2747 2791 2579 2637 2675 2669 2686 2666 2720 2612 2622 2692 2698 2686 2665 2740 2731 2780 2696 2660 2676 2746 2745 2679 2618 2611 2770 2745 2625 2653 2825 2646 2794 2740 2814 2721 2695 2762 2736 2778 2717 2786 2701 2699 2765 2703 2683 2760 2694 2666 2641 2764 2716 2751 2680 2895 2615 2729 2786 2767 2620 2727 2746 2687 2780 2694 2695 2829 2757 2723 2736 2650 2714 2770 2772 2748 2618 2771 2870 2554 2792 2639 2708 2744 2722 2724 2717 2683 2679 2627 2770 2770 2738 2662 2711 2822 2643 2772 2685 2738 2745 2738 2698 2739 2687 2673 2684 2653 2723 2613 2693 2714 2591 2735 2675 2796 2658 2660 2650 2626 2668 2696 2663 2625 2722 2731 2644 2740 2788 2654 2641 2593 2639 2663 2631 2648 2662 2700 2710 2739 2677 2781 2605 2678 2661 2678 2716 2632 2726 2698 2636 2594 2672 2590 2664 2656 2706 2680 2648 2753 2655 2772 2653 2573 2701 2767 2665 2644 2609 2489 2665 2591 2660 2596 2642 2603 2649 2703 2702 2739 2594 2656 2646 2625 2678 2694 2601 2643 2642 2644 2525 2553 2686 2639 2582 2654 2681 2671 2603 2599 2737 2673 2628 2706 2701 2571 2651 2556 2523 2619 2573 2548 2488 2575 2598 2675 2598 2582 2534 2555 2558 2628 2645 2629 2642 2543 2542 2524 2552 2571 2588 2702 2586 2659 2599 2563 2576 2605 2603 2680 2619 2659 2580 2589 2579 2644 2555 2592 2557 2691 2632 2606 2686 2588 2623 2553 2683 2652 2637 2579 2614 2563 2592 2628 2614 2657 2642 2601 2691 2605 2672 2710 2681 2570 2753 2604 2651 2726 2670 2635 2694 2716 2741 2701 2685 2630 2652 2681 2721 2639 2654 2637 2696 2644 2811 2617 2666 2627 2738 2764 2778 2790 2767 2643 2781 2792 2800 2729 2730 2847 2792 2653 2809 2687 2718 2847 2811 2826 2771 2783 2777 2860 2858 2860 2926 2853 2866 2857 2874 2800 2963 2939 2918 2902 2889 2915 2988 2908 2912 2882 2840 2912 2794 3020 3092 2983 3046 3028 2960 2989 3022 2952 3085 3005 3003 3009 3112 3059 3001 3049 3057 3128 3106 2943 3205 3003 3055 3146 3095 3047 3148 3120 3106 3091 3103 3183 3075 3156 3166 3174 3140 3220 3256 3286 3298 3285 3354 3337 3361 3323 3390 3408 3569 3397 3426 3418 3485 3494 3435 3523 3578 3577 3645 3609 3659 3700 3653 3740 3792 3692 3898 3755 3884 3814 3881 3840 3991 3948 4022 4120 4101 4190 4155 4261 4108 4222 4253 4338 4319 4270 4257 4488 4432 4335 4547 4374 4454 4645 4532 4486 4472 4482 4461 4406 4366 4328 4421 4391 4282 4187 4131 4002 4003 3990 3760 3749 3613 3592 3410 3424 3424 3392 3496 3284 3353 3131 3247 3153 3078 3049 3101 3168 3044 3090 3096 3011 3087 3057 3060 3102 3019 3105 2998 3014 3046 3053 3151 3079 2956 3030 3024 2980 3025 2871 2956 3019 3073 2936 3074 2948 2930 3053 3044 2829 2894 2871 2941 3014 2948 2965 2894 2909 2916 2885 2949 2871 2977 2916 2806 2928 2897 2823 3007 2945 2871 2898 2902 2930 2982 2844 2807 2912 2861 2882 2804 2856 2837 2868 2839 2848 2825 2799 2875 2805 2916 2816 2794 2835 2899 2817 2761 2837 2779 2859 2672 2892 2831 2835 2811 2859 2752 2840 2831 2731 2804 2752 2834 2827 2883 2769 2791 2851 2782 2728 2703 2668 2729 2706 2669 2704 2752 2661 2713 2629 2604 2623 2701 2733 2722 2636 2639 2682 2642 2676 2684 2629 2612 2652 2687 2642 2706 2637 2646 2710 2650 2545 2718 2732 2645 2641 2643 2627 2649 2650 2689 2634 2655 2632 2692 2563 2662 2641 2656 2657 2600 2702 2616 2652 2584 2585 2580 2653 2631 2637 2750 2764 2577 2579 2606 2602 2595 2729 2541 2595 2599 2542 2543 2626 2611 2610 2557 2559 2598 2592 2550 2560 2577 2592 2491 2571 2690 2613 2616 2628 2590 2612 2447 2586 2588 2570 2533 2493 2588 2600 2532 2551 2612 2547 2528 2486 2550 2534 2554 2486 2562 2602 2518 2564 2603 2488 2532 2600 2547 2522 2558 2570 2488 2541 2495 2577 2479 2594 2651 2538 2605 2613 2609 2514 2543 2522 2586 2582 2623 2605 2427 2623 2518 2542 2549 2460 2550 2544 2563 2554 2625 2432 2588 2601 2675 2515 2496 2544 2484 2558 2581 2567 2513 2502 2479 2388 2412 2490 2380 2582 2529 2492 2450 2481 2649 2488 2511 2509 2501 2501 2490 2404 2463 2571 2418 2452 2416 2452 2436 2408 2491 2456 2463 2445 2385 2540 2527 2444 2425 2400 2382 2473 2373 2365 2383 2378 2431 2493 2499 2446 2522 2466 2601 2432 2424 2446 2491 2381 2598 2473 2449 2454 2441 2488 2312 2374 2397 2366 2336 2423 2385 2440 2364 2426 2431 2431 2379 2382 2358 2457 2432 2405 2395 2482 2398 2363 2428 2347 2349 2442 2404 2345 2365 2323 2328 2375 2283 2426 2286 2307 2346 2291 2251 2404 2285 2317 2397 2309 2255 2359 2349 2374 2376 2367 2316 2320 2363 2363 2327 2281 2378 2326 2336 2283 2274 2376 2310 2376 2306 2292 2271 2331 2373 2313 2372 2375 2359 2284 2372 2390 2214 2379 2206 2340 2369 2298 2186 2272 2302 2286 2266 2235 2329 2199 2264 2306 2281 2332 2253 2263 2306 2265 2398 2242 2313 2257 2291 2302 2285 2373 2198 2398 2227 2342 2288 2308 2175 2311 2359 2258 2315 2226 2183 2238 2196 2267 2221 2274 2305 2389 2234 2342 2268 2268 2249 2336 2207 2233 2239 2264 2271 2222 2329 2274 2138 2344 2260 2276 2260 2169 2257 2187 2218 2276 2254 2172 2319 2220 2219 2234 2157 2206 2270 2309 2246 2267 2226 2087 2144 2239 2243 2245 2187 2224 2187 2284 2244 2234 2239 2272 2162 2231 2174 2227 2232 2207 2175 2181 2293 2265 2172 2202 2274 2147 2262 2167 2308 2169 2125 2224 2207 2199 2223 2238 2229 2152 2307 2161 2251 2240 2220 2255 2253 2237 2229 2241 2221 2349 2222 2267 2147 2219 2157 2211 2213 2212 2169 2129 2276 2200 2141 2175 2304 2272 2197 2201 2203 2247 2251 2216 2319 2280 2165 2251 2148 2214 2224 2268 2268 2199 2236 2255 2276 2182 2231 2174 2245 2155 2176 2269 2220 2297 2231 2249 2253 2267 2186 2153 2275 2183 2222 2295 2299 2237 2215 2208 2267 2169 2213 2203 2170 2178 2162 2179 2319 2152 2236 2096 2212 2193 2237 2120 2202 2256 2188 2154 2127 2203 2175 2208 2144 2141 2190 2180 2216 2150 2115 2186 2144 2155 2183 2133 2180 2181 2108 2110 2273 2194 2206 2133 2158 2199 2159 2071 2087 2156 2034 2113 2144 1981 2114 2061 2150 2074 2135 2108 2126 2133 2167 2034 2081 2015 2105 1978 2156 2089 2103 2010 2101 2061 2048 2064 2030 2077 2100 1998 1911 2075 2004 1956 2074 1979 2075 1919 2101 2023 2018 1985 2012 2006 2020 1924 1934 1978 1918 1938 1921 1992 1910 1968 1965 1924 1983 1866 1882 1986 1942 1984 1820 1905 1918 1972 1945 1971 1885 1926 1893 1927 1941 1976 1931 1883 1945 1835 1941 1828 1865 1837 1837 1937 1816 1857 1838 1802 1784 1839 1863 1905 1843 1859 1886 1822 1863 1872 1839 1802 1838 1834 1835 1782 1784 1723 1898 1815 1776 1779 1759 1766 1862 1755 1741 1769 1743 1755 1810 1762 1825 1740 1680 1749 1708 1715 1718 1756 1847 1668 1826 1701 1762 1727 1673 1737 1720 1760 1688 1768 1759 1704 1675 1690 1698 1726 1695 1681 1622 1664 1606 1636 1613 1645 1674 1685 1642 1669 1649 1651 1620 1675 1646 1711 1646 1645 1675 1695 1717 1677 1655 1648 1622 1694 1625 1615 1638 1649 1619 1667 1568 1663 1652 1583 1609 1629 1598 1638 1573 1619 1632 1604 1688 1623 1650 1713 1586 1645 1591 1567 1587 1663 1652 1599 1697 1588 1606 1543 1642 1552 1661 1655 1728 1581 1544 1695 1619 1587 1585 1543 1616 1594 1597 1678 1593 1616 1576 1682 1638 1586 1601 1630 1666 1649 1616 1605 1672 1591 1567 1730 1658 1576 1629 1584 1596 1590 1587 1641 1519 1598 1626 1535 1561 1607 1603 1612 1580 1515 1579 1570 1530 1597 1566 1633 1531 1608 1528 1646 1588 1639 1596 1582 1597 1638 1644 1574 1573 1630 1566 1664 1625 1604 1604 1658 1516 1588 1545 1555 1538 1630 1608 1586 1643 1618 1649 1649 1648 1625 1519 1697 1693 1658 1671 1561 1656 1639 1569 1601 1594 1623 1570 1648 1626 1587 1597 1590 1641 1662 1591 1636 1643 1614 1627 1613 1590 1719 1705 1617 1671 1599 1539 1593 1590 1576 1731 1583 1632 1647 1682 1573 1670 1682 1667 1611 1586 1611 1589 1633 1599 1708 1542 1576 1580 1628 1719 1581 1649 1661 1627 1620 1549 1513 1622 1554 1665 1615 1657 1559 1610 1623 1620 1606 1593 1604 1581 1629 1582 1574 1562 1567 1539 1607 1643 1582 1606 1589 1506 1568 1621 1592 1551 1502 1532 1516 1573 1513 1620 1504 1589 1540 1594 1554 1564 1547 1466 1547 1457 1546 1581 1439 1523 1549 1533 1554 1532 1533 1487 1476 1478 1492 1490 1511 1469 1513 1529 1429 1483 1454 1432 1512 1438 1487 1466 1486 1411 1431 1494 1436 1453 1427 1415 1552 1419 1370 1414 1447 1440 1475 1444 1392 1416 1501 1365 1440 1385 1395 1430 1364 1510 1419 1480 1379 1395 1417 1441 1414 1380 1403 1354 1446 1381 1337 1362 1372 1375 1428 1363 1410 1311 1378 1355 1347 1317 1340 1368 1323 1389 1362 1365 1374 1418 1337 1431 1348 1336 1370 1395 1368 1360 1283 1356 1303 1339 1353 1281 1378 1317 1363 1280 1444 1373 1282 1387 1332 1379 1391 1381 1441 1372 1412 1391 1403 1445 1381 1488 1411 1403 1467 1452 1406 1472 1455 1434 1398 1527 1443 1562 1437 1450 1524 1518 1507 1545 1555 1541 1499 1587 1647 1644 1641 1699 1664 1697 1683 1747 1712 1747 1772 1814 1889 1820 1825 1846 1802 1859 1819 1896 1792 1806 1793 1769 1689 1702 1665 1651 1545 1444 1545 1513 1523 1413 1359 1362 1323 1339 1256 1360 1397 1330 1278 1177 1282 1165 1233 1195 1235 1125 1242 1275 1190 1213 1225 1150 1208 1214 1232 1170 1290 1187 1206 1094 1268 1272 1254 1220 1203 1200 1201 1286 1209 1245 1249 1284 1248 1263 1206 1242 1303 1348 1287 1335 1327 1400 1408 1443 1381 1421 1456 1461 1521 1476 1498 1521 1447 1584 1556 1631 1575 1650 1690 1743 1702 1755 1765 1784 1793 1915 1906 1978 2060 2028 2103 2143 2171 2460 2348 2371 2579 2503 2640 2670 2668 2786 2902 3029 3178 3145 3007 3183 3176 3257 3338 3359 3280 3306 3380 3247 3277 3183 3140 3086 2965 2831 2888 2745 2667 2564 2414 2401 2320 2274 2255 2177 2065 2040 1980 1876 1904 1896 1751 1767 1686 1753 1686 1717 1560 1547 1492 1486 1438 1335 1405 1356 1294 1318 1243 1279 1218 1213 1261 1241 1169 1113 1124 1125 1167 1169 1125 1151 1119 1166 1030 1113 1043 1065 1083 1053 1021 1128 1030 1091 1063 1071 1100 1048 1033 1055 1034 997 993 1074 1003 1017 1077 1037 1071 1033 1072 1031 1047 991 1100 1026 1023 1065 1006 999 1036 985 996 971 1005 1003 1036 1018 1049 1038 1015 1038 996 1095 1018 1066 1064 1019 983 978 972 1052 1047 991 1077 1054 1017 1019 1000 1001 999 997 996 1044 1032 1031 1025 1021 1004 961 1054 988 964 1021 992 995 1043 982 1123 1019 1002 1026 1044 1005 972 986 955 998 963 1029 1006 987 983 972 985 941 972 1016 984 1019 919 1009 981 983 983 975 983 967 1041 970 1023 1026 981 889 956 896 977 1003 984 1011 989 1069 1014 992 987 997 1006 999 975 957 960 986 987 971 987 1017 1014 952 1003 990 997 1019 968 985 970 1015 1010 1008 1039 990 1001 969 1028 948 970 950 919 925 979 928 910 910 933 960 987 923 910 967 952 924 966 957 895 925 929 953 883 908 910 973 905 899 921 970 837 929 951 954 919 958 900 916 944 911 902 888 881 889 937 919 912 925 896 882 992 910 906 931 963 918 881 926 956 894 876 975 929 939 915 922 968 884 951 911 916 941 925 990 969 940 899 920 998 951 889 931 952 924 939 923 903 922 966 894 960 887 886 930 935 955 1008 968 875 953 929 1025 915 930 979 945 946 936 914 919 981 958 950 969 931 979 988 941 969 975 959 988 952 974 976 993 1023 941 939 965 974 953 988 997 1055 1027 1027 945 1007 998 1002 1010 941 982 994 1032 1021 1043 1069 1057 1047 1015 1031 1064 1087 1114 1106 1177 1146 1177 1256 1281 1283 1314 1407 1378 1466 1547 1543 1579 1580 1620 1694 1666 1836 1813 1873 1966 1922 2126 2163 2126 2231 2338 2347 2421 2459 2676 2826 2865 2915 3105 3235 3426 3571 3723 3773 3881 4201 4307 4449 4629 4835 5122 5231 5419 5460 5688 5766 6120 6120 6176 6167 6486 6266 6281 6266 6131 6165 6066 5954 5948 5632 5592 5428 5233 5044 4810 4455 4621 4226 3972 3794 3536 3337 3162 2870 2727 2606 2485 2308 2163 2064 1807 1730 1640 1565 1487 1387 1348 1286 1282 1277 1193 1174 1172 1182 1108 1098 1055 997 990 1009 985 994 1043 958 964 954 982 952 889 963 891 940 898 923 929 939 921 948 925 972 930 905 934 905 937 916 887 926 920 886 871 947 922 926 878 885 935 923 939 863 886 945 913 863 920 873 817 837 883 867 903 864 889 891 865 936 941 849 865 955 847 909 862 843 865 906 856 844 877 855 889 909 939 844 919 918 906 896 882 873 858 862 873 899 895 859 815 855 860 875 860 863 908 841 866 865 875 828 863 840 827 840 922 848 911 850 868 847 872 902 847 872 862 861 839 857 831 879 883 870 846 827 857 862 893 918 859 851 904 816 859 831 834 806 786 751 832 831 894 824 822 828 872 790 840 836 902 811 820 834 831 875 826 792 771 858 777 866 799 802 862 869 792 808 794 847 853 818 836 868 796 862 859 803 819 771 805 790 826 866 839 805 869 840 828 770 771 821 865 840 840 882 822 855 840 852 878 849 843 852 808 848 873 816 795 790 859 811 853 804 814 822 866 831 799 855 813 802 841 842 792 795 803 855 830 847 811 837 816 797 856 817 918 836 852 875 816 863 846 833 849 849 777 867 852 819 849 878 831 879 857 867 856 799 805 859 829 798 849 813 804 837 810 864 761 870 775 754 786 812 804 783 792 818 800 774 796 786 795 819 772 765 723 724 777 780 783 805 750 814 736 807 754 816 803 800 748 769 747 763 782 739 747 692 796 742 764 735 739 759 792 724 744 773 725 777 754 744 722 719 777 745 745 702 729 783 767 772 774 755 697 739 746 746 707 709 713 728 752 744 761 751 750 710 803 748 808 738 749 709 711 752 790 758 700 762 758 778 749 727 711 762 768 744 770 732 709 788 753 710 731 737 749 788 725 722 773 723 746 720 714 770 786 732 752 781 713 738 740 745 695 732 711 720 743 760 732 752 749 747 757 783 738 726 761 727 755 757 754 756 740 741 761 755 754 731 738 787 707 729 742 764 705 761 739 720 747 740 717 744 676 722 707 793 736 658 741 727 750 732 735 695 726 719 750 738 751 722 760 808 730 723 705 749 751 741 723 738 697 710 757 742 715 746 674 705 805 745 675 715 709 703 757 710 788 674 732 721 691 742 724 763 761 774 708 721 712 766 742 734 768 721 743 714 736 688 748 695 720 770 684 714 781 702 719 693 740 699 697 712 736 745 702 759 747 726 744 722 738 774 765 697 744 720 721 752 694 717 696 687 732 740 714 740 728 752 736 711 712 687 725 710 723 702 722 731 706 727 651 686 694 707 756 739 780 732 760 739 711 715 707 717 720 676 708 700 713 723 709 706 694 722 713 717 703 735 758 724 760 713 696 682 743 710 737 711 721 788 740 748 741 695 747 713 744 753 747 697 733 736 751 707 755 783 754 745 754 709 750 705 735 703 729 789 736 757 660 705 777 737 773 740 691 716 715 764 735 745 717 744 726 727 689 696 710 709 747 760 664 695 719 697 698 697 706 675 722 704 731 698 708 692 673 682 760 703 741 659 711 686 703 713 758 742 723 745 720 635 707 690 694 726 685 740 678 693 708 713 662 754 720 721 698 755 720 685 688 694 655 709 750 716 686 712 742 713 727 706 778 743 718 656 717 798 724 694 677 662 716 684 660 687 727 743 705 717 743 702 679 694 753 701 741 672 721 722 694 704 704 741 700 686 729 726 779 692 718 706 734 741 700 736 744 756 717 763 728 694 681 693 744 685 710 680 712 684 712 743 729 675 687 658 737 694 695 727 709 694 672 687 645 685 694 685 682 688 668 697 755 720 732 701 697 678 697 716 637 672 723 711 731 694 704 711 684 704 677 685 708 765 751 720 759 656 720 737 703 681 711 710 695 650 686 718 675 737 727 703 715 722 672 712 717 722 722 664 740 714 697 734 762 734 696 747 721 667 712 673 712 701 721 689 723 686 731 714 714 733 703 682 709 751 729 721 698 747 709 740 714 734 692 685 686 696 702 706 719 698 667 713 725 676 729 721 687 728 673 714 754 716 679 670 697 679 726 729 767 665 733 786 703 746 732 771 784 725 748 827 783 756 748 768 789 830 803 788 803 832 831 850 847 850 797 840 887 892 848 911 918 947 995 996 1020 990 1002 1064 1032 1024 1008 1051 1053 1105 1112 1141 1047 1041 1091 1106 963 1090 1072 1068 1106 1048 1087 1051 984 1026 1066 1038 962 1009 990 975 954 963 921 905 900 910 867 936 917 929 937 868 931 892 896 847 891 780 886 819 797 809 783 749 827 771 763 696 748 756 728 761 720 669 742 641 770 687 735 728 659 743 713 740 678 662 709 666 735 709 730 737 689 691 661 698 648 689 684 700 651 683 712 690 665 714 694 719 743 681 745 701 665 722 655 661 630 701 708 676 695 700 705 727 666 681 690 701 702 687 672 719 671 691 707 751 737 692 707 710 678 742 670 661 703 721 676 733 683 656 714 651 692 707 658 710 748 696 695 685 652 659 709 633 660 698 651 666 732 698 662 699 645 703 714 621 720 727 673 715 601 694 698 701 714 677 635 695 629 645 647 671 695 660 650 642 651 655 632 706 692 746 686 681 637 669 719 668 707 660 740 695 675 690 691 674 657 668 680 684 650 643 703 673 696 690 676 705 651 694 694 676 699 710 721 667 660 623 689 683 632 686 689 653 696 683 689 657 654 724 675 674 708 648 713 689 672 678 696 686 677 681 630 661 706 701 677 650 694 669 681 696 720 645 688 726 713 681 745 716 729 669 682 706 654 691 747 649 742 658 677 656 709 699 674 679 683 689 724 724 733 754 693 673 700 710 709 693 702 698 712 729 734 702 693 659 711 733 730 706 718 697 697 720 688 707 731 711 745 693 703 707 736 681 761 699 719 728 716 727 708 716 725 734 728 727 691 762 774 739 777 746 741 746 777 812 848 801 809 840 861 911 984 972 1004 1052 1024 1068 1087 1166 1136 1124 1204 1205 1238 1299 1277 1265 1411 1386 1390 1525 1595 1603 1588 1608 1798 1826 1892 1964 2074 2121 2256 2348 2421 2393 2644 2721 2726 2766 2930 2953 3050 3139 3191 3270 3476 3416 3447 3507 3424 3354 3484 3403 3433 3302 3319 3282 3281 3277 3013 3048 3052 2944 2798 2651 2674 2654 2456 2505 2441 2270 2275 2219 2269 2041 2086 1958 1903 1784 1816 1826 1738 1678 1524 1594 1488 1504 1492 1396 1355 1300 1303 1161 1208 1169 1134 1095 1120 1046 989 1002 1001 937 914 883 858 827 839 811 805 841 843 762 759 749 781 716 763 719 721 758 717 763 698 724 685 683 713 711 694 708 707 741 688 785 699 628 758 701 687 693 737 684 669 692 679 684 730 678 693 651 664 680 676 705 681 735 671 650 644 658 743 721 738 661 648 645 702 660 666 680 607 700 688 662 633 660 699 631 635 663 655 685 667 704 652 679 634 676 629 629 664 642 665 665 675 656 652 672 684 678 661 688 633 661 630 649 635 723 669 692 659 637 652 690 658 663 665 710 670 634 667 646 662 635 678 638 689 675 729 700 696 653 706 663 674 746 713 733 732 685 727 731 755 694 723 765 797 775 766 744 806 787 794 844 817 831 824 847 860 912 918 876 878 881 878 874 893 887 957 935 932 926 962 934 949 903 957 840 927 897 829 922 858 865 834 824 888 849 841 802 777 774 781 776 731 766 724 735 731 691 657 640 690 663 701 695 670 636 687 676 686 638 630 636 614 653 676 652 648 645 660 648 656 614 597 636 628 688 568 635 583 642 624 610 653 657 623 598 642 631 610 648 618 593 670 666 592 641 653 599 650 629 606 603 549 634 645 611 641 592 635 623 612 595 580 664 578 613 617 655 618 637 633 651 617 644 544 590 620 595 634 604 631 568 573 656 590 588 576 626 569 638 585 616 629 593 611 644 621 614 628 645 612 568 606 589 585 616 617 556 657 652 602 613 606 540 591 640 600 560 581 612 643 615 600 614 618 630 635 600 612 621 595 674 581 636 563 610 596 606 616 585 599 620 591 603 589 615 560 623 631 613 554 621 611 586 586 595 647 575 611 589 597 598 601 614 610 581 618 609 615 614 580 610 618 615 608 601 630 553 583 624 618 602 584 598 608 615 630 623 635 617 641 651 635 637 575 621 566 649 579 632 550 642 572 619 590 613 564 616 617 615 590 596 653 627 654 622 643 661 636 654 592 633 615 557 574 653 622 624 641 600 628 567 633 595 621 659 616 597 652 609 643 618 613 643 609 589 579 613 596 632 646 609 563 566 570 579 554 584 603 618 559 635 617 559 608 549 599 618 593 584 611 633 573 565 545 545 582 625 618 580 565 618 567 580 576 596 591 591 609 574 579 602 528 590 573 589 523 578 601 604 563 557 593 587 609 567 616 564 578 600 570 581 600 652 577 592 614 586 590 554 637 600 528 612 605 600 590 546 598 579 560 543 544 581 586 592 558 587 554 620 570 582 585 549 588 549 581 544 619 574 576 619 557 618 599 613 588 608 578 631 605 620 578 594 596 569 587 607 603 596 602 588 605 622 547 570 587 590 529 584 612 567 605 557 615 579 620 588 585 543 607 546 552 587 570 574 584 594 607 590 577 576 564 599 539 594 573 594 545 573 579 597 620 594 605 584 578 501 601 591 624 540 565 611 598 568 603 567 593 545 639 573 620 622 610 578 567 542 602 576 559 565 575 557 582 568 591 587 612 589 622 578 627 597 587 518 594 551 607 569 581 561 564 563 573 586 570 545 576 508 583 574 588 614 560 579 578 558 566 568 589 589 594 571 555 532 582 573 574 601 614 573 579 548 600 615 580 576 539 587 611 617 589 627 596 587 602 614 603 617 571 653 607 657 594 612 590 644 601 606 652 629 677 660 597 650 666 667 591 684 653 624 647 632 633 661 642 665 650 621 669 668 597 658 661 682 632 645 663 629 621 620 625 614 632 637 644 646 637 722 639 660 652 632 693 682 686 675 715 693 747 746 741 742 780 778 847 770 798 821 862 812 874 918 899 914 978 930 930 992 926 1020 1069 1055 990 1037 966 1025 1020 1060 1051 1032 989 999 1017 1012 1036 979 1045 956 967 967 907 979 958 919 940 893 897 831 842 863 808 812 844 810 845 765 820 803 764 774 756 734 726 749 698 716 684 710 681 674 730 742 680 670 631 646 647 675 659 632 609 626 622 640 634 595 596 616 622 607 595 582 585 639 623 591 574 622 619 590 567 566 587 604 552 601 571 631 582 597 581 586 570 568 590 632 596 563 593 595 621 570 622 592 574 624 616 586 562 600 608 578 582 577 600 608 626 543 612 566 603 591 551 566 594 571 577 592 580 588 583 589 549 523 613 618 512 606 627 547 587 587 599 599 581 602 528 576 577 557 550 571 639 567 584 565 553 529 544 563 573 580 591 589 579 569 579 517 562 581 578 579 618 567 600 617 597 589 566 607 583 571 574 596 594 625 581 583 588 590 575 555 553 552 587 560 589 600 570 606 599 603 609 589 571 585 611 557 608 619 592 524 639 638 589 607 629 621 653 640 617 664 628 637 669 674 649 651 670 714 681 676 704 713 728 762 751 762 732 784 753 848 847 842 860 893 961 982 923 989 1041 1007 1025 1118 1115 1096 1126 1175 1174 1143 1168 1305 1207 1245 1287 1289 1303 1305 1241 1335 1325 1295 1265 1268 1228 1242 1198 1231 1215 1193 1181 1188 1149 1148 1131 1149 1125 1076 989 1013 1029 996 926 966 917 907 936 881 889 829 910 765 870 855 797 843 753 754 786 796 789 779 726 743 786 737 763 751 743 729 758 741 704 715 734 649 700 717 697 698 710 694 681 696 692 703 705 663 661 711 632 661 628 679 658 589 640 633 604 574 607 563 602 606 617 625 597 620 611 591 593 605 583 625 614 638 585 584 557 578 551 576 552 582 590 583 566 562 599 604 588 607 638 560 581 637 630 605 590 578 562 626 552 598 602 544 576 579 584 564 522 541 539 616 585 557 547 590 583 559 550 538 570 594 557 574 582 575 558 565 595 605 572 536 567 577 584 575 573 559 554 580 572 595 580 575 583 650 619 662 671 614 571 606 639 610 598 629 648 656 669 661 618 668 667 655 676 674 712 693 739 655 636 643 656 711 636 645 702 659 640 679 635 647 626 636 682 654 645 583 631 586 585 606 611 647 633 643 615 616 657 627 593 613 620 624 611 582 619 559 635 597 613 625 617 582 623 617 615 575 618 585 615 595 624 630 623 587 578 641 603 567 604 549 556 606 565 554 517 607 587 553 559 536 564 570 550 589 539 532 560 583 527 543 518 551 554 557 550 555 596 554 555 507 557 525 540 563 565 527 544 541 564 585 527 552 547 515 554 509 550 545 541 517 559 529 513 555 543 536 584 515 540 488 541 537 533 529 555 553 565 517 543 547 509 567 486 526 509 550 559 550 526 507 628 493 545 489 527 527 575 514 517 542 520 541 560 523 559 560 504 530 541 514 524 528 504 557 550 534 469 516 542 516 556 516 546 509 503 497 542 545 543 522 506 511 559 535 492 514 513 577 547 558 569 575 498 470 545 565 547 527 532 514 542 535 529 543 539 548 518 503 542 538 533 533 483 528 512 555 511 555 496 526 496 528 544 495 534 523 536 582 531 501 546 536 508 480 513 505 509 493 533 485 508 535 567 514 525 504 532 533 514 531 543 540 486 534 513 516 535 555 526 521 548 510 510 546 531 506 501 542 527 529 538 514 563 549 477 505 530 531 550 539 560 503 513 545 552 532 518 491 531 577 568 545 562 489 530 527 552 479 535 504 511 516 525 539 514 513 515 538 517 512 495 552 559 498 553 504 516 519 492 504 558 521 517 501 493 549 539 550 472 489 543 566 514 549 515 517 499 539 505 515 491 519 544 505 530 528 463 545 518 542 467 520 517 565 536 522 519 514 483 536 535 551 504 561 538 506 501 517 530 525 536 506 524 565 475 495 547 522 526 514 530 547 524 491 515 531 457 543 525 459 510 529 511 520 492 507 502 507 517 519 515 532 516 507 524 558 548 545 520 511 501 527 524 552 508 523 508 520 502 522 487 512 504 542 518 531 520 529 529 512 505 523 484 503 526 552 471 505 494 547 548 506 468 519 520 528 521 531 515 489 543 507 483 529 549 557 501 530 537 543 557 546 567 556 561 553 534 569 545 580 556 540 545 566 563 560 566 557 557 612 543 579 593 572 580 558 551 600 586 648 588 563 598 557 619 624 553 606 597 573 618 619 579 648 595 568 564 588 584 594 588 567 549 528 606 565 569 565 551 545 568 554 623 588 589 563 497 561 562 538 535 544 536 552 563 558 523 575 518 552 555 529 546 527 501 535 509 524 519 526 524 518 537 544 557 542 475 511 474 560 525 528 522 526 529 480 501 528 555 521 574 532 527 483 541 531 506 492 503 488 488 547 494 486 498 563 525 523 506 524 496 490 535 551 478 512 528 534 482 512 526 474 542 513 489 499 533 486 511 519 517 506 556 490 495 474 516 486 516 544 542 530 473 503 520 505 494 532 496 520 510 524 503 510 524 473 488 511 533 532 532 512 518 482 530 474 550 512 493 529 526 505 507 517 487 529 497 513 535 521 506 550 552 520 504 546 514 551 503 511 481 510 505 520 510 545 501 557 526 487 434 503 479 487 526 533 485 479 515 521 504 529 515 518 510 537 494 520 522 527 531 504 501 540 543 491 472 516 505 519 507 484 518 514 542 519 543 510 526 506 508 534 485 558 528 497 537 529 485 524 514 510 523 525 574 500 522 519 493 543 490 483 517 495 501 528 508 503 575 521 471 517 548 558 567 518 562 522 582 538 525 539 596 544 600 571 570 598 593 558 569 576 546 686 593 616 689 647 688 664 673 669 693 672 630 765 681 674 718 754 729 747 802 741 754 762 755 802 777 772 721 729 756 731 757 766 776 730 755 781 732 766 747 771 762 718 743 761 727 706 732 707 711 703 723 709 684 689 681 686 673 669 695 703 679 591 645 699 645 696 632 626 631 626 639 620 629 611 601 573 634 620 597 563 607 573 575 556 587 564 585 558 558 571 530 527 519 552 502 495 544 543 488 541 561 530 539 515 534 490 536 514 532 561 503 550 586 513 549 518 508 535 518 485 494 508 493 525 538 505 512 486 497 533 527 496 516 529 559 533 511 518 527 509 485 504 509 521 519 533 465 497 543 524 520 476 517 513 489 524 524 527 465 537 509 466 491 533 537 522 483 484 529 471 536 491 536 498 489 545 514 496 507 498 502 443 497 508 506 523 520 481 512 502 499 568 536 553 506 508 502 521 525 502 451 535 525 516 513 482 513 536 515 533 566 479 458 545 498 527 546 476 521 529 523 521 537 449 526 520 521 424 481 482 489 536 522 509 510 514 522 513 515 471 475 474 490 511 489 528 510 524 496 496 568 466 538 491 500 488 527 470 483 510 494 463 506 487 447 476 490 507 484 508 490 498 461 509 512 529 520 555 500 495 507 509 481 512 520 552 506 539 490 535 541 472 476 527 459 515 520 514 513 514 497 495 486 520 456 452 501 502 497 527 519 535 553 466 531 510 504 511 496 524 505 521 485 464 511 491 516 550 490 549 469 471 479 475 481 531 511 497 508 498 455 507 512 515 510 530 497 567 528 499 559 484 499 502 489 482 480 498 507 502 494 483 500 464 512 514 518 482 504 520 498 514 523 478 509 565 554 520 527 490 531 507 498 499 507 501 501 503 518 504 515 487 517 530 553 523 517 526 501 476 500 492 469 508 498 489 496 519 519 488 542 524 540 523 541 548 534 549 485 474 524 509 504 505 512 524 540 489 526 530 502 468 549 515 510 530 528 501 533 508 499 504 457 529 539 558 457 508 484 519 499 502 494 525 481 481 507 470 540 524 508 531 494 476 506 523 520 510 534 503 528 492 527 539 496 546 479 494 498 492 472 497 504 550 514 514 513 508 519 515 511 544 505 481 549 535 467 466 493 499 447 502 501 482 477 489 530 540 544 535 493 527 484 496 526 532 489 461 498 512 512 484 521 499 506 510 554 504 519 536 479 562 462 485 521 535 561 512 520 517 550 531 537 489 505 506 527 503 527 484 495 474 501 504 555 467 484 477 500 509 534 501 530 495 497 493 526 520 530 503 500 524 496 559 520 452 517 489 497 545 493 513 488 495 473 483 537 487 505 535 502 490 508 484 507 497 517 538 530 478 514 479 470 501 491 489 516 485 584 509 499 490 490 510 499 522 541 554 552 525 538 521 520 508 458 505 548 559 576 525 547 529 487 529 518 539 615 513 518 492 530 534 542 525 512 539 493 552 558 546 529 555 508 527 591 547 614 553 580 580 563 595 575 551 590 567 547 590 619 612 564 572 577 543 606 597 575 540 578 568 570 569 611 594 587 535 535 583 532 542 600 582 594 518 605 563 573 552 564 598 570 563 585 570 600 566 578 535 597 582 592 608 589 631 621 629 626 585 556 623 626 637 599 611 664 602 609 650 606 659 654 651 628 649 616 613 727 632 656 607 634 643 632 622 635 601 636 628 642 640 634 623 592 622 644 614 632 573 617 601 542 613 578 606 606 569 594 572 567 605 605 593 654 575 588 617 599 563 561 586 560 587 565 542 537 597 568 608 555 530 553 571 553 559 569 552 545 554 533 532 538 583 535 530 593 597 543 535 564 544 523 491 556 534 555 499 518 517 538 509 578 484 530 541 501 539 553 499 546 531 536 546 497 573 539 542 521 580 516 568 540 523 522 481 591 512 604 516 565 571 552 520 520 569 514 544 559 519 513 558 523 536 516 551 506 514 547 528 536 519 510 511 508 484 549 535 543 563 503 571 543 513 544 562 534 554 539 506 541 579 554 556 525 529 514 543 575 593 538 544 529 539 574 499 573 567 540 563 574 601 547 559 537 527 599 581 564 576 599 585 566 623 562 584 584 613 655 681 638 714 727 686 700 725 718 743 737 816 843 813 844 793 847 838 971 870 929 918 937 907 942 1003 946 992 1031 974 985 1032 1057 1011 1041 1045 992 996 1022 1061 1023 996 1035 1053 1017 1040 1044 1008 1063 1011 1010 989 970 986 978 1045 1000 937 961 938 958 920 905 940 872 880 884 908 831 815 861 840 850 889 849 852 791 878 789 850 782 818 833 748 776 809 802 736 756 728 715 725 718 738 694 686 725 710 727 671 705 687 677 663 671 684 654 625 631 637 666 690 614 601 616 592 636 626 580 591 612 627 591 611 585 550 572 613 558 595 593 587 523 620 615 556 534 552 558 541 575 559 544 570 567 540 547 577 610 563 589 536 603 535 536 563 535 574 583 571 516 584 562 573 573 548 509 542 563 515 561 519 552 547 550 544 580 555 575 527 562 536 606 547 556 535 553 570 570 540 555 529 558 538 560 604 566 550 517 583 544 600 544 603 587 578 571 556 538 527 553 530 533 573 549 495 553 532 517 557 582 594 578 559 519 535 605 576 601 578 530 562 551 628 527 570 586 564 560 531 561 550 561 516 561 524 546 534 537 577 542 529 560 523 569 511 535 559 560 508 569 552 562 548 537 542 540 556 499 548 514 525 544 544 528 486 511 517 491 517 524 530 522 523 520 561 518 563 521 536 522 568 507 572 544 512 560 494 527 523 546 504 511 549 494 491 544 538 522 463 522 525 537 525 506 513 547 505 510 486 538 511 512 511 471 503 523 527 568 499 497 503 544 534 479 536 494 511 493 476 516 482 524 513 479 506 504 476 460 539 489 508 517 559 520 520 538 514 563 532 496 541 491 523 473 506 510 532 475 546 496 497 539 513 488 500 567 462 496 477 516 531 515 499 486 485 538 499 501 531 509 510 522 496 524 484 518 541 493 498 530 527 553 493 498 525 523 510 528 506 501 504 511 504 571 498 504 516 543 508 495 483 541 489 507 492 524 562 504 501 502 523 523 469 499 533 529 470 501 495 522 500 498 518 478 522 479 520 480 507 524 542 490 492 502 481 538 519 479 510 515 514 495 502 526 548 532 488 495 513 516 489 504 524 516 505 488 507 520 483 513 520 537 518 493 519 504 485 547 502 494 493 533 520 531 510 520 533 484 461 560 511 534 526 511 488 515 530 516 552 540 473 505 509 513 530 522 503 520 498 523 525 553 527 487 512 496 527 490 489 555 475 503 530 473 460 575 524 545 514 469 507 515 496 519 462 538 500 525 513 508 498 513 515 518 509 490 471 501 551 542 538 493 550 476 534 511 556 548 499 472 505 510 455 484 509 494 523 516 470 486 541 530 491 505 495 511 534 496 479 543 527 538 509 478 495 504 532 499 514 504 506 484 526 519 498 525 520 500 497 469 507 506 556 515 467 527 489 542 547 525 529 533 536 552 531 530 521 513 523 558 522 552 512 586 508 542 560 552 537 528 530 536 567 591 525 572 519 591 588 547 608 501 525 579 547 564 554 580 545 549 561 575 513 630 522 596 577 554 558 559 604 591 535 557 524 555 548 573 553 601 552 593 589 583 588 559 538 526 543 557 520 551 570 517 497 528 545 524 565 560 522 588 511 523 543 533 531 552 562 545 511 545 534 533 525 549 534 498 518 508 503 553 556 543 540 523 517 540 496 565 490 484 595 477 527 507 497 524 550 496 528 522 514 494 540 505 548 467 484 544 499 506 501 519 533 511 502 553 479 530 510 495 500 486 503 505 529 504 526 549 517 527 500 483 538 488 457 489 496 509 561 509 522 497 523 498 477 484 505 520 537 506 458 534 545 515 519 495 503 500 562 508 514 545 484 464 545 504 518 508 527 480 517 485 534 546 488 532 482 511 512 497 526 527 512 525 502 516 557 545 488 501 573 529 522 504 544 523 540 456 514 505 512 502 536 570 538 553 486 535 499 489 514 529 550 472 523 511 492 525 506 538 535 503 550 496 520 526 536 530 551 498 515 519 520 560 560 518 506 568 518 520 504 550 520 503 558 510 509 553 540 566 543 571 525 576 511 525 543 579 579 500 542 557 578 555 593 553 563 556 600 610 611 621 610 601 657 611 639 677 611 641 645 638 699 690 691 740 725 737 784 755 805 781 799 777 822 875 845 850 889 848 857 792 866 885 832 870 824 822 857 854 834 834 800 851 854 851 807 814 816 775 808 839 830 900 876 860 811 868 901 828 844 883 821 820 856 797 800 785 761 824 800 739 715 723 695 771 675 698 734 707 711 692 738 730 690 669 651 621 646 649 676 644 629 648 695 652 607 651 657 629 645 611 644 611 618 599 613 635 621 658 628 656 614 606 578 601 574 554 626 595 583 646 583 556 669 581 596 557 610 603 583 587 588 581 612 580 584 569 528 535 588 555 584 561 613 543 566 563 548 578 567 585 508 567 518 531 567 536 561 518 494 537 524 578 546 530 522 523 574 532 503 515 521 526 510 547 536 542 520 528 587 548 501 508 540 542 521 528 512 523 505 522 573 547 571 515 553 522 531 529 505 501 527 557 547 567 511 538 551 572 545 513 497 485 588 575 573 565 535 534 535 523 547 551 561 549 578 562 561 568 556 537 546 545 534 530 510 521 557 557 517 533 529 573 529 549 508 512 530 528 484 511 508 494 509 543 499 509 529 513 519 514 508 560 490 557 512 546 528 536 555 501 558 499 476 535 555 513 519 513 508 570 495 524 544 502 523 514 573 479 509 490 468 513 487 485 513 517 521 533 529 564 494 544 503 537 541 510 507 491 535 484 504 499 529 517 496 491 527 515 487 549 534 503 538 492 536 515 561 533 535 524 485 531 500 474 477 529 517 531 509 494 490 532 528 520 466 520 475 502 517 503 501 537 487 524 567 524 497 482 517 454 526 520 501 534 488 490 512 514 488 518 458 502 527 533 473 513 506 479 487 515 483 514 518 523 466 467 498 494 474 509 549 494 493 492 545 496 483 523 491 505 509 504 462 508 502 478 545 533 553 494 510 582 500 501 555 491 490 497 472 532 457 508 484 501 501 498 479 502 505 494 527 483 508 528 528 568 479 531 491 497 513 503 512 529 519 493 502 550 479 524 511 508 485 496 509 493 518 514 520 557 534 509 507 515 524 525 469 481 472 560 532 524 504 501 514 530 516 525 503 531 487 507 521 567 504 493 517 483 485 515 496 531 526 510 503 509 510 526 497 470 551 458 506 540 519 490 521 489 548 532 532 533 495 522 485 512 522 544 499 545 497 487 505 518 453 525 517 526 494 543 519 518 549 502 533 463 551 488 519 504 525 496 534 551 518 560 543 468 501 498 536 515 507 504 495 522 490 480 523 510 527 508 510 496 467 483 523 519 524 508 530 495 516 506 566 511 523 497 473 540 504 537 518 512 498 548 500 527 503 505 481 525 529 530 535 536 514 486 514 538 533 534 511 512 506 525 515 539 515 518 499 516 508 528 505 540 478 506 512 560 486 522 523 557 511 527 517 537 541 530 485 519 506 557 530 539 508 510 499 538 540 552 572 551 579 551 528 524 568 553 562 573 556 563 561 566 589 552 552 554 606 593 518 545 594 563 556 546 582 535 558 541 536 534 568 515 601 539 567 573 587 547 520 537 552 540 541 556 588 551 542 551 563 551 525 543 563 521 541 588 620 545 573 591 566 574 531 537 607 565 644 568 566 594 576 607 587 553 599 592 556 587 577</counts>
			</dataPoints>
		</scan>
	</xrdMeasurement>
</xrdMeasurements>
