<?xml version="1.0"?>
<xrdMeasurements xmlns="http://www.xrdml.com/XRDMeasurement/2.3" xmlns:xsi="http://www.w3.org/2001/XMLSchema-instance" xsi:schemaLocation="http://www.xrdml.com/XRDMeasurement/2.3 http://www.xrdml.com/XRDMeasurement/2.3/XRDMeasurement.xsd" status="Completed" recordIdentifier="{420357EA-BB40-4A87-A8DE-60479B3B3212}">
	<comment>
		<entry/>
	</comment>
	<sample type="To be analyzed">
		<id>GPSS_Li1p8Fe1p1Cl4_112225_6921f967f4e53d1f72397d32</id>
		<name></name>
		<preparedBy></preparedBy>
	</sample>
	<xrdMeasurement measurementType="Scan" status="Completed" sampleMode="Reflection">
		<usedWavelength intended="K-Alpha 1">
			<kAlpha1 unit="Angstrom">1.5405980</kAlpha1>
			<kAlpha2 unit="Angstrom">1.5444260</kAlpha2>
			<kBeta unit="Angstrom">1.3922500</kBeta>
			<ratioKAlpha2KAlpha1>0.5000</ratioKAlpha2KAlpha1>
		</usedWavelength>
		<incidentBeamPath>
			<radius unit="mm">145.00</radius>
			<xRayTube id="1010048" name="Empyrean Cu LFF HR (9430 033 7310x)">
				<tension unit="kV">40.0</tension>
				<current unit="mA">15.0</current>
				<anodeMaterial>Cu</anodeMaterial>
				<focus type="Line">
					<length unit="mm">12.0</length>
					<width unit="mm">0.4</width>
					<takeOffAngle unit="deg">6.0</takeOffAngle>
				</focus>
			</xRayTube>
			<sollerSlit id="21010002" name="Soller slits 0.04 rad.">
				<opening unit="rad">0.0400</opening>
			</sollerSlit>
			<mask id="22031000" name="Fixed mask 13 mm">
				<width unit="mm">9.00</width>
			</mask>
			<divergenceSlit id="22120001" name="Divergence slit 1°" xsi:type="fixedDivergenceSlitType">
				<distanceToSample unit="mm">50.00</distanceToSample>
				<height unit="mm">1.52</height>
			</divergenceSlit>
		</incidentBeamPath>
		<sampleMovement xsi:type="spinningSampleMovementType">
			<spinnerRevolutionTime unit="seconds">1.0</spinnerRevolutionTime>
		</sampleMovement>
		<diffractedBeamPath>
			<radius unit="mm">145.00</radius>
			<antiScatterSlit id="22090040" name="AS slit 9 mm (PIXcel)" xsi:type="fixedAntiScatterSlitType">
				<height unit="mm">9.00</height>
			</antiScatterSlit>
			<sollerSlit id="21020003" name="Large Soller slits 0.04 rad.">
				<opening unit="rad">0.0400</opening>
			</sollerSlit>
			<filter id="20030001" name="Large beta-filter Nickel">
				<material>Ni</material>
				<thickness unit="mm">0.020</thickness>
			</filter>
			<detector id="7010019" name="PIXcel1D-Medipix3 detector" xsi:type="rtmsDetectorType">
				<phd unit="keV">
					<lowerLevel>4.02</lowerLevel>
					<upperLevel>11.27</upperLevel>
				</phd>
				<mode>Scanning</mode>
				<activeLength unit="deg">5.542</activeLength>
			</detector>
		</diffractedBeamPath>
		<scan appendNumber="0" mode="Continuous" scanAxis="Gonio" status="Completed">
			<header>
				<startTimeStamp>2025-11-25T10:04:55-08:00</startTimeStamp>
				<endTimeStamp>2025-11-25T10:13:03-08:00</endTimeStamp>
				<author>
					<name>AutomatedUser</name>
				</author>
				<source>
					<applicationSoftware version="1.7b (136)">PANalytical Aeris Instrument Suite</applicationSoftware>
					<instrumentControlSoftware version="3.2.00000000 20240306">AERIS</instrumentControlSoftware>
					<instrumentID>950485</instrumentID>
				</source>
			</header>
			<dataPoints>
				<positions axis="2Theta" unit="deg">
					<startPosition>10.00943322</startPosition>
					<endPosition>99.99442286</endPosition>
				</positions>
				<positions axis="Omega" unit="deg">
					<startPosition>5.00471661</startPosition>
					<endPosition>49.99721143</endPosition>
				</positions>
				<commonCountingTime unit="seconds">12.495</commonCountingTime>
				<counts unit="counts">2990 2959 3040 3042 3110 3092 3037 3017 3124 3059 3046 3072 3056 3130 3017 3120 3038 3124 3070 3069 3121 3089 3085 3081 3003 3033 3069 3032 3150 3009 3044 3045 3014 3071 2992 3025 3049 3078 3077 3005 3067 3100 2969 3114 3137 3111 3091 3113 3100 3010 3082 3097 3041 3122 3093 3220 3181 3121 3212 3136 3186 3208 3193 3325 3289 3316 3253 3293 3273 3217 3291 3376 3310 3355 3312 3346 3436 3469 3402 3402 3444 3509 3440 3392 3497 3433 3296 3344 3395 3418 3492 3320 3375 3355 3391 3316 3340 3302 3288 3313 3386 3356 3435 3300 3339 3365 3292 3279 3286 3358 3237 3189 3260 3200 3263 3242 3283 3246 3297 3266 3230 3253 3356 3303 3197 3233 3200 3227 3118 3096 3223 3262 3194 3132 3216 3184 3224 3283 3225 3198 3156 3268 3246 3225 3155 3203 3183 3161 3154 3186 3129 3217 3175 3152 3252 3221 3169 3231 3190 3182 3129 3167 3071 3124 3148 3175 3177 3256 3145 3128 3106 3165 3199 3189 3215 3059 3120 3249 3136 3159 3182 3129 3157 3180 3145 3165 3051 3047 3195 3136 3126 3108 3150 3053 3120 3234 3091 3147 3083 3129 3144 3087 3053 3152 3119 3127 3041 3098 3114 3069 3136 3128 3048 3110 3133 3214 3170 3171 3126 3200 3117 3095 2988 3076 3002 3063 3090 3114 3107 3077 3118 3084 3151 3160 2952 3039 3078 3082 3153 3044 3078 2998 2969 3095 2992 3080 3036 3179 2980 3052 3119 3040 3036 3124 3105 2964 3068 3049 3038 3063 3054 3050 2975 3009 3157 3060 3067 3031 3089 2939 3085 3025 3009 3094 2902 3124 3078 2994 3157 2958 3009 3013 3053 3097 3045 2925 3127 3146 3123 3006 3012 2990 2962 3007 3010 2978 2944 3098 3039 3109 3110 2975 3099 3020 2982 3025 2979 3197 3183 3044 3114 3072 3050 3079 3123 3090 3123 3088 2999 3075 3022 3040 3147 3202 3122 3248 3087 3158 3169 3051 3168 3173 3143 3114 3073 3242 3176 3181 3126 3184 3194 3235 3135 3185 3261 3138 3226 3080 3240 3287 3252 3298 3226 3197 3283 3167 3214 3219 3231 3246 3314 3228 3158 3244 3204 3211 3284 3346 3281 3294 3350 3332 3368 3303 3278 3284 3336 3344 3454 3335 3272 3240 3398 3315 3301 3410 3297 3305 3426 3423 3319 3480 3410 3416 3488 3435 3428 3427 3406 3426 3366 3445 3519 3465 3499 3467 3487 3425 3610 3460 3542 3549 3509 3536 3583 3637 3777 3748 3668 3651 3734 3675 3696 3874 3979 3909 3994 3935 4064 4084 4147 4234 4098 4112 4021 3985 3871 3970 3927 4055 3956 4035 3914 4007 4042 3908 3882 3944 4063 3914 3884 4084 3896 3980 3898 3784 3863 3840 3864 3877 3859 3765 3738 3704 3905 3683 3700 3660 3651 3714 3721 3708 3800 3643 3671 3728 3654 3742 3879 3790 3701 3700 3768 3624 3757 3617 3665 3576 3583 3623 3601 3623 3604 3550 3429 3494 3523 3552 3499 3498 3425 3488 3467 3452 3424 3390 3509 3289 3404 3363 3373 3395 3461 3414 3304 3373 3397 3439 3349 3205 3395 3383 3173 3200 3278 3257 3205 3333 3423 3341 3253 3338 3271 3355 3286 3330 3269 3287 3321 3297 3299 3322 3152 3253 3271 3338 3235 3261 3244 3214 3287 3206 3196 3291 3102 3238 3219 3208 3315 3281 3152 3170 3240 3254 3211 3122 3191 3147 3209 3140 3214 3193 3134 3258 3140 3190 3187 3252 3147 3228 3098 3125 3142 3191 3175 3183 3273 3194 3107 3132 3202 3131 3128 3196 3147 3144 3143 3129 3223 3172 3238 3002 3161 3094 3069 3059 3110 3211 3039 3010 3116 3178 3095 3078 3234 3066 3070 3065 3056 3142 3145 3122 3023 3078 3142 2934 3035 3093 3056 3026 3151 3030 3088 3048 2980 3098 3088 3088 3079 3009 3121 3177 3166 3035 3035 3063 3039 3094 3000 3017 2972 3053 3018 3012 2970 3055 3011 2965 3070 3045 3016 3059 3073 2975 3051 3037 3067 3038 3047 3006 2978 2929 2997 3134 3016 2964 3045 3003 2970 2981 3073 3040 3003 2957 3052 2959 3017 3096 3014 3059 2942 3036 2969 3029 3056 2947 2932 3034 2942 2901 2851 2927 3042 2940 3096 2957 2931 3075 2949 2997 2934 3047 2979 2941 2925 2980 3059 2945 2910 2941 3020 2916 2978 2930 2955 2832 3049 2947 2912 2943 2854 2924 3025 2962 2951 3019 2892 2948 2953 2917 2933 2896 2939 2858 2846 2916 2899 2864 2939 2929 2955 3008 2972 2929 3013 2876 2939 3015 2994 2931 2982 2864 2984 3028 2867 2904 2950 2986 2881 2957 2905 2829 2837 2925 2951 2903 3038 2865 2989 2836 2893 3000 2817 2862 2982 2909 2945 2972 2953 2934 2888 2955 2853 2909 2857 2885 2811 2842 2953 2857 2888 2882 2807 2937 2960 2858 2999 2948 2875 2783 2954 2776 2888 2802 2916 2849 2932 2773 2931 2876 2811 2825 2847 2865 2861 2901 2915 2856 2868 2954 2826 2842 2847 2895 2889 2902 2878 2789 2792 2919 2826 2750 2831 2773 2919 2835 2829 2856 2869 2920 2826 2824 2890 2885 2753 2881 2814 2772 2885 2788 2905 2846 2779 2836 2792 2730 2878 2726 2749 2834 2886 2846 2836 2732 2765 2782 2853 2795 2846 2744 2762 2734 2749 2739 2740 2734 2764 2791 2793 2784 2777 2747 2794 2879 2792 2858 2745 2780 2806 2856 2676 2814 2787 2778 2739 2780 2722 2730 2775 2732 2719 2720 2747 2803 2755 2722 2793 2756 2788 2648 2756 2804 2697 2742 2689 2666 2739 2670 2831 2750 2598 2755 2749 2668 2776 2772 2678 2716 2632 2756 2712 2727 2695 2769 2791 2702 2658 2678 2710 2685 2720 2701 2631 2681 2723 2741 2735 2721 2733 2574 2698 2619 2660 2700 2735 2765 2596 2694 2738 2776 2620 2683 2742 2596 2625 2733 2715 2662 2636 2731 2795 2742 2653 2701 2685 2690 2630 2758 2582 2735 2700 2679 2819 2689 2665 2698 2672 2669 2693 2708 2629 2761 2660 2640 2763 2687 2724 2700 2631 2780 2670 2664 2685 2717 2699 2667 2689 2657 2658 2797 2685 2766 2661 2643 2615 2659 2662 2755 2744 2618 2718 2711 2784 2692 2689 2675 2757 2606 2698 2722 2721 2695 2632 2600 2629 2719 2593 2862 2688 2647 2734 2614 2719 2709 2668 2727 2836 2654 2706 2795 2694 2684 2683 2676 2645 2637 2729 2683 2684 2735 2637 2798 2622 2715 2708 2664 2701 2651 2720 2675 2767 2689 2770 2630 2717 2641 2704 2739 2698 2662 2684 2825 2727 2703 2720 2649 2707 2630 2637 2627 2723 2688 2684 2620 2642 2651 2660 2623 2678 2574 2684 2675 2696 2800 2749 2723 2739 2579 2745 2738 2593 2657 2736 2674 2598 2684 2627 2631 2700 2561 2748 2617 2768 2637 2662 2661 2561 2572 2660 2666 2555 2568 2682 2533 2600 2599 2603 2663 2566 2693 2623 2618 2533 2631 2598 2595 2728 2626 2650 2624 2597 2644 2719 2652 2691 2543 2528 2541 2664 2582 2519 2563 2514 2472 2509 2487 2609 2599 2548 2454 2475 2541 2574 2619 2556 2546 2500 2525 2516 2512 2454 2509 2496 2457 2382 2487 2495 2464 2527 2545 2522 2475 2530 2405 2537 2500 2495 2464 2452 2434 2463 2486 2424 2396 2385 2333 2434 2402 2452 2372 2383 2393 2341 2388 2448 2345 2368 2363 2347 2285 2434 2332 2378 2418 2354 2376 2388 2288 2389 2432 2310 2362 2396 2376 2326 2386 2432 2377 2385 2314 2369 2260 2318 2297 2444 2264 2304 2246 2234 2346 2325 2275 2297 2270 2360 2251 2355 2247 2275 2253 2313 2234 2287 2294 2205 2209 2286 2341 2149 2179 2279 2230 2288 2242 2286 2171 2236 2211 2183 2268 2251 2204 2252 2269 2243 2256 2221 2184 2229 2231 2233 2331 2267 2195 2198 2221 2274 2230 2237 2151 2228 2201 2207 2158 2171 2238 2199 2256 2208 2181 2261 2166 2152 2185 2240 2123 2168 2146 2137 2223 2154 2232 2157 2169 2177 2142 2196 2166 2123 2145 2194 2184 2116 2147 2147 2324 2154 2188 2147 2171 2115 2057 2206 2208 2117 2231 2219 2167 2137 2186 2164 2196 2206 2143 2175 2103 2160 2248 2069 2213 2048 2204 2155 2137 2177 2135 2141 2224 2063 2176 2163 2142 2086 2114 2245 2092 2173 2092 2211 2173 2085 2112 2111 2098 2171 2103 2150 2164 2143 2139 2147 2053 2162 2179 2153 2117 2157 2125 2125 2117 2137 2100 2176 2183 2107 2094 2075 2110 2102 2160 2139 2134 2087 2118 2097 2108 2124 2166 2123 2213 2152 2154 2145 2244 2101 2126 2081 2107 2236 2095 2109 2115 2100 2173 2098 2155 2205 2234 2194 2197 2199 2105 2144 2160 2167 2146 2145 2111 2115 2132 2122 2099 2099 2076 2146 2073 2209 2147 2218 2182 2233 2185 2236 2008 2103 2180 2133 2117 2060 2170 2138 2112 2179 2135 2111 2217 2181 2179 2192 2179 2101 2116 2151 2028 2217 2100 2192 2242 2155 2126 2152 2172 2081 2149 2116 2174 2138 2249 2089 2123 2181 2026 2093 2140 2135 2110 2139 2138 2169 2124 2059 2210 2101 2120 2133 2137 2159 2075 2099 2148 2094 2092 2141 2036 2170 2137 2248 2209 2143 2164 2120 2118 2112 2105 2136 2068 2045 2102 2089 2130 2157 2069 2013 2087 2040 2076 2039 2092 2058 2022 2003 2081 2043 2081 2109 2023 2078 2107 2027 1962 2002 2005 1982 1985 2068 1943 1988 2102 2039 2009 2134 1988 2003 2027 1929 2059 2049 1966 2057 2037 1985 2032 2099 2040 1882 1929 2013 2047 2000 1894 1999 2000 1963 2024 1923 1937 1901 1881 1951 1984 1995 1994 1940 1863 1928 1989 1990 1950 2023 2023 1921 1931 1965 1968 1847 1888 1805 1911 1915 1929 1871 1858 1913 1898 1923 1911 1959 1931 1833 1955 1866 1868 1912 1925 1824 1856 1896 1869 1825 1904 1858 1867 1848 1920 1899 1876 1873 1924 1929 1879 1856 1787 1874 1879 1805 1841 1844 1899 1887 1927 1943 1852 1870 1907 1833 1874 1785 1913 1845 1826 1875 1937 1905 1840 1923 1907 1981 2013 1968 1988 2082 2169 2131 2212 2327 2340 2330 2295 2243 2236 2180 2226 2152 2165 2203 2125 2144 2148 2130 2124 2196 2126 2145 2173 2066 2075 2102 2022 2147 2032 2065 2016 2059 1969 1994 1886 1945 1920 1848 1943 1887 1915 1869 1846 1934 1880 1826 1790 1903 1860 1884 1843 1847 1857 1859 1805 1933 1846 1883 1781 1891 1849 1822 1857 1783 1749 1786 1784 1760 1862 1814 1865 1814 1727 1776 1752 1732 1749 1768 1765 1648 1797 1704 1707 1732 1726 1708 1752 1704 1762 1697 1673 1652 1735 1744 1663 1605 1707 1649 1674 1690 1650 1733 1700 1745 1755 1755 1716 1704 1689 1732 1836 1824 1803 1884 1887 1891 1864 2047 2101 2204 2270 2305 2306 2420 2371 2350 2370 2254 2329 2325 2339 2251 2229 2173 2153 2185 2235 2268 2186 2257 2259 2179 2275 2293 2304 2148 2138 2143 2169 2005 2068 2050 1962 1876 1972 1887 1887 1874 1874 1835 1827 1811 1794 1867 1802 1834 1822 1815 1836 1803 1806 1891 1853 1832 1780 1798 1854 1858 1815 1821 1872 1720 1821 1701 1752 1674 1680 1679 1706 1724 1652 1674 1650 1715 1672 1668 1620 1606 1697 1624 1601 1558 1641 1595 1597 1569 1562 1635 1607 1607 1589 1588 1631 1536 1566 1601 1571 1573 1547 1647 1563 1527 1629 1500 1562 1554 1547 1503 1502 1549 1599 1560 1562 1592 1596 1516 1477 1522 1585 1546 1606 1554 1513 1546 1570 1505 1549 1462 1494 1469 1546 1549 1489 1583 1488 1523 1528 1469 1565 1562 1420 1549 1541 1549 1485 1480 1515 1586 1515 1507 1447 1577 1540 1591 1419 1496 1527 1531 1466 1539 1404 1515 1521 1520 1455 1486 1514 1403 1467 1513 1568 1486 1557 1546 1490 1504 1479 1518 1485 1545 1538 1435 1464 1512 1456 1492 1562 1505 1432 1481 1500 1435 1474 1555 1492 1505 1472 1385 1474 1473 1439 1535 1559 1456 1566 1541 1408 1403 1434 1522 1499 1483 1438 1480 1509 1408 1501 1477 1520 1545 1554 1507 1428 1458 1456 1472 1505 1443 1504 1425 1418 1537 1481 1492 1415 1515 1451 1493 1537 1476 1483 1504 1453 1525 1445 1548 1482 1510 1534 1434 1448 1521 1488 1523 1492 1512 1474 1473 1564 1509 1603 1572 1553 1571 1537 1591 1616 1587 1593 1655 1697 1658 1654 1749 1728 1689 1739 1759 1731 1752 1712 1736 1789 1813 1818 1812 1771 1780 1791 1791 1747 1790 1733 1712 1653 1694 1675 1693 1685 1665 1588 1742 1599 1611 1628 1589 1656 1635 1561 1636 1605 1589 1584 1548 1598 1577 1632 1545 1576 1614 1637 1526 1567 1586 1613 1559 1566 1527 1653 1572 1573 1558 1547 1574 1544 1567 1560 1568 1637 1583 1450 1564 1513 1548 1553 1517 1543 1445 1525 1575 1451 1543 1513 1523 1419 1510 1466 1574 1542 1470 1555 1478 1533 1572 1515 1492 1540 1492 1501 1461 1483 1415 1466 1409 1473 1440 1398 1460 1415 1412 1381 1457 1529 1480 1395 1486 1467 1490 1496 1510 1444 1484 1401 1413 1430 1435 1426 1416 1537 1435 1501 1412 1426 1531 1476 1537 1506 1536 1488 1565 1535 1462 1541 1523 1516 1623 1563 1543 1532 1575 1623 1671 1642 1640 1752 1741 1779 1820 2010 2090 2164 2332 2586 2738 3023 3172 3598 3844 4232 4387 4471 4548 4628 4584 4412 4496 4419 4275 4305 4246 3833 3879 3843 3768 3794 3728 3674 3606 3491 3461 3329 3317 3211 3303 3218 2971 2943 2740 2694 2608 2576 2511 2349 2286 2178 2212 2189 2117 1944 1987 2029 1907 2025 2024 2020 2020 2062 2038 1969 1969 2097 2057 1984 2055 1851 1970 1962 1929 1908 1812 1806 1773 1771 1731 1680 1645 1744 1571 1633 1650 1717 1561 1607 1521 1566 1587 1510 1569 1528 1567 1525 1544 1554 1477 1463 1465 1534 1421 1482 1515 1466 1437 1429 1438 1424 1363 1489 1431 1389 1386 1489 1442 1392 1475 1487 1359 1399 1419 1466 1398 1436 1454 1412 1413 1413 1428 1434 1405 1399 1458 1424 1489 1355 1374 1366 1401 1444 1417 1394 1412 1341 1420 1446 1431 1393 1397 1403 1434 1404 1389 1371 1433 1464 1484 1382 1429 1441 1383 1438 1369 1456 1432 1464 1499 1444 1384 1428 1441 1394 1401 1452 1364 1375 1344 1374 1375 1360 1402 1391 1378 1351 1379 1368 1363 1333 1344 1438 1292 1278 1346 1343 1424 1377 1320 1344 1366 1377 1324 1359 1371 1380 1334 1369 1311 1316 1347 1379 1364 1406 1343 1299 1331 1337 1387 1325 1257 1392 1354 1327 1357 1398 1333 1326 1348 1388 1354 1361 1386 1338 1356 1353 1277 1322 1308 1330 1343 1337 1322 1297 1340 1297 1321 1309 1363 1267 1311 1309 1333 1315 1308 1298 1286 1323 1352 1377 1353 1292 1249 1251 1360 1252 1403 1332 1382 1272 1335 1287 1335 1276 1281 1300 1354 1294 1289 1302 1357 1285 1254 1329 1288 1253 1356 1301 1280 1319 1248 1267 1340 1299 1334 1263 1313 1264 1334 1322 1306 1281 1367 1347 1304 1354 1347 1339 1366 1283 1420 1380 1365 1355 1363 1289 1343 1278 1315 1315 1372 1353 1312 1336 1336 1299 1299 1342 1389 1270 1280 1311 1310 1334 1242 1356 1309 1281 1227 1316 1342 1219 1309 1246 1305 1330 1337 1254 1311 1311 1323 1249 1242 1282 1236 1355 1262 1290 1317 1285 1262 1291 1272 1268 1318 1317 1235 1351 1328 1242 1218 1257 1231 1292 1261 1255 1243 1300 1278 1237 1288 1251 1231 1279 1276 1205 1224 1242 1310 1302 1231 1213 1253 1198 1208 1326 1253 1257 1324 1276 1237 1232 1211 1270 1251 1203 1288 1271 1238 1258 1220 1259 1289 1186 1230 1216 1286 1305 1238 1290 1315 1234 1202 1286 1213 1281 1267 1280 1236 1212 1235 1209 1230 1320 1238 1291 1279 1228 1284 1226 1251 1249 1258 1248 1285 1255 1214 1189 1219 1292 1297 1285 1277 1223 1250 1240 1282 1251 1253 1195 1268 1247 1264 1257 1243 1319 1172 1233 1248 1212 1221 1218 1199 1257 1333 1262 1213 1216 1226 1246 1224 1274 1264 1204 1190 1199 1276 1260 1200 1290 1188 1219 1260 1208 1183 1227 1285 1211 1239 1304 1167 1219 1187 1290 1223 1214 1187 1261 1278 1260 1215 1245 1250 1232 1187 1224 1223 1198 1219 1224 1157 1243 1208 1140 1254 1207 1246 1211 1262 1258 1192 1169 1243 1155 1216 1196 1215 1180 1172 1192 1230 1197 1218 1247 1262 1244 1189 1193 1272 1210 1250 1199 1270 1260 1177 1150 1249 1235 1185 1194 1171 1168 1272 1150 1178 1293 1214 1239 1250 1243 1182 1249 1233 1209 1238 1244 1214 1234 1214 1239 1178 1237 1210 1269 1180 1232 1221 1200 1183 1240 1161 1174 1191 1238 1178 1256 1219 1244 1244 1261 1212 1338 1209 1149 1207 1196 1193 1215 1142 1187 1235 1181 1219 1295 1236 1159 1241 1214 1172 1210 1168 1201 1161 1233 1201 1180 1224 1232 1197 1236 1179 1300 1211 1172 1245 1208 1228 1231 1128 1168 1178 1154 1173 1156 1188 1224 1274 1196 1185 1261 1240 1196 1226 1172 1204 1239 1225 1244 1212 1195 1177 1148 1202 1273 1194 1254 1224 1225 1202 1224 1191 1184 1187 1258 1189 1195 1195 1181 1220 1214 1224 1199 1186 1236 1179 1261 1220 1216 1182 1164 1254 1238 1150 1195 1250 1166 1169 1172 1237 1185 1197 1243 1182 1234 1188 1225 1190 1203 1215 1277 1199 1234 1246 1195 1159 1169 1197 1145 1201 1198 1182 1196 1177 1210 1202 1140 1176 1167 1226 1182 1236 1211 1207 1194 1148 1190 1124 1185 1200 1190 1194 1179 1163 1201 1220 1171 1184 1173 1186 1158 1126 1137 1175 1225 1222 1188 1167 1217 1221 1217 1255 1150 1174 1197 1166 1182 1220 1154 1143 1215 1159 1172 1184 1216 1208 1190 1169 1144 1181 1184 1163 1197 1204 1206 1135 1153 1177 1175 1239 1231 1209 1148 1174 1171 1187 1114 1190 1214 1210 1151 1185 1197 1215 1194 1183 1185 1132 1218 1217 1222 1246 1177 1217 1268 1209 1137 1184 1223 1188 1188 1184 1176 1154 1148 1163 1184 1203 1191 1191 1188 1171 1202 1169 1205 1186 1211 1175 1182 1144 1161 1202 1181 1175 1152 1222 1150 1239 1198 1174 1231 1158 1151 1151 1123 1171 1209 1172 1129 1167 1246 1181 1209 1172 1240 1183 1208 1224 1200 1195 1145 1189 1174 1196 1188 1212 1177 1255 1225 1195 1263 1199 1186 1201 1195 1213 1183 1202 1232 1218 1199 1205 1153 1156 1196 1238 1197 1196 1251 1253 1265 1236 1165 1181 1236 1225 1241 1167 1189 1270 1240 1237 1215 1183 1211 1175 1230 1262 1163 1283 1227 1218 1245 1251 1241 1190 1228 1224 1172 1182 1241 1231 1183 1189 1261 1187 1244 1177 1228 1185 1171 1154 1177 1217 1209 1245 1209 1172 1185 1209 1197 1160 1213 1222 1182 1189 1178 1185 1198 1199 1243 1216 1198 1169 1119 1142 1181 1162 1185 1184 1128 1164 1173 1210 1178 1197 1173 1218 1144 1175 1175 1185 1124 1174 1092 1167 1184 1183 1186 1174 1204 1209 1206 1186 1187 1178 1272 1217 1165 1211 1201 1208 1257 1201 1242 1225 1296 1257 1296 1374 1435 1383 1486 1463 1416 1442 1365 1409 1406 1471 1483 1382 1411 1437 1430 1433 1450 1422 1410 1304 1428 1365 1292 1294 1338 1362 1351 1322 1354 1246 1250 1357 1246 1230 1242 1269 1245 1233 1209 1229 1180 1188 1227 1173 1222 1181 1220 1264 1244 1185 1156 1207 1237 1166 1193 1180 1139 1215 1199 1210 1165 1238 1086 1161 1179 1177 1219 1152 1192 1205 1116 1171 1140 1195 1100 1169 1117 1170 1116 1157 1143 1198 1149 1158 1137 1171 1196 1105 1113 1116 1058 1143 1188 1151 1113 1062 1165 1138 1167 1127 1137 1146 1229 1073 1134 1155 1114 1136 1115 1124 1160 1142 1173 1131 1088 1147 1083 1107 1113 1169 1107 1176 1141 1155 1129 1127 1166 1096 1080 1140 1131 1109 1125 1079 1170 1103 1122 1120 1102 1136 1171 1131 1117 1110 1068 1121 1134 1128 1201 1111 1135 1134 1153 1155 1161 1094 1172 1125 1152 1118 1111 1103 1102 1067 1096 1168 1087 1105 1098 1106 1091 1069 1105 1164 1147 1175 1125 1112 1136 1048 1080 1097 1129 1076 1103 1085 1113 1099 1081 1124 1109 1160 1123 1109 1120 1129 1081 1109 1106 1141 1107 1088 1130 1058 1060 1070 1148 1168 1146 1075 1137 1177 1087 1159 1060 1110 1085 1125 1092 1136 1123 1138 1144 1153 1076 1110 1107 1125 1130 1136 1156 1115 1141 1138 1137 1120 1184 1120 1143 1082 1147 1105 1073 1069 1134 1133 1156 1125 1096 1075 1085 1162 1142 1134 1132 1072 1182 1154 1114 1125 1106 1115 1118 1105 1104 1149 1184 1038 1084 1131 1133 1156 1059 1149 1129 1128 1098 1063 1122 1086 1114 1089 1117 1075 1096 1130 1146 1163 1098 1121 1184 1119 1078 1162 1117 1111 1074 1180 1149 1124 1056 1147 1090 1110 1142 1161 1144 1146 1138 1114 1062 1131 1156 1139 1101 1131 1081 1073 1093 1156 1162 1127 1094 1111 1061 1134 1126 1146 1130 1124 1083 1173 1099 1126 1134 1101 1164 1081 1081 1124 1131 1124 1131 1103 1142 1113 1109 1138 1102 1101 1148 1125 1129 1105 1129 1107 1106 1079 1133 1118 1114 1166 1149 1174 1105 1154 1116 1128 1080 1182 1185 1203 1173 1167 1172 1162 1213 1201 1290 1210 1252 1233 1255 1289 1261 1243 1412 1406 1511 1663 1779 1775 1891 2070 2134 2313 2354 2345 2421 2296 2406 2397 2404 2446 2367 2549 2536 2381 2413 2451 2357 2339 2366 2299 2181 2195 2100 2046 1963 1872 1849 1800 1815 1730 1716 1765 1605 1697 1646 1552 1529 1528 1543 1493 1439 1476 1459 1452 1474 1445 1485 1420 1498 1568 1468 1359 1376 1329 1385 1430 1438 1363 1403 1392 1358 1376 1361 1355 1328 1301 1309 1268 1309 1305 1256 1284 1239 1267 1227 1169 1165 1193 1177 1189 1172 1170 1208 1190 1140 1070 1102 1146 1135 1126 1158 1072 1128 1100 1114 1145 1080 1102 1054 1095 1185 1086 1144 1103 1134 1085 1131 1066 1131 1083 1102 1137 1058 1064 1103 1052 1115 1134 1061 1056 1039 1095 1101 1048 1046 1107 1081 1046 1093 1136 1098 1103 1101 1095 1133 1068 1097 1104 1096 1149 1036 1117 1123 1107 1102 1138 1160 1126 1133 1088 1158 1058 1147 1073 1206 1119 1072 1152 1131 1042 1139 1059 1174 1104 1078 1073 1096 1105 1083 1063 1153 1082 1090 1075 1083 1121 1068 1070 1071 1079 1036 1080 1092 1065 1040 1060 1109 1059 1077 1120 1062 1075 1063 1103 1056 1102 1086 1093 1081 1030 1035 1099 1071 1072 1101 1041 1045 1084 1024 1067 1063 1099 1147 1084 1116 1090 1158 1139 1062 1199 1092 1160 1118 1116 1179 1158 1248 1230 1264 1234 1212 1222 1205 1179 1167 1207 1179 1249 1221 1241 1196 1261 1230 1177 1161 1284 1253 1196 1139 1107 1120 1125 1113 1132 1139 1099 1106 1110 1138 1150 1105 1097 1106 1072 1132 1083 1036 1140 1091 1063 1100 1096 1072 1022 1074 1138 1061 1084 1124 1055 1085 1091 1040 1087 1089 1065 1038 1090 1065 1051 1061 1115 1053 1066 1047 986 1111 1077 1119 1034 1083 1084 1089 1073 1077 1049 1032 1046 1090 1080 1029 1003 1002 1077 1029 1049 992 1085 975 1036 1013 1054 1033 1067 1109 1067 1044 1028 1055 1107 1033 1058 1040 1041 998 1092 1047 1023 1055 1014 1042 1031 1050 1019 1065 1054 1051 1056 999 1023 1047 1025 1042 1036 994 1065 1007 992 1069 1007 970 1012 1029 1078 1037 1062 1067 1046 1044 1109 1072 1044 1007 1011 1007 1029 1078 1070 1057 1015 1053 1052 1075 1010 1072 1086 1056 1090 1040 1044 1036 1056 1036 990 1046 995 1103 986 1044 1030 1016 1016 1048 1027 996 1020 1010 1084 1069 1029 1061 1018 1028 1061 1065 1001 956 1076 1043 974 1050 1012 1022 1007 969 1015 1024 1062 1040 1040 1039 1063 990 979 1072 1035 1054 1008 1056 1120 1058 1057 1052 987 1028 1016 1063 1066 1035 1047 1043 990 982 1012 1072 990 1017 1054 995 1021 1004 1006 999 985 1058 954 1016 1044 1023 1030 997 1013 1042 1031 1021 1020 1026 1026 996 1033 1040 1030 1081 1009 1076 1012 1059 1040 1092 1036 977 1027 1046 1008 1071 1023 1018 969 1053 1028 1068 993 988 1018 952 995 1016 1104 1011 1057 1003 944 1015 1035 1019 1021 1063 1026 1052 1004 992 1002 999 997 1028 1001 997 1090 998 1026 983 1063 1031 959 977 1058 1030 1075 1042 967 1019 956 993 972 998 1016 959 988 983 1026 990 1013 1039 984 942 999 1062 1000 1031 947 1048 981 987 1022 967 1037 1000 1017 984 999 996 997 1030 1016 973 1020 998 1081 1040 989 999 1002 999 1015 1005 1012 1015 1054 1051 1053 964 1028 968 1010 999 1006 1008 1022 1002 1038 979 1048 1017 1031 1029 974 1010 982 1055 1018 1028 990 983 1040 974 1051 957 1034 1007 1050 1023 1037 1007 1044 1001 1043 959 1039 963 1005 1059 970 1027 975 1042 941 1056 1044 1014 992 1003 981 1034 999 1008 976 981 1021 1067 1018 991 1001 1036 1000 999 946 1004 993 992 1017 1016 994 963 1038 1002 995 959 999 1017 992 993 1007 990 960 1025 991 1049 977 920 1010 995 1010 982 1014 986 984 1016 974 1021 977 1055 965 945 1004 959 1012 1039 1007 1027 1020 1008 983 948 997 995 979 1004 934 1064 948 992 981 985 1043 1023 1013 1005 980 947 1048 1052 978 988 1003 983 995 998 980 1038 976 943 990 1046 1028 991 922 1013 957 1012 988 996 1003 1009 992 934 932 956 969 973 968 991 991 1005 1033 961 988 1007 1019 974 986 948 1045 965 1000 985 976 990 1009 979 1031 966 958 1015 999 1037 983 1000 1018 981 1006 1004 1041 1014 993 1052 1039 979 985 1014 1026 944 1063 1074 1036 980 1065 1052 1156 1063 1038 1023 1029 957 1039 1089 967 965 1003 1009 990 999 1045 972 1082 990 1004 1034 1018 957 1034 979 1013 998 1051 997 1005 998 1028 1033 1006 1071 970 1001 976 1036 1000 981 1003 987 959 985 1020 973 1022 1020 1024 1024 940 1014 1032 1015 1075 1046 1016 1073 1078 1080 1108 1119 1080 1119 1134 1186 1202 1125 1122 1095 1030 1074 1150 1125 1133 1172 1127 1084 1144 1146 1140 1106 1118 1131 1067 1104 1065 1103 1096 1081 1078 1078 1061 1053 1086 1042 999 997 1047 1045 1028 1065 1112 979 1003 998 1044 1041 1074 1062 1006 1038 1023 1047 1016 1021 1013 985 1077 1003 1024 982 984 1020 958 1019 1016 1056 998 1000 1004 1022 1029 970 994 979 1018 1020 980 970 1021 979 1001 943 985 1039 958 972 965 953 967 985 1024 963 1025 980 972 978 999 912 961 955 909 1035 969 1012 995 964 976 933 1015 946 994 993 909 944 987 953 1034 1041 917 962 943 944 968 941 981 923 985 951 969 919 941 948 966 1049 988 938 985 1002 970 906 880 941 952 914 936 975 1002 1010 920 974 976 985 967 991 995 964 965 987 939 908 944 995 1002 1009 1005 1006 970 925 982 1026 943 938 968 975 969 975 931 949 959 993 1007 939 1037 954 980 937 1021 972 936 980 998 1013 955 1094 1014 957 980 905 1035 1032 980 969 981 987 985 1006 957 944 1041 1034 969 995 973 997 983 987 1001 972 1008 1052 986 930 1000 972 1001 978 997 945 932 940 988 985 1032 954 992 972 1066 959 939 960 978 938 988 957 1020 971 1086 953 948 961 969 996 1022 996 1000 966 1027 985 1041 1032 1070 1012 1022 1078 1154 1198 1202 1246 1183 1257 1216 1220 1202 1202 1188 1167 1214 1126 1198 1185 1229 1283 1206 1243 1230 1267 1259 1142 1201 1135 1186 1117 1086 1139 1137 1100 1072 1090 1095 1014 1091 1082 1097 1063 1046 1070 1012 1062 1129 1055 1036 1022 1108 1070 1036 1058 1086 1018 1012 1079 1046 1035 1020 1049 1009 1071 979 963 1049 1026 964 1009 1001 1055 1013 987 1001 1032 1021 1030 1018 1008 994 937 959 968 991 1026 960 978 976 954 964 1014 917 945 927 956 940 978 940 967 953 970 980 993 972 899 915 937 970 991 923 937 971 990 966 951 953 992 957 941 962 969 993 995 1022 903 956 918 917 968 985 964 963 945 926 932 940 921 941 887 1015 914 962 970 969 896 941 954 1000 935 950 947 893 944 980 944 929 905 929 981 917 907 983 971 937 965 901 937 913 904 900 973 981 958 920 930 954 931 981 948 932 933 944 921 986 904 967 924 917 945 943 942 964 926 952 975 939 990 932 937 997 974 998 1026 987 985 1048 1064 1061 973 991 975 1030 1010 969 964 1010 1031 1019 1038 1000 984 961 989 993 971 988 979 974 977 992 974 997 982 962 983 988 919 994 898 945 944 901 923 942 980 952 993 975 915 948 959 975 961 914 982 948 981 939 948 948 956 961 941 975 889 975 946 911 978 974 917 916 907 933 953 1005 933 895 1000 913 971 922 977 976 938 908 921 977 916 959 951 922 914 936 920 975 909 931 965 919 925 914 929 909 916 899 902 950 915 918 906 897 917 926 908 914 892 861 868 927 930 931 947 913 982 973 957 925 955 923 917 881 974 924 862 918 922 932 956 991 894 974 860 905 963 915 894 907 942 917 922 892 936 932 937 902 879 898 910 916 905 927 920 889 944 890 904 905 947 894 869 903 944 972 929 895 960 878 929 942 944 938 985 904 947 986 869 934 945 913 922 950 899 942 925 931 891 963 919 975 921 902 952 913 923 924 922 927 923 917 902 944 941 907 912 922 910 996 923 963 939 876 964 870 937 913 962 926 909 927 955 905 913 887 929 932 867 929 931 945 862 930 872 931 917 938 934 937 884 945 902 895 900 940 917 923 915 920 931 876 911 883 902 876 904 909 907 916 924 899 925 874 927 928 932 870 901 905 965 880 879 894 926 944 953 919 920 907 932 923 964 904 905 882 860 927 913 956 943 972 850 947 918 924 924 945 985 909 978 944 847 947 914 908 934 923 921 916 957 976 884 898 919 878 916 893 887 877 885 902 932 888 949 894 901 834 888 932 864 955 931 940 860 952 902 934 901 907 947 884 941 882 868 880 943 912 867 934 870 920 882 950 879 956 937 943 914 913 891 847 908 941 895 878 909 957 947 937 917 881 918 947 834 865 885 908 944 949 903 885 870 902 930 901 967 945 939 875 915 880 863 931 951 916 899 882 877 905 917 971 903 974 913 951 933 917 959 957 874 923 887 920 883 900 892 914 881 933 908 910 924 967 984 947 901 921 938 902 968 916 937 875 911 894 895 895 923 944 888 908 960 928 939 983 937 944 930 915 928 934 969 880 931 921 896 936 916 912 897 900 928 901 926 887 990 915 882 898 956 954 852 918 896 919 888 914 978 907 948 957 885 920 908 961 927 925 926 859 936 880 868 936 930 886 873 931 970 916 987 934 984 989 977 950 935 1021 937 936 951 946 939 936 899 917 905 941 1009 841 942 980 933 968 1024 920 1024 907 943 911 947 902 899 933 936 880 963 926 879 948 896 955 932 912 927 944 932 955 934 955 952 913 954 940 931 962 954 904 970 905 920 933 920 856 882 860 888 972 888 902 875 975 903 884 912 919 906 937 917 911 886 912 885 867 861 907 908 939 920 952 903 944 881 903 881 887 877 890 930 926 977 896 844 966 824 915 881 857 928 936 901 886 905 894 889 875 872 889 878 881 879 907 903 958 950 901 861 878 851 898 919 860 889 888 863 932 910 901 973 872 897 906 951 948 872 929 910 932 907 862 892 962 876 908 947 960 926 967 934 913 910 923 882 920 901 878 895 878 902 907 946 939 895 887 890 860 917 884 895 936 852 919 930 853 889 910 894 872 925 912 923 885 904 910 914 836 964 922 962 941 855 888 854 868 902 886 915 855 939 906 967 904 899 910 892 916 895 893 929 890 903 912 914 849 939 908 839 868 858 873 932 902 896 896 918 877 916 880 913 924 872 863 927 900 954 869 856 902 929 908 892 856 915 889 934 867 900 894 893 892 865 904 889 966 921 853 908 878 892 905 918 915 945 932 900 898 891 970 916 940 902 926 913 909 876 895 977 899 945 946 947 915 960 949 940 937 979 990 973 1030 1008 988 973 1036 1060 994 1056 1080 1044 1094 1107 1088 1103 1065 1122 1054 1101 1024 1046 989 1080 1104 1048 985 1078 1035 1018 1042 970 1048 1004 1035 1104 1040 1040 1007 987 1020 1080 1000 1061 948 1017 964 948 958 993 994 960 984 932 1012 905 982 891 908 933 922 895 930 953 918 944 893 901 925 922 949 913 939 969 938 871 903 906 887 883 884 858 943 922 893 894 866 888 908 860 880 933 921 907 903 962 920 960 907 871 879 923 895 890 935 918 905 910 911 911 975 890 897 953 887 909 919 854 913 917 873 909 884 913 852 854 864 901 909 847 872 921 880 918 838 867 886 906 864 899 893 882 889 833 875 879 937 904 891 846 909 850 871 872 889 922 857 898 918 800 910 943 849 934 911 938 919 919 907 832 873 921 874 843 918 876 893 920 825 865 839 912 873 912 923 839 838 896 908 896 874 881 880 859 862 859 846 855 894 912 889 905 896 945 871 870 873 918 871 916 921 924 838 921 826 891 929 907 911 802 888 888 870 829 915 907 916 906 878 899 911 942 882 900 898 836 873 887 889 906 920 897 856 896 920 872 845 945 869 892 845 900 894 903 848 893 863 910 878 889 895 916 894 873 886 828 920 904 849 896 886 878 918 891 869 872 923 909 894 838 917 918 867 881 940 918 912 903 895 938 972 960 875 833 872 926 859 870 907 884 806 858 871 890 924 902 937 895 932 861 937 852 914 916 919 921 961 909 894 903 886 820 870 917 831 895 893 877 880 927 899 887 880 932 866 873 897 844 871 878 894 902 876 848 892 866 900 903 852 865 903 908 893 920 900 868 812 874 875 905 886 883 876 885 876 898 919 895 895 903 846 883 903 861 872 863 835 886 862 885 877 895 909 862 878 829 883 865 885 864 855 915 912 885 873 932 882 912 861 916 877 868 844 883 908 907 915 885 867 882 898 889 899 878 880 908 868 891 888 864 907 874 854 911 904 944 894 882 873 910 887 886 882 869 891 812 889 819 874 874 854 918 881 915 874 880 893 899 892 938 880 841 858 882 904 918 827 868 850 902 886 884 836 909 881 891 931 942 896 899 936 893 835 859 938 824 911 868 875 855 898 815 883 869 862 875 927 867 927 880 884 888 867 859 858 909 926 862 868 831 825 914 916 875 948 930 886 890 872 908 922 860 852 885 885 850 898 898 879 922 878 855 853 891 893 877 893 937 895 899 858 925 902 846 903 945 865 875 914 875 915 884 898 915 903 881 899 850 910 871 885 894 872 926 899 900 855 879 932 889 840 876 885 915 893 864 887 858 880 955 887 948 865 900 855 866 860 885 861 908 940 842 836 921 861 914 871 903 906 841 912 863 907 928 911 827 915 941 856 945 913 887 950 866 923 941 915 867 881 869 929 927 948 938 893 885 960 888 861 887 932 898 874 925 835 842 868 928 888 901 886 829 871 889 879 906 871 835 893 878 816 857 859 891 881 940 933 918 871 898 849 852 892 902 924 817 896 848 864 896 918 909 910 928 930 944 914 935 921 920 894 836 917 898 862 833 927 932 979 891 907 955 897 944 946 888 853 887 859 910 958 958 891 936 904 967 887 879 919 902 912 913 888 932 910 958 890 907 927 947 940 940 902 930 899 940 893 914 938 898 898 894 924 929 928 948 952 950 949 863 921 941 960 910 901 944 978 931 915 910 918 902 931 920 874 939 944 913 895 927 931 931 931 901 925 947 905 934 978 892 919 928 939 941 890 928 922 948 889 909 898 940 888 894 906 918 922 905 865 911 935 928 850 928 876 876 898 885 900 955 945 900 895 907 928 936 843 919 928 875 904 862 907 921 894 893 937 860 942 903 862 913 942 877 884 936 893 919 877 912 829 911 919 848 902 814 851 862 927 933 906 864 910 944 910 897 832 916 863 879 912 917 836 896 865 888 878 823 811 899 877 857 847 848 1000 872 894 902 917 883 866 842 903 912 914 883 857 922 865 941 865 897 916 928 838 877 898 937 865 893 865 908 918 880 887 888 951 900 850 874 930 872 862 851 865 865 946 905 927 883 891 916 897 884 884 884 933 843 899 861 887 934 831 894 904 907 859 891 890 881 912 952 906 878 922 903 905 884 934 894 917 930 936 872 925 921 907 941 906 915 910 918 915 897 888 946 939 931 940 979 908 925 957 969 993 943 1029 1074 1036 1052 1091 1123 1042 1142 1119 1146 1149 1181 1120 1153 1198 1157 1175 1145 1116 1078 1113 1046 1144 1081 1062 1100 1069 1085 1083 1048 1054 1121 1126 1103 1062 1047 1082 1069 1085 1022 1022 1105 1036 1037 1098 1061 1031 1029 1006 945 1015 946 958 950 1017 1002 959 983 947 915 965 923 948 956 900 913 876 911 891 925 859 878 914 883 913 907 867 921 884 929 873 940 902 922 903 923 964 908 884 955 917 865 894 866 910 902 897 860 836 812 894 887 894 921 958 859 947 861 899 897 866 866 855 884 903 911 860 934 866 882 844 880 864 917 926 883 862 920 926 848 861 900 963 848 801 886 890 902 805 860 886 879 901 906 855 865 921 930 857 886 896 839 892 869 932 877 891 881 872 831 897 870 856 855 857 823 848 851 876 871 917 933 930 908 915 891 893 904 912 923 920 903 848 906 875 882 876 896 848 906 905 915 848 884 876 882 850 926 871 900 946 896 877 911 882 878 893 920 901 918 973 916 908 859 896 872 937 888 917 909 838 908 928 886 922 885 871 833 861 907 887 912 813 839 855 829 837 852 846 863 854 885 849 920 900 898 836 817 915 873 874 892 878 837 840 870 884 940 902 897 795 848 870 822 843 821 861 844 823 887 869 880 869 886 907 891 918 824 861 867 856 874 837 889 817 892 891 839 901 855 876 830 938 879 887 864 878 898 891 876 902 867 851 882 877 817 871 836 807 842 816 862 921 871 872 882 893 873 872 850 862 809 868 909 822 891 836 916 874 861 857 893 863 886 829 866 873 832 864 911 795 843 875 903 834 833 890 897 850 838 862 850 858 838 831 871 865 877 901 884 865 899 864 861 857 825 812 847 877 877 878 803 862 914 896 847 860 900 871 851 854 835 889 837 883 841 887 832 877 875 871 903 841 935 904 829 834 846 873 851 855 889 877 871 849 881 833 842 832 873 864 911 878 830 836 871 802 928 888 890 893 869 811 820 896 879 770 880 830 868 857 832 858 863 901 895 797 851 811 871 845 862 829 865 840 870 869 851 843 845 856 844 851 898 833 818 834 847 871 800 861 861 832 781 908 776 861 883 876 900 829 898 857 844 863 866 870 835 864 833 819 889 848 894 856 884 803 862 852 808 860 804 846 918 866 810 877 903 896 869 836 848 813 855 905 880 818 887 844 889 889 853 862 904 884 847 847 813 852 861 849 873 863 867 816 848 889 865 858 837 873 912 825 840 856 859 871 826 815 817 820 827 830 877 885 854 838 845 895 850 866 861 842 845 870 769 832 891 825 809 828 828 842 863 868 833 838 857 827 856 846 861 834 867 862 889 823 888 884 866 833 881 825 835 841 828 873 938 808 881 907 866 847 874 862 910 951 858 876 798 863 865 863 797 841 846 877 859 856 867 822 846 809 881 858 868 843 863 868 903 894 834 811 898 885 787 859 794 861 852 858 858 892 888 905 922 860 894 891 916 922 861 869 872 869 935 919 956 911 913 877 926 868 900 903 917 869 867 878 862 857 866 973 922 841 860 870 847 856 853 916 954 889 911 887 815 893 907 919 912 900 894 909 882 880 865 922 820 892 845 851 909 859 845 839 928 858 878 847 877 882 824 844 871 879 892 842 846 896 873 842 885 877 830 828 890 842 864 887 856 865 836 912 834 850 851 847 886 861 874 811 846 850 854 832 865 880 874 857 844 880 855 870 870 818 805 875 910 835 869 833 819 929 846 893 836 853 883 845 858 851 852 812 844 849 886 815 869 828 878 923 858 842 834 842 854 797 910 813 906 802 835 865 842 846 835 919 881 860 859 802 831 902 886 850 906 812 882 873 826 868 843 837 842 797 866 875 787 861 866 896 874 841 848 823 877 812 905 883 878 867 871 838 816 929 833 878 833 848 857 836 806 876 875 845 841 851 811 829 843 878 822 842 873 836 808 865 861 857 794 826 820 811 871 821 888 825 864 861 828 843 834 877 838 858 883 864 829 832 837 872 863 874 856 816 818 865 888 837 817 827 829 827 841 814 844 855 862 884 806 880 866 867 834 877 890 838 878 878 859 842 875 847 915 900 855 824 788 867 808 909 875 872 874 837 838 840 855 829 894 823 932 882 873 893 799 896 850 896 871 913 872 920 913 932 1007 1037 962 940 991 967 1015 968 978 990 937 1006 957 975 993 973 962 910 933 985 962 935 942 991 993 955 998 954 949 954 943 957 978 927 974 1001 925 987 981 943 954 886 943 906 932 956 981 928 956 899 927 870 946 913 892 877 877 906 920 895 902 895 875 919 884 895 945 927 906 889 860 883 852 845 840 852 863 825 808 898 889 847 861 860 866 847 873 866 883 808 872 815 872 876 848 798 868 817 849 855 872 818 823 870 892 838 862 866 888 780 842 804 820 861 870 877 841 825 853 874 827 857 826 849 857 952 868 866 869 874 857 814 825 867 783 806 855 858 856 835 858 860 861 846 870 800 878 872 847 858 887 892 829 847 869 830 840 872 817 848 846 776 851 814 820 858 847 849 846 819 862 818 836 864 881 851 893 860 854 868 887 810 890 896 867 814 848 844 853 905 847 807 822 751 822 832 855 880 875 887 820 854 821 901 838 804 855 827 843 801 886 869 851 867 871 877 815 841 841 808 822 839 844 859 885 893 876 859 888 814 812 899 822 799 835 846 880 823 836 841 868 854 833 830 815 832 891 818 843 818 808 820 849 779 841 804 822 827 883 820 811 839 825 810 875 841 889 804 841 799 819 898 832 856 802 820 863 815 897 837 838 879 793 878 838 850 855 790 778 819 820 803 853 813 834 820 793 873 878 821 819 861 846 878 837 864 841 837 825 879 843 841 854 894 833 791 841 798 916 837 803 793 819 798 836 867 837 858 811 835 867 841 841 902 837 840 854 815 850 815 805 842 872 829 862 852 812 841 823 851 823 838 913 925 814 853 861 841 833 847 759 797 878 838 858 807 789 791 831 849 794 845 849 849 795 819 822 882 843 863 821 873 849 832 821 819 853 832 925 836 837 893 856 869 796 861 798 859 831 867 882 851 805 841 837 869 865 851 873 836 842 776 864 873 796 799 862 838 876 815 843 839 863 848 839 887 805 813 820 871 840 810 853 836 872 832 853 848 789 811 881 836 836 829 854 855 824 781 870 848 794 861 760 841 889 858 855 772 859 800 822 835 895 823 838 860 893 845 782 813 836 832 849 837 848 846 840 800 892 863 853 880 861 857 835 804 847 907 812 850 823 851 820 815 893 831 900 775 872 812 799 824 788 864 835 821 864 822 910 828 825 889 862 881 834 807 849 860 818 834 884 825 804 830 800 881 836 798 871 818 882 854 891 868 883 809 799 836 802 889 843 823 859 777 811 840 817 811 828 833 861 845 808 838 841 786 867 886 771 827 839 889 845 814 825 834 833 894 843 879 887 799 807 835 881 887 837 784 833 824 864 809 807 826 821 770 901 769 836 823 819 880 838 840 769 827 823 853 833 808 853 816 795 782 821 838 841 855 800 826 793 821 818 868 855 913 854 861 814 822 870 851 803 825 866</counts>
			</dataPoints>
		</scan>
	</xrdMeasurement>
</xrdMeasurements>
