<?xml version="1.0"?>
<xrdMeasurements xmlns="http://www.xrdml.com/XRDMeasurement/2.3" xmlns:xsi="http://www.w3.org/2001/XMLSchema-instance" xsi:schemaLocation="http://www.xrdml.com/XRDMeasurement/2.3 http://www.xrdml.com/XRDMeasurement/2.3/XRDMeasurement.xsd" status="Completed" recordIdentifier="{9EB95F85-96A2-4514-B91E-D0C09B4D0518}">
	<comment>
		<entry/>
	</comment>
	<sample type="To be analyzed">
		<id>GPSS_Li1p8Mg0p5Mn0p2Ni0p1Y0p2Cl4_111825_691cd5d8f3837ac4a0a99fd1</id>
		<name></name>
		<preparedBy></preparedBy>
	</sample>
	<xrdMeasurement measurementType="Scan" status="Completed" sampleMode="Reflection">
		<usedWavelength intended="K-Alpha 1">
			<kAlpha1 unit="Angstrom">1.5405980</kAlpha1>
			<kAlpha2 unit="Angstrom">1.5444260</kAlpha2>
			<kBeta unit="Angstrom">1.3922500</kBeta>
			<ratioKAlpha2KAlpha1>0.5000</ratioKAlpha2KAlpha1>
		</usedWavelength>
		<incidentBeamPath>
			<radius unit="mm">145.00</radius>
			<xRayTube id="1010048" name="Empyrean Cu LFF HR (9430 033 7310x)">
				<tension unit="kV">40.0</tension>
				<current unit="mA">15.0</current>
				<anodeMaterial>Cu</anodeMaterial>
				<focus type="Line">
					<length unit="mm">12.0</length>
					<width unit="mm">0.4</width>
					<takeOffAngle unit="deg">6.0</takeOffAngle>
				</focus>
			</xRayTube>
			<sollerSlit id="21010002" name="Soller slits 0.04 rad.">
				<opening unit="rad">0.0400</opening>
			</sollerSlit>
			<mask id="22031000" name="Fixed mask 13 mm">
				<width unit="mm">9.00</width>
			</mask>
			<divergenceSlit id="22120001" name="Divergence slit 1°" xsi:type="fixedDivergenceSlitType">
				<distanceToSample unit="mm">50.00</distanceToSample>
				<height unit="mm">1.52</height>
			</divergenceSlit>
		</incidentBeamPath>
		<sampleMovement xsi:type="spinningSampleMovementType">
			<spinnerRevolutionTime unit="seconds">1.0</spinnerRevolutionTime>
		</sampleMovement>
		<diffractedBeamPath>
			<radius unit="mm">145.00</radius>
			<antiScatterSlit id="22090040" name="AS slit 9 mm (PIXcel)" xsi:type="fixedAntiScatterSlitType">
				<height unit="mm">9.00</height>
			</antiScatterSlit>
			<sollerSlit id="21020003" name="Large Soller slits 0.04 rad.">
				<opening unit="rad">0.0400</opening>
			</sollerSlit>
			<filter id="20030001" name="Large beta-filter Nickel">
				<material>Ni</material>
				<thickness unit="mm">0.020</thickness>
			</filter>
			<detector id="7010019" name="PIXcel1D-Medipix3 detector" xsi:type="rtmsDetectorType">
				<phd unit="keV">
					<lowerLevel>4.02</lowerLevel>
					<upperLevel>11.27</upperLevel>
				</phd>
				<mode>Scanning</mode>
				<activeLength unit="deg">5.542</activeLength>
			</detector>
		</diffractedBeamPath>
		<scan appendNumber="0" mode="Continuous" scanAxis="Gonio" status="Completed">
			<header>
				<startTimeStamp>2025-11-21T19:34:29-08:00</startTimeStamp>
				<endTimeStamp>2025-11-21T19:42:36-08:00</endTimeStamp>
				<author>
					<name>AutomatedUser</name>
				</author>
				<source>
					<applicationSoftware version="1.7b (136)">PANalytical Aeris Instrument Suite</applicationSoftware>
					<instrumentControlSoftware version="3.2.00000000 20240306">AERIS</instrumentControlSoftware>
					<instrumentID>950485</instrumentID>
				</source>
			</header>
			<dataPoints>
				<positions axis="2Theta" unit="deg">
					<startPosition>10.00943322</startPosition>
					<endPosition>99.99442286</endPosition>
				</positions>
				<positions axis="Omega" unit="deg">
					<startPosition>5.00471661</startPosition>
					<endPosition>49.99721143</endPosition>
				</positions>
				<commonCountingTime unit="seconds">12.495</commonCountingTime>
				<counts unit="counts">3114 3023 3193 3069 3001 3085 3173 3086 3085 3072 3088 3117 2922 3201 3028 3107 3072 3036 3011 3139 2984 3040 3108 3058 3095 3056 3060 3096 3082 3120 3171 3048 3121 3113 3086 3133 3171 3250 2995 3081 3080 3221 3107 3022 2957 3059 3084 3148 3123 3102 3046 3142 3060 3151 3143 3025 3075 3145 3070 3111 3107 3046 3159 3096 3102 3079 3157 3123 3144 3122 3002 3032 3047 3152 3114 3169 3142 3191 3090 3221 3016 3199 3123 3136 3093 3141 3192 3252 3204 3127 3153 3183 3195 3240 3282 3170 3111 3258 3167 3311 3245 3235 3121 3214 3201 3220 3155 3236 3137 3331 3173 3216 3302 3225 3247 3195 3117 3309 3218 3346 3199 3338 3259 3226 3175 3283 3259 3228 3278 3260 3178 3258 3262 3285 3312 3319 3350 3274 3350 3343 3170 3265 3146 3388 3263 3177 3248 3171 3227 3189 3290 3317 3213 3277 3202 3176 3251 3307 3113 3316 3200 3239 3179 3249 3268 3132 3244 3248 3171 3208 3313 3155 3255 3250 3154 3257 3230 3175 3170 3203 3165 3144 3258 3184 3141 3147 3194 3229 3177 3195 3238 3211 3169 3267 3119 3201 3217 3094 3217 3266 3209 3279 3221 3075 3202 3205 3259 3254 3257 3204 3227 3113 3084 3158 3226 3086 3224 3262 3169 3180 3107 3206 3232 3165 3127 3221 3300 3034 3068 3040 3053 3117 3087 3112 3199 3135 3069 3175 3265 3094 3112 3033 3183 3076 3104 3170 3113 3062 3083 3127 3085 3095 3104 3128 3025 3087 3024 3146 3050 3080 2951 3108 3051 3146 3068 3150 3158 2987 3090 2972 3134 3052 3181 3021 3094 3162 3072 3154 3154 3136 3104 3097 3146 3033 3083 3069 3082 3080 3069 3019 3126 3074 3193 3149 2995 3099 3030 3036 3133 3193 3152 3153 3068 3048 3203 3169 3170 3133 3061 3192 3088 3195 3188 3164 3245 3162 3196 3093 3236 3187 3165 3149 3237 3238 3260 3170 3268 3198 3323 3264 3159 3382 3410 3242 3189 3222 3327 3258 3230 3317 3301 3294 3291 3287 3236 3351 3373 3392 3389 3368 3342 3354 3422 3444 3409 3366 3367 3361 3458 3430 3409 3469 3475 3372 3403 3499 3456 3419 3595 3560 3395 3450 3471 3502 3453 3508 3420 3538 3460 3456 3565 3608 3554 3362 3567 3470 3426 3468 3558 3473 3528 3560 3542 3529 3628 3593 3695 3477 3598 3550 3558 3552 3646 3662 3665 3758 3747 3709 3775 3811 3926 3818 3905 3936 4077 3970 4004 4126 4116 4088 4193 4097 4281 4176 4135 4154 4215 4127 4331 3981 4230 4092 4200 4144 4108 4101 4145 4056 4082 4178 4261 4213 4096 4112 4219 4098 4079 4054 4091 4079 4167 3989 4181 3984 4084 3917 3954 3966 3913 3883 3894 3883 3950 3795 3793 3848 3799 3752 3738 3786 3839 3814 3657 3743 3727 3839 3707 3731 3717 3605 3737 3645 3666 3658 3635 3625 3563 3440 3413 3408 3464 3396 3500 3471 3443 3353 3294 3463 3359 3314 3294 3267 3298 3384 3301 3214 3259 3194 3204 3128 3127 3299 3099 3130 3185 3243 3208 3114 3149 3179 3079 3186 3157 3156 3224 3116 3087 3048 3061 3212 3004 3186 3075 3056 3118 3107 3044 3178 3139 3096 3114 3059 2933 3051 3052 3138 3060 3169 2953 3058 2979 3005 2995 3087 3093 2981 2998 2942 3027 2948 3012 2997 2915 2938 3015 3020 2911 2961 2896 3049 2954 3038 2878 2962 2910 2944 2922 2986 2965 2893 2956 2823 2939 2801 2826 2904 2971 2955 2841 2968 2845 2892 2825 2894 2851 2872 2824 2854 2918 2887 2946 2788 2965 2731 2727 2861 2881 2905 2863 2847 2880 2715 2777 2785 2814 2793 2793 2782 2711 2837 2777 2879 2728 2742 2778 2868 2846 2770 2840 2800 2669 2750 2791 2904 2809 2735 2808 2746 2733 2733 2802 2815 2762 2782 2765 2636 2647 2801 2831 2738 2632 2738 2789 2824 2714 2706 2791 2794 2824 2880 2809 2695 2804 2768 2772 2764 2786 2699 2737 2848 2849 2757 2694 2783 2791 2793 2811 2854 2823 2854 2748 2847 2813 2797 2742 2814 2802 2774 2684 2748 2778 2822 2768 2745 2765 2747 2729 2702 2606 2665 2730 2840 2727 2759 2669 2735 2723 2694 2694 2713 2646 2615 2630 2656 2722 2690 2718 2811 2658 2534 2745 2665 2747 2686 2610 2707 2632 2601 2680 2702 2740 2641 2676 2758 2712 2591 2640 2674 2598 2623 2686 2724 2678 2730 2598 2668 2633 2608 2612 2647 2706 2703 2634 2598 2711 2701 2711 2693 2652 2673 2617 2636 2577 2618 2577 2602 2646 2785 2591 2614 2658 2609 2668 2738 2657 2598 2650 2676 2637 2641 2588 2582 2575 2627 2587 2659 2640 2561 2554 2625 2567 2712 2549 2751 2635 2623 2517 2522 2506 2540 2600 2570 2477 2592 2542 2496 2626 2522 2526 2570 2555 2536 2554 2569 2474 2590 2477 2591 2522 2500 2648 2586 2477 2412 2494 2504 2562 2523 2547 2414 2445 2539 2536 2538 2566 2534 2452 2478 2503 2512 2388 2437 2481 2441 2481 2480 2427 2632 2477 2394 2451 2387 2524 2523 2509 2424 2559 2512 2477 2507 2551 2532 2433 2478 2449 2517 2470 2468 2562 2523 2482 2510 2358 2514 2368 2561 2410 2472 2479 2482 2467 2437 2461 2513 2400 2523 2438 2380 2397 2377 2453 2430 2450 2330 2436 2376 2406 2385 2489 2415 2348 2493 2356 2457 2447 2524 2311 2585 2415 2468 2325 2385 2433 2406 2444 2474 2318 2389 2385 2436 2388 2411 2447 2397 2426 2405 2409 2428 2455 2382 2407 2419 2476 2373 2341 2367 2527 2346 2338 2431 2368 2279 2386 2401 2465 2431 2346 2309 2335 2434 2287 2382 2439 2386 2428 2348 2330 2296 2445 2401 2420 2294 2397 2276 2386 2353 2387 2304 2332 2340 2418 2359 2248 2367 2373 2369 2290 2286 2251 2350 2382 2341 2370 2327 2335 2387 2287 2329 2198 2382 2378 2396 2362 2300 2336 2365 2312 2398 2319 2330 2384 2228 2334 2345 2293 2265 2397 2287 2295 2284 2328 2334 2370 2260 2338 2307 2315 2238 2418 2303 2360 2386 2249 2357 2323 2267 2328 2330 2305 2375 2302 2335 2360 2392 2353 2371 2372 2282 2306 2386 2439 2419 2350 2415 2380 2388 2317 2381 2370 2384 2392 2320 2298 2349 2341 2315 2311 2341 2260 2353 2298 2325 2318 2324 2383 2345 2297 2400 2371 2318 2330 2301 2334 2334 2259 2301 2319 2326 2310 2364 2348 2348 2260 2276 2297 2371 2244 2319 2239 2426 2335 2279 2290 2313 2313 2333 2353 2314 2311 2317 2321 2250 2331 2309 2270 2324 2276 2252 2287 2287 2269 2299 2330 2309 2232 2285 2375 2269 2238 2343 2257 2224 2281 2244 2199 2269 2204 2176 2244 2278 2178 2219 2240 2184 2221 2263 2258 2144 2250 2193 2211 2182 2198 2168 2182 2253 2207 2244 2265 2194 2349 2271 2181 2184 2103 2173 2147 2165 2128 2169 2133 2086 2148 2137 2132 2160 2158 2084 2178 2127 2087 2037 2112 2108 2066 2094 1987 2138 1961 2102 2026 2083 1918 2114 2015 2070 2020 2054 1961 2038 2025 2054 1963 2038 2092 1994 1955 1970 1962 1993 1862 1904 1921 2006 1981 1924 1980 1948 1949 1927 1887 1938 1945 1926 1975 1996 1895 1856 1939 1912 1903 1943 1967 1893 2010 1916 1918 1817 1876 1790 1798 1845 1849 1892 1862 1855 1847 1796 1834 1820 1831 1794 1876 1760 1791 1799 1868 1780 1806 1829 1841 1740 1819 1789 1775 1831 1820 1801 1803 1814 1787 1809 1799 1801 1726 1783 1804 1788 1814 1746 1693 1714 1684 1723 1765 1698 1700 1748 1699 1778 1780 1727 1697 1665 1718 1734 1720 1731 1686 1715 1705 1741 1724 1718 1723 1741 1724 1737 1779 1698 1615 1699 1708 1668 1697 1757 1692 1722 1730 1637 1602 1727 1687 1634 1629 1700 1637 1661 1655 1676 1659 1633 1613 1722 1676 1657 1677 1650 1637 1679 1612 1667 1636 1642 1623 1669 1695 1659 1703 1677 1606 1609 1611 1651 1679 1647 1705 1590 1670 1713 1659 1663 1541 1688 1666 1653 1635 1610 1730 1646 1650 1685 1647 1684 1670 1600 1734 1656 1670 1643 1659 1739 1703 1714 1719 1647 1671 1633 1624 1665 1525 1760 1706 1705 1736 1726 1656 1695 1628 1650 1701 1662 1671 1716 1632 1714 1667 1557 1618 1685 1688 1607 1717 1543 1593 1677 1654 1740 1695 1681 1663 1670 1703 1602 1730 1616 1652 1748 1670 1700 1657 1646 1562 1585 1650 1676 1628 1634 1638 1570 1682 1577 1629 1702 1639 1621 1685 1668 1691 1661 1711 1642 1681 1607 1675 1671 1656 1630 1628 1644 1732 1633 1724 1629 1616 1700 1701 1677 1657 1616 1549 1619 1634 1646 1666 1700 1635 1721 1653 1663 1591 1673 1703 1641 1622 1675 1617 1641 1651 1728 1687 1601 1682 1619 1569 1725 1617 1678 1624 1636 1660 1678 1622 1626 1645 1665 1638 1577 1612 1593 1674 1552 1543 1583 1676 1558 1555 1688 1579 1649 1578 1579 1616 1676 1602 1560 1592 1603 1538 1601 1585 1553 1586 1568 1493 1578 1543 1589 1558 1622 1586 1583 1557 1506 1510 1527 1530 1459 1542 1522 1562 1513 1532 1472 1492 1487 1521 1474 1428 1519 1437 1506 1433 1525 1399 1445 1439 1354 1443 1402 1499 1449 1471 1403 1399 1428 1376 1389 1363 1395 1405 1422 1443 1419 1378 1344 1368 1406 1398 1401 1389 1373 1421 1336 1387 1375 1386 1343 1314 1383 1366 1353 1416 1375 1352 1303 1387 1408 1370 1325 1382 1342 1356 1448 1346 1327 1355 1330 1304 1401 1325 1332 1319 1312 1362 1308 1358 1368 1259 1307 1397 1292 1401 1287 1323 1211 1413 1288 1300 1290 1277 1346 1288 1304 1311 1284 1280 1171 1323 1270 1288 1249 1271 1274 1238 1301 1233 1274 1238 1247 1250 1312 1209 1290 1267 1245 1342 1292 1307 1325 1371 1371 1304 1319 1320 1347 1347 1366 1354 1388 1437 1362 1460 1385 1444 1423 1447 1397 1419 1431 1353 1419 1356 1381 1321 1394 1357 1347 1344 1359 1291 1338 1258 1301 1260 1251 1208 1321 1303 1296 1264 1295 1298 1205 1258 1207 1250 1208 1189 1241 1184 1238 1232 1191 1259 1210 1187 1191 1137 1192 1160 1133 1156 1112 1129 1167 1172 1147 1194 1101 1060 1185 1163 1121 1167 1165 1162 1187 1115 1214 1123 1123 1117 1104 1107 1135 1111 1173 1159 1110 1093 1135 1228 1088 1123 1154 1080 1120 1070 1104 1172 1096 1122 1163 1153 1137 1189 1132 1209 1125 1185 1153 1201 1240 1213 1240 1304 1361 1310 1418 1449 1588 1503 1628 1677 1775 1821 1908 2066 2110 2176 2353 2339 2438 2521 2569 2619 2669 2695 2636 2740 2701 2647 2646 2478 2469 2405 2370 2322 2311 2087 2205 2043 2120 1985 2014 1916 1914 1868 1833 1768 1796 1781 1761 1693 1699 1647 1758 1623 1681 1670 1615 1623 1608 1509 1575 1492 1548 1406 1476 1384 1459 1410 1461 1301 1331 1259 1381 1217 1289 1323 1342 1328 1282 1213 1277 1173 1193 1172 1259 1201 1237 1123 1134 1162 1127 1075 1123 1051 1084 1041 1051 1082 1021 1007 1040 1061 1038 1003 1066 974 1013 1027 990 990 1014 979 967 1068 1003 921 1046 921 941 1010 905 933 996 984 1026 988 942 1010 989 959 984 909 993 969 983 967 997 927 1026 957 973 933 979 938 936 956 907 943 908 945 971 956 929 948 954 870 917 966 956 934 1032 912 964 958 920 914 921 1012 929 956 944 989 985 995 972 996 1035 1062 1084 1055 1065 1036 1044 1071 1095 1062 1138 1015 1060 1018 1061 1051 971 1028 1078 991 1008 1001 1054 1013 1017 994 1039 955 991 984 1023 960 937 945 926 831 933 870 912 930 928 875 879 900 889 811 904 911 938 906 873 910 860 840 822 840 872 921 901 865 840 908 864 876 887 925 879 858 885 883 866 876 890 841 899 891 838 838 821 825 849 846 862 845 876 863 865 894 884 844 880 827 863 870 893 850 959 862 926 891 830 882 903 820 874 860 831 850 927 854 883 913 863 902 819 913 840 833 840 844 847 807 824 885 808 898 794 848 844 818 827 866 856 836 853 942 833 882 903 829 854 889 849 850 882 839 879 912 842 894 846 885 791 891 847 905 903 921 822 867 818 858 843 869 860 865 862 901 846 836 823 817 816 818 835 831 811 827 812 858 776 857 845 833 872 860 858 806 883 806 889 893 864 845 781 845 863 847 824 840 810 845 796 849 860 879 800 856 858 835 820 849 903 916 840 838 901 775 885 838 888 854 879 841 870 816 830 832 904 940 902 922 849 874 870 899 885 852 877 872 949 913 858 937 941 935 926 984 961 1001 999 992 1054 1024 1054 1170 1180 1208 1226 1322 1365 1355 1508 1524 1614 1736 1836 1866 2146 2172 2369 2489 2688 2874 3096 3197 3230 3169 3271 3166 3261 3189 3123 3143 3029 2884 2834 2695 2524 2506 2442 2277 2329 2116 2170 2102 1977 1913 1893 1820 1777 1734 1765 1670 1669 1642 1622 1608 1565 1526 1578 1558 1616 1533 1538 1557 1555 1507 1547 1498 1527 1577 1603 1537 1482 1505 1481 1487 1478 1484 1440 1437 1370 1390 1304 1245 1277 1238 1209 1166 1139 1109 1080 1060 1051 1073 981 975 1016 960 934 979 923 960 926 924 904 932 861 918 908 944 939 850 880 855 909 848 888 870 847 882 938 897 858 857 920 874 909 839 868 851 842 854 843 848 866 890 892 867 954 780 807 820 825 791 831 827 871 782 822 797 811 797 787 803 752 790 800 779 763 782 765 772 792 751 808 835 824 815 827 683 855 776 759 775 787 741 750 750 778 743 760 708 767 734 732 696 715 741 744 756 727 714 755 768 741 751 778 762 705 711 757 734 740 689 721 753 741 768 775 712 709 742 713 724 728 693 757 745 748 732 753 753 714 751 722 725 735 722 681 726 738 733 711 682 715 703 690 709 728 738 740 693 721 747 712 694 698 695 695 691 714 670 719 685 718 655 716 688 735 721 719 712 678 696 729 666 755 710 689 708 748 660 717 700 688 730 637 725 686 654 718 694 719 656 668 668 689 690 703 721 739 666 676 704 648 647 699 728 679 691 684 689 665 671 686 744 705 742 672 725 706 716 698 686 707 696 665 732 732 734 683 691 695 658 658 673 690 679 701 676 695 700 711 663 704 657 692 687 692 702 679 706 657 705 700 636 631 654 674 672 702 625 673 700 644 675 695 681 664 623 666 654 628 638 681 610 652 683 673 604 638 633 612 692 613 651 654 653 692 636 632 627 652 595 662 647 679 663 631 590 619 607 635 596 659 650 638 626 661 612 666 684 655 636 665 655 613 620 626 613 671 637 608 645 615 670 644 658 616 673 611 622 638 669 640 601 615 596 613 704 611 640 609 614 614 615 636 597 666 630 612 620 647 632 590 619 625 619 630 624 644 620 655 613 618 643 594 586 624 641 591 620 603 601 608 588 647 573 597 572 592 655 598 585 617 616 648 636 562 603 603 599 606 592 643 606 638 592 622 605 629 694 586 633 595 605 588 625 624 652 638 619 619 583 646 610 596 602 604 544 577 640 584 609 627 629 597 570 617 554 660 593 598 596 600 608 601 559 613 593 610 560 628 649 570 592 561 599 598 617 539 601 591 593 553 514 553 522 564 575 613 623 604 587 606 629 572 585 594 589 565 579 594 562 532 570 609 556 541 613 561 577 548 571 635 628 627 608 556 530 530 585 563 574 537 586 527 597 589 574 597 522 545 547 548 569 581 566 563 550 557 608 614 559 586 567 598 606 622 550 583 571 598 589 601 601 592 572 626 647 644 618 608 612 668 648 610 632 638 632 556 627 643 631 609 631 635 659 688 597 650 635 593 565 634 585 565 620 611 610 577 625 623 555 576 601 632 580 564 564 596 631 565 643 571 579 570 566 527 583 563 627 557 606 590 558 536 518 567 574 581 589 590 541 569 573 541 582 522 602 565 526 569 566 523 528 530 573 572 545 575 553 568 573 517 553 554 548 527 530 565 535 533 573 567 549 578 554 567 589 525 501 513 504 536 564 540 508 525 536 602 532 506 533 536 561 567 544 521 510 534 526 586 597 538 523 545 573 570 562 526 560 495 513 543 543 574 546 549 504 518 549 546 530 523 575 586 542 550 514 547 524 520 542 503 537 589 509 534 502 518 509 542 530 518 517 536 511 549 559 570 588 523 540 543 561 510 558 584 537 538 581 586 533 523 560 579 551 554 544 572 540 550 544 544 548 567 517 530 507 531 552 493 538 555 566 559 552 534 562 543 537 502 507 547 552 520 519 531 553 522 540 537 512 527 519 499 543 491 536 530 548 550 517 541 533 531 537 492 498 515 540 486 566 495 486 464 504 552 511 543 502 505 507 517 518 500 503 493 517 501 503 505 525 516 491 488 483 487 509 544 490 491 490 573 525 526 478 534 513 531 510 531 494 514 524 509 517 496 529 501 520 548 466 521 559 508 488 522 514 506 537 497 537 529 524 517 483 531 542 555 535 502 517 532 514 481 487 533 575 468 566 515 506 534 526 504 516 538 514 505 475 502 539 494 537 507 548 530 492 499 526 548 479 509 541 547 484 551 492 505 513 520 556 506 513 506 464 497 512 511 539 495 552 488 461 526 514 518 531 503 531 550 523 576 562 592 560 537 533 605 551 552 561 614 583 612 543 581 592 585 621 628 625 648 581 610 595 606 634 681 643 675 648 625 693 595 654 599 634 626 586 585 583 575 601 534 609 588 534 591 529 548 543 513 541 555 487 515 546 498 513 475 493 496 540 491 497 508 499 490 504 592 480 538 498 469 520 472 534 518 496 474 479 500 505 491 550 489 534 470 534 499 531 478 507 504 523 524 540 481 515 545 511 565 518 468 514 550 503 465 486 548 465 483 491 483 513 475 507 484 521 498 498 490 514 519 482 514 479 469 510 500 454 503 501 465 467 438 487 449 460 444 451 497 502 466 439 511 496 497 484 515 509 494 458 469 524 473 490 503 513 468 470 489 457 486 490 432 482 487 453 481 465 454 453 448 467 493 476 491 462 451 457 442 472 475 467 439 482 488 492 463 494 517 517 481 497 489 487 496 445 481 476 489 505 497 491 446 517 452 493 502 462 479 465 476 469 498 523 495 472 502 513 491 484 476 463 483 468 454 439 499 467 475 481 450 488 478 478 523 458 502 454 485 509 512 514 447 529 491 484 459 532 443 490 484 521 474 468 456 486 467 473 455 464 462 466 456 512 512 489 453 495 477 512 469 468 483 452 499 455 466 494 550 487 499 494 481 481 466 529 478 527 476 525 494 470 466 457 485 489 472 482 494 524 490 522 480 510 488 500 546 503 480 544 484 504 505 468 468 508 479 509 490 479 410 480 422 491 476 465 490 467 473 504 485 461 476 453 487 485 478 521 521 494 507 510 482 471 451 516 496 477 490 465 518 485 513 456 500 466 531 485 557 494 487 500 488 480 474 542 503 506 509 466 498 517 495 494 517 531 531 552 531 540 501 571 523 567 554 581 592 601 624 596 562 592 632 655 681 674 700 698 731 778 790 809 875 894 925 896 977 1054 1088 1069 1084 1074 1189 1137 1128 1156 1196 1130 1187 1062 1136 1001 1049 991 1026 997 1038 897 947 892 882 884 824 782 789 766 752 752 725 681 698 644 651 657 617 645 590 614 622 609 620 597 572 578 550 571 559 531 532 541 581 585 597 534 540 589 544 571 547 575 532 592 539 592 605 569 586 581 579 573 592 531 627 575 604 613 605 595 583 667 601 574 536 560 568 558 558 546 516 537 549 502 517 519 516 521 535 451 538 498 508 487 499 490 475 480 482 540 491 470 459 474 458 426 448 457 459 451 475 455 454 456 469 454 427 452 435 436 444 468 475 427 479 440 449 459 453 453 439 442 488 422 428 477 461 456 457 431 469 452 442 431 390 443 465 439 442 440 453 431 414 411 458 387 467 429 473 439 453 430 428 424 459 420 410 431 437 448 445 458 471 470 438 440 434 462 411 444 408 488 427 417 452 431 422 449 422 462 432 457 393 436 460 464 489 456 461 444 447 440 442 480 464 442 478 460 472 491 462 469 457 489 456 477 514 505 475 495 475 490 481 502 474 482 461 456 492 475 469 483 500 457 451 483 464 436 452 470 433 425 491 486 470 455 460 451 447 442 434 421 428 385 440 434 453 445 421 428 431 430 394 408 421 485 426 437 410 405 408 433 432 403 399 444 447 411 421 440 377 410 403 402 412 429 428 435 422 421 441 431 477 457 432 492 454 481 472 470 431 433 437 462 381 395 415 440 425 414 414 445 435 431 417 425 387 458 420 439 400 399 417 404 418 415 452 379 421 411 385 394 390 384 383 408 396 394 402 431 396 416 394 402 394 385 367 336 431 397 394 422 405 416 419 406 416 391 374 383 410 365 348 408 406 385 378 395 381 407 395 431 414 427 362 356 375 395 394 391 400 401 396 395 409 395 375 370 420 382 377 387 400 391 398 422 442 399 405 394 395 390 393 423 384 392 427 378 381 395 366 378 415 413 433 349 403 382 378 388 367 396 413 374 419 354 419 388 411 360 364 406 386 370 382 415 395 381 359 400 399 445 382 408 379 428 405 397 402 394 369 375 349 415 366 404 377 402 391 409 401 351 383 375 423 377 382 392 419 366 367 407 380 423 411 414 389 374 413 382 412 395 436 428 368 409 394 381 379 369 377 376 382 369 373 357 383 336 376 386 417 406 377 353 357 409 382 422 406 409 407 373 380 343 378 375 392 365 366 414 396 391 365 402 380 388 343 392 406 410 378 366 397 388 355 403 383 400 399 371 372 389 364 361 399 359 366 401 344 373 339 393 373 383 377 394 401 375 361 388 338 354 396 327 381 386 372 339 380 338 359 346 405 353 365 338 363 358 349 380 352 382 364 377 340 394 366 361 400 359 400 380 355 370 397 339 400 366 372 377 371 393 365 319 388 330 352 349 334 384 382 360 342 387 343 379 376 355 354 336 347 385 380 372 342 359 349 357 360 370 373 361 363 379 372 366 341 344 380 367 373 368 367 364 358 396 350 329 385 379 388 388 356 372 381 394 368 361 376 363 368 373 389 376 366 375 362 362 380 355 403 390 361 322 361 349 355 345 349 349 358 357 353 326 343 349 343 335 361 379 365 363 370 310 366 388 341 360 355 370 345 318 335 352 418 380 376 306 349 346 343 370 354 361 319 372 414 365 344 381 338 367 372 361 366 355 339 353 306 377 362 372 357 374 342 329 347 352 357 343 324 397 403 317 346 359 365 381 351 359 365 335 374 342 369 327 389 350 338 341 370 362 356 389 342 356 348 361 371 376 366 385 348 394 360 374 358 325 348 331 330 368 358 349 366 296 361 341 355 330 341 344 374 372 362 375 367 353 401 360 394 327 354 364 347 362 337 344 380 333 334 347 333 342 356 349 347 371 383 356 352 364 399 341 382 379 362 388 353 386 362 341 375 419 403 437 404 416 398 401 452 427 394 486 384 456 451 459 445 422 441 467 484 484 472 502 469 450 427 464 441 458 434 446 427 468 462 439 448 426 479 409 429 405 409 419 413 404 403 393 410 375 379 349 356 367 334 381 387 370 395 335 375 390 362 346 370 407 356 355 374 386 384 331 387 340 368 354 356 384 370 383 370 342 363 370 390 381 384 424 402 365 387 373 395 354 381 416 384 418 461 404 387 422 422 396 437 438 425 399 403 419 411 410 434 440 392 365 399 383 389 392 361 392 378 358 374 381 362 334 351 332 371 378 387 361 378 327 355 373 350 380 369 328 351 366 400 347 339 335 333 335 329 337 311 353 351 319 323 352 357 331 348 354 318 344 347 326 349 372 322 357 334 318 340 347 333 349 311 321 325 326 337 320 341 314 320 322 337 331 312 325 282 327 289 330 347 330 317 353 337 342 313 340 345 337 331 321 319 334 325 332 345 324 364 271 310 348 292 292 317 349 373 350 347 327 329 327 357 354 363 365 320 315 326 326 316 309 330 360 355 314 397 373 348 361 356 369 358 360 383 318 346 339 342 347 380 380 354 328 360 378 325 371 338 389 369 361 422 408 421 428 429 424 433 426 436 429 417 450 478 426 460 433 477 462 470 464 466 483 502 482 503 482 489 465 461 495 447 485 487 446 493 478 443 452 433 466 438 515 420 427 413 436 350 389 381 422 384 385 359 423 358 395 337 361 362 354 330 341 319 368 311 351 372 345 341 349 381 347 320 334 310 318 301 304 347 326 345 340 347 333 382 333 340 374 331 366 328 361 350 305 333 323 330 338 312 349 310 329 367 362 339 340 338 370 341 338 312 328 338 314 349 379 309 364 341 379 332 359 332 345 334 360 342 313 321 348 338 337 313 348 355 354 344 327 335 348 347 300 325 327 334 338 278 332 332 336 328 336 315 350 347 335 323 317 339 339 294 355 337 324 331 348 318 318 320 341 344 330 314 284 329 301 337 341 297 333 353 332 369 327 287 339 304 332 344 344 286 325 297 330 309 350 316 389 346 324 339 353 335 367 323 375 316 288 338 311 333 361 328 374 339 347 318 333 348 337 340 335 345 317 316 341 357 350 303 344 325 343 339 326 321 331 357 309 336 318 310 330 345 310 341 357 287 311 302 323 291 325 337 279 292 280 314 338 340 305 316 354 308 316 321 317 315 320 309 311 294 294 303 308 285 316 332 309 285 292 309 296 304 312 317 306 290 292 309 333 313 292 325 313 315 293 351 354 310 302 309 270 274 337 317 322 332 319 323 316 302 314 317 345 318 328 291 313 281 318 306 314 318 300 299 283 337 298 281 303 299 291 324 308 294 311 303 311 293 281 302 297 288 300 299 305 300 320 314 321 332 285 316 330 299 304 297 339 285 297 299 301 291 312 311 302 291 295 284 305 276 285 305 313 307 320 337 308 318 318 283 291 311 311 303 291 340 278 336 340 309 286 281 306 324 318 312 310 321 287 325 276 301 305 302 279 300 322 301 278 278 317 317 296 317 300 309 293 296 302 303 303 308 305 297 306 277 288 277 306 313 303 324 304 318 244 288 288 286 277 307 316 295 299 275 313 292 294 275 307 301 281 302 319 276 319 296 289 301 312 296 317 301 304 276 310 338 280 291 276 296 270 282 266 311 296 294 284 276 325 284 313 276 304 279 291 308 291 296 296 279 291 301 286 281 282 286 288 331 293 298 307 285 273 283 315 317 299 283 291 281 281 262 310 346 285 315 296 299 285 273 284 319 322 286 313 263 280 322 306 317 265 279 277 289 277 261 310 291 314 277 285 282 310 308 308 288 295 299 299 308 317 288 317 288 282 277 266 294 296 276 278 284 314 307 229 311 317 328 309 281 292 293 289 299 293 298 282 308 271 290 289 302 316 305 284 296 310 284 268 286 318 256 296 295 279 303 289 316 280 293 268 322 294 277 290 282 280 286 282 281 274 276 311 297 280 305 318 279 292 277 282 256 287 314 300 265 289 273 304 298 284 292 301 304 275 289 276 309 290 315 294 257 284 237 293 280 282 286 284 291 306 270 285 286 281 291 295 286 281 276 294 292 263 280 300 301 295 261 292 284 282 283 272 277 270 313 260 309 295 305 303 269 295 283 329 327 345 316 294 291 285 302 280 294 302 261 299 282 288 296 320 275 310 297 272 291 292 309 282 322 295 321 312 307 301 295 298 330 323 290 311 306 271 273 279 298 286 293 316 298 324 282 281 301 314 338 275 269 296 274 324 282 307 281 292 298 307 302 301 298 314 299 330 307 311 293 294 299 300 273 270 285 329 284 302 273 276 267 267 280 260 284 304 322 281 270 268 263 287 260 286 281 273 260 302 261 287 300 278 280 285 276 301 280 283 287 278 287 296 271 272 272 269 276 290 289 270 275 289 296 246 305 291 294 247 287 270 305 293 310 302 282 277 320 283 281 284 294 265 268 275 272 291 295 272 275 309 290 294 274 295 278 273 293 284 299 282 276 259 265 286 298 302 273 276 269 276 282 285 305 267 271 263 245 296 277 238 289 283 318 310 258 287 280 281 295 308 284 262 267 286 283 278 291 269 312 264 284 305 268 262 298 267 270 292 294 284 260 299 264 311 277 307 281 287 269 268 304 264 276 286 265 282 294 260 287 292 293 299 286 286 293 292 246 282 281 286 300 313 298 276 245 281 280 278 289 263 264 272 295 319 280 295 291 263 259 278 314 317 280 307 240 296 298 270 277 286 260 271 299 304 284 259 282 268 321 275 266 311 289 296 290 297 281 288 293 288 267 311 298 275 275 279 271 303 279 283 263 306 293 312 327 273 278 297 286 298 317 296 278 328 323 328 316 337 317 313 342 337 331 310 337 330 329 329 350 333 356 340 344 355 331 338 297 362 361 319 321 349 330 359 355 323 310 353 342 306 311 341 358 352 340 306 298 330 312 280 280 283 289 292 272 320 292 282 311 283 315 299 292 314 284 264 324 356 288 287 308 304 317 266 277 300 308 278 248 320 262 310 293 285 301 267 288 263 299 306 304 291 294 274 281 293 304 310 270 288 261 294 281 290 286 284 273 313 276 302 273 290 292 281 266 316 310 302 298 333 273 293 297 312 298 310 308 285 296 310 301 331 332 294 295 315 300 308 301 315 292 293 275 293 281 290 298 291 289 286 284 292 286 304 283 283 331 274 292 286 312 276 285 297 295 318 289 300 275 290 297 313 274 299 283 304 321 289 301 304 285 288 327 300 283 278 267 296 256 296 270 290 289 271 271 306 256 288 281 271 304 292 297 287 283 294 273 289 306 282 276 266 272 286 262 277 305 289 296 309 259 323 278 278 282 300 288 277 282 274 281 287 295 290 287 297 275 283 311 281 287 285 242 271 283 304 288 304 275 270 288 249 312 296 276 311 263 262 262 277 308 300 287 289 292 296 285 282 294 316 280 312 292 310 281 284 289 287 276 258 285 268 300 249 273 267 259 301 270 298 259 286 299 303 290 288 272 291 280 278 302 249 270 296 293 288 303 276 249 298 302 295 278 269 279 269 316 307 296 288 307 298 270 300 233 268 301 306 284 272 287 302 271 310 278 299 287 280 275 307 260 284 304 275 273 271 284 292 268 282 290 314 267 301 298 280 267 262 317 309 308 281 280 301 285 305 292 286 297 244 265 261 297 282 249 278 274 292 292 309 246 288 274 292 267 245 304 268 298 269 288 261 342 277 300 277 263 317 292 282 283 283 265 276 281 297 278 246 289 298 274 275 277 268 286 270 268 257 251 301 299 297 241 290 271 271 286 264 307 305 294 268 302 242 292 277 277 282 314 286 256 278 306 280 291 267 261 308 289 314 281 311 258 293 279 282 289 317 279 312 299 283 248 279 245 290 309 274 303 291 294 260 286 291 316 265 283 311 285 322 268 249 260 303 303 250 265 281 296 271 259 277 282 281 291 312 284 264 284 279 277 284 277 281 284 276 304 300 317 283 259 296 286 281 306 284 301 299 258 271 283 222 276 300 278 275 245 268 274 280 306 280 296 287 306 285 290 311 279 319 258 284 276 288 280 271 290 250 296 288 248 274 282 281 316 301 265 289 275 300 284 313 303 275 269 279 282 274 288 269 291 281 296 278 284 267 292 294 301 288 285 280 300 310 284 281 271 292 259 298 277 282 249 299 299 285 314 268 308 283 263 281 295 327 304 315 291 282 289 308 280 290 323 315 301 288 267 296 313 314 296 297 284 273 282 299 310 317 299 298 295 289 300 278 283 265 293 301 284 299 310 294 291 321 308 318 274 293 283 309 245 274 294 286 316 259 319 270 259 274 266 276 289 299 286 296 313 335 309 303 271 308 305 276 291 314 306 295 281 277 302 330 271 316 285 332 304 314 307 316 335 320 349 304 304 311 298 289 296 282 305 296 297 303 283 289 337 341 330 307 297 316 301 308 308 317 308 325 321 331 298 306 307 349 333 336 297 294 315 327 342 327 333 309 294 300 315 310 322 308 332 333 328 322 318 295 349 286 307 310 328 324 315 338 343 298 317 317 271 325 292 322 329 294 275 316 289 324 283 275 292 269 340 298 305 270 271 282 326 307 304 298 307 311 304 308 284 314 313 313 283 308 305 325 303 299 281 277 311 288 313 297 306 266 310 250 291 296 288 293 283 294 333 303 282 279 307 282 276 293 291 330 322 303 297 311 324 297 279 313 305 309 286 310 325 307 276 314 314 304 298 324 297 348 305 295 296 308 324 285 336 298 306 276 277 307 306 317 291 323 302 334 304 291 301 281 356 249 293 320 314 335 311 314 331 292 300 279 290 314 289 345 319 275 297 285 327 279 311 297 298 316 334 300 309 302 275 313 295 333 334 333 328 324 286 315 323 312 284 298 290 286 319 285 341 287 316 324 309 291 305 315 292 347 299 290 330 307 308 329 296 351 304 277 318 305 345 310 326 318 349 336 342 312 351 337 334 307 352 337 363 332 341 331 305 340 352 393 331 346 340 357 349 401 407 370 381 357 375 348 343 364 384 368 373 390 353 392 388 391 344 381 346 362 340 354 376 363 328 362 344 352 345 339 320 321 337 312 342 332 325 333 345 326 301 347 379 358 319 310 339 297 287 298 313 303 313 329 302 289 291 280 279 287 309 282 298 303 333 287 259 312 302 276 308 303 325 281 284 311 274 288 270 309 282 295 261 278 304 300 319 278 301 273 293 275 306 297 289 288 310 288 294 290 292 261 324 303 288 333 281 286 285 298 295 283 331 304 299 335 301 301 330 320 305 298 301 280 288 288 317 329 301 295 281 340 328 318 315 327 317 289 312 284 308 317 279 286 292 334 290 285 349 354 323 264 310 290 331 293 325 307 287 299 292 319 295 285 312 281 277 317 283 281 256 320 269 310 292 295 288 290 304 297 295 294 264 274 286 281 266 293 306 277 313 312 305 281 266 278 273 297 309 279 287 280 290 307 267 272 260 279 285 288 286 245 267 289 279 276 272 287 309 280 268 292 272 292 298 321 290 272 280 280 271 244 273 285 292 317 299 315 290 283 270 284 283 301 263 281 283 282 289 285 267 285 279 281 266 274 325 276 271 283 284 261 271 284 272 270 270 250 274 270 294 247 286 272 262 290 271 282 269 277 265 283 269 268 271 233 247 248 277 287 283 307 263 276 282 283 277 286 315 240 275 292 238 268 271 271 298 273 278 270 261 280 272 277 293 232 279 232 300 265 274 295 297 262 294 248 241 267 298 259 272 266 276 296 299 245 248 278 283 258 317 223 296 270 273 267 280 299 282 242 284 278 264 270 277 288 260 262 276 246 257 290 230 274 276 283 263 281 310 274 280 287 268 260 271 276 302 264 269 309 283 271 298 261 234 268 272 261 235 249 241 226 261 243 281 242 263 262 263 264 296 293 278 268 288 283 294 267 269 250 265 229 288 294 235 256 285 269 295 251 279 270 290 246 273 259 246 279 261 267 242 264 258 268 281 274 262 271 291 279 249 264 273 287 284 278 276 258 272 273 329 266 250 246 249 274 241 276 299 270 270 247 277 245 295 229 263 279 236 273 263 267 239 240 274 284 275 267 278 278 269 291 264 236 249 260 264 238 275 288 264 237 285 298 250 276 241 305 266 272 294 262 281 250 267 262 279 262 256 298 272 262 268 276 272 269 292 259 265 238 245 230 237 235 278 270 236 258 262 245 277 248 266 247 271 286 269 279 245 222 275 239 239 266 251 275 226 278 263 290 278 270 288 267 258 228 234 249 272 267 267 266 285 257 286 225 291 249 260 278 263 283 269 279 237 242 274 240 270 266 242 237 287 290 279 259 259 259 293 245 260 271 230 272 271 269 270 262 269 257 282 282 229 241 246 268 260 247 264 245 248 291 280 256 264 249 250 263 248 276 241 249 282 267 249 265 258 243 271 295 258 257 293 247 259 256 244 259 219 263 277 247 260 303 269 285 260 280 272 275 256 234 287 232 226 221 243 227 236 297 232 265 264 277 260 274 261 248 282 272 259 260 242 275 301 259 247 292 229 262 229 263 245 275 246 241 256 278 234 275 264 273 248 276 250 263 248 269 282 278 242 244 225 262 266 250 233 264 234 225 244 228 267 261 277 259 263 263 271 268 261 270 267 258 237 270 262 263 263 232 242 222 267 256 242 273 240 248 233 262 271 243 246 280 248 261 243 262 243 264 272 295 267 232 248 268 238 263 245 257 268 275 264 238 221 290 262 243 242 242 268 216 247 266 248 261 249 246 285 237 313 226 249 243 277 258 279 261 283 274 263 249 260 284 228 265 224 245 241 264 267 242 265 250 250 247 235 272 260 299 229 290 234 256 235 218 241 295 231 269 247 265 249 259 218 248 238 256 247 236 260 276 243 223 263 239 250 288 259 286 248 238 237 242 229 223 250 247 260 260 239 240 237 219 235 272 251 271 244 270 245 233 257 240 268 261 230 269 278 273 258 267 250 262 259 288 289 257 250 275 276 266 258 276 237 258 261 267 258 283 269 270 266 238 262 288 244 274 321 246 250 308 290 293 299 233 257 290 281 280 291 286 273 284 285 313 290 269 305 277 268 292 317 315 324 324 287 319 292 280 297 296 261 270 294 294 274 294 291 309 284 302 311 297 301 287 302 284 292 280 273 298 259 280 313 289 300 273 278 259 295 295 290 284 294 267 265 268 243 320 266 242 235 270 271 304 273 261 264 246 266 266 275 271 256 231 243 273 262 238 293 224 234 240 244 266 273 243 245 243 271 268 263 264 256 262 236 240 246 245 232 273 306 272 283 281 274 266 248 220 232 231 208 272 229 260 267 265 257 274 257 269 231 244 270 294 241 266 274 266 239 279 248 227 233 227 222 280 263 267 238 241 244 244 249 257 266 267 247 274 278 277 272 273 267 276 243 249 246 238 265 278 275 268 272 249 244 233 250 243 246 272 229 269 227 233 272 261 269 272 232 263 278 270 241 270 286 246 244 287 247 262 273 244 279 239 290 241 259 264 229 248 240 243 269 238 241 246 249 234 258 245 237 268 275 268 229 260 263 283 242 227 266 251 269 225 258 250 271 270 235 246 258 242 272 248 212 286 249 242 235 264 267 259 237 201 218 262 235 264 248 234 271 227 234 221 234 263 246 242 235 227 245 262 243 260 218 220 226 239 241 238 242 214 250 231 267 234 259 242 256 235 232 239 198 246 257 223 241 247 235 238 224 274 220 261 243 245 231 258 243 289 259 261 216 238 241 264 244 262 278 232 279 246 242 239 247 257 235 277 218 236 246 238 259 237 250 243 258 266 243 242 243 267 239 266 236 241 241 231 233 227 260 263 266 226 224 243 256 264 260 249 227 238 248 240 237 240 221 242 249 239 260 266 223 249 223 238 259 246 237 240 223 266 240 261 218 261 241 229 276 239 231 225 243 262 244 242 239 247 236 204 227 259 230 268 278 259 260 250 204 234 270 237 222 233 276 260 277 221 246 237 242 276 263 258 263 217 242 249 278 234 242 236 224 224 229 238 256 196 229 239 240 219 232 232 249 217 286 203 274 238 234 225 235 256 265 225 248 226 256 206 240 208 230 240 240 234 232 232 281 262 292 257 244 223 246 265 220 266 238 222 247 214 234 240 233 231 240 225 248 246 272 247 264 258 271 228 239 263 234 258 238 263 251 257 239 239 269 216 264 240 258 263 235 279 251 262 282 239 246 231 247 238 224 219 210 245 259 238 265 220 234 219 240 234 235 257 263 216 258 247 264 218 248 202 266 258 215 231 231 262 228 232 219 238 233 213 274 232 240 243 276 261 271 239 250 240 215 222 273 225 221 243 249 243 214 243 230 214 258 235 242 259 256 216 224 218 257 224 243 237 221 226 276 215 238 235 269 226 231 231 230 272 238 211 209 260 233 232 251 237 269 226 215 223 232 230 202 228 223 272 248 243 227 239 296 262 261 232 247 245 262 235 288 258 268 232 274 260 246 232 259 267 243 240 238 245 237 237 250 231 265 267 292 271 227 268 258 264 272 268 281 283 263 261 237 256 243 265 236 250 239 267 257 276 245 263 231 266 243 244 240 240 269 234 240 272 260 232 248 247 244 259 244 270 229 236 248 234 230 266 248 281 263</counts>
			</dataPoints>
		</scan>
	</xrdMeasurement>
</xrdMeasurements>
