<?xml version="1.0"?>
<xrdMeasurements xmlns="http://www.xrdml.com/XRDMeasurement/2.3" xmlns:xsi="http://www.w3.org/2001/XMLSchema-instance" xsi:schemaLocation="http://www.xrdml.com/XRDMeasurement/2.3 http://www.xrdml.com/XRDMeasurement/2.3/XRDMeasurement.xsd" status="Completed" recordIdentifier="{C85F63F8-F8DB-4361-A061-12EA05D03B4D}">
	<comment>
		<entry/>
	</comment>
	<sample type="To be analyzed">
		<id>GPSS_Li1p8Mg0p6Fe0p2Y0p2Cl4_111725_691b7e20f3837ac4a0a9936c</id>
		<name></name>
		<preparedBy></preparedBy>
	</sample>
	<xrdMeasurement measurementType="Scan" status="Completed" sampleMode="Reflection">
		<usedWavelength intended="K-Alpha 1">
			<kAlpha1 unit="Angstrom">1.5405980</kAlpha1>
			<kAlpha2 unit="Angstrom">1.5444260</kAlpha2>
			<kBeta unit="Angstrom">1.3922500</kBeta>
			<ratioKAlpha2KAlpha1>0.5000</ratioKAlpha2KAlpha1>
		</usedWavelength>
		<incidentBeamPath>
			<radius unit="mm">145.00</radius>
			<xRayTube id="1010048" name="Empyrean Cu LFF HR (9430 033 7310x)">
				<tension unit="kV">40.0</tension>
				<current unit="mA">15.0</current>
				<anodeMaterial>Cu</anodeMaterial>
				<focus type="Line">
					<length unit="mm">12.0</length>
					<width unit="mm">0.4</width>
					<takeOffAngle unit="deg">6.0</takeOffAngle>
				</focus>
			</xRayTube>
			<sollerSlit id="21010002" name="Soller slits 0.04 rad.">
				<opening unit="rad">0.0400</opening>
			</sollerSlit>
			<mask id="22031000" name="Fixed mask 13 mm">
				<width unit="mm">9.00</width>
			</mask>
			<divergenceSlit id="22120001" name="Divergence slit 1°" xsi:type="fixedDivergenceSlitType">
				<distanceToSample unit="mm">50.00</distanceToSample>
				<height unit="mm">1.52</height>
			</divergenceSlit>
		</incidentBeamPath>
		<sampleMovement xsi:type="spinningSampleMovementType">
			<spinnerRevolutionTime unit="seconds">1.0</spinnerRevolutionTime>
		</sampleMovement>
		<diffractedBeamPath>
			<radius unit="mm">145.00</radius>
			<antiScatterSlit id="22090040" name="AS slit 9 mm (PIXcel)" xsi:type="fixedAntiScatterSlitType">
				<height unit="mm">9.00</height>
			</antiScatterSlit>
			<sollerSlit id="21020003" name="Large Soller slits 0.04 rad.">
				<opening unit="rad">0.0400</opening>
			</sollerSlit>
			<filter id="20030001" name="Large beta-filter Nickel">
				<material>Ni</material>
				<thickness unit="mm">0.020</thickness>
			</filter>
			<detector id="7010019" name="PIXcel1D-Medipix3 detector" xsi:type="rtmsDetectorType">
				<phd unit="keV">
					<lowerLevel>4.02</lowerLevel>
					<upperLevel>11.27</upperLevel>
				</phd>
				<mode>Scanning</mode>
				<activeLength unit="deg">5.542</activeLength>
			</detector>
		</diffractedBeamPath>
		<scan appendNumber="0" mode="Continuous" scanAxis="Gonio" status="Completed">
			<header>
				<startTimeStamp>2025-11-19T11:26:27-08:00</startTimeStamp>
				<endTimeStamp>2025-11-19T11:34:34-08:00</endTimeStamp>
				<author>
					<name>AutomatedUser</name>
				</author>
				<source>
					<applicationSoftware version="1.7b (136)">PANalytical Aeris Instrument Suite</applicationSoftware>
					<instrumentControlSoftware version="3.2.00000000 20240306">AERIS</instrumentControlSoftware>
					<instrumentID>950485</instrumentID>
				</source>
			</header>
			<dataPoints>
				<positions axis="2Theta" unit="deg">
					<startPosition>10.00943322</startPosition>
					<endPosition>99.99442286</endPosition>
				</positions>
				<positions axis="Omega" unit="deg">
					<startPosition>5.00471661</startPosition>
					<endPosition>49.99721143</endPosition>
				</positions>
				<commonCountingTime unit="seconds">12.495</commonCountingTime>
				<counts unit="counts">2949 3095 2919 2999 2986 2985 2970 2992 3054 2910 3079 3013 2998 2902 2921 2964 2969 2976 2989 3022 3038 3058 3043 3042 2974 2914 3024 2996 2905 3066 3019 2915 2979 3016 2931 2957 3082 2994 2983 3018 3016 3011 3077 3013 2889 2943 2891 3016 3009 2941 2957 3020 2960 3049 2989 3005 3015 2919 3017 2993 3043 2986 3004 3089 2996 2989 2993 2971 2958 2952 2997 3041 3025 2936 3022 2995 2977 3013 2928 2974 3095 2955 3129 3000 3123 3013 3058 3073 2969 3024 3045 3056 2956 3025 2966 3023 2972 3045 3046 2925 2989 3122 3070 3027 3025 2983 3063 3003 3062 2953 3077 3004 3054 3117 3015 3034 3072 3013 3042 3006 3033 3154 2980 3072 3000 3074 3034 3059 3074 2990 3018 2964 3013 3022 3067 3062 3111 2990 2993 3075 3056 3026 3082 3022 3057 3015 3046 3038 3029 3061 3108 3092 3070 2977 3056 3060 2965 2983 3103 2932 2937 2971 2968 3079 2967 2926 3062 2981 2996 3113 3036 3297 3077 3076 3032 3056 3007 3025 2924 3054 2994 3149 3036 3076 3031 3113 2889 3012 2940 2954 3110 3062 3090 3008 3003 2964 2985 2995 2928 3019 2813 2988 2944 2982 2955 3006 2968 3078 2993 2923 2961 2998 2946 3057 2841 2937 2962 2896 2993 3045 3108 2947 3049 2989 2978 3012 2975 2975 3028 2964 2969 3066 3040 2916 2884 2943 2953 2954 2923 3006 2973 3007 2983 3014 2909 2908 3022 2999 2933 2940 2876 2962 2927 2977 3093 2960 2952 2973 3027 2954 2988 2894 3086 2985 2942 3025 2965 2988 2932 2939 3047 3013 3056 3001 3012 3020 2905 3002 3074 2957 2975 3018 3004 3005 2938 3061 2995 3107 3004 3125 3043 3113 3146 3031 3003 2978 3127 2985 3024 2999 3031 3044 3160 3116 3122 3122 3220 3098 3064 3166 3078 3060 3094 3164 3213 3210 3147 3217 3242 3308 3245 3185 3128 3168 3285 3262 3223 3300 3294 3252 3227 3282 3267 3182 3256 3162 3259 3292 3298 3340 3306 3225 3281 3227 3337 3230 3387 3218 3385 3210 3261 3402 3345 3413 3375 3401 3297 3398 3289 3339 3368 3347 3377 3395 3333 3328 3429 3447 3447 3448 3378 3370 3471 3434 3320 3494 3420 3502 3279 3550 3482 3490 3494 3382 3567 3464 3535 3598 3513 3649 3508 3553 3544 3522 3607 3516 3755 3515 3719 3604 3626 3592 3764 3656 3683 3753 3699 3689 3809 3917 3910 3854 3914 3927 4000 4125 4147 4084 4334 4262 4276 4390 4262 4284 4591 4453 4544 4415 4529 4576 4512 4701 4574 4665 4643 4760 4702 4722 4822 4896 4908 4827 4877 4906 4807 4923 4919 4901 4762 4796 4769 4845 4788 4699 4781 4650 4528 4398 4326 4285 4162 4164 4244 4072 4088 3972 3976 3847 3904 3783 3842 3746 3738 3712 3631 3598 3683 3554 3663 3658 3546 3523 3604 3494 3542 3560 3448 3557 3424 3538 3611 3382 3499 3408 3492 3380 3422 3513 3414 3482 3369 3461 3437 3545 3546 3491 3368 3531 3423 3382 3434 3499 3453 3489 3444 3496 3536 3498 3514 3538 3605 3476 3444 3698 3605 3572 3625 3599 3630 3563 3564 3730 3558 3652 3572 3565 3614 3572 3559 3645 3557 3664 3633 3541 3558 3541 3551 3540 3546 3556 3652 3582 3455 3527 3613 3532 3425 3417 3411 3492 3435 3441 3410 3287 3299 3307 3305 3331 3217 3300 3236 3204 3243 3232 3075 3284 3177 3256 3165 3166 3193 3166 3221 3116 3115 3209 3118 3178 3163 3088 3130 3180 3168 3154 3209 3211 3194 3180 3169 3145 3127 3015 3004 3071 3062 3084 3159 2999 3111 3079 3073 3124 3026 3116 3076 3068 3093 3126 3141 3210 3124 3051 3146 3006 3033 3014 3041 3150 3059 2968 3002 3130 3101 3037 3119 3152 3018 3187 3098 3031 3203 3053 3162 3032 2978 3059 3117 3170 3145 3032 3124 3163 3152 3146 3310 3185 3213 3296 3334 3319 3318 3364 3291 3451 3227 3309 3323 3369 3342 3351 3279 3235 3376 3310 3305 3282 3357 3329 3416 3428 3338 3392 3350 3417 3316 3387 3536 3287 3332 3338 3297 3448 3220 3250 3279 3258 3244 3244 3193 3186 3169 3172 3146 3122 3013 3071 3043 3017 3027 3036 3056 3002 2972 2951 3010 2987 3074 2995 3101 2943 3074 2909 2973 3020 2988 2982 2903 2852 2944 2960 3027 2917 2862 2918 2979 2942 3014 3051 3058 2936 2935 2953 2890 2965 2947 2941 2946 2919 2917 2937 2848 2955 2923 2961 2989 2987 2981 2895 2930 2915 2982 2941 2937 2995 2973 2989 2899 2927 2874 2847 2929 2879 2846 2822 2854 2795 2973 2910 2868 2875 2820 2867 2891 2932 2953 2911 2889 2750 2811 2861 2865 2937 2982 2964 2781 2829 2883 2766 2820 2692 2890 2902 2900 2851 2863 2785 2740 2765 2944 2828 2786 2880 2794 2776 2876 2909 2719 2852 2988 2897 2753 2732 2814 2888 2781 2946 2911 2754 2851 2833 2798 2787 2895 2814 2715 2879 2722 2822 2796 2737 2859 2919 2762 2833 2761 2790 2809 2785 2727 2805 2801 2769 2789 2802 2768 2842 2769 2722 2690 2823 2703 2780 2657 2798 2600 2720 2756 2814 2731 2693 2737 2785 2785 2822 2769 2732 2757 2769 2664 2638 2666 2692 2734 2582 2670 2699 2554 2726 2758 2791 2679 2794 2687 2704 2673 2754 2697 2752 2826 2694 2761 2677 2730 2689 2582 2753 2626 2633 2574 2717 2630 2702 2691 2656 2651 2672 2613 2612 2593 2677 2661 2659 2647 2638 2667 2579 2678 2695 2606 2604 2645 2657 2671 2586 2692 2681 2696 2665 2681 2665 2623 2634 2559 2595 2660 2543 2582 2606 2682 2566 2648 2687 2550 2548 2615 2604 2591 2527 2749 2654 2646 2522 2637 2559 2572 2565 2641 2667 2578 2492 2631 2518 2590 2565 2594 2677 2708 2595 2576 2543 2618 2640 2588 2551 2634 2633 2624 2597 2637 2499 2556 2546 2594 2563 2573 2476 2615 2563 2598 2646 2670 2661 2614 2561 2576 2623 2609 2697 2582 2529 2601 2499 2609 2603 2487 2585 2589 2582 2580 2570 2555 2644 2488 2587 2544 2558 2651 2576 2609 2599 2642 2554 2624 2535 2601 2656 2544 2662 2549 2562 2548 2586 2655 2641 2659 2605 2623 2578 2609 2530 2611 2589 2631 2584 2592 2561 2611 2589 2547 2703 2556 2556 2618 2656 2612 2559 2559 2587 2688 2671 2631 2577 2647 2733 2718 2619 2615 2516 2618 2655 2557 2633 2646 2603 2639 2658 2646 2630 2680 2602 2594 2509 2630 2642 2606 2644 2602 2550 2586 2507 2560 2607 2580 2579 2559 2584 2622 2537 2597 2468 2504 2580 2592 2454 2399 2434 2461 2650 2488 2525 2516 2470 2459 2547 2567 2517 2589 2489 2499 2424 2475 2432 2480 2443 2570 2474 2548 2392 2430 2572 2495 2454 2415 2500 2454 2502 2519 2434 2521 2504 2486 2445 2404 2419 2409 2471 2417 2474 2443 2421 2520 2458 2336 2500 2451 2431 2360 2435 2434 2433 2358 2484 2353 2466 2408 2400 2390 2371 2437 2400 2316 2402 2406 2429 2303 2371 2306 2346 2404 2310 2334 2383 2433 2308 2323 2341 2388 2277 2397 2300 2306 2295 2299 2272 2252 2289 2281 2239 2217 2274 2229 2281 2282 2357 2273 2254 2282 2258 2279 2262 2233 2287 2293 2259 2206 2295 2309 2349 2179 2321 2307 2408 2242 2241 2317 2244 2300 2284 2292 2334 2328 2264 2227 2265 2245 2235 2234 2265 2289 2245 2208 2334 2251 2270 2215 2286 2285 2226 2270 2245 2209 2236 2267 2261 2180 2186 2227 2203 2091 2132 2113 2184 2099 2192 2075 2130 2092 2079 2093 2152 2128 2075 2024 2046 2013 2017 2031 2069 2061 1981 2054 2046 2036 1997 1962 1934 2010 1989 2023 1948 1981 2074 1988 2033 2014 1958 2005 1910 2002 1932 2013 1998 2050 2073 2002 1991 2048 2055 2078 1938 1873 1967 1932 2015 1936 1981 1949 1950 1912 1873 1955 1946 1902 1875 1923 2014 1950 2024 1956 2000 1948 1883 1998 1913 1895 1918 1856 1894 1983 1899 1875 1953 1888 1929 1884 1886 1884 1924 1952 1917 1897 1957 1924 1923 1970 1878 1922 1925 1960 1917 1967 1945 1919 1981 1914 1888 1929 1961 1848 1909 1900 1863 1967 1860 1902 1900 1900 1911 1888 1926 1912 1923 1872 1968 1884 1890 1901 1892 2024 1902 1888 1870 1905 1968 1917 1920 1923 1840 1830 1921 1928 1861 1943 1896 1918 1998 1834 2027 1844 1953 1908 1891 1875 1930 1881 1935 1896 1965 1894 1871 1955 1976 1899 1880 1939 1879 1935 1871 1884 1925 1969 1843 1983 1880 1897 1920 1922 1870 1864 1966 1925 1884 1914 1876 1928 1907 1937 1978 2025 1839 1917 1829 1913 1877 1852 1864 1871 1943 1841 1862 1904 1889 1880 1937 1890 1848 1939 1893 1867 1952 1828 1864 1840 1876 1895 1882 1816 1935 1926 1845 1867 1877 1871 1886 1932 1926 1907 1863 1841 1831 1915 1916 1949 2023 1868 1966 1954 1868 1990 1890 1947 1995 1984 1943 1873 2033 1908 2004 1905 1810 1884 1883 2019 1940 1903 1959 1899 1900 1937 1948 1953 1902 1963 1896 1799 1930 2041 1901 1882 1900 1872 1870 1921 1888 1878 1957 1886 1868 1901 1790 1783 1867 1929 1931 1836 1915 1787 1814 1807 1865 1779 1822 1842 1791 1851 1825 1742 1713 1696 1781 1752 1792 1755 1761 1776 1776 1777 1692 1848 1711 1764 1750 1718 1614 1713 1753 1764 1727 1779 1800 1741 1717 1742 1778 1754 1756 1723 1764 1718 1706 1687 1672 1648 1693 1695 1613 1748 1624 1719 1650 1657 1685 1632 1693 1694 1658 1660 1663 1683 1706 1688 1679 1626 1744 1700 1698 1665 1657 1671 1722 1693 1645 1634 1716 1621 1708 1681 1643 1653 1609 1608 1674 1670 1625 1643 1655 1733 1666 1696 1669 1669 1691 1592 1622 1662 1622 1704 1635 1734 1669 1596 1711 1613 1712 1702 1650 1636 1738 1738 1791 1746 1788 1836 1809 1872 1918 1916 1944 2010 1952 1989 1956 2051 2182 2095 2074 2021 2039 2032 2128 2005 2052 2046 1978 2130 2037 2096 2094 1999 1958 1999 2072 1996 1985 2025 2024 1961 1959 1949 1995 1983 1951 1948 1927 1923 1861 1843 1817 1936 1855 1837 1729 1780 1811 1757 1859 1703 1749 1668 1691 1660 1608 1589 1623 1559 1594 1578 1634 1584 1533 1636 1540 1570 1531 1580 1539 1483 1626 1524 1563 1621 1543 1561 1539 1573 1464 1599 1498 1513 1538 1587 1515 1659 1607 1592 1567 1595 1645 1550 1556 1563 1613 1604 1616 1633 1640 1747 1674 1729 1794 1889 1911 1956 2085 2047 2297 2256 2536 2674 2887 3093 3302 3468 3643 3998 4126 4258 4349 4490 4324 4654 4696 4681 4637 4871 4694 4665 4671 4750 4766 4741 4845 4722 4830 4844 4723 4868 4730 4746 4559 4692 4625 4504 4424 4374 4352 4277 4260 4275 4096 4258 4034 4129 3883 3836 3811 3610 3433 3345 3262 3011 2866 2856 2784 2499 2413 2248 2119 1989 2021 1920 1856 1737 1790 1674 1645 1696 1600 1555 1536 1472 1528 1450 1478 1438 1355 1462 1391 1398 1364 1427 1365 1405 1379 1400 1456 1387 1358 1440 1497 1363 1441 1374 1303 1409 1311 1357 1349 1405 1345 1377 1407 1300 1348 1387 1384 1325 1316 1302 1365 1327 1357 1293 1329 1382 1337 1306 1359 1364 1405 1381 1300 1330 1309 1375 1311 1376 1350 1385 1359 1301 1336 1393 1317 1330 1354 1374 1303 1311 1349 1430 1311 1344 1361 1474 1447 1474 1464 1429 1538 1530 1503 1667 1606 1658 1672 1787 1824 1849 2000 1995 2127 2102 2206 2257 2267 2369 2315 2440 2479 2454 2426 2402 2470 2447 2486 2425 2508 2426 2466 2525 2413 2455 2431 2471 2316 2320 2338 2330 2252 2257 2290 2197 2190 2042 2118 2053 2101 2091 2067 1955 1935 1943 2002 1978 1883 1830 1788 1667 1786 1639 1652 1571 1528 1533 1554 1514 1524 1466 1471 1437 1443 1407 1406 1421 1400 1424 1417 1375 1356 1429 1356 1396 1401 1393 1356 1408 1412 1358 1342 1424 1305 1356 1384 1341 1342 1331 1395 1293 1329 1322 1297 1309 1314 1335 1293 1226 1311 1304 1307 1343 1289 1319 1274 1355 1335 1318 1338 1355 1323 1251 1380 1426 1333 1288 1352 1352 1289 1368 1305 1383 1319 1334 1342 1341 1311 1274 1315 1317 1380 1309 1310 1314 1280 1285 1299 1258 1269 1255 1240 1228 1281 1290 1252 1251 1328 1248 1312 1240 1195 1263 1194 1244 1240 1222 1180 1223 1242 1166 1206 1272 1244 1217 1165 1231 1180 1188 1154 1226 1169 1221 1162 1199 1149 1259 1227 1212 1221 1230 1201 1192 1254 1197 1128 1219 1244 1227 1229 1232 1257 1268 1206 1232 1328 1264 1219 1238 1256 1254 1347 1256 1242 1305 1235 1233 1287 1322 1324 1291 1324 1338 1271 1356 1337 1290 1382 1386 1431 1375 1423 1419 1440 1451 1432 1397 1485 1413 1526 1435 1516 1448 1480 1466 1474 1428 1416 1524 1463 1435 1518 1512 1475 1476 1508 1397 1433 1464 1497 1414 1497 1439 1405 1481 1485 1537 1436 1506 1563 1582 1544 1600 1541 1678 1714 1813 1852 1957 2107 2224 2302 2511 2751 2807 3148 3429 3723 3928 4186 4504 4830 5196 5342 5670 5560 5827 5728 5893 5876 5922 5792 5799 5658 5806 5616 5601 5436 5563 5392 5353 5256 5323 5355 5128 5204 5126 5110 5182 5016 4833 4841 4732 4688 4471 4493 4344 4319 4187 4073 3930 3950 3827 3501 3297 3245 3060 2865 2876 2800 2627 2443 2273 2127 1972 2033 1850 1770 1659 1651 1532 1466 1475 1415 1399 1460 1393 1307 1352 1304 1276 1301 1296 1294 1232 1252 1259 1216 1180 1255 1220 1256 1289 1247 1196 1193 1261 1239 1216 1211 1210 1186 1235 1180 1257 1241 1224 1228 1180 1162 1230 1230 1219 1212 1271 1252 1258 1269 1258 1269 1363 1284 1306 1300 1299 1261 1358 1336 1320 1287 1335 1328 1390 1340 1326 1257 1282 1349 1318 1341 1304 1295 1322 1311 1306 1302 1308 1338 1299 1241 1311 1254 1237 1297 1292 1287 1277 1261 1260 1251 1246 1322 1206 1204 1157 1210 1195 1207 1218 1191 1162 1206 1163 1156 1215 1227 1134 1152 1129 1101 1122 1153 1150 1151 1160 1137 1057 1154 1089 1142 1140 1108 1108 1114 1128 1077 1097 1130 1131 1194 1083 1121 1094 1158 1167 1068 1198 1181 1171 1152 1227 1169 1192 1178 1255 1185 1168 1183 1261 1167 1276 1226 1215 1206 1244 1242 1188 1257 1206 1158 1167 1113 1182 1206 1199 1198 1133 1154 1156 1116 1191 1200 1192 1157 1153 1079 1147 1139 1202 1096 1153 1143 1141 1090 1113 1118 1035 1083 1136 1092 1113 1141 1026 1080 1027 1025 1049 1102 1096 1031 1017 1059 1057 1052 1085 1048 1001 1024 1079 1042 1083 1019 1060 1006 1148 998 1039 1000 1069 1086 1084 1070 981 1015 1036 992 1036 1054 1007 1043 987 1062 1008 1037 1018 1094 1029 1029 1079 1031 999 1081 1087 1049 1010 1020 1050 1082 981 1029 1014 1077 1045 957 1019 1030 1017 1068 1062 1019 1061 1023 1034 1108 1092 992 1066 1039 956 1002 1042 1029 990 1032 1066 1089 1099 1042 1048 1015 1051 992 1059 1028 1002 982 1003 1008 968 937 982 990 989 993 948 1000 1007 987 1011 1044 1002 941 966 1030 1002 1061 984 1031 1015 1063 1002 979 1036 997 1001 1022 1036 940 1007 1028 1007 1055 983 1005 1099 1009 1023 998 999 1000 1018 981 1029 991 1056 1010 997 1036 1056 1013 991 987 1019 944 999 1003 949 935 1067 1038 1000 1013 1022 940 986 989 948 984 969 1037 984 1003 969 974 1014 976 966 981 1011 951 995 964 992 976 964 961 973 1005 976 935 1013 998 980 997 1007 1028 997 994 925 1003 1019 962 922 990 985 970 1007 980 919 955 983 1009 947 919 941 979 1012 936 993 979 990 1029 968 1007 963 947 972 961 989 919 989 1014 962 1003 985 962 981 944 1015 1029 944 952 999 994 997 976 895 961 961 1006 967 957 993 911 1056 994 954 950 914 935 945 1000 939 930 928 929 996 989 1001 987 924 1021 966 993 990 992 968 975 931 989 1060 1010 992 1038 982 983 1050 987 951 989 997 947 1003 937 976 971 946 1040 983 1019 1046 960 961 963 951 986 1059 966 997 992 1028 972 997 930 964 917 990 1021 949 948 954 988 998 951 973 1017 983 1033 1019 1005 1005 1024 1018 994 1028 1115 1082 1078 1099 1119 1156 1140 1143 1221 1231 1245 1231 1345 1343 1341 1322 1390 1543 1474 1536 1515 1531 1502 1545 1570 1611 1596 1588 1541 1540 1584 1595 1571 1573 1571 1509 1543 1477 1487 1507 1435 1470 1453 1475 1463 1320 1422 1370 1345 1369 1290 1391 1233 1347 1286 1317 1271 1226 1193 1247 1114 1176 1167 1150 1153 1110 1117 1132 1097 1078 1073 1068 1013 967 960 935 986 1012 977 959 938 964 961 979 915 947 908 956 933 975 963 929 987 997 947 939 1006 918 1015 944 939 954 951 1001 946 929 959 964 932 935 906 926 971 949 976 983 940 937 933 847 915 935 970 947 967 937 957 931 882 975 915 938 942 911 930 951 983 901 923 865 962 970 954 947 873 895 920 937 897 950 916 890 920 920 934 958 935 931 957 931 1004 926 965 911 962 936 962 956 994 941 973 917 1006 953 983 975 964 1022 986 997 1104 1036 1014 1059 1006 1016 1004 1031 1062 1069 1064 1079 1105 1101 1053 1092 1096 1053 1061 1020 1130 1047 1071 1038 1074 1063 1011 1035 1049 1099 1039 989 1012 974 1023 986 1030 988 1027 989 1032 997 1004 979 958 954 1001 995 964 984 948 1035 952 1033 975 996 959 1032 1026 1013 1006 975 980 1015 1030 1079 967 1018 1025 997 1031 1018 985 1033 1085 1015 1041 1005 1038 964 1085 1005 962 951 1003 962 938 1023 1006 984 992 947 979 925 967 956 922 1005 988 985 971 984 939 954 1020 958 943 979 984 960 985 890 886 924 962 961 978 931 943 902 903 920 904 910 915 953 1007 945 1005 1034 955 941 964 1031 982 991 948 994 1002 964 1007 943 1010 996 990 961 933 1025 988 953 950 973 959 992 1002 996 908 1003 952 935 1031 964 1031 964 1002 930 966 989 988 997 989 988 958 995 909 964 959 868 945 966 911 970 924 938 946 950 887 949 916 997 940 905 934 907 955 909 989 953 933 928 924 949 955 963 979 884 931 980 967 976 912 989 961 980 963 969 973 981 1046 1050 1050 1064 1080 1113 1127 1177 1187 1220 1313 1306 1311 1337 1326 1460 1365 1323 1371 1337 1347 1345 1354 1388 1515 1416 1460 1406 1396 1390 1376 1383 1337 1300 1250 1340 1272 1270 1270 1236 1238 1235 1253 1212 1220 1235 1212 1170 1097 1167 1156 1160 1121 1106 1086 1058 1108 1002 994 1022 1048 965 980 1029 960 984 1032 965 981 939 929 878 956 996 1010 887 935 851 953 872 896 896 867 944 862 925 913 893 909 914 884 885 851 935 899 913 899 935 903 909 924 869 951 937 931 980 902 896 938 925 917 887 889 874 923 908 966 899 903 871 890 902 898 909 891 903 943 876 877 966 905 859 962 912 948 953 914 883 893 929 867 925 890 990 943 950 977 985 973 979 908 901 917 954 953 942 901 953 939 967 1037 963 954 963 983 923 957 932 865 953 876 915 914 893 918 866 963 901 927 887 922 901 922 977 833 846 902 934 879 934 936 908 876 950 879 860 824 886 861 875 914 902 939 845 905 926 872 896 864 915 882 912 862 909 886 847 903 808 840 893 879 896 900 900 931 877 851 831 822 850 853 825 892 857 903 837 912 998 890 876 867 853 915 910 872 916 871 886 881 922 872 900 876 886 921 903 922 856 966 842 922 890 918 921 952 894 895 904 873 907 927 967 965 892 917 924 978 905 995 959 950 920 948 1009 974 1021 1005 968 977 913 954 977 1004 980 1032 990 924 935 953 1050 1024 976 1006 1020 963 979 987 981 919 988 930 1029 1030 991 947 955 968 951 946 958 975 1031 970 937 985 948 1024 1003 1005 1005 956 1002 1005 1077 1022 1138 1081 1047 1123 1183 1135 1214 1219 1275 1262 1254 1272 1226 1314 1363 1318 1339 1306 1338 1329 1302 1269 1365 1347 1387 1262 1287 1362 1356 1308 1300 1239 1368 1274 1250 1256 1311 1315 1278 1265 1243 1247 1252 1252 1230 1310 1303 1216 1204 1425 1326 1393 1458 1442 1567 1511 1676 1724 1803 1894 2075 2184 2333 2431 2601 2692 2818 2996 3241 3384 3648 3660 3755 3769 3950 3903 3988 4053 4109 4214 4166 4287 4207 4097 3986 4015 3805 3849 3734 3655 3648 3465 3336 3354 3269 3157 2967 2912 2798 2688 2702 2622 2532 2414 2375 2383 2276 2192 2115 2087 1984 2010 1883 1728 1691 1678 1648 1541 1549 1436 1362 1316 1274 1302 1200 1266 1151 1113 1064 1119 1083 1040 1016 1032 995 920 955 1023 967 957 930 907 968 944 982 964 921 976 940 955 876 928 942 957 905 958 875 944 911 870 958 861 882 883 849 894 919 934 927 948 910 936 906 894 923 871 869 881 919 904 878 911 883 835 848 871 850 896 871 846 909 904 853 853 875 847 840 900 853 836 820 845 861 853 838 799 831 839 870 838 862 891 835 862 828 841 831 862 802 877 871 889 848 805 850 804 803 859 833 881 862 859 825 894 822 833 831 882 844 873 808 850 816 863 893 822 903 854 854 884 869 822 877 823 903 809 842 898 848 906 870 849 839 839 853 827 859 934 868 931 835 806 915 812 898 896 886 848 876 861 889 884 956 991 948 1025 968 1012 1007 1080 1014 1051 1104 1122 1113 1144 1070 1101 1196 1055 1052 1121 1171 1096 1132 1115 1103 1041 1138 1100 1133 1176 1102 1104 1097 1097 1087 1111 1049 1045 1067 1059 1061 1035 976 1059 1032 1016 1031 1037 994 967 942 959 955 941 987 929 939 869 980 908 958 933 921 910 894 861 982 921 879 932 876 913 902 908 881 902 857 851 869 894 907 873 819 824 913 883 845 901 853 860 869 879 864 880 867 877 880 883 882 905 962 959 865 899 949 916 882 956 917 920 965 949 901 939 899 887 916 910 859 878 935 860 904 928 852 881 885 932 846 901 891 848 863 862 840 867 861 824 842 854 926 894 879 847 861 907 869 901 793 793 867 854 905 837 863 865 897 863 886 838 887 891 966 891 933 900 928 898 906 862 908 917 920 962 938 912 907 982 884 974 950 957 978 1048 969 954 1008 965 969 956 966 1031 964 979 996 976 950 952 920 952 976 915 931 928 955 924 923 905 878 880 902 874 877 889 876 852 915 833 855 912 802 886 855 858 852 873 878 857 766 850 807 803 791 816 784 818 821 779 821 796 868 793 803 820 805 753 830 864 827 815 824 814 827 830 770 867 826 867 806 817 807 848 833 814 785 889 779 798 813 812 743 836 803 747 864 777 807 801 817 790 799 870 841 827 828 795 780 841 793 835 780 831 811 816 821 840 796 827 822 813 812 808 808 781 828 785 811 782 811 805 817 762 831 773 795 807 741 817 801 810 847 786 827 775 803 809 783 776 768 777 817 785 783 824 740 752 779 800 803 785 851 775 769 813 800 761 783 731 786 803 752 774 792 846 775 781 758 786 770 790 804 830 767 794 832 798 746 753 793 768 790 852 778 766 827 798 787 767 832 791 809 806 759 829 767 815 801 774 814 797 784 752 827 780 822 786 752 746 715 857 799 778 773 783 782 786 765 780 770 741 768 785 810 788 791 730 731 834 831 813 775 751 732 791 745 773 755 798 837 789 814 779 744 821 776 780 786 807 797 776 757 775 825 813 775 720 754 794 762 764 771 769 777 771 757 769 818 820 825 736 804 793 781 790 755 758 777 745 736 804 755 817 810 784 779 799 835 770 766 799 755 751 803 794 761 774 808 776 785 805 779 748 758 766 790 773 811 838 770 781 768 817 852 819 800 776 831 819 834 822 837 798 757 796 818 836 791 799 806 836 800 839 773 775 792 752 791 772 740 773 804 769 776 825 752 804 759 714 786 780 756 773 761 740 741 816 750 733 796 759 769 735 811 812 783 803 801 704 781 741 795 753 778 756 796 766 790 766 824 774 776 766 789 798 826 847 835 853 820 815 830 829 794 841 801 795 830 859 863 843 854 882 876 834 865 817 911 854 825 858 890 839 873 837 832 859 835 871 813 834 898 851 864 882 840 755 871 834 876 842 818 874 911 914 835 901 894 944 957 959 944 999 1032 1029 1016 1097 1139 1139 1195 1240 1274 1274 1248 1222 1335 1372 1405 1452 1422 1470 1371 1416 1447 1516 1510 1542 1486 1481 1486 1517 1475 1412 1390 1389 1428 1330 1436 1373 1246 1374 1264 1290 1248 1250 1311 1199 1257 1239 1165 1231 1165 1170 1217 1106 1175 1029 1076 1110 1053 1019 1027 1057 980 1000 992 986 986 977 1031 897 903 982 945 1035 899 925 909 878 976 918 907 918 915 850 878 911 845 826 874 859 848 817 855 826 887 809 869 876 795 828 825 849 803 836 829 841 813 872 825 821 804 827 811 798 844 882 849 777 844 810 849 834 855 820 863 837 830 882 827 801 879 900 901 882 931 865 881 852 935 848 885 862 856 884 834 839 851 792 892 811 869 907 898 895 844 844 860 826 799 819 839 833 802 847 860 806 828 781 815 768 799 804 801 804 756 788 782 820 844 808 812 747 796 791 789 844 763 781 793 752 787 719 836 792 783 744 796 825 727 765 719 712 765 762 795 687 827 714 799 767 775 721 771 760 770 815 791 793 742 820 791 739 767 808 720 805 801 802 768 824 836 749 796 729 713 808 851 822 815 770 783 806 731 729 699 825 843 785 796 778 819 785 865 820 821 835 805 767 870 922 943 939 954 1013 945 1013 993 1107 1097 1168 1209 1169 1246 1173 1275 1273 1415 1363 1398 1433 1539 1427 1507 1563 1573 1528 1546 1563 1507 1511 1529 1483 1508 1480 1561 1506 1471 1483 1575 1480 1450 1418 1430 1379 1350 1375 1230 1359 1262 1285 1262 1217 1198 1235 1175 1140 1089 1115 1137 1082 1079 1064 1057 964 962 925 1010 930 953 878 935 881 838 819 881 788 807 860 839 820 786 832 806 771 790 775 835 784 727 762 768 774 756 751 744 765 816 746 755 781 809 764 779 733 744 727 696 779 740 742 748 777 743 692 769 771 737 783 740 744 734 710 784 760 762 737 792 704 774 763 750 722 737 779 766 714 748 775 701 706 746 747 725 713 717 700 743 796 747 716 741 697 773 721 748 786 781 750 705 653 774 727 732 762 740 716 746 726 769 755 767 765 732 713 703 760 750 719 745 751 794 765 729 728 718 746 698 766 737 788 761 740 725 750 732 754 754 771 801 764 790 773 789 797 803 772 759 817 879 806 828 805 888 884 859 843 899 870 885 933 884 980 953 943 917 946 947 905 958 838 917 861 910 899 896 905 877 838 900 829 841 921 873 824 840 801 851 857 820 863 749 818 874 834 799 850 799 774 761 754 799 805 754 752 729 788 794 819 736 757 775 692 749 729 735 799 743 717 708 747 701 724 741 731 686 710 744 661 726 703 740 689 741 703 744 707 672 749 748 678 767 715 700 730 718 711 648 734 733 719 700 749 663 748 736 702 713 715 688 748 734 716 695 691 732 760 723 735 713 704 724 687 731 721 685 718 735 760 736 714 708 730 717 717 748 670 748 688 703 688 727 713 736 729 736 715 695 738 723 722 770 699 745 734 775 736 727 763 776 790 783 753 799 707 838 765 804 835 811 801 827 762 784 831 760 785 788 809 840 826 837 810 814 796 824 798 760 834 826 808 734 841 779 804 800 797 829 803 800 787 783 771 834 780 794 712 787 736 725 761 786 755 717 806 694 775 719 718 704 684 750 739 739 758 751 714 709 680 738 715 747 683 732 724 688 740 744 694 723 676 676 755 707 693 728 724 732 727 744 699 704 661 692 677 724 727 761 703 661 690 718 693 721 738 742 680 689 696 680 676 688 656 647 729 726 711 676 654 657 692 697 716 756 733 696 738 655 742 687 686 747 695 712 699 660 698 690 693 687 724 706 719 736 745 686 699 727 661 708 717 751 726 723 697 688 741 711 749 692 712 720 724 671 673 696 747 711 686 631 722 745 738 735 703 697 750 722 711 677 723 697 719 740 681 667 778 658 642 670 680 717 747 664 745 697 657 749 658 703 655 722 678 720 701 657 714 710 656 734 690 646 760 731 684 731 717 670 724 708 686 764 754 710 754 742 724 725 730 759 787 831 765 732 818 733 763 772 724 742 719 711 695 719 744 756 713 740 701 722 718 732 689 758 691 722 714 712 747 722 736 715 705 760 745 733 735 699 722 715 719 682 722 687 755 691 678 699 672 664 743 680 696 674 687 726 740 702 715 699 699 725 704 698 691 746 682 700 662 659 644 740 715 702 665 670 706 680 701 716 718 741 698 704 717 679 690 709 674 683 692 658 733 696 694 645 745 717 741 674 721 673 706 695 683 706 741 693 721 734 713 756 743 762 734 729 804 780 784 751 766 780 766 794 762 820 784 840 784 762 767 782 815 776 840 772 800 761 777 797 786 768 792 804 786 782 782 800 789 743 820 760 785 759 702 842 714 766 729 727 711 723 699 744 716 683 711 737 709 707 711 746 726 739 706 701 735 661 711 723 728 680 697 710 712 702 746 661 679 688 696 657 677 731 722 694 628 722 652 682 730 657 635 720 639 699 697 652 633 724 707 692 685 652 618 668 672 717 668 712 647 667 705 714 687 659 673 689 744 672 660 681 687 708 713 676 696 677 725 705 692 654 687 694 720 675 671 678 731 691 641 673 689 645 697 729 657 673 661 682 666 719 693 712 734 678 666 727 712 691 719 729 663 670 696 720 757 702 678 681 734 681 702 654 682 669 705 740 703 683 742 723 697 673 654 714 712 676 635 706 717 720 783 744 763 702 701 695 739 649 721 696 695 669 712 656 663 711 690 686 744 676 693 673 713 736 716 705 657 690 655 693 687 629 682 731 669 669 694 683 646 686 687 668 690 675 722 670 697 718 677 676 684 668 672 735 669 692 662 673 670 630 698 712 686 703 684 654 700 648 667 699 636 677 719 693 691 691 669 681 698 654 691 700 694 691 712 720 676 720 704 724 682 725 712 729 687 719 699 690 746 718 713 739 761 772 761 748 742 804 755 812 773 868 845 884 863 854 883 917 881 881 940 903 969 899 887 927 912 976 941 996 906 926 931 910 946 919 956 964 968 983 911 896 921 918 947 924 924 930 923 884 820 827 901 874 867 841 837 812 813 780 809 786 730 775 782 770 758 751 796 743 722 800 741 750 736 722 750 699 710 713 730 730 689 694 726 714 729 698 688 724 661 671 686 659 697 695 669 628 681 698 704 642 731 689 683 698 691 679 691 700 676 714 674 735 668 658 698 715 686 694 678 694 675 680 633 688 644 660 630 658 674 675 681 728 717 656 694 660 689 683 753 733 669 709 634 679 675 730 643 727 703 695 669 683 713 693 667 668 660 653 698 673 658 676 703 683 692 688 648 637 691 711 673 677 655 692 666 680 694 631 654 674 662 665 689 664 631 747 642 684 712 708 745 680 694 658 659 685 687 674 684 672 731 676 694 673 706 697 695 642 690 647 735 665 705 694 732 713 720 677 663 688 641 744 715 686 720 718 657 763 695 729 668 685 692 640 683 691 695 740 649 678 698 714 714 711 690 635 686 672 666 662 687 720 687 687 672 698 629 667 700 678 727 770 659 698 690 662 685 688 679 632 647 704 676 701 675 672 670 691 721 659 700 696 684 709 700 658 707 687 689 681 692 672 754 668 704 708 724 660 688 718 703 660 748 659 749 683 721 647 705 744 783 611 644 669 705 738 699 703 672 734 677 702 693 663 657 690 702 657 629 754 663 711 691 683 692 685 711 677 693 706 678 731 685 686 699 688 688 633 669 711 659 606 648 669 666 645 675 717 752 675 674 666 696 688 659 682 656 699 721 675 664 675 739 701 655 691 646 662 695 635 671 642 680 665 679 691 695 679 710 654 643 643 653 612 695 673 645 681 635 630 656 706 646 632 652 685 689 669 678 684 672 640 631 652 675 633 681 689 687 622 746 663 714 711 653 691 674 642 666 616 666 618 682 658 619 682 632 660 646 713 697 656 691 650 672 652 659 681 686 686 716 646 627 650 681 609 695 649 673 670 710 691 680 665 659 684 681 714 740 659 668 694 721 681 663 696 706 681 686 661 701 630 711 693 698 715 673 680 680 721 716 698 708 710 747 699 760 662 671 702 672 705 709 719 649 742 694 750 704 704 730 679 763 731 746 721 708 706 702 721 658 700 727 690 715 714 699 741 709 693 663 669 703 657 655 678 655 667 712 664 697 653 719 648 686 665 682 660 672 646 661 684 719 635 673 670 676 680 722 674 678 628 677 653 668 651 620 711 587 681 696 679 735 627 663 656 737 658 685 628 703 677 658 717 695 660 659 704 695 638 711 667 674 668 700 677 700 686 702 687 691 653 721 676 660 707 666 684 667 692 710 685 661 693 720 689 636 673 680 666 656 636 662 658 703 665 684 675 685 722 655 636 690 702 740 697 701 683 703 681 698 713 758 696 676 682 766 713 703 737 715 700 752 652 767 678 686 750 760 745 735 777 735 729 780 719 701 746 737 723 806 721 727 744 735 767 748 726 746 762 709 747 713 819 786 737 773 751 687 736 786 809 749 769 788 809 762 757 756 776 774 791 779 807 820 852 777 819 781 808 847 831 805 767 836 847 902 839 839 828 924 873 854 885 886 867 956 891 868 939 998 961 960 964 921 916 1011 982 978 950 960 1002 921 914 969 944 934 910 907 920 943 943 896 916 915 929 895 870 913 929 865 855 851 860 846 843 829 878 859 773 823 816 856 807 742 754 801 797 733 789 751 749 773 752 752 714 750 707 715 693 772 695 740 685 729 693 705 682 671 675 718 660 697 685 676 688 722 723 751 699 701 699 680 701 674 739 710 741 733 702 732 681 721 641 718 696 708 712 728 669 717 699 675 767 646 697 663 705 667 756 652 716 669 706 711 683 687 664 698 747 672 737 736 695 709 756 733 712 674 686 697 703 713 716 693 686 721 719 711 745 692 683 703 720 716 772 719 719 677 699 723 696 692 658 731 695 673 737 780 749 669 699 703 724 759 695 734 735 730 771 702 766 732 776 768 781 806 809 765 805 803 750 712 752 786 783 752 752 803 786 750 830 804 812 776 804 767 784 823 803 798 810 763 800 839 838 788 806 878 878 881 885 886 923 874 928 916 960 1019 979 1019 1008 1025 1045 1088 1076 1144 1128 1082 1157 1072 1166 1174 1186 1222 1137 1242 1227 1274 1309 1277 1274 1258 1349 1295 1302 1326 1296 1287 1321 1240 1251 1309 1227 1203 1202 1196 1192 1204 1161 1154 1196 1187 1113 1088 1140 1082 1039 1126 1092 996 1026 975 1071 951 897 910 959 896 869 933 917 855 894 825 815 883 797 832 821 777 856 810 764 777 814 763 750 732 680 755 754 721 679 696 727 718 691 691 730 700 713 766 715 715 702 665 667 702 683 633 673 664 673 703 638 675 676 718 652 691 647 636 655 680 733 682 643 634 646 642 706 683 686 644 668 654 664 733 713 732 748 696 661 672 702 676 707 699 682 698 719 715 677 674 697 709 720 671 690 703 677 704 668 689 694 622 711 750 683 664 667 680 687 705 722 725 693 669 656 696 697 702 732 689 747 679 706 719 746 715 701 708 670 719 696 743 668 710 704 702 750 693 687 726 691 688 656 726 681 698 751 703 715 678 693 730 711 703 728 776 726 766 789 703 735 779 771 665 711 706 747 686 696 690 708 698 739 688 742 646 654 682 688 655 697 657 720 703 664 715 654 689 728 674 717 685 625 651 656 668 649 707 657 690 661 717 706 710 680 711 732 665 695 655 658 714 734 627 691 683 651 703 709 743 694 698 684 712 699 679 722 742 708 700 700 742 712 754 760 719 797 790 759 744 740 736 719 719 692 752 726 709 694 739 741 721 749 773 727 767 744 786 740 730 781 730 715 725 740 696 684 695 736 718 715 762 737 709 707 736 693 707 776 717 731 684 704 630 691 693 619 690 752 732 655 711 669 655 676 624 669 667 662 702 702 649 669 676 636 640 645 651 681 690 697 741 649 610 684 628 677 626 646 640 710 614 644 588 646 713 682 656 656 663 647 665 617 672 686 654 701 671 600 685 680 663 686 624 638 669 695 698 695 683 670 633 663 674 627 708 677 696 680 642 692 687 652 667 664 700 655 615 632 647 686 718 676 683 650 641 666 652 681 630 671 674 639 693 643 653 641 688 648 671 669 687 657 695 717 632 681 667 648 703 611 609 674 638 642 651 635 630 674 708 667 655 659 651 650 672 659 640 694 663 672 674 680 670 696 688 698 663 629 679 714 633 630 644 673 630 651 609 643 667 646 691 693 665 621 655 676 641 684 634 656 661 642 690 684 667 652 638 674 676 651 658 631 654 633 664 680 651 625 661 625 574 638 645 651 687 676 624 650 632 677 679 625 639 652 714 681 649 662 657 675 702 672 672 653 690 631 604 675 638 662 666 677 644 625 696 677 661 645 696 683 693 586 647 697 649 672 756 633 742 691 638 668 660 641 684 640 706 651 725 691 653 636 649 628 639 671 671 625 656 693 670 680 665 654 679 678 667 669 721 666 641 647 670 681 667 667 675 690 642 664 675 627 659 685 728 668 721 689 737 673 665 709 659 689 670 624 683 696 746 739 704 689 761 731 697 751 715 682 766 699 699 709 722 733 708 756 719 712 714 710 762 708 743 671 679 736 728 785 738 738 743 731 752 744 734 698 712 674 716 703 711 723 731 754 713 711 694 741 700 715 679 672 683 686 697 672 708 716 685 674 673 693 671 714 655 678 675 684 702 659 632 667 662 673 616 664 721 674 656 629 629 645 653 662 675 629 633 665 639 640 633 636 665 674 680 661 629 639 680 647 708 654 713 670 607 650 655 653 721 591 668 678 694 668 662 680 644 690 647 672 664 656 657 636 661 662 676 651 656 635 653 680 681 671 652 633 670 637 639 629 652 669 693 651 677 665 680 668 661 643 697 635 636 683 665 695 691 684 690 698 636 658 707 652 717 706 650 658 692 714 674 672 679 663 668 720 697 680 672 636 647 674 664 685 732 701 727 639 716 743 689 653 690 704 728 671 691 722 671 702 651 699 720 694 638 621 683 651 655 677 668 659 697 681 675 664 672 676 685 623 666 671 711 658 679 662 620 687 645 664 540 687 642 692 653 652 715 642 672 623 582 700 616 650 695 674 653 659 640 649 662 657 699 670 624 690 649 615 684 680 628 661 677 670 668 716 735 733 687 735 706 745 800 724 760 736 733 790 843 760 813 770 790 839 901 851 906 895 868 893 836 833 898 885 899 978 944 1030 968 1023 964 1070 1049 997 1020 1077 1045 1041 1071 1129 1094 1048 1078 1037 1089 1036 1045 1060 1059 1027 1063 997 970 1021 986 993 996 1021 916 976 954 951 976 920 961 921 930 887 992 860 947 928 881 880 864 844 852 832 824 825 805 824 834 756 766 758 808 715 785 743 778 764 711 696 755 749 760 763 648 767 711 715 718 668 667 678 662 648 701 682 712 699 698 689 704 691 650 673 667 676 684 688 697 653 665 644 683 668 659 642 673 630 655 722 621 696 680 696 727 635 682 663 644 639 667 646 616 675 682 695 686 661 633 662 703 649 654 606 633 715 643 666 646 610 636 656 666 695 651 681 666 619 662 670 703 674 676 621 675 681 616 644 675 687 666 637 665 663 674 650 667 662 686 660 667 674 672 709 630 691 676 683 665 650 676 684 684 680 669 722 686 675 691 653 667 676 693 672 679 683 670 679 726 643 667 706 714 602 656 724 705 633 726 675 658 716 733 702 698 696 677 693 640 665 688 706 682 635 711 669 711 656 685 658 640 650 653 689 635 642 663 660 705 666 640 635 677 716 676 713 707 635 691 680 694 625 685 698 630 677 701 669 680 624 664 644 703 623 660 600 691 651 699 664 615 651 659 662 680 630 637 608 655 638 652 680 627 632 609 612 656 579 687 616 641 622 607 641 625 648 623 649 657 589 610 641 599 651 637 669 627 600 638 610 612 666 616 628 643 689 637 631 650 636 617 637 686 593 619 639 639 605 618 644 628 609 631 605 670 616 624 638 625 635 645 640 685 595 645 646 662 639 630 611 638 630 634 645 652 624 633 602 665 606 609 631 654 637 678 615 616 638 630 649 641 619 684 667 669 649 667 690 654 640 648 619 607 624 696 649 636 654 619 657 617 692 642 700 642 648 619 632 603 626 590 627 647 638 650 635 663 654 641 653 676 723 623 649 682 628 641 640 629 612 684 612 666 629 652 681 653 655 677 617 725 607 620 619 645 629 676 664 670 666 665 659 694 635 662 659 641 642 651 644 684 662 634 658 630 612 688 654 617 644 652 641 663 644 672 625 685 678 641 612 634 663 645 630 650 636 633 685 623 624 635 660 652 640 666 640 685 644 668 640 647 641 663 661 591 686 640 618 656 659 705 609 675 603 643 650 612 634 679 673 647 665 624 686 661 658 665 568 662 670 667 694 628 677 623 638 671 624 622 644 663 602 610 671 648 625 634 647 649 653 596 703 637 581 656 610 645 579 664 607 601 667 621 660 653 624 612 604 661 657 571 645 679 672 622 620 656 618 665 607 632 704 623 707 680 661 694 664 704 652 657 640 656 636 577 660 668 606 679 678 626 652 628 642 641 592 610 641 619 628 651 631 686 673 660 613 702 644 663 604 669 657 621 709 659 663 672 653 692 660 671 665 627 683 664 672 664 640 664 668 674 713 672 684 744 662 704 726 764 711 719 749 707 745 696 697 715 715 720 722 727 683 733 750 812 732 731 793 704 733 750 750 733 729 737 750 765 750 769 780 759 778 715 743 716 783 728 791 738 755 740</counts>
			</dataPoints>
		</scan>
	</xrdMeasurement>
</xrdMeasurements>
