<?xml version="1.0"?>
<xrdMeasurements xmlns="http://www.xrdml.com/XRDMeasurement/2.3" xmlns:xsi="http://www.w3.org/2001/XMLSchema-instance" xsi:schemaLocation="http://www.xrdml.com/XRDMeasurement/2.3 http://www.xrdml.com/XRDMeasurement/2.3/XRDMeasurement.xsd" status="Completed" recordIdentifier="{C46A63B1-76E8-4C58-ACFB-3B7267A110B7}">
	<comment>
		<entry/>
	</comment>
	<sample type="To be analyzed">
		<id>GPSS_Li1p6Mg0p6Cu0p2Nb0p2Cl4_121825_6943d914f4d05ae3d69790b9</id>
		<name></name>
		<preparedBy></preparedBy>
	</sample>
	<xrdMeasurement measurementType="Scan" status="Completed" sampleMode="Reflection">
		<usedWavelength intended="K-Alpha 1">
			<kAlpha1 unit="Angstrom">1.5405980</kAlpha1>
			<kAlpha2 unit="Angstrom">1.5444260</kAlpha2>
			<kBeta unit="Angstrom">1.3922500</kBeta>
			<ratioKAlpha2KAlpha1>0.5000</ratioKAlpha2KAlpha1>
		</usedWavelength>
		<incidentBeamPath>
			<radius unit="mm">145.00</radius>
			<xRayTube id="1010048" name="Empyrean Cu LFF HR (9430 033 7310x)">
				<tension unit="kV">40.0</tension>
				<current unit="mA">15.0</current>
				<anodeMaterial>Cu</anodeMaterial>
				<focus type="Line">
					<length unit="mm">12.0</length>
					<width unit="mm">0.4</width>
					<takeOffAngle unit="deg">6.0</takeOffAngle>
				</focus>
			</xRayTube>
			<sollerSlit id="21010002" name="Soller slits 0.04 rad.">
				<opening unit="rad">0.0400</opening>
			</sollerSlit>
			<mask id="22031000" name="Fixed mask 13 mm">
				<width unit="mm">9.00</width>
			</mask>
			<divergenceSlit id="22120001" name="Divergence slit 1°" xsi:type="fixedDivergenceSlitType">
				<distanceToSample unit="mm">50.00</distanceToSample>
				<height unit="mm">1.52</height>
			</divergenceSlit>
		</incidentBeamPath>
		<sampleMovement xsi:type="spinningSampleMovementType">
			<spinnerRevolutionTime unit="seconds">1.0</spinnerRevolutionTime>
		</sampleMovement>
		<diffractedBeamPath>
			<radius unit="mm">145.00</radius>
			<antiScatterSlit id="22090040" name="AS slit 9 mm (PIXcel)" xsi:type="fixedAntiScatterSlitType">
				<height unit="mm">9.00</height>
			</antiScatterSlit>
			<sollerSlit id="21020003" name="Large Soller slits 0.04 rad.">
				<opening unit="rad">0.0400</opening>
			</sollerSlit>
			<filter id="20030001" name="Large beta-filter Nickel">
				<material>Ni</material>
				<thickness unit="mm">0.020</thickness>
			</filter>
			<detector id="7010019" name="PIXcel1D-Medipix3 detector" xsi:type="rtmsDetectorType">
				<phd unit="keV">
					<lowerLevel>4.02</lowerLevel>
					<upperLevel>11.27</upperLevel>
				</phd>
				<mode>Scanning</mode>
				<activeLength unit="deg">5.542</activeLength>
			</detector>
		</diffractedBeamPath>
		<scan appendNumber="0" mode="Continuous" scanAxis="Gonio" status="Completed">
			<header>
				<startTimeStamp>2025-12-21T14:30:39-08:00</startTimeStamp>
				<endTimeStamp>2025-12-21T14:38:47-08:00</endTimeStamp>
				<author>
					<name>AutomatedUser</name>
				</author>
				<source>
					<applicationSoftware version="1.7b (136)">PANalytical Aeris Instrument Suite</applicationSoftware>
					<instrumentControlSoftware version="3.2.00000000 20240306">AERIS</instrumentControlSoftware>
					<instrumentID>950485</instrumentID>
				</source>
			</header>
			<dataPoints>
				<positions axis="2Theta" unit="deg">
					<startPosition>10.00943322</startPosition>
					<endPosition>99.99442286</endPosition>
				</positions>
				<positions axis="Omega" unit="deg">
					<startPosition>5.00471661</startPosition>
					<endPosition>49.99721143</endPosition>
				</positions>
				<commonCountingTime unit="seconds">12.495</commonCountingTime>
				<counts unit="counts">2959 2861 2932 2956 2808 2963 2926 2957 2920 3032 2917 2936 2969 2982 3072 2945 2994 3018 2965 2953 2962 2978 2980 3012 3015 3028 2902 3023 2875 2958 2908 2972 2967 3033 3020 2912 3008 2958 2877 3038 2931 2951 3035 3041 3015 2899 2991 3030 3058 3026 2992 3011 3058 2982 2969 2958 2921 2992 3050 3023 3018 3006 3042 2922 3151 2957 3048 2996 3053 3074 3037 2993 3086 3050 3062 3085 3058 2982 3035 3056 3032 2990 3057 3046 2965 3049 3062 3077 3064 3070 3011 3160 3079 3171 2988 3049 3046 3103 3123 3199 2993 3071 3015 3108 3093 3136 3066 3163 3161 2996 2994 3042 3085 3176 3015 3169 3058 3100 3069 3092 3079 3148 3049 3048 3042 3129 3087 3110 3052 3092 3097 3085 3168 3057 3245 3065 3195 3168 3186 3098 3100 3140 3118 3112 3105 3089 3163 3177 3086 3111 3229 3181 3081 3040 3202 3106 3093 3119 3117 3086 3093 3032 3213 3134 3076 3145 3197 3147 3099 3060 3086 3195 3204 3125 3218 3187 3094 3087 3077 3125 3200 3127 3146 3065 3153 3171 3079 3189 3140 3083 3032 3134 3152 3048 3167 3119 3103 3108 3109 3133 3214 3118 3150 3083 3105 2990 3134 3098 3037 3188 3011 3126 2992 3058 3061 3078 3072 3215 3114 2987 3162 3009 3125 3151 3145 3155 2993 3059 3126 3066 3060 3146 3107 3075 2979 3182 2977 3039 3036 3061 2946 3019 3112 3031 2947 3132 3076 3017 3022 3050 3095 3051 3196 3085 2986 3053 3075 3113 3093 3095 3076 3071 2972 3073 3103 3021 3078 3149 3081 3039 3189 3086 3163 3020 3022 3109 3150 3135 3097 3051 3046 3091 3023 2989 3014 3064 3056 3182 3024 3133 3156 3041 3127 3053 3133 3178 3065 3086 3115 3190 3137 3035 3114 3125 3222 3230 3057 3261 3133 3136 3117 3123 3183 3094 3117 3137 3140 3241 3141 3208 3152 3182 3280 3181 3293 3221 3172 3199 3211 3160 3174 3231 3382 3293 3200 3125 3234 3192 3279 3261 3288 3230 3351 3202 3374 3391 3295 3317 3308 3219 3346 3414 3301 3352 3388 3478 3410 3411 3296 3415 3431 3418 3435 3379 3376 3411 3327 3470 3439 3413 3452 3461 3367 3468 3458 3321 3422 3541 3432 3426 3417 3342 3444 3528 3444 3513 3464 3600 3598 3543 3614 3519 3440 3455 3526 3550 3538 3643 3476 3583 3622 3558 3551 3520 3541 3616 3643 3470 3611 3610 3582 3655 3610 3694 3590 3637 3556 3619 3551 3675 3751 3715 3753 3722 3780 3820 3703 3713 3841 3783 3922 3987 3899 4017 3958 3917 3834 4008 3942 3935 3881 3885 3805 3875 3861 3786 3742 3615 3541 3573 3622 3502 3500 3627 3594 3488 3473 3352 3516 3464 3493 3496 3539 3623 3419 3450 3510 3436 3403 3424 3409 3438 3410 3389 3450 3544 3453 3384 3368 3479 3392 3399 3386 3332 3384 3366 3463 3359 3293 3399 3398 3472 3388 3435 3339 3325 3328 3259 3325 3356 3360 3252 3235 3294 3353 3295 3293 3207 3173 3278 3169 3262 3293 3265 3268 3271 3280 3279 3286 3122 3238 3282 3234 3228 3106 3220 3198 3176 3098 3112 3197 3103 3088 3213 3147 3185 3054 3139 3142 3137 3156 3082 3155 3190 3107 3169 3185 3100 3050 3135 3043 3088 3036 3026 3064 3109 3074 3062 3165 3091 3080 3094 3226 3138 3038 3015 3062 3153 3084 2980 2956 3055 3059 2988 3090 3065 3110 2995 3033 3104 3006 3079 3067 2999 3009 3007 3068 3134 3020 3003 3011 3031 2988 2921 2908 3022 2945 2978 2921 2910 2904 2987 3030 2908 2921 2987 2954 2971 2944 2928 2958 3032 3017 2972 2931 2833 2968 3019 2967 2949 2986 2897 2864 2823 2882 2935 2951 2985 2940 2941 2955 2954 2897 2925 2907 2903 2831 2979 2939 2880 2905 2879 2901 2881 2855 2825 2968 2924 2795 2926 2906 2890 2936 2946 2957 2948 3001 2913 2974 2872 2877 2886 2859 2865 2885 2893 2802 2870 2797 2846 2861 2919 2858 2849 2913 2931 2904 2943 2938 2842 2854 2864 2858 2836 2810 2910 2877 2918 2851 2838 2828 2788 2810 2873 2763 2709 2843 2776 2855 2816 2870 2929 2847 2780 2811 2796 2728 2781 2798 2766 2767 2895 2847 2805 2683 2682 2817 2815 2815 2847 2821 2880 2819 2845 2799 2726 2736 2848 2803 2871 2811 2759 2790 2802 2820 2878 2732 2769 2758 2887 2678 2775 2791 2788 2813 2873 2808 2882 2724 2724 2834 2819 2787 2719 2755 2703 2846 2759 2791 2770 2853 2717 2753 2738 2741 2788 2789 2807 2842 2726 2697 2757 2760 2677 2804 2779 2731 2736 2773 2636 2762 2764 2706 2749 2807 2744 2664 2734 2706 2722 2783 2750 2757 2803 2704 2831 2789 2656 2615 2689 2740 2751 2761 2719 2710 2720 2684 2599 2696 2771 2710 2649 2763 2682 2724 2794 2679 2603 2712 2825 2835 2698 2724 2633 2685 2756 2722 2673 2657 2715 2751 2630 2685 2723 2665 2725 2676 2680 2719 2717 2680 2734 2649 2663 2640 2656 2704 2651 2628 2696 2715 2615 2659 2593 2694 2663 2658 2602 2623 2613 2628 2551 2687 2659 2627 2621 2716 2666 2593 2713 2665 2770 2668 2564 2514 2605 2630 2621 2666 2671 2594 2599 2599 2574 2643 2618 2617 2537 2593 2711 2647 2588 2632 2624 2635 2667 2506 2637 2551 2593 2576 2594 2612 2572 2566 2590 2654 2589 2566 2532 2587 2551 2608 2566 2554 2541 2571 2499 2610 2499 2523 2542 2555 2562 2605 2509 2496 2588 2618 2652 2574 2587 2524 2537 2566 2554 2528 2574 2555 2546 2529 2537 2604 2688 2638 2505 2604 2587 2569 2577 2555 2520 2606 2467 2536 2607 2493 2539 2561 2524 2507 2532 2519 2474 2544 2546 2536 2511 2469 2502 2580 2536 2457 2564 2503 2551 2480 2631 2449 2525 2567 2565 2555 2438 2555 2471 2570 2505 2554 2509 2451 2579 2491 2482 2484 2506 2560 2575 2587 2554 2406 2571 2511 2517 2439 2612 2623 2455 2496 2583 2448 2576 2559 2530 2560 2516 2553 2411 2497 2529 2560 2417 2666 2521 2500 2564 2498 2501 2480 2471 2481 2492 2464 2516 2491 2494 2466 2515 2508 2392 2679 2442 2551 2533 2444 2597 2538 2622 2555 2517 2573 2573 2626 2573 2402 2554 2432 2471 2558 2477 2529 2529 2548 2492 2487 2467 2562 2519 2575 2435 2441 2494 2492 2488 2439 2548 2487 2498 2490 2500 2533 2516 2593 2541 2517 2475 2467 2620 2517 2479 2537 2489 2524 2501 2542 2588 2539 2474 2418 2483 2470 2353 2391 2408 2495 2461 2398 2551 2470 2468 2526 2411 2446 2453 2482 2414 2376 2520 2543 2470 2479 2516 2434 2452 2441 2314 2248 2466 2379 2577 2387 2386 2450 2418 2488 2358 2434 2349 2459 2356 2367 2393 2375 2354 2415 2365 2466 2325 2415 2430 2395 2435 2426 2463 2443 2450 2420 2386 2464 2320 2314 2283 2364 2317 2348 2335 2396 2326 2368 2341 2287 2213 2348 2310 2340 2337 2229 2266 2255 2271 2310 2246 2229 2224 2309 2204 2240 2250 2216 2292 2138 2236 2234 2207 2244 2167 2179 2127 2173 2254 2298 2241 2184 2091 2219 2151 2187 2152 2119 2164 2161 2141 2061 2196 2137 2080 2137 2126 2094 2052 2120 2141 2086 2143 2104 2121 2067 2116 1974 2099 2156 2111 1997 2038 2090 2024 2028 2021 2004 2053 1939 1987 2012 2044 2048 1999 2045 2018 2011 2022 2037 2039 1990 1997 2023 1976 2083 1990 1915 1987 1995 1979 1937 1964 1942 1965 2019 2022 1949 2001 1935 1976 1904 1971 2034 1972 1955 1875 2051 2050 2101 1925 2061 2065 2033 2110 2083 2066 2163 2081 2214 2285 2280 2302 2436 2435 2518 2568 2653 2709 2645 2639 2763 2727 2830 2684 2660 2509 2626 2557 2397 2428 2314 2290 2171 2232 2100 2054 2034 2004 1914 1849 1984 1871 1921 1896 1828 1903 1895 1877 1853 1945 1804 1928 1896 1776 1838 1815 1833 1881 1862 1858 1931 1868 1785 1927 1836 1748 1767 1753 1862 1879 1786 1872 1749 1784 1788 1833 1828 1836 1847 1823 1941 1786 1757 1861 1750 1859 1876 1741 1830 1862 1803 1859 1823 1834 1803 1881 1797 1870 1825 1823 1779 1888 1813 1769 1794 1810 1835 1811 1840 1782 1830 1831 1842 1868 1818 1782 1852 1805 1807 1771 1808 1850 1830 1774 1840 1819 1882 1774 1850 1847 1802 1803 1834 1813 1832 1763 1850 1848 1888 1810 1768 1765 1916 1852 1839 1761 1798 1859 1785 1846 1846 1829 1843 1754 1861 1856 1838 1859 1816 1918 1908 1867 1858 1785 1868 1832 1872 1910 1818 1872 1953 1855 1829 1854 1892 1789 1901 1822 1920 1854 1829 1929 1885 1884 1820 1810 1800 1845 1882 1838 1896 1854 1838 1790 1804 1862 1861 1772 1810 1798 1848 1839 1765 1833 1795 1771 1882 1863 1780 1845 1898 1803 1858 1805 1915 1757 1810 1769 1771 1766 1762 1825 1816 1754 1829 1826 1756 1849 1759 1791 1760 1754 1894 1806 1752 1832 1784 1787 1752 1899 1782 1784 1803 1713 1757 1719 1761 1758 1725 1769 1794 1810 1709 1792 1789 1817 1750 1868 1793 1866 1859 1796 1755 1847 1770 1793 1792 1859 1707 1688 1732 1765 1718 1811 1718 1737 1782 1650 1696 1701 1684 1728 1715 1707 1644 1713 1674 1672 1654 1725 1656 1699 1678 1694 1632 1691 1649 1625 1629 1672 1601 1651 1662 1657 1558 1661 1553 1575 1659 1582 1637 1675 1620 1600 1587 1628 1579 1665 1635 1617 1671 1555 1611 1555 1591 1588 1602 1572 1599 1617 1500 1533 1662 1555 1572 1657 1561 1577 1559 1609 1563 1514 1544 1601 1535 1582 1578 1533 1545 1606 1488 1520 1581 1585 1535 1532 1512 1563 1565 1562 1466 1592 1504 1462 1520 1521 1525 1517 1564 1554 1515 1592 1601 1602 1547 1577 1473 1529 1474 1494 1527 1570 1606 1602 1564 1612 1635 1646 1708 1661 1679 1725 1628 1817 1785 1912 1933 2026 2149 2210 2271 2368 2560 2664 2857 2824 3117 3313 3397 3532 3637 3633 3638 3669 3563 3557 3462 3300 3331 2969 2812 2912 2584 2453 2366 2200 2149 2062 2004 1956 1835 1744 1807 1669 1588 1656 1630 1625 1530 1504 1512 1559 1497 1523 1559 1566 1458 1544 1472 1548 1510 1449 1488 1578 1496 1436 1551 1493 1503 1510 1416 1438 1518 1412 1494 1487 1490 1522 1481 1458 1460 1504 1363 1484 1509 1525 1516 1539 1471 1530 1512 1531 1533 1577 1592 1490 1551 1621 1601 1571 1640 1592 1526 1610 1614 1717 1609 1660 1664 1751 1781 1751 1828 1831 1949 1949 2157 2185 2313 2497 2728 2868 3110 3291 3709 4056 4504 4969 5438 6029 6843 7430 8460 9081 9993 10908 11852 12814 13346 13800 14216 14296 14052 13924 13415 12779 12009 11491 10489 9935 8891 8129 7203 6604 5915 5296 4777 4421 4105 4103 3854 3917 3831 3863 3899 4085 4372 4432 4567 4858 4968 5060 5234 5240 5300 5272 5120 5142 5031 4675 4429 4252 4038 3809 3562 3280 3114 2926 2695 2445 2279 2119 2031 1857 1756 1649 1552 1599 1514 1497 1496 1423 1419 1406 1362 1424 1393 1254 1406 1401 1317 1313 1324 1280 1287 1373 1291 1305 1254 1202 1342 1289 1292 1303 1254 1267 1304 1266 1189 1247 1251 1262 1166 1240 1199 1323 1312 1204 1223 1220 1237 1235 1212 1283 1208 1241 1197 1207 1201 1253 1193 1190 1282 1278 1278 1203 1170 1202 1226 1243 1282 1220 1202 1126 1253 1210 1214 1182 1202 1240 1197 1178 1162 1179 1188 1243 1226 1153 1143 1168 1184 1160 1163 1137 1171 1251 1247 1177 1225 1143 1220 1179 1123 1204 1208 1205 1167 1115 1162 1178 1157 1234 1102 1140 1133 1158 1176 1074 1142 1112 1122 1132 1162 1148 1177 1113 1119 1126 1215 1117 1099 1167 1150 1118 1155 1127 1094 1158 1174 1104 1159 1139 1164 1136 1131 1149 1137 1157 1132 1122 1123 1119 1110 1177 1155 1084 1110 1063 1099 1108 1153 1107 1112 1094 1110 1140 1116 1192 1071 1129 1161 1093 1179 1193 1132 1197 1152 1136 1139 1093 1175 1158 1182 1147 1098 1077 1189 1112 1130 1099 1079 1103 1117 1213 1096 1125 1132 1103 1148 1160 1169 1176 1171 1121 1104 1114 1070 1091 1104 1101 1100 1093 1100 1127 1113 1080 1114 1139 1089 1031 1094 1072 1096 1012 1070 1039 1123 1045 1084 1096 1030 1045 1064 1099 1073 1110 1044 1006 1070 1066 1094 1001 1085 1112 1052 1073 1023 1096 1073 1066 1070 1105 1049 1054 1111 1062 1068 1028 1054 1066 1076 1040 1030 1110 1086 1062 1043 1075 1019 1127 1077 1022 1094 1062 1077 1019 1095 1080 1109 1085 1016 1161 1062 1105 1053 1131 1148 1142 1160 1087 1088 1078 1041 1094 1096 1075 1124 1133 1202 1070 1094 1111 1103 1086 1102 1105 1122 1137 1091 1115 1129 1147 1127 1113 1134 1164 1061 1150 1129 1168 1120 1090 1054 1100 1127 1060 1216 1154 1221 1196 1156 1195 1204 1087 1134 1132 1207 1183 1197 1205 1183 1191 1217 1211 1284 1205 1241 1223 1206 1275 1294 1248 1240 1353 1316 1366 1360 1380 1470 1472 1494 1683 1732 1797 1876 2015 2266 2430 2644 2855 3183 3438 3908 4208 4822 5270 5935 6712 7221 7684 8434 9031 9752 10263 10791 11007 10799 10826 10783 10425 10131 9410 9086 8281 8009 7469 6810 6128 5591 5018 4736 4091 3796 3435 3138 3007 2909 2719 2595 2614 2594 2605 2556 2768 2852 2896 3053 3152 3304 3476 3558 3664 3893 3904 4000 3941 3921 4029 3790 3744 3650 3540 3350 3257 3093 2932 2708 2630 2347 2222 2052 1979 1947 1705 1662 1575 1524 1416 1381 1319 1340 1242 1157 1183 1181 1144 1154 1203 1156 1101 1118 1096 1124 1141 1078 1053 1059 1078 1016 1041 996 1061 1055 1073 1011 999 1095 1062 1100 1076 1015 1048 1042 1019 1010 1061 985 992 1028 1012 1027 1045 981 1038 962 993 991 1051 1021 1030 1033 1025 1011 1017 980 966 936 959 1005 1016 1038 1023 963 951 984 989 978 928 982 945 995 924 890 969 1000 994 955 964 976 988 927 1004 1018 956 924 964 1009 938 1022 997 997 972 981 886 965 954 955 1006 992 985 980 949 968 1003 967 990 1044 990 960 990 997 990 1015 998 938 953 890 940 1013 938 948 1060 895 969 933 970 1006 956 954 971 906 981 960 942 985 896 927 1020 931 969 925 895 947 1002 982 952 935 928 952 960 922 898 915 954 923 896 901 925 931 959 930 913 973 969 975 968 930 962 941 985 986 956 958 949 968 897 913 907 946 954 963 938 969 928 986 959 922 917 943 974 901 871 946 899 956 1023 947 948 907 914 983 897 976 921 898 930 944 894 931 907 971 936 1007 943 916 994 987 934 1015 1022 1065 1065 1020 1103 1054 1160 1096 1178 1132 1247 1158 1135 1110 1161 1175 1092 1080 1067 1076 1045 1085 998 1081 958 1029 999 1009 967 894 879 910 924 906 984 904 937 867 871 891 863 956 889 867 844 948 881 881 918 937 832 911 875 874 878 835 892 878 886 888 892 818 873 862 871 886 869 849 924 906 881 915 917 978 862 943 884 828 883 905 890 901 860 878 856 840 858 876 872 896 859 862 872 852 853 887 842 760 858 882 874 842 913 849 862 853 828 899 917 873 863 840 928 891 854 857 834 855 813 856 884 834 858 846 874 872 873 891 853 866 788 817 912 861 913 917 869 860 831 837 882 831 802 822 837 796 857 836 843 861 866 842 793 879 845 832 839 825 826 881 805 805 868 830 866 862 868 843 855 815 869 853 816 839 798 849 851 864 855 871 839 874 803 847 844 809 857 824 807 845 841 774 841 833 831 849 857 874 867 894 844 867 841 858 837 744 830 878 801 856 819 795 840 837 818 829 812 858 842 824 880 879 863 834 841 814 858 819 853 776 814 824 851 832 894 780 823 861 783 843 847 809 791 814 842 862 813 835 820 833 819 849 793 865 804 834 833 813 842 831 854 827 800 748 807 846 866 861 782 815 834 815 804 819 821 829 870 873 896 851 854 788 849 818 867 878 851 796 799 866 812 810 857 860 823 809 876 840 818 844 848 757 893 866 826 847 876 837 876 775 829 879 819 859 903 846 873 843 871 907 860 817 879 812 843 871 906 859 858 875 823 854 845 821 813 832 838 780 808 830 825 788 811 837 825 813 818 870 869 842 805 790 809 837 827 836 792 853 883 828 790 868 827 819 775 818 838 790 761 830 822 764 786 772 813 794 783 839 813 831 793 860 794 797 761 795 810 812 814 803 866 811 814 840 746 775 858 839 804 797 799 841 791 853 808 819 849 803 792 790 857 861 833 808 826 795 779 828 815 809 788 803 762 767 750 769 764 814 819 804 841 770 758 796 847 777 799 818 817 818 809 829 816 840 874 885 896 837 894 869 877 969 1018 972 971 1061 1009 1047 1035 1103 1104 1083 1058 1044 1049 1016 972 986 978 969 990 976 934 953 894 902 860 890 838 839 846 825 787 777 798 774 809 800 835 838 850 759 849 802 848 775 820 811 861 813 831 726 808 803 807 782 830 843 848 821 845 787 797 796 831 797 772 796 803 802 794 844 792 783 837 848 774 859 817 815 788 816 785 761 815 836 793 762 798 768 816 864 804 811 785 849 793 823 798 767 735 762 785 780 735 816 820 777 809 804 804 810 842 797 784 805 806 819 832 757 817 795 837 785 823 796 811 811 807 765 822 784 815 747 788 793 744 806 764 743 810 772 787 791 777 789 765 806 821 814 785 763 791 820 818 769 772 700 823 768 794 772 716 803 799 810 796 823 835 797 785 769 788 778 812 808 828 748 775 794 774 805 812 731 811 818 843 771 845 786 789 826 802 831 791 798 834 762 748 803 839 777 750 768 822 825 814 815 763 771 793 820 817 798 718 807 773 745 785 838 815 833 801 810 838 844 804 795 863 815 772 818 860 833 865 945 863 930 883 913 913 956 998 1039 1046 1134 1250 1302 1353 1421 1559 1688 1844 1931 2074 2124 2191 2313 2395 2270 2404 2338 2316 2228 2137 2128 2071 1996 1893 1884 1824 1728 1646 1559 1407 1413 1288 1212 1135 1065 1063 1023 948 967 884 903 900 898 916 862 858 879 884 779 813 845 796 804 776 821 838 819 754 819 819 781 842 740 784 735 773 756 734 786 766 745 800 785 733 748 794 759 744 802 805 780 793 737 693 777 761 798 777 747 738 704 743 730 724 736 764 721 717 705 723 749 778 746 720 714 750 749 782 743 746 756 713 748 772 744 750 720 774 722 745 754 725 737 730 750 781 700 772 734 760 748 775 767 766 702 774 757 757 775 777 751 764 738 691 751 688 733 709 708 757 724 784 723 776 755 770 747 783 768 732 757 764 756 746 800 700 779 730 813 734 740 748 782 799 727 764 751 759 774 762 730 774 745 774 806 708 822 752 813 818 844 862 827 832 819 860 818 844 886 862 926 888 897 908 862 870 927 891 949 846 868 886 903 912 885 828 943 856 841 831 832 874 826 848 838 850 837 824 846 809 812 793 796 745 763 803 752 881 775 823 731 769 833 822 846 839 810 791 788 800 823 775 780 801 787 803 728 766 784 758 749 779 763 788 743 779 765 826 753 765 810 806 763 799 771 780 789 736 725 791 772 827 762 750 804 796 793 707 797 830 841 864 808 744 783 784 790 826 753 732 827 782 800 791 808 786 806 766 807 784 865 806 737 787 765 777 814 801 807 755 769 806 814 720 786 830 801 797 810 775 818 762 793 823 814 767 802 834 791 788 813 757 807 807 768 811 815 819 805 782 833 885 857 839 861 869 873 859 883 872 919 824 874 855 909 874 936 919 949 953 961 976 956 978 921 1001 1077 1086 1080 1045 1116 1234 1210 1242 1309 1263 1418 1550 1580 1731 1809 2139 2367 2646 2957 3519 4004 4493 5022 5571 6442 6979 7566 8189 8481 8662 8943 8979 8915 8793 8308 8048 7924 7539 7225 6964 6803 6450 6065 5795 5280 4939 4498 4128 3721 3357 3032 2699 2448 2220 1994 1820 1651 1627 1584 1481 1399 1266 1306 1221 1239 1180 1166 1176 1187 1215 1158 1230 1286 1300 1322 1431 1390 1460 1551 1618 1663 1780 1864 2011 1945 2145 2181 2164 2171 2257 2207 2212 2164 2181 2066 2081 2003 1940 1893 1890 1756 1732 1682 1591 1594 1458 1399 1362 1333 1185 1211 1098 1066 1065 1037 957 931 923 901 928 843 844 814 856 863 841 779 851 838 799 790 789 786 765 795 785 793 798 815 716 776 745 747 790 733 764 742 718 729 733 784 712 753 718 741 752 782 736 742 799 764 697 749 724 701 736 766 780 734 757 690 723 710 721 713 729 670 710 726 811 739 701 739 688 766 723 730 710 772 768 722 744 718 721 741 750 742 757 757 756 717 717 715 758 719 731 711 783 686 681 738 755 683 739 705 718 743 773 709 746 749 789 734 747 714 731 680 699 758 710 721 716 739 731 696 684 714 711 753 764 756 748 758 762 783 782 804 789 799 862 819 865 860 781 790 843 779 843 868 793 770 762 791 797 823 754 793 731 764 751 759 745 776 729 713 736 679 705 718 710 752 743 670 700 754 693 693 739 730 684 702 683 776 714 752 695 698 676 698 659 674 695 682 691 715 730 690 674 678 691 742 670 706 724 694 716 701 712 723 739 688 703 683 703 723 726 713 694 701 681 648 700 660 695 752 703 718 756 720 682 709 686 762 654 701 737 740 682 605 698 692 723 681 767 657 721 683 674 654 666 638 687 677 714 725 657 648 653 684 696 675 718 665 668 694 681 673 670 663 671 687 693 662 692 667 699 687 710 662 680 697 663 657 606 710 713 673 743 714 672 694 689 651 690 690 652 677 635 688 694 655 646 675 652 679 690 663 662 676 656 736 703 681 661 623 635 650 695 680 688 671 649 652 640 674 651 616 681 683 707 668 669 682 682 735 693 672 655 657 635 698 695 664 644 708 707 658 666 661 677 622 676 663 657 671 665 699 680 645 688 651 693 685 683 671 691 677 665 633 681 658 691 640 666 679 677 716 631 682 675 703 655 658 629 682 658 638 631 641 629 607 682 613 700 624 633 659 718 708 690 694 702 696 607 628 682 664 641 682 674 681 662 710 673 654 646 698 651 663 667 632 673 677 673 658 697 686 664 659 636 668 643 645 651 618 641 630 629 633 637 664 658 640 734 690 627 753 668 686 604 698 630 650 630 640 629 662 707 630 655 659 642 670 629 667 649 712 633 641 624 631 647 626 627 667 697 694 687 699 622 660 655 648 656 630 644 626 639 677 737 655 717 710 720 658 731 707 744 680 738 749 731 706 720 769 730 729 780 715 696 668 775 677 782 654 761 723 700 726 718 728 747 778 748 712 782 735 740 707 703 685 758 648 728 724 719 727 718 685 697 704 707 680 703 681 711 675 671 682 698 650 669 662 644 674 666 670 692 688 654 680 671 651 677 658 676 675 675 684 704 647 653 630 634 654 622 653 635 647 682 624 627 673 662 671 662 678 611 686 662 619 622 588 616 641 692 663 637 670 702 688 617 641 708 655 645 620 643 641 635 642 635 661 660 638 641 664 624 659 627 666 624 619 670 639 632 684 669 651 686 644 660 656 657 637 683 630 613 597 653 659 656 676 671 645 599 681 628 666 662 703 648 663 677 645 662 666 648 674 678 651 694 634 660 626 672 607 605 639 668 689 621 663 616 658 658 639 644 672 642 677 659 684 634 612 668 625 677 620 662 674 651 699 680 643 664 685 708 745 667 730 704 766 802 786 812 846 802 779 812 832 803 779 804 779 780 777 778 815 747 801 743 780 714 697 730 772 687 734 719 664 700 758 728 706 758 747 720 755 708 614 684 726 759 724 737 809 733 768 735 747 792 812 825 817 854 896 905 933 937 1041 1091 1131 1349 1448 1551 1732 1809 2132 2187 2298 2580 2687 2764 2950 2995 2889 2874 2857 2775 2611 2535 2426 2358 2267 2271 2247 2232 2195 2102 2085 1981 1874 1766 1701 1592 1542 1400 1277 1223 1160 1125 1028 979 937 974 837 835 815 875 822 787 758 755 806 753 813 739 766 773 754 789 789 762 747 801 765 824 830 865 863 868 895 922 1006 960 1032 1050 1140 1127 1147 1222 1211 1360 1277 1333 1394 1306 1378 1403 1347 1317 1355 1339 1293 1302 1242 1211 1203 1139 1116 1071 1088 1089 1045 1058 1002 979 991 899 906 868 857 838 803 765 794 751 754 748 738 702 709 717 655 664 655 707 695 650 690 661 677 679 668 620 609 689 651 691 668 629 621 643 645 665 630 625 657 607 669 641 624 653 634 630 633 628 610 619 646 646 678 610 600 654 609 575 639 640 649 663 616 637 615 614 628 626 614 650 595 639 619 593 605 643 589 619 630 617 639 563 618 602 626 601 604 628 611 648 682 629 650 598 658 634 578 613 650 617 661 633 595 578 634 635 596 578 623 648 609 608 603 641 622 641 630 657 657 660 625 651 663 647 601 638 625 666 669 669 664 615 664 652 655 634 655 649 651 662 659 676 693 646 756 682 712 700 689 707 742 684 789 724 780 793 878 874 977 960 1051 1192 1215 1358 1409 1656 1681 1802 1912 2055 2062 2159 2145 2088 1975 1968 1911 1808 1737 1755 1641 1601 1593 1612 1533 1496 1550 1484 1468 1405 1422 1314 1214 1136 1082 954 986 970 918 864 808 788 779 749 754 702 697 684 620 712 666 703 729 673 620 680 716 662 651 642 634 706 690 692 688 676 634 688 656 725 694 767 738 737 732 749 807 745 853 857 925 897 890 938 913 956 1006 971 988 981 1006 955 975 984 939 904 912 936 916 817 866 900 893 842 829 812 822 738 772 764 699 709 717 722 703 660 671 702 706 636 616 639 619 611 611 595 615 586 581 609 575 599 608 608 642 648 601 624 559 575 593 592 599 573 632 589 602 595 579 582 566 604 601 607 615 588 563 609 624 604 581 626 612 589 564 617 606 581 626 564 598 615 627 565 596 552 583 588 587 584 606 633 577 646 559 596 621 597 602 592 572 600 589 650 652 630 688 703 654 768 710 736 820 798 767 872 818 840 789 785 781 773 785 704 794 740 684 709 704 711 704 653 690 716 665 702 632 659 655 683 615 633 609 651 589 616 617 571 632 574 555 587 593 575 583 574 601 580 613 579 562 593 621 567 590 588 556 638 589 543 594 611 557 555 521 590 538 585 612 532 569 547 573 585 580 560 574 610 596 563 575 537 591 588 604 544 609 535 578 545 577 593 585 606 591 587 574 565 616 603 599 533 575 534 555 552 591 560 566 540 614 593 560 592 621 588 564 537 575 604 595 533 584 583 572 572 555 561 594 494 514 577 565 590 592 567 582 559 560 541 517 547 589 585 575 545 575 574 576 605 587 564 582 620 602 578 572 583 545 551 541 548 562 570 532 546 561 551 558 564 532 575 556 531 571 532 561 548 584 600 545 564 598 558 587 558 530 547 511 559 582 574 604 526 570 528 517 528 557 565 573 549 567 577 596 564 594 548 539 560 556 558 548 538 555 588 517 550 562 595 587 514 568 533 548 577 549 537 556 554 570 541 547 578 561 533 558 568 569 528 552 524 582 553 528 598 554 546 531 564 556 561 560 540 555 560 517 539 544 573 557 541 574 547 511 510 560 533 520 556 528 534 503 569 567 545 522 557 546 540 568 581 533 579 527 551 498 563 539 525 563 577 527 538 554 536 548 545 545 551 519 562 548 582 559 567 602 533 582 564 530 543 601 568 610 572 579 600 667 635 650 674 641 659 683 612 638 624 602 573 617 615 645 608 564 633 602 615 646 610 612 607 612 592 599 624 592 544 578 576 576 568 619 577 520 520 536 532 554 554 550 505 562 543 549 568 527 599 543 538 546 540 513 546 537 588 565 534 531 532 525 550 561 549 534 523 498 577 573 551 560 556 514 563 591 577 525 495 563 574 542 570 537 542 518 532 531 553 587 560 531 514 543 542 550 569 532 535 528 553 523 527 511 539 523 530 543 543 539 525 531 560 558 536 548 515 557 510 561 571 524 568 560 505 593 527 560 555 532 563 549 532 523 525 515 514 533 550 535 538 538 522 534 529 541 531 533 492 561 523 544 558 544 548 558 560 566 556 574 542 555 538 572 501 550 569 585 571 574 561 553 584 565 608 582 588 621 626 593 654 668 687 721 735 773 735 814 861 793 802 777 823 783 837 778 734 744 714 694 744 674 674 707 702 678 664 714 753 696 732 700 679 697 659 641 638 618 605 581 590 608 589 556 574 567 542 572 531 544 606 520 582 584 591 516 535 560 581 552 573 552 562 560 597 541 522 539 531 564 561 548 533 513 547 527 550 557 567 507 507 564 520 543 537 525 540 561 533 547 536 525 569 547 515 547 536 568 476 576 534 505 500 554 573 530 569 519 528 474 599 536 540 580 523 561 540 534 525 519 506 536 521 537 569 503 493 525 549 538 517 540 490 519 524 510 603 514 504 533 542 535 510 567 506 536 536 558 543 531 562 550 519 586 531 552 524 523 513 537 521 562 528 553 536 543 508 492 514 536 541 502 538 507 526 555 548 489 554 530 561 549 528 531 556 520 529 538 506 520 543 534 560 510 541 539 520 537 544 541 480 547 513 536 495 495 490 495 517 481 527 558 530 528 499 575 509 522 514 547 502 460 517 536 529 488 576 552 575 508 559 512 537 578 568 497 511 510 506 552 550 521 520 561 510 530 526 532 519 528 537 534 520 553 497 573 557 508 533 498 538 493 542 579 521 533 535 502 552 558 567 560 593 542 552 546 637 566 517 539 597 547 560 559 605 554 574 595 577 582 603 579 620 613 629 604 623 616 621 661 680 688 734 729 736 795 855 874 938 998 1024 1107 1058 1150 1143 1114 1158 1162 1154 1115 1131 1045 1055 1005 1029 1025 964 934 923 976 925 943 944 936 927 926 898 884 896 874 841 770 783 751 742 783 679 732 655 659 595 617 667 653 619 581 579 559 565 601 589 569 565 585 602 550 545 531 560 520 580 517 573 539 539 549 513 557 542 619 581 564 574 552 518 528 570 530 584 567 576 555 559 586 577 583 561 606 603 596 608 659 555 660 540 638 577 678 634 633 621 690 566 640 624 654 614 621 626 616 646 599 677 631 592 649 654 577 601 637 608 585 605 601 553 545 603 568 597 559 573 596 584 552 547 532 556 569 534 563 515 551 495 520 495 513 521 554 519 521 559 516 531 519 523 521 489 509 512 559 533 565 536 556 529 522 548 582 541 565 533 557 529 576 591 519 552 591 567 571 560 592 611 649 653 604 599 559 616 586 571 590 552 552 576 579 589 597 575 601 611 560 559 585 566 587 571 549 546 537 557 523 500 545 549 569 520 521 551 522 487 521 459 525 474 493 470 542 565 523 504 552 546 500 486 565 508 538 545 510 519 543 497 488 503 503 471 565 562 514 524 555 537 523 510 501 516 543 518 502 524 494 502 535 495 500 513 499 539 476 480 506 500 548 530 516 494 490 485 516 510 529 526 467 557 508 520 536 465 495 493 516 506 521 484 528 508 536 491 542 486 487 493 527 519 513 531 492 500 527 521 543 506 541 544 547 535 471 475 515 559 501 553 543 525 524 502 486 534 544 520 469 485 499 538 548 526 561 459 487 517 550 554 474 559 497 526 555 513 577 476 539 512 537 468 543 519 503 541 535 533 539 487 545 559 511 527 532 556 501 484 519 551 562 546 507 564 500 554 583 516 512 495 484 511 523 514 544 531 500 519 501 542 514 484 524 533 551 552 537 531 510 477 500 530 528 541 562 503 524 569 554 523 509 513 530 534 528 506 534 534 496 490 573 505 489 492 487 524 534 507 502 534 502 517 488 499 522 514 475 574 482 551 468 507 466 490 500 510 507 516 532 509 542 491 491 506 554 496 520 493 547 538 535 511 532 521 524 509 512 534 554 488 547 552 562 540 562 566 589 580 561 583 531 596 530 561 543 539 538 538 517 533 562 524 523 550 578 529 481 513 524 513 562 548 569 559 517 544 541 554 543 563 509 536 537 500 547 550 489 569 490 522 525 524 479 512 534 541 525 489 538 539 528 492 496 538 526 505 495 495 518 486 525 513 491 503 516 522 518 509 470 495 482 465 473 534 476 496 515 488 500 531 508 488 518 524 508 521 512 546 509 487 535 468 498 526 509 526 505 534 571 486 515 524 525 532 498 550 547 543 545 530 528 493 509 532 541 534 537 524 544 512 498 583 465 525 509 532 540 544 529 512 526 536 500 551 537 569 554 557 505 552 527 557 512 529 527 542 539 529 555 534 528 514 510 535 502 523 529 555 560 537 560 557 542 573 582 571 634 560 629 589 680 636 652 653 701 722 730 714 715 737 702 684 662 651 633 642 641 649 672 633 596 622 652 611 627 609 625 634 657 638 672 640 596 646 596 616 613 576 620 606 585 615 627 589 589 649 661 582 634 652 648 646 700 675 713 755 811 853 961 964 1021 1074 1075 1090 1156 1221 1094 1163 1123 1059 1080 1022 1024 927 924 888 906 846 814 838 818 952 852 888 927 888 912 884 880 911 849 852 861 765 792 764 769 718 639 657 631 666 646 658 656 628 607 601 569 566 526 582 573 551 540 584 523 555 622 598 574 588 598 568 543 523 541 486 582 585 552 549 500 557 525 543 502 560 568 584 553 493 556 573 568 539 553 571 597 585 576 527 584 543 566 614 629 626 657 626 623 621 648 664 668 632 667 656 682 729 711 734 729 697 770 750 721 761 716 723 729 721 657 681 711 695 690 702 675 653 686 677 635 654 671 657 670 641 631 634 667 644 646 648 679 584 599 576 554 572 587 578 580 600 575 573 590 552 548 539 584 574 549 519 551 551 570 547 530 589 531 539 533 576 517 522 527 528 495 540 506 607 554 545 586 543 555 570 617 563 565 556 568 574 578 555 519 573 534 609 599 600 598 582 555 603 574 598 590 546 607 577 634 646 651 593 605 691 664 635 690 731 766 794 810 872 852 951 955 1086 1107 1151 1308 1329 1434 1509 1558 1596 1638 1552 1540 1596 1461 1439 1342 1375 1350 1236 1208 1192 1107 1107 1124 1036 1086 1071 1146 1167 1194 1151 1182 1207 1201 1189 1112 1069 1043 1071 972 943 909 832 766 767 725 725 691 711 650 673 669 687 685 628 607 591 607 620 640 570 636 568 620 596 562 610 561 580 544 539 572 543 562 570 593 568 576 535 570 586 539 561 569 600 608 578 565 570 596 585 544 601 603 626 588 646 568 620 601 538 600 604 615 560 669 594 634 684 689 653 680 713 719 707 714 739 707 703 710 756 747 770 771 803 737 781 806 784 832 779 816 751 771 752 688 798 746 722 794 699 674 706 709 713 720 655 678 698 656 695 670 656 666 637 632 652 586 592 642 620 567 550 622 574 586 584 549 563 548 561 611 561 575 549 549 570 607 605 598 620 595 603 576 594 633 621 605 598 610 564 581 605 536 527 609 599 565 563 509 540 583 553 563 552 597 580 607 539 536 561 529 613 525 546 554 560 500 545 504 508 554 562 519 533 564 517 542 522 486 516 556 499 496 527 536 528 560 555 543 475 518 486 522 542 518 502 538 554 518 517 516 528 491 499 491 493 502 552 488 501 549 547 564 530 549 526 497 482 523 517 526 505 514 513 505 543 509 500 495 523 550 505 482 507 524 508 495 536 518 503 533 475 524 507 492 524 510 535 492 475 490 496 538 500 559 514 508 518 529 503 556 477 489 521 504 494 483 522 489 493 516 536 498 499 498 513 521 485 469 496 493 517 505 499 525 547 521 468 499 545 539 508 473 551 510 511 520 526 474 512 560 543 508 542 524 514 539 483 486 535 455 516 491 510 513 511 511 498 506 513 503 494 495 493 481 535 515 501 511 485 523 490 518 523 479 508 521 484 451 471 483 503 494 498 511 528 557 514 503 500 518 546 524 512 514 479 492 549 460 504 508 516 528 489 494 494 500 454 515 461 483 507 501 503 508 489 509 497 521 509 527 480 512 534 479 529 518 466 513 472 467 503 495 462 515 502 569 494 496 511 498 502 488 490 521 487 485 517 494 510 508 522 503 505 505 504 529 439 518 476 536 526 517 514 561 495 492 536 538 506 518 504 493 555 509 496 490 522 538 521 520 513 478 535 521 489 551 479 489 519 505 486 518 495 532 516 522 484 500 531 503 534 508 557 527 482 485 527 509 508 474 498 506 501 480 510 506 459 493 523 446 469 525 472 546 485 532 484 498 490 484 474 513 495 490 511 510 525 473 513 477 518 483 522 499 515 501 487 537 484 472 510 516 515 507 473 515 471 515 500 525 521 514 525 500 525 525 506 510 498 521 511 505 487 514 532 511 495 517 544 487 539 469 501 539 496 486 511 530 529 547 492 527 485 504 516 502 499 484 491 537 533 522 516 542 554 536 487 528 486 528 526 501 533 472 527 526 462 512 507 480 523 581 529 562 585 611 575 584 599 683 653 643 657 636 630 699 676 620 618 622 603 615 624 617 608 624 573 578 532 574 555 593 556 597 585 581 580 585 654 593 593 601 565 579 567 533 591 542 523 469 544 520 550 514 536 569 511 553 537 479 495 550 494 555 494 494 497 490 486 536 539 450 521 474 515 518 480 516 491 508 495 454 561 494 527 503 536 499 504 546 483 544 491 510 505 480 469 510 500 484 546 516 507 534 492 554 536 470 491 487 499 510 520 507 526 492 471 550 529 499 524 477 519 495 488 479 538 486 508 483 498 514 503 477 477 561 547 556 521 506 490 500 539 449 483 495 471 481 457 504 499 479 471 533 463 558 526 551 480 506 470 551 508 510 486 501 524 519 461 474 524 488 505 481 490 524 504 503 531 507 539 502 484 500 517 464 524 473 501 436 515 541 489 521 516 506 527 494 509 514 486 519 539 506 540 477 504 480 495 512 550 564 523 478 512 486 502 516 517 493 526 504 525 524 543 548 526 464 506 482 509 509 493 500 507 522 511 499 525 542 548 554 529 508 503 563 513 538 494 585 518 524 527 546 489 515 570 568 570 546 582 572 567 528 583 552 543 562 522 564 530 560 529 560 653 555 642 630 628 653 590 655 669 653 628 668 706 741 741 770 885 893 873 1055 1016 1089 1194 1341 1251 1512 1507 1591 1529 1542 1533 1532 1512 1417 1404 1318 1393 1180 1199 1058 1059 984 1092 993 953 981 922 879 940 992 992 1093 1110 1085 1120 1162 1122 1116 1052 1033 1047 1040 966 917 865 872 807 785 786 701 725 724 651 694 647 612 566 633 573 578 567 567 611 603 585 601 562 596 576 581 537 530 566 527 552 544 529 534 502 569 565 512 546 543 535 508 554 572 501 485 514 505 530 530 536 500 531 541 536 541 536 523 557 522 497 548 501 525 519 502 528 524 530 563 542 514 567 556 532 544 565 524 574 594 579 577 592 629 578 600 640 602 640 597 629 653 621 633 662 650 684 683 669 678 674 651 758 712 671 717 712 678 711 663 717 665 630 657 594 549 637 675 577 616 627 608 614 653 615 651 644 638 650 635 662 661 640 657 681 620 620 643 645 644 656 636 585 639 580 577 579 609 492 606 559 577 548 570 561 564 566 501 537 533 535 564 552 546 566 539 533 560 565 565 553 545 561 542 551 537 533 521 558 468 514 477 505 530 516 531 501 505 545 531 521 519 495 507 510 476 550 519 504 472 481 484 513 532 462 516 493 523 501 498 478 509 527 511 504 503 472 503 532 480 496 491 497 485 458 479 474 498 477 479 484 466 489 487 527 477 475 469 494 508 532 481 539 473 482 501 515 520 481 455 503 494 488 521 510 500 462 456 480 506 494 519 513 476 485 515 471 470 475 504 497 492 505 487 483 511 508 476 448 496 472 495 475 483 487 497 456 492 495 556 508 453 501 535 472 472 511 540 493 492 487 502 494 522 508 459 499 462 471 452 456 483 488 469 519 489 489 534 487 495 498 467 480 519 514 509 484 477 508 490 514 479 523 436 486 463 448 493 488 510 494 431 525 505 496 519 483 489 464 498 469 466 487 472 468 471 476 461 468 487 478 476 448 497 503 453 500 497 447 505 456 456 509 502 512 482 488 467 495 457 471 505 504 514 493 497 462 482 438 476 488 484 449 493 521 528 497 486 462 470 474 470 518 500 464 458 517 485 496 528 479 482 485 480 523 453 483 503 502 492 474 471 483 506 502 467 531 512 536 473 506 517 479 515 487 471 482 548 515 525 479 502 500 489 479 518 480 494 505 497 475 504 551 510 499 486 488 490 472 486 507 537 468 539 490 517 516 520 490 494 504 485 530 480 467 477 492 509 468 489 527 483 490 467 503 496 491 457 514 449 511 467 512 526 491 464 480 473 456 501 477 489 527 494 483 509 496 457 498 492 522 472 472 481 488 463 465 541 501 467 507 550 478 485 505 513 469 518 450 436 452 472 476 528 503 572 456 500 517 488 517 482 509 509 483 502 529 478 477 484 516 518 478 532 484 523 439 472 483 478 480 501 523 509 501 501 534 502 534 503 516 489 528 463 536 527 553 577 517 515 521 514 536 520 537 508 533 549 547 550 640 578 602 612 669 665 675 698 668 745 687 797 786 737 778 766 783 753 751 729 713 708 717 681 680 623 642 632 655</counts>
			</dataPoints>
		</scan>
	</xrdMeasurement>
</xrdMeasurements>
