<?xml version="1.0"?>
<xrdMeasurements xmlns="http://www.xrdml.com/XRDMeasurement/2.3" xmlns:xsi="http://www.w3.org/2001/XMLSchema-instance" xsi:schemaLocation="http://www.xrdml.com/XRDMeasurement/2.3 http://www.xrdml.com/XRDMeasurement/2.3/XRDMeasurement.xsd" status="Completed" recordIdentifier="{77FC5112-F674-4E7D-A1EB-0D289E27CE8E}">
	<comment>
		<entry/>
	</comment>
	<sample type="To be analyzed">
		<id>GPSS_Li2Co0p4Fe0p2Ni0p4Cl4_102025_68f7253b028f64128e25d092</id>
		<name></name>
		<preparedBy></preparedBy>
	</sample>
	<xrdMeasurement measurementType="Scan" status="Completed" sampleMode="Reflection">
		<usedWavelength intended="K-Alpha 1">
			<kAlpha1 unit="Angstrom">1.5405980</kAlpha1>
			<kAlpha2 unit="Angstrom">1.5444260</kAlpha2>
			<kBeta unit="Angstrom">1.3922500</kBeta>
			<ratioKAlpha2KAlpha1>0.5000</ratioKAlpha2KAlpha1>
		</usedWavelength>
		<incidentBeamPath>
			<radius unit="mm">145.00</radius>
			<xRayTube id="1010048" name="Empyrean Cu LFF HR (9430 033 7310x)">
				<tension unit="kV">40.0</tension>
				<current unit="mA">15.0</current>
				<anodeMaterial>Cu</anodeMaterial>
				<focus type="Line">
					<length unit="mm">12.0</length>
					<width unit="mm">0.4</width>
					<takeOffAngle unit="deg">6.0</takeOffAngle>
				</focus>
			</xRayTube>
			<sollerSlit id="21010002" name="Soller slits 0.04 rad.">
				<opening unit="rad">0.0400</opening>
			</sollerSlit>
			<mask id="22031000" name="Fixed mask 13 mm">
				<width unit="mm">9.00</width>
			</mask>
			<divergenceSlit id="22120001" name="Divergence slit 1°" xsi:type="fixedDivergenceSlitType">
				<distanceToSample unit="mm">50.00</distanceToSample>
				<height unit="mm">1.52</height>
			</divergenceSlit>
		</incidentBeamPath>
		<sampleMovement xsi:type="spinningSampleMovementType">
			<spinnerRevolutionTime unit="seconds">1.0</spinnerRevolutionTime>
		</sampleMovement>
		<diffractedBeamPath>
			<radius unit="mm">145.00</radius>
			<antiScatterSlit id="22090040" name="AS slit 9 mm (PIXcel)" xsi:type="fixedAntiScatterSlitType">
				<height unit="mm">9.00</height>
			</antiScatterSlit>
			<sollerSlit id="21020003" name="Large Soller slits 0.04 rad.">
				<opening unit="rad">0.0400</opening>
			</sollerSlit>
			<filter id="20030001" name="Large beta-filter Nickel">
				<material>Ni</material>
				<thickness unit="mm">0.020</thickness>
			</filter>
			<detector id="7010019" name="PIXcel1D-Medipix3 detector" xsi:type="rtmsDetectorType">
				<phd unit="keV">
					<lowerLevel>4.02</lowerLevel>
					<upperLevel>11.27</upperLevel>
				</phd>
				<mode>Scanning</mode>
				<activeLength unit="deg">5.542</activeLength>
			</detector>
		</diffractedBeamPath>
		<scan appendNumber="0" mode="Continuous" scanAxis="Gonio" status="Completed">
			<header>
				<startTimeStamp>2025-10-26T16:28:46-07:00</startTimeStamp>
				<endTimeStamp>2025-10-26T16:36:53-07:00</endTimeStamp>
				<author>
					<name>AutomatedUser</name>
				</author>
				<source>
					<applicationSoftware version="1.7b (136)">PANalytical Aeris Instrument Suite</applicationSoftware>
					<instrumentControlSoftware version="3.2.00000000 20240306">AERIS</instrumentControlSoftware>
					<instrumentID>950485</instrumentID>
				</source>
			</header>
			<dataPoints>
				<positions axis="2Theta" unit="deg">
					<startPosition>10.00943322</startPosition>
					<endPosition>99.99442286</endPosition>
				</positions>
				<positions axis="Omega" unit="deg">
					<startPosition>5.00471661</startPosition>
					<endPosition>49.99721143</endPosition>
				</positions>
				<commonCountingTime unit="seconds">12.495</commonCountingTime>
				<counts unit="counts">2871 2762 2839 2899 2958 2852 2893 2862 2805 2865 2884 2850 2825 2884 2807 2813 2771 2907 2838 2839 2726 2925 2850 2885 2854 2808 2821 2813 2762 2885 2948 2820 2891 2840 2825 2811 2852 2862 2836 2772 2871 2846 2884 2831 2768 2919 2795 2828 2824 2776 2842 2778 2780 2799 2801 2745 2924 2804 2850 2858 2833 2819 2800 2867 2719 2860 2879 2892 2703 2802 2796 2838 2849 2867 2859 2849 2826 2859 2820 2902 2793 2894 2773 2834 2774 2923 2891 2843 2898 2740 2827 2815 2749 2847 2783 2912 2844 2839 2909 2781 2884 2864 2826 2779 2806 2764 2814 2834 2818 2799 2779 2880 2810 2686 2777 2780 2784 2794 2795 2827 2753 2785 2823 2777 2787 2741 2867 2791 2847 2785 2880 2780 2896 2733 2841 2897 2714 2847 2838 2710 2963 2842 2757 2761 2809 2751 2740 2838 2647 2873 2807 2750 2777 2816 2704 2884 2786 2825 2777 2759 2730 2789 2795 2823 2748 2740 2730 2778 2709 2768 2718 2803 2733 2801 2813 2675 2737 2699 2856 2744 2742 2811 2770 2749 2774 2692 2763 2705 2863 2701 2705 2692 2663 2548 2752 2671 2655 2684 2690 2642 2621 2635 2685 2645 2639 2670 2733 2740 2775 2674 2733 2749 2668 2648 2650 2653 2599 2655 2637 2626 2715 2635 2672 2730 2688 2664 2682 2675 2699 2686 2599 2608 2680 2583 2600 2611 2633 2606 2634 2669 2617 2556 2567 2606 2668 2631 2560 2567 2592 2550 2491 2495 2609 2597 2546 2567 2678 2519 2575 2473 2546 2532 2579 2615 2581 2537 2542 2637 2558 2524 2599 2488 2492 2549 2551 2504 2520 2499 2567 2472 2538 2474 2630 2499 2524 2492 2456 2582 2436 2540 2422 2590 2505 2482 2457 2521 2513 2386 2534 2408 2472 2543 2449 2496 2470 2585 2474 2512 2616 2552 2525 2403 2386 2453 2461 2382 2450 2449 2428 2391 2414 2340 2387 2419 2434 2442 2470 2438 2411 2465 2391 2363 2448 2383 2452 2433 2336 2395 2347 2457 2447 2374 2445 2393 2429 2439 2363 2451 2377 2259 2486 2375 2392 2277 2406 2441 2355 2419 2285 2427 2467 2408 2344 2386 2430 2446 2311 2300 2309 2378 2322 2304 2278 2304 2367 2421 2370 2261 2347 2308 2263 2372 2308 2317 2389 2441 2375 2234 2292 2319 2410 2369 2365 2334 2339 2366 2419 2244 2406 2316 2412 2324 2435 2379 2372 2348 2398 2328 2322 2392 2403 2345 2386 2363 2408 2329 2411 2363 2442 2463 2409 2427 2431 2412 2421 2442 2451 2489 2479 2514 2610 2549 2585 2547 2672 2554 2673 2698 2662 2726 2735 2629 2747 2762 2792 2883 2812 2829 2840 2833 2875 3075 2977 2937 2940 2896 2937 2909 2901 2843 2994 2904 2980 2912 3043 3062 3021 3018 3015 3120 3244 3153 3221 3295 3259 3097 3198 3277 3230 3286 3212 3198 3223 3315 3307 3331 3280 3333 3266 3208 3157 3054 3010 2966 2879 2826 2843 2811 2785 2637 2693 2671 2720 2590 2568 2697 2509 2693 2578 2569 2518 2551 2493 2533 2488 2456 2470 2402 2460 2488 2478 2373 2379 2378 2452 2401 2420 2352 2352 2404 2448 2353 2353 2338 2446 2428 2331 2485 2403 2445 2480 2528 2390 2468 2428 2439 2476 2415 2471 2422 2523 2381 2411 2348 2426 2426 2303 2422 2428 2466 2288 2285 2357 2304 2364 2312 2391 2284 2319 2316 2253 2385 2397 2335 2266 2208 2253 2280 2238 2282 2291 2228 2214 2145 2290 2347 2340 2297 2205 2253 2225 2226 2189 2257 2337 2231 2309 2307 2243 2251 2265 2341 2288 2231 2273 2322 2270 2216 2223 2223 2249 2115 2270 2249 2151 2258 2189 2252 2205 2204 2164 2266 2250 2190 2235 2300 2130 2179 2097 2065 2154 2240 2185 2278 2199 2098 2179 2257 2162 2256 2287 2193 2236 2239 2171 2326 2240 2213 2175 2264 2217 2301 2314 2254 2268 2320 2287 2304 2296 2193 2300 2315 2262 2367 2327 2367 2245 2283 2256 2313 2279 2333 2291 2403 2301 2257 2289 2325 2294 2308 2207 2320 2311 2282 2278 2337 2354 2303 2275 2263 2380 2357 2407 2296 2250 2327 2325 2256 2229 2358 2281 2316 2270 2235 2237 2290 2358 2259 2187 2232 2273 2212 2187 2177 2150 2185 2159 2127 2207 2120 2109 2100 2112 2038 2132 2114 2162 2086 2056 2130 2096 2071 2081 2087 2172 2108 2222 2176 2157 2083 2091 2074 2034 2144 2143 2058 2072 2137 2108 2166 2048 2110 2003 2093 2032 2126 2139 2092 2127 2062 2099 2110 2071 2055 2101 2111 2073 2078 2096 2121 1994 2070 2091 2032 2079 2016 1982 2040 1983 2096 2166 2120 2008 2092 2090 2115 2107 2025 2075 1996 2038 2106 2100 2102 2077 2045 2035 2084 1990 2165 2087 1949 2029 2038 2073 2012 1974 2080 2054 2134 1989 2116 2095 2022 2089 2021 1990 2026 1946 2010 2079 2164 2062 2091 2025 2005 2046 2043 2095 2069 2065 1972 2086 2009 2052 2031 2010 2043 2063 2083 2059 2003 2040 2023 2129 2031 2031 2067 2025 2058 2061 2114 1997 1996 2047 2021 2036 2010 2046 2064 2099 2006 2022 2083 1990 1968 2031 2008 2000 1963 2071 1992 2052 1997 1981 2035 2031 2103 2063 2012 2108 1964 2086 2085 2049 2041 2053 2071 2037 2051 1928 2044 2031 2047 1966 2121 2002 2173 2030 1994 1998 2052 2054 2018 1968 2055 2075 1999 2053 1996 2019 2018 1954 2037 2024 1944 1961 1996 2046 1990 2033 2009 2056 2019 1993 1997 1974 2085 1945 2028 1984 1923 1983 2006 1919 1974 1945 1990 1940 2036 1959 2000 1978 1952 1998 2026 2082 2004 1968 1996 1959 2065 1932 1985 1958 2027 2067 1977 2069 2049 2023 1943 2090 2078 2034 2022 2049 1973 2037 2039 2038 2036 2097 2030 2018 2069 2047 2106 2081 2114 2101 2064 1970 2105 2099 2115 2066 1962 2044 2047 2001 2119 2026 2020 2016 2072 1959 2023 2005 2007 2061 1996 2004 2067 1996 1916 2066 2043 1952 2015 1997 2008 2057 2013 2011 1956 1935 2017 2016 1934 1943 1989 1939 1944 1961 1964 1967 2022 1945 1988 2020 2098 1963 1994 2014 2032 1999 2022 1980 2088 2023 2104 1899 2017 2008 2044 2013 1988 1922 2029 1932 2037 2015 2092 1981 1962 2025 1991 1971 1921 2003 1923 2041 1957 2005 1919 1907 1881 2108 1982 1974 1986 1929 1925 1945 1915 1967 2001 1947 1951 1930 1936 1946 2071 1885 1924 1981 1963 1902 1955 1960 1969 1947 1929 1924 1957 1946 1959 1998 2009 1897 1947 1947 1922 1972 2000 1994 1874 1979 1911 2012 1901 1980 2007 2051 1919 1988 1897 1992 2025 1968 1947 1991 1859 1939 1910 1963 1931 1962 1902 1942 1948 2025 1906 1916 1945 1959 1938 1957 1900 1936 1875 1945 1973 1929 1905 1931 2072 1987 1979 1938 1901 1956 2024 1975 1933 2006 1994 1948 2024 1941 1974 1930 1902 1931 1973 1976 1867 1920 1990 1910 1980 1935 1977 1981 1940 1909 1875 1933 1969 1959 1941 1879 1966 1919 1910 1907 1931 2003 1952 1931 1967 2010 2019 1973 1951 1934 1932 1935 1880 2045 1903 2033 1952 1976 1934 1984 2014 1874 1936 1961 1976 1930 1893 1999 1920 1970 1943 2034 1933 1962 1988 1916 1897 1899 1955 1972 1938 1939 1990 1912 2022 1966 1974 1982 1893 1870 2003 1957 2003 1992 1923 1948 2009 1900 1928 1977 1982 1875 1974 1929 2040 1895 1971 1989 1919 1976 1936 1957 1928 1894 1945 2035 1986 1943 1947 1946 2027 1991 1900 1941 1900 1916 1971 1874 2062 1964 1896 1917 1911 1923 1888 1930 1979 1920 1994 1953 1925 1981 2058 1992 1943 1917 1887 1929 1949 1946 1925 1974 1944 1943 1979 1932 1905 1911 1899 1918 1931 1865 1999 1897 1984 1990 1936 1938 1953 1921 1953 1950 1981 1942 1990 1992 1987 1992 1988 1909 1942 2002 1986 1993 1975 2045 1914 1998 2012 1978 2076 2004 1998 2027 1951 2010 2032 2023 2003 1974 1963 2070 1959 2038 2005 2113 1923 2037 2100 2003 2051 2102 2040 2080 2104 2053 2021 2097 2038 2021 2037 2064 1975 2126 2052 2078 2134 2078 2077 2102 2032 2027 2037 2006 2082 2077 1989 2118 2085 2061 2045 2064 2014 2049 1953 2061 1997 2081 1976 2043 2006 2040 2059 2040 1941 2011 1990 2051 2096 1933 2028 2077 2096 1983 1960 1977 1997 1879 1988 1992 1890 1971 1982 1996 1943 2027 1970 1976 1949 1869 1943 2039 1945 1916 1942 1959 1887 1942 1964 1917 1958 1996 1976 1912 1955 1906 1980 2014 1862 1951 1938 1902 1934 1864 1968 1966 1951 1931 2015 1931 1998 1964 1940 1981 1947 1931 1961 1962 1883 1948 2014 1912 1932 1892 1907 1903 1898 1938 1871 1942 1852 2020 1989 1909 1943 1987 1961 1920 2008 1932 1988 1934 1885 1943 1997 1982 1853 2013 1952 1920 2006 1947 1965 1946 1999 1875 1948 1912 1841 1872 1882 1930 1936 1884 1953 1904 1956 1935 1929 1978 1901 1873 1979 2069 1956 1864 1915 1997 1927 1855 1909 1927 1939 1886 1924 1955 1918 1861 1994 1924 1930 1883 1910 1952 1888 1961 1836 1943 1965 1931 1943 1948 1969 1971 1961 1865 1967 1963 1905 1892 1968 1987 1878 1994 1881 1940 1959 1904 1922 1958 1920 1891 1929 1874 2101 1850 1966 1937 1839 1847 1978 1929 1944 1902 1973 1896 2000 2006 1971 1917 1894 1874 1964 1964 1968 2004 1935 1962 1925 1875 1905 1885 1956 1908 1925 1935 1926 1919 1897 1886 1882 1907 1937 1958 1991 1924 2030 1972 1959 1901 1871 1844 1873 1879 1906 2002 2055 1925 1981 1963 1960 1880 2010 2000 1897 1975 1956 1928 1963 1914 1943 1881 1944 1929 1986 2008 1891 1940 1977 1988 1899 1920 1922 1962 1987 1842 2001 1850 1957 1903 1860 1956 1954 2004 2020 1967 1896 1940 1948 1978 1890 1972 1970 1928 1899 1927 1938 1893 1852 1988 1941 2030 1940 1964 1949 1887 1933 1899 1913 1934 1912 1947 1987 1889 2041 1850 1897 1929 1988 1947 1957 1926 1947 2117 1969 1980 1934 2048 1918 1898 2030 1941 1923 1950 1972 2001 2051 2040 1993 2076 2026 2164 1991 2005 2007 2017 2055 2001 2037 2103 2057 2020 2050 2048 2148 2083 2042 2113 2086 2088 2127 2034 2066 2023 2134 2057 2111 2194 2157 2185 2187 2110 2138 2246 2261 2259 2259 2282 2257 2252 2237 2236 2266 2260 2320 2328 2296 2294 2331 2326 2260 2296 2375 2373 2321 2325 2332 2361 2324 2265 2384 2261 2395 2318 2315 2286 2338 2242 2296 2376 2339 2407 2289 2367 2239 2314 2320 2290 2214 2207 2292 2243 2228 2296 2226 2259 2190 2278 2258 2126 2226 2194 2185 2092 2107 2194 2173 2072 2020 2089 2158 2164 2170 2070 2112 2057 2126 2205 2117 2127 2174 2189 2154 2098 2012 2089 2100 2106 2165 2239 2112 2147 2170 2210 2163 2084 2185 2229 2177 2183 2119 2235 2193 2262 2296 2316 2245 2221 2270 2331 2228 2311 2306 2442 2267 2458 2391 2404 2428 2512 2359 2388 2511 2424 2474 2459 2492 2580 2511 2538 2546 2606 2493 2546 2524 2553 2605 2615 2662 2511 2590 2502 2430 2444 2403 2513 2598 2481 2427 2566 2459 2434 2446 2426 2398 2366 2369 2408 2238 2369 2350 2372 2303 2347 2261 2270 2243 2185 2213 2243 2174 2160 2215 2136 2257 2095 2128 2084 2202 2158 2129 2068 2065 2127 2102 2088 2189 2043 2133 2046 2074 2036 2037 2164 2145 2065 2099 1999 2141 2080 2123 1998 2055 2086 2060 2085 2003 2094 2051 2123 2080 2024 2133 2153 2097 1976 2116 2003 2075 2034 2001 2084 2019 2039 1972 1964 2025 1957 2034 2037 2021 1882 1986 1940 1941 1990 2016 1989 2036 2123 1962 2028 2024 1943 2041 2005 2041 1973 1994 2072 1969 1941 1983 1989 2012 2084 1916 2029 1995 2038 1995 1972 1958 2023 1870 1976 2007 2011 2014 2020 1998 2028 1959 2048 1989 2044 1959 2018 2032 2026 2076 1970 2093 2037 2036 2059 2067 1960 2097 2000 2053 2019 1986 2036 1979 2029 2033 2132 2146 2079 2095 2138 2146 2178 2075 2062 2053 2096 2061 2069 2086 2115 2082 2178 2138 2103 2092 2112 2033 2071 2051 2098 2105 2069 2056 1980 2050 2031 2072 2135 2155 2108 2103 2118 2225 2140 2115 2113 2039 2160 2243 2172 2172 2139 2156 2116 2354 2224 2208 2193 2232 2227 2259 2231 2192 2232 2122 2238 2238 2210 2243 2183 2237 2249 2331 2313 2331 2349 2293 2246 2300 2352 2287 2228 2307 2228 2161 2292 2268 2292 2256 2318 2294 2240 2277 2261 2204 2347 2176 2364 2221 2289 2286 2192 2296 2136 2254 2188 2211 2209 2249 2217 2182 2311 2212 2201 2199 2207 2291 2238 2221 2181 2135 2151 2259 2130 2100 2132 2133 2218 2128 2249 2166 2184 2139 2272 2156 2241 2114 2154 2158 2177 2173 2191 2086 2107 2145 2142 2160 2193 2118 2215 2138 2134 2220 2259 2198 2151 2189 2183 2248 2196 2218 2205 2275 2123 2176 2206 2186 2230 2233 2284 2211 2191 2307 2246 2241 2251 2371 2248 2249 2224 2291 2219 2209 2245 2251 2346 2289 2199 2292 2256 2240 2245 2204 2265 2304 2253 2259 2309 2278 2372 2327 2267 2364 2327 2400 2315 2303 2388 2303 2310 2351 2350 2282 2309 2316 2394 2444 2356 2326 2333 2397 2523 2477 2461 2435 2542 2526 2415 2464 2598 2522 2553 2533 2561 2596 2607 2554 2518 2610 2681 2654 2693 2808 2826 2866 2782 2783 2771 2789 2861 2869 2878 2776 2910 2872 2877 2937 2937 2867 2898 3028 2899 2985 3123 2958 3212 3174 3309 3242 3321 3310 3314 3403 3348 3357 3598 3344 3513 3561 3555 3534 3556 3521 3686 3531 3666 3604 3675 3566 3659 3476 3699 3667 3612 3611 3569 3601 3514 3563 3563 3522 3633 3443 3402 3565 3459 3420 3435 3305 3381 3338 3210 3307 3144 3266 3025 3009 3095 3012 2903 2935 2829 2808 2743 2720 2743 2621 2574 2598 2518 2518 2465 2436 2391 2450 2366 2437 2299 2381 2230 2316 2363 2293 2204 2217 2171 2209 2107 2256 2199 2096 2156 2129 2149 2216 2063 2174 2132 2177 2218 2109 2173 2150 2116 2097 2129 2114 2108 2084 2068 2049 2103 2103 2245 2107 2086 2062 2116 2116 2092 2083 2136 2184 2064 2125 2011 2125 2064 2112 2034 2057 1971 2089 2018 2071 2029 2102 2039 1986 1949 2012 2020 2095 2047 2034 1983 1984 2012 2051 1928 1995 2031 1916 1956 2007 1922 1905 1927 1949 2012 1980 1932 2027 2013 1947 2000 2033 1965 1935 1980 1953 2073 1980 1961 1979 2010 1929 2007 1972 1941 1948 1900 1957 1920 1887 1941 1973 1914 1949 1901 1935 1963 1992 1933 2015 1919 1925 1983 1897 1951 2013 1945 1888 1987 2021 1917 1940 1906 1853 1982 1880 1925 1893 1942 1905 1971 1907 1895 1954 1969 2024 1945 1908 1971 1893 1885 1920 1960 1911 1991 1920 1857 1920 1883 2028 1942 1837 1905 1940 1984 1946 1982 2011 1895 1959 1893 1969 2004 2022 1961 1936 1910 1948 1968 1986 1936 1950 1957 1993 1923 1986 1948 2000 1946 1989 1944 2011 1967 1973 1877 1895 1950 1850 1944 1980 1890 1913 1930 1905 1935 1933 2021 1918 1894 2001 1970 1897 1919 1957 1929 1862 1949 2028 1956 2029 2009 1984 1945 1986 1925 1902 2015 1996 1924 1969 1881 1930 2018 1946 2038 1964 1927 2002 2102 1989 1969 1970 1932 1976 1976 1979 1944 2020 1981 1915 2026 2032 1915 1972 1982 1945 1956 2009 1947 1936 2040 2053 2000 1945 1930 1898 2020 1946 2056 2002 1957 2069 1967 1988 1924 1925 2048 1984 1924 1969 2043 1948 1929 1963 1985 2075 1911 2063 1963 2038 2036 1931 1965 1976 1937 1968 1994 1930 1932 1967 2036 1929 1918 1880 2016 1960 1975 1970 1907 1928 1964 1992 1922 1921 1885 1960 1945 2004 1979 1981 1988 1968 1990 2031 2075 1908 1970 2041 1982 1986 2048 1926 2033 2069 1872 1931 1977 1981 2044 2026 1971 1909 1912 1951 2041 1896 1949 1984 2014 1919 1924 1965 2054 1942 2000 2008 1970 1955 2048 1986 1912 1998 1953 2008 1989 1957 1947 1975 1933 1937 2067 1927 1937 1904 1852 1942 1890 1943 1942 2003 1895 2013 1898 1921 1918 1981 1910 1919 1997 1911 1983 1910 1930 1980 1899 1996 2020 1952 1897 1942 1847 1882 1897 1881 1870 1934 1924 1854 1935 1957 1889 1948 1909 1875 1913 1919 1905 1829 1906 1883 1918 1814 1919 1876 1938 1916 1953 1934 1841 1816 1872 1954 1919 1895 1891 1935 1879 1940 1974 1941 1884 1960 1922 1899 1957 1977 1943 1929 1963 1886 1843 1995 1962 1886 1902 1854 1997 1915 1831 1920 1911 1930 1963 1946 1916 1953 1859 1970 1998 1969 1929 1915 1968 1962 1934 1909 1913 1930 1973 1897 1905 2033 1898 2007 1974 2000 1982 1939 1877 1960 1947 1905 1964 1955 1988 1981 1933 1976 1952 1914 2005 1956 1926 1959 1970 1985 1925 1883 1882 1913 1916 1904 1901 2103 1898 1964 1917 1913 1994 2008 1941 1893 1909 1853 1907 1879 1890 1956 2034 1963 2001 1980 1982 2036 2004 1960 1976 1972 1973 1961 1969 1930 1895 1933 1913 1957 1903 1934 1905 1954 2011 1905 1906 1985 1905 1938 1903 2004 1952 1957 1897 1924 1961 1905 1975 1944 1917 1930 1957 1997 1945 1942 2019 1939 1951 1895 1980 1970 1975 2005 1866 1941 1965 1912 1936 1921 1898 1904 1947 1888 1967 1909 1930 1886 1907 1919 1877 1932 1906 1904 1935 1830 1849 1881 1929 1910 1851 1888 1934 1982 1908 1881 1942 1804 1939 1867 1831 1860 1776 1846 1912 1882 1854 1897 1867 1839 1828 1843 1815 1838 1916 1852 1850 1829 1886 1854 1781 1852 1823 1977 1857 1888 1839 1948 1895 1855 1892 1880 1898 1887 1907 1886 1910 2026 1907 1892 1894 1930 1925 1923 1956 1888 1865 1978 1978 2001 1953 1929 1955 1972 1913 1969 1903 1935 1957 1927 2008 1989 1964 1906 1969 1891 1956 1991 1930 1862 1981 1939 1994 1964 1944 1903 2041 1942 1881 1890 1936 1988 1982 1990 1960 1934 2026 2020 1902 1997 1951 2082 1922 1975 1881 1953 2036 1918 1854 1918 1897 1950 1967 2032 1996 1888 1929 1940 1909 1974 1949 1907 1974 2061 1890 1874 1913 1910 1947 2022 1924 2009 1987 1921 1916 1956 2009 1910 1978 1850 1863 1921 1906 1859 1931 1913 1959 1902 1862 1885 1916 1898 1917 1921 1967 1885 1953 1851 1928 1836 1955 1934 1916 1934 2002 1858 1869 1903 1943 1889 1931 1928 1831 1908 1826 1880 1822 1916 1848 1976 1916 1928 1978 1936 1906 1841 1863 1939 1939 1985 1927 1923 1923 1819 1870 1963 1961 1872 1931 1879 1837 1942 1863 1851 1939 1884 1982 1904 2027 1891 1913 1826 1986 1875 1902 1923 1983 1879 1958 1962 1876 1861 1928 1916 1880 1857 1860 1900 1918 1905 1872 1911 1911 1858 1908 1911 1923 1836 1899 1914 1905 1811 1905 1978 1934 1879 1888 1954 1966 1821 1822 1910 1912 1876 1908 1898 1867 1880 1899 1958 1899 1908 1933 1861 1852 1827 1898 1917 1858 1908 1927 1932 1914 1977 1929 1972 1840 1874 1839 1832 1904 1920 1811 1943 1882 1901 1905 1992 1929 1929 1808 1931 1875 1899 1855 1839 1989 1892 1831 1828 1929 1868 1948 1846 1927 1866 1913 1940 1991 1947 1967 1982 1989 1883 1973 1900 1917 1907 1988 1921 1943 1909 1921 1997 2020 1975 2043 2044 1976 2005 2027 1931 1867 1968 1960 2007 1982 2071 2075 2053 2044 2050 1967 2014 1991 2093 1994 2062 1999 2073 2085 2100 1960 1980 1987 2004 1990 1968 2001 2050 2055 2069 2014 2011 2000 2022 2098 1958 2036 2028 2058 1953 1988 2027 1930 2036 2078 2026 2077 2020 1965 1943 2081 2055 2001 1956 1864 2041 1999 1950 1938 1867 2008 2072 2015 1927 1972 2016 1962 2001 1976 1920 1995 1953 2009 1895 1993 1972 1995 1944 2006 1878 2034 1910 1955 1907 1949 1918 2064 1942 1989 1935 1912 1929 1897 1956 1932 1932 1970 1941 1953 1951 1969 1996 1983 2008 1999 1992 1907 1990 1972 1939 1986 1974 1989 1901 1975 2012 1891 1999 1982 1949 1950 1937 2038 1924 1935 1897 1959 1909 1921 1887 1908 1921 1867 1862 1962 1980 1965 1948 1927 1919 1952 1945 1918 1932 1926 1895 1915 1878 1877 1819 1956 1951 1968 1943 1917 1919 1860 1951 1908 1901 1977 1985 1948 1891 1954 1924 1803 1811 1893 1984 1865 1882 1909 1932 1957 1863 1974 1934 1904 1878 1915 1973 1919 1921 1894 1921 1891 1929 1787 1846 1902 1880 1936 1864 1916 1904 1875 1893 1864 1895 1819 1900 1940 1932 1800 1864 1859 1799 1887 1878 1834 1961 1899 1887 1863 1904 1853 1916 1796 1892 1897 1905 1922 1890 1853 1865 1983 1891 1877 1873 1898 1846 1866 1909 1914 1869 1890 1989 1883 1878 1848 1873 1925 1937 1878 1830 1899 1881 1926 1932 1943 1798 1919 1920 1909 1849 1892 1885 1869 1942 1916 1942 1883 1866 1904 1930 1939 1932 1884 1866 1853 1889 1865 1828 1956 1980 1949 1798 1858 1897 1938 1849 1943 1892 1905 1893 1881 1953 1872 1899 1874 1892 1891 1880 1870 1959 1855 1857 1866 1882 1878 1894 1875 1969 1914 1965 1823 1860 1915 1955 1876 1885 1852 1803 1890 1714 1877 1885 1887 1903 1898 1879 1826 1927 1920 1878 1915 1871 1845 1900 1921 1918 1954 1886 1930 1905 1981 1912 1981 1841 1890 1906 1871 1885 1924 1850 1881 1927 1892 1915 1965 1919 1947 1884 1845 1951 1937 1951 1910 1900 1973 1879 1896 1998 1898 1941 2007 2026 1993 1988 2063 2066 1974 1977 1961 1925 2049 2019 2009 2013 2063 2063 2041 1995 2111 2143 2095 2168 2069 2182 2143 2179 2230 2194 2278 2180 2262 2247 2341 2288 2286 2408 2294 2323 2239 2418 2360 2340 2359 2367 2372 2452 2385 2472 2506 2369 2394 2324 2438 2449 2408 2390 2538 2505 2482 2462 2459 2470 2461 2516 2552 2531 2473 2461 2504 2390 2389 2428 2462 2476 2500 2512 2430 2474 2500 2428 2455 2459 2538 2475 2532 2409 2418 2523 2430 2539 2533 2379 2414 2511 2419 2396 2408 2344 2392 2370 2303 2309 2409 2350 2275 2313 2248 2310 2266 2320 2313 2192 2140 2191 2143 2091 2167 2164 2106 2089 2181 2099 2154 2127 2075 2119 2129 2062 2029 2178 2174 2045 2128 2104 2056 2072 2022 2042 2104 2017 2042 2050 2028 2011 1958 1977 2114 1971 2019 2061 1969 1979 2024 2077 2044 2037 1992 2091 2060 1980 2019 2008 1972 1909 2033 1950 2001 2048 1968 2098 1951 1976 1984 2013 2035 1960 2059 2014 2046 2061 2011 2019 2100 1955 2043 1993 2095 2038 2047 2030 2062 2053 1969 1971 2041 1948 2036 1981 1964 2026 2039 2074 1963 1961 1949 1965 2027 2066 1971 1993 1964 2016 1987 1909 2067 1970 2004 1919 1901 1988 1976 1958 1934 2006 2059 2003 1959 2056 1927 2077 1990 1969 1946 1916 1978 1963 1979 2010 2033 1984 1945 1989 1995 1990 2007 1948 1899 2011 1950 1949 1936 1977 2018 1976 1954 1983 2042 2066 1897 2047 1930 1998 1961 1992 1933 1964 2014 1963 1979 2003 1909 2034 1899 1998 1950 2000 1930 2017 1870 1906 1959 1906 1959 1858 1954 1942 1925 1935 1990 1864 1982 1998 1998 1982 1943 1957 1956 2010 2061 1942 1913 1970 1987 2077 1961 1963 1988 2018 1955 1939 1918 1990 1942 1948 1983 1978 1987 1953 2016 1905 2017 1995 1919 1966 1947 2019 2065 1964 1949 1930 1946 1976 1925 1869 1935 1933 1873 1942 1952 1937 1997 1969 2025 1957 1972 1922 1849 1936 2019 1929 1959 1934 2001 1938 1977 1944 1916 1923 1949 1887 2048 1895 1830 1827 1841 1827 1907 1899 1891 1937 1965 1866 1914 1985 1948 1770 1958 1928 1889 1907 1926 1894 1945 1859 1816 1882 1940 1846 1891 1920 1898 1971 1872 1979 1971 1875 1838 1948 1845 1879 1964 1863 1852 1951 1951 1901 1875 1915 1902 1967 1895 1884 2005 1833 1971 1853 1954 1968 1936 1896 1910 1906 1913 1914 1931 1973 1977 1936 1967 1886 1925 1837 1817 1906 1953 1929 1864 1871 1962 2010 1948 1939 1823 1917 1860 1988 1845 1925 2026 1945 1905 1835 1886 1850 1949 1855 1875 1928 1961 1902 2024 1899 1934 1905 1901 1906 1935 1927 1946 1921 1892 1810 1936 1885 1874 1932 1835 1841 1872 1902 1859 1955 1960 1925 1942 1872 1921 1909 1920 1805 1870 1877 1879 1938 1875 1918 1831 1924 1849 1884 1862 1840 2012 1865 1897 1954 1819 1935 1889 1930 1855 1845 1849 1852 1872 1910 1919 1848 1836 1812 1901 1883 1915 1878 1898 1867 1835 1881 1869 1959 1882 1821 1844 1898 1865 1952 1867 1830 1839 1859 1863 1860 1904 1907 1876 1846 1847 1814 1902 1927 1830 1819 1850 1861 1850 1829 1982 1831 1863 1836 1856 1857 1930 1871 1853 1891 1911 1828 1900 1902 1907 1938 1877 1835 1903 1859 1847 1893 1822 1867 1865 1954 1913 1962 1902 1956 1841 1874 1794 1930 1834 1929 1863 1881 1850 1878 1891 1896 1842 1874 1850 1909 1925 1848 1888 1869 1830 1994 1826 1901 1846 1902 1830 1881 1890 1784 1853 1863 1852 1950 1866 1896 1895 1828 1910 1911 1823 1911 1908 1827 1931 1858 1891 1877 1899 1917 1935 1863 1829 1873 1847 1801 1859 1875 1814 1908 1912 1902 1844 1862 1920 1884 1961 1923 1926 1884 1929 1931 1856 1945 1950 1897 1901 1889 1824 1863 1853 1936 1901 1945 1919 1844 1844 1874 1924 1933 1877 1844 1969 1911 1918 1880 1835 1930 1933 1878 1890 1860 1852 1949 1945 1917 1859 1841 1924 1941 1908 1904 1860 1897 1886 1927 1953 1951 1843 1870 1857 1941 1915 1843 1862 1951 1929 1962 1918 1940 1856 1901 1905 1884 2005 1891 1896 1886 1924 1913 1898 1895 1887 1914 1891 1848 1834 1858 1922 1868 1909 1820 1937 1872 1831 1872 1818 1872 1905 1821 1864 1867 1827 1863 1864 1899 1958 1896 1928 1919 1821 1858 1857 1790 1796 1899 1899 1888 1920 1930 1888 1956 1795 1892 1869 1859 1898 1911 1841 1916 1856 1877 1848 1821 1920 1838 1876 1887 1885 1840 1947 1920 1921 1868 1913 1860 1992 1882 1887 1812 1925 1875 1904 1876 1817 1850 1889 1932 1825 1926 1923 1868 1876 1848 1797 1878 1847 1877 1936 1892 1887 1895 1913 1940 1832 1916 1924 1973 1928 1859 1919 1888 1868 1883 1899 1852 1892 1920 1897 1880 1952 1821 1949 1931 1912 1895 1927 1908 1889 1880 1880 1851 1911 1940 1869 1891 1903 1869 1845 1833 1919 1898 1875 1951 1871 1836 1911 1853 1862 1908 1895 1913 1900 1948 1998 1827 1898 1885 1928 1846 1889 1886 1899 1885 2013 1877 1979 1896 1963 1928 1871 1857 1871 1883 1987 1959 1895 2010 1904 1965 1913 1874 1886 1943 1787 1873 1878 1921 1889 1891 1902 1956 1976 1870 1878 2015 1958 1955 1910 1998 2000 1982 1916 1951 1949 1936 2036 1883 1907 1879 1874 1973 1913 1972 1970 1869 1951 1926 1870 1956 1904 1921 1907 1979 1912 2016 1918 1939 1881 1991 1866 1953 1956 1920 1869 1956 1983 1872 1944 1942 1892 1922 1902 1914 1939 1861 1950 1944 1954 1943 1959 1921 1884 1902 1986 1950 1911 1846 1928 1868 1846 1882 1912 1928 1876 1872 1822 1826 1924 1890 1901 1864 1899 1842 1969 1856 1913 1969 1953 1901 1938 1954 1859 1858 1879 1828 1838 1937 1962 1916 1864 1818 1855 1904 1907 1948 1897 1888 1945 1915 1875 1871 1924 1914 1921 1890 1942 1797 1900 1920 1878 1854 1829 1853 1870 1859 1898 1920 1876 1799 1904 1925 1932 1967 1842 1890 1840 1881 1920 1878 1851 1840 1895 1899 1912 1906 1869 1834 1997 1843 1851 1892 1925 1858 1848 1890 1885 1863 1873 1958 1875 1907 1856 1822 1830 1893 1863 1907 1967 1873 1888 1919 1937 1930 1935 1814 1828 1852 1956 1859 1885 1924 1867 1869 1881 1820 1906 1975 1958 1885 1854 1866 1831 1939 1965 1929 1828 1861 1879 1906 1865 2000 1934 1870 1919 1888 1911 1879 1924 1836 1868 1869 1942 1844 1851 1954 1884 1960 1935 1955 1898 1845 1921 1882 1938 1835 1936 1939 1996 2009 1975 1953 1875 1982 1836 1868 1956 1901 1848 1841 1872 1844 1859 1898 1873 1946 1927 1888 1930 1876 2006 1857 1940 1962 1931 1992 1937 1918 1946 1957 1929 1931 1892 1974 1919 1914 1932 1947 1991 1891 1946 1918 1913 2005 1956 1939 1887 1906 1926 1944 1936 1929 1937 1910 1879 1963 1895 1944 1895 1968 1943 1954 2005 2002 1977 1939 1969 1971 1935 1864 1889 1894 2033 2020 1866 1955 1940 1980 1988 1971 1989 1955 1969 1895 1965 1938 1932 1929 2019 1981 1914 1959 1917 1953 1863 1985 1934 1921 1984 1953 1897 1925 1977 1923 1945 1932 1925 2025 1908 1965 1992 1886 1973 1897 1940 1928 1995 1922 1966 1933 1985 1902 1905 1947 1863 1870 1894 1880 1920 1948 1916 1905 1911 1824 1864 1880 1863 1863 1925 1882 1919 1924 1891 1829 1892 1875 1882 1883 1841 1808 1843 1839 1850 1825 1908 2000 1868 1953 1868 1851 1919 1878 1861 1985 1866 1864 1923 1966 1842 1826 1868 1793 1876 1900 1905 1805 1894 1866 1796 1841 1895 1838 1848 1862 1872 1838 1886 1795 1806 1830 1846 1922 1873 1856 1859 1872 1825 1908 1826 1817 1959 1866 1873 1882 1865 1934 1883 1830 1819 1854 1801 1827 1820 1906 1813 1877 1791 1920 1870 1841 1911 1866 1841 1833 1813 1789 1878 1894 1855 1870 1818 1915 1900 1983 1874 1868 1870 1863 1905 1849 1967 1824 1945 1890 1881 1889 1955 1956 1881 1925 1894 1893 1860 1912 1937 1889 1855 1912 1846 1920 1870 1879 1941 1888 1878 1928 1928 1892 1932 1919 1957 1916 1882 1921 1908 1880 1870 1779 1814 1896 1898 1874 1960 2001 1863 1967 1895 1906 1896 1921 1892 1908 1916 1918 1859 1991 1959 1890 1877 1917 1900 1878 1915 1994 2003 1963 1986 1926 1908 1825 1970 1839 1909 1855 1852 1852 1942 1953 1830 1885 1867 1935 1814 1856 1874 1932 1862 1916 1833 1774 1902 1858 1803 1892 1873 1824 1796 1886 1875 1889 1850 1970 1867 1906 1865 1946 1834 1797 1925 1892 1951 1896 1790 1862 1808 1870 1892 1899 1822 1805 1826 1882 1902 1877 1832 1919 1828 1883 1798 1931 1872 1884 1908 1787 1937 1866 1859 1847 1955 1829 1803 1847 1843 1894 1921 1886 1870 1918 1889 1819 1823 1881 1796 1912 1875 1910 1837 1835 1829 1891 1859 1798 1821 1886 1895 1810 1830 1908 1906 1906 1876 1897 1794 1829 1873 1764 1900 1869 1905 1856 1776 1879 1823 1833 1859 1926 1943 1821 1846 1831 1822 1910 1802 1844 1779 1843 1883 1829 1868 1847 1867 1847 1855 1880 1755 1773 1812 1861 1846 1928 1899 1876 1845 1862 1888 1932 1866 1856 1807 1897 1846 1877 1849 1889 1836 1861 1868 1925 1853 1897 1876 1790 1867 1864 1853 1899 1910 1929 1845 1891 1837 1928 1823 1819 1891 1862 1886 1918 1919 1841 1914 1833 1846 1905 1899 1866 1940 1824 1985 1868 1917 1880 1910 1862 1861 1942 1769 1916 1814 1834 1915 1844 1909 1920 1830 1903 1867 1849 1915 1916 1838 1868 1900 1826 1835 1906 1756 1806 1823 1894 1890 1858 1861 1894 1810 1825 1884 1919 1843 1880 1916 1793 1823 1884 1792 1906 1877 1785 1925 1918 1822 1874 1837 1776 1862 1873 1800 1822 1831 1807 1881 1835 1801 1851 1911 1915 1874 1840 1871 1836 1861 1781 1846 1959 1937 1915 1826 1907 1869 1907 1929 1773 1847 1830 1907 1781 1834 1886 1929 1802 1880 1810 1832 1843 1825 1857 1928 1806 1872 1825 1910 1802 1836 1835 1845 1904 1898 1898 1795 1904 1881 1845 1830 1876 1882 1861 1821 1896 1908 1894 1892 1798 1842 1856 1944 1870 1871 1858 1859 1867 1856 1827 1848 1845 1856 1857 1881 1962 1829 1924 1871 1963 1823 1901 1951 1877 1846 1855 1870 1799 1917 1840 1868 1875 1849 1844 1872 1976 1830 1898 1884 1899 1845 1859 1825 1833 1874 1863 1881 1904 1841 1857 1863 1842 1881 1983 1828 1867 1901 1847 1832 1924 1774 1850 1875 1845 1900 1880 1830 1777 1861 1918 1755 1872 1976 1885 1886 1884 1760 1809 1855 1869 1878 1848 1888 1863 1849 1794 1886 1805 1907 1884 1882 1794 1875 1918 1835 1862 1804 1836 1876 1820 1937 1945 1831 1890 1803 1766 1802 1908 1903 1854 1872 1876 1850 1822 1821 1868 1849 1950 1860 1880 1772 1882 1888 1803 1863 1816 1875 1920 1875 1775 1784 1821 1853 1860 1942 1883 1906 1854 1896 1747 1852 1881 1888 1839 1955 1767 1900 1860 1846 1818 1869 1787 1847 1803 1859 1934 1880 1860 1829 1838 1858 1882 1884 1852 1857 1899 1874 1914 1890 1858 1854 1921 1859 1888 1935 1825 1873 1872 1837 1890 1825 1796 1880 1863 1933 1855 1917 1804 1922 1857 1945 1854 1950 1942 1882 1881 1844 1933 1818 1852 1834 1864 1940 1808 1907 1938 1903 1912 1875 1838 1876 1878 1832 1874 1889 1782 1791 1883 1901 1879 1860 1807 1804 1857 1853 1842 1901 1832 1863 1785 1765 1880 1873 1910 1878 1908 1811 1883 1856 1824 1920 1886 1818 1838 1911 1822 1863 1840 1913 1955 1860 1737 1816 1899 1882 1914 1829 1830 1853 1852 1821 1847 1784 1844 1866 1920 1820 1793 1811 1842 1791 1909 1891 1848 1898 1801 1812 1911 1854 1935 1883 1939 1803 1825 1882 1825 1853 1782 1782 1853 1912 1869 1911 1868 1857 1892 1878 1814 1858 1878 1927 1907 1902 1819 1775 1862 1804 1865 1841 1905 1790 1870 1742 1850 1851 1833 1818 1854 1855 1870 1831 1892 1861 1777 1814 1864 1870 1722 1894 1846 1817 1873 1863 1857 1872 1834 1858 1852 1825 1944 1877 1870 1825 1823 1903 1820 1805 1890 1925 1850 1841 1888 1800 1860 1798 1831 1874 1826 1806 1853 1813 1840 1824 1897 1822 1905 1817 1912 1826 1910 1879 1857 1763 1843 1870 1795 1861 1788 1844 1864 1835 1877 1859 1789 1827 1895 1890 1838 1899 1818 1857 1876 1889 1935 1898 1778 1857 1817 1893 1911 1871 1881 1878 1860 1785 1868 1876 1885 1875 1919 1864 1884 1859 1858 1824 1805 1897 1839 1810 1821 1837 1821 1845 1875 1798 1794 1814 1864 1790 1883 1824 1897 1861 1914 1879 1909 1892 1827 1842 1850 1854 1859 1827 1888 1868 1895 1897 1801 1837 1921 1832 1895 1831 1861 1860 1877 1876 1901 1898 1974 1815 1892 1803 1809 1842 1889 1924 1866 1877 1897 1850 1856 1792 1875 1888 1775 1770 1886 1792 1856 1867 1908 1921 1913 1821 1851 1824 1843 1904 1838 1875 1843 1828 1835 1920 1849 1937 1908 1868 1928 1856 1909 1886 1785 1881 1888 1816 1868 1816 1832 1852 1790 1847 1860 1862 1872 1796 1899 1900 1948 1846 1860 1812 1824 1838 1871 1907 1885 1917 1870 1879 1889 1906 1813 1899 1861 1863 1845 1895 1827 1970 1866 1840 1881 1815 1908 1888 1766 1932 1863 1841 1848 1849 1865 1851 1795 1849 1859 1863 1814 1882 1781 1919 1804 1848 1876 1825 1945 1889 1784 1897 1842 1864 1889 1822 1909 1911 1855 1779 1804 1926 1920 1850 1831 1825 1893 1844 1786 1801 1794 1774 1798 1860 1791 1763 1897 1776 1829 1818 1817 1756 1817 1832 1832 1870 1782 1813 1832 1869 1877 1899 1829 1881 1768 1890 1898 1812 1904 1795 1883 1838 1822 1818 1792 1809 1830 1840 1784 1973 1838 1846 1825 1890 1874 1973 1834 1856 1839 1756 1848 1776 1807 1757 1853 1821 1919 1842 1745 1852 1800 1848 1812 1827 1797 1805 1878 1859 1834 1853 1864 1843 1796 1904 1806 1778 1790 1861 1893 1757 1897 1840 1840 1835 1806 1942 1845 1848 1827 1820 1851 1863 1818 1862 1819 1856 1829 1865 1759 1828 1825 1864 1880 1884 1812 1934 1802 1814 1780 1858 1800 1802 1800 1825 1870 1829 1838 1861 1863 1894 1864 1848 1898 1805 1805 1836 1826 1803 1835 1853 1842 1761 1827 1871 1873 1854 1870 1836 1853 1814 1952 1825 1778 1804 1903 1936 1807 1850 1879 1832 1865 1832 1785 1809 1907 1889 1839 1868 1891 1888 1908 1819 1792 1832 1806 1925 1758 1830 1904 1847 1822 1833 1854 1908 1903 1854 1929 1861 1872 1857 1838 1849 1864 1786 1882 1812 1894 1881 1881 1835 1855 1832 1842 1879 1892 1874 1814 1842 1846 1797 1884 1861 1839 1785 1849 1864 1919 1864 1899 1809 1810 1836 1861 1872 1855 1878 1841 1872 1862 1920 1825 1865 1844 1826 1845 1816 1914 1776 1871 1887 1854 1721 1813 1898 1870 1912 1833 1922 1872 1842 1849 1915 1876 1808 1862 1873 1881 1777 1889 1815 1796 1860 1879 1845 1811 1815 1840 1854 1861 1854 1865 1849 1880 1818 1865 1900 1841 1855 1867 1835 1861 1890 1910 1856 1869 1866 1844 1837 1803 1889 1767 1794 1972 1867 1833 1731 1881 1813 1819 1782 1832 1872 1870 1834 1843 1875 1789 1858 1829 1954 1822 1892 1828 1947 1869 1892 1890 1846 1898 1866 1850 1845 1876 1835 1793 1868 1882 1819 1929 1856 1863 1847 1944 1924 1877 1936 1889 1871 1884 1853 1925 1982 1906 1858 1886 1849 1866 1911 1871 1802 1919 1820 1913 1871 1854 1823 1890 1860 1828 1878 1950 1915 1810 1847 1891 1905 1853 1904 1786 1838 1792 1817 1835 1786 1867 1861 1786 1879 1845 1840 1913 1853 1884 1868 1876 1846 1940 1864 1927 1904 1870 1906 1904 1874 1821 1832 1927 1795 1807 1792 1942 1816 1849 1914 1833 1830 1829 1863 1920 1807 1899 1819 1926 1909 1917 1861 1824 1864 1831 1866 1906 1789 1901 1910 1924 1836 1883 1875 1818 1796 1871 1820 1940 1843 1830 1862 1747 1940 1829 1903 1853 1823 1882 1833 1881 1950 1898 1802 1868 1945 1872 1783 1860 1908 1804 1922 1821 1876 1885 1833 1859 1819 1920 1852 1794 1899 1815 1845 1891 1857 1876 1882 1862 1872 1826 1849 1858 1832 1883 1794 1842 1961 1847 1892 1836 1894 1869 1874 1862 1885 1812 1880 1931 1864 1850 1875 1829 1862 1777 1877 1809 1886 1847 1896 1919 1810 1834 1840 1837 1896 1839 1906 1803 1854 1861 1826 1776 1858 1900 1883 1913 1886 1883 1852 1919 1813 1869 1765 1916 1825 1880 1847 1852 1831 1890 1807 1850 1824 1905 1928 1890 1854 1865 1828 1827 1879 1995 1773 1866 1871 1800 1897 1861 1795 1792 1856 1934 1819 1789 1886 1913 1818 1853 1909 1762 2030 1827 1911 1902 1890 1879 1900 1893 1876 1829 1864 1819 1874 1919 1895 1824 1915 1898 1825 1908 1854 1871 1931 1967 1954 1901 1858 1854 1995 1859 1816 1986 1811 1871 1890 1840 1898 1901 1948 1914 1932 1845 1820 1857 1919 1879 1833 1909 1845 1914 1924 1887 1821 1897 1837 1830 1891 1820 1896 1788 1925 1860 1904 1855 1875 1891 1878 1879 1826 1871 1879 1878 1922 1805 1898 1866 1934 1903 1886 1996 1944 1870 1972 1863 1820 1899 1896 1856 1830 1880 1890 1827 1801 1982 1854 1899 1922 1910 1972 1930 1945 1881 1831 1866 1855 1883 1886 1797 1940 1899 1937 1864 1922 1855 1891 1851 1917 1867 1880 1906 1870 1821 1974 1945 1910 1900 1903 1876 2012 1888 1866 1960 1868 1881 1886 1910 1953 1848 1857 1850 1849 1905 1937 1858 1849 1902 1810 1881 1973 1876 1907 1827 1879 1967 1821 1928 1874 1836 1849 1887 1895 1872 1890 1880 1872 1905 1822 1884 1808 1784 1876 1849 1896 1889 1962 1896 1886 1847 1892 1926 1898 1918 1895 1843 1899 1890 1860 2015 1841 1890 1890 1894 1965 1843 1860 1842 1899 1944 1898 1872 1916 1939 1968 1951 1882 1823 1943 1877 1918 1848 1866 1916 1847 1899 1781 1864 1829 1948 1857 1796 1919 1918 1904 1870 1816 1928 1827 1896 1904 1938 1873 1870 1889 1916 1842 1890 1958 1889 1859 1882 1918 1866 1873 1933 1915 1893 1955 1887 1897 1836 1861 1908 1886 1940 1918 1906 1846 1882 1871 1892 1891 1967 1940 1960 1907 1821 1862 1854 1982 1851 1929 1867 1936 1966 2000 1877 1934 1938 1846 1880 1936 1972 1979 1926 1993 1898 1964 1961 1892 1962 1978 2000 1964 1915 1878 1964 1938 1865 1824 1924 1957 1941 2011 1928 2003 1915 1930 1901 1976 1936 1867 1997 1925 2113 1973 1993 1879 1959 1960 1989 1917 1929 1908 1897 1957 1986 1918 1899 1918 1934 1976 1939 1899 1944 1945 1965 1920 2010 1903 1893 1978 1852 1973 1893 2048 1922 1914 1844 1830 1904 1836 1919 1942 1978 1940 1992 1889 1932 1972 1857 1970 1876 1900 1932 1928 1917 1880 1937 1946 1911 1944 1936 1897 1853 1798 1911 1994 1873 1922 1872 1900 1886 1820 1840 1973 1954 1954 1852 1962 1880 1885 1877 1904 1842 1925 1888 1920 1899 1933 1928 1933 1812 1932 1887 1920 1971 1910 1817 1859 1987 1910 1895 1891 1840 1914 1872 1856 1930 1754 1839 1900 1850 1789 1798 1910 1927 1864 1963 1847 1841 1905 1938 1940 1873 1891 1988 1967 1931 1824 1898 1861 1884 1882 1867 1876 1910 1845 1929 1865 1862 1947 1909 1979 1847 1899 1944 1898 1838 1902 1842 1863 1857 1897 1839 1865 1954 1919 1892 1830 1806 1932 1882 1872 1938 1896 1883 1934 1927 1914 1864 1816 1864 1894 1926 1860 1911 1816 1929 1831 1941 1919 1793 1952 1971 1877 1891 1928 1925 1927 1909 1909 1886 1894 1852 1853 1902 1892 1862 1882 1857 1896 1910 1813 1965 1843 1921 1771 1914 1798 1893 1890 1979 1896 1965 1836 1946 1769 1879 1939 1867 1897 1937 1831 1833 1899 1920 1874 1806 1883 1902 1917 1971 1870 1846 1865 1851 1926 1931 1796 2029 1856 1837 1951 1862 1948 1913 1883 1909 1844 1934 1899 1955 1894 1877 1796 1864 1929 1897 1913 1863 1865 1849 1822 1865 1928 1945 1890 1929 1876 1901 1901 1865 1883 1858 1926 1872 1895 1853 1838 1880 1884 1881 1910 1907 1859 1956 1845 1938 1932 1904 1911 1898 1879 1926 1760 1955 1815 1900 1871 1836 1838 1883 1928 1981 1925 1975 1924 1894 1893 1895 1941 1876 1842 1875 1895 1827 1847 1821 1819 1859 1929 1960 1955 1852 1873 1816 1904 1876 1804 1844 1950 1969 1849 1894 1877 1866 1901 1940 1843 1890 1874 1867 1879 1866 1872 1878 1939 1885 1895 1852 1878 1897 1861 1970 1915 1919 1864 1924 1883 1881 1849 1866 1981 1842 1918 1819 1839 1843 1884 1841 1901 1806 1785 1903 1891 1851 1843 1921 1861 1911 1904 1905 1805 1894 1866 1861 1884 1957 1928 1943 1905 1873 1802 1847 1885 1848 1932 1863 1892 1895 1874 1904 1826 1942 1887 1861 1875 1825 1841 1889 1876 1954 1906 1879 1915 1860 1817 1939 1838 1851 1808 1851 1839 1941 1903 1817 1807 1862 1890 1878 1883 1909 1935 1812 1895 1908 1861 1895 1928 1928 1824 1837 1894 1819 1901 1837 1916 1809 1885 1895 1870 1858 1895 1853 1886 1788 1952 1831 1891 1907 1883 1848 1920 1940 1873 1924 1899 1971 1878 1947 1872 1888 1945 1915 1839 1866 1906 1892 1855 1812 1858 1771 1913 1778 1931 1928 1853 1869 1870 1817 1856 1818 1882 1877 1958 1867 1858 1883 1887 1929 1878 1856 1935 1853 1900 1832 1855 1934 1916 1828 1867 1890 1841 1888 1851 1905 1757 1900 1968 1882 1816 1836 1913 1866 1840 1897 1830 1857 1886 1892 1881 1841 1888 1877 1911 1876 1915 1934 1769 1917 1910 1810 1852 1902 1893 1951 1895 1835 1932 1839 1910 1917 1880 1842 1905 1868 1913 1931 1928 1873 1925 1946 1968 1867 1839 1852 1852 1901 1850 1895 1934 1860 1901 1876 1949 1805 1877 1876 1946 1870 1873 1893 1881 1827 1826 1921 1880 1889 1802 1923 1818 1804 1945 1881 1891 1865 1957 1914 1897 1925 1830 1870 1932 1818 1864 1876 1847 1964 1860 1893 1887 1884 1810 1936 1800 1840 1890 1895 1872 1880 1879 1938 1958 1810 1798 1944 1905 1961 1875 1925 1907 1945 1872 1972 1899 1870 1905 1911 1863 1913 1946 1878 1937 1865 1885 1827 1870 1867 1887 1981 1871 1963 1868 1898 1886 1813 1889 1774 1949 1835 1841 1868 1869 1894 1857 1905 1863 1803 1880 1882 1920 1911 1940 1922 1852 1862 1914 1830 1793 1893 1914 1947 1954 1875 1870 1882 1916 1956 1859 1866 1840 1829 1971 1827 1931 1913 1802 1896 1863 1911 1873 1898 1839 1864 1912 1769 1850 1905 1915 1888 1807 1784 1918 1891 1935 1830 1878 1859 1896 1953 1847 1869 1927 1766 1927 1833 1900 1848 1945 1926 1812 1917 1867 1878 1825 1947 1924 1928 1993 1900 1862 1862 1934 1914 1925 1863 1840 1961 1884 1902 1818 1886 1876 1835 1919 1909 1938 1933 1934 1844 1898 1858 1874 1877 1850 1824 1864 1895 1896 1922 1807 1812 1966 1784 1769 1816 1890 1847 1881 1926 1854 1902 1848 1964 1859 1865 1887 1788 1814 1791 1838 1875 1825 1869 1886 1865 1851 1897 1875 1910 1896 1839 1860 1889 1830 1852 1945 1893 1889 1919 1834 1847 1858 1881 1885 1889 1904 1841 1937 1924 1777 1903 1919 1857 1889 1857 1922 1976 1899 1917 1852 1888 1884 1907 1860 1844 1877 1850 1786 1880 1779 1922 1817 1809 1841 1953 1878 1859 1837 1875 1931 1841 1958 1914 1892 1920 1923 1825 1896 1915 1866 1856 1854 1883 1858 1815 1895 1896 1866 1920 1883 1861 1887 1875 1953 1881 1784 1879 1869 1912 1902 1933 1921 1945 1977 1865 1884 1843 1871 1899 1967 1773 1913 1792 1956 1849 1809 1841 1916 1802 1898 1920 1859 1888 1866 1847 1913 1907 1918 1891 1904 1872 1918 1881 1908 1938 1810 1878 1847 1917 1909 1811 1867 1939 1914 1906 1908 1994 1882 1831 1857 1847 1881 1870 1901 1932 1866 1870 1925 1857 1928 1957 1901 1898 1910 1943 1990 1927 1912 1928 1833 1906 1894 1961 1940 1978 1921 1922 1940 2010 1934 1946 1981 1863 1860 1947 1899 1924 1913 1969 1975 1919 1907 1926 1920 1955 1895 1914 1792 1902 1963 1917 2009 1958 1841 1851 1930 1881 1988 1979 1996 1864 1881 1940 1918 1891 1943 1973 1873 1986 1924 1916 1962 1903 1892 1898 1917 1919 1899 1900 1883 1870 1884 1936 1922 1929 1922 1908 1886 1905 1949 1871 1891 1834 1889 1908 1940 2018 1939 1921 1953 1898 1883 2000 1899 1844 1895 1895 1899 1878 1918 1960 1886 1917 1930 1968 1951 1984 1897 1935 1881 1880 1939 1854 1886 1826 1927 1878 1901 1836 1875 1855 1966 1833 1939 1858 1903 1814 1908 1928 1832 1904 1974 1873 1927 1843 1886 1897 1844 1941 1927 1901 1854 2013 1901 1931 1927 1972 1908 1864 1937 1917 1931 1930 1876 1817 1891 1883 1823 1859 1884 1958 1895 1867 1958 1922 1878 1904 1957 1891 1887 1801 1913 1885 1917 1916 1886 1838 1911 1925 1945 1981 1893 1932 1980 1899 1870 1921 1817 1881 1838 1908 1913 1856 1918 1894 1940 1928 1862 1994 1833 1858 1841 1949 1929 1893 1945 1921 1921 1888 1910 1960 1935 1893 1948 1924 1944 1849 1889 1840 1882 1966 1913 1964 1898 1920 1963 1921 1921 1894 1943 1898 1987 1902 1932 1901 1771 1855 1855 1887 1947 1992 1967 2024 1939 1922 1928 1897 1923 1892 1905 1900 1871 1825 1872 1878 1895 1864 1878 1910 1927 1871 1890 2031 1846 1873 1890 1943 1874 1896 1847 1912 1886 1907 1950 1927 1977 1901 1854 1813 1902 1953 1898 1885 1905 1931 1901 1913 1942 1915 1878 2006 1802 1845 1946 1827 1838 1927 1882 1954 1825 1957 1918 1896 1845 1914 1824 1903 1849 1892 1866 1988 1913 1893 1905 1966 1922 1883 1898 1900 1937 1916 1888 1920 1969 1953 1901 1869 1983 1844 1970 1974 1842 1901 1845 1949 1896 1781 1925 1857 1951 1940 1903 1847 1897 1908 1844 1889 1836 1879 1898 1974 1868 1988 1909 1936 1863 1939 1900 1935 1910 1968 1875 1892 1893 1853 1840 1811 1957 1992 1913 1913 1857 1848 1951 1837 1904 1955 1893 1872 1909 1957 1915 1821 1868 1849 1864 1813 1919 1847 1931 1870 1974 1876 1949 1894 2000 1926 1915 1861 1854 1866 1866 1906 1778 1857 1934 1933 1836 1854 1946 1879 1841 1897 1911 1860 1899 1928 1842 1917 1934 1899 1905 1835 1873 1952 1997 1854 1865 1985 1919 1872 1858 1876 1905 1991 1887 1838 1908 1889 1993 1891 1827 1920 1901 1920 1932 1893 1864 1942 1840 1867</counts>
			</dataPoints>
		</scan>
	</xrdMeasurement>
</xrdMeasurements>
