<?xml version="1.0"?>
<xrdMeasurements xmlns="http://www.xrdml.com/XRDMeasurement/2.3" xmlns:xsi="http://www.w3.org/2001/XMLSchema-instance" xsi:schemaLocation="http://www.xrdml.com/XRDMeasurement/2.3 http://www.xrdml.com/XRDMeasurement/2.3/XRDMeasurement.xsd" status="Completed" recordIdentifier="{85A75B3A-B097-4264-889F-CD3A60462067}">
	<comment>
		<entry/>
	</comment>
	<sample type="To be analyzed">
		<id>GPSS_Li1p4Co0p8Nb0p2Cl4_100825_68e6fdc007cf888582f941b2</id>
		<name></name>
		<preparedBy></preparedBy>
	</sample>
	<xrdMeasurement measurementType="Scan" status="Completed" sampleMode="Reflection">
		<usedWavelength intended="K-Alpha 1">
			<kAlpha1 unit="Angstrom">1.5405980</kAlpha1>
			<kAlpha2 unit="Angstrom">1.5444260</kAlpha2>
			<kBeta unit="Angstrom">1.3922500</kBeta>
			<ratioKAlpha2KAlpha1>0.5000</ratioKAlpha2KAlpha1>
		</usedWavelength>
		<incidentBeamPath>
			<radius unit="mm">145.00</radius>
			<xRayTube id="1010048" name="Empyrean Cu LFF HR (9430 033 7310x)">
				<tension unit="kV">40.0</tension>
				<current unit="mA">15.0</current>
				<anodeMaterial>Cu</anodeMaterial>
				<focus type="Line">
					<length unit="mm">12.0</length>
					<width unit="mm">0.4</width>
					<takeOffAngle unit="deg">6.0</takeOffAngle>
				</focus>
			</xRayTube>
			<sollerSlit id="21010002" name="Soller slits 0.04 rad.">
				<opening unit="rad">0.0400</opening>
			</sollerSlit>
			<mask id="22031000" name="Fixed mask 13 mm">
				<width unit="mm">9.00</width>
			</mask>
			<divergenceSlit id="22120001" name="Divergence slit 1°" xsi:type="fixedDivergenceSlitType">
				<distanceToSample unit="mm">50.00</distanceToSample>
				<height unit="mm">1.52</height>
			</divergenceSlit>
		</incidentBeamPath>
		<sampleMovement xsi:type="spinningSampleMovementType">
			<spinnerRevolutionTime unit="seconds">1.0</spinnerRevolutionTime>
		</sampleMovement>
		<diffractedBeamPath>
			<radius unit="mm">145.00</radius>
			<antiScatterSlit id="22090040" name="AS slit 9 mm (PIXcel)" xsi:type="fixedAntiScatterSlitType">
				<height unit="mm">9.00</height>
			</antiScatterSlit>
			<sollerSlit id="21020003" name="Large Soller slits 0.04 rad.">
				<opening unit="rad">0.0400</opening>
			</sollerSlit>
			<filter id="20030001" name="Large beta-filter Nickel">
				<material>Ni</material>
				<thickness unit="mm">0.020</thickness>
			</filter>
			<detector id="7010019" name="PIXcel1D-Medipix3 detector" xsi:type="rtmsDetectorType">
				<phd unit="keV">
					<lowerLevel>4.02</lowerLevel>
					<upperLevel>11.27</upperLevel>
				</phd>
				<mode>Scanning</mode>
				<activeLength unit="deg">5.542</activeLength>
			</detector>
		</diffractedBeamPath>
		<scan appendNumber="0" mode="Continuous" scanAxis="Gonio" status="Completed">
			<header>
				<startTimeStamp>2025-10-17T13:04:47-07:00</startTimeStamp>
				<endTimeStamp>2025-10-17T13:12:54-07:00</endTimeStamp>
				<author>
					<name>AutomatedUser</name>
				</author>
				<source>
					<applicationSoftware version="1.7b (136)">PANalytical Aeris Instrument Suite</applicationSoftware>
					<instrumentControlSoftware version="3.2.00000000 20240306">AERIS</instrumentControlSoftware>
					<instrumentID>950485</instrumentID>
				</source>
			</header>
			<dataPoints>
				<positions axis="2Theta" unit="deg">
					<startPosition>10.00943322</startPosition>
					<endPosition>99.99442286</endPosition>
				</positions>
				<positions axis="Omega" unit="deg">
					<startPosition>5.00471661</startPosition>
					<endPosition>49.99721143</endPosition>
				</positions>
				<commonCountingTime unit="seconds">12.495</commonCountingTime>
				<counts unit="counts">3511 3533 3558 3634 3647 3558 3555 3531 3515 3610 3580 3566 3542 3531 3577 3526 3579 3493 3653 3639 3663 3561 3580 3581 3496 3584 3556 3591 3542 3533 3674 3684 3744 3575 3575 3543 3594 3569 3617 3621 3503 3645 3539 3544 3751 3635 3648 3658 3688 3639 3593 3621 3616 3739 3606 3598 3648 3646 3674 3670 3711 3592 3694 3621 3636 3689 3662 3676 3709 3713 3812 3697 3730 3730 3697 3693 3902 3831 3688 3808 3775 3783 3758 3699 3790 3829 3820 3809 3826 3808 3805 3750 3752 3922 3691 3747 3730 3902 3757 3873 3794 3817 3788 3760 3767 3803 3842 3935 3778 3759 3890 3755 3894 3888 3818 3868 3819 3776 3799 3869 3872 3827 3743 3928 3696 3787 3783 3932 3855 3790 3863 3738 3805 3794 3713 3933 3917 3958 3805 3895 3911 3858 4037 3829 3933 3828 3912 3756 3918 3842 3840 3980 3934 4032 3844 3912 3879 3931 3916 3844 3822 3881 4015 3935 4012 3972 3934 3891 3963 3910 4007 3928 3818 3952 4091 3822 3961 3916 3933 3961 3902 3998 3859 3838 3872 4045 3853 3985 3879 3904 3934 3922 3952 3859 3936 3983 3933 3946 3884 4017 4002 3953 3924 3882 3819 3995 3899 4031 3854 4002 4025 3913 3933 3946 3782 3949 3896 3991 3903 3933 3968 4071 3894 3919 3896 3889 3893 3941 4009 3832 4033 3988 3968 3805 4072 3825 3824 3981 4012 3888 3902 3910 3860 3892 3846 3960 3972 3979 3887 4053 3907 3879 3948 3967 3912 3820 3879 3904 3995 3918 3844 3930 3975 3954 4014 3935 3988 3917 3762 4027 3937 3932 4044 4105 3923 4023 4039 4053 4015 4128 4000 4058 3950 3977 4054 4078 4017 4057 4041 4168 4072 3967 4114 4112 4052 4060 4003 4143 3999 3976 4049 4057 4110 4089 4155 4174 4032 4039 4166 4215 4009 4097 4103 4117 4226 4114 4179 4231 4127 4100 4141 4148 4236 4138 4110 4152 4200 4207 4284 4291 4193 4143 4161 4265 4243 4291 4236 4294 4489 4318 4185 4375 4385 4297 4302 4325 4433 4292 4388 4332 4446 4416 4361 4376 4380 4405 4315 4426 4474 4418 4537 4468 4425 4377 4501 4363 4389 4363 4472 4464 4516 4569 4456 4567 4574 4647 4516 4580 4481 4472 4554 4534 4670 4600 4621 4651 4614 4584 4642 4569 4435 4528 4594 4556 4762 4722 4671 4695 4688 4532 4662 4626 4610 4587 4707 4664 4743 4671 4678 4755 4723 4620 4724 4776 4873 4851 4744 4873 4680 4819 4813 4642 4769 4750 4886 4759 4840 4717 4855 4883 4844 4834 4897 4833 4917 4933 4831 4891 4903 5037 5009 5050 4978 5083 5122 5088 5040 5179 5043 5123 5190 5204 5194 5079 5227 5299 5185 5268 5294 5471 5555 5481 5536 5605 5719 5939 5875 5905 6048 6175 6060 6363 6231 6423 6269 6136 6167 6370 6090 6209 6067 6151 6094 5766 5801 5706 5696 5589 5602 5399 5427 5352 5287 5187 5202 5320 5511 5410 5347 5405 5303 5317 5457 5313 5540 5410 5339 5389 5298 5310 5417 5235 5093 5006 4932 5001 4964 4885 4952 4917 4752 4633 4822 4712 4698 4585 4746 4520 4580 4566 4510 4501 4561 4550 4488 4474 4590 4548 4516 4523 4559 4443 4505 4403 4478 4544 4526 4470 4429 4735 4372 4503 4523 4558 4425 4490 4533 4360 4353 4418 4585 4356 4411 4391 4543 4445 4421 4338 4511 4436 4387 4488 4407 4384 4271 4525 4314 4414 4456 4470 4517 4453 4351 4390 4410 4566 4331 4403 4337 4293 4359 4334 4301 4411 4320 4372 4135 4384 4392 4366 4408 4366 4292 4288 4302 4375 4225 4325 4271 4326 4329 4271 4315 4293 4195 4331 4382 4289 4342 4253 4356 4363 4397 4307 4247 4193 4228 4265 4336 4340 4314 4276 4223 4231 4301 4340 4269 4231 4246 4317 4319 4301 4388 4415 4366 4363 4385 4331 4411 4318 4258 4318 4394 4346 4424 4442 4330 4331 4452 4347 4393 4349 4414 4249 4461 4491 4302 4341 4268 4287 4419 4343 4444 4424 4385 4478 4581 4426 4373 4495 4551 4442 4550 4741 4634 4550 4526 4453 4568 4484 4657 4527 4438 4453 4351 4346 4476 4457 4399 4343 4284 4307 4354 4387 4239 4355 4198 4213 4187 4222 4280 4366 4347 4276 4255 4295 4194 4302 4084 4331 4347 4412 4251 4275 4408 4183 4202 4215 4339 4261 4187 4229 4190 4154 4268 4308 4302 4204 4241 4335 4276 4290 4370 4233 4263 4251 4272 4378 4299 4303 4258 4260 4325 4223 4286 4282 4251 4116 4343 4269 4227 4146 4228 4192 4226 4222 4307 4223 4207 4182 4176 4269 4223 4191 4308 4199 4143 4231 4220 4149 4179 4267 4124 4215 4229 4209 4181 4172 4199 4278 4292 4308 4224 4224 4279 4253 4352 4179 4131 4279 4123 4309 4222 4269 4179 4150 4199 4293 4214 4213 4215 4341 4154 4102 4228 4165 4166 4172 4201 4332 4193 4090 4223 4225 4168 4226 4229 4248 4249 4228 4288 4164 4249 4253 4148 4326 4291 4107 4265 4163 4179 4173 4190 4114 4187 4147 4321 4081 4182 4170 4139 4266 4163 4307 4124 4255 4216 4160 4175 4184 4145 4271 4034 4198 4081 4135 4269 4226 4169 4201 4171 4221 4108 4137 4196 4231 4212 4148 4075 4264 4160 4177 4199 4125 4111 4085 4113 4178 4112 4180 4266 4214 4140 4234 4147 4168 4195 4244 4064 4219 4141 4272 4071 4253 4117 4193 4161 4119 4179 4111 4250 4118 4210 4093 4197 4246 4216 4190 4142 4145 4265 4119 4181 4214 4072 4202 4097 4072 4134 4223 4290 4164 4160 4144 4083 4138 4219 4196 4170 4197 4140 4136 4137 4174 4128 4146 4146 4129 4166 4135 4128 4139 4215 4185 4164 4155 4027 4112 4099 4233 4163 4132 4050 4064 4079 4223 4092 4032 4090 4145 4084 4148 4112 4057 4227 4081 4200 4122 4120 4207 4138 4147 4180 4023 4188 4234 4102 4019 4134 4106 4132 4127 4106 4103 4121 4057 4116 4305 4084 4189 4068 4008 4195 4114 4169 4179 4142 4235 4214 4350 4214 4175 4180 4122 4239 4234 4234 4186 4220 4222 4188 4268 4205 4252 4148 4146 4215 4139 4140 4106 4191 4215 4256 4151 4270 4178 4331 4352 4257 4239 4174 4303 4250 4185 4169 4138 4282 4164 4250 4223 4246 4075 4227 4228 4306 4280 4314 4368 4225 4195 4173 4184 4337 4202 4271 4227 4213 4248 4252 4329 4277 4247 4141 4136 4197 4106 4233 4198 4232 4192 4389 4200 4288 4149 4222 4326 4228 4184 4338 4222 4262 4243 4131 4233 4262 4375 4269 4317 4352 4256 4218 4196 4277 4189 4364 4206 4296 4218 4120 4207 4265 4202 4137 4305 4239 4286 4243 4275 4376 4198 4268 4338 4314 4153 4272 4206 4183 4208 4260 4179 4289 4052 4207 4205 4173 4149 4291 4076 4099 4214 4164 4157 4187 4161 4330 4164 4301 4158 4110 4242 4212 4153 4144 4201 4165 4201 4307 4136 4114 4242 4113 4122 4120 4135 4227 4205 4193 4168 4129 4089 4128 4152 4176 4040 4141 4035 4119 4076 4042 4064 4183 4033 4052 4186 4122 3990 4076 4104 3986 4175 3994 4136 3972 4040 4070 4023 4095 4158 4135 4039 4017 4113 4080 4055 4036 3986 4029 4033 4119 3950 3937 3998 4070 4112 3891 4083 3954 4064 4052 4010 3980 4075 3912 3959 4023 3984 3934 4040 3860 3928 3931 3944 3912 3950 3971 3867 3975 3919 3911 3957 3903 3901 3891 3930 3875 3952 4021 4011 3905 3929 3892 3899 3890 3867 3821 3880 3951 3903 3909 3949 3810 3865 3815 3884 3919 3937 3974 3751 3812 3815 3770 3769 3922 3927 3725 3869 3859 3765 3948 3869 4006 3861 3874 3835 3944 3827 3798 3827 3845 3826 3785 3724 3987 3868 3910 3749 3886 3837 3860 3921 3716 3769 3825 3773 3891 3797 3835 3888 3766 3909 3849 3843 3757 3838 3798 3802 3838 3845 3819 3871 3872 3809 3794 3857 3826 3895 3869 3807 3884 3751 3817 3842 3852 3758 3876 3827 3924 3784 3861 3921 3895 3989 3779 3886 3899 3988 3954 3954 3933 3998 3922 3833 3956 3997 4051 4021 4071 3989 3973 3975 4049 3882 3905 3840 3970 3800 3853 3998 3962 3919 3990 4006 3972 3921 3919 3884 3988 3971 3833 3850 3974 3892 4023 3883 4031 3934 3924 3825 3822 3891 3895 4036 3817 3815 3766 3906 3753 3807 3865 3869 3865 3860 3792 3776 3806 3770 3748 3784 3796 3805 3838 3804 3814 3792 3865 3985 3777 3781 3775 3731 3792 3885 3777 3847 3892 3804 3886 3885 3762 3847 3813 3871 3731 3751 3751 3920 3906 3907 3765 3756 3867 3932 3824 3907 3776 3917 3783 3863 3944 3904 3898 3800 3918 3884 3869 3831 3881 3817 3878 3765 3848 3859 3982 3930 3941 3797 3817 3940 3962 3758 3862 3932 4053 3752 3970 3870 3878 3874 3744 3870 3806 3976 3870 3922 3761 3812 3837 3842 3831 3893 3843 3970 3900 3801 3927 3898 3913 3977 3871 3866 3950 3929 3896 3850 4007 3940 3935 3868 3911 3860 3697 3873 3779 3989 3898 3926 3738 3884 3845 3841 3881 3857 3890 3927 3899 3850 3929 3913 3858 3849 4007 3845 3882 3792 3790 3773 3771 3852 3834 3830 3733 3808 3819 3877 3823 3897 3775 3937 3786 3774 3835 3757 3792 3684 3824 3900 3775 3840 3706 3767 3689 3801 3787 3880 3795 3748 3762 3842 3847 3839 3814 3666 3764 3747 3749 3699 3754 3691 3748 3791 3817 3739 3841 3776 3843 3766 3758 3683 3752 3723 3724 3723 3557 3658 3712 3637 3785 3790 3786 3787 3708 3791 3700 3823 3712 3793 3719 3713 3638 3655 3614 3617 3651 3879 3800 3671 3709 3643 3663 3605 3717 3670 3760 3802 3600 3712 3588 3739 3717 3583 3705 3582 3566 3676 3632 3638 3608 3643 3615 3601 3657 3568 3601 3700 3653 3521 3663 3455 3654 3576 3602 3622 3645 3705 3633 3618 3522 3793 3588 3611 3700 3599 3601 3682 3580 3644 3653 3530 3582 3600 3642 3673 3638 3708 3568 3642 3628 3606 3589 3606 3590 3688 3547 3567 3568 3471 3581 3566 3601 3713 3567 3579 3472 3671 3545 3606 3595 3682 3595 3607 3588 3717 3576 3585 3677 3569 3629 3529 3575 3627 3575 3624 3639 3513 3671 3721 3608 3632 3720 3712 3674 3615 3651 3627 3624 3655 3641 3643 3680 3712 3632 3619 3763 3717 3666 3795 3810 3681 3773 3882 3913 3858 3847 3975 3883 4017 3918 4054 4040 3956 4172 3896 3882 3920 3904 3994 3987 3951 3925 3898 3952 3978 3914 3961 4076 4041 4170 4042 4021 4219 4093 4175 3998 4156 4032 4127 4067 4103 4063 4103 4005 3959 3914 3994 3868 3906 3840 3755 3729 3824 3679 3675 3775 3778 3706 3781 3742 3797 3747 3718 3785 3838 3933 3751 3683 3767 3842 3865 3769 3932 3829 3762 3703 3704 3745 3787 3669 3654 3712 3650 3701 3672 3587 3537 3730 3549 3684 3677 3678 3649 3566 3636 3684 3670 3670 3595 3705 3730 3609 3791 3681 3727 3765 3712 3776 3789 3798 3757 3748 3740 3818 3870 3665 3870 3843 3978 3936 3922 4030 4058 4118 4128 4087 4287 4207 4302 4325 4580 4553 4628 4712 4582 4716 4695 4585 4559 4598 4476 4523 4513 4465 4518 4389 4556 4376 4425 4418 4251 4326 4280 4290 4226 4108 4153 4145 4157 4016 4094 3994 3925 3980 3798 3787 3659 3836 3682 3691 3632 3542 3611 3628 3443 3643 3469 3638 3525 3552 3565 3470 3483 3588 3491 3517 3532 3570 3539 3491 3475 3537 3608 3507 3622 3451 3509 3465 3542 3527 3457 3559 3606 3572 3490 3455 3508 3473 3445 3486 3459 3414 3469 3542 3548 3489 3451 3561 3480 3506 3485 3430 3574 3470 3465 3442 3538 3424 3447 3401 3490 3428 3595 3426 3439 3406 3421 3511 3425 3454 3510 3357 3366 3403 3417 3395 3395 3426 3247 3501 3514 3371 3422 3505 3353 3431 3395 3452 3514 3522 3365 3449 3368 3473 3333 3404 3496 3360 3452 3467 3503 3469 3465 3432 3565 3496 3434 3451 3420 3540 3487 3497 3459 3389 3469 3410 3457 3320 3484 3502 3318 3465 3388 3581 3414 3436 3547 3404 3415 3412 3370 3559 3520 3517 3536 3465 3367 3383 3313 3538 3435 3357 3393 3425 3428 3367 3413 3513 3519 3403 3450 3480 3381 3477 3377 3473 3469 3396 3469 3497 3454 3425 3484 3395 3362 3439 3403 3459 3463 3423 3472 3415 3507 3502 3447 3500 3437 3379 3379 3453 3507 3463 3390 3444 3497 3506 3544 3416 3366 3510 3428 3414 3466 3584 3533 3482 3494 3364 3438 3442 3480 3436 3423 3496 3411 3456 3538 3475 3522 3542 3458 3405 3437 3460 3551 3393 3426 3475 3445 3654 3400 3483 3328 3481 3603 3392 3504 3497 3446 3508 3591 3458 3436 3501 3583 3552 3465 3408 3510 3508 3448 3479 3409 3481 3456 3451 3554 3319 3426 3579 3448 3464 3459 3413 3486 3391 3578 3377 3478 3412 3457 3519 3438 3454 3443 3489 3375 3496 3378 3404 3451 3536 3394 3535 3430 3453 3449 3495 3474 3514 3483 3431 3423 3518 3404 3398 3403 3554 3522 3523 3486 3442 3434 3376 3448 3417 3470 3536 3416 3529 3424 3444 3410 3474 3509 3465 3472 3530 3521 3413 3551 3478 3587 3562 3509 3460 3504 3434 3497 3562 3501 3324 3381 3498 3529 3428 3387 3525 3623 3556 3518 3440 3513 3512 3558 3488 3472 3469 3492 3487 3480 3536 3549 3580 3565 3553 3654 3683 3620 3538 3629 3576 3598 3789 3631 3651 3657 3656 3745 3734 3810 3853 3732 3815 3886 3884 3933 3993 4065 4135 4022 3963 4149 4110 4255 4359 4167 4326 4291 4252 4339 4313 4516 4465 4580 4484 4651 4776 4855 4930 5117 5156 5092 5475 5684 5751 5984 6150 6231 6371 6470 6474 6581 6734 6733 6614 6531 6365 6334 6361 6351 6197 6166 6261 6035 5989 5962 6212 6122 6228 6492 6466 6620 6591 6861 6957 6621 6703 6649 6731 6347 6479 6308 6272 5951 5744 5759 5523 5192 5180 4971 4756 4665 4714 4435 4482 4369 4212 4312 4278 4107 4003 3937 4084 3994 4001 4095 3958 4010 4053 3923 4010 4034 4191 4045 3987 4151 4117 4134 4039 4190 4268 4147 4220 4169 4123 4272 4144 4022 4082 4239 3985 4056 4150 3898 3945 4015 3889 3906 3841 3781 3912 3767 3682 3717 3750 3565 3712 3738 3601 3583 3592 3564 3610 3622 3530 3522 3558 3575 3418 3652 3427 3556 3548 3609 3569 3508 3674 3435 3494 3441 3469 3475 3522 3479 3528 3643 3352 3498 3529 3417 3460 3438 3462 3446 3539 3447 3471 3509 3386 3502 3511 3573 3465 3484 3508 3518 3575 3550 3492 3502 3469 3346 3483 3484 3419 3378 3385 3546 3445 3432 3431 3395 3564 3531 3509 3481 3402 3392 3521 3433 3410 3382 3418 3602 3487 3445 3485 3543 3422 3418 3444 3463 3525 3506 3542 3462 3437 3434 3430 3540 3354 3581 3529 3436 3508 3423 3467 3475 3464 3362 3497 3552 3424 3510 3376 3380 3430 3538 3388 3411 3408 3539 3445 3380 3357 3454 3507 3381 3470 3492 3449 3422 3421 3339 3394 3359 3463 3523 3479 3431 3439 3456 3472 3438 3422 3467 3538 3452 3454 3386 3358 3435 3503 3459 3464 3441 3479 3489 3486 3415 3375 3509 3507 3470 3511 3414 3412 3395 3418 3502 3513 3510 3399 3425 3431 3474 3393 3475 3438 3465 3370 3451 3406 3410 3410 3527 3361 3458 3476 3510 3420 3508 3424 3439 3414 3529 3559 3541 3482 3539 3442 3407 3398 3401 3375 3609 3521 3608 3531 3472 3546 3542 3473 3448 3544 3552 3561 3523 3540 3676 3551 3629 3542 3661 3772 3661 3633 3554 3610 3522 3652 3565 3517 3571 3599 3534 3580 3566 3557 3622 3511 3532 3573 3464 3535 3433 3495 3446 3434 3417 3375 3491 3329 3392 3327 3488 3462 3570 3332 3503 3449 3431 3433 3528 3469 3464 3486 3458 3367 3363 3567 3408 3575 3445 3523 3544 3486 3396 3499 3424 3549 3478 3306 3490 3570 3368 3432 3506 3447 3357 3544 3483 3472 3535 3451 3484 3626 3390 3574 3571 3471 3422 3511 3477 3564 3619 3584 3603 3515 3459 3452 3531 3525 3567 3537 3467 3477 3635 3527 3569 3578 3567 3748 3630 3618 3657 3458 3497 3556 3605 3508 3666 3648 3571 3499 3654 3446 3534 3410 3613 3459 3458 3458 3541 3395 3400 3469 3463 3392 3355 3524 3462 3370 3423 3410 3344 3392 3396 3467 3343 3417 3426 3422 3336 3416 3409 3444 3451 3394 3477 3411 3473 3353 3449 3439 3335 3404 3363 3373 3416 3385 3428 3434 3430 3487 3359 3470 3394 3355 3453 3410 3278 3316 3293 3344 3412 3412 3293 3282 3398 3308 3387 3484 3507 3500 3377 3486 3413 3363 3270 3273 3371 3391 3451 3268 3398 3399 3412 3351 3397 3454 3460 3454 3438 3415 3322 3369 3342 3327 3349 3424 3308 3320 3372 3386 3393 3266 3371 3311 3388 3284 3419 3316 3296 3457 3424 3375 3362 3379 3384 3382 3285 3378 3322 3266 3448 3369 3369 3250 3443 3261 3436 3421 3528 3391 3339 3297 3418 3402 3453 3386 3450 3440 3424 3329 3450 3401 3404 3316 3339 3401 3325 3411 3379 3404 3440 3359 3466 3462 3444 3447 3436 3397 3339 3372 3384 3451 3442 3446 3429 3366 3453 3295 3385 3438 3530 3438 3427 3387 3489 3429 3461 3405 3445 3422 3506 3483 3409 3333 3333 3385 3369 3490 3431 3405 3402 3445 3417 3416 3554 3391 3508 3411 3472 3380 3460 3433 3380 3407 3368 3361 3412 3385 3434 3520 3391 3515 3343 3451 3472 3315 3432 3264 3314 3518 3381 3411 3390 3337 3402 3451 3367 3421 3469 3470 3391 3333 3447 3374 3391 3360 3345 3486 3483 3508 3394 3295 3320 3391 3394 3472 3274 3419 3294 3458 3338 3412 3398 3343 3466 3446 3348 3439 3395 3362 3374 3327 3438 3356 3350 3345 3481 3453 3395 3426 3455 3346 3361 3401 3455 3301 3433 3404 3412 3418 3430 3344 3423 3333 3510 3408 3416 3331 3403 3439 3380 3440 3512 3437 3370 3298 3415 3362 3475 3370 3418 3453 3544 3436 3393 3459 3431 3368 3434 3450 3456 3390 3421 3432 3503 3410 3498 3407 3487 3402 3386 3441 3472 3423 3502 3547 3529 3635 3520 3510 3519 3441 3599 3560 3482 3585 3461 3591 3585 3478 3543 3551 3605 3603 3510 3476 3463 3390 3592 3485 3447 3452 3464 3305 3436 3468 3451 3386 3573 3395 3527 3437 3390 3372 3440 3565 3448 3376 3452 3382 3489 3460 3452 3457 3368 3435 3312 3438 3404 3374 3379 3361 3440 3387 3439 3389 3422 3354 3438 3401 3431 3393 3349 3395 3475 3560 3416 3417 3385 3399 3486 3370 3418 3400 3417 3452 3529 3384 3395 3319 3440 3305 3507 3441 3359 3362 3408 3398 3394 3458 3403 3247 3391 3459 3446 3323 3440 3478 3405 3352 3370 3314 3468 3499 3404 3457 3339 3413 3404 3366 3360 3464 3477 3401 3431 3494 3420 3344 3453 3358 3446 3414 3364 3340 3352 3397 3534 3546 3511 3480 3438 3487 3343 3332 3417 3481 3391 3392 3432 3471 3472 3478 3391 3382 3435 3539 3482 3351 3388 3353 3400 3330 3455 3327 3367 3346 3334 3405 3489 3342 3564 3410 3442 3396 3424 3350 3488 3467 3447 3387 3542 3492 3322 3413 3401 3344 3427 3352 3388 3414 3536 3381 3448 3342 3518 3526 3484 3448 3376 3289 3404 3444 3421 3532 3488 3485 3448 3470 3450 3379 3501 3442 3502 3411 3459 3471 3367 3500 3385 3428 3435 3447 3483 3463 3409 3523 3273 3461 3506 3401 3479 3438 3439 3474 3441 3475 3420 3457 3637 3471 3424 3453 3536 3528 3525 3576 3462 3623 3451 3602 3611 3448 3632 3748 3705 3598 3617 3669 3773 3831 3754 3708 3695 3782 3658 3712 3730 3749 3771 3886 3787 3865 3771 3645 3721 3715 3850 3831 3774 3747 3846 3696 3749 3823 3740 3814 3824 3989 3797 3786 3696 3747 3791 3825 3639 3679 3568 3610 3713 3851 3603 3540 3674 3580 3608 3631 3516 3580 3588 3488 3567 3441 3520 3443 3543 3551 3581 3508 3427 3487 3489 3438 3512 3454 3392 3467 3520 3487 3452 3449 3485 3462 3395 3454 3481 3379 3409 3424 3491 3451 3422 3532 3531 3475 3429 3489 3413 3483 3473 3523 3558 3450 3439 3527 3524 3578 3469 3499 3490 3513 3619 3554 3532 3546 3512 3571 3593 3614 3540 3424 3604 3405 3546 3626 3407 3514 3613 3564 3484 3432 3412 3475 3477 3450 3402 3422 3473 3361 3481 3373 3547 3427 3399 3437 3506 3446 3539 3424 3467 3437 3442 3399 3497 3366 3528 3465 3436 3483 3439 3421 3414 3357 3364 3517 3434 3487 3421 3446 3404 3444 3358 3499 3431 3414 3489 3387 3499 3420 3474 3341 3491 3286 3440 3336 3506 3475 3517 3333 3497 3337 3380 3282 3477 3377 3392 3480 3530 3393 3347 3373 3456 3500 3391 3360 3429 3467 3486 3389 3422 3466 3375 3378 3313 3495 3425 3339 3421 3453 3540 3461 3429 3377 3359 3488 3553 3392 3446 3378 3471 3437 3516 3436 3534 3509 3514 3578 3505 3454 3466 3377 3350 3441 3305 3508 3336 3471 3388 3488 3278 3465 3466 3356 3472 3504 3380 3542 3455 3423 3567 3459 3466 3397 3318 3308 3447 3404 3506 3465 3618 3610 3511 3486 3455 3405 3402 3380 3475 3514 3356 3455 3538 3430 3474 3442 3441 3402 3472 3380 3492 3456 3385 3491 3466 3419 3425 3475 3430 3286 3451 3461 3515 3548 3382 3319 3496 3483 3519 3358 3419 3404 3465 3504 3512 3363 3487 3419 3476 3598 3349 3424 3486 3502 3440 3253 3340 3435 3431 3481 3483 3496 3491 3457 3355 3540 3538 3435 3509 3370 3524 3528 3484 3497 3390 3523 3477 3460 3527 3484 3353 3485 3463 3502 3543 3454 3436 3375 3679 3473 3430 3432 3531 3551 3507 3444 3512 3607 3466 3592 3635 3409 3490 3620 3616 3541 3594 3582 3496 3517 3511 3704 3545 3623 3545 3758 3603 3498 3654 3622 3726 3662 3672 3832 3759 3878 3897 3849 3763 3852 3953 3896 3906 4019 4022 3950 4030 4182 4183 4182 4255 4208 4367 4430 4557 4557 4468 4725 4720 4807 4953 4991 5111 5079 5128 5518 5430 5530 5604 5609 5596 5530 5418 5313 5328 5186 5146 4990 4914 4971 4806 4863 4695 4544 4501 4650 4440 4335 4196 4178 4195 4083 3895 3983 3817 3896 3813 3911 3701 3916 3734 3850 3723 3820 3829 3887 3908 3968 3949 3898 3956 3886 4026 3891 3951 3914 3959 3878 3850 3911 3907 3909 3809 3789 3894 3850 3810 3872 3791 3706 3781 3670 3681 3801 3781 3720 3581 3647 3860 3616 3674 3541 3757 3702 3629 3781 3813 3704 3711 3723 3815 3832 3860 3857 3943 3826 3916 3930 3827 4140 3949 4100 4078 3962 4015 4130 3998 3963 3985 4078 3973 3930 3955 3881 3889 3813 3889 3777 3822 3725 3807 3695 3661 3686 3695 3674 3651 3618 3613 3625 3488 3571 3542 3586 3625 3646 3485 3546 3583 3451 3448 3468 3543 3596 3550 3472 3457 3401 3482 3415 3522 3402 3475 3370 3621 3502 3479 3585 3496 3537 3573 3458 3497 3492 3470 3433 3474 3519 3571 3519 3544 3448 3399 3504 3456 3396 3522 3489 3499 3392 3456 3539 3588 3514 3442 3534 3563 3482 3498 3475 3379 3454 3527 3464 3412 3549 3565 3453 3561 3400 3493 3510 3618 3650 3441 3548 3497 3513 3491 3524 3591 3503 3592 3429 3511 3584 3546 3541 3592 3597 3666 3664 3660 3709 3700 3664 3565 3615 3821 3698 3679 3819 3767 3750 3778 3815 3766 3852 3809 3821 3802 3705 3782 3725 3709 3680 3623 3711 3643 3731 3593 3603 3662 3662 3635 3662 3678 3636 3513 3502 3475 3558 3630 3505 3571 3659 3551 3607 3598 3602 3612 3658 3624 3559 3590 3673 3658 3662 3605 3611 3509 3491 3660 3654 3646 3595 3610 3695 3594 3676 3505 3685 3596 3563 3586 3548 3602 3572 3492 3499 3581 3620 3636 3679 3570 3675 3502 3669 3613 3575 3525 3565 3634 3393 3538 3545 3705 3541 3572 3513 3562 3543 3670 3560 3501 3695 3566 3585 3653 3570 3587 3626 3702 3686 3689 3687 3602 3593 3760 3726 3612 3531 3519 3695 3603 3633 3605 3619 3772 3567 3611 3600 3554 3559 3503 3533 3458 3509 3504 3596 3434 3547 3474 3503 3469 3530 3445 3538 3385 3521 3452 3408 3418 3547 3435 3405 3491 3600 3441 3491 3387 3456 3466 3519 3536 3417 3548 3452 3519 3395 3456 3537 3431 3432 3383 3553 3588 3358 3499 3528 3499 3496 3573 3451 3527 3466 3453 3442 3457 3320 3471 3373 3428 3448 3539 3467 3443 3511 3349 3499 3463 3411 3444 3361 3363 3597 3469 3495 3412 3423 3491 3521 3344 3520 3471 3471 3509 3436 3314 3475 3486 3375 3432 3421 3501 3414 3497 3497 3360 3397 3355 3391 3417 3386 3466 3410 3391 3446 3548 3467 3596 3479 3543 3440 3473 3540 3479 3499 3466 3560 3393 3478 3496 3405 3511 3389 3440 3406 3345 3419 3315 3515 3536 3577 3421 3378 3510 3412 3325 3475 3539 3415 3561 3536 3500 3420 3476 3443 3390 3460 3433 3395 3451 3433 3510 3299 3446 3397 3497 3423 3475 3437 3433 3516 3333 3416 3460 3385 3420 3476 3512 3441 3392 3447 3438 3441 3483 3399 3395 3560 3419 3437 3344 3400 3383 3421 3423 3269 3456 3470 3335 3537 3355 3540 3444 3499 3509 3470 3478 3345 3459 3378 3465 3420 3455 3458 3461 3433 3499 3434 3547 3408 3382 3412 3362 3518 3403 3485 3422 3458 3398 3416 3428 3311 3417 3476 3345 3427 3441 3453 3450 3484 3507 3435 3417 3417 3448 3538 3407 3548 3522 3424 3480 3457 3573 3405 3450 3389 3371 3526 3456 3476 3445 3452 3503 3385 3456 3562 3444 3583 3437 3503 3502 3447 3499 3529 3485 3562 3503 3447 3529 3476 3453 3452 3499 3474 3479 3469 3608 3496 3482 3407 3454 3453 3579 3418 3562 3415 3467 3421 3536 3595 3525 3491 3451 3509 3540 3474 3440 3497 3519 3539 3425 3536 3504 3410 3408 3404 3542 3528 3471 3393 3462 3481 3558 3573 3393 3477 3492 3467 3396 3350 3432 3446 3510 3476 3461 3431 3577 3434 3400 3368 3433 3474 3367 3395 3384 3444 3421 3406 3542 3433 3431 3362 3348 3391 3494 3414 3374 3499 3469 3432 3505 3433 3384 3431 3306 3429 3336 3487 3414 3544 3419 3473 3511 3499 3355 3336 3445 3489 3412 3431 3469 3425 3586 3442 3486 3412 3389 3512 3461 3492 3542 3445 3544 3452 3496 3320 3391 3387 3505 3384 3549 3337 3464 3305 3525 3471 3403 3461 3515 3486 3487 3550 3395 3429 3370 3451 3403 3417 3501 3512 3480 3527 3411 3538 3418 3500 3416 3480 3411 3419 3452 3369 3449 3526 3456 3406 3422 3449 3445 3340 3453 3392 3438 3558 3407 3485 3576 3490 3461 3401 3496 3472 3521 3428 3522 3581 3507 3487 3579 3451 3490 3451 3551 3575 3481 3494 3524 3614 3444 3602 3560 3398 3467 3470 3504 3591 3621 3414 3633 3459 3671 3485 3493 3513 3622 3502 3452 3403 3466 3509 3406 3521 3556 3632 3448 3404 3442 3476 3543 3529 3457 3532 3510 3615 3559 3626 3597 3686 3555 3512 3589 3522 3667 3649 3659 3699 3704 3683 3792 3780 3661 3637 3689 3653 3651 3538 3645 3659 3661 3626 3707 3713 3664 3603 3682 3667 3693 3638 3737 3587 3606 3590 3763 3652 3652 3665 3687 3672 3594 3646 3566 3652 3623 3510 3658 3563 3578 3654 3474 3435 3625 3608 3591 3706 3516 3674 3497 3691 3586 3607 3639 3697 3528 3610 3652 3696 3562 3590 3550 3587 3577 3710 3564 3564 3548 3635 3604 3540 3542 3475 3521 3519 3526 3719 3595 3584 3567 3480 3642 3575 3639 3602 3565 3603 3395 3368 3610 3486 3420 3422 3482 3437 3428 3554 3454 3401 3431 3460 3443 3492 3454 3468 3406 3419 3454 3536 3460 3447 3545 3521 3566 3455 3422 3422 3426 3443 3492 3426 3427 3386 3451 3560 3423 3512 3425 3501 3432 3535 3519 3555 3450 3383 3413 3373 3442 3384 3543 3545 3430 3518 3274 3442 3449 3431 3462 3572 3512 3394 3476 3379 3483 3402 3517 3613 3507 3416 3372 3413 3410 3357 3528 3432 3449 3397 3409 3509 3492 3613 3442 3547 3489 3443 3459 3511 3551 3527 3455 3593 3423 3561 3448 3516 3482 3532 3489 3461 3432 3479 3614 3439 3464 3371 3455 3401 3447 3475 3523 3564 3493 3504 3470 3412 3512 3514 3391 3362 3435 3507 3421 3432 3516 3509 3504 3490 3486 3413 3478 3571 3428 3538 3481 3475 3446 3516 3359 3577 3476 3421 3480 3634 3571 3512 3478 3493 3433 3359 3542 3626 3505 3476 3549 3561 3534 3588 3548 3521 3588 3565 3474 3500 3576 3565 3567 3579 3519 3608 3586 3662 3628 3622 3591 3461 3545 3555 3624 3673 3620 3654 3690 3773 3678 3661 3823 3822 3838 3816 3860 3853 3940 3946 3938 3723 3820 3911 3796 3753 3864 3748 3783 3886 3828 3749 3729 3697 3732 3802 3869 3666 3661 3772 3773 3723 3754 3686 3629 3732 3618 3627 3692 3704 3681 3639 3745 3586 3736 3806 3729 3859 3811 3815 3697 3846 3948 3734 3819 3778 3701 3734 3760 3669 3727 3802 3681 3702 3705 3773 3655 3653 3607 3684 3626 3663 3685 3634 3508 3621 3532 3527 3559 3523 3554 3504 3445 3607 3553 3486 3538 3535 3482 3576 3569 3580 3536 3573 3509 3445 3404 3606 3450 3572 3528 3433 3484 3577 3509 3590 3437 3645 3501 3554 3375 3457 3459 3539 3489 3564 3529 3510 3555 3598 3464 3684 3620 3463 3532 3545 3488 3463 3516 3562 3604 3570 3628 3606 3591 3528 3595 3633 3567 3574 3495 3584 3681 3544 3604 3614 3630 3534 3602 3658 3538 3631 3634 3613 3485 3581 3565 3576 3619 3554 3484 3632 3621 3518 3548 3511 3607 3599 3627 3571 3507 3636 3448 3444 3484 3439 3395 3526 3552 3537 3590 3508 3386 3615 3584 3557 3502 3555 3478 3605 3649 3592 3632 3634 3519 3612 3571 3615 3615 3717 3628 3655 3649 3582 3675 3562 3673 3784 3699 3702 3581 3704 3752 3580 3625 3685 3776 3760 3684 3716 3760 3674 3759 3596 3725 3629 3578 3651 3713 3681 3640 3753 3630 3631 3543 3600 3610 3507 3604 3497 3582 3550 3672 3551 3534 3484 3539 3524 3551 3518 3629 3483 3623 3470 3549 3500 3519 3466 3550 3568 3552 3544 3638 3453 3601 3482 3639 3463 3567 3547 3488 3461 3563 3639 3591 3449 3507 3565 3517 3593 3430 3471 3497 3523 3441 3431 3534 3530 3391 3421 3572 3506 3424 3485 3514 3485 3551 3523 3438 3469 3526 3511 3546 3528 3513 3567 3490 3423 3506 3558 3653 3535 3539 3595 3552 3521 3420 3496 3372 3426 3497 3515 3652 3476 3434 3466 3559 3525 3607 3474 3523 3483 3496 3532 3506 3510 3460 3535 3603 3474 3573 3556 3503 3459 3557 3520 3512 3606 3482 3563 3496 3520 3618 3696 3550 3546 3583 3552 3536 3504 3535 3556 3648 3584 3545 3507 3462 3388 3568 3523 3501 3449 3473 3504 3430 3478 3367 3579 3506 3481 3405 3493 3559 3506 3499 3478 3464 3347 3480 3571 3553 3514 3556 3455 3465 3403 3617 3526 3468 3512 3425 3436 3553 3604 3514 3496 3473 3589 3511 3419 3470 3486 3525 3437 3544 3544 3538 3508 3454 3553 3653 3537 3547 3464 3465 3530 3469 3573 3417 3516 3564 3426 3465 3429 3547 3467 3545 3606 3555 3529 3469 3437 3478 3481 3548 3539 3497 3481 3508 3516 3441 3471 3597 3641 3534 3489 3464 3497 3416 3568 3428 3441 3520 3473 3540 3538 3541 3515 3463 3365 3512 3438 3461 3485 3438 3507 3597 3548 3417 3397 3555 3451 3553 3547 3476 3477 3328 3480 3381 3526 3505 3639 3515 3542 3452 3528 3437 3500 3484 3466 3553 3416 3496 3530 3463 3541 3442 3505 3538 3543 3514 3500 3493 3521 3525 3465 3410 3482 3468 3465 3486 3543 3495 3483 3441 3551 3467 3523 3535 3528 3515 3383 3475 3600 3478 3452 3454 3578 3499 3552 3516 3532 3566 3439 3482 3480 3529 3481 3642 3643 3508 3426 3479 3574 3449 3552 3469 3486 3492 3485 3494 3457 3549 3528 3538 3593 3462 3546 3482 3451 3464 3463 3522 3517 3426 3459 3611 3479 3543 3596 3481 3443 3452 3453 3485 3498 3536 3651 3540 3444 3527 3439 3521 3419 3513 3478 3537 3470 3564 3484 3623 3546 3584 3557 3562 3457 3540 3441 3437 3512 3509 3488 3545 3483 3407 3586 3583 3428 3538 3529 3387 3431 3486 3581 3551 3594 3487 3521 3611 3595 3529 3459 3466 3444 3538 3491 3494 3413 3526 3383 3379 3342 3558 3536 3466 3496 3547 3536 3500 3408 3579 3516 3441 3588 3352 3451 3485 3473 3466 3599 3500 3539 3534 3377 3444 3487 3424 3553 3380 3504 3424 3443 3468 3472 3467 3355 3469 3406 3411 3532 3385 3499 3597 3537 3453 3510 3440 3453 3470 3388 3427 3489 3520 3457 3543 3550 3447 3444 3534 3445 3541 3452 3585 3536 3539 3483 3557 3458 3590 3375 3483 3635 3468 3378 3615 3502 3486 3485 3648 3484 3452 3584 3575 3437 3589 3515 3477 3484 3610 3498 3599 3452 3442 3544 3493 3532 3490 3655 3523 3552 3492 3586 3643 3568 3560 3582 3478 3618 3569 3595 3571 3561 3604 3587 3641 3604 3537 3636 3614 3612 3543 3521 3632 3621 3523 3691 3536 3595 3626 3537 3474 3679 3635 3488 3588 3538 3628 3586 3554 3488 3470 3542 3478 3549 3555 3632 3533 3446 3587 3403 3466 3523 3379 3515 3614 3473 3475 3583 3450 3449 3545 3391 3503 3491 3542 3487 3565 3477 3590 3579 3469 3321 3511 3551 3585 3455 3375 3525 3599 3459 3475 3574 3458 3600 3425 3524 3555 3417 3464 3421 3500 3549 3460 3469 3529 3468 3467 3569 3664 3472 3521 3481 3516 3550 3600 3571 3604 3480 3526 3516 3457 3541 3525 3492 3493 3518 3433 3610 3459 3558 3517 3479 3572 3665 3520 3509 3462 3521 3540 3484 3562 3418 3426 3471 3526 3550 3456 3524 3507 3467 3569 3487 3426 3625 3488 3487 3562 3562 3533 3537 3479 3453 3551 3601 3580 3577 3504 3438 3489 3504 3583 3452 3584 3612 3481 3546 3456 3453 3571 3495 3640 3433 3403 3555 3581 3488 3594 3506 3508 3533 3465 3426 3495 3507 3636 3499 3524 3536 3514 3576 3543 3515 3638 3598 3521 3478 3443 3438 3591 3471 3448 3420 3547 3511 3487 3567 3507 3472 3362 3466 3460 3568 3490 3554 3449 3519 3487 3528 3408 3528 3527 3482 3590 3563 3443 3425 3415 3503 3461 3494 3532 3577 3419 3421 3511 3502 3462 3597 3550 3673 3507 3525 3491 3491 3490 3542 3644 3528 3470 3577 3487 3542 3462 3505 3536 3503 3502 3575 3503 3539 3605 3520 3507 3408 3535 3624 3533 3568 3707 3577 3535 3576 3511 3447 3625 3667 3599 3633 3585 3683 3648 3574 3595 3643 3674 3682 3576 3682 3643 3582 3643 3760 3719 3722 3687 3523 3611 3655 3646 3597 3476 3545 3593 3571 3570 3511 3604 3691 3659 3477 3652 3426 3617 3562 3467 3525 3591 3630 3531 3514 3589 3664 3524 3534 3699 3648 3580 3522 3488 3683 3622 3617 3583 3531 3683 3584 3773 3673 3657 3609 3592 3673 3679 3726 3557 3744 3638 3640 3726 3738 3755 3558 3625 3527 3625 3591 3547 3620 3676 3703 3527 3590 3536 3703 3640 3644 3548 3638 3441 3520 3538 3673 3557 3471 3536 3497 3649 3571 3516 3491 3581 3572 3413 3446 3586 3498 3534 3531 3527 3493 3602 3436 3491 3586 3520 3528 3513 3542 3440 3551 3488 3533 3516 3513 3624 3507 3504 3528 3501 3487 3537 3574 3495 3542 3537 3513 3540 3434 3468 3523 3564 3554 3606 3562 3468 3566 3568 3526 3549 3403 3491 3534 3575 3513 3510 3561 3469 3434 3582 3496 3606 3514 3602 3538 3495 3630 3682 3538 3473 3492 3434 3534 3383 3514 3682 3534 3492 3456 3629 3531 3613 3490 3508 3542 3474 3488 3540 3557 3590 3507 3429 3370 3519 3422 3517 3581 3555 3612 3536 3439 3454 3486 3536 3471 3610 3507 3589 3474 3550 3442 3579 3466 3603 3438 3576 3457 3594 3405 3533 3598 3469 3561 3508 3476 3471 3413 3589 3462 3550 3395 3533 3567 3581 3553 3528 3573 3542 3525 3504 3546 3536 3448 3587 3475 3483 3485 3530 3551 3528 3523 3499 3545 3548 3523 3457 3553 3456 3445 3585 3574 3599 3467 3413 3561 3470 3501 3513 3479 3514 3585 3466 3552 3523 3504 3444 3530 3508 3553 3538 3540 3480 3574 3601 3521 3539 3605 3556 3423 3575 3511 3563 3581 3514 3409 3653 3609 3618 3477 3590 3627 3510 3526 3450 3613 3629 3577 3547 3568 3523 3510 3581 3561 3512 3611 3589 3620 3644 3463 3583 3541 3483 3632 3591 3569 3566 3530 3457 3551 3563 3578 3647 3485 3510 3530 3579 3468 3593 3542 3519 3614 3437 3464 3490 3467 3557 3569 3447 3574 3446 3651 3490 3538 3529 3514 3528 3544 3462 3431 3581 3588 3486 3556 3427 3456 3537 3441 3507 3584 3478 3475 3528 3528 3470 3473 3559 3515 3482 3454 3433 3484 3548 3400 3554 3402 3500 3527 3552 3461 3543 3518 3384 3460 3536 3509 3505 3517 3578 3515 3498 3492 3541 3549 3520 3555 3548 3434 3448 3576 3503 3562 3490 3498 3588 3513 3496 3558 3531 3474 3565 3533 3609 3464 3510 3548 3556 3547 3542 3497 3587 3523 3482 3650 3562 3597 3416 3423 3556 3568 3505 3507 3646 3529 3518 3570 3509 3519 3492 3483 3511 3485 3577 3596 3485 3504 3497 3530 3498 3431 3562 3426 3524 3432 3607 3641 3602 3450 3548 3600 3596 3529 3544 3610 3540 3617 3574 3469 3521 3481 3563 3609 3571 3556 3559 3550 3613 3612 3467 3492 3537 3538 3460 3508 3522 3583 3374 3572 3470 3504 3498 3579 3541 3591 3567 3482 3517 3532 3614 3453 3552 3501 3381 3569 3458 3488 3575 3525 3559 3524 3515 3440 3509 3538 3520 3582 3496 3459 3561 3562 3475 3612 3651 3552 3620 3495 3523 3569 3433 3554 3542 3572 3522 3452 3474 3564 3525 3635 3367 3553 3545 3558 3518 3436 3508 3529 3599 3523 3554 3537 3447 3536 3520 3577 3460 3433 3608 3579 3419 3427 3455 3511 3553 3473 3588 3628 3480 3418 3656 3406 3564 3436 3616 3555 3520 3557 3617 3620 3592 3552 3521 3588 3519 3503 3604 3540 3614 3508 3479 3568 3494 3559 3675 3538 3551 3524 3507 3488 3508 3445 3623 3449 3532 3411 3586 3450 3701 3613 3522 3461 3514 3557 3573 3511 3663 3597 3387 3562 3472 3512 3541 3410 3494 3533 3632 3552 3578 3593 3597 3566 3631 3578 3636 3568 3459 3472 3531 3539 3483 3554 3646 3497 3545 3570 3508 3588 3463 3518 3533 3489 3589 3563 3513 3508 3568 3597 3503 3532 3504 3607 3627 3545 3561 3610 3546 3535 3570 3731 3556 3562 3562 3457 3739 3462 3549 3506 3449 3688 3627 3672 3657 3653 3577 3560 3525 3608 3519 3627 3529 3656 3555 3659 3632 3532 3614 3592 3497 3630 3607 3625 3701 3633 3601 3526 3586 3541 3560 3558 3617 3639 3499 3654 3540 3667 3623 3580 3621 3601 3644 3650 3597 3641 3514 3606 3731 3591 3572 3629 3533 3708 3556 3655 3569 3587 3564 3634 3464 3686 3725 3577 3717 3743 3524 3405 3653 3703 3680 3550 3604 3547 3541 3642 3586 3662 3607 3613 3601 3615 3581 3634 3623 3558 3596 3620 3696 3672 3611 3561 3697 3729 3630 3658 3774 3634 3533 3664 3567 3487 3512 3657 3575 3535 3516 3540 3584 3619 3630 3630 3533 3557 3644 3515 3623 3589 3653 3610 3624 3583 3538 3633 3616 3584 3544 3612 3485 3557 3544 3700 3519 3620 3659 3595 3542 3578 3623 3601 3484 3553 3532 3562 3655 3603 3595 3554 3603 3771 3636 3585 3626 3559 3498 3570 3599 3578 3608 3578 3567 3717 3548 3545 3560 3646 3559 3510 3594 3591 3549 3505 3679 3561 3664 3547 3684 3616 3415 3634 3595 3574 3631 3656 3563 3624 3625 3562 3572 3540 3578 3544 3525 3562 3589 3504 3634 3577 3579 3632 3529 3684 3640 3610 3521 3548 3561 3561 3584 3474 3664 3590 3627 3500 3582 3667 3556 3541 3568 3639 3554 3544 3581 3515 3532 3641 3599 3585 3688 3553 3640 3561 3715 3621 3643 3573 3649 3601 3699 3474 3496 3564 3600 3486 3602 3606 3627 3554 3658 3593 3656 3532 3685 3627 3647 3538 3537 3688 3548 3659 3567 3501 3613 3612 3610 3711 3561 3685 3616 3636 3635 3621 3684 3684 3673 3632 3704 3752 3744 3658 3680 3640 3830 3722 3679 3787 3865 3734 3836 3870 3949 3802 3834 3882 3838 3875 3878 3904 3864 3832 3860 3708 3760 3767 3836 3818 3796 3792 3843 3871 3774 3790 3781 3810 3825 3790 3782 3755 3789 3890 3855 3894 3823 3785 3829 3887 3746 3798 3676 3840 3708 3790 3901 3876 3884 3777 3827 3809 3870 3778 3685 3766 3749 3837 3786 3777 3776 3734 3777 3741 3733 3760 3723 3610 3713 3678 3766 3737 3747 3724 3708 3783 3569 3693 3726 3723 3739 3606 3690 3788 3614 3739 3734 3665 3711 3611 3700 3520 3656 3678 3739 3690 3666 3674 3794 3706 3632 3578 3672 3722 3593 3758 3667 3693 3566 3626 3644 3764 3629 3688 3633 3743 3618 3775 3667 3585 3612 3753 3629 3691 3663 3687 3752 3604 3620 3731 3684 3583 3628 3640 3651 3701 3573 3604 3541 3657 3619 3516 3629 3579 3666 3579 3655 3606 3531 3610 3609 3643 3536 3541 3603 3544 3646 3689 3577 3576 3584 3600 3583 3621 3560 3653 3544 3583 3570 3736 3614 3630 3663 3598 3777 3701 3656 3478 3768 3674 3546 3653 3693 3666 3563 3677 3718 3749 3633 3704 3681 3643 3665 3718 3618 3580 3689 3659 3732 3724 3739 3725 3717 3754 3699 3805 3717 3754 3611 3640 3776 3712 3682 3674 3609 3742 3668 3722 3679 3720 3740 3747 3665 3745 3705 3718 3731 3670 3695 3673 3722 3703 3690 3703 3758 3734 3826 3704 3709 3763 3749 3626 3736 3772 3651 3712 3747 3633 3614 3663 3574 3596 3625 3693 3599 3642 3652 3601 3594 3552 3561 3576 3684 3657 3575 3700 3685 3706 3612 3558 3631 3665 3656 3645 3613 3610 3529 3617 3617 3742 3523 3613 3591 3645 3514 3490 3636 3541 3606 3501 3549 3685 3540 3542 3523 3717 3570 3616 3506 3541 3594 3643 3475 3615 3547 3521 3525 3632 3559 3649 3589 3680 3599 3609 3555 3652 3611 3443 3621 3612 3574 3601 3550 3635 3589 3639 3502 3588 3623 3563 3554 3640 3657 3642 3600 3578 3554 3688 3531 3661 3684 3611 3548 3753 3524 3608 3656 3657 3458 3496 3571 3599 3552 3592 3528 3506 3488 3591 3607 3585 3775 3455 3694 3592 3537 3486 3590 3647 3624 3484 3549 3677 3516 3654 3601 3560 3615 3558 3523 3516 3572 3621 3568 3486 3590 3514 3536 3570 3628 3546 3618 3591 3551 3595 3602 3609 3561 3512 3649 3626 3592 3489 3623 3562 3546 3619 3531 3562 3537 3493 3606 3510 3553 3487 3500 3589 3486 3594 3605 3563 3627 3553 3594 3511 3508 3608 3614 3574 3648 3633 3535 3603 3557 3448 3551 3483 3632 3611 3509 3528 3528 3614 3570 3566 3773 3625 3605 3557 3666 3498 3592 3483 3578 3585 3508 3517 3593 3601 3579 3563 3479 3667 3651 3572 3511 3718 3514 3537 3601 3543 3538 3588 3586 3604 3535 3560 3536 3582 3632 3519 3574 3556 3568 3557 3611 3637 3627 3569 3581 3641 3572 3635 3569 3561 3515 3662 3652 3722 3512 3528 3529 3632 3581 3534 3587 3584 3549 3689 3691 3606 3569 3618 3561 3541 3556 3617 3663 3617 3480 3628 3595 3573 3584 3559 3538 3533 3642 3634 3519 3547 3635 3607 3512 3516 3544 3688 3570 3555 3603 3492 3627 3510 3552 3607 3564 3565 3556 3621 3564 3475 3633 3457 3657 3654 3515 3666 3594 3493 3582 3590 3596 3529 3591 3645 3565 3589 3603 3640 3512 3562 3597 3648 3670 3494 3544 3518 3517 3595 3622 3506 3539 3478 3521 3600 3597 3548 3535 3598 3563 3686 3582 3583 3550 3574 3607 3591 3482 3579 3604 3563 3537 3684 3540 3648 3582 3565 3540 3550 3544 3637 3506 3575 3646 3547 3677 3571 3629 3522 3594 3635 3655 3566 3572 3545 3485 3605 3641 3586 3608 3567 3516 3585 3595 3545 3603 3562 3678 3577 3656 3720 3702 3542 3671 3521 3622 3601 3626 3653 3599 3713 3715 3625 3641 3713 3649 3607 3767 3575 3571 3619 3572 3519 3650 3636 3654 3575 3541 3589 3556 3563 3525 3592 3510 3504 3626 3624 3615 3612 3620 3601 3624 3673 3526 3671 3559 3530 3648 3478 3631 3601 3482 3489 3612 3602 3678 3724 3661 3599 3612 3533 3665 3569 3675 3628 3650 3604 3668 3631 3607 3610 3553 3577 3670 3612 3589 3597 3521 3600 3628 3708 3713 3609 3525 3595 3501 3571 3622 3689 3633 3714 3617 3601 3611 3640 3577 3686 3696 3561 3652 3657 3639 3501 3681 3689 3627 3598 3660 3685 3652 3582 3592 3529 3520 3589 3601 3720 3659 3582 3551 3618 3598 3731 3629 3702 3649 3595 3682 3562 3580 3523 3559 3629 3579 3626 3626 3594 3709 3722 3682 3611 3685 3498 3677 3629 3633 3567 3617 3595 3665 3647 3613 3550 3581 3530 3650 3602 3629 3537 3626 3546 3644 3597 3661 3495 3596 3582 3434 3575 3620 3582 3673 3492 3603 3618 3695 3541 3688 3519 3627 3490 3561 3678 3582 3691 3532 3582 3604 3606 3539 3503 3576 3502 3629 3545 3648 3638 3700 3628 3576 3690 3503 3646 3574 3667 3565 3603 3608 3665 3622 3598 3664 3641 3678 3623 3664 3616 3777 3610 3621 3680 3603 3529 3658 3575 3643 3646 3597 3580 3603 3662 3681 3650 3605 3474 3616 3629 3616 3666 3620 3634 3642 3610 3669 3618 3643 3524 3677 3498 3673 3668 3650 3639 3602 3648 3653 3545 3562 3683 3660 3587 3574 3709 3670 3582 3520 3577 3564 3613 3706 3679 3568 3608 3631 3497 3736 3648 3712 3687 3602 3563 3640 3688 3647 3637 3612 3617 3604 3717 3573 3704 3676 3701 3630 3670 3731 3661 3677 3675 3640 3622 3786 3649 3651 3666 3593 3731 3750 3775 3684 3709 3707 3724 3713 3767 3784 3745 3715 3683 3700 3749 3848 3758 3716 3704 3779 3796 3707 3753 3749 3816 3737 3786 3777 3733 3813 3838 3854 3769 3789 3796 3787 3847 3799 3794 3811 3788 3768 3854 3722 3776 3819 3730 3737 3837 3744 3765 3691 3799 3757 3730 3753 3806 3648 3696 3738 3680 3818 3736 3794 3668 3758 3703 3779 3673 3660 3768 3697 3735 3669 3690 3634 3773 3635 3786 3668 3709 3692 3654 3675 3697 3787 3714 3781 3789 3664 3633 3682 3733 3754 3686 3685 3649 3726 3659 3675 3706 3787 3755 3790 3711 3719 3811 3700 3626 3748 3757 3613 3615 3818 3652 3829 3715 3743 3671 3708 3641 3705 3662 3668 3648 3682 3694 3722 3800 3608 3601 3659 3721 3769 3551 3616 3634 3743 3586 3622 3676 3649 3702 3734 3730 3643 3649 3756 3666 3573 3631 3726 3616 3752 3707 3616 3652 3597 3561 3632 3650 3585 3785 3633 3619 3689 3616 3539 3646 3617 3701 3649 3640 3553 3699 3561 3651 3653 3611 3505 3602 3613 3636 3560 3668 3689 3679 3557 3494 3515 3706 3569 3590 3630 3587 3668 3651 3595 3674 3601 3565 3613 3607 3637 3519 3752 3647 3603 3687 3674 3648 3609 3607 3634 3807 3495 3662 3690 3581 3670 3557 3646 3704 3634 3643 3626 3610 3668 3740 3610 3629 3565 3803 3693 3765 3681 3635 3595 3641 3694 3686 3637 3681 3703 3580 3790 3687 3814 3690 3701 3663 3560 3729 3576 3593 3661 3609 3828 3631 3834 3691 3631 3741 3579 3662 3640 3626 3705 3709 3593 3610 3696 3789 3680 3648 3591 3777 3739 3743 3628 3619 3756 3603 3681 3597 3652 3695 3665 3730 3727 3697 3652 3552 3635 3577 3694 3628 3625 3601 3693 3690 3778 3758 3710 3628 3635 3536 3518 3610 3634 3692 3576 3656 3651 3629 3648 3606 3716 3711 3578 3579 3642 3648 3730 3704 3584 3639 3672 3719 3573 3689 3553 3561 3652 3606 3542 3553 3778 3563 3528 3556 3610 3532 3633 3584 3632 3632 3588 3636 3638 3625 3618 3651 3554 3652 3560 3611 3531 3717 3588 3611 3653 3732 3552 3672 3608 3629 3594 3591 3499 3691 3506 3633 3478 3478 3644 3620 3592 3608 3591 3578 3593 3657 3675 3536 3555 3781 3557 3610 3585 3585 3614 3604 3562 3595 3640 3534 3613 3598 3686 3550 3610 3690 3646 3584 3594 3465 3634 3624 3726 3546 3559 3628 3635 3636 3650 3528 3614 3629 3563 3607 3682 3653 3739 3682 3647 3698 3664 3662 3609 3604 3662 3651 3552 3655 3595 3627 3610 3619 3702 3664 3589 3695 3679 3550 3603 3720 3638 3635 3646 3646 3538 3659 3645 3605 3585 3555 3573 3564 3594 3589 3639 3601 3655 3666 3589 3547 3609 3699 3638 3672 3631 3656 3680 3633 3564 3598 3624 3704 3480 3682 3700 3617 3550 3584 3671 3583 3643 3794 3623 3529 3679 3573 3648</counts>
			</dataPoints>
		</scan>
	</xrdMeasurement>
</xrdMeasurements>
