<?xml version="1.0"?>
<xrdMeasurements xmlns="http://www.xrdml.com/XRDMeasurement/2.3" xmlns:xsi="http://www.w3.org/2001/XMLSchema-instance" xsi:schemaLocation="http://www.xrdml.com/XRDMeasurement/2.3 http://www.xrdml.com/XRDMeasurement/2.3/XRDMeasurement.xsd" status="Completed" recordIdentifier="{EFF94296-73DF-4E19-A80D-CCBDE8D46D50}">
	<comment>
		<entry/>
	</comment>
	<sample type="To be analyzed">
		<id>GPSS_Li1p6Mg0p6Cu0p2Nb0p2Cl4_122325_694ae824ae15af25ac37277a</id>
		<name></name>
		<preparedBy></preparedBy>
	</sample>
	<xrdMeasurement measurementType="Scan" status="Completed" sampleMode="Reflection">
		<usedWavelength intended="K-Alpha 1">
			<kAlpha1 unit="Angstrom">1.5405980</kAlpha1>
			<kAlpha2 unit="Angstrom">1.5444260</kAlpha2>
			<kBeta unit="Angstrom">1.3922500</kBeta>
			<ratioKAlpha2KAlpha1>0.5000</ratioKAlpha2KAlpha1>
		</usedWavelength>
		<incidentBeamPath>
			<radius unit="mm">145.00</radius>
			<xRayTube id="1010048" name="Empyrean Cu LFF HR (9430 033 7310x)">
				<tension unit="kV">40.0</tension>
				<current unit="mA">15.0</current>
				<anodeMaterial>Cu</anodeMaterial>
				<focus type="Line">
					<length unit="mm">12.0</length>
					<width unit="mm">0.4</width>
					<takeOffAngle unit="deg">6.0</takeOffAngle>
				</focus>
			</xRayTube>
			<sollerSlit id="21010002" name="Soller slits 0.04 rad.">
				<opening unit="rad">0.0400</opening>
			</sollerSlit>
			<mask id="22031000" name="Fixed mask 13 mm">
				<width unit="mm">9.00</width>
			</mask>
			<divergenceSlit id="22120001" name="Divergence slit 1°" xsi:type="fixedDivergenceSlitType">
				<distanceToSample unit="mm">50.00</distanceToSample>
				<height unit="mm">1.52</height>
			</divergenceSlit>
		</incidentBeamPath>
		<sampleMovement xsi:type="spinningSampleMovementType">
			<spinnerRevolutionTime unit="seconds">1.0</spinnerRevolutionTime>
		</sampleMovement>
		<diffractedBeamPath>
			<radius unit="mm">145.00</radius>
			<antiScatterSlit id="22090040" name="AS slit 9 mm (PIXcel)" xsi:type="fixedAntiScatterSlitType">
				<height unit="mm">9.00</height>
			</antiScatterSlit>
			<sollerSlit id="21020003" name="Large Soller slits 0.04 rad.">
				<opening unit="rad">0.0400</opening>
			</sollerSlit>
			<filter id="20030001" name="Large beta-filter Nickel">
				<material>Ni</material>
				<thickness unit="mm">0.020</thickness>
			</filter>
			<detector id="7010019" name="PIXcel1D-Medipix3 detector" xsi:type="rtmsDetectorType">
				<phd unit="keV">
					<lowerLevel>4.02</lowerLevel>
					<upperLevel>11.27</upperLevel>
				</phd>
				<mode>Scanning</mode>
				<activeLength unit="deg">5.542</activeLength>
			</detector>
		</diffractedBeamPath>
		<scan appendNumber="0" mode="Continuous" scanAxis="Gonio" status="Completed">
			<header>
				<startTimeStamp>2025-12-25T13:58:39-08:00</startTimeStamp>
				<endTimeStamp>2025-12-25T14:06:46-08:00</endTimeStamp>
				<author>
					<name>AutomatedUser</name>
				</author>
				<source>
					<applicationSoftware version="1.7b (136)">PANalytical Aeris Instrument Suite</applicationSoftware>
					<instrumentControlSoftware version="3.2.00000000 20240306">AERIS</instrumentControlSoftware>
					<instrumentID>950485</instrumentID>
				</source>
			</header>
			<dataPoints>
				<positions axis="2Theta" unit="deg">
					<startPosition>10.00943322</startPosition>
					<endPosition>99.99442286</endPosition>
				</positions>
				<positions axis="Omega" unit="deg">
					<startPosition>5.00471661</startPosition>
					<endPosition>49.99721143</endPosition>
				</positions>
				<commonCountingTime unit="seconds">12.495</commonCountingTime>
				<counts unit="counts">2872 2897 2856 2806 2851 2810 2860 2959 2878 2848 2884 2884 2886 2881 2797 2912 2902 2792 2932 2968 2848 2866 2862 3000 2888 2939 2905 2799 2919 2882 2879 3009 2738 2915 2913 2937 2864 2883 2911 2812 2864 2812 2865 2885 2932 2855 2864 2958 2974 2846 2957 2968 2873 2865 2870 2940 2925 2868 2902 2931 2907 2920 2944 2971 2894 2832 2979 2946 2904 2901 2895 3005 2852 2858 2914 2958 2886 2844 2970 2852 3005 2956 2891 2898 2888 2942 2964 2929 2974 2907 2973 2915 2882 2876 2956 2970 3038 2896 2983 3017 2992 2876 3018 2990 2979 2975 2938 2915 2825 2915 2955 2903 3003 2956 2847 2862 2932 2879 2988 2927 2960 2875 3048 2935 2984 2912 2910 2832 2955 2934 2954 2948 2939 2897 3007 2938 2968 2987 2999 2875 2888 2900 2918 2973 2974 2889 2908 2962 2899 2851 2974 2992 2870 2891 2837 3015 2895 3052 2917 2913 2934 2933 2921 2885 2849 2954 2914 3023 2944 2937 2861 2999 2900 2894 2920 2894 2924 2930 2910 2955 2882 2876 2897 2786 2949 2840 2835 2934 2976 2873 2885 2884 2949 2953 2862 2958 2909 2887 2823 2991 2931 2856 2873 2768 2838 2845 2896 2872 2866 2901 2812 2868 2808 2836 2877 2811 2937 2900 2866 2799 2781 2767 2802 2944 2803 2928 2827 2814 2803 2802 2836 2722 2835 2820 2766 2786 2770 2692 2859 2831 2783 2803 2881 2929 2809 2729 2768 2750 2808 2853 2713 2809 2703 2732 2769 2859 2794 2726 2684 2838 2779 2765 2729 2734 2712 2730 2795 2822 2695 2753 2773 2789 2730 2810 2733 2720 2781 2737 2846 2877 2802 2726 2662 2771 2777 2808 2761 2705 2668 2795 2805 2714 2757 2805 2811 2836 2745 2783 2755 2767 2821 2749 2800 2797 2735 2701 2826 2797 2787 2823 2874 2764 2765 2708 2978 2823 2760 2864 2858 2867 2888 2768 2796 2891 2837 2926 2898 2863 2911 2893 2926 2871 2865 3028 2889 2921 2964 2957 2858 2899 2945 2926 2851 2940 2960 2988 2914 2958 2980 2897 2994 2821 2948 2915 3001 3038 3035 2956 2935 3038 3061 3087 3018 3040 3190 3008 3084 2985 3060 2988 3109 3063 3105 3134 3101 3020 3029 3095 2987 3092 3019 3089 2993 3205 3190 3064 3108 3218 3127 3182 3146 3208 3128 3135 3222 3145 3098 3193 3098 3261 3251 3222 3085 3164 3210 3106 3189 3272 3217 3243 3327 3173 3127 3263 3060 3181 3314 3168 3157 3294 3314 3274 3336 3210 3255 3260 3276 3232 3311 3221 3263 3285 3202 3222 3275 3244 3342 3198 3329 3246 3248 3273 3313 3325 3289 3268 3311 3251 3326 3298 3326 3345 3510 3322 3267 3327 3303 3396 3386 3394 3403 3387 3320 3432 3442 3380 3328 3371 3356 3390 3211 3269 3366 3237 3345 3216 3148 3214 3125 3149 3146 3169 3221 3089 3103 3082 3164 3224 3057 3183 3104 3079 3173 3061 3107 3103 2995 3100 3142 3101 3044 3042 2992 3005 3071 3055 3067 3093 3003 3108 3066 3005 2946 3009 2914 3034 2988 2860 2994 2935 3011 2937 3026 2982 2929 2870 3003 2832 2942 3010 2844 2967 3038 2907 2925 2984 3004 2923 2912 2869 2932 2855 2835 2752 2916 2879 2823 2824 2826 2890 2827 2858 2867 2916 2836 2841 2781 2730 2802 2831 2843 2723 2696 2833 2756 2871 2807 2749 2742 2826 2629 2772 2748 2735 2842 2784 2673 2721 2773 2696 2811 2723 2846 2721 2766 2795 2762 2691 2746 2676 2730 2664 2651 2652 2699 2791 2668 2727 2703 2692 2669 2606 2638 2693 2692 2634 2595 2725 2627 2650 2699 2621 2556 2671 2791 2526 2677 2682 2597 2660 2608 2706 2626 2693 2602 2623 2593 2630 2627 2680 2627 2669 2664 2683 2677 2576 2591 2607 2559 2601 2567 2501 2646 2585 2602 2659 2634 2500 2535 2669 2559 2619 2592 2585 2633 2517 2626 2499 2639 2528 2625 2594 2555 2390 2614 2621 2611 2491 2559 2566 2626 2535 2654 2530 2557 2503 2619 2579 2593 2488 2592 2579 2519 2541 2513 2545 2611 2552 2574 2461 2561 2567 2519 2476 2528 2582 2583 2528 2541 2543 2555 2523 2495 2525 2574 2538 2569 2574 2446 2571 2610 2597 2662 2512 2511 2470 2497 2469 2466 2495 2522 2469 2530 2395 2474 2485 2516 2542 2461 2518 2551 2524 2476 2445 2516 2517 2527 2451 2512 2537 2516 2526 2446 2433 2497 2581 2522 2494 2564 2467 2407 2424 2489 2499 2490 2541 2283 2385 2471 2444 2606 2496 2476 2528 2390 2446 2479 2467 2400 2417 2482 2479 2464 2443 2427 2470 2515 2402 2516 2496 2421 2419 2440 2466 2391 2490 2521 2498 2363 2409 2446 2363 2430 2426 2553 2517 2497 2462 2418 2441 2346 2428 2478 2428 2398 2463 2446 2469 2389 2558 2390 2420 2373 2384 2415 2401 2574 2368 2447 2385 2383 2450 2411 2320 2448 2341 2364 2433 2440 2450 2443 2331 2463 2471 2411 2379 2381 2388 2403 2437 2403 2443 2386 2315 2413 2413 2439 2297 2372 2371 2376 2354 2456 2372 2431 2402 2374 2298 2264 2407 2388 2392 2355 2352 2262 2354 2376 2330 2358 2368 2287 2368 2390 2433 2393 2454 2332 2392 2343 2212 2318 2341 2327 2371 2324 2275 2389 2257 2371 2288 2338 2326 2393 2380 2282 2392 2431 2285 2319 2334 2348 2260 2350 2321 2354 2242 2319 2362 2313 2350 2241 2367 2250 2302 2237 2274 2299 2324 2257 2316 2218 2259 2324 2281 2313 2345 2253 2212 2310 2403 2274 2253 2366 2292 2323 2343 2244 2260 2217 2229 2202 2335 2232 2299 2389 2264 2302 2262 2305 2247 2215 2236 2289 2364 2289 2186 2201 2227 2236 2253 2240 2289 2295 2163 2330 2158 2327 2222 2221 2217 2166 2259 2286 2240 2288 2147 2321 2262 2200 2227 2312 2174 2274 2289 2289 2227 2216 2221 2222 2274 2246 2203 2259 2141 2307 2169 2260 2157 2248 2210 2189 2242 2217 2229 2187 2321 2164 2193 2233 2190 2278 2223 2193 2244 2228 2233 2246 2189 2194 2171 2282 2189 2239 2213 2304 2233 2239 2234 2294 2207 2314 2204 2240 2178 2232 2151 2265 2201 2214 2142 2092 2214 2186 2132 2203 2257 2251 2181 2250 2226 2291 2214 2263 2219 2275 2319 2203 2246 2193 2253 2197 2189 2154 2345 2315 2315 2221 2219 2217 2199 2271 2174 2245 2257 2211 2225 2280 2281 2224 2233 2137 2215 2244 2202 2211 2278 2261 2262 2259 2179 2183 2248 2271 2341 2251 2165 2239 2200 2278 2218 2208 2284 2314 2239 2261 2259 2254 2233 2230 2299 2170 2238 2213 2223 2217 2284 2297 2192 2246 2264 2296 2181 2174 2199 2208 2221 2255 2171 2165 2111 2147 2150 2136 2226 2212 2236 2195 2111 2227 2192 2250 2264 2253 2065 2226 2129 2152 2159 2195 2175 2177 2205 2137 2100 2201 2103 2176 2171 2124 2127 2151 2218 2134 2105 2133 2090 2047 2121 2002 2091 2084 2160 2142 2118 2068 2052 2100 2008 2076 2016 2081 2000 2039 1999 2131 2107 2005 1936 2041 2028 2001 2051 1997 1990 1999 2014 2041 2017 2011 2026 1966 2026 2019 1968 1987 1964 1999 1946 1911 1918 1964 1895 1943 1950 2002 1925 1912 1942 1838 1926 1982 1911 1932 1928 1854 1864 1904 1849 1912 1829 1878 1881 1908 1844 1803 1792 1825 1867 1986 1833 1820 1822 1796 1931 1788 1817 1717 1822 1866 1713 1825 1833 1836 1763 1822 1776 1773 1804 1836 1817 1781 1798 1826 1687 1784 1714 1787 1776 1727 1699 1778 1790 1847 1748 1874 1727 1685 1710 1693 1794 1737 1697 1794 1757 1739 1687 1730 1770 1790 1772 1779 1843 1826 1793 1744 1794 1751 1772 1802 1859 1738 1823 1768 1733 1736 1712 1769 1771 1741 1712 1783 1827 1870 1832 1836 1900 1794 1923 1899 1889 1921 1937 1939 1976 1943 1987 2008 2005 1897 2056 1966 2086 1955 2007 2004 1871 1895 1773 1834 1753 1748 1750 1647 1727 1698 1669 1610 1649 1651 1587 1670 1602 1649 1605 1591 1589 1663 1559 1649 1624 1574 1601 1581 1654 1587 1551 1657 1639 1636 1627 1678 1612 1648 1603 1609 1636 1552 1551 1698 1580 1610 1609 1585 1534 1615 1599 1573 1648 1538 1659 1666 1571 1601 1504 1554 1591 1629 1646 1538 1663 1520 1609 1607 1640 1663 1612 1652 1642 1618 1555 1610 1654 1524 1591 1671 1645 1622 1652 1593 1553 1579 1598 1666 1528 1645 1573 1572 1619 1676 1554 1633 1604 1649 1643 1607 1669 1640 1602 1582 1640 1571 1561 1555 1524 1568 1630 1591 1619 1573 1604 1646 1502 1665 1617 1684 1586 1619 1544 1620 1666 1660 1606 1603 1546 1648 1600 1671 1631 1606 1668 1586 1585 1586 1647 1576 1655 1609 1598 1585 1614 1594 1536 1634 1621 1661 1575 1652 1658 1677 1613 1666 1619 1631 1652 1671 1620 1659 1598 1593 1617 1530 1620 1627 1515 1654 1677 1636 1568 1559 1688 1566 1638 1631 1572 1579 1616 1613 1609 1671 1594 1525 1608 1575 1614 1635 1620 1568 1593 1612 1589 1605 1608 1645 1539 1571 1574 1541 1538 1675 1490 1604 1617 1594 1556 1563 1600 1547 1639 1607 1560 1547 1531 1569 1576 1537 1514 1469 1581 1531 1515 1509 1557 1531 1564 1553 1493 1473 1500 1452 1550 1491 1509 1450 1518 1515 1523 1528 1557 1433 1502 1423 1501 1506 1491 1496 1423 1452 1438 1406 1527 1459 1427 1455 1477 1440 1491 1427 1413 1373 1381 1475 1475 1363 1381 1417 1479 1355 1408 1435 1469 1413 1406 1416 1368 1363 1409 1430 1410 1389 1352 1380 1407 1358 1354 1363 1342 1434 1297 1367 1315 1319 1324 1314 1376 1328 1308 1372 1379 1353 1316 1326 1347 1387 1405 1268 1286 1326 1365 1310 1322 1419 1309 1377 1393 1311 1245 1294 1348 1332 1300 1339 1310 1364 1294 1262 1297 1335 1330 1340 1366 1351 1319 1343 1340 1379 1329 1345 1412 1445 1399 1430 1417 1410 1441 1471 1527 1390 1466 1499 1493 1468 1473 1469 1471 1486 1416 1525 1442 1541 1535 1587 1519 1622 1638 1632 1633 1724 1766 1812 1806 1954 1922 1931 1995 2034 2069 2093 2128 2132 2141 2221 2110 2098 2087 2041 1928 1854 1920 1701 1717 1583 1524 1537 1482 1471 1410 1401 1381 1306 1271 1251 1314 1269 1259 1258 1332 1263 1262 1264 1305 1218 1237 1230 1270 1223 1227 1275 1161 1233 1257 1276 1190 1260 1127 1178 1262 1181 1227 1196 1150 1243 1207 1243 1178 1234 1142 1261 1273 1162 1155 1253 1240 1275 1265 1303 1299 1417 1436 1428 1477 1479 1514 1586 1669 1780 1776 1839 1994 2085 2244 2272 2348 2435 2532 2424 2518 2628 2594 2631 2517 2586 2578 2558 2727 2817 2834 2800 3056 3056 3241 3350 3514 3675 3829 4261 4418 4782 5111 5423 5611 5895 6185 6426 6891 7054 7347 7319 7615 7662 7764 7376 7540 7195 6822 6380 5966 5589 5138 4692 4212 3809 3700 3509 3183 3141 2903 2773 2647 2634 2716 2704 2705 2728 2780 2773 2804 2933 2848 2848 2955 2827 2911 2758 2755 2675 2633 2523 2413 2354 2163 2043 1978 1879 1795 1633 1640 1557 1471 1333 1316 1283 1252 1227 1213 1228 1174 1140 1191 1177 1180 1084 1117 1055 1044 1089 1096 1077 1067 1075 1058 1079 1112 1054 1072 977 1126 1049 1056 1037 1070 1065 1030 1030 1066 1033 1058 1058 949 1029 1086 994 1028 1038 987 1002 1007 1017 1024 960 1056 998 984 996 977 1012 1022 1004 1056 1010 1041 1006 1036 1017 1033 1032 984 997 1009 1043 1006 1010 1009 984 1002 979 977 1012 918 996 993 930 995 922 954 937 957 919 978 969 958 951 952 986 977 1005 953 964 936 961 1006 999 948 1025 988 967 972 1001 944 973 945 876 910 903 977 936 960 976 930 898 961 965 994 965 893 939 928 907 908 916 939 937 975 926 949 960 922 947 934 900 891 910 898 935 913 898 959 910 939 947 934 911 948 892 978 946 950 965 968 946 944 904 981 973 918 919 934 966 885 923 946 959 892 956 919 900 888 947 934 942 953 976 907 897 927 910 935 945 922 894 883 921 935 915 945 906 941 920 984 922 964 952 926 982 897 837 920 865 917 853 909 888 887 948 884 898 909 862 879 865 925 875 929 824 912 910 915 930 915 939 974 839 864 912 897 897 912 872 886 910 870 925 844 910 890 901 893 844 878 892 848 892 910 866 896 865 889 875 890 910 886 876 872 912 846 899 818 901 891 860 885 948 925 906 926 956 913 959 930 912 892 901 896 966 876 864 881 909 899 892 871 935 891 944 903 873 956 903 905 899 910 812 889 865 902 986 862 920 893 934 925 895 915 887 911 904 931 970 920 993 991 897 954 916 975 987 940 984 965 938 960 970 985 1052 1003 1060 1080 1126 1200 1257 1233 1366 1396 1470 1606 1781 1788 1818 1926 2009 2076 2044 2138 2171 2206 2126 2210 2221 2280 2307 2301 2551 2334 2447 2556 2784 2858 3054 3308 3396 3636 3914 4195 4418 4709 4925 5139 5324 5504 5814 6014 6251 6203 6623 6622 6363 6368 6199 5848 5732 5252 5008 4593 4402 3941 3706 3376 3125 3080 2740 2525 2427 2239 2166 1940 1958 1978 1944 1922 1966 1905 1920 1966 1971 2113 2008 2114 2181 2162 2213 2248 2293 2267 2266 2128 2153 2088 2077 1940 1944 1804 1790 1612 1560 1509 1470 1336 1314 1261 1222 1173 1095 1055 1000 1028 1005 1014 939 934 902 912 915 904 902 941 896 912 877 911 913 872 846 833 871 826 862 863 910 844 888 874 861 898 840 797 869 806 807 880 858 884 849 837 830 840 820 809 839 922 826 857 864 815 892 853 838 796 815 813 844 850 828 841 873 813 823 809 841 799 823 797 832 807 854 826 845 771 887 826 834 837 849 820 846 835 823 793 797 776 847 838 808 789 810 761 813 825 815 800 841 831 855 814 834 811 818 855 806 757 822 817 793 811 849 836 774 770 847 796 825 809 801 771 756 795 811 821 860 797 762 808 825 786 814 762 768 791 842 796 815 782 774 759 812 797 827 822 793 796 843 773 790 796 738 782 847 749 797 730 821 810 794 806 757 823 791 760 783 778 795 762 730 753 798 791 735 824 808 832 814 830 770 797 751 764 779 725 808 828 797 772 862 767 761 782 842 769 768 740 816 809 833 820 821 826 826 842 782 780 787 839 821 830 787 820 796 757 852 816 826 807 877 792 810 814 884 857 866 833 839 883 920 881 899 843 908 842 920 875 901 875 887 872 851 875 862 837 788 877 773 798 864 807 822 771 806 797 755 770 716 794 733 756 757 727 733 785 680 737 713 777 761 730 728 749 786 737 753 735 772 742 732 780 763 769 727 773 744 776 717 735 787 749 779 757 734 710 722 702 758 746 771 743 718 731 723 713 738 726 755 738 754 799 736 734 681 724 727 724 726 709 739 679 741 710 761 733 759 720 700 752 705 771 700 711 729 760 743 728 718 727 711 708 748 730 800 735 724 742 749 734 807 686 754 718 738 710 746 760 695 724 737 718 721 755 720 688 742 705 743 714 753 718 793 705 703 711 765 709 764 685 675 743 671 702 691 741 685 698 730 742 726 696 707 717 709 704 759 687 691 711 674 710 676 677 754 731 720 716 709 728 694 718 729 735 763 721 694 689 671 706 713 738 676 683 697 724 705 662 717 685 702 691 686 696 739 705 717 755 738 720 724 689 712 745 712 705 708 727 719 684 731 665 658 707 694 717 704 650 724 665 745 649 758 718 717 683 750 713 737 728 702 688 697 719 707 661 797 725 722 704 742 720 721 727 706 678 751 718 650 729 680 730 701 738 737 728 726 696 693 709 715 674 678 712 691 703 706 729 713 665 723 714 706 682 712 717 722 702 756 766 668 673 702 751 725 726 746 713 757 743 819 737 735 729 725 733 738 672 706 709 750 735 714 737 690 734 709 734 664 720 656 775 723 702 729 731 702 717 718 737 735 710 776 727 713 696 695 728 704 665 695 648 733 726 690 674 724 625 695 648 674 718 669 656 681 751 693 673 683 715 697 682 702 661 730 696 753 669 682 727 702 677 721 697 682 667 679 668 668 677 678 711 684 709 657 699 670 698 684 659 686 657 649 699 705 676 713 721 685 647 683 670 673 683 675 701 689 687 603 664 681 699 753 682 707 753 693 702 666 714 723 711 734 778 750 754 689 726 715 745 704 745 746 790 734 744 702 756 710 758 769 742 755 840 792 771 768 785 872 803 861 803 860 841 854 887 857 905 882 861 799 832 781 774 750 799 766 815 771 728 668 766 681 725 727 735 736 753 701 673 695 681 718 716 703 729 750 715 690 643 721 681 722 684 713 661 667 671 661 653 660 720 663 703 678 692 660 686 691 681 666 639 698 684 666 690 647 672 704 667 657 689 756 691 598 648 770 640 679 651 634 701 685 646 674 676 696 626 672 695 710 685 730 688 669 682 670 648 720 676 671 672 730 697 670 714 659 697 692 669 675 636 622 667 710 666 720 689 633 677 685 706 660 675 663 646 630 654 618 635 697 625 691 658 633 641 699 682 647 682 672 688 650 623 635 674 702 656 665 670 696 713 668 637 673 659 693 594 675 622 673 707 659 659 681 646 726 645 649 689 726 669 684 679 661 715 633 694 677 687 703 698 659 701 681 653 647 692 632 714 684 703 668 662 656 667 654 692 680 651 703 687 685 635 660 674 726 673 729 666 712 674 726 695 684 752 835 779 770 760 820 857 834 839 855 863 932 880 910 938 920 907 1012 1003 1064 1035 1088 1123 1074 1203 1216 1272 1281 1288 1284 1386 1386 1457 1484 1496 1556 1636 1680 1641 1738 1695 1612 1602 1554 1497 1493 1435 1339 1317 1230 1225 1213 1134 1125 1061 1044 955 935 894 863 772 824 787 779 739 724 724 728 657 674 706 657 699 713 687 708 695 670 723 698 697 694 673 658 677 649 638 644 642 662 656 660 610 638 689 674 640 633 632 650 617 655 654 642 659 739 626 655 651 646 650 658 620 695 628 612 638 635 632 641 650 658 645 657 690 635 634 665 630 652 608 693 654 662 676 630 666 664 633 639 660 669 647 673 652 678 669 685 642 703 659 620 660 693 676 638 651 660 620 624 683 633 675 678 653 649 687 636 686 642 639 610 639 659 632 666 666 644 641 676 676 660 655 639 639 644 669 662 631 651 664 639 631 680 683 647 618 672 676 670 608 674 629 691 659 644 688 654 681 634 718 639 640 659 639 669 694 673 692 746 613 684 681 677 692 657 691 695 689 656 689 651 696 680 668 671 660 692 670 636 725 690 658 636 596 675 622 639 706 688 704 640 649 649 654 616 697 641 662 676 617 688 644 633 656 671 689 677 695 635 691 635 700 668 721 624 654 669 670 712 659 627 677 675 699 667 713 687 647 712 647 698 682 712 714 719 666 662 691 703 680 691 675 708 656 720 656 684 691 679 666 687 672 656 645 683 660 684 690 644 678 723 619 659 654 669 676 704 662 667 711 699 704 688 704 666 711 707 735 680 707 675 686 702 661 719 646 681 639 661 667 639 713 696 701 677 697 659 704 697 695 709 660 741 669 735 705 714 683 711 674 723 695 751 696 723 804 725 715 731 760 765 745 811 767 883 893 897 869 953 961 1003 1130 1163 1253 1414 1427 1497 1498 1653 1682 1751 1715 1810 1830 1880 1983 2022 2046 2237 2371 2411 2560 2764 2765 3043 3243 3457 3671 3764 4035 4330 4563 4833 4898 5311 5324 5705 6001 6024 6268 6197 6231 6212 6166 6000 5620 5486 5183 4837 4616 4148 4016 3855 3407 3205 3108 2958 2726 2533 2260 2064 1901 1623 1538 1466 1394 1247 1254 1237 1139 1168 1099 1168 1137 1151 1165 1142 1207 1154 1169 1178 1168 1156 1204 1256 1307 1301 1365 1376 1354 1440 1405 1359 1447 1616 1549 1647 1600 1527 1548 1508 1480 1490 1470 1391 1373 1241 1248 1251 1195 1114 1127 1123 1089 1037 996 955 896 882 879 814 784 808 798 750 734 721 653 746 709 686 677 679 669 681 664 712 680 672 647 679 679 674 618 642 681 628 622 653 647 678 691 647 642 652 645 628 681 621 644 657 625 666 680 621 678 649 656 645 671 634 667 650 626 676 625 657 664 596 657 604 653 625 600 651 667 589 604 626 599 638 661 620 594 648 644 569 640 637 649 658 621 649 667 656 645 619 646 609 628 638 651 646 617 659 627 614 620 656 635 622 650 647 659 653 626 624 652 642 660 645 635 652 618 628 625 629 693 646 615 641 642 621 644 681 618 656 686 674 682 689 675 724 660 702 667 653 714 681 706 712 663 713 713 691 722 731 686 703 699 684 693 704 638 636 592 676 704 652 669 650 664 660 607 639 621 629 591 655 633 638 599 608 562 658 618 614 628 603 615 624 650 648 634 620 639 594 648 632 649 599 619 604 612 632 632 626 601 648 571 597 614 634 618 613 679 646 646 650 638 649 603 615 640 609 608 617 604 649 569 616 616 609 600 585 594 603 590 628 621 583 628 605 580 578 606 655 612 651 614 612 596 637 636 593 601 637 600 601 615 582 624 612 634 580 581 643 534 610 618 630 622 587 597 607 601 609 624 619 582 598 603 599 637 577 682 606 646 652 646 638 600 596 644 623 628 626 625 596 596 591 576 579 637 633 577 610 618 635 626 602 619 611 638 592 591 605 615 593 607 631 555 614 604 603 602 594 620 522 575 588 578 578 613 607 600 591 593 558 597 609 603 610 588 593 590 624 596 574 568 587 584 636 617 638 643 579 576 572 577 559 558 588 546 589 607 591 607 584 600 598 624 590 589 568 570 606 550 562 547 600 598 603 601 584 594 624 561 600 612 569 569 618 634 562 623 594 640 608 582 601 617 606 606 532 663 565 573 632 580 582 612 589 589 608 556 584 585 600 550 541 591 601 612 603 593 594 577 594 599 589 534 542 586 579 587 604 599 539 578 579 645 568 558 590 585 520 607 609 572 557 604 580 582 582 568 634 578 577 597 573 598 592 581 577 571 586 606 586 585 573 594 549 603 576 600 528 559 555 559 568 580 634 568 583 592 580 611 612 621 598 628 550 575 601 590 579 609 573 604 633 567 588 581 577 640 602 611 647 626 615 638 609 610 636 599 630 633 612 636 588 617 586 584 596 546 602 646 594 562 611 600 579 600 648 581 612 650 587 588 597 614 576 578 570 564 571 564 566 614 588 574 551 577 575 560 623 584 573 520 578 583 564 611 563 579 586 592 611 567 542 543 546 589 592 593 610 536 550 585 556 577 565 555 613 602 597 614 587 603 584 573 560 569 593 570 579 615 521 594 598 511 524 526 570 578 609 592 549 580 585 544 603 574 561 606 567 576 591 549 578 579 579 566 601 569 553 594 556 550 616 551 563 555 567 554 572 597 580 561 551 522 613 552 589 595 612 565 535 562 566 577 621 606 556 565 540 591 603 582 560 578 589 622 547 565 574 596 635 582 616 539 541 616 621 631 585 577 565 557 610 608 632 599 608 570 575 564 578 600 570 603 622 608 608 580 617 634 613 624 588 623 640 639 647 674 655 656 680 689 713 681 678 689 741 690 701 758 731 749 721 700 675 692 654 645 688 683 677 645 672 672 686 667 682 616 683 649 672 647 659 670 654 636 679 680 660 681 717 784 778 856 837 878 874 925 857 872 939 979 975 1052 1048 1048 1090 1146 1127 1185 1239 1320 1314 1411 1481 1558 1675 1707 1772 1774 1953 1939 2014 2036 2199 2143 2266 2142 2149 2125 2099 1957 2027 1754 1787 1778 1722 1628 1528 1531 1516 1411 1309 1357 1284 1259 1189 1192 1135 992 942 907 861 764 756 770 771 778 734 733 705 734 719 710 666 742 663 719 711 717 774 741 734 774 777 775 803 781 786 842 814 755 888 885 857 881 923 914 941 915 962 910 976 1007 978 1064 1121 1010 1046 1036 982 999 1022 1001 992 980 921 902 891 838 812 867 837 803 846 737 759 789 721 773 736 690 662 684 689 641 658 591 594 595 633 578 622 642 596 634 592 583 608 581 600 562 528 569 535 581 547 565 577 573 577 593 541 530 567 538 547 539 522 528 586 573 596 591 572 543 525 594 541 564 521 577 568 532 579 569 536 548 582 543 616 517 544 493 544 568 558 556 570 572 553 559 568 555 562 568 572 557 556 594 576 577 551 554 571 544 590 538 556 539 603 577 520 593 537 558 517 541 510 535 583 571 566 542 600 592 548 582 543 580 577 576 524 557 574 590 554 569 521 544 594 558 557 615 539 572 569 561 575 565 591 542 652 593 592 631 627 639 660 651 700 705 754 716 732 735 736 782 753 806 815 865 876 879 919 983 987 1007 1036 1092 1147 1181 1288 1271 1338 1393 1458 1488 1607 1500 1527 1600 1564 1593 1582 1546 1470 1469 1401 1399 1362 1297 1298 1203 1204 1131 1131 1117 1070 1033 1050 1005 994 899 933 855 819 818 731 728 658 712 670 688 636 635 572 639 631 624 661 603 604 613 603 657 651 640 636 617 631 665 623 643 672 623 662 617 632 663 681 742 705 717 761 743 718 707 762 773 804 821 802 825 762 766 802 715 762 816 795 798 773 812 762 783 796 778 733 728 749 694 653 658 675 643 626 629 600 602 625 631 579 614 580 601 554 581 538 548 546 565 543 566 585 549 555 511 553 582 543 526 564 586 524 557 549 537 558 549 535 505 546 562 555 535 520 512 533 558 557 517 527 512 512 551 517 566 551 576 526 558 540 549 536 543 588 534 561 539 568 536 574 543 570 541 569 550 600 561 578 619 599 644 581 569 552 610 611 584 629 639 609 579 642 655 609 652 629 641 703 670 657 684 737 703 758 686 663 732 744 682 693 720 673 665 685 611 629 625 599 664 618 622 613 579 557 592 615 630 564 572 556 615 584 589 537 548 567 526 524 498 544 530 520 549 490 541 536 539 542 545 511 558 512 552 527 536 510 555 517 545 535 526 530 497 501 541 518 493 524 512 529 505 520 532 526 517 529 514 545 520 513 546 530 527 495 535 525 524 500 512 528 508 533 453 511 505 572 499 544 501 521 536 505 516 519 519 529 504 514 530 497 557 494 533 454 532 541 521 499 523 514 532 518 524 509 553 531 550 538 476 550 559 515 469 503 505 523 537 477 534 520 569 518 536 498 539 590 509 505 485 556 536 541 537 506 470 512 521 508 508 482 508 549 564 528 531 541 527 488 532 528 508 489 526 513 458 545 520 516 493 519 502 474 510 520 487 516 517 516 535 532 504 507 519 534 499 527 498 548 530 483 536 491 497 493 540 496 528 498 538 511 508 512 470 520 486 488 523 509 505 486 498 478 499 510 507 516 461 484 510 486 515 517 499 495 493 482 496 503 529 522 480 538 485 529 547 511 521 543 518 510 532 471 547 465 574 547 503 501 494 486 496 457 508 529 529 493 524 504 494 479 488 499 505 510 498 490 531 530 509 502 510 488 498 468 497 552 514 487 504 536 512 529 510 560 543 534 507 537 546 550 522 546 517 497 545 532 544 563 559 540 602 578 546 596 567 586 537 562 537 608 535 599 544 556 577 538 591 562 609 543 558 525 572 568 538 591 530 566 549 577 508 515 543 520 547 519 483 510 501 511 525 467 548 514 481 542 509 507 488 524 509 501 530 503 536 484 505 491 554 511 506 514 499 470 511 531 498 524 536 540 476 504 497 484 487 487 453 476 539 505 498 480 508 436 544 489 517 463 496 505 487 470 541 543 496 510 497 473 474 505 504 493 519 524 530 475 491 477 486 493 517 510 480 487 498 538 539 510 492 478 484 547 488 478 504 466 494 523 529 534 589 482 505 503 514 441 533 503 484 507 492 503 487 527 473 485 512 504 524 527 506 506 491 499 519 497 505 499 531 517 546 528 522 504 530 482 512 505 607 560 549 522 582 577 578 563 555 599 534 597 625 595 596 663 620 610 657 650 652 700 671 702 614 656 731 713 741 688 701 731 731 703 727 688 651 609 608 612 638 624 625 612 572 601 604 570 581 655 599 602 545 580 569 540 556 541 529 540 525 511 530 509 515 514 506 493 499 531 531 531 498 540 514 532 530 556 508 550 492 488 538 514 525 497 532 478 494 518 475 429 471 474 496 525 529 522 509 495 477 484 518 443 478 506 483 483 519 467 513 489 486 491 506 499 512 491 499 462 506 518 458 497 511 509 510 474 532 491 463 488 479 473 495 472 490 484 533 471 503 458 527 438 498 461 509 501 462 470 494 483 490 488 486 457 513 484 501 492 494 481 553 503 515 457 498 495 541 498 479 483 484 486 452 467 470 500 484 478 494 520 500 468 509 506 482 510 514 492 478 450 502 500 492 476 529 508 507 471 514 498 497 476 531 477 480 515 493 545 494 461 483 502 461 509 487 520 494 503 548 522 521 507 484 497 511 488 503 455 508 461 469 519 517 502 467 490 455 540 469 485 493 525 478 507 508 456 505 503 498 533 472 516 449 529 462 463 484 476 476 450 509 523 494 468 505 511 509 530 489 509 579 512 500 477 502 552 519 514 523 519 514 541 504 505 512 518 513 511 512 546 514 495 517 563 526 529 551 496 563 563 617 533 592 603 593 613 689 597 654 648 664 626 674 780 743 700 773 756 797 747 865 859 869 905 945 934 1029 975 942 994 998 1032 1012 1089 1077 974 968 968 1000 911 908 921 905 821 812 859 844 822 765 827 820 769 791 720 754 699 708 774 657 615 612 571 595 602 555 609 562 506 566 514 511 528 533 505 549 552 515 528 529 531 534 526 532 510 525 500 527 548 515 544 516 522 527 539 531 476 506 553 542 536 563 566 506 536 559 571 532 566 552 581 578 563 538 568 536 594 540 555 544 613 600 615 596 552 573 607 587 554 564 550 561 553 556 598 580 558 555 515 565 534 563 519 540 502 532 535 596 528 533 536 517 518 551 518 500 551 508 474 481 524 544 508 488 517 516 523 505 541 474 513 537 480 518 490 497 492 488 540 489 504 548 507 543 476 515 512 508 556 497 491 512 515 503 527 542 544 509 535 517 503 527 497 576 554 567 569 594 551 557 621 582 582 585 544 565 529 512 553 556 525 565 529 487 547 536 503 553 487 510 515 576 526 551 532 559 550 519 530 502 508 507 536 523 520 500 490 511 534 489 480 486 498 470 524 474 485 471 494 468 472 495 470 468 479 453 518 502 490 493 476 491 500 475 481 474 498 451 455 553 515 468 488 494 493 519 489 486 492 515 501 516 508 507 490 498 521 542 472 539 465 474 470 439 470 497 493 495 505 494 479 511 467 508 500 477 477 469 505 464 484 523 532 497 504 476 501 496 479 474 489 502 509 482 483 495 493 510 488 489 525 469 469 498 482 521 522 508 477 526 530 544 452 486 482 489 487 464 535 456 542 518 489 466 536 456 511 503 431 493 459 524 460 490 481 479 459 485 506 500 483 513 492 489 466 479 480 498 518 470 483 502 492 433 462 506 453 517 506 490 448 509 462 506 492 486 511 482 462 470 498 520 459 485 481 483 473 561 477 481 462 508 465 496 476 531 507 528 458 485 491 503 460 516 490 490 521 492 513 493 466 513 449 513 523 508 467 463 492 431 526 503 495 466 481 460 508 501 490 460 510 472 518 508 508 470 499 499 485 503 446 505 480 460 473 495 509 470 490 483 501 458 490 517 486 540 523 499 491 463 482 539 498 486 465 477 451 489 509 511 519 526 513 490 485 490 474 524 466 499 463 496 532 503 495 520 527 521 512 483 472 519 527 486 528 461 511 515 530 480 487 506 527 456 528 533 469 522 511 527 476 509 468 518 515 485 469 470 533 522 489 471 509 487 519 493 502 480 450 478 462 521 465 508 515 507 495 493 475 491 497 487 503 470 506 521 513 483 511 457 514 489 508 503 514 503 485 446 475 473 505 493 509 504 514 510 464 496 503 467 519 468 473 555 471 498 501 508 499 488 500 538 493 518 495 492 524 532 557 496 513 498 494 524 474 519 494 507 514 477 504 504 477 498 444 470 520 454 500 518 503 507 523 485 494 520 526 498 517 519 517 515 558 513 531 523 557 487 489 558 487 518 534 512 522 561 549 538 520 549 564 538 563 571 589 545 552 574 630 600 619 681 678 678 660 636 720 671 608 640 653 657 614 616 640 572 609 626 558 626 592 620 616 577 595 577 561 605 613 624 603 575 603 648 600 609 632 582 651 617 651 617 630 652 640 702 668 701 720 717 756 790 836 848 824 869 883 893 905 931 990 1020 1058 1027 1008 1035 1028 1018 979 949 924 891 856 879 791 802 780 767 743 760 776 756 740 760 829 777 720 733 750 728 764 739 641 689 629 591 593 588 630 584 590 549 541 540 561 514 526 502 505 569 516 513 461 485 510 516 492 503 554 500 508 527 516 550 587 524 538 538 529 529 569 527 554 549 501 493 544 499 525 548 503 528 535 599 584 565 575 558 633 562 581 598 592 612 648 594 638 579 627 602 631 657 629 654 663 637 646 705 687 709 658 665 642 658 646 688 672 695 630 681 638 619 615 621 625 618 586 619 604 556 610 580 566 611 583 604 544 612 589 557 560 592 517 543 552 556 561 520 528 539 521 531 528 523 511 507 551 542 526 527 507 546 519 509 521 562 501 512 543 525 527 520 502 486 489 535 538 510 528 494 524 542 539 558 549 513 524 515 519 533 531 525 569 497 550 528 580 563 555 561 572 575 638 588 583 640 633 612 685 708 673 702 686 749 791 795 777 855 870 863 913 924 939 929 1057 1066 1068 1200 1127 1181 1313 1231 1379 1474 1430 1420 1397 1446 1466 1396 1417 1299 1308 1243 1246 1148 1147 1025 1053 1082 1019 1039 1025 988 1009 977 978 908 973 981 952 943 977 918 901 912 827 845 784 783 726 742 641 719 665 585 595 570 619 573 603 555 608 562 550 547 572 497 598 537 548 502 563 539 540 538 524 521 555 582 538 546 543 516 544 531 529 554 535 573 580 544 546 534 575 569 574 577 560 605 585 571 533 577 578 620 599 592 604 609 621 621 633 638 654 673 638 668 674 687 705 697 676 721 693 714 686 733 736 705 702 715 706 688 659 735 641 686 655 706 664 680 656 649 626 629 608 651 667 608 662 636 627 575 612 569 630 574 626 591 552 574 611 526 551 543 565 540 556 577 525 564 546 573 554 549 584 521 582 615 599 553 525 613 526 511 546 564 588 531 578 555 546 563 554 559 550 600 528 575 534 560 507 525 535 522 501 529 532 525 505 548 522 502 584 544 529 547 530 493 562 507 515 503 503 499 507 500 499 492 546 483 488 547 475 528 509 523 500 499 505 487 529 496 561 501 465 483 576 460 486 481 522 482 506 501 487 523 475 480 516 523 506 528 540 498 502 487 474 502 484 475 497 469 493 531 508 475 493 509 492 447 516 515 494 505 471 533 494 518 439 506 490 469 514 505 493 487 497 507 545 516 478 499 519 494 511 469 504 512 496 525 471 545 536 543 509 482 444 474 543 493 512 474 488 496 514 488 489 489 515 488 470 489 483 467 468 482 504 497 499 499 520 466 515 483 484 509 492 479 493 500 499 446 499 512 437 519 525 496 481 484 459 503 422 487 513 501 464 496 506 497 502 474 489 501 505 503 446 499 515 459 457 502 479 519 475 456 502 515 457 511 525 477 526 495 457 472 501 504 504 514 488 492 501 485 465 449 499 491 462 483 470 483 510 481 486 508 474 471 480 481 458 474 490 477 472 501 570 489 490 474 483 472 479 523 505 519 465 481 471 514 505 493 490 482 493 515 452 459 505 472 487 470 428 491 479 501 480 529 477 477 496 444 447 456 501 519 501 514 490 484 458 512 503 515 473 495 469 485 467 476 498 481 507 478 514 506 507 462 483 501 513 473 510 512 494 481 481 474 474 476 484 511 480 494 538 482 470 502 507 526 507 452 513 503 470 491 480 476 486 522 481 456 497 470 524 508 534 511 474 489 474 488 500 486 475 474 527 529 469 492 485 481 476 426 489 468 503 504 498 512 479 483 483 462 511 477 500 489 494 501 503 473 470 480 546 527 483 515 455 502 517 500 506 508 534 500 488 468 517 464 450 474 507 461 463 486 550 508 518 513 530 487 450 489 505 515 506 483 471 505 493 488 517 478 526 494 506 507 490 480 486 514 503 510 500 501 526 485 505 544 485 542 561 482 528 511 531 536 537 505 550 513 536 545 544 540 569 563 570 543 587 567 589 593 574 564 584 570 658 671 631 644 646 611 641 635 618 600 563 585 605 607 594 548 557 549 574 550 569 561 559 622 580 573 553 554 573 509 526 535 531 545 556 547 543 564 519 540 496 507 524 505 493 469 487 508 490 529 496 491 509 492 502 505 466 502 497 505 522 465 497 497 495 509 509 531 481 505 485 457 473 506 519 440 517 463 538 500 533 497 499 471 492 469 470 510 515 493 486 490 501 503 501 479 477 485 478 469 513 464 508 512 504 472 483 439 479 497 493 524 516 483 492 493 520 487 512 468 491 462 488 510 522 507 482 490 490 472 485 464 472 446 495 483 463 447 485 495 502 511 496 504 433 464 506 503 513 521 499 492 475 467 501 503 495 542 510 519 466 515 501 511 497 480 512 506 480 488 498 483 521 469 491 504 506 492 473 488 482 491 476 528 486 511 494 481 473 516 540 472 477 516 500 510 493 469 507 515 517 475 484 498 498 499 479 506 500 500 509 543 475 489 489 536 464 494 525 497 527 529 450 537 560 503 521 514 473 574 540 497 471 544 527 495 525 528 505 529 513 527 552 554 543 545 515 530 533 523 499 562 547 505 511 523 524 593 582 569 560 615 643 592 685 669 717 719 787 768 807 804 851 847 907 912 961 1017 998 1045 1068 1137 1128 1282 1250 1308 1366 1375 1438 1406 1454 1423 1447 1382 1303 1330 1223 1220 1178 1109 1038 1038 982 968 972 982 951 967 992 993 996 976 975 982 963 989 1039 1026 1029 983 1011 950 886 915 831 820 801 750 760 729 743 662 704 655 649 648 607 598 573 509 530 591 493 523 534 533 544 560 565 545 572 527 504 515 538 541 512 508 553 504 511 528 476 500 501 534 533 540 542 496 492 507 530 500 507 496 542 483 505 500 554 547 503 515 558 523 544 530 556 540 545 491 569 507 552 535 514 570 521 540 539 580 547 578 575 604 547 631 618 559 632 577 611 595 666 579 621 660 649 692 611 643 630 666 628 668 632 686 697 704 650 611 639 640 631 658 617 625 633 631 571 611 593 601 595 639 576 599 580 619 613 614 627 633 626 620 600 600 658 573 601 613 585 578 553 560 594 594 552 530 581 505 567 548 548 557 521 536 605 530 543 535 507 529 524 541 549 509 576 537 491 498 537 520 544 522 533 495 467 532 541 527 480 511 494 500 484 509 501 526 528 442 489 448 505 499 489 522 467 480 448 502 497 492 507 496 525 495 481 488 517 479 545 466 526 464 476 459 503 502 495 479 510 529 499 518 496 485 489 481 489 463 495 482 466 465 493 496 469 457 456 507 497 488 496 499 493 466 430 479 499 475 528 477 462 481 469 482 485 476 461 508 468 491 517 452 483 505 467 505 463 501 482 470 482 523 520 477 543 535 514 518 475 485 472 464 497 484 508 477 486 497 465 503 551 502 486 497 456 458 456 467 532 473 475 487 476 494 435 498 503 475 475 471 437 495 448 489 461 456 447 491 475 487 475 484 495 470 489 492 484 491 425 493 517 446 500 472 512 505 487 512 468 472 490 467 446 449 523 444 460 481 474 501 507 491 503 498 456 453 503 489 510 462 513 478 468 508 434 465 491 497 501 444 467 452 500 491 509 507 495 515 476 457 520 435 517 454 486 470 469 456 484 478 517 497 465 463 471 475 495 480 494 525 480 485 476 514 518 479 521 514 495 487 494 520 487 518 500 515 533 452 479 500 522 526 487 504 567 498 521 499 522 518 479 509 495 539 477 502 478 507 490 493 496 488 485 469 472 490 488 527 520 476 491 495 499 537 494 487 481 513 488 466 517 484 500 519 491 513 505 539 477 502 522 507 525 476 512 474 470 514 525 493 498 490 469 443 451 461 478 472 495 502 497 488 490 492 453 500 482 530 428 506 467 479 444 459 446 486 438 468 506 474 505 464 526 475 470 515 518 502 465 508 504 527 482 478 493 509 478 523 519 531 508 456 518 473 456 529 505 523 473 559 508 558 451 476 494 491 484 481 472 506 482 525 473 501 480 503 487 457 496 462 521 499 470 490 455 511 484 513 513 510 495 541 484 482 460 506 551 526 509 532 564 518 584 569 596 550 592 590 612 611 681 614 660 650 669 694 699 711 716 689 804 804</counts>
			</dataPoints>
		</scan>
	</xrdMeasurement>
</xrdMeasurements>
