<?xml version="1.0"?>
<xrdMeasurements xmlns="http://www.xrdml.com/XRDMeasurement/2.3" xmlns:xsi="http://www.w3.org/2001/XMLSchema-instance" xsi:schemaLocation="http://www.xrdml.com/XRDMeasurement/2.3 http://www.xrdml.com/XRDMeasurement/2.3/XRDMeasurement.xsd" status="Completed" recordIdentifier="{AE13DFDD-78ED-401E-AD33-C65BF1FFF54A}">
	<comment>
		<entry/>
	</comment>
	<sample type="To be analyzed">
		<id>GPSS_Li1p8Mg0p8Y0p2Cl4_111725_691b7e20f3837ac4a0a9936e</id>
		<name></name>
		<preparedBy></preparedBy>
	</sample>
	<xrdMeasurement measurementType="Scan" status="Completed" sampleMode="Reflection">
		<usedWavelength intended="K-Alpha 1">
			<kAlpha1 unit="Angstrom">1.5405980</kAlpha1>
			<kAlpha2 unit="Angstrom">1.5444260</kAlpha2>
			<kBeta unit="Angstrom">1.3922500</kBeta>
			<ratioKAlpha2KAlpha1>0.5000</ratioKAlpha2KAlpha1>
		</usedWavelength>
		<incidentBeamPath>
			<radius unit="mm">145.00</radius>
			<xRayTube id="1010048" name="Empyrean Cu LFF HR (9430 033 7310x)">
				<tension unit="kV">40.0</tension>
				<current unit="mA">15.0</current>
				<anodeMaterial>Cu</anodeMaterial>
				<focus type="Line">
					<length unit="mm">12.0</length>
					<width unit="mm">0.4</width>
					<takeOffAngle unit="deg">6.0</takeOffAngle>
				</focus>
			</xRayTube>
			<sollerSlit id="21010002" name="Soller slits 0.04 rad.">
				<opening unit="rad">0.0400</opening>
			</sollerSlit>
			<mask id="22031000" name="Fixed mask 13 mm">
				<width unit="mm">9.00</width>
			</mask>
			<divergenceSlit id="22120001" name="Divergence slit 1°" xsi:type="fixedDivergenceSlitType">
				<distanceToSample unit="mm">50.00</distanceToSample>
				<height unit="mm">1.52</height>
			</divergenceSlit>
		</incidentBeamPath>
		<sampleMovement xsi:type="spinningSampleMovementType">
			<spinnerRevolutionTime unit="seconds">1.0</spinnerRevolutionTime>
		</sampleMovement>
		<diffractedBeamPath>
			<radius unit="mm">145.00</radius>
			<antiScatterSlit id="22090040" name="AS slit 9 mm (PIXcel)" xsi:type="fixedAntiScatterSlitType">
				<height unit="mm">9.00</height>
			</antiScatterSlit>
			<sollerSlit id="21020003" name="Large Soller slits 0.04 rad.">
				<opening unit="rad">0.0400</opening>
			</sollerSlit>
			<filter id="20030001" name="Large beta-filter Nickel">
				<material>Ni</material>
				<thickness unit="mm">0.020</thickness>
			</filter>
			<detector id="7010019" name="PIXcel1D-Medipix3 detector" xsi:type="rtmsDetectorType">
				<phd unit="keV">
					<lowerLevel>4.02</lowerLevel>
					<upperLevel>11.27</upperLevel>
				</phd>
				<mode>Scanning</mode>
				<activeLength unit="deg">5.542</activeLength>
			</detector>
		</diffractedBeamPath>
		<scan appendNumber="0" mode="Continuous" scanAxis="Gonio" status="Completed">
			<header>
				<startTimeStamp>2025-11-19T11:35:11-08:00</startTimeStamp>
				<endTimeStamp>2025-11-19T11:43:18-08:00</endTimeStamp>
				<author>
					<name>AutomatedUser</name>
				</author>
				<source>
					<applicationSoftware version="1.7b (136)">PANalytical Aeris Instrument Suite</applicationSoftware>
					<instrumentControlSoftware version="3.2.00000000 20240306">AERIS</instrumentControlSoftware>
					<instrumentID>950485</instrumentID>
				</source>
			</header>
			<dataPoints>
				<positions axis="2Theta" unit="deg">
					<startPosition>10.00943322</startPosition>
					<endPosition>99.99442286</endPosition>
				</positions>
				<positions axis="Omega" unit="deg">
					<startPosition>5.00471661</startPosition>
					<endPosition>49.99721143</endPosition>
				</positions>
				<commonCountingTime unit="seconds">12.495</commonCountingTime>
				<counts unit="counts">2923 2837 2896 2895 2858 2873 2762 2910 2815 2837 2812 2819 2876 2896 2881 2764 2804 2749 2877 2867 2833 2804 2847 2791 2786 2918 2901 2877 2884 2797 2720 2855 2778 2825 2903 2871 2880 2879 2850 2776 2758 2900 2843 2752 2873 2931 2856 2922 2818 2881 2840 2841 2838 2838 2914 2763 2835 2897 2744 2915 2886 2860 2848 2871 2878 2900 2847 2979 2847 2862 2755 2832 2780 2901 2924 2818 2812 2869 2908 2755 2859 2793 2818 2865 2924 2958 2750 2853 2888 2823 2813 2806 2896 2890 2857 2893 2903 2903 2837 2796 2774 2794 2803 2907 2887 2856 2809 2870 2799 2870 2885 2799 2877 2788 2959 2877 2844 2845 2904 2820 2836 2791 3012 2797 2812 2864 2836 2799 2855 2889 2903 2881 2855 2784 2878 2946 2832 2872 2815 2917 2960 2994 2908 2819 2876 2781 2935 2905 2863 2890 2865 2787 2803 2895 2765 2818 2831 2790 2783 2813 2920 2881 2869 2833 2791 2820 2815 2901 2943 2817 2909 2804 2770 2870 2857 2812 2721 2835 2827 2853 2780 2782 2807 2820 2817 2783 2827 2865 2791 2859 2859 2763 2874 2757 2815 2737 2727 2740 2717 2693 2861 2788 2816 2742 2842 2646 2699 2686 2733 2751 2759 2757 2768 2723 2780 2722 2657 2688 2720 2709 2675 2577 2717 2657 2621 2514 2636 2765 2712 2695 2642 2730 2654 2602 2703 2651 2686 2676 2636 2660 2683 2611 2679 2693 2730 2684 2706 2674 2627 2623 2635 2652 2505 2688 2524 2549 2696 2544 2713 2583 2586 2554 2537 2550 2616 2593 2516 2505 2530 2617 2580 2571 2515 2571 2537 2522 2527 2598 2544 2538 2515 2536 2529 2563 2570 2610 2588 2564 2492 2450 2428 2547 2461 2503 2442 2446 2688 2657 2628 2499 2581 2503 2655 2465 2532 2478 2511 2486 2549 2510 2470 2537 2500 2571 2567 2494 2404 2526 2431 2516 2528 2612 2529 2466 2565 2498 2547 2597 2523 2491 2524 2498 2518 2448 2553 2541 2494 2518 2528 2418 2363 2469 2537 2467 2534 2543 2604 2495 2592 2512 2549 2596 2431 2535 2572 2313 2566 2440 2483 2550 2539 2605 2663 2544 2586 2649 2568 2585 2484 2510 2526 2454 2557 2538 2538 2600 2538 2480 2430 2537 2560 2594 2570 2553 2639 2579 2537 2573 2614 2653 2583 2565 2768 2621 2613 2619 2641 2611 2529 2680 2769 2630 2661 2635 2717 2663 2681 2657 2759 2819 2782 2703 2748 2920 2882 2807 2908 2817 2895 2951 3034 3031 3014 2972 3075 3127 3119 3230 3216 3111 3311 3084 3170 3239 3247 3154 3164 3267 3146 3122 3108 3161 3085 3156 3110 3128 3036 3032 2975 2891 2943 2821 2885 2916 2844 2796 2886 2721 2829 2753 2769 2780 2796 2876 2841 2824 2825 2821 2754 2778 2741 2806 2778 2850 2802 2777 2859 2834 2851 2803 2818 2818 2822 2725 2834 2762 2756 2742 2725 2785 2750 2784 2737 2788 2811 2795 2700 2776 2773 2739 2769 2752 2831 2876 2722 2657 2840 2798 2792 2811 2768 2716 2761 2748 2722 2721 2825 2794 2801 2839 2884 2910 2877 2887 2825 2823 2928 2881 2924 2815 2842 2869 2961 2878 2960 2885 2928 2914 2791 2775 2812 2750 2847 2657 2770 2808 2753 2778 2668 2694 2632 2656 2642 2579 2569 2640 2578 2566 2527 2592 2522 2568 2502 2486 2554 2472 2540 2584 2505 2557 2465 2526 2532 2588 2541 2442 2445 2351 2500 2448 2402 2497 2484 2565 2541 2428 2528 2494 2435 2386 2462 2482 2370 2495 2565 2462 2390 2501 2439 2434 2407 2446 2436 2366 2495 2354 2412 2492 2409 2420 2440 2482 2486 2416 2433 2323 2393 2391 2448 2481 2452 2333 2419 2268 2309 2405 2369 2286 2298 2348 2302 2399 2285 2413 2342 2431 2328 2282 2354 2365 2355 2290 2314 2338 2354 2442 2336 2318 2398 2369 2373 2412 2364 2412 2490 2430 2455 2516 2366 2528 2423 2432 2509 2485 2596 2466 2580 2497 2508 2610 2519 2603 2483 2487 2498 2528 2570 2529 2506 2439 2473 2420 2488 2486 2452 2499 2375 2444 2320 2341 2391 2312 2353 2312 2384 2397 2209 2286 2343 2246 2219 2204 2342 2257 2161 2312 2189 2339 2175 2306 2198 2262 2307 2248 2213 2271 2258 2241 2285 2219 2342 2200 2242 2276 2299 2283 2225 2150 2282 2235 2220 2232 2235 2222 2139 2229 2212 2223 2215 2279 2189 2176 2182 2190 2158 2192 2179 2203 2193 2206 2290 2215 2291 2203 2132 2223 2124 2229 2159 2337 2204 2173 2114 2243 2234 2217 2244 2200 2233 2201 2139 2241 2159 2094 2138 2187 2140 2158 2218 2043 2194 2014 2173 2180 2100 2132 1993 2163 2033 2188 2156 2134 2148 2088 2175 2148 2052 2187 2150 2195 2012 2104 2039 2079 2072 2152 2055 2147 2141 2077 2153 2142 2220 2145 2043 2126 2063 2048 2052 2076 2130 2135 2064 2085 2089 2065 2086 2057 2037 2068 2017 2040 2018 1987 2063 1967 2165 2099 2091 2063 1982 2006 2062 2072 1977 2009 2058 2043 2103 2042 2112 2044 2046 2074 1991 2020 2019 2051 2069 2055 1970 2059 2006 2023 2125 2116 1991 2052 2031 2086 2017 1996 2075 1989 2032 1952 2047 2047 2039 2079 1988 2053 2069 1984 2080 1957 1991 2036 2080 1953 2017 2013 1972 1937 2057 1998 1986 1938 2010 1959 1971 2002 2059 1994 2068 2016 2023 1942 1968 2035 1967 1986 2023 1929 2029 2016 2038 2037 1970 1929 1960 1986 2041 1976 2066 2028 1969 2022 2000 1974 1934 2033 1912 1985 2010 2029 2023 2003 1993 1927 2018 1892 1977 1903 2024 1939 2044 1972 1954 1880 1984 1938 1955 1960 1998 1899 2016 1983 1917 1914 1923 1995 1912 1925 1971 1938 1890 2041 1880 1951 1949 1946 1931 1941 1891 1889 1958 1852 1978 1863 1910 1943 1896 1891 1979 1844 1873 1840 1838 1950 1823 1807 1933 1917 1963 1886 1872 1905 1875 1897 1878 1774 1885 1826 1903 1921 1862 1849 1776 1971 1839 1955 1850 1905 1951 1885 1901 1950 1968 1924 1954 1860 1867 1874 1821 1903 1899 1870 1903 1890 1931 1873 1828 1864 1872 1868 1846 1884 1907 1886 1907 1886 1852 1860 1932 1932 1949 2002 1934 1925 1865 1923 1969 1898 1951 1874 1901 1905 1920 1853 1894 1845 1942 1945 1906 1880 1913 1895 1831 1842 1965 1985 1901 1974 1919 1949 1893 1896 1879 1875 1995 1957 1944 1903 1956 1832 1851 1788 1840 1872 1871 1899 1827 1853 1870 1866 1879 1874 1928 1925 1833 1902 1872 1858 1868 1865 1916 1905 1938 1826 1881 1900 1898 1915 1979 1840 1865 1880 1839 1891 1864 1898 1917 1882 1838 1882 1898 1815 1888 1850 1778 1762 1838 1862 1859 1833 1869 1819 1948 1843 1876 1815 1857 1821 1763 1853 1905 1901 1797 1841 1893 1884 1853 1845 1852 1959 1871 1908 1841 1948 1850 1867 1838 1711 1926 1788 1840 1857 1873 1742 1858 1922 1789 1896 1823 1758 1842 1791 1710 1731 1746 1823 1829 1816 1837 1804 1819 1797 1826 1789 1846 1916 1846 1821 1807 1800 1749 1863 1816 1762 1747 1786 1755 1742 1860 1773 1785 1794 1835 1755 1753 1672 1734 1766 1745 1832 1773 1768 1685 1742 1703 1773 1804 1764 1767 1825 1770 1781 1768 1763 1789 1820 1787 1787 1804 1733 1724 1784 1812 1864 1893 1864 1837 1768 1670 1782 1689 1694 1773 1776 1787 1807 1833 1741 1823 1772 1742 1678 1692 1632 1726 1546 1672 1611 1640 1694 1654 1619 1621 1635 1538 1697 1635 1621 1651 1629 1565 1673 1624 1581 1599 1493 1556 1527 1639 1596 1639 1608 1592 1532 1565 1625 1568 1642 1575 1566 1553 1546 1452 1582 1638 1484 1549 1558 1499 1509 1535 1558 1524 1616 1571 1515 1582 1530 1538 1504 1499 1507 1464 1460 1494 1499 1504 1566 1522 1507 1444 1518 1524 1536 1561 1486 1515 1505 1498 1472 1498 1511 1463 1407 1534 1537 1490 1535 1469 1493 1481 1444 1421 1488 1490 1587 1525 1439 1468 1409 1471 1466 1529 1401 1441 1491 1445 1413 1435 1419 1504 1453 1424 1427 1431 1419 1418 1424 1399 1438 1447 1465 1463 1417 1434 1459 1378 1443 1449 1480 1512 1444 1420 1450 1449 1366 1339 1417 1435 1448 1438 1444 1447 1449 1393 1380 1434 1380 1448 1451 1409 1446 1363 1460 1464 1418 1395 1402 1438 1374 1445 1372 1422 1392 1419 1430 1410 1434 1413 1415 1462 1440 1474 1428 1429 1418 1404 1460 1484 1352 1414 1334 1432 1408 1441 1385 1387 1502 1399 1431 1408 1489 1464 1476 1381 1418 1372 1411 1415 1436 1516 1362 1456 1400 1473 1434 1423 1335 1446 1321 1393 1438 1357 1450 1496 1471 1479 1458 1369 1436 1427 1426 1432 1403 1488 1401 1433 1375 1437 1439 1458 1530 1452 1498 1473 1443 1374 1425 1451 1547 1492 1458 1505 1501 1430 1443 1505 1504 1493 1483 1510 1493 1460 1452 1459 1498 1561 1503 1528 1492 1516 1480 1625 1488 1473 1540 1529 1567 1569 1562 1577 1550 1536 1510 1469 1595 1444 1530 1551 1496 1476 1478 1428 1441 1520 1478 1542 1450 1416 1484 1458 1393 1417 1488 1450 1409 1501 1509 1464 1447 1388 1475 1376 1435 1409 1466 1459 1452 1469 1408 1417 1470 1415 1367 1395 1324 1438 1450 1397 1375 1398 1462 1350 1351 1376 1386 1389 1400 1379 1336 1368 1368 1437 1371 1417 1280 1396 1359 1443 1398 1401 1386 1443 1379 1390 1366 1435 1382 1357 1386 1370 1344 1375 1428 1335 1386 1372 1321 1332 1326 1336 1292 1332 1314 1332 1319 1301 1267 1316 1269 1268 1315 1315 1301 1329 1239 1367 1309 1271 1248 1281 1342 1294 1338 1212 1341 1281 1315 1323 1276 1287 1267 1292 1304 1313 1282 1377 1270 1299 1323 1206 1318 1327 1281 1233 1268 1285 1280 1369 1283 1324 1365 1371 1295 1346 1387 1328 1475 1406 1441 1458 1487 1577 1563 1551 1532 1493 1623 1623 1655 1616 1551 1567 1633 1712 1655 1645 1599 1644 1573 1682 1689 1602 1619 1633 1601 1550 1563 1539 1494 1546 1509 1386 1443 1435 1410 1393 1414 1351 1352 1307 1252 1331 1288 1323 1398 1303 1288 1358 1192 1284 1245 1368 1355 1272 1284 1243 1228 1272 1244 1365 1217 1274 1242 1272 1248 1223 1294 1260 1297 1256 1289 1231 1299 1169 1239 1257 1233 1288 1247 1279 1171 1292 1244 1183 1215 1191 1215 1222 1221 1269 1254 1261 1275 1242 1360 1302 1331 1355 1362 1429 1443 1503 1453 1567 1632 1682 1785 1854 1920 2114 2272 2311 2692 2820 3065 3220 3490 3886 3881 4348 4482 4973 4912 5236 5344 5514 5463 5812 5827 5837 5742 5932 5810 5829 5649 5484 5332 5311 4986 4761 4703 4553 4282 4041 3769 3684 3360 3092 2958 2756 2636 2385 2396 2201 2094 1995 1921 1844 1814 1817 1862 1898 1751 1881 1761 1749 1774 1789 1750 1726 1857 1767 1785 1748 1740 1686 1713 1709 1632 1701 1656 1688 1639 1631 1682 1675 1654 1624 1642 1572 1647 1595 1580 1578 1461 1568 1509 1552 1482 1507 1524 1543 1479 1634 1540 1610 1559 1605 1568 1447 1495 1542 1482 1422 1438 1355 1298 1272 1235 1266 1261 1160 1198 1147 1112 1150 1104 1108 1108 1135 1141 1114 1075 1039 1030 1053 1059 1154 1094 1035 1082 1024 1076 1095 1091 1086 1054 1063 1067 1069 1050 1042 1084 1094 1113 1112 1083 1061 1069 1085 1107 1110 1057 1089 1148 1169 1181 1218 1208 1236 1350 1325 1374 1458 1573 1616 1573 1757 1726 1818 1868 1977 1965 2122 2203 2142 2305 2217 2300 2353 2303 2313 2314 2291 2291 2231 2235 2219 2170 2050 2074 1903 1854 1834 1757 1721 1574 1594 1410 1464 1371 1331 1299 1329 1177 1129 1125 1144 1157 1088 1189 1174 1163 1102 1064 1178 1080 1169 1089 1099 1123 1155 1077 1122 1223 1172 1148 1213 1155 1072 1221 1129 1200 1117 1141 1200 1155 1120 1107 1181 1145 1146 1058 1142 1109 1138 1176 1126 1029 1083 1099 1031 1064 984 1047 1050 1030 1015 1080 1059 1111 1051 1040 1039 1008 1093 1083 979 998 1084 1066 1038 1078 1030 1020 1063 1031 1118 1109 1008 1068 1004 1015 1080 1075 1046 1048 1010 1106 1007 1039 985 1028 1046 1014 941 979 974 969 1009 937 937 971 955 969 960 966 990 926 937 924 876 961 940 914 929 966 969 923 952 933 918 914 897 948 940 960 954 1004 899 942 874 973 921 997 947 946 903 891 949 923 967 934 931 917 940 987 962 959 917 898 915 953 919 930 935 920 993 955 960 935 943 991 954 917 912 895 947 952 978 996 971 993 987 981 1004 959 984 955 1082 1049 1015 1049 1050 1124 1074 1060 1113 1140 1143 1129 1151 1190 1178 1200 1251 1213 1151 1237 1211 1217 1240 1143 1240 1192 1176 1216 1210 1182 1074 1185 1135 1119 1177 1111 1068 1168 1073 1168 1166 1132 1211 1193 1230 1207 1267 1320 1355 1431 1545 1735 1837 2011 2241 2411 2687 2910 3090 3308 3796 3857 4455 4722 5090 5338 5682 5973 6037 6077 6533 6500 6755 6761 6756 6771 6599 6400 6345 6249 6161 6002 5911 5640 5358 5275 4773 4566 4211 4003 3734 3597 3230 3044 2831 2580 2396 2235 2027 1965 1777 1704 1670 1649 1666 1581 1632 1648 1672 1614 1721 1608 1659 1672 1731 1759 1756 1761 1742 1575 1609 1563 1600 1582 1630 1594 1627 1529 1579 1599 1484 1454 1439 1454 1526 1343 1474 1377 1504 1428 1436 1475 1412 1413 1363 1359 1345 1343 1364 1308 1329 1301 1319 1331 1327 1293 1304 1322 1223 1197 1246 1168 1073 1026 1151 1098 1034 976 1038 1038 1068 1016 984 973 989 1040 1021 1015 1041 1009 1053 1077 1077 966 1050 982 1120 1069 1049 1067 1056 1022 1032 1064 1034 1022 1008 1007 1005 1012 999 1017 955 921 907 960 935 933 924 963 943 877 871 872 815 876 851 886 887 877 826 809 821 767 805 891 774 843 861 778 827 847 814 858 879 865 805 808 868 810 807 803 836 765 799 836 832 849 831 872 764 843 778 847 794 769 832 844 795 808 838 813 812 872 851 869 861 846 894 859 846 890 874 906 886 829 795 881 908 938 897 895 962 981 894 872 861 824 875 812 827 868 817 850 856 835 799 748 797 764 828 805 768 751 749 781 781 776 722 774 742 782 749 750 778 762 799 769 783 801 800 761 777 726 749 777 775 778 736 797 726 750 771 765 750 763 779 775 755 798 748 731 738 719 776 754 783 730 739 712 742 714 754 729 757 798 756 701 778 735 722 767 727 706 741 744 657 755 802 742 784 756 763 745 722 710 767 723 736 784 767 759 733 754 707 719 708 784 684 734 716 686 732 738 724 735 713 716 707 756 748 692 737 773 754 738 732 711 744 670 697 723 771 681 770 791 746 692 724 659 710 707 733 740 703 730 698 721 757 657 705 717 672 769 706 765 755 720 694 728 681 707 724 697 726 719 696 668 714 714 706 707 726 749 713 699 702 704 698 724 733 702 748 719 755 682 755 689 720 683 682 688 705 705 700 650 732 701 676 698 695 691 741 711 674 716 685 709 648 689 614 701 689 690 714 711 672 703 684 675 697 705 644 697 644 676 677 674 695 618 652 677 690 649 735 679 723 686 672 639 630 622 701 663 688 689 693 632 691 683 644 687 666 636 706 716 662 722 674 686 717 712 666 614 652 607 608 716 663 677 654 682 690 631 678 707 659 672 634 660 724 665 650 684 615 675 608 690 657 638 705 661 637 658 626 645 659 626 656 674 627 738 690 686 684 660 647 677 673 660 653 666 728 665 703 680 696 692 637 748 645 687 672 698 708 640 696 651 668 669 684 693 704 639 641 677 676 685 639 705 686 689 671 657 690 644 696 675 665 671 667 709 634 692 713 688 678 689 683 661 680 736 704 698 755 756 681 720 766 743 740 747 722 759 769 814 828 884 890 911 895 976 978 946 1051 1022 1069 1125 1144 1227 1181 1228 1264 1272 1356 1362 1373 1403 1315 1432 1342 1390 1383 1342 1325 1291 1387 1309 1271 1237 1119 1204 1118 1083 1053 1069 989 980 918 922 885 839 879 852 764 781 787 801 725 783 744 752 755 704 740 736 719 746 784 739 712 680 674 735 662 692 669 682 701 702 681 743 686 723 661 719 701 681 665 656 634 638 652 659 690 683 670 641 687 690 644 665 651 682 728 663 734 685 677 649 675 665 650 669 639 685 676 733 645 703 623 663 613 663 653 642 625 614 629 712 646 612 653 638 648 663 635 635 678 639 647 639 581 615 603 671 646 633 619 641 647 648 650 644 635 656 639 666 690 650 649 690 645 658 668 625 611 629 642 665 658 665 664 691 670 654 691 610 722 650 685 711 717 690 705 761 717 778 822 727 829 764 823 765 811 787 784 834 865 783 765 814 833 801 804 727 762 759 706 734 730 746 683 713 667 649 690 667 670 678 643 665 636 706 659 681 666 666 676 654 648 659 680 676 688 685 683 682 636 640 667 680 698 710 705 705 687 723 711 689 681 717 753 679 713 726 699 717 757 670 740 790 733 673 721 780 722 724 713 614 649 675 640 628 664 688 658 621 616 648 662 654 681 622 638 624 669 643 639 669 655 675 660 667 728 632 659 602 685 597 620 627 620 630 668 623 665 655 670 628 646 616 704 669 688 708 660 695 662 700 727 653 638 673 722 655 675 695 708 670 755 692 701 645 688 711 666 753 653 689 691 626 700 644 670 712 668 644 683 700 625 671 641 637 620 602 589 624 626 664 662 620 584 575 632 577 662 633 660 678 597 623 633 648 620 634 650 619 617 663 650 607 640 620 637 657 625 657 660 655 647 652 650 661 739 709 692 758 745 795 803 834 850 912 857 993 966 996 995 1059 1084 1055 1077 1145 1119 1196 1214 1142 1209 1209 1143 1155 1118 1189 1098 1135 1086 1026 1043 1008 1059 975 961 874 851 895 859 835 806 771 762 763 766 741 712 708 686 664 690 674 674 641 680 662 620 635 623 630 689 599 608 619 673 629 575 658 659 670 677 630 654 645 659 631 663 659 617 666 622 667 672 643 693 708 663 643 701 675 588 700 630 633 667 645 679 641 663 652 634 642 648 618 666 728 672 626 640 578 640 578 605 586 678 643 576 678 599 594 556 630 589 591 587 618 561 591 554 575 572 624 603 540 587 596 605 576 604 626 639 586 610 642 646 695 625 723 648 681 624 658 636 747 672 704 674 623 649 660 643 653 662 661 667 633 655 652 610 687 553 620 615 603 635 566 645 564 627 603 618 614 579 612 627 593 628 620 623 611 627 614 623 578 610 627 590 532 603 587 597 584 565 582 621 629 590 563 605 564 521 609 616 637 589 598 579 595 636 560 627 569 568 618 593 606 630 588 620 675 569 560 562 558 545 591 627 587 607 549 612 590 595 622 583 602 541 659 576 597 663 621 647 640 601 633 695 643 606 623 644 586 619 600 615 644 589 616 589 644 629 631 592 615 665 627 649 635 569 652 629 645 691 621 636 726 673 661 663 649 657 662 643 676 636 687 661 636 694 626 701 645 632 700 624 673 720 623 705 680 658 657 644 742 686 616 605 686 611 666 678 655 667 688 646 681 677 681 751 699 741 712 730 774 721 752 776 788 823 831 864 927 831 865 993 978 1014 944 1080 1016 1065 1132 1124 1104 1113 1165 1104 1098 1194 1114 1152 1079 1124 1130 1108 1122 1088 1069 1090 1080 1042 1022 970 944 991 929 936 940 933 935 1007 953 1019 1075 1080 1100 1282 1235 1362 1389 1467 1583 1678 1784 1911 2019 2230 2339 2560 2764 2986 3111 3452 3598 3731 3969 4197 4319 4450 4415 4374 4471 4357 4446 4300 4304 4342 4095 4112 4031 3906 3841 3604 3452 3233 2995 2723 2505 2431 2228 2082 1929 1780 1726 1665 1423 1493 1368 1196 1153 1108 1063 1022 1001 963 999 909 947 875 864 851 860 880 825 831 794 859 841 846 844 843 832 863 880 848 883 886 873 815 914 911 846 901 854 850 872 819 838 816 865 850 801 842 889 791 835 803 766 806 740 762 790 729 807 703 751 711 722 719 695 694 666 654 652 638 672 622 590 626 631 596 611 600 625 606 575 659 634 603 613 641 583 564 559 605 606 590 551 642 557 624 580 594 598 612 573 592 550 564 530 554 591 537 593 578 572 565 539 644 572 585 567 521 602 552 605 576 578 607 606 552 596 581 578 579 605 571 559 580 582 598 592 564 567 572 554 545 589 571 510 578 589 580 588 556 554 576 588 529 555 594 613 523 578 576 554 560 520 574 561 565 553 584 538 588 575 614 620 603 650 618 644 565 616 677 568 655 675 589 693 681 711 726 694 722 761 755 733 772 725 772 738 778 795 772 856 847 841 841 810 814 792 846 830 762 774 741 732 783 747 701 723 705 723 736 647 660 597 675 612 671 638 670 608 625 651 646 603 637 608 639 623 571 607 622 602 590 622 597 603 572 569 616 616 573 554 576 531 582 580 562 589 597 578 585 532 555 549 569 567 590 580 583 614 576 580 590 577 599 558 612 591 596 610 617 612 592 558 589 633 617 596 590 626 601 662 629 639 636 619 600 649 575 669 646 610 618 611 617 606 616 552 594 574 600 585 566 557 601 577 593 576 544 572 626 590 535 602 615 563 575 592 600 588 599 604 572 565 604 538 586 565 639 567 583 574 544 578 576 549 559 560 582 587 540 540 618 596 653 637 670 639 635 583 679 678 607 655 666 654 704 671 681 693 662 691 675 664 647 698 714 662 702 686 743 638 619 630 674 654 650 643 628 629 593 654 588 576 610 543 530 558 542 604 536 512 532 534 508 564 525 511 536 536 546 497 551 503 542 473 547 521 492 515 490 470 502 488 538 474 543 515 524 542 500 539 514 515 529 506 499 522 538 528 512 505 532 548 548 520 512 535 532 559 531 551 523 550 516 507 525 501 546 507 530 559 541 526 543 497 521 525 540 526 548 562 508 533 490 548 511 572 503 522 523 521 542 474 529 499 490 517 492 532 493 477 485 512 490 534 507 489 523 475 463 500 467 481 487 525 512 506 500 534 477 478 515 448 502 490 467 500 456 530 462 507 426 476 530 503 470 472 486 504 496 544 481 507 514 513 541 457 481 478 501 533 473 465 441 483 498 498 476 452 485 474 462 494 455 540 486 511 461 506 475 508 488 490 470 461 490 531 485 492 504 524 505 490 503 445 486 440 471 485 436 473 476 429 470 491 456 502 515 460 483 478 530 483 487 460 494 483 493 455 482 480 508 462 497 473 480 509 437 486 449 496 469 426 459 511 478 504 486 481 524 495 491 457 490 479 532 506 512 492 501 491 533 453 507 479 536 475 481 473 467 485 483 513 508 507 476 490 468 463 455 493 498 506 506 489 472 502 523 507 466 521 517 502 458 482 480 498 468 485 477 457 483 394 508 458 486 494 484 519 481 490 491 530 517 463 456 499 463 507 492 506 483 484 495 448 496 504 544 536 505 477 490 518 486 499 532 478 484 500 502 463 493 506 463 503 466 442 433 459 463 475 471 524 449 461 474 452 457 472 491 429 478 455 481 529 490 518 487 472 479 478 518 488 533 508 526 491 446 540 534 508 520 515 534 512 563 468 520 545 546 569 552 548 537 562 499 513 548 558 558 578 548 565 565 519 559 544 548 572 591 557 558 530 599 519 557 563 566 565 576 528 546 579 590 585 576 594 590 585 604 620 578 633 691 687 692 750 795 840 910 903 1001 981 985 1047 1128 1131 1152 1195 1278 1327 1297 1368 1395 1455 1436 1555 1537 1586 1630 1653 1686 1639 1730 1617 1586 1574 1554 1548 1519 1429 1384 1377 1322 1310 1220 1183 1202 1104 1016 989 997 915 949 953 935 923 802 870 797 786 713 685 679 673 645 640 693 718 675 750 780 744 769 695 740 708 736 708 718 679 697 732 763 656 704 683 678 647 725 679 674 692 646 695 647 659 583 656 649 670 603 694 624 642 664 641 661 615 656 579 591 571 619 552 600 599 614 628 592 580 600 540 606 569 584 574 581 510 553 563 562 561 585 601 555 613 598 590 571 590 614 536 566 582 572 596 566 587 581 593 618 612 596 594 606 581 605 561 572 561 595 578 578 556 574 543 558 548 513 511 546 555 523 501 526 538 551 546 548 528 497 500 438 522 540 480 531 495 483 486 531 514 534 491 492 460 491 437 487 458 468 492 516 512 479 519 494 522 469 525 476 509 468 519 483 472 494 511 508 544 543 505 520 481 509 508 504 500 524 503 492 493 464 464 510 470 487 537 500 475 520 521 499 471 482 521 495 495 476 495 502 485 534 509 539 529 553 480 520 519 514 520 563 616 572 595 616 623 655 646 724 693 734 738 764 793 888 922 904 993 1033 1083 1130 1233 1209 1260 1281 1337 1406 1416 1374 1489 1435 1425 1397 1469 1481 1444 1412 1452 1418 1396 1314 1345 1279 1320 1274 1269 1121 1130 1078 1083 1045 1058 1035 919 931 811 832 776 795 726 760 696 716 667 666 659 680 667 614 564 607 582 569 620 631 595 552 568 548 563 538 538 562 551 610 549 586 570 567 553 583 501 550 571 601 583 572 528 540 542 526 561 513 548 551 500 512 524 559 517 547 512 518 482 503 484 492 515 494 473 464 498 511 438 524 472 521 533 499 491 459 502 444 509 516 460 488 479 493 446 472 429 462 440 477 432 490 450 483 474 469 480 481 458 512 463 450 495 405 457 464 444 480 413 434 409 475 444 424 441 425 453 429 455 473 435 459 421 437 428 468 423 426 490 447 439 453 471 424 478 448 431 441 444 449 489 483 453 501 461 490 499 476 511 477 523 524 553 493 500 544 554 578 538 554 570 587 582 606 573 605 609 616 614 624 564 597 596 586 650 641 582 660 645 620 601 629 558 557 599 561 578 559 548 584 581 564 531 554 539 541 484 491 504 485 464 490 464 504 514 474 473 493 455 464 461 425 424 448 463 446 448 437 473 430 470 456 457 424 446 440 437 502 457 440 486 425 425 418 439 449 464 442 451 453 441 427 421 428 419 421 414 445 435 427 441 446 449 408 431 415 470 429 423 447 402 474 418 436 435 416 423 433 441 414 435 456 396 415 368 455 400 442 419 399 418 423 434 452 480 447 417 422 444 432 452 457 419 429 435 471 410 402 446 469 419 432 432 442 408 412 406 468 398 420 440 410 465 429 452 407 516 404 448 418 479 435 462 464 501 441 490 506 488 517 515 491 568 544 523 534 539 549 504 541 545 515 553 549 559 502 551 536 519 532 515 499 538 539 502 474 486 537 486 519 473 499 515 489 494 460 516 482 468 520 465 425 452 420 510 423 446 435 467 452 460 470 439 416 420 464 418 434 406 444 471 457 400 444 425 429 432 473 448 395 420 426 433 387 442 421 410 437 419 439 387 410 443 402 403 423 448 436 401 400 440 454 431 408 420 441 404 410 420 424 415 407 397 447 373 432 412 425 426 438 403 430 417 434 411 411 430 391 408 386 416 453 401 438 412 422 387 445 392 397 420 395 417 455 388 454 410 415 396 389 412 409 430 423 430 421 420 443 473 399 423 413 387 462 421 395 384 410 421 415 431 406 432 436 415 438 398 434 381 389 391 405 399 439 407 415 379 399 420 454 377 409 375 415 393 404 424 406 425 415 403 421 445 443 436 413 441 461 399 430 409 461 424 406 413 407 386 406 387 409 443 403 387 433 432 444 418 454 451 423 414 436 438 392 499 439 502 449 430 477 400 439 430 417 442 440 467 429 470 459 437 444 475 470 451 436 460 448 429 455 466 454 448 430 451 401 397 425 459 441 402 421 421 438 428 399 422 437 419 366 425 402 416 401 447 444 400 420 430 421 434 384 409 429 396 373 409 428 439 424 420 389 389 401 410 399 426 400 381 397 399 446 396 431 378 410 418 427 434 406 396 429 437 423 423 389 459 472 435 450 435 365 437 474 438 433 419 470 445 500 489 457 479 464 480 461 493 518 470 465 511 481 487 505 505 469 434 496 506 474 510 506 494 486 469 482 441 445 470 484 477 441 437 463 455 481 440 442 477 423 460 414 477 441 390 450 423 477 398 474 420 464 450 441 442 428 491 401 418 436 420 428 433 433 417 412 411 451 396 411 397 446 392 448 448 410 410 408 440 435 433 410 387 356 435 393 407 406 395 380 409 392 363 427 364 365 422 394 412 368 364 393 399 384 407 387 395 358 420 420 405 390 443 363 391 376 414 383 367 348 345 382 404 421 371 388 387 397 414 381 378 391 361 373 379 363 449 416 370 402 407 391 355 420 399 375 404 369 373 372 442 393 431 414 390 413 411 390 373 419 403 395 448 404 381 391 399 413 420 400 399 360 401 379 387 407 386 389 409 392 380 405 386 424 390 378 435 423 433 425 387 383 397 359 389 396 392 377 387 401 364 408 396 411 379 368 354 393 379 441 432 379 417 362 404 409 379 401 421 423 373 377 347 355 386 372 350 399 401 370 383 392 368 394 409 422 376 377 383 419 435 392 375 399 379 370 411 389 407 434 416 396 386 382 406 407 390 417 412 405 430 412 370 382 396 435 378 383 389 397 413 446 438 424 413 412 426 391 389 417 420 411 446 405 426 448 459 471 450 477 414 480 478 500 434 504 492 521 523 546 594 571 510 584 571 626 588 618 669 675 613 657 700 645 634 678 654 726 728 692 723 678 680 672 716 671 690 700 659 630 636 610 621 605 591 597 618 552 564 599 581 568 508 542 536 514 529 484 515 461 474 503 503 463 450 421 414 409 474 457 393 434 450 427 455 448 431 459 424 476 429 387 409 396 446 408 445 415 406 415 432 442 439 399 355 430 407 421 388 386 375 364 396 384 437 363 412 346 420 398 381 432 411 397 366 432 418 361 407 391 422 377 409 371 417 370 379 346 419 387 395 400 416 365 365 391 408 361 390 402 374 415 368 403 374 387 411 383 396 414 375 418 415 390 376 341 386 421 370 407 383 422 402 399 404 380 403 387 393 405 392 443 403 424 401 413 417 421 374 409 413 419 412 396 403 403 450 372 368 378 373 397 380 397 359 388 419 414 410 429 393 385 405 373 384 374 405 397 403 388 403 397 394 434 390 410 389 421 402 417 390 407 399 405 416 380 416 425 417 389 391 409 370 392 361 389 407 403 391 394 379 377 398 396 416 408 396 379 387 385 357 378 398 334 373 379 392 409 428 380 385 382 419 397 359 354 384 343 401 391 412 367 392 350 351 375 401 427 422 400 354 380 374 414 364 385 378 392 432 412 434 403 409 418 353 429 401 413 403 403 396 401 393 403 423 432 388 396 389 417 428 426 395 397 418 404 402 415 406 443 381 376 389 436 410 398 407 400 376 412 404 423 394 421 385 399 369 389 373 408 365 385 383 377 394 358 376 397 381 387 399 369 358 346 374 393 362 380 388 400 446 390 361 352 338 395 396 366 383 384 342 364 399 379 399 377 395 388 391 359 410 391 404 400 353 392 386 412 370 351 385 386 410 379 356 331 400 376 380 327 352 393 314 386 338 397 382 390 376 373 379 360 390 366 345 368 356 381 342 371 377 336 370 391 386 350 337 370 366 358 360 410 358 405 360 414 388 400 358 407 375 353 370 372 397 383 409 355 404 347 374 336 333 386 376 364 420 384 400 348 393 405 397 362 367 363 368 367 430 382 382 356 406 346 346 390 431 407 393 413 369 365 371 393 367 380 361 404 397 370 415 370 421 388 397 396 412 424 435 420 387 418 398 431 365 408 402 405 391 416 390 457 424 447 391 355 397 416 381 405 421 375 364 379 369 423 355 389 376 412 375 424 365 378 389 386 389 385 390 396 368 362 424 376 442 352 389 378 376 397 354 406 378 368 342 424 358 397 369 355 380 415 406 378 360 366 367 359 391 336 402 371 369 389 382 404 383 363 373 379 384 352 380 404 358 332 367 363 375 376 383 351 381 387 383 387 365 399 390 372 355 380 414 385 375 404 371 397 380 389 417 372 359 383 401 377 405 379 409 377 397 369 376 423 400 405 419 394 375 379 351 392 376 400 398 372 421 399 392 395 376 329 401 462 402 463 420 414 384 367 399 386 429 450 418 400 440 455 437 435 431 459 438 451 407 404 441 405 428 437 438 427 423 421 436 467 457 441 498 466 469 489 456 401 463 494 429 477 440 469 467 464 510 470 484 440 482 441 511 464 510 485 513 456 477 528 485 510 524 532 540 601 547 615 524 607 575 560 614 573 612 595 614 624 641 665 600 666 711 696 693 692 711 720 745 740 766 703 708 811 774 725 748 718 751 735 750 727 749 690 694 711 690 695 673 685 666 643 615 641 623 621 610 592 607 629 537 591 571 548 593 537 574 520 517 464 536 519 457 490 445 534 426 476 453 468 455 431 440 473 459 454 436 479 440 455 406 439 458 433 459 470 431 464 421 433 416 447 411 448 416 414 413 392 424 373 398 416 402 374 412 394 426 418 413 437 406 413 406 385 394 418 418 420 429 411 425 435 436 431 409 431 423 362 419 445 413 418 451 402 415 396 386 424 399 403 420 437 446 429 407 428 451 423 403 416 457 422 419 484 400 423 406 408 436 392 454 410 434 450 406 421 428 385 435 391 444 399 439 433 447 438 443 394 458 419 407 466 420 476 449 433 470 435 451 435 470 453 427 463 493 440 454 478 518 500 462 494 471 477 486 502 529 495 522 521 526 534 533 526 536 528 545 578 560 535 616 611 617 670 674 645 711 668 706 712 678 762 772 749 833 724 824 866 882 894 918 987 920 902 1014 1072 980 1041 1015 1042 1023 1044 1038 1010 1090 1060 1080 1023 1051 1013 983 1035 1011 1033 970 978 962 952 959 910 861 863 861 933 865 783 809 803 823 801 725 764 792 724 715 715 656 688 638 603 640 567 579 567 604 553 576 565 523 510 524 508 455 498 453 538 493 474 496 474 484 458 480 446 495 461 423 440 445 455 479 419 453 438 431 439 452 422 441 430 451 457 396 471 395 445 430 401 427 419 399 376 422 432 435 381 439 445 436 418 401 405 391 450 359 403 391 437 424 378 417 372 452 399 449 408 427 392 434 378 394 402 408 418 403 389 390 382 410 396 433 416 425 384 393 408 385 408 405 414 385 415 411 431 422 452 417 385 411 403 383 370 423 408 426 454 408 403 463 434 455 429 410 418 481 432 446 429 428 462 463 426 426 469 430 424 445 425 416 419 413 405 465 447 464 438 428 459 412 472 428 453 406 418 421 385 375 424 393 393 410 414 435 365 439 416 404 383 391 414 387 386 413 407 396 432 439 390 415 438 406 403 395 411 385 392 398 373 395 414 388 392 398 391 396 377 378 385 403 381 383 386 373 369 380 370 407 380 435 368 380 360 385 341 370 385 378 399 383 349 431 330 443 359 397 388 412 413 384 416 407 399 419 437 447 418 381 445 418 392 437 431 427 484 455 464 433 465 457 462 432 459 452 466 434 425 453 436 399 439 466 415 446 452 412 378 403 415 417 426 413 414 416 426 417 435 441 424 398 475 417 410 425 405 450 407 418 345 411 388 399 372 407 365 415 384 397 373 370 361 375 391 390 395 373 355 329 376 396 328 347 373 359 328 359 378 385 368 397 389 386 359 345 400 379 414 364 404 382 357 395 372 383 384 361 371 350 363 374 387 355 366 341 367 341 370 359 367 355 355 373 354 390 344 394 383 366 343 350 391 416 372 365 386 377 387 365 378 426 385 344 381 386 341 371 348 354 347 402 335 369 426 351 394 374 382 390 388 395 357 374 397 355 387 370 377 412 377 384 341 379 410 382 365 374 379 354 387 350 352 377 382 396 364 402 344 403 379 344 359 375 340 363 373 363 380 383 363 373 332 348 389 356 353 316 361 348 319 384 342 351 364 377 338 367 344 358 367 355 344 369 336 329 366 338 367 345 385 349 391 368 378 364 375 385 309 373 384 375 349 374 399 357 356 355 337 321 330 359 327 324 343 377 385 375 344 350 367 352 344 323 313 364 326 318 334 370 335 354 341 329 349 364 349 348 373 374 377 361 371 345 383 329 367 379 347 377 359 374 305 388 345 376 336 375 358 409 374 367 351 375 390 329 390 365 407 376 338 369 396 392 363 376 374 351 343 379 356 350 336 356 390 355 384 403 328 377 405 383 334 371 384 364 385 389 350 386 373 374 382 387 402 404 406 384 400 376 384 414 378 408 399 456 436 446 432 396 412 414 387 434 439 390 401 467 421 394 406 428 446 414 445 398 431 420 471 427 441 452 425 427 435 431 445 425 417 402 430 422 388 420 367 355 357 399 410 428 452 361 415 382 376 407 373 369 391 378 378 363 444 425 370 383 423 380 372 399 413 357 412 344 361 337 358 348 362 370 390 384 377 417 358 358 331 370 392 404 379 355 351 354 388 389 343 359 372 388 364 387 342 363 349 393 405 370 385 348 382 337 322 327 377 355 319 306 365 371 339 384 337 387 375 392 373 404 354 360 344 369 391 321 388 369 376 367 363 366 354 401 394 394 339 377 408 370 368 385 388 381 415 403 377 388 353 417 396 389 420 391 380 383 380 397 367 386 379 432 399 433 396 434 411 374 381 396 376 390 384 390 401 362 390 406 383 411 415 415 390 375 436 387 421 357 402 385 398 421 391 419 427 394 362 380 388 384 355 399 379 389 393 382 394 413 386 371 395 361 385 380 377 411 383 359 374 401 341 383 378 390 394 395 369 370 398 350 378 414 405 375 425 384 421 401 368 394 416 392 351 356 388 363 424 397 360 360 383 402 422 415 394 414 336 382 425 409 416 449 432 433 463 465 459 516 538 513 555 523 567 501 573 556 591 643 588 619 617 657 610 660 664 673 774 718 741 779 782 819 740 812 825 912 814 805 787 816 816 818 882 870 884 903 858 851 858 850 873 856 861 748 797 797 740 742 742 783 749 750 674 670 668 704 655 699 627 673 621 709 641 652 627 612 600 602 591 608 511 615 505 513 502 502 468 519 485 501 489 452 454 430 501 448 451 466 439 433 445 447 441 398 455 410 450 416 436 414 373 406 413 438 427 416 428 418 385 415 390 396 381 380 402 420 369 375 358 337 353 408 448 402 387 398 370 371 372 365 351 383 331 390 397 355 371 384 380 386 389 389 377 401 358 369 369 343 363 372 356 377 378 385 350 367 360 347 395 327 353 319 396 375 389 400 365 380 381 379 415 352 392 401 370 341 328 405 353 361 358 395 343 405 394 418 382 380 402 392 422 372 382 405 373 374 430 394 384 412 362 381 372 370 349 383 382 389 388 398 373 411 378 359 375 406 372 354 422 387 418 388 377 406 410 399 399 395 435 381 393 394 370 402 363 381 387 385 391 395 410 403 407 416 416 390 425 390 395 398 366 376 374 394 397 404 416 378 372 398 395 383 393 380 379 380 380 402 379 367 377 365 363 424 405 372 364 365 404 387 362 377 373 387 361 394 364 367 354 395 369 395 381 370 352 389 366 412 313 328 382 359 373 357 356 374 354 352 370 355 321 339 341 313 340 327 345 334 348 350 310 344 321 375 372 359 404 332 332 332 397 314 356 368 318 354 349 378 349 357 346 351 322 334 307 315 370 340 334 345 334 361 342 358 368 334 317 350 330 336 335 324 362 389 370 335 309 354 366 364 370 325 335 346 335 343 355 388 328 351 346 337 344 367 340 357 360 399 333 366 332 324 329 345 388 338 341 334 352 354 335 331 370 335 344 335 353 336 345 342 336 329 348 360 375 362 392 364 356 337 349 350 327 367 319 320 322 367 351 354 352 328 375 360 364 330 392 353 384 355 346 365 372 356 359 353 385 389 344 336 351 388 323 377 339 379 357 379 334 359 323 358 360 365 348 340 344 375 364 357 352 380 381 342 330 344 371 353 355 331 305 372 341 383 327 335 334 367 354 318 333 329 315 369 340 375 344 387 366 368 386 369 364 382 348 339 315 332 351 372 345 327 369 298 340 380 340 345 318 349 356 321 319 343 385 324 320 350 362 337 372 348 376 343 309 314 377 371 360 364 359 315 332 345 320 341 334 364 357 348 363 354 352 393 343 357 319 364 307 362 322 370 364 358 369 326 348 359 375 350 348 360 332 351 336 309 362 329 348 343 321 374 330 343 361 370 358 366 351 337 360 297 325 336 398 319 316 370 387 357 336 355 346 359 326 313 351 320 348 322 364 343 356 364 368 327 360 320 336 335 327 340 362 350 340 376 392 373 370 372 393 360 395 381 392 404 399 357 394 375 414 382 422 405 368 403 409 417 410 386 409 405 399 388 467 431 441 426 400 458 455 428 461 453 435 410 478 428 461 465 441 477 455 454 443 457 407 487 492 456 481 486 444 418 495 488 440 488 433 472 462 465 482 496 497 496 443 488 485 446 507 440 485 488</counts>
			</dataPoints>
		</scan>
	</xrdMeasurement>
</xrdMeasurements>
