<?xml version="1.0"?>
<xrdMeasurements xmlns="http://www.xrdml.com/XRDMeasurement/2.3" xmlns:xsi="http://www.w3.org/2001/XMLSchema-instance" xsi:schemaLocation="http://www.xrdml.com/XRDMeasurement/2.3 http://www.xrdml.com/XRDMeasurement/2.3/XRDMeasurement.xsd" status="Completed" recordIdentifier="{392C583E-6857-40D8-BF1E-62F394A067B7}">
	<comment>
		<entry/>
	</comment>
	<sample type="To be analyzed">
		<id>GPSS_Li1p5Mg0p3Ni0p2Y0p5Cl4_121225_693c5ab8f4d05ae3d6974f1a</id>
		<name></name>
		<preparedBy></preparedBy>
	</sample>
	<xrdMeasurement measurementType="Scan" status="Completed" sampleMode="Reflection">
		<usedWavelength intended="K-Alpha 1">
			<kAlpha1 unit="Angstrom">1.5405980</kAlpha1>
			<kAlpha2 unit="Angstrom">1.5444260</kAlpha2>
			<kBeta unit="Angstrom">1.3922500</kBeta>
			<ratioKAlpha2KAlpha1>0.5000</ratioKAlpha2KAlpha1>
		</usedWavelength>
		<incidentBeamPath>
			<radius unit="mm">145.00</radius>
			<xRayTube id="1010048" name="Empyrean Cu LFF HR (9430 033 7310x)">
				<tension unit="kV">40.0</tension>
				<current unit="mA">15.0</current>
				<anodeMaterial>Cu</anodeMaterial>
				<focus type="Line">
					<length unit="mm">12.0</length>
					<width unit="mm">0.4</width>
					<takeOffAngle unit="deg">6.0</takeOffAngle>
				</focus>
			</xRayTube>
			<sollerSlit id="21010002" name="Soller slits 0.04 rad.">
				<opening unit="rad">0.0400</opening>
			</sollerSlit>
			<mask id="22031000" name="Fixed mask 13 mm">
				<width unit="mm">9.00</width>
			</mask>
			<divergenceSlit id="22120001" name="Divergence slit 1°" xsi:type="fixedDivergenceSlitType">
				<distanceToSample unit="mm">50.00</distanceToSample>
				<height unit="mm">1.52</height>
			</divergenceSlit>
		</incidentBeamPath>
		<sampleMovement xsi:type="spinningSampleMovementType">
			<spinnerRevolutionTime unit="seconds">1.0</spinnerRevolutionTime>
		</sampleMovement>
		<diffractedBeamPath>
			<radius unit="mm">145.00</radius>
			<antiScatterSlit id="22090040" name="AS slit 9 mm (PIXcel)" xsi:type="fixedAntiScatterSlitType">
				<height unit="mm">9.00</height>
			</antiScatterSlit>
			<sollerSlit id="21020003" name="Large Soller slits 0.04 rad.">
				<opening unit="rad">0.0400</opening>
			</sollerSlit>
			<filter id="20030001" name="Large beta-filter Nickel">
				<material>Ni</material>
				<thickness unit="mm">0.020</thickness>
			</filter>
			<detector id="7010019" name="PIXcel1D-Medipix3 detector" xsi:type="rtmsDetectorType">
				<phd unit="keV">
					<lowerLevel>4.02</lowerLevel>
					<upperLevel>11.27</upperLevel>
				</phd>
				<mode>Scanning</mode>
				<activeLength unit="deg">5.542</activeLength>
			</detector>
		</diffractedBeamPath>
		<scan appendNumber="0" mode="Continuous" scanAxis="Gonio" status="Completed">
			<header>
				<startTimeStamp>2025-12-17T13:34:44-08:00</startTimeStamp>
				<endTimeStamp>2025-12-17T13:42:52-08:00</endTimeStamp>
				<author>
					<name>AutomatedUser</name>
				</author>
				<source>
					<applicationSoftware version="1.7b (136)">PANalytical Aeris Instrument Suite</applicationSoftware>
					<instrumentControlSoftware version="3.2.00000000 20240306">AERIS</instrumentControlSoftware>
					<instrumentID>950485</instrumentID>
				</source>
			</header>
			<dataPoints>
				<positions axis="2Theta" unit="deg">
					<startPosition>10.00943322</startPosition>
					<endPosition>99.99442286</endPosition>
				</positions>
				<positions axis="Omega" unit="deg">
					<startPosition>5.00471661</startPosition>
					<endPosition>49.99721143</endPosition>
				</positions>
				<commonCountingTime unit="seconds">12.495</commonCountingTime>
				<counts unit="counts">3038 3059 3069 3060 3010 2961 2937 2889 3096 3084 3042 3011 3147 3028 3028 2943 2895 2999 2916 3159 2911 2959 2981 3024 2997 2981 2965 2988 2975 3062 2942 2960 2984 2950 3114 3029 2930 3078 2940 2882 3016 3002 2908 2895 3012 3012 3024 2907 3074 3012 2901 2992 2962 2985 3027 2943 2933 3008 3086 3075 2922 2996 2961 2962 3033 3002 3107 2940 2935 2944 3040 2981 3023 3058 3018 3027 2985 3047 2986 3042 2850 2915 2939 2958 3021 2923 2948 3042 2979 2973 3024 2995 3035 3056 3001 3086 3086 3039 3063 2990 3038 3014 3088 2997 3069 3031 3004 3126 3074 2999 3008 3019 3015 3111 3045 3042 3113 3084 3001 3052 2943 2980 3043 3007 2977 3120 3109 3144 3105 3060 2991 3006 2987 3086 3044 3020 2998 3027 3134 3110 3012 3043 3168 2997 2984 3001 3003 3181 3053 3096 3087 3025 3054 3016 3128 3048 3018 3000 3120 3080 3120 2963 3102 3025 3028 3056 3087 3141 3032 3100 3054 3083 3006 2962 3043 3026 3061 3015 3006 3014 2994 2984 3055 3101 3034 3059 3004 3070 3060 3122 3126 3037 3134 3101 3054 3070 2978 2987 3002 2989 3029 2995 2925 2955 3090 2988 3056 3017 3025 3018 2998 3046 2906 2987 2960 2920 2948 3004 3024 2969 3093 2933 2894 2936 3005 3034 3058 3008 2926 3029 2963 2954 3081 3009 3043 2888 2929 3079 2974 2916 3035 2953 2935 2941 2979 2890 2996 2953 2934 3062 2932 3068 2932 2988 2994 3054 2906 2971 3039 2935 3037 2916 2992 2998 2977 2926 2932 3047 2959 2944 3020 3010 3015 3032 3075 2939 3038 2954 2882 2921 2908 3042 2922 2999 2934 2998 2934 3017 3033 2955 2993 2984 3042 2965 2991 2913 2998 3133 3024 2981 3142 3026 2929 2919 3019 3026 3083 3133 3097 3048 3021 3050 3030 3152 3163 3116 3200 3083 3109 3165 3163 3172 3137 3142 3056 3189 3174 3156 3181 3199 3183 3156 3195 3188 3035 3269 3148 3150 3106 3217 3160 3259 3161 3221 3231 3325 3206 3215 3215 3246 3146 3232 3189 3168 3276 3258 3299 3395 3283 3294 3295 3313 3267 3319 3329 3328 3183 3392 3362 3335 3360 3307 3374 3515 3352 3424 3433 3419 3416 3383 3361 3371 3453 3390 3439 3400 3495 3320 3473 3473 3459 3447 3426 3500 3544 3407 3484 3411 3531 3464 3579 3450 3451 3585 3454 3461 3522 3532 3476 3609 3460 3541 3503 3571 3626 3596 3489 3622 3640 3636 3589 3690 3645 3644 3687 3686 3629 3728 3712 3636 3716 3763 3702 3782 3707 3705 3824 3834 3754 3748 3935 3904 3779 3827 3926 3887 3925 3912 3894 3886 3910 3959 3912 4025 4124 4101 4141 4099 4107 4073 4221 4190 4167 4323 4218 4315 4118 4265 4282 4140 4169 4287 4355 4114 4171 4295 4111 4272 4053 4031 4019 4079 4127 4171 4262 4163 4265 4189 4395 4388 4539 4501 4559 4626 4663 4680 4980 4872 5106 5126 5218 5339 5402 5480 5681 5809 5861 5994 5824 5920 5948 6206 6218 6231 6171 6211 6079 5925 5958 5649 5614 5318 5200 4965 4682 4510 4499 4345 4125 4026 4035 3973 3989 3949 3980 3919 3883 4011 4097 4009 4170 4059 4176 4222 4301 4338 4373 4338 4469 4421 4618 4653 4725 4704 4712 4813 4893 4973 4950 5054 5107 5114 5060 5118 5185 5149 4915 4896 4790 4722 4599 4323 4284 4218 3931 3816 3695 3598 3567 3449 3457 3391 3325 3325 3305 3306 3237 3344 3268 3201 3295 3222 3253 3209 3297 3202 3260 3188 3197 3220 3192 3108 3212 3192 3248 3146 3132 3173 3096 3155 3169 3174 3233 3141 3140 3073 3191 3174 3275 3171 3142 3150 3085 3030 3192 3081 3173 3160 3022 3142 3025 3166 3174 3188 3203 3143 3105 3147 3089 3170 3160 3140 3167 3213 3014 3178 3187 3143 3214 3219 3218 3217 3273 3248 3276 3309 3216 3247 3253 3310 3371 3443 3478 3526 3425 3616 3640 3602 3658 3604 3663 3788 3919 4142 3968 4073 4267 4141 4226 4364 4394 4518 4661 4804 4806 4988 4993 5156 5250 5513 5434 5681 5636 5808 5927 5972 6120 6201 6056 6190 6125 6067 5901 5991 5459 5400 5136 4845 4765 4396 4207 3878 3922 3742 3644 3572 3569 3337 3333 3338 3214 3187 3197 3201 3101 3177 3074 3145 3027 3162 3087 3074 2969 3122 3082 3142 3023 3121 3038 2973 3003 2971 3031 3022 3041 3022 3129 2947 3042 3020 3012 3139 2977 2999 3002 2955 2930 3053 3027 3027 3008 3039 3127 2966 3039 3089 3093 2970 2959 2896 2930 2989 2948 3068 3044 3127 2983 2958 2866 2983 2976 3026 3006 2914 2906 2897 2898 2959 3014 3075 2966 2902 3068 2990 2993 3007 2904 2995 2930 2926 2875 2954 3054 2955 2942 2871 2897 2888 2871 3022 2900 2924 2889 2937 2972 2868 2894 2919 2903 2939 2997 2979 2966 2994 2957 2892 2879 2999 2893 2994 2947 3005 2934 2917 2991 2950 2996 2982 2868 2964 3070 2998 3034 3067 3035 3045 3102 3091 3079 3058 2972 2982 3059 2980 2915 3064 3034 2906 2988 2910 2991 2967 2940 3050 3004 2838 2921 2953 2894 2827 2928 3035 2996 2857 2831 2881 2843 2907 2865 2864 2876 2697 2897 2856 2813 2813 2759 2893 2779 2798 2827 2782 2870 2927 2904 2761 2837 2816 2756 2822 2789 2803 2807 2690 2815 2829 2828 2733 2794 2979 2779 2795 2958 2865 2787 2825 2773 2779 2840 2812 2845 2741 2801 2784 2841 2869 2813 2732 2785 2773 2631 2774 2740 2850 2707 2776 2750 2765 2766 2780 2794 2778 2734 2843 2811 2820 2739 2843 2813 2671 2766 2826 2774 2729 2710 2781 2789 2901 2805 2740 2735 2742 2750 2714 2778 2807 2816 2738 2885 2702 2738 2754 2654 2808 2833 2736 2658 2750 2653 2629 2715 2663 2677 2653 2778 2726 2738 2689 2743 2810 2718 2786 2749 2660 2703 2698 2697 2658 2820 2676 2715 2714 2722 2681 2694 2792 2763 2796 2774 2780 2692 2656 2813 2819 2773 2598 2730 2768 2764 2716 2778 2745 2773 2651 2728 2675 2719 2779 2729 2606 2797 2847 2678 2730 2779 2737 2645 2634 2814 2704 2824 2704 2685 2675 2606 2758 2796 2773 2785 2760 2759 2747 2723 2731 2705 2710 2812 2787 2767 2799 2757 2835 2869 2829 2861 2716 2866 2630 2878 2876 2825 2815 2812 2864 2816 2841 2831 2798 2866 2882 2967 2897 2990 2938 2936 3062 2992 3062 3074 3108 3078 3051 3145 3048 3225 3114 3148 3134 3177 3054 3198 3209 3162 3007 3064 2977 3051 2968 2817 2907 2961 2868 2789 2882 2720 2833 2731 2801 2716 2701 2768 2707 2726 2694 2691 2731 2757 2668 2732 2737 2633 2759 2782 2715 2705 2742 2614 2633 2748 2788 2664 2610 2781 2712 2631 2670 2683 2662 2757 2604 2598 2662 2671 2601 2620 2610 2494 2601 2570 2593 2709 2530 2566 2666 2549 2583 2593 2589 2625 2644 2587 2608 2590 2551 2475 2553 2581 2556 2605 2509 2484 2649 2674 2507 2573 2605 2520 2596 2557 2610 2591 2408 2545 2551 2548 2561 2530 2610 2588 2684 2543 2432 2532 2551 2485 2518 2508 2539 2488 2491 2471 2473 2507 2574 2453 2507 2561 2447 2497 2478 2550 2546 2385 2541 2403 2624 2465 2550 2479 2409 2552 2477 2482 2518 2486 2571 2604 2485 2550 2523 2531 2724 2574 2695 2738 2708 2770 2846 2903 2914 2915 2979 3017 3139 3158 3047 3138 3185 3294 3393 3339 3386 3392 3457 3525 3601 3548 3821 3689 3859 3626 3714 3797 3720 3635 3717 3618 3437 3433 3232 3185 2945 3058 2834 2762 2626 2577 2630 2482 2516 2453 2486 2432 2475 2441 2266 2335 2395 2382 2326 2350 2221 2336 2212 2209 2210 2313 2383 2237 2242 2252 2224 2263 2301 2207 2197 2221 2256 2265 2194 2343 2218 2255 2132 2265 2135 2278 2256 2182 2166 2150 2269 2219 2228 2307 2267 2157 2204 2084 2247 2166 2246 2165 2189 2152 2214 2175 2221 2147 2255 2133 2278 2160 2270 2205 2180 2183 2198 2214 2169 2231 2191 2192 2231 2125 2183 2161 2111 2227 2153 2159 2162 2171 2172 2164 2347 2093 2134 2160 2117 2128 2053 2216 2154 2133 2202 2179 2135 2157 2190 2172 2179 2099 2138 2177 2206 2191 2133 2177 2174 2192 2198 2126 2249 2165 2136 2151 2149 2200 2245 2188 2193 2161 2144 2214 2163 2139 2173 2178 2273 2168 2188 2185 2145 2203 2159 2211 2205 2164 2198 2161 2144 2203 2268 2167 2243 2161 2208 2183 2107 2269 2152 2137 2129 2177 2150 2251 2262 2188 2220 2201 2121 2235 2267 2187 2199 2225 2163 2196 2176 2128 2205 2169 2175 2195 2140 2144 2162 2196 2171 2228 2128 2189 2192 2143 2152 2103 2166 2206 2230 2201 2198 2203 2255 2143 2161 2199 2274 2227 2114 2195 2210 2150 2279 2205 2123 2182 2227 2096 2125 2221 2148 2231 2212 2237 2209 2172 2211 2159 2169 2129 2221 2099 2186 2071 2177 2205 2186 2223 2121 2179 2233 2137 2205 2254 2211 2184 2156 2141 2215 2185 2157 2191 2121 2252 2096 2185 2225 2153 2205 2234 2169 2213 2250 2235 2273 2200 2160 2157 2197 2193 2189 2130 2216 2181 2235 2198 2090 2038 2053 2092 2143 2108 2148 2131 2146 2071 2087 2142 2160 2140 2067 2099 2067 2124 2182 2188 2088 2038 2111 2133 2083 2030 2101 2083 2050 2094 2055 2062 2079 2120 2050 1997 2046 2058 2054 2050 1966 2021 2103 2084 2028 2110 2087 2070 2068 1951 2068 2046 2007 1894 1988 2053 2067 2016 1963 2000 1988 1969 1952 1986 2083 2019 2066 2091 2087 2119 2108 2084 2032 2137 2072 2068 1948 2058 1986 2109 2108 2026 2127 2160 2030 2071 2179 1965 2118 2102 2065 2086 2131 2143 2108 2087 2134 2083 2064 2158 2076 2118 2110 2169 2150 2090 2038 2186 2175 2215 2189 2174 2219 2156 2269 2201 2179 2158 2169 2178 2228 2231 2175 2184 2250 2217 2194 2092 2130 2216 2127 2164 2180 2071 2273 2152 2193 2178 2249 2169 2352 2213 2240 2268 2219 2298 2363 2477 2454 2513 2500 2499 2623 2694 2594 2750 2796 2766 2929 2989 3044 3173 3095 3224 3306 3360 3419 3445 3436 3557 3494 3540 3505 3460 3390 3353 3306 3217 3198 2939 2986 2877 2770 2678 2597 2423 2434 2332 2225 2176 2312 2132 2081 2161 2077 2041 1991 2062 2123 2067 2047 2016 1914 2004 1948 1953 2009 1973 1944 1942 1926 1905 1899 1945 1947 1875 1872 1895 1794 1813 1828 1877 1917 1921 1897 1881 1869 1886 1876 1861 1920 1895 1906 1956 1931 1914 1947 1918 1964 1978 1969 2037 2025 1977 2092 2075 2054 2147 1967 2121 2117 2205 2148 2307 2236 2336 2408 2340 2472 2458 2464 2655 2640 2809 2720 2832 2878 2987 3120 3256 3267 3272 3448 3394 3458 3424 3586 3371 3593 3479 3604 3581 3564 3824 3636 3591 3783 3900 3930 3951 4059 4079 4034 4048 4088 4048 4039 3913 3810 3783 3678 3585 3526 3503 3219 3115 2989 2879 2838 2647 2552 2470 2446 2355 2397 2229 2191 2205 2155 2063 1958 2018 1902 2018 1862 1878 1948 1941 1910 1926 1915 1920 1907 1857 1811 1841 1913 1844 1800 1855 1879 1859 1869 1823 1914 1873 1855 1819 1860 1885 1878 1842 1884 1821 1822 1841 1869 1800 1854 1848 1817 1912 1853 1873 1867 1876 1844 1865 1885 1862 1949 1886 1846 1860 1947 1882 1980 1925 1896 2009 1871 1918 2056 1984 1955 2052 2017 1987 2024 2128 2117 2098 2103 2131 2051 2251 2076 2216 2276 2338 2388 2406 2440 2562 2576 2658 2882 2911 3014 3027 3209 3349 3702 3899 4047 4179 4405 4582 4763 5194 5313 5679 5829 6121 6239 6528 6874 7403 7530 8054 8320 8569 8867 9191 9460 9595 9740 9829 9830 9639 9323 8925 8535 8069 7553 7011 6549 6033 5640 5388 4616 4274 4079 3647 3423 3148 2913 2847 2653 2481 2446 2383 2346 2369 2320 2277 2234 2225 2120 2174 2249 2170 2176 2240 2210 2351 2148 2208 2327 2295 2324 2378 2352 2441 2463 2416 2453 2454 2509 2508 2592 2597 2490 2466 2388 2290 2357 2280 2210 2205 2078 1986 1978 1968 1911 1879 1793 1836 1814 1802 1864 1742 1709 1743 1761 1699 1639 1642 1746 1720 1651 1663 1762 1727 1687 1687 1670 1693 1633 1664 1692 1695 1783 1690 1722 1801 1746 1758 1759 1709 1650 1716 1644 1704 1726 1730 1716 1704 1660 1715 1678 1695 1693 1676 1737 1665 1681 1647 1579 1595 1619 1689 1663 1625 1713 1644 1667 1588 1599 1623 1646 1661 1581 1640 1618 1652 1676 1599 1640 1623 1655 1701 1655 1627 1657 1593 1572 1623 1574 1689 1652 1610 1639 1630 1624 1617 1663 1580 1556 1668 1617 1618 1671 1579 1553 1629 1624 1662 1683 1765 1631 1656 1634 1734 1649 1753 1589 1672 1763 1797 1724 1874 1823 1787 1861 1965 1934 1945 1945 1927 2027 2057 2075 2153 2242 2192 2234 2371 2434 2476 2506 2454 2579 2584 2628 2774 2933 2954 2948 3096 3055 3080 3123 3216 3059 3125 3015 2954 2954 2868 2668 2680 2560 2538 2313 2277 2195 2049 2104 2000 1956 1893 1850 1726 1723 1813 1733 1658 1702 1670 1779 1698 1735 1624 1745 1700 1734 1668 1696 1767 1713 1795 1812 1785 1864 1846 1883 1839 1940 1953 2050 2017 2095 2179 2119 2157 2257 2438 2343 2461 2580 2631 2830 2845 2789 2904 3068 3065 3244 3375 3504 3509 3746 3801 3937 3857 4056 4026 4213 4254 4180 4088 4078 4075 3965 3959 3889 3746 3481 3473 3333 3105 3094 2922 2767 2640 2619 2528 2364 2238 2072 2151 1996 2049 1947 1912 1965 1885 1865 1761 1717 1740 1792 1807 1866 1796 1800 1728 1748 1725 1757 1750 1783 1704 1818 1741 1727 1770 1723 1690 1749 1644 1769 1723 1639 1734 1668 1726 1726 1685 1765 1666 1765 1751 1738 1828 1747 1797 1794 1758 1810 1783 1843 1814 1825 1910 1824 1831 1858 1828 1857 1800 1788 1851 1818 1802 1883 1865 1872 1870 1803 1855 1810 1885 1874 1837 1853 1780 1855 1764 1776 1787 1858 1753 1773 1868 1755 1733 1741 1765 1879 1779 1901 1867 1892 1896 1890 1886 1826 1897 1901 2031 2046 2045 2085 2072 2133 2288 2259 2277 2314 2368 2432 2497 2560 2513 2620 2580 2733 2808 2845 2822 2832 2896 2869 2908 2871 2878 2960 2799 2789 2674 2707 2508 2642 2439 2451 2369 2312 2298 2227 2240 2219 2158 2069 2151 2088 2156 2072 2192 2170 2156 2301 2276 2289 2356 2332 2455 2413 2486 2545 2491 2486 2598 2514 2566 2457 2373 2393 2312 2257 2246 2224 2128 2115 1948 1913 1865 1838 1789 1816 1757 1663 1629 1679 1665 1655 1539 1599 1538 1482 1597 1562 1559 1465 1554 1560 1541 1484 1481 1449 1506 1539 1521 1500 1510 1464 1521 1508 1517 1484 1491 1461 1498 1411 1493 1473 1484 1458 1455 1468 1439 1531 1421 1466 1518 1540 1460 1482 1508 1459 1497 1408 1492 1482 1403 1435 1439 1493 1423 1442 1393 1483 1469 1518 1425 1502 1418 1424 1380 1473 1442 1515 1445 1498 1529 1436 1486 1439 1520 1402 1416 1434 1439 1466 1500 1411 1419 1385 1500 1407 1456 1425 1499 1406 1494 1375 1445 1413 1424 1474 1473 1357 1482 1474 1466 1509 1468 1422 1476 1453 1406 1428 1364 1432 1481 1356 1450 1431 1433 1464 1347 1421 1479 1417 1437 1490 1435 1423 1462 1439 1506 1424 1462 1516 1527 1463 1370 1429 1479 1499 1419 1474 1397 1465 1481 1478 1563 1460 1492 1561 1476 1464 1492 1587 1571 1517 1552 1517 1545 1577 1573 1585 1523 1601 1527 1494 1538 1522 1511 1616 1559 1540 1569 1473 1581 1472 1540 1518 1494 1471 1454 1467 1528 1505 1430 1464 1495 1504 1478 1403 1403 1467 1413 1402 1420 1474 1397 1347 1382 1347 1453 1444 1408 1370 1439 1393 1442 1375 1343 1414 1457 1483 1414 1438 1441 1413 1441 1402 1509 1428 1428 1441 1446 1453 1491 1425 1488 1436 1495 1478 1456 1436 1449 1447 1459 1548 1403 1529 1471 1444 1508 1460 1464 1538 1527 1475 1589 1494 1444 1518 1498 1516 1538 1511 1521 1535 1443 1461 1457 1484 1456 1495 1431 1380 1437 1434 1440 1413 1457 1365 1412 1474 1414 1456 1479 1461 1446 1532 1488 1415 1425 1482 1418 1493 1456 1470 1437 1536 1575 1552 1495 1526 1486 1548 1620 1626 1643 1589 1681 1685 1664 1671 1685 1741 1704 1639 1725 1662 1616 1544 1572 1649 1671 1636 1602 1534 1524 1590 1599 1603 1524 1473 1483 1424 1434 1523 1455 1495 1432 1587 1431 1576 1448 1500 1534 1529 1543 1501 1529 1559 1582 1648 1652 1616 1732 1718 1694 1782 1747 1863 1845 1853 2010 2097 2152 2290 2297 2432 2482 2691 2623 2858 2947 3150 3225 3399 3564 3723 3702 3923 4219 4337 4553 4704 4861 5098 5185 5278 5404 5760 5520 5640 5733 5693 5510 5432 5087 4911 4688 4599 4256 4094 3852 3668 3439 3117 3104 2805 2661 2480 2386 2312 2111 1978 1936 1804 1761 1648 1669 1645 1630 1579 1609 1515 1531 1558 1468 1494 1485 1442 1420 1459 1441 1488 1386 1478 1380 1421 1461 1377 1380 1344 1503 1346 1384 1373 1358 1480 1415 1388 1418 1350 1390 1334 1352 1301 1377 1453 1377 1358 1324 1387 1364 1346 1348 1384 1394 1339 1429 1358 1416 1407 1426 1343 1373 1317 1404 1321 1335 1323 1408 1398 1395 1330 1384 1462 1325 1372 1332 1322 1364 1427 1415 1421 1377 1419 1364 1399 1417 1377 1364 1454 1275 1449 1331 1374 1428 1412 1449 1342 1357 1422 1357 1365 1348 1407 1477 1313 1443 1359 1403 1426 1380 1443 1462 1464 1411 1431 1414 1432 1421 1537 1494 1484 1470 1527 1540 1538 1572 1501 1652 1691 1679 1700 1666 1730 1824 1700 1754 1793 1890 1901 1898 1944 1975 1944 2043 1991 2045 2047 1987 1928 1907 1977 1874 1849 1765 1804 1742 1726 1694 1648 1657 1605 1570 1536 1551 1488 1463 1490 1550 1458 1472 1385 1527 1427 1391 1544 1444 1545 1572 1500 1612 1508 1587 1583 1554 1660 1631 1664 1663 1732 1800 1734 1859 1702 2030 1990 2052 2073 2029 2023 2066 2147 2167 2105 2142 2145 2138 2064 2033 2013 1930 2011 1844 1888 1831 1757 1703 1733 1645 1585 1605 1573 1602 1578 1571 1453 1391 1391 1485 1458 1437 1478 1432 1432 1420 1405 1333 1407 1440 1440 1443 1470 1507 1375 1359 1467 1342 1424 1436 1432 1473 1402 1530 1549 1544 1477 1496 1553 1540 1589 1608 1627 1564 1665 1649 1629 1626 1688 1747 1742 1710 1860 1686 1842 1815 1836 1715 1749 1779 1765 1677 1748 1708 1665 1667 1585 1664 1532 1634 1508 1618 1511 1393 1464 1405 1443 1440 1412 1402 1426 1326 1377 1374 1335 1337 1394 1400 1382 1346 1370 1320 1402 1368 1358 1383 1383 1321 1467 1365 1342 1380 1286 1361 1343 1352 1372 1375 1402 1388 1377 1366 1389 1337 1331 1459 1380 1392 1336 1372 1297 1446 1400 1436 1485 1372 1413 1437 1386 1399 1373 1321 1388 1432 1402 1428 1472 1384 1438 1399 1385 1335 1417 1408 1489 1471 1466 1444 1491 1528 1554 1521 1474 1527 1504 1520 1605 1554 1546 1548 1575 1689 1596 1644 1639 1578 1682 1643 1679 1663 1771 1705 1703 1766 1769 1647 1683 1653 1692 1750 1698 1660 1650 1655 1595 1501 1569 1619 1517 1569 1513 1435 1439 1441 1457 1417 1424 1431 1384 1286 1357 1430 1378 1367 1427 1329 1351 1401 1356 1391 1400 1340 1419 1402 1355 1395 1472 1366 1463 1442 1471 1500 1435 1413 1400 1412 1494 1411 1446 1505 1491 1546 1482 1528 1532 1538 1542 1568 1494 1527 1471 1516 1455 1520 1478 1467 1472 1410 1415 1462 1406 1378 1387 1394 1384 1376 1414 1360 1334 1308 1356 1296 1363 1402 1275 1359 1324 1381 1337 1399 1359 1354 1395 1395 1314 1361 1362 1331 1387 1327 1311 1416 1279 1403 1331 1398 1343 1390 1437 1347 1353 1383 1389 1310 1390 1342 1380 1253 1297 1327 1292 1395 1349 1298 1427 1354 1359 1339 1339 1413 1324 1265 1359 1342 1377 1300 1435 1307 1373 1382 1407 1365 1403 1421 1320 1350 1437 1397 1393 1435 1431 1486 1364 1471 1462 1421 1408 1532 1454 1439 1528 1445 1511 1521 1517 1461 1486 1602 1447 1663 1558 1600 1497 1607 1506 1560 1561 1522 1533 1443 1484 1423 1465 1457 1364 1391 1439 1454 1445 1360 1364 1421 1343 1400 1298 1501 1374 1435 1411 1405 1366 1430 1343 1359 1453 1363 1382 1461 1359 1353 1509 1391 1481 1382 1451 1464 1439 1503 1505 1504 1509 1571 1531 1660 1586 1703 1685 1700 1675 1737 1707 1744 1757 1804 1859 1844 1928 1955 1917 1872 1884 1760 1900 1822 1850 1804 1805 1770 1767 1724 1803 1677 1642 1653 1639 1634 1619 1602 1571 1635 1600 1520 1524 1499 1466 1481 1559 1533 1434 1536 1451 1580 1567 1629 1557 1582 1672 1642 1742 1700 1780 1820 1924 1889 2041 2083 2097 2193 2230 2391 2532 2584 2835 2890 2998 3106 3228 3389 3449 3679 3769 3917 3919 3954 3982 3855 3870 3994 3765 3723 3562 3413 3385 3279 3077 3044 2982 2961 2816 2760 2627 2477 2375 2381 2396 2191 2125 2068 2009 1856 1890 1855 1807 1782 1703 1743 1745 1701 1644 1687 1731 1665 1683 1623 1592 1605 1708 1564 1586 1699 1680 1517 1615 1608 1637 1678 1703 1677 1740 1633 1736 1749 1724 1756 1874 1850 1838 1844 1968 1951 1927 2030 2076 2126 2136 2217 2361 2312 2486 2390 2594 2747 2763 2808 2920 2800 2800 2896 2926 2850 2917 2803 2848 2887 2760 2665 2689 2641 2564 2533 2554 2354 2273 2249 2183 2078 2034 1951 1924 1881 1726 1773 1722 1685 1679 1562 1575 1609 1500 1518 1480 1470 1453 1399 1413 1341 1357 1351 1317 1303 1418 1402 1406 1385 1374 1315 1415 1275 1367 1270 1365 1383 1323 1413 1393 1303 1341 1388 1318 1358 1268 1308 1278 1299 1326 1395 1355 1344 1330 1326 1333 1348 1317 1306 1285 1342 1289 1364 1337 1280 1299 1301 1256 1311 1335 1346 1399 1354 1306 1270 1388 1312 1312 1368 1308 1366 1297 1338 1269 1383 1383 1399 1335 1284 1310 1294 1332 1346 1292 1350 1318 1336 1296 1283 1290 1344 1358 1343 1359 1342 1328 1365 1319 1325 1307 1357 1335 1377 1381 1387 1316 1331 1405 1364 1360 1286 1344 1350 1341 1381 1401 1306 1299 1341 1362 1366 1315 1412 1349 1374 1353 1375 1396 1382 1423 1458 1389 1414 1425 1505 1382 1428 1427 1521 1515 1500 1588 1568 1681 1551 1636 1656 1659 1729 1757 1750 1736 1825 1830 1970 1997 1952 2054 2096 2146 2103 2179 2322 2304 2375 2281 2409 2337 2387 2310 2380 2418 2387 2278 2324 2197 2276 2227 2123 2118 2054 2126 2098 2063 2078 1964 2027 1949 1917 2097 2008 1973 1980 1958 2046 2061 1999 1998 1962 2043 1959 1989 1985 1960 1978 1994 1934 2023 2036 1967 1999 2005 2071 2025 2062 2029 1957 1970 1984 1947 1873 1845 1812 1793 1660 1680 1751 1687 1640 1667 1743 1552 1665 1600 1607 1601 1572 1489 1571 1530 1572 1569 1480 1549 1567 1528 1579 1602 1617 1608 1671 1623 1708 1625 1784 1794 1822 1794 1924 1788 1763 1849 1757 1802 1792 1794 1756 1737 1717 1698 1626 1665 1685 1604 1579 1542 1548 1559 1540 1506 1504 1466 1471 1466 1393 1416 1391 1368 1357 1451 1368 1296 1386 1395 1410 1438 1448 1455 1420 1423 1364 1383 1421 1459 1463 1430 1499 1522 1569 1516 1475 1601 1558 1596 1695 1711 1767 1731 1733 1781 1862 1868 1964 1899 1983 1985 2156 2062 2193 2169 2356 2250 2318 2407 2301 2295 2375 2433 2435 2384 2371 2299 2324 2065 2103 2072 2034 2038 2098 1984 1949 1872 1839 1776 1771 1770 1615 1646 1460 1512 1522 1441 1443 1438 1374 1371 1310 1340 1363 1343 1268 1324 1296 1295 1332 1323 1373 1212 1370 1292 1247 1252 1211 1281 1247 1252 1232 1331 1239 1323 1266 1285 1314 1277 1285 1275 1299 1315 1296 1281 1201 1254 1246 1264 1194 1267 1183 1288 1306 1302 1256 1273 1351 1342 1271 1232 1342 1339 1323 1308 1355 1305 1356 1323 1351 1347 1409 1393 1459 1371 1368 1423 1367 1374 1519 1521 1526 1476 1525 1494 1600 1612 1654 1643 1712 1665 1717 1686 1687 1552 1743 1636 1610 1643 1582 1567 1622 1549 1514 1496 1494 1485 1421 1374 1530 1382 1410 1296 1365 1330 1340 1272 1305 1272 1306 1230 1299 1266 1223 1268 1257 1249 1249 1144 1303 1286 1234 1278 1299 1239 1282 1239 1251 1245 1245 1218 1224 1173 1234 1233 1181 1166 1202 1218 1184 1212 1212 1218 1268 1152 1254 1218 1233 1294 1262 1192 1244 1285 1260 1276 1222 1235 1198 1261 1255 1156 1262 1262 1285 1196 1227 1275 1227 1218 1219 1215 1248 1219 1324 1218 1234 1210 1215 1221 1233 1172 1219 1248 1247 1237 1320 1218 1186 1210 1197 1273 1152 1160 1148 1196 1252 1203 1240 1210 1270 1194 1208 1247 1110 1283 1239 1288 1274 1259 1227 1241 1258 1269 1293 1210 1240 1234 1266 1254 1249 1281 1263 1208 1294 1295 1308 1206 1247 1310 1264 1311 1250 1291 1265 1288 1280 1257 1240 1278 1261 1256 1370 1279 1301 1244 1277 1298 1281 1289 1196 1270 1228 1246 1267 1315 1264 1289 1304 1264 1340 1332 1272 1250 1349 1273 1340 1270 1298 1317 1332 1307 1345 1360 1347 1375 1351 1351 1372 1353 1320 1348 1382 1414 1442 1349 1410 1406 1406 1415 1402 1483 1385 1374 1430 1458 1348 1374 1422 1470 1461 1359 1422 1406 1355 1358 1284 1345 1395 1407 1334 1359 1285 1310 1358 1260 1287 1168 1309 1238 1280 1297 1259 1225 1256 1273 1207 1231 1169 1237 1261 1235 1221 1233 1234 1285 1249 1220 1262 1276 1256 1279 1169 1270 1162 1233 1247 1218 1301 1257 1329 1199 1243 1264 1292 1266 1259 1300 1323 1260 1251 1291 1336 1274 1316 1244 1290 1288 1349 1316 1387 1282 1314 1369 1419 1431 1378 1390 1369 1431 1369 1355 1469 1407 1416 1389 1465 1401 1331 1381 1390 1428 1379 1382 1390 1356 1360 1315 1335 1303 1358 1286 1305 1297 1301 1272 1248 1302 1353 1305 1322 1292 1325 1257 1343 1296 1259 1286 1207 1275 1272 1382 1261 1221 1312 1294 1313 1347 1326 1287 1290 1244 1265 1286 1289 1284 1253 1320 1231 1395 1441 1350 1306 1373 1341 1453 1366 1492 1436 1459 1469 1518 1505 1568 1530 1554 1631 1528 1674 1676 1730 1721 1740 1722 1827 1855 1964 1940 1982 2064 2040 2165 2067 2044 2141 2161 2271 2267 2222 2203 2177 2250 2197 2131 1974 2028 2057 1949 1982 1944 1896 1899 1953 1810 1843 1797 1776 1697 1669 1690 1711 1600 1602 1606 1508 1532 1561 1537 1569 1564 1534 1484 1423 1543 1502 1468 1488 1561 1517 1475 1468 1577 1459 1474 1499 1567 1467 1493 1426 1451 1460 1461 1451 1432 1462 1528 1463 1429 1361 1418 1468 1470 1475 1512 1380 1517 1375 1425 1478 1457 1481 1533 1538 1542 1465 1486 1554 1428 1466 1420 1470 1421 1476 1448 1424 1484 1396 1403 1373 1355 1293 1399 1408 1355 1300 1288 1315 1291 1274 1223 1263 1181 1267 1236 1241 1244 1244 1192 1247 1241 1241 1250 1265 1207 1215 1205 1262 1246 1244 1241 1176 1222 1188 1196 1160 1202 1180 1216 1177 1178 1206 1207 1173 1217 1227 1225 1248 1225 1207 1162 1149 1243 1264 1203 1188 1181 1221 1175 1218 1295 1178 1234 1187 1193 1231 1171 1147 1175 1128 1232 1208 1238 1207 1266 1225 1213 1288 1246 1219 1212 1260 1329 1201 1267 1248 1287 1354 1355 1296 1318 1254 1292 1324 1337 1260 1435 1367 1301 1346 1484 1381 1347 1377 1452 1457 1447 1490 1437 1448 1511 1450 1499 1556 1594 1549 1586 1576 1602 1663 1647 1648 1669 1585 1583 1615 1573 1626 1519 1553 1517 1429 1532 1537 1529 1554 1536 1466 1448 1439 1467 1430 1453 1428 1477 1447 1463 1511 1422 1494 1464 1409 1490 1478 1468 1513 1465 1548 1518 1569 1628 1595 1625 1639 1633 1589 1719 1622 1669 1678 1575 1608 1657 1579 1621 1584 1556 1528 1540 1590 1578 1506 1582 1540 1541 1555 1515 1477 1507 1475 1435 1510 1441 1403 1420 1437 1359 1443 1406 1381 1289 1372 1368 1308 1316 1231 1275 1295 1315 1223 1252 1228 1170 1316 1255 1247 1233 1263 1181 1256 1208 1221 1219 1279 1205 1171 1134 1160 1199 1211 1182 1181 1233 1213 1204 1216 1202 1176 1225 1181 1206 1215 1266 1254 1235 1246 1186 1230 1199 1193 1215 1241 1197 1199 1195 1206 1211 1210 1196 1260 1209 1254 1248 1206 1235 1285 1230 1318 1258 1221 1233 1274 1266 1374 1191 1303 1284 1329 1239 1342 1252 1282 1241 1238 1239 1375 1189 1347 1310 1223 1290 1271 1268 1363 1350 1299 1274 1281 1287 1318 1337 1270 1260 1288 1216 1287 1256 1217 1275 1244 1205 1298 1218 1301 1256 1298 1254 1337 1256 1340 1246 1280 1199 1282 1248 1342 1265 1292 1339 1256 1221 1334 1263 1361 1334 1368 1319 1307 1326 1341 1344 1389 1337 1484 1342 1448 1389 1451 1403 1458 1430 1408 1423 1381 1363 1339 1403 1413 1381 1361 1273 1423 1340 1353 1342 1353 1429 1399 1326 1441 1409 1373 1381 1377 1271 1464 1367 1329 1342 1346 1336 1290 1304 1331 1329 1325 1283 1200 1286 1262 1290 1271 1239 1279 1253 1216 1223 1228 1297 1222 1266 1231 1175 1203 1201 1214 1167 1209 1176 1194 1196 1208 1228 1161 1162 1214 1221 1202 1221 1169 1203 1233 1248 1337 1197 1258 1265 1238 1263 1325 1235 1236 1323 1313 1274 1281 1277 1231 1340 1274 1309 1289 1302 1317 1252 1302 1315 1345 1325 1322 1332 1323 1300 1318 1292 1294 1324 1294 1322 1418 1323 1408 1377 1404 1418 1490 1502 1465 1564 1542 1606 1559 1554 1486 1541 1543 1544 1539 1572 1692 1693 1659 1763 1764 1779 1872 1896 1835 1904 1845 1738 1819 1959 1877 1834 1842 1835 1723 1778 1721 1721 1607 1588 1656 1628 1624 1589 1536 1513 1547 1475 1511 1449 1402 1484 1358 1361 1338 1324 1376 1242 1253 1289 1213 1254 1236 1204 1233 1212 1236 1286 1226 1178 1185 1250 1208 1234 1149 1172 1188 1145 1154 1118 1184 1097 1232 1124 1198 1169 1183 1146 1183 1141 1141 1130 1194 1178 1166 1158 1145 1241 1190 1127 1128 1215 1156 1116 1155 1185 1180 1210 1161 1140 1141 1143 1193 1139 1124 1156 1159 1144 1168 1203 1170 1143 1124 1183 1145 1156 1198 1227 1173 1190 1142 1224 1272 1200 1204 1284 1180 1257 1283 1210 1277 1295 1294 1253 1317 1281 1227 1289 1289 1278 1245 1252 1347 1285 1280 1244 1279 1268 1217 1356 1222 1344 1228 1291 1325 1346 1268 1287 1253 1357 1401 1244 1269 1340 1284 1296 1273 1236 1284 1271 1240 1242 1306 1262 1271 1235 1227 1168 1267 1178 1205 1234 1258 1212 1243 1222 1155 1235 1242 1170 1137 1140 1172 1243 1160 1154 1201 1196 1193 1185 1239 1176 1231 1207 1225 1218 1215 1177 1181 1188 1230 1184 1307 1239 1261 1187 1230 1245 1249 1276 1221 1318 1313 1330 1392 1354 1351 1344 1331 1380 1351 1296 1327 1369 1402 1422 1367 1442 1413 1382 1391 1412 1336 1282 1220 1363 1328 1303 1383 1396 1316 1335 1343 1268 1271 1267 1230 1224 1274 1214 1238 1283 1207 1228 1282 1196 1166 1184 1237 1181 1202 1197 1201 1144 1165 1165 1174 1234 1141 1231 1145 1255 1158 1207 1134 1105 1171 1156 1151 1158 1150 1119 1122 1202 1167 1131 1153 1171 1045 1173 1165 1183 1153 1193 1135 1153 1146 1199 1154 1157 1104 1105 1136 1207 1129 1223 1164 1104 1205 1170 1138 1189 1072 1126 1188 1132 1167 1144 1200 1217 1124 1135 1151 1131 1149 1112 1143 1117 1202 1179 1174 1173 1173 1141 1181 1140 1122 1161 1155 1178 1230 1177 1165 1241 1120 1193 1116 1172 1221 1197 1345 1188 1167 1220 1169 1262 1199 1197 1245 1223 1279 1247 1216 1208 1249 1323 1207 1254 1246 1277 1254 1275 1284 1300 1263 1258 1261 1348 1332 1305 1280 1294 1358 1274 1434 1391 1325 1304 1420 1346 1352 1296 1256 1257 1263 1262 1356 1187 1290 1243 1276 1256 1261 1210 1261 1237 1112 1277 1188 1209 1255 1190 1158 1222 1124 1182 1153 1108 1113 1137 1156 1164 1138 1149 1130 1194 1165 1146 1100 1095 1118 1136 1126 1123 1143 1141 1177 1187 1108 1105 1123 1138 1165 1169 1102 1111 1158 1105 1200 1145 1176 1143 1114 1118 1097 1169 1109 1186 1199 1106 1117 1129 1216 1159 1153 1079 1131 1076 1133 1157 1099 1124 1147 1129 1173 1115 1116 1211 1123 1142 1199 1237 1145 1139 1213 1136 1160 1182 1190 1168 1189 1139 1152 1230 1165 1212 1180 1222 1188 1194 1211 1234 1173 1261 1195 1196 1252 1233 1226 1231 1190 1226 1205 1280 1224 1280 1214 1224 1166 1255 1223 1242 1215 1152 1227 1155 1234 1184 1199 1219 1165 1159 1155 1167 1195 1196 1153 1169 1167 1172 1167 1100 1141 1181 1170 1117 1082 1174 1182 1121 1218 1114 1171 1136 1166 1081 1176 1175 1161 1184 1195 1229 1137 1276 1180 1160 1130 1187 1226 1198 1213 1209 1189 1274 1221 1214 1243 1182 1203 1178 1210 1237 1186 1214 1188 1203 1160 1195 1226 1218 1178 1201 1211 1265 1206 1232 1322 1192 1210 1193 1213 1156 1196 1158 1148 1210 1185 1234 1218 1138 1231 1183 1186 1207 1174 1142 1173 1204 1228 1160 1111 1195 1170 1150 1159 1187 1117 1165 1185 1129 1182 1081 1115 1168 1154 1106 1137 1107 1143 1125 1107 1217 1113 1126 1179 1204 1193 1100 1073 1161 1127 1139 1094 1155 1187 1143 1211 1095 1172 1105 1159 1167 1197 1127 1179 1146 1154 1158 1205 1232 1191 1215 1175 1180 1205 1131 1171 1216 1177 1232 1238 1247 1182 1250 1245 1231 1300 1270 1282 1232 1299 1227 1270 1278 1236 1199 1218 1224 1252 1268 1290 1297 1259 1322 1247 1244 1275 1170 1138 1284 1338 1212 1192 1224 1183 1205 1193 1252 1191 1203 1197 1184 1234 1167 1215 1222 1236 1210 1195 1137 1225 1163 1160 1170 1158 1150 1187 1179 1166 1191 1125 1179 1129 1097 1163 1150 1182 1168 1193 1136 1163 1165 1211 1245 1208 1184 1231 1232 1244 1200 1275 1189 1321 1316 1203 1278 1208 1206 1209 1218 1233 1173 1197 1193 1210 1159 1272 1212 1204 1250 1195 1167 1175 1175 1159 1123 1177 1125 1176 1202 1107 1152 1141 1173 1159 1199 1227 1157 1183 1176 1154 1123 1170 1153 1164 1173 1092 1200 1152 1175 1151 1145 1138 1197 1103 1132 1100 1120 1116 1157 1158 1118 1152 1158 1102 1130 1099 1206 1170 1138 1156 1201 1149 1141 1199 1179 1195 1118 1085 1179 1155 1166 1218 1085 1163 1142 1201 1133 1168 1210 1185 1181 1164 1189 1242 1235 1240 1261 1318 1237 1211 1285 1183 1270 1236 1236 1250 1202 1194 1182 1276 1141 1224 1185 1200 1222 1210 1238 1195 1203 1292 1241 1218 1149 1136 1215 1237 1198 1254 1167 1275 1209 1243 1262 1246 1232 1198 1265 1193 1262 1155 1239 1237 1287 1185 1265 1273 1279 1282 1295 1241 1248 1312 1347 1371 1308 1318 1320 1362 1391 1320 1335 1301 1294 1369 1325 1395 1366 1321 1416 1294 1332 1309 1253 1260 1273 1256 1293 1269 1282 1243 1174 1291 1224 1213 1273 1276 1189 1240 1205 1222 1178 1171 1161 1212 1160 1247 1157 1173 1121 1142 1173 1172 1249 1183 1201 1132 1141 1115 1200 1149 1210 1093 1165 1182 1214 1210 1154 1150 1182 1204 1132 1140 1214 1147 1256 1143 1220 1160 1213 1115 1204 1156 1305 1147 1236 1153 1136 1180 1229 1217 1177 1302 1182 1195 1258 1179 1171 1211 1167 1179 1223 1174 1213 1300 1160 1173 1160 1182 1227 1117 1189 1111 1186 1176 1210 1188 1224 1186 1244 1184 1222 1193 1182 1213 1131 1156 1235 1226 1170 1196 1238 1207 1173 1181 1194 1194 1178 1225 1158 1236 1199 1124 1233 1203 1208 1184 1189 1207 1140 1174 1261 1193 1197 1177 1207 1150 1184 1185 1211 1169 1224 1174 1230 1111 1172 1164 1183 1171 1156 1204 1139 1188 1184 1227 1213 1254 1168 1180 1172 1164 1148 1188 1196 1213 1236 1153 1228 1183 1186 1224 1189 1209 1244 1301 1250 1207 1219 1242 1174 1219 1183 1180 1194 1215 1260 1212 1253 1257 1297 1286 1264 1331 1282 1318 1283 1328 1318 1325 1298 1303 1323 1339 1333 1310 1305 1299 1314 1251 1245 1324 1280 1267 1254 1274 1213 1258 1147 1218 1232 1184 1167 1205 1266 1264 1259 1214 1154 1188 1192 1146 1188 1272 1162 1234 1139 1196 1155 1183 1191 1089 1191 1106 1176 1107 1100 1217 1138 1151 1126 1122 1226 1140 1109 1167 1183 1190 1163 1239 1168 1154 1077 1172 1122 1104 1136 1202 1198 1259 1117 1187 1121 1198 1216 1201 1198 1144 1194 1115 1180 1157 1226 1180 1219 1215 1294 1231 1196 1303 1288 1190 1119 1261 1115 1265 1199 1236 1201 1196 1171 1179 1172 1177 1210 1161 1208 1229 1246 1184 1213 1096 1237 1132 1148 1236 1134 1205 1180 1201 1154 1158 1157 1146 1155 1209 1178 1185 1194 1206 1216 1149 1205 1225 1240 1207 1180 1221 1088 1244 1261 1177 1144 1220 1186 1158 1180 1156 1138 1234 1222 1199 1217 1192 1122 1226 1194 1179 1178 1223 1200 1164 1166 1255 1215 1194 1178 1191 1182 1153 1166 1233 1250 1142 1197 1168 1228 1256 1237 1159 1239 1194 1294 1241 1272 1210 1252 1212 1270 1264 1236 1227 1240 1299 1317 1350 1310 1280 1291 1297 1349 1383 1395 1343 1419 1371 1420 1359 1361 1452 1521 1456 1468 1527 1528 1547 1642 1592 1617 1698 1583 1605 1547 1563 1549 1560 1591 1567 1613 1542 1467 1545 1516 1562 1499 1547 1493 1456 1447 1471 1504 1537 1455 1531 1505 1482 1584 1508 1502 1421 1424 1386 1424 1412 1439 1429 1359 1389 1413 1368 1346 1314 1411 1302 1371 1322 1316 1322 1342 1296 1304 1384 1383 1363 1306 1361 1369 1388 1375 1279 1390 1331 1369 1302 1266 1389 1274 1312 1318 1312 1349 1360 1390 1259 1340 1284 1286 1245 1336 1286 1234 1325 1218 1305 1268 1194 1230 1264 1273 1215 1230 1267 1288 1272 1214 1302 1153 1284 1257 1238 1245 1220 1218 1274 1290 1211 1275 1263 1231 1206 1220 1265 1261 1255 1277 1297 1279 1292 1256 1277 1220 1258 1280 1262 1243 1313 1215 1209 1205 1195 1214 1288 1308 1232 1189 1198 1218 1252 1277 1223 1266 1270 1281 1266 1198 1171 1280 1256 1264 1282 1325 1339 1255 1235 1353 1340 1276 1311 1308 1282 1310 1332 1321 1387 1415 1411 1363 1431 1350 1396 1404 1431 1492 1494 1445 1477 1527 1585 1475 1543 1597 1579 1615 1570 1582 1590 1614 1683 1647 1714 1681 1624 1665 1589 1614 1601 1570 1585 1585 1461 1489 1537 1553 1549 1463 1484 1517 1494 1434 1393 1383 1449 1428 1369 1451 1364 1382 1342 1403 1317 1343 1294 1261 1291 1288 1236 1288 1333 1254 1270 1270 1230 1225 1262 1259 1197 1228 1197 1242 1241 1226 1179 1263 1225 1195 1208 1228 1256 1187 1212 1165 1246 1226 1229 1249 1195 1250 1218 1248 1316 1268 1250 1327 1311 1266 1316 1251 1292 1285 1341 1325 1270 1281 1400 1274 1367 1352 1351 1359 1387 1363 1429 1359 1418 1392 1442 1467 1482 1362 1398 1505 1431 1503 1394 1502 1400 1427 1513 1435 1499 1423 1450 1455 1403 1432 1396 1399 1413 1454 1397 1325 1334 1343 1430 1362 1379 1412 1351 1383 1273 1317 1301 1283 1327 1319 1307 1201 1220 1292 1270 1263 1204 1282 1242 1203 1210 1208 1192 1209 1146 1245 1219 1238 1205 1211 1240 1179 1242 1163 1165 1132 1121 1160 1258 1161 1162 1210 1208 1194 1250 1166 1110 1146 1149 1169 1128 1167 1123 1228 1173 1198 1099 1205 1172 1174 1129 1255 1191 1146 1129 1190 1137 1177 1147 1158 1178 1129 1134 1180 1163 1113 1185 1120 1143 1225 1211 1185 1240 1137 1178 1114 1206 1157 1168 1159 1167 1142 1222 1249 1221 1155 1173 1080 1183 1116 1147 1163 1139 1106 1119 1179 1199 1242 1160 1200 1144 1176 1233 1148 1228 1189 1213 1180 1197 1108 1184 1144 1160 1193 1197 1231 1245 1190 1307 1247 1269 1210 1258 1252 1216 1195 1248 1219 1225 1201 1316 1297 1215 1259 1252 1168 1206 1239 1226 1236 1214 1198 1168 1273 1230 1271 1213 1256 1215 1268 1250 1201 1242 1241 1295 1305 1251 1225 1222 1164 1209 1223 1266 1280 1318 1268 1277 1241 1274 1346 1265 1313 1313 1355 1369 1298 1366 1300 1351 1347 1388 1411 1468 1424 1405 1490 1453 1492 1461 1503 1486 1515 1531 1481 1592 1540 1501 1558 1555 1597 1531 1590 1552 1557 1533 1592 1467 1547 1516 1505 1497 1541 1506 1521 1552 1459 1559 1510 1473 1434 1432 1423 1449 1455 1409 1457 1391 1467 1359 1365 1316 1351 1317 1286 1286 1308 1257 1319 1297 1299 1298 1201 1152 1245 1201 1288 1204 1209 1172 1206 1189 1171 1128 1142 1168 1175 1159 1177 1142 1135 1197 1152 1173 1153 1183 1171 1173 1212 1169 1144 1198 1168 1139 1173 1177 1159 1143 1180 1145 1149 1153 1166 1133 1138 1131 1153 1194 1185 1222 1199 1215 1167 1191 1184 1202 1191 1200 1255 1182 1187 1200 1189 1219 1203 1233 1234 1189 1198 1176 1286 1194 1209 1221 1239 1179 1205 1272 1232 1211 1244 1279 1327 1268 1206 1326 1248 1239 1315 1275 1298 1341 1320 1308 1226 1304 1271 1276 1343 1327 1265 1219 1308 1289 1302 1317 1317 1287 1379 1285 1287 1333 1309 1287 1418 1229 1350 1302 1275 1271 1215 1247 1273 1179 1248 1208 1195 1213 1244 1206 1241 1151 1188 1180 1247 1169 1250 1154 1195 1197 1277 1216 1163 1133 1189 1212 1180 1186 1136 1238 1182 1222 1177 1257 1150 1166 1115 1261 1181 1199 1157 1205 1185 1084 1209 1180 1175 1164 1109 1108 1119 1217 1189 1205 1152 1242 1191 1224 1198 1162 1214 1207 1248 1234 1264 1193 1216 1202 1148 1183 1189 1241 1210 1123 1262 1221 1236 1236 1185 1238 1168 1220 1212 1258 1157 1183 1217 1225 1297 1195 1213 1219 1163 1189 1194 1158 1186 1233 1209 1231 1233 1191 1265 1194 1234 1192 1281 1213 1279 1185 1205 1172 1235 1197 1200 1248 1181 1263 1145 1250 1208 1253 1271 1194 1220 1220 1203 1193 1227 1197 1221 1209 1218 1168 1200 1176 1208 1180 1217 1163 1220 1155 1163 1196 1159 1182 1143 1151 1145 1258 1167 1179 1157 1187 1202 1138 1147 1133 1181 1185 1178 1244 1228 1197 1193 1202 1179 1208 1172 1190 1176 1150 1186 1200 1195 1212 1208 1206 1124 1251 1170 1153 1161 1170 1195 1185 1246 1163 1255 1193 1284 1218 1290 1281 1181 1226 1220 1221 1229 1192 1197 1168 1237 1259 1187 1213 1226 1211 1231 1235 1221 1182 1227 1199 1215 1225 1215 1180 1190 1167 1136 1211 1178 1247 1181 1161 1226 1205 1156 1160 1250 1195 1237 1161 1118 1143 1164 1275 1288 1205 1264 1235 1236 1223 1230 1168 1218 1182 1193 1166 1175 1138 1200 1092 1127 1115 1179 1250 1151 1163 1106 1180 1199 1144 1218 1193 1214 1186 1203 1181 1181 1238 1169 1160 1222 1227 1128 1176 1176 1126 1172 1185 1225 1238 1173 1182 1217 1205 1121 1213 1183 1184 1241 1267 1215 1135 1187 1199 1209 1166 1183 1181 1218 1198 1256 1175 1206 1152 1160 1167 1190 1201 1214 1162 1172 1170 1197 1172 1182 1271 1206 1191 1195 1250 1231 1197 1194 1211 1181 1233 1209 1245 1238 1293 1240 1250 1245 1234 1261 1200 1324 1249 1258 1308 1285 1336 1268 1366 1261 1346 1257 1291 1290 1199 1263 1185 1261 1298 1314 1225 1209 1279 1201 1287 1251 1244 1288 1276 1242 1243 1287 1254 1236 1195 1272 1156 1262 1243 1161 1215 1247 1205 1147 1171 1229 1224 1285 1250 1245 1179 1135 1128 1204 1177 1150 1166 1170 1138 1194 1127 1148 1104 1211 1148 1164 1180 1162 1127 1164 1130 1157 1163 1145 1194 1229 1142 1164 1161 1178 1120 1151 1080 1232 1122 1175 1125 1102 1091 1091 1108 1150 1109 1171 1167 1165 1187 1113 1137 1126 1132 1135 1141 1090 1147 1113 1159 1141 1200 1141 1147 1145 1151 1191 1126 1087 1143 1123 1144 1166 1134 1148 1188 1172 1107 1135 1128 1136 1208 1192 1151 1094 1170 1155 1159 1110 1217 1161 1166 1176 1201 1113 1158 1117 1181 1143 1120 1220 1110 1200 1126 1210 1183 1175 1144 1216 1213 1196 1168 1226 1160 1184 1206 1155 1224 1157 1255 1205 1238 1272 1224 1270 1319 1251 1238 1299 1248 1329 1289 1311 1311 1257 1334 1245 1275 1305 1286 1340 1289 1423 1304 1337 1347 1345 1398 1318 1326 1327 1470 1417 1417 1411 1372 1436 1449 1349 1391 1416 1429 1332 1347 1392 1385 1339 1316 1373 1387 1414 1334 1330 1338 1300 1343 1334 1312 1297 1365 1253 1309 1296 1381 1316 1244 1251 1323 1268 1306 1249 1260 1247 1256 1313 1175 1242 1198 1179 1247 1181 1223 1176 1147 1132 1151 1218 1235 1229 1217 1244 1181 1198 1162 1181 1141 1175 1166 1154 1184 1192 1202 1213 1125 1193 1163 1218 1132 1106 1136 1122 1074 1207 1153 1130 1206 1163 1170 1127 1177 1133 1193 1152 1181 1108 1163 1149 1147 1167 1163 1116 1190 1070 1218 1181 1202 1147 1159 1180 1155 1165 1138 1086 1160 1099 1102 1245 1132 1167 1209 1151 1145 1178 1206 1203 1098 1151 1128 1090 1142 1136 1215 1173 1123 1150 1214 1156 1229 1209 1194 1150 1230 1186 1207 1172 1181 1187 1238 1166 1227 1316 1273 1247 1274 1254 1277 1304 1272 1330 1225 1242 1353 1270 1310 1285 1290 1259 1242 1252 1317 1272 1248 1293 1269 1211 1286 1229 1287 1170 1201 1168 1239 1224 1261 1264 1218 1213 1209 1251 1174 1215 1221 1233 1243 1199 1150 1193 1087 1239 1099 1263 1111 1154 1191 1186 1179 1184 1197 1161 1168 1232 1128 1233 1157 1177 1173 1176 1151 1142 1147 1171 1112 1093 1104 1113 1120 1109 1136 1135 1122 1167 1049 1214 1091 1160 1145 1174 1120 1230 1119 1109 1079 1156 1123 1137 1046 1124 1162 1176 1140 1192 1128 1249 1121 1178 1075 1112 1178 1100 1130 1144 1094 1220 1110 1110 1133 1068 1071 1110 1118 1114 1104 1131 1101 1083 1126 1117 1198 1079 1092 1054 1131 1114 1052 1117 1068 1107 1085 1088 1157 1061 1060 1092 1067 1101 1050 1125 1094 1113 1071 1062 1040 1056 1091 1148 1015 1151 1145 1121 1117 1179 1132 1138 1070 1168 1144 1133 1177 1105 1070 1173 1107 1124 1096 1096 1098 1107 1031 1166 1107 1106 1151 1042 1200 1085 1171 1099 1129 1141 1095 1127 1094 1140 1113 1086 1119 1170 1147 1111 1151 1089 1133 1098 1143 1115 1173 1107 1082 1154 1099 1122 1069 1147 1131 1067 1152 1124 1194 1172 1137 1154 1118 1194 1137 1129 1110 1132 1174 1213 1119 1141 1139 1118 1135 1170 1190 1144 1099 1158 1089 1134 1129 1096 1193 1128 1172 1154 1168 1157 1151 1133 1117 1205 1088 1180 1129 1158 1146 1162 1176 1139 1147 1091 1128 1244 1121 1189 1160 1170 1132 1218 1151 1120 1108 1134 1151 1146 1143 1199 1106 1211 1261 1183 1159 1118 1210 1149 1119 1057 1127 1136 1104 1070 1140 1119 1139 1135 1132 1171 1093 1112 1130 1108 1060 1101 1123 1167 1122 1201 1155 1052 1115 1139 1119 1134 1099 1092 1067 1143 1210 1090 1160 1094 1155 1108 1117 1151 1140 1128 1167 1128 1092 1150 1163 1152 1126 1158 1145 1126 1127 1109 1123 1189 1103 1113 1106 1172 1205 1169 1181 1149 1166 1110 1159 1149 1185 1173 1120 1131 1141 1167 1127 1206 1155 1133 1167 1129 1160 1167 1167 1139 1188 1170 1162 1176 1164 1261 1174 1251 1176 1163 1233 1187 1219 1177 1119 1195 1175 1233 1154 1176 1192 1229 1164 1081 1133 1183 1185 1152 1106 1158 1149 1197 1165 1116 1178 1181 1225 1198 1227 1172 1223 1160 1180 1228 1227 1270 1251 1175 1190 1246 1180 1182 1200 1187 1182 1174 1240 1221 1247 1200 1205 1199 1165 1223 1194 1119 1144 1200 1210 1104 1188 1232</counts>
			</dataPoints>
		</scan>
	</xrdMeasurement>
</xrdMeasurements>
