<?xml version="1.0"?>
<xrdMeasurements xmlns="http://www.xrdml.com/XRDMeasurement/2.3" xmlns:xsi="http://www.w3.org/2001/XMLSchema-instance" xsi:schemaLocation="http://www.xrdml.com/XRDMeasurement/2.3 http://www.xrdml.com/XRDMeasurement/2.3/XRDMeasurement.xsd" status="Completed" recordIdentifier="{09712197-360B-43F8-8A67-DA8A7903566B}">
	<comment>
		<entry/>
	</comment>
	<sample type="To be analyzed">
		<id>GPSS_Li1p8Mn0p7Sn0p4Cl4_111825_691cd5d8f3837ac4a0a99fd4</id>
		<name></name>
		<preparedBy></preparedBy>
	</sample>
	<xrdMeasurement measurementType="Scan" status="Completed" sampleMode="Reflection">
		<usedWavelength intended="K-Alpha 1">
			<kAlpha1 unit="Angstrom">1.5405980</kAlpha1>
			<kAlpha2 unit="Angstrom">1.5444260</kAlpha2>
			<kBeta unit="Angstrom">1.3922500</kBeta>
			<ratioKAlpha2KAlpha1>0.5000</ratioKAlpha2KAlpha1>
		</usedWavelength>
		<incidentBeamPath>
			<radius unit="mm">145.00</radius>
			<xRayTube id="1010048" name="Empyrean Cu LFF HR (9430 033 7310x)">
				<tension unit="kV">40.0</tension>
				<current unit="mA">15.0</current>
				<anodeMaterial>Cu</anodeMaterial>
				<focus type="Line">
					<length unit="mm">12.0</length>
					<width unit="mm">0.4</width>
					<takeOffAngle unit="deg">6.0</takeOffAngle>
				</focus>
			</xRayTube>
			<sollerSlit id="21010002" name="Soller slits 0.04 rad.">
				<opening unit="rad">0.0400</opening>
			</sollerSlit>
			<mask id="22031000" name="Fixed mask 13 mm">
				<width unit="mm">9.00</width>
			</mask>
			<divergenceSlit id="22120001" name="Divergence slit 1°" xsi:type="fixedDivergenceSlitType">
				<distanceToSample unit="mm">50.00</distanceToSample>
				<height unit="mm">1.52</height>
			</divergenceSlit>
		</incidentBeamPath>
		<sampleMovement xsi:type="spinningSampleMovementType">
			<spinnerRevolutionTime unit="seconds">1.0</spinnerRevolutionTime>
		</sampleMovement>
		<diffractedBeamPath>
			<radius unit="mm">145.00</radius>
			<antiScatterSlit id="22090040" name="AS slit 9 mm (PIXcel)" xsi:type="fixedAntiScatterSlitType">
				<height unit="mm">9.00</height>
			</antiScatterSlit>
			<sollerSlit id="21020003" name="Large Soller slits 0.04 rad.">
				<opening unit="rad">0.0400</opening>
			</sollerSlit>
			<filter id="20030001" name="Large beta-filter Nickel">
				<material>Ni</material>
				<thickness unit="mm">0.020</thickness>
			</filter>
			<detector id="7010019" name="PIXcel1D-Medipix3 detector" xsi:type="rtmsDetectorType">
				<phd unit="keV">
					<lowerLevel>4.02</lowerLevel>
					<upperLevel>11.27</upperLevel>
				</phd>
				<mode>Scanning</mode>
				<activeLength unit="deg">5.542</activeLength>
			</detector>
		</diffractedBeamPath>
		<scan appendNumber="0" mode="Continuous" scanAxis="Gonio" status="Completed">
			<header>
				<startTimeStamp>2025-11-21T19:52:19-08:00</startTimeStamp>
				<endTimeStamp>2025-11-21T20:00:26-08:00</endTimeStamp>
				<author>
					<name>AutomatedUser</name>
				</author>
				<source>
					<applicationSoftware version="1.7b (136)">PANalytical Aeris Instrument Suite</applicationSoftware>
					<instrumentControlSoftware version="3.2.00000000 20240306">AERIS</instrumentControlSoftware>
					<instrumentID>950485</instrumentID>
				</source>
			</header>
			<dataPoints>
				<positions axis="2Theta" unit="deg">
					<startPosition>10.00943322</startPosition>
					<endPosition>99.99442286</endPosition>
				</positions>
				<positions axis="Omega" unit="deg">
					<startPosition>5.00471661</startPosition>
					<endPosition>49.99721143</endPosition>
				</positions>
				<commonCountingTime unit="seconds">12.495</commonCountingTime>
				<counts unit="counts">3070 3142 3158 3108 3126 3054 3095 3080 3099 3108 3007 3082 3079 3172 3031 3107 3112 3033 3188 3117 3109 3072 3193 3132 3152 3089 3226 3146 3228 3114 3263 3095 3115 3207 3120 3147 3290 3195 3221 3170 3192 3150 3182 3211 3238 3208 3183 3175 3192 3181 3199 3264 3194 3178 3281 3262 3308 3324 3292 3209 3302 3233 3225 3279 3236 3188 3166 3249 3367 3346 3205 3281 3450 3338 3258 3397 3292 3282 3364 3384 3396 3371 3411 3347 3387 3358 3291 3365 3405 3254 3324 3397 3326 3463 3330 3421 3279 3333 3471 3279 3418 3343 3362 3353 3299 3382 3357 3397 3378 3332 3329 3418 3397 3454 3422 3426 3487 3351 3308 3389 3430 3323 3444 3471 3468 3380 3464 3426 3436 3425 3415 3515 3327 3481 3513 3508 3406 3503 3429 3519 3468 3497 3360 3531 3508 3405 3515 3546 3470 3539 3563 3397 3453 3493 3421 3319 3518 3434 3548 3516 3357 3596 3564 3469 3520 3401 3449 3408 3483 3494 3490 3506 3484 3507 3493 3479 3382 3430 3450 3477 3346 3508 3446 3405 3473 3372 3448 3473 3460 3416 3379 3444 3472 3383 3435 3374 3345 3398 3478 3310 3452 3446 3363 3491 3460 3260 3392 3393 3409 3404 3366 3407 3386 3477 3483 3379 3380 3390 3518 3373 3339 3384 3352 3384 3289 3373 3373 3352 3405 3245 3269 3293 3293 3342 3271 3297 3310 3318 3277 3283 3364 3308 3349 3303 3229 3176 3326 3263 3281 3341 3274 3262 3333 3336 3263 3277 3209 3193 3203 3359 3239 3241 3281 3204 3151 3366 3300 3291 3341 3165 3273 3245 3248 3359 3208 3225 3290 3227 3388 3234 3282 3219 3334 3256 3347 3205 3230 3215 3280 3304 3295 3330 3186 3229 3229 3326 3250 3298 3287 3271 3264 3156 3303 3226 3227 3250 3259 3264 3217 3215 3341 3273 3312 3339 3233 3218 3320 3368 3351 3313 3350 3309 3310 3381 3326 3349 3327 3404 3271 3279 3472 3440 3475 3471 3394 3395 3384 3353 3315 3392 3481 3437 3461 3431 3463 3474 3491 3459 3467 3527 3386 3376 3508 3421 3485 3449 3525 3533 3382 3639 3427 3489 3530 3519 3439 3597 3515 3490 3522 3596 3504 3481 3556 3497 3530 3461 3531 3517 3608 3722 3441 3534 3660 3668 3587 3733 3661 3622 3563 3660 3591 3547 3722 3615 3729 3598 3582 3759 3747 3659 3799 3788 3854 3799 3955 4091 4079 4016 4138 4131 4259 4402 4404 4301 4312 4199 4167 4221 4097 4211 4056 4104 4036 3939 3983 3892 3919 3900 3802 3879 3871 3756 3765 3724 3642 3558 3665 3553 3543 3536 3467 3588 3596 3522 3523 3487 3495 3468 3396 3551 3500 3357 3404 3508 3450 3387 3411 3344 3458 3425 3336 3424 3342 3340 3522 3368 3393 3495 3375 3322 3409 3300 3403 3344 3405 3202 3421 3406 3374 3358 3250 3318 3275 3304 3380 3242 3361 3342 3232 3189 3255 3283 3163 3224 3292 3170 3198 3264 3173 3146 3208 3265 3203 3220 3183 3185 3014 3261 3240 3115 3201 3125 3085 3206 3066 3137 3113 3083 3266 3129 3127 3166 2998 3151 3074 2995 3017 3196 3017 3074 3033 3090 2981 3089 3020 3101 2974 2829 2966 2999 3020 3057 2955 3014 3014 2935 2868 2877 2955 2870 2887 2910 2971 3030 3030 2954 2868 2835 3001 2910 2933 2878 2893 2939 2837 2848 2877 2880 2864 2973 2784 2949 2930 2886 2902 2865 2927 2982 2776 2856 2832 2819 2829 2722 2868 2818 2779 2893 2887 2734 2894 2822 2844 2841 2818 2801 2770 2834 2875 2787 2832 2809 2780 2877 2776 2844 2762 2732 2802 2777 2735 2963 2823 2676 2747 2744 2771 2645 2719 2735 2775 2756 2752 2751 2791 2737 2687 2844 2764 2765 2811 2766 2749 2650 2812 2712 2761 2729 2742 2652 2806 2684 2743 2729 2636 2724 2801 2703 2685 2675 2645 2678 2683 2677 2654 2710 2677 2642 2745 2758 2773 2659 2719 2702 2681 2679 2746 2722 2728 2724 2671 2643 2691 2587 2656 2554 2710 2709 2671 2639 2580 2634 2638 2605 2658 2647 2673 2607 2574 2686 2693 2727 2669 2694 2643 2574 2663 2605 2562 2625 2676 2766 2686 2588 2619 2565 2571 2668 2567 2579 2573 2547 2504 2654 2621 2629 2635 2615 2606 2628 2634 2566 2540 2564 2530 2495 2630 2634 2580 2545 2534 2546 2488 2583 2610 2528 2665 2593 2507 2641 2580 2573 2520 2564 2627 2571 2608 2525 2663 2590 2578 2512 2527 2535 2602 2699 2583 2570 2585 2586 2544 2568 2504 2699 2519 2624 2627 2574 2554 2577 2595 2519 2573 2491 2578 2477 2507 2538 2522 2397 2491 2484 2578 2522 2555 2542 2495 2521 2508 2444 2515 2530 2560 2417 2469 2491 2524 2503 2486 2589 2525 2475 2481 2586 2419 2443 2464 2565 2349 2373 2469 2510 2474 2436 2442 2483 2442 2360 2453 2499 2467 2494 2413 2516 2437 2480 2468 2436 2477 2405 2485 2370 2492 2357 2465 2466 2314 2392 2502 2425 2358 2344 2404 2338 2395 2386 2364 2469 2358 2314 2359 2417 2375 2288 2380 2524 2301 2479 2310 2343 2369 2358 2339 2332 2378 2406 2300 2459 2358 2460 2360 2299 2407 2420 2301 2373 2347 2389 2334 2308 2384 2350 2404 2333 2391 2455 2405 2331 2335 2305 2270 2313 2366 2303 2343 2254 2306 2322 2201 2317 2350 2286 2384 2387 2327 2279 2342 2259 2301 2312 2272 2329 2344 2292 2262 2237 2266 2332 2294 2327 2344 2307 2255 2259 2288 2296 2228 2224 2260 2263 2193 2227 2323 2235 2339 2250 2230 2238 2208 2264 2196 2308 2268 2205 2281 2286 2245 2202 2317 2239 2288 2302 2177 2218 2225 2228 2231 2241 2187 2178 2280 2180 2211 2219 2249 2194 2246 2203 2228 2161 2236 2234 2201 2249 2280 2137 2286 2243 2219 2224 2314 2245 2238 2211 2141 2176 2303 2194 2263 2175 2184 2145 2237 2232 2238 2239 2223 2242 2207 2243 2222 2217 2155 2246 2286 2292 2228 2145 2212 2170 2361 2290 2236 2186 2202 2213 2211 2184 2191 2264 2188 2227 2277 2250 2287 2296 2202 2255 2193 2200 2231 2267 2261 2175 2277 2286 2260 2279 2286 2287 2259 2206 2258 2163 2216 2274 2208 2242 2204 2160 2327 2183 2198 2201 2232 2258 2196 2250 2154 2248 2266 2147 2298 2301 2208 2179 2217 2185 2148 2122 2203 2189 2135 2189 2239 2214 2165 2192 2215 2220 2212 2274 2151 2161 2232 2192 2163 2214 2191 2196 2107 2210 2174 2209 2222 2168 2195 2150 2199 2254 2206 2226 2137 2207 2134 2182 2150 2167 2144 2164 2204 2200 2152 2038 2237 2070 2188 2168 2106 2122 2109 2167 2187 2139 2160 2139 2093 2123 2143 2147 2045 2087 2092 2052 2109 2104 2063 2099 1992 2091 2063 2141 2075 2007 2018 2022 2056 1985 2031 2031 2117 1997 1999 2008 2001 2011 2030 1928 1908 1962 1953 2001 1911 1954 1935 1946 1976 2023 1889 1957 1947 1982 1981 1909 1846 1942 1920 1935 1940 1884 1912 1885 1884 1866 1889 1947 1913 1903 1908 1856 1900 1855 1830 1814 1806 1829 1814 1802 1791 1820 1770 1863 1767 1725 1763 1793 1760 1823 1851 1746 1749 1788 1751 1774 1729 1743 1809 1799 1780 1636 1737 1691 1696 1788 1752 1709 1744 1726 1680 1772 1724 1719 1642 1762 1729 1772 1679 1620 1674 1737 1662 1679 1659 1617 1650 1719 1700 1639 1664 1628 1659 1485 1579 1625 1590 1603 1622 1692 1642 1680 1647 1584 1655 1582 1608 1588 1641 1622 1549 1674 1597 1626 1620 1526 1600 1561 1608 1591 1638 1553 1625 1548 1599 1548 1561 1552 1588 1641 1555 1547 1627 1589 1545 1592 1536 1482 1455 1566 1533 1576 1482 1533 1497 1524 1505 1510 1522 1570 1435 1524 1541 1526 1557 1519 1484 1587 1433 1564 1484 1532 1557 1542 1603 1454 1558 1567 1506 1549 1494 1508 1463 1524 1460 1517 1504 1544 1537 1488 1494 1493 1437 1365 1479 1452 1540 1496 1554 1518 1519 1549 1406 1452 1456 1569 1491 1467 1500 1468 1511 1522 1506 1548 1513 1512 1464 1443 1416 1526 1469 1508 1452 1455 1477 1447 1511 1471 1467 1479 1404 1509 1549 1490 1493 1444 1569 1478 1490 1567 1456 1463 1547 1465 1449 1510 1471 1427 1540 1487 1406 1400 1454 1538 1483 1505 1502 1500 1491 1536 1551 1425 1469 1510 1606 1447 1531 1544 1494 1573 1541 1486 1502 1480 1486 1554 1486 1534 1594 1464 1537 1535 1550 1566 1524 1511 1497 1426 1489 1520 1502 1451 1494 1449 1515 1549 1524 1562 1452 1474 1462 1460 1533 1486 1557 1563 1494 1433 1408 1500 1476 1488 1462 1463 1512 1523 1498 1496 1501 1513 1451 1480 1512 1558 1487 1450 1535 1421 1438 1443 1464 1503 1470 1594 1444 1444 1496 1456 1533 1523 1495 1423 1490 1476 1529 1545 1470 1454 1476 1476 1429 1424 1544 1482 1476 1493 1487 1405 1383 1497 1440 1419 1440 1418 1465 1463 1422 1419 1379 1359 1437 1504 1416 1389 1457 1348 1432 1397 1350 1440 1385 1405 1420 1407 1410 1430 1445 1335 1313 1323 1438 1358 1395 1322 1315 1327 1417 1309 1311 1348 1338 1296 1343 1395 1318 1341 1299 1282 1416 1342 1384 1333 1392 1289 1360 1309 1326 1337 1383 1279 1282 1313 1255 1259 1300 1315 1232 1239 1264 1267 1334 1213 1251 1260 1213 1254 1290 1248 1278 1232 1209 1237 1251 1207 1217 1244 1221 1263 1154 1234 1226 1236 1188 1158 1218 1200 1222 1201 1187 1147 1177 1155 1209 1157 1172 1156 1180 1209 1167 1200 1196 1146 1210 1141 1174 1184 1182 1254 1218 1160 1159 1127 1153 1101 1130 1142 1147 1160 1189 1132 1139 1176 1147 1136 1150 1102 1225 1166 1134 1164 1131 1140 1207 1216 1179 1219 1238 1238 1256 1276 1324 1301 1275 1317 1329 1335 1316 1398 1370 1305 1309 1237 1171 1239 1176 1173 1138 1131 1200 1138 1150 1091 1073 1053 1142 1073 1107 1090 1029 1102 1042 1090 1040 1045 990 1044 1097 1031 1064 1067 1059 1050 993 1036 1045 984 983 1015 988 1045 1020 1026 991 1012 1005 994 934 1084 1022 1029 999 1033 1010 984 1004 979 970 974 974 1002 965 928 1022 996 950 1007 982 956 960 1029 998 1027 984 977 1059 1028 970 1024 991 977 955 995 976 953 1025 978 1008 999 969 951 966 1006 990 1020 1063 1024 1060 1114 1120 1112 1165 1201 1197 1251 1268 1366 1468 1547 1679 1710 1861 1789 1722 1640 1662 1670 1636 1603 1556 1468 1414 1367 1272 1211 1236 1204 1164 1089 1130 1038 1088 1024 1001 1031 933 995 943 998 935 964 940 920 911 923 906 932 949 931 960 935 914 926 923 899 942 977 951 1012 968 999 1079 1103 1102 1099 1164 1181 1208 1231 1286 1238 1134 1161 1248 1166 1172 1020 1075 1042 1030 1002 980 934 980 907 897 894 881 832 863 793 875 843 895 833 867 869 875 837 830 827 910 848 795 798 858 814 867 831 826 801 804 771 867 828 881 813 813 807 852 845 825 773 821 787 849 795 880 820 776 831 823 822 832 813 822 784 829 844 823 762 762 791 770 805 713 778 791 778 814 803 832 800 757 806 805 767 762 798 781 788 815 733 774 764 783 742 757 752 778 757 774 799 793 809 797 767 764 762 740 759 747 800 773 760 775 756 720 719 711 756 736 790 767 744 751 733 764 751 769 739 737 787 699 731 775 696 743 795 740 710 754 762 711 757 761 710 756 762 741 704 722 742 768 721 742 745 773 734 671 677 710 754 790 771 759 776 721 682 770 727 722 753 682 724 674 718 720 718 695 728 703 714 676 719 730 717 681 738 713 736 723 704 737 745 707 749 766 748 730 720 771 787 707 762 753 717 726 704 742 737 728 757 751 804 785 835 815 770 778 790 811 776 735 731 830 774 795 780 797 751 757 760 774 772 729 770 789 800 758 741 738 686 743 716 724 750 711 726 694 715 703 685 664 710 665 685 725 661 652 684 679 644 722 666 693 712 732 696 690 712 739 674 692 655 652 640 646 666 680 632 697 649 661 707 668 739 665 689 664 640 664 680 669 671 678 649 695 695 691 727 706 711 673 671 740 648 670 727 703 675 663 688 730 668 669 643 680 663 663 648 684 696 649 644 680 645 686 721 643 704 675 692 675 701 680 668 693 624 664 715 665 752 653 702 688 637 677 691 725 655 719 718 729 756 758 781 778 736 843 847 966 977 1054 1076 1173 1337 1436 1570 1575 1840 1906 1962 1911 1875 1789 1733 1685 1725 1686 1576 1537 1496 1370 1240 1215 1048 1113 977 1004 878 924 825 839 789 811 793 767 734 747 744 740 668 721 649 742 687 692 644 661 700 607 662 643 676 637 718 654 708 643 668 670 637 701 636 660 677 660 692 720 749 754 768 742 779 764 794 837 839 794 775 784 837 792 761 806 728 728 781 680 735 726 704 688 669 667 645 679 693 657 696 595 643 638 639 632 623 639 635 604 638 616 600 623 590 620 599 602 647 637 640 625 657 641 620 574 571 610 642 601 627 614 610 576 625 627 640 647 614 626 640 628 624 632 586 630 596 617 600 610 600 577 615 605 601 629 595 611 581 630 567 600 600 589 608 620 629 602 611 593 633 611 650 617 612 605 606 617 666 601 596 558 615 606 596 609 584 570 637 582 566 603 613 580 554 575 617 618 627 618 585 579 594 605 589 587 586 563 575 600 608 571 561 612 600 567 587 597 555 599 559 566 626 571 599 648 628 571 597 537 561 548 563 568 579 570 563 573 596 606 585 570 548 562 599 579 556 569 568 610 555 609 603 521 584 619 571 520 602 560 540 560 579 577 598 563 577 598 586 599 529 519 529 543 584 559 521 555 548 579 548 621 571 588 549 572 556 566 562 517 509 544 552 588 530 619 569 556 541 548 550 561 585 567 572 569 558 531 588 539 568 518 574 549 562 565 584 519 526 534 567 523 540 570 513 539 524 512 532 543 519 543 544 525 556 511 530 521 513 516 535 501 530 541 529 510 522 495 495 569 531 521 528 517 498 539 513 505 557 547 557 538 545 570 517 550 537 494 527 541 490 522 522 572 500 522 530 519 500 546 515 503 485 554 509 513 494 508 532 568 558 511 541 470 527 472 573 500 510 548 524 558 500 509 492 487 518 534 520 482 515 498 501 510 542 502 482 556 489 508 523 470 490 463 501 486 489 516 517 522 486 481 516 492 508 524 507 472 517 486 469 478 514 519 535 528 521 498 506 523 495 478 480 493 503 495 522 507 482 522 548 494 517 477 537 515 501 493 478 527 484 488 507 497 516 480 485 500 492 528 487 474 502 480 490 506 510 469 512 451 511 474 496 495 463 495 492 470 494 466 541 453 475 481 489 502 486 534 485 488 448 492 475 486 509 496 554 489 507 501 496 460 480 490 456 490 491 482 499 493 494 457 450 480 501 462 473 484 512 460 497 465 519 489 490 470 486 464 517 488 437 451 487 437 477 514 489 482 498 475 507 482 457 484 473 480 472 503 455 471 460 441 445 473 461 494 447 511 491 472 487 460 493 484 504 467 467 477 504 480 508 471 508 461 445 475 470 440 474 451 476 478 471 452 456 484 450 473 491 485 538 481 446 487 453 490 449 446 457 440 459 458 460 512 478 458 462 442 490 475 462 476 449 476 429 486 463 503 446 464 463 456 515 445 467 429 440 460 456 431 458 423 512 435 459 463 481 457 448 450 437 441 473 465 481 490 435 497 453 443 470 465 462 462 474 474 462 456 457 467 439 490 448 453 480 451 461 515 475 449 482 469 483 451 434 494 461 504 461 440 439 438 475 442 400 434 448 472 473 441 475 450 441 478 474 413 492 470 431 451 453 484 425 463 415 459 420 451 433 443 420 444 490 442 438 447 442 445 451 484 426 452 457 466 450 413 448 435 436 474 502 445 477 445 417 464 433 454 455 452 435 476 460 466 432 476 402 434 495 431 452 461 432 468 457 450 423 422 455 462 431 443 453 435 478 448 467 430 461 439 442 449 434 451 430 455 414 458 494 439 435 468 441 467 401 409 447 418 434 444 429 459 449 500 434 459 428 421 462 451 410 427 436 449 467 448 441 457 441 420 428 427 440 417 452 429 440 435 454 443 453 404 439 418 415 461 476 435 476 409 439 428 439 448 406 440 440 444 452 420 451 444 459 395 467 424 432 431 417 430 425 478 478 475 440 411 440 426 450 452 460 433 450 420 425 426 410 419 401 401 411 406 455 428 457 482 428 464 456 412 440 442 449 433 445 450 425 426 421 426 434 448 442 452 445 460 450 462 431 442 474 449 409 453 425 429 468 445 454 442 463 474 456 471 440 455 419 438 442 440 418 429 446 400 452 439 475 462 483 447 432 423 406 432 436 413 395 458 472 435 460 431 379 427 432 420 435 423 424 405 469 427 422 458 441 403 417 423 403 404 446 431 421 425 421 409 423 424 462 465 460 504 460 490 477 481 487 526 509 492 494 503 450 506 502 482 490 465 521 488 484 484 463 486 466 391 444 438 426 438 449 433 429 434 368 411 418 427 463 376 416 406 394 412 404 433 378 389 405 394 407 426 391 420 371 379 401 402 405 344 422 446 418 382 386 412 431 427 418 383 390 405 386 439 411 384 440 377 403 389 375 431 439 429 399 422 396 412 410 394 394 392 381 390 419 406 406 404 401 425 413 408 383 402 404 379 418 379 372 413 428 389 412 372 383 396 408 385 404 393 392 387 406 406 436 374 407 444 390 389 427 427 371 420 383 411 418 410 429 391 406 377 408 378 356 436 421 403 387 411 414 412 416 373 375 364 402 365 367 393 413 364 391 394 424 378 378 381 377 388 382 409 383 419 368 413 372 372 404 390 396 432 393 389 362 400 384 396 423 407 442 401 393 384 379 386 370 408 376 359 425 361 392 410 388 411 399 434 397 416 374 406 360 416 395 400 391 393 396 385 411 399 384 376 420 394 388 397 412 397 403 411 401 372 398 386 356 416 380 420 397 407 379 413 347 401 403 349 370 357 410 381 386 348 411 376 373 357 393 359 415 352 394 382 396 371 385 389 426 380 379 389 389 384 362 380 409 372 390 409 376 427 408 414 411 404 377 397 393 409 379 397 392 363 369 360 379 412 411 378 385 397 421 423 397 399 403 414 372 387 360 358 394 371 406 394 375 420 344 394 398 389 377 369 418 386 399 386 389 369 389 372 393 358 365 342 394 371 401 354 407 405 371 390 396 433 384 429 371 387 391 399 391 406 406 402 418 385 423 378 409 390 403 386 392 397 436 384 395 404 413 368 394 406 418 420 428 386 451 479 445 435 457 472 460 484 481 545 556 646 707 807 948 1114 1235 1402 1483 1470 1360 1219 1023 914 817 854 836 907 904 1011 997 976 867 744 681 628 607 573 519 486 488 443 447 474 432 477 405 439 446 398 414 410 403 404 421 406 386 330 367 469 381 399 397 412 365 409 391 374 392 372 383 381 378 388 367 387 427 379 389 387 387 390 355 394 352 365 419 377 413 377 380 385 349 375 378 389 349 373 371 381 403 347 376 366 448 366 425 403 429 458 468 447 407 492 470 432 445 460 447 502 479 446 448 406 445 427 457 434 448 417 406 379 436 405 410 395 387 412 364 395 389 384 356 346 379 363 357 364 357 376 370 347 361 382 364 384 401 348 407 333 369 362 379 330 311 351 347 356 334 400 402 378 348 416 378 336 367 346 342 360 360 332 334 355 356 313 351 354 379 401 350 374 326 319 331 352 340 352 340 339 349 346 325 392 362 358 375 356 342 342 361 386 377 366 354 356 340 359 329 335 305 346 356 344 358 367 344 316 347 342 362 359 376 362 376 391 380 390 407 426 399 373 401 390 374 381 401 350 424 370 397 403 387 365 374 386 370 368 365 377 369 351 368 350 325 351 368 334 344 322 352 345 357 316 362 347 345 369 327 358 336 332 341 314 314 358 316 364 322 339 341 347 317 343 348 331 337 339 378 386 323 348 308 342 332 346 373 352 291 349 348 347 333 355 338 314 318 325 346 335 332 330 314 317 327 361 357 338 321 357 333 336 303 329 343 336 332 355 336 319 351 345 352 319 359 332 355 348 286 328 349 336 341 347 347 341 327 331 326 318 347 367 290 333 314 347 339 323 337 306 325 318 361 335 336 333 331 322 346 328 353 367 339 346 284 353 341 353 324 333 326 290 340 323 340 331 345 306 321 308 359 336 310 332 360 312 318 346 309 323 333 347 351 347 322 332 334 352 334 325 305 306 338 291 353 368 317 306 327 314 315 299 317 325 346 368 315 328 308 331 314 345 361 317 319 371 298 316 315 323 319 326 361 305 352 305 332 344 337 330 348 316 314 304 320 296 329 280 306 337 323 307 331 317 339 296 307 328 350 340 296 337 316 306 315 343 328 328 316 292 324 312 291 329 316 318 310 330 302 322 335 319 309 332 301 322 299 302 315 327 297 329 315 320 316 331 313 335 308 333 312 338 325 302 295 281 319 302 295 325 285 308 279 338 305 307 309 319 304 318 334 318 325 340 300 329 294 310 288 301 334 310 337 313 281 333 296 324 337 323 326 292 296 336 293 330 305 323 299 348 325 345 330 309 299 320 304 308 294 324 294 354 325 302 313 292 327 319 314 307 356 288 328 315 302 283 307 308 314 306 303 276 323 333 294 246 307 274 329 322 330 279 323 326 300 268 283 299 306 324 347 313 330 312 302 320 296 304 317 309 319 298 311 288 291 292 315 295 326 303 310 330 308 314 314 308 312 297 315 309 335 330 271 270 314 303 274 295 306 297 278 319 292 278 308 293 285 329 278 284 339 284 340 302 309 302 292 309 304 340 303 305 292 284 322 303 295 303 292 288 269 283 303 288 279 279 307 284 323 313 276 275 242 289 300 273 291 325 279 289 278 293 278 292 283 298 295 302 271 276 296 290 283 275 302 298 312 299 299 284 285 284 310 329 315 295 293 291 308 280 262 319 279 294 293 308 298 300 277 293 298 283 275 315 304 279 302 280 304 337 310 276 235 276 278 303 290 279 301 287 311 296 298 276 341 315 324 303 319 302 285 271 270 312 274 271 271 281 296 247 306 279 301 273 287 289 298 307 311 315 323 319 278 300 293 295 308 316 314 330 310 275 271 296 275 320 288 295 288 278 311 292 298 289 306 286 308 271 342 301 289 296 343 274 300 306 282 287 256 257 299 267 315 291 265 295 300 302 308 294 322 305 326 288 319 313 296 320 275 296 307 337 331 329 353 347 325 341 360 320 329 338 335 318 324 328 320 326 331 319 309 373 340 321 329 287 297 285 242 312 294 283 297 293 273 354 276 303 313 239 273 285 247 300 303 264 278 278 276 264 278 314 314 282 258 264 261 292 263 296 319 306 287 285 307 286 285 301 283 287 272 268 286 306 236 275 322 292 268 295 270 271 274 276 289 240 310 291 273 271 273 289 281 292 302 333 276 286 243 292 280 305 291 263 256 295 285 291 262 282 293 287 297 300 278 321 306 281 282 304 318 309 326 333 305 302 292 335 277 327 329 289 277 323 317 302 323 310 302 290 318 312 320 287 329 280 297 287 298 292 272 316 298 292 290 267 299 264 279 281 279 304 280 311 258 333 264 294 248 296 271 291 272 278 272 319 289 260 263 285 288 290 265 278 306 295 282 267 319 285 316 280 287 274 301 248 281 259 244 295 295 278 286 299 297 250 274 240 247 279 263 258 278 272 292 273 297 270 298 273 277 274 267 268 278 282 272 251 271 283 285 294 265 294 316 282 267 235 262 289 284 263 247 275 279 317 275 248 295 290 265 239 282 248 261 271 285 293 303 319 321 326 308 352 373 333 410 421 412 414 371 366 379 326 355 341 347 346 346 373 376 352 365 368 346 360 336 354 325 319 288 312 307 301 290 277 303 328 266 296 324 315 292 280 268 299 290 280 278 299 282 266 250 283 279 278 264 239 284 276 239 257 274 245 286 263 283 276 286 283 278 262 258 266 248 264 257 259 247 259 257 244 250 273 287 275 240 267 279 256 262 234 261 242 270 268 243 262 278 268 270 279 275 261 246 231 266 269 265 262 276 225 266 270 268 257 264 275 288 224 282 248 234 262 297 251 283 288 311 291 301 275 289 308 270 297 299 285 275 270 285 280 262 274 266 281 268 285 295 267 245 287 274 261 282 278 297 259 277 269 276 283 269 275 280 276 257 281 227 275 259 238 239 268 257 275 276 246 256 283 256 276 263 277 272 241 267 213 231 260 270 266 233 227 261 258 260 247 262 250 309 275 284 276 273 257 288 281 263 275 281 278 247 263 294 269 262 270 279 247 298 227 291 259 238 258 269 262 267 269 226 268 229 228 263 230 266 262 237 260 234 247 231 269 284 296 234 235 276 251 239 269 257 256 256 257 271 228 282 264 267 248 249 268 224 233 275 265 237 273 290 263 265 276 269 233 240 260 240 228 259 267 247 260 274 238 290 244 258 246 262 263 261 260 246 277 237 267 256 269 215 228 231 266 263 268 247 257 274 260 249 264 237 237 224 245 214 268 210 249 268 244 262 234 247 231 259 258 258 246 247 245 287 238 237 256 233 260 210 233 240 232 241 249 219 219 230 207 242 256 243 239 261 264 256 260 256 262 271 237 279 223 269 235 243 272 241 211 233 258 241 244 249 247 265 275 270 272 216 264 215 261 261 273 266 209 265 240 268 232 226 235 240 274 263 214 265 242 222 243 263 227 239 256 243 295 234 249 257 257 258 257 249 206 235 238 205 272 262 236 249 220 243 229 236 278 237 225 242 242 233 264 256 271 228 264 237 257 233 235 234 246 268 229 240 269 261 242 256 227 260 237 267 221 236 224 235 221 261 274 236 226 264 257 222 230 230 242 248 238 242 260 248 280 270 233 231 212 237 241 209 263 238 227 249 240 223 239 271 258 260 249 246 235 239 259 240 238 256 226 230 235 228 229 242 266 268 246 211 234 213 224 239 234 244 241 222 245 233 238 263 256 226 230 213 235 244 240 257 262 239 262 243 230 248 241 247 267 271 242 249 234 224 233 241 239 248 267 256 262 231 269 259 270 258 236 218 232 241 231 225 245 227 242 227 267 233 243 238 230 222 236 245 259 218 240 237 225 235 247 243 237 220 263 231 249 233 232 258 237 257 250 239 256 236 233 258 246 256 230 247 244 225 236 246 213 237 212 260 218 265 208 272 244 248 243 245 242 230 232 225 259 234 232 202 216 235 212 223 249 205 230 249 232 260 224 258 265 243 234 259 234 236 258 245 227 225 219 228 226 227 231 207 246 277 260 263 231 217 203 229 231 224 258 246 241 244 200 236 245 235 262 244 285 292 247 213 280 207 260 240 224 232 245 230 248 269 266 242 260 233 217 259 256 290 283 291 246 261 246 279 232 237 237 232 259 244 266 246 273 198 232 234 249 242 264 229 275 229 225 243 248 234 271 257 231 266 246 241 240 257 242 222 240 249 241 247 235 221 224 217 240 222 245 210 219 233 222 267 236 211 208 258 240 222 196 221 239 221 243 229 274 214 249 207 218 256 211 260 205 228 231 245 257 218 235 225 216 241 201 240 193 231 222 244 204 264 233 233 222 228 269 225 217 249 240 214 225 209 227 196 213 212 218 211 241 230 238 243 199 223 245 225 229 225 239 257 214 239 240 257 235 237 237 208 215 270 240 267 221 242 202 239 242 238 216 264 219 242 233 225 231 246 247 224 238 241 240 210 249 248 229 244 232 218 248 263 229 258 239 247 256 234 205 228 224 250 228 233 243 195 226 220 257 256 249 258 245 201 212 243 241 256 235 204 220 210 236 209 240 217 264 242 209 235 236 236 250 244 217 222 228 236 221 231 225 234 258 245 237 223 229 232 240 202 261 198 240 232 226 223 203 263 225 258 216 250 260 232 246 228 247 260 230 266 264 228 266 210 270 232 243 230 260 238 229 220 207 225 198 227 241 227 271 217 215 215 222 207 242 240 235 232 222 216 231 243 230 235 244 268 243 244 244 257 244 264 227 227 241 226 226 238 260 228 264 226 274 240 237 274 231 259 248 264 227 241 224 274 257 257 240 293 272 269 263 257 264 244 250 247 267 250 265 228 280 250 250 248 258 245 246 247 223 256 266 236 239 217 264 232 238 237 231 237 227 222 256 227 262 213 214 225 227 214 239 240 235 229 267 259 259 247 244 232 247 220 214 235 233 224 233 218 231 219 239 245 230 220 232 218 207 249 235 275 238 243 216 249 227 221 229 244 205 241 216 249 225 224 194 197 260 243 248 265 248 243 243 207 212 208 225 241 227 228 236 212 259 250 210 289 228 257 227 226 223 218 246 237 224 233 222 212 243 294 207 215 239 219 220 228 221 236 249 221 226 235 230 259 243 240 234 226 226 230 226 198 241 256 234 241 240 221 260 275 241 231 260 246 213 229 213 266 238 211 225 224 269 242 242 201 248 226 233 243 236 224 257 261 192 263 238 226 237 236 242 257 235 238 257 207 258 237 238 210 237 236 266 256 238 238 223 248 216 244 232 246 250 228 235 263 240 214 220 233 224 219 241 227 222 233 236 203 247 208 208 201 266 260 238 236 250 234 211 256 216 259 265 250 262 225 226 223 224 206 233 210 247 262 235 231 210 236 257 211 248 225 240 218 230 232 221 230 240 225 248 249 267 241 216 238 226 234 246 248 211 233 271 236 249 240 214 218 206 221 249 227 271 259 235 234 244 237 236 232 226 228 257 215 239 195 239 271 239 260 228 285 226 238 219 247 240 223 227 239 239 203 240 239 242 247 208 250 247 245 221 239 239 242 259 286 239 265 218 226 203 256 247 257 209 233 218 224 242 226 267 270 247 230 225 229 257 263 235 222 257 257 272 232 236 246 230 258 227 236 270 211 248 226 246 259 246 248 247 245 256 245 219 244 247 225 227 218 246 256 237 240 214 200 243 267 245 229 265 244 208 257 224 247 251 250 260 222 236 212 232 220 220 213 225 243 225 213 247 221 214 234 237 230 240 276 233 226 219 248 241 271 239 214 262 235 210 222 207 248 262 226 225 240 239 224 227 236 270 241 238 259 222 260 274 233 241 247 242 209 244 214 220 242 227 225 222 236 213 242 232 258 243 227 223 235 227 223 257 266 258 242 261 234 205 244 248 218 260 234 237 207 232 256 257 256 243 237 232 263 249 210 256 259 256 216 270 242 236 241 231 246 245 230 248 240 204 240 240 259 245 232 248 233 256 246 234 238 233 245 260 245 230 238 212 244 224 232 241 247 244 238 238 258 284 267 270 227 233 245 234 217 235 246 223 271 256 218 232 227 264 267 279 275 248 210 238 222 239 226 240 256 233 238 263 267 232 234 225 249 287 239 256 203 238 243 238 280 230 235 236 236 241 237 238 239 235 249 239 226 208 238 265 266 245 219 234 238 267 269 237 229 263 246 257 240 238 261 265 237 275 281 240 274 240 246 224 258 245 236 245 244 251 266 245 269 258 241 239 260 257 289 233 227 260 234 262 262 267 257 284 271 258 256 249 237 275 248 265 276 259 267 244 262 261 248 244 260 256 250 243 256 274 280 286 262 259 284 239 271 248 269 275 266 280 282 230 242 291 259 274 259 268 246 236 279 278 280 269 247 269 287 266 268 262 256 233 236 231 274 226 286 212 274 259 256 258 257 238 250 242 263 251 273 243 264 234 286 270 260 267 259 230 281 267 267 245 301 247 262 248 256 277 284 289 241 250 244 258 268 238 295 246 256 286 229 270 250 280 233 258 242 236 271 265 250 261 239 271 243 275 249 245 248 275 245 256 266 266 290 278 243 228 242 274 281 225 267 233 244 268 264 259 249 272 246 241 230 278 280 264 268 265 230 239 269 288 248 251 271 245 236 267 237 235 225 250 283 260 281 268 231 225 244 247 237 269 242 261 235 249 279 233 240 282 233 266 271 266 257 239 282 278 238 261 298 248 225 263 243 262 245 257 250 275 232 293 243 257 262 270 265 249 241 263 262 274 280 277 246 259 231 247 263 263 271 231 266 258 244 269 263 263 243 246 271 265 244 274 243 237 301 258 269 304 264 264 295 249 244 268 274 291 230 276 267 228 229 265 314 293 267 265 259 264 279 307 264 275 268 241 296 217 269 268 288 273 260 241 257 271 258 270 283 296 289 306 309 301 339 305 323 320 334 289 326 303 312 328 313 302 298 292 289 285 281 304 301 297 285 294 286 264 302 292 276 271 293 287 279 292 294 246 276 290 316 263 277 226 263 295 264 233 240 271 268 262 271 287 272 261 230 262 265 248 248 257 286 277 268 242 247 240 276 266 275 248 217 268 278 298 246 250 274 240 277 236 243 243 261 296 259 276 245 267 268 226 258 273 241 249 270 278 239 246 250 244 262 272 235 243 278 256 212 279 261 267 246 265 238 246 258 259 277 256 283 257 248 280 247 237 286 273 243 234 226 245 272 269 248 226 260 241 261 274 272 249 262 227 250 287 271 247 247 263 250 250 258 263 246 260 194 232 236 279 240 275 240 268 227 234 275 238 225 236 250 238 238 267 256 266 272 261 278 279 265 288 241 277 221 260 257 271 310 282 276 283 257 281 240 284 270 262 273 242 257 245 263 259 249 256 262 239 261 221 248 236 217 257 268 267 273 280 262 258 251 233 261 280 269 256 246 295 250 242 247 243 262 250 231 281 271 233 246 249 227 245 230 244 259 227 258 229 243 269 258 226 266 249 239 231 226 244 246 222 238 262 239 233 260 243 261 235 260 257 263 275 261 227 249 233 241 231 259 245 231 284 279 265 218 264 226 236 248 202 260 246 230 249 214 238 259 278 264 239 225 236 209 237 267 239 232 238 216 244 217 250 235 269 245 213 249 208 241 256 240 251 247 247 241 235 259 239 282 250 214 242 276 264 262 233 242 212 222 244 271 258 263 232 226 241 240 244 246 214 236 205 250 220 214 224 259 251 250 263 229 203 242 229 222 236 228 249 232 230 216 240 220 226 206 236 203 232 250 233 238 233 242 228 246 266 258 283 246 245 220 272 231 246 227 240 215 209 208 226 235 248 249 214 212 259 205 241 221 191 229 222 248 257 232 224 218 223 210 235 203 224 229 224 199 231 234 205 231 234 231 263 247 218 215 233 212 222 219 215 257 223 218 257 208 231 232 221 232 229 210 232 219 213 234 284 228 224 248 233 232 224 244 229 209 197 218 227 226 224 217 219 235 223 236 189 221 248 232 224 233 246 241 213 226 247 242 233 236 216 233 225 237 244 220 242 239 263 224 211 230 223 225 206 262 218 202 237 221 263 228 240 220 223 224 209 222 238 225 244 227 209 242 217 238 235 217 230 230 235 215 256 231 225 234 231 206 231 228 226 206 223 233 235 224 218 208 222 207 215 232 235 216 204 211 214 218 220 209 248 221 243 247 232 236 259 258 235 216 204 250 227 222 211 211 236 195 217 204 228 212 224 211 218 218 216 229 229 245 208 234 203 229 259 218 224 235 233 230 209 223 222 228 256 224 221 226 235 188 246 239 241 230 240 265 215 230 257 216 244 238 242 204 220 200 229 241 223 206 219 183 223 199 233 212 216 224 217 229 222 200 221 240 217 235 230 231 217 234 229 248 228 241 229 229 219 224 256 212 238 211 237 229 236 222 232 216 232 250 230 233 228 209 250 186 230 233 234 237 216 235 208 260 209 220 235 222 211 216 232 229 235 212 230 227 231 223 222 233 242 215 214 237 238 208 218 211 246 221 239 258 227 214 238 251 244 239 256 228 219 216 191 187 229 208 242 221 209 217 210 232 242 230 227 218 238 212 217 249 226 221 191 233 241 232 245 210 211 215 217 213 217 190 221 217 211 225 197 226 209 228 234 221 222 224 239 231 197 209 224 192 219 223 245 228 232 258 219 217 216 239 219 230 260 257 224 236 218 219 231 235 229 216 225 224 256 244 211 240 216 209 223 199 209 201 203 236 228 212 222 217 256 228 244 230 192 217 251 230 225 237 233 223 237 226 213 210 228 222 228 234 214 210 195 200 199 212 210 237 212 222 210 207 245 235 239 226 242 219 224 236 188 221 236 195 241 208 209 227 242 205 241 236 241 232 235 239 225 226 233 223 241 224 218 236 190 231 186 226 235 219 223 236 195 220 215 229 220 244 233 206 214 209 218 226 224 222 239 205 241 229 227 234 203 261 261 225 221 239 238 261 260 251 318 246 281 270 271 245 287 282 262 281 259 234 282 205 261 225 229 242 218 239 272 257 204 275 231 264 220 238 236 238 239 233 265 256 257 245 260 243 217 228 259 217 222 230 216 222 226 197 246 227 197 228 231 233 212 229 227 230 220 208 195 241 231 237 268 218 223 202 190 224 236 215 245 218 220 215 215 225 249 210 206 216 204 242 209 194 208 221 215 206 193 241 212 227 235 213 214 239 221 242 212 211 221 211 220 219 231 224 214 218 225 236 223 232 227 230 223 236 214 214 200 231 203 219 218 222 205 225 226 218 227 207 223 214 219 192 200 209 217 219 209 197 207 209 218 226 215 219 206 216 233 201 215 193 214 223 247 213 232 232 239 212 211 220 213 231 208 199 185 225 226 218 230 230 203 226 192 221 208 204 226 237 201 217 224 210 221 225 223 245 222 199 202 206 236 231 246 262 234 226 208 223 207 237 240 229 239 193 221 214 218 241 213 228 233 205 224 205 236 205 238 244 220 217 225 222 229 225 265 218 222 220 234 227 218 221 217 199 206 224 222 235 242 234 225 212 197 228 189 217 227 229 206 238 215 228 246 231 208 216 214 184 205 216 207 215 222 223 226 217 217 208 247 224 245 206 222 214 208 247 230 218 224 229 201 207 205 231 221 205 244 233 228 222 228 191 224 217 221 189 217 247 227 225 210 206 208 215 206 224 213 217 215 203 202 201 224 220 193 231 240 263 202 213 214 199 202 226 203 215 231 199 206 262 234 218 232 213 200 219 218 210 223 227 204 225 217 217 205 214 209 224 200 231 185 213 224 187 205 217 231 209 238 226 214 250 226 232 247 189 231 211 224 206 210 214 230 205 218 227 201 209 220 207 205 217 218 204 203 227 205 199 204 227 234 207 214 214 223 210 217 222 198 220 192 208 223 211 226 247 206 219 223 230 208 207 204 209 199 213 222 200 233 208 211 228 209 225 213 240 224 203 210 205 238 212 214 212 188 232 201 220 208 222 206 210 226 198 209 189 213 233 203 228 241 223 212 183 206 217 209 206 206 219 210 202 214 217 235 231 208 211 236 223 226 215 219 221 236 190 191 227 198 197 248 187 218 219 256 212 214 218 199 237 210 206 184 200 203 206 221 219 202 209 231 205 219 216 205 222 198 243 197 207 193 234 205 238 208 211 225 203 207 236 241 214 219 191 200 216 187 202 200 183 222 214 195 213 219 212 172 216 203 239 194 231 223 198 203 202 213 227 216 201 200 208 234 219 216 221 211 211 211 182 207 200 205 234 209 204 209 224 207 220 206 197 234 216 223 205 228 218 229 231 222 228 204 209 221 206 207 216 213 205 192 221 210 211 230 230 232 216 211 223 214 212 228 197 211 187 208 239 205 194 188 209 204 214 239 237 224 225 205 236 214 218 218 203 188 181 198 236 205 223 256 237 199 218 233 201 247 227 211 231 233 214 209 227 203 257 178 206 207 231 221 197 230 209 221 218 226 219 197 218 227 212 207 205 241 234 219 248 185 217 227 216 205 211 220 240 234 220 223 191 211 222 201 212 236 209 219 225 228 208 244 197 230 229 215 216 219 210 222 196 192 222 224 244 187 208 193 220 202 208 212 256 214 256 224 221 198 207 216 201 203 206 211 198 227 214 215 207 222 187 216 221 172 213 215 212 217 201 227 208 192 214 224 204 234 212 193 218 218 233</counts>
			</dataPoints>
		</scan>
	</xrdMeasurement>
</xrdMeasurements>
