<?xml version="1.0"?>
<xrdMeasurements xmlns="http://www.xrdml.com/XRDMeasurement/2.3" xmlns:xsi="http://www.w3.org/2001/XMLSchema-instance" xsi:schemaLocation="http://www.xrdml.com/XRDMeasurement/2.3 http://www.xrdml.com/XRDMeasurement/2.3/XRDMeasurement.xsd" status="Completed" recordIdentifier="{3CDCD49D-2F7D-4559-B7EE-5C6CF89B09E1}">
	<comment>
		<entry/>
	</comment>
	<sample type="To be analyzed">
		<id>GPSS_Li1p85Fe0p85V0p15Cl4_110625_690d9f07f040177efa2b78ea</id>
		<name></name>
		<preparedBy></preparedBy>
	</sample>
	<xrdMeasurement measurementType="Scan" status="Completed" sampleMode="Reflection">
		<usedWavelength intended="K-Alpha 1">
			<kAlpha1 unit="Angstrom">1.5405980</kAlpha1>
			<kAlpha2 unit="Angstrom">1.5444260</kAlpha2>
			<kBeta unit="Angstrom">1.3922500</kBeta>
			<ratioKAlpha2KAlpha1>0.5000</ratioKAlpha2KAlpha1>
		</usedWavelength>
		<incidentBeamPath>
			<radius unit="mm">145.00</radius>
			<xRayTube id="1010048" name="Empyrean Cu LFF HR (9430 033 7310x)">
				<tension unit="kV">40.0</tension>
				<current unit="mA">15.0</current>
				<anodeMaterial>Cu</anodeMaterial>
				<focus type="Line">
					<length unit="mm">12.0</length>
					<width unit="mm">0.4</width>
					<takeOffAngle unit="deg">6.0</takeOffAngle>
				</focus>
			</xRayTube>
			<sollerSlit id="21010002" name="Soller slits 0.04 rad.">
				<opening unit="rad">0.0400</opening>
			</sollerSlit>
			<mask id="22031000" name="Fixed mask 13 mm">
				<width unit="mm">9.00</width>
			</mask>
			<divergenceSlit id="22120001" name="Divergence slit 1°" xsi:type="fixedDivergenceSlitType">
				<distanceToSample unit="mm">50.00</distanceToSample>
				<height unit="mm">1.52</height>
			</divergenceSlit>
		</incidentBeamPath>
		<sampleMovement xsi:type="spinningSampleMovementType">
			<spinnerRevolutionTime unit="seconds">1.0</spinnerRevolutionTime>
		</sampleMovement>
		<diffractedBeamPath>
			<radius unit="mm">145.00</radius>
			<antiScatterSlit id="22090040" name="AS slit 9 mm (PIXcel)" xsi:type="fixedAntiScatterSlitType">
				<height unit="mm">9.00</height>
			</antiScatterSlit>
			<sollerSlit id="21020003" name="Large Soller slits 0.04 rad.">
				<opening unit="rad">0.0400</opening>
			</sollerSlit>
			<filter id="20030001" name="Large beta-filter Nickel">
				<material>Ni</material>
				<thickness unit="mm">0.020</thickness>
			</filter>
			<detector id="7010019" name="PIXcel1D-Medipix3 detector" xsi:type="rtmsDetectorType">
				<phd unit="keV">
					<lowerLevel>4.02</lowerLevel>
					<upperLevel>11.27</upperLevel>
				</phd>
				<mode>Scanning</mode>
				<activeLength unit="deg">5.542</activeLength>
			</detector>
		</diffractedBeamPath>
		<scan appendNumber="0" mode="Continuous" scanAxis="Gonio" status="Completed">
			<header>
				<startTimeStamp>2025-11-08T15:45:09-08:00</startTimeStamp>
				<endTimeStamp>2025-11-08T15:53:16-08:00</endTimeStamp>
				<author>
					<name>AutomatedUser</name>
				</author>
				<source>
					<applicationSoftware version="1.7b (136)">PANalytical Aeris Instrument Suite</applicationSoftware>
					<instrumentControlSoftware version="3.2.00000000 20240306">AERIS</instrumentControlSoftware>
					<instrumentID>950485</instrumentID>
				</source>
			</header>
			<dataPoints>
				<positions axis="2Theta" unit="deg">
					<startPosition>10.00943322</startPosition>
					<endPosition>99.99442286</endPosition>
				</positions>
				<positions axis="Omega" unit="deg">
					<startPosition>5.00471661</startPosition>
					<endPosition>49.99721143</endPosition>
				</positions>
				<commonCountingTime unit="seconds">12.495</commonCountingTime>
				<counts unit="counts">3372 3470 3467 3463 3428 3532 3452 3457 3569 3389 3501 3507 3460 3490 3590 3486 3533 3367 3566 3503 3428 3469 3507 3402 3484 3554 3438 3395 3445 3580 3524 3326 3566 3506 3564 3426 3464 3473 3528 3620 3527 3502 3607 3672 3577 3386 3414 3516 3597 3548 3533 3682 3557 3577 3683 3608 3641 3625 3568 3567 3611 3643 3776 3703 3743 3639 3715 3642 3695 3700 3716 3663 3807 3684 3718 3714 3741 3750 3847 3865 3731 3837 3848 3771 3793 3737 3900 3827 3882 3826 3787 3896 3947 3833 3826 3802 3838 3751 3815 3827 3871 3821 3791 3776 3784 3915 3805 3799 3703 3869 3805 3775 3796 3777 3673 3748 3807 3765 3835 3749 3730 3732 3861 3820 3735 3799 3809 3767 3799 3836 3747 3755 3703 3767 3755 3766 3678 3731 3741 3764 3826 3783 3833 3694 3814 3636 3785 3835 3779 3728 3784 3758 3829 3728 3570 3806 3809 3789 3679 3717 3720 3852 3776 3698 3770 3779 3666 3706 3679 3728 3668 3767 3712 3717 3780 3726 3724 3759 3735 3719 3692 3816 3698 3678 3720 3752 3664 3648 3731 3742 3796 3733 3665 3673 3575 3728 3721 3681 3584 3771 3635 3716 3814 3820 3701 3720 3697 3680 3631 3719 3671 3764 3735 3754 3564 3807 3719 3743 3685 3627 3741 3785 3701 3706 3843 3760 3797 3696 3728 3755 3711 3719 3742 3801 3655 3810 3811 3709 3716 3640 3642 3683 3823 3688 3658 3636 3546 3712 3593 3551 3765 3722 3719 3613 3760 3634 3718 3766 3622 3674 3695 3734 3738 3739 3628 3777 3669 3721 3802 3716 3663 3636 3673 3736 3731 3602 3697 3801 3694 3695 3718 3735 3758 3802 3785 3798 3756 3780 3835 3818 3711 3762 3816 3766 3734 3761 3942 3811 3752 3788 3819 3763 3838 3687 3810 3796 3822 3839 3789 3898 3752 3850 3695 3684 3828 3893 3783 4013 3827 3841 3830 3785 3750 3823 3886 3852 3962 3847 3814 3915 3988 3929 3947 3986 3803 3937 3883 4012 3907 3978 3940 3982 3899 4007 3966 3876 3947 3910 3894 3974 3887 3911 4051 3935 4046 4014 4122 4132 4060 4083 4011 3994 4018 4013 4132 4082 4138 4049 4280 4093 4021 4034 4124 4250 4129 4089 4155 4054 4226 4230 4241 4153 4381 4215 4224 4238 4262 4247 4180 4200 4303 4358 4311 4421 4214 4364 4235 4305 4352 4404 4371 4360 4488 4569 4497 4481 4591 4703 4661 4574 4777 4777 4726 4927 4937 5027 5215 5298 5359 5329 5453 5609 5663 5783 5932 6234 6332 6468 6831 6911 7116 7237 7282 7330 7393 7421 7262 7174 6866 6744 6461 6351 6213 5995 5814 5860 5521 5506 5430 5095 5209 5158 4992 5088 4880 4881 5052 4932 4786 4852 4919 4774 4901 4568 4813 4818 4639 4712 4553 4757 4667 4773 4628 4673 4707 4652 4612 4659 4653 4580 4664 4508 4625 4508 4614 4497 4605 4519 4455 4457 4435 4342 4485 4480 4420 4273 4359 4284 4295 4353 4386 4381 4285 4256 4300 4245 4374 4258 4274 4152 4250 4243 4293 4334 4348 4176 4194 4178 4169 4193 4100 4195 4253 4299 4162 4122 4230 4216 4227 4142 4224 4110 4251 4148 4228 4083 4264 4170 4048 4055 4010 4150 4081 4087 4203 4072 4108 4010 4063 4156 4125 4049 4083 4059 4098 4116 4023 4005 4064 4049 4117 4049 3903 3988 4052 3991 3999 4101 4088 3951 4042 4060 3998 4089 3968 4040 4049 3985 3881 3934 3987 3850 3988 3942 3933 4069 3888 3913 4012 3995 3927 3991 3942 3952 3924 3976 4000 3965 4019 3984 3851 3982 3806 3975 3954 3919 3803 3845 4023 3927 4044 4043 4037 3916 4011 3994 3827 3905 3954 3936 3914 3895 3883 3889 3864 3972 3996 3895 3905 3942 3877 3916 3822 3886 3953 3965 3985 3922 4009 3879 3925 3961 3763 3995 3840 3917 3903 3945 3854 3899 3909 4102 3828 3852 3965 3929 3976 3977 3847 3995 3897 3971 3950 3971 3881 3843 3819 3822 3845 3972 3899 3858 3880 3845 3812 3938 3747 3900 3869 3845 3748 3983 3756 3847 3760 3843 3842 3805 3977 3838 3856 3910 3869 3760 3913 3788 3777 3789 3775 3781 3660 3842 3742 3887 3782 3794 3821 3808 3822 3866 3855 3846 3791 3838 3598 3775 3869 3824 3867 3771 3793 3789 3682 3780 3791 3792 3851 3823 3840 3802 3764 3727 3755 3807 3767 3718 3849 3782 3793 3808 3884 3646 3630 3814 3760 3714 3788 3743 3732 3755 3938 3849 3730 3887 3894 3817 3774 3827 3898 3638 3839 3721 3824 3711 3764 3784 3788 3641 3707 3712 3700 3767 3748 3741 3734 3665 3765 3767 3753 3719 3713 3772 3803 3679 3652 3751 3758 3602 3769 3752 3768 3778 3622 3742 3608 3739 3728 3785 3674 3673 3709 3648 3711 3592 3761 3755 3694 3739 3728 3635 3709 3699 3743 3713 3643 3718 3710 3758 3757 3712 3798 3655 3602 3777 3774 3746 3638 3681 3678 3698 3727 3766 3694 3631 3690 3700 3724 3661 3682 3756 3627 3645 3669 3543 3701 3651 3570 3694 3672 3629 3680 3675 3707 3563 3737 3673 3730 3722 3565 3702 3678 3631 3671 3581 3668 3576 3707 3702 3549 3659 3591 3728 3647 3712 3628 3663 3683 3518 3641 3716 3600 3616 3545 3589 3480 3549 3515 3612 3509 3620 3629 3564 3728 3604 3608 3519 3477 3599 3654 3603 3555 3606 3699 3516 3573 3574 3651 3616 3689 3622 3619 3654 3564 3582 3613 3595 3586 3594 3600 3621 3540 3533 3578 3533 3599 3620 3617 3531 3624 3517 3603 3513 3562 3549 3638 3610 3488 3634 3510 3641 3596 3626 3579 3497 3378 3465 3528 3481 3446 3473 3620 3550 3481 3585 3614 3466 3496 3516 3582 3496 3499 3451 3534 3523 3635 3461 3557 3546 3487 3488 3515 3464 3470 3557 3522 3554 3558 3477 3569 3545 3562 3485 3387 3488 3488 3486 3531 3464 3498 3507 3476 3426 3462 3601 3518 3609 3535 3529 3491 3551 3592 3552 3576 3580 3594 3484 3538 3523 3509 3540 3496 3535 3482 3560 3591 3585 3555 3512 3508 3479 3545 3568 3503 3472 3435 3481 3475 3403 3476 3568 3531 3529 3456 3492 3480 3521 3584 3511 3601 3482 3467 3446 3552 3582 3443 3573 3648 3455 3528 3529 3648 3495 3477 3549 3452 3475 3478 3528 3575 3457 3414 3615 3471 3499 3408 3525 3479 3447 3454 3430 3512 3567 3626 3524 3579 3595 3401 3502 3597 3658 3523 3480 3593 3507 3434 3432 3576 3472 3461 3484 3545 3493 3606 3379 3520 3490 3579 3510 3451 3520 3505 3580 3464 3544 3426 3494 3518 3508 3442 3443 3453 3587 3525 3500 3462 3523 3395 3461 3490 3531 3505 3479 3488 3485 3436 3418 3478 3556 3436 3494 3427 3416 3481 3343 3519 3456 3497 3349 3461 3373 3559 3402 3478 3372 3380 3365 3437 3533 3434 3472 3498 3378 3320 3478 3477 3362 3341 3348 3433 3478 3568 3382 3296 3417 3354 3352 3365 3396 3434 3332 3359 3402 3290 3291 3352 3369 3367 3301 3404 3383 3370 3335 3341 3365 3295 3269 3326 3432 3318 3510 3349 3310 3261 3268 3328 3255 3296 3290 3226 3205 3353 3362 3247 3183 3323 3269 3336 3250 3266 3355 3257 3267 3201 3288 3341 3302 3145 3270 3222 3124 3170 3275 3207 3307 3167 3335 3236 3268 3179 3218 3224 3289 3157 3119 3166 3136 3211 3264 3141 3110 3155 3113 3192 3176 3155 3095 3244 3270 3015 3166 3127 3178 3133 3220 3083 3099 3097 3127 3230 3058 3044 3210 3107 2999 3160 3154 3126 3167 3061 3115 3059 2990 2980 3136 3110 2989 3046 3083 3093 2989 3093 3067 3028 3016 3088 3111 3000 3055 3067 3022 2992 3034 3068 3097 3037 2965 3123 3030 2994 3252 2940 3069 3099 3187 3054 2987 3012 3187 2926 3094 3154 3179 3069 3008 3010 2980 3133 3079 3170 3090 3105 2953 2995 3154 3143 3025 3045 3093 2952 3119 3031 3140 3071 3000 3003 3043 2969 3014 2893 3031 3016 2974 2998 2909 2956 2960 3015 3055 2936 2830 2939 2957 2999 2973 2831 2969 2904 2987 3010 3014 2913 3012 2912 2978 2962 3016 3067 2991 2921 3000 2993 2955 2884 2996 3038 2943 3051 2972 2837 2930 2933 2950 3011 2986 2973 2924 2962 2908 2966 2961 3029 2982 3008 2998 2994 3004 2951 2877 2925 2958 2975 2952 2983 2992 3001 2949 2870 2977 2951 2926 2827 2941 2948 2849 2928 3060 3003 2993 2955 2984 3063 2958 3074 3010 3045 2950 2894 2898 2948 2952 2908 3003 3047 2906 2967 2887 3024 2886 2948 3076 3035 2943 3006 2977 2976 2957 2964 2933 2913 3010 3054 2990 2932 3052 2965 3038 3026 3031 3039 3002 3078 2973 3044 2983 2935 2997 3030 3004 3161 3015 3060 3128 3003 2984 3035 3062 3044 3006 2976 3058 2967 2970 2949 3055 2990 3032 3078 2918 3009 2995 2988 3011 3074 3013 3057 3006 3039 3087 3037 3130 3036 3013 3030 2964 2925 3027 3030 2877 3091 3087 2978 2929 3026 3014 2909 3018 2950 2963 2993 2927 2935 2939 2899 2978 3020 2944 2931 2920 2914 2957 2986 2920 2907 2897 2879 2919 2936 3005 2899 2954 2874 3033 2931 2924 2922 2948 2904 2994 2919 3047 2939 2866 2877 2887 2916 2921 2932 2950 2996 2849 2852 2836 2909 2873 2865 2899 2942 2915 2819 2911 2939 2912 2806 2913 2850 2846 2961 2850 2896 2831 2923 2873 2803 2972 2797 2845 2835 2918 2882 2842 2840 2795 2833 2769 2871 2815 2754 2848 2789 2883 2835 2787 2845 2767 2841 2876 2820 2780 2831 2828 2730 2713 2760 2809 2830 2810 2827 2725 2657 2840 2695 2718 2800 2727 2836 2749 2746 2809 2682 2727 2844 2815 2680 2728 2758 2771 2710 2862 2729 2763 2660 2757 2708 2765 2691 2724 2703 2704 2657 2820 2773 2668 2740 2734 2786 2718 2755 2744 2740 2745 2763 2704 2775 2825 2759 2717 2713 2888 2872 2836 2835 2775 2797 2676 2882 2944 2835 3014 2890 2997 3100 3102 3200 3227 3211 3229 3288 3499 3575 3674 3791 3886 4142 4258 4367 4422 4449 4577 4461 4439 4352 4246 4143 3998 4026 3795 3754 3563 3561 3413 3340 3152 3112 3086 3107 3018 2976 3011 2903 2843 2857 2802 2924 2831 2879 2870 2793 2804 2728 2768 2828 2844 2713 2756 2767 2741 2651 2830 2774 2659 2604 2711 2669 2729 2785 2633 2691 2652 2724 2702 2655 2722 2751 2718 2618 2669 2803 2684 2715 2660 2669 2661 2724 2730 2585 2654 2735 2775 2665 2644 2690 2675 2734 2655 2699 2743 2690 2693 2745 2583 2656 2655 2585 2591 2630 2687 2722 2800 2760 2765 2760 2721 2823 2805 2704 2896 2939 2927 3007 3109 3259 3355 3284 3516 3613 3848 4173 4318 4568 4787 5125 5310 5588 5842 5764 5956 6277 6200 6225 6028 5954 5840 5599 5233 5111 4966 4660 4553 4281 4111 4010 3833 3637 3624 3624 3487 3420 3469 3308 3390 3282 3345 3188 3233 3093 3076 3107 3015 3043 2887 2909 2899 2881 2869 2769 2778 2747 2776 2718 2706 2726 2660 2699 2696 2744 2611 2656 2683 2678 2654 2541 2718 2672 2735 2776 2602 2637 2685 2644 2611 2584 2575 2563 2656 2574 2612 2581 2531 2577 2490 2615 2573 2548 2456 2409 2419 2472 2453 2575 2514 2553 2554 2515 2473 2447 2543 2452 2435 2478 2467 2493 2427 2435 2428 2426 2468 2523 2430 2472 2439 2441 2436 2418 2441 2409 2395 2458 2466 2509 2496 2412 2416 2403 2411 2452 2451 2371 2385 2415 2512 2364 2471 2367 2387 2469 2357 2377 2419 2436 2413 2466 2473 2329 2357 2430 2394 2377 2384 2361 2368 2419 2410 2369 2391 2325 2389 2429 2438 2404 2329 2447 2394 2386 2463 2397 2296 2284 2321 2380 2395 2396 2389 2383 2316 2388 2395 2347 2359 2312 2438 2467 2473 2399 2476 2383 2333 2429 2371 2440 2314 2426 2370 2402 2453 2375 2356 2261 2356 2359 2322 2445 2337 2334 2355 2391 2296 2376 2324 2387 2457 2332 2325 2338 2384 2422 2350 2445 2250 2366 2318 2376 2271 2287 2267 2292 2363 2337 2359 2384 2232 2446 2297 2446 2285 2355 2274 2326 2249 2323 2334 2346 2274 2390 2262 2348 2389 2311 2330 2325 2281 2346 2337 2403 2219 2294 2237 2383 2317 2307 2285 2400 2326 2377 2367 2294 2303 2347 2325 2328 2332 2369 2381 2358 2315 2375 2275 2330 2395 2316 2416 2342 2337 2313 2381 2308 2320 2272 2338 2358 2266 2376 2304 2320 2320 2362 2388 2345 2377 2317 2419 2358 2307 2233 2422 2361 2269 2286 2292 2363 2318 2312 2377 2329 2391 2325 2244 2327 2295 2342 2341 2262 2297 2348 2329 2353 2340 2357 2294 2309 2408 2371 2323 2346 2347 2307 2382 2341 2363 2465 2435 2352 2401 2276 2387 2305 2434 2430 2240 2340 2342 2281 2400 2353 2312 2359 2398 2448 2381 2337 2402 2407 2392 2330 2363 2357 2361 2405 2409 2489 2387 2421 2411 2384 2420 2410 2433 2463 2507 2352 2380 2408 2453 2370 2486 2471 2438 2453 2484 2505 2423 2465 2588 2528 2515 2479 2523 2535 2612 2560 2644 2629 2663 2669 2591 2556 2688 2625 2619 2751 2687 2841 2748 2794 2820 2857 2961 3034 3090 3175 3242 3328 3529 3617 3738 3940 4118 4446 4642 5159 5512 5815 6542 7148 7786 8640 9209 10246 11035 12150 12728 13389 13626 14261 14338 14419 14011 13964 13552 12955 12425 11902 11244 10714 9853 9236 8578 7926 7492 6826 6509 6428 5864 5588 5235 5193 4979 4740 4656 4630 4583 4418 4364 4235 4192 4013 3960 3798 3724 3610 3648 3488 3578 3503 3337 3358 3280 3252 3167 3119 3122 3183 3117 2981 2918 2969 2913 2912 2921 2785 2922 2907 2899 2855 2880 2790 2810 2874 2772 2800 2785 2714 2801 2790 2728 2691 2721 2741 2713 2622 2750 2568 2691 2536 2539 2591 2483 2537 2539 2402 2461 2438 2500 2483 2463 2457 2424 2540 2434 2340 2441 2343 2405 2455 2423 2440 2389 2405 2395 2475 2409 2406 2294 2428 2344 2302 2358 2324 2373 2386 2413 2286 2361 2307 2438 2310 2404 2302 2330 2341 2362 2286 2355 2385 2315 2341 2306 2358 2313 2277 2305 2265 2382 2363 2319 2314 2254 2278 2343 2249 2327 2364 2346 2327 2192 2330 2302 2252 2354 2276 2301 2306 2233 2224 2255 2264 2314 2279 2226 2336 2279 2275 2292 2291 2365 2387 2285 2212 2229 2325 2224 2266 2237 2197 2285 2302 2221 2306 2288 2285 2236 2297 2264 2243 2212 2323 2275 2185 2217 2339 2270 2245 2262 2218 2287 2229 2245 2286 2238 2263 2223 2230 2326 2200 2206 2190 2266 2315 2181 2188 2151 2280 2267 2237 2136 2308 2244 2257 2259 2216 2336 2290 2214 2271 2249 2046 2255 2149 2160 2183 2291 2175 2130 2180 2191 2173 2244 2324 2176 2272 2247 2340 2276 2272 2160 2295 2308 2226 2283 2311 2235 2288 2178 2253 2324 2247 2267 2213 2199 2160 2263 2283 2242 2267 2291 2190 2181 2249 2230 2244 2356 2231 2264 2309 2261 2238 2182 2262 2356 2220 2272 2245 2288 2405 2293 2327 2325 2363 2304 2402 2387 2459 2289 2324 2388 2338 2405 2367 2239 2359 2305 2293 2233 2304 2296 2375 2259 2109 2325 2271 2265 2243 2255 2237 2320 2208 2351 2213 2270 2181 2254 2232 2267 2177 2167 2286 2269 2206 2187 2197 2232 2184 2155 2187 2185 2271 2182 2211 2198 2153 2168 2260 2274 2264 2165 2256 2282 2278 2220 2106 2202 2087 2232 2123 2111 2139 2225 2119 2126 2202 2205 2162 2301 2339 2157 2179 2202 2178 2175 2168 2188 2199 2226 2200 2137 2231 2214 2182 2220 2180 2150 2258 2179 2131 2182 2152 2201 2123 2195 2175 2124 2188 2173 2266 2172 2189 2169 2125 2234 2132 2289 2189 2213 2203 2231 2218 2201 2138 2189 2184 2253 2159 2169 2250 2202 2195 2049 2136 2242 2197 2072 2163 2194 2199 2209 2200 2246 2178 2174 2198 2110 2207 2167 2156 2063 2182 2203 2151 2132 2217 2158 2161 2125 2167 2229 2154 2144 2132 2258 2108 2187 2176 2152 2189 2227 2096 2189 2199 2153 2187 2224 2198 2170 2201 2206 2147 2165 2151 2192 2197 2160 2151 2225 2150 2102 2118 2106 2189 2137 2090 2077 2197 2204 2130 2215 2229 2097 2044 2180 2196 2159 2169 2184 2105 2131 2194 2111 2143 2132 2193 2248 2091 2205 2134 2184 2149 2145 2128 2259 2114 2147 2197 2214 2097 2111 2130 2147 2119 2148 2156 2263 2144 2153 2166 2173 2174 2165 2044 2077 2151 2174 2121 2134 2135 2233 2139 2130 2162 2170 2194 2150 2160 2175 2163 2151 2186 2070 2151 2224 2064 2073 2183 2136 2107 2058 2103 2112 2150 2132 2161 2100 2130 2115 2160 2124 2183 2135 2164 2185 2216 2067 2105 2176 2201 2283 2231 2143 2183 2085 2135 2179 2184 2054 2172 2176 2110 2236 2086 2171 2050 2085 2116 2077 2125 2189 2156 2194 2179 2082 2195 2065 2109 2193 2189 2087 2097 2161 2122 2210 2164 2109 2142 2093 2155 2115 2131 2054 2119 2165 2252 2126 2183 2292 2136 2093 2213 2085 2053 2112 2121 2113 2216 2194 2049 2172 2086 2082 2143 2158 2116 2092 2064 2121 2115 2086 2117 2072 2157 2126 2143 2096 2167 2068 2078 2107 2189 2156 2174 2058 2118 2192 2170 2176 2143 2148 2153 2149 2139 2108 2180 2158 2054 2149 2150 2099 2092 2197 2067 2147 2129 2158 2151 2150 2180 2079 2138 2176 2185 2079 2227 2124 2108 2117 2029 2147 2190 2091 2179 2159 2133 2144 2097 2091 2175 2116 2022 2102 1992 2085 2215 2123 2184 2133 2117 2044 2170 2141 2196 1984 2131 2146 2148 2156 2143 2090 2092 2133 2105 2208 2096 2123 2087 2121 2074 2146 2163 2116 2089 2189 2110 2102 2132 2121 2121 2125 2144 2059 2210 2026 2140 2224 2097 2102 2091 2172 2197 2044 2162 2241 2034 2117 2140 2093 2243 2180 2132 2201 2138 2109 2127 2176 2139 2189 2144 2132 2114 2114 2152 2053 2145 2160 2123 2178 2108 2115 2192 2129 2087 2043 2177 2117 2154 2126 2140 2092 2132 2192 2151 2073 2091 2106 2142 1973 2098 2126 2118 2097 2054 2194 2110 2124 2074 2151 2125 2095 2205 2143 2082 2078 2176 2095 2067 2136 2118 2130 2142 2169 2065 2095 2172 2122 2185 2063 2144 2068 2117 2138 2124 2138 2144 2135 2157 2136 2129 2122 2174 2113 2160 2195 2056 2104 2110 2122 2141 2126 2165 2079 2182 2064 2097 2075 2103 2153 2112 2177 2158 2160 2034 2143 2142 2145 2066 2094 2133 2086 2102 2096 2132 2089 2099 2076 2125 2075 2170 2119 2178 2006 2204 2090 2047 2074 2087 2117 2069 2146 2151 2164 2038 2198 2167 2079 2143 2038 2114 2128 2073 2095 2169 2179 2146 2201 2092 2121 2085 2132 2105 2077 2127 2103 2088 2075 2133 2081 2062 2111 2048 2045 2201 2079 2183 2104 2054 2178 2191 2070 2129 2044 2105 2150 2156 2095 2128 2033 2114 2138 2154 2069 2115 2128 2169 2127 2140 2099 2172 2108 2132 2108 2165 2197 2178 2153 2161 2191 2252 2239 2238 2213 2253 2233 2258 2375 2281 2327 2320 2351 2352 2412 2526 2568 2661 2625 2729 2823 2881 3064 3125 3175 3174 3311 3336 3316 3283 3352 3226 3218 3167 3207 3094 3203 2910 3036 2984 2846 2818 2798 2721 2590 2611 2569 2406 2406 2439 2322 2412 2279 2340 2325 2308 2331 2250 2260 2210 2286 2301 2263 2196 2242 2288 2235 2145 2211 2131 2265 2209 2165 2164 2127 2167 2317 2202 2170 2074 2102 2188 2136 2089 2162 2071 2287 2176 2084 2146 2122 2092 2115 2121 2148 2071 2112 2022 2116 2164 2109 2107 2170 2194 2191 2199 2185 2100 2090 2083 2049 2068 2116 2124 2063 2078 2111 2046 2105 2064 2114 2110 2050 2139 2218 2046 2102 2093 2011 2140 2021 2071 2107 2131 2087 2067 2153 2134 2104 2042 2124 2149 2114 2055 2127 2042 2090 2090 2132 2072 2062 2093 1995 2013 2090 2086 2061 2082 2021 2115 2064 2055 2142 2171 2061 1998 2193 2100 2102 2109 2033 2152 2059 2147 2074 2069 2072 2125 2022 2074 2034 2098 2067 2038 2048 2104 2167 2070 2043 2027 2161 2076 2173 2098 2166 2045 2043 2137 2131 2106 2039 1951 2093 2087 2030 2134 2052 1984 2035 2144 2212 1945 2161 2102 2113 2041 2124 2093 2048 2060 2075 2035 2053 2032 2043 2198 2132 2147 2063 2137 2138 2058 2015 2057 2096 2020 2109 2119 2116 2022 2060 2059 2126 2052 2132 2059 2117 2040 2077 2132 2066 2136 2077 2021 2153 2104 2050 2012 2048 2134 2176 1996 2079 2150 2123 2101 2085 2053 2186 2118 2130 2096 2090 2157 2153 2057 2106 2132 2058 2154 2036 2138 2185 2139 2115 2099 2121 2197 2109 2157 2201 2046 2160 2118 2061 2191 2104 2102 2121 2070 2115 2141 2116 2147 2098 2078 2101 2102 2142 2108 2132 2088 2155 2084 2153 2067 2103 2100 2186 2186 2178 2065 2207 2113 2087 2039 2101 2147 2149 2175 2039 2058 2099 2095 2127 2135 2095 2153 2146 2077 2153 2130 2024 2210 2126 2185 2120 2091 2111 2136 2149 2192 2093 2117 2150 2125 2124 2093 2192 2120 2162 2147 2156 2164 2105 2172 2137 2108 2210 2233 2128 2130 2165 2165 2212 2165 2247 2281 2226 2297 2240 2171 2261 2266 2328 2229 2257 2172 2331 2321 2251 2332 2403 2381 2401 2472 2384 2444 2514 2575 2559 2722 2648 2735 2832 2982 3124 3238 3387 3509 3924 4136 4637 4861 5466 5691 6293 6611 7054 6999 7226 7431 7366 7366 7309 7040 6946 6779 6684 6473 6424 6210 6010 5844 5695 5468 5146 4967 4734 4463 4206 4133 3846 3862 3575 3603 3502 3347 3170 3196 3103 3129 3075 3007 3024 2925 2826 2885 2910 2888 2822 2777 2807 2768 2713 2773 2683 2730 2591 2592 2651 2496 2504 2535 2545 2581 2435 2477 2438 2405 2467 2399 2356 2463 2431 2434 2445 2353 2228 2376 2306 2366 2279 2250 2385 2396 2330 2319 2284 2350 2236 2219 2241 2274 2216 2247 2168 2135 2240 2241 2152 2142 2209 2145 2177 2200 2198 2229 2145 2186 2080 2178 2173 2160 2123 2185 2082 2120 2130 2104 2076 2191 2166 2164 2176 2063 2124 2094 2069 2149 2038 2078 2193 2152 2074 2132 2030 2124 2044 2140 2152 2098 2048 2130 1991 2045 2008 2076 2115 2042 2093 2121 2022 2014 1998 2047 2141 2092 2101 2135 2029 2041 2075 2019 2067 2154 2052 2076 2039 2067 2086 2054 2060 2040 2092 2089 2163 2092 2070 2204 2176 2140 2100 2081 2088 2084 2047 2094 2118 2110 2159 2136 2067 2091 2111 2068 2078 2124 2126 2085 2139 2038 2098 2054 2105 2008 2060 2163 2104 2143 2102 2122 2179 2136 2194 2193 2093 2126 2140 2110 2171 2158 2211 2132 2277 2352 2341 2372 2407 2496 2562 2511 2575 2675 2705 2637 2691 2718 2675 2636 2604 2686 2502 2575 2529 2564 2431 2500 2487 2536 2395 2442 2401 2413 2327 2329 2244 2244 2256 2199 2257 2109 2183 2174 2042 2184 2218 2192 2148 2139 2095 2102 2174 2131 2069 2127 2097 2111 2091 2113 2099 2113 2085 2117 2151 2146 2068 2037 2051 2003 2005 2054 2030 2077 2028 2068 2008 2065 2072 2186 1965 2069 2029 2062 2029 2048 2125 2094 1973 1948 2115 2082 2022 2043 2062 2075 2065 2075 2051 2062 1958 2044 2024 2056 2008 2088 2127 2039 2108 2085 2079 1946 2001 2075 2059 2064 2045 2014 2038 2159 2056 2030 2063 2045 2076 1896 2104 2093 2095 1932 2000 2024 1940 2033 1988 2025 1997 2044 2012 2077 2018 2122 2046 2017 2046 2035 1978 2053 2000 2115 1924 1966 2036 1957 2056 2009 2010 2060 2062 1926 2013 2008 2060 2054 2017 2008 1994 1971 2057 2060 2065 2010 1989 1930 1946 2038 1986 2056 2047 2003 2065 2013 2008 2074 1993 1993 1950 1995 1934 1976 2006 2088 2053 2025 1982 1988 2051 1953 2017 2020 1987 1999 1987 2018 2003 2019 2065 1978 1996 2033 2020 2095 1990 2007 2005 2032 1966 2026 1990 1997 2044 2040 1983 2034 2024 2015 2040 2045 1988 2005 1964 2047 2041 2053 1955 2111 1987 2067 2033 2055 2059 2035 2020 1975 1962 2040 1981 1966 2041 2027 1927 2100 1943 1978 1981 2074 1987 1956 2044 2042 1968 1912 1954 2000 2082 1979 1944 2058 1915 2053 2058 1915 1942 2090 1978 1993 1889 1958 1940 1988 2015 1973 2047 2054 1980 2065 2029 1970 1985 1935 1984 2042 2113 2060 2014 1925 2070 1916 2001 2015 1969 2042 1996 2016 2066 1976 2025 2002 1951 2040 2028 1985 1961 2010 1967 2036 2079 1982 1980 2011 2020 1978 1994 2020 2019 1898 1945 1985 1985 1958 2001 1988 1873 2023 2105 2006 1922 2018 2032 1993 1973 1942 1922 2050 1993 1906 1961 2006 2055 1988 2074 1961 2073 2030 1903 1993 2032 2087 2010 2030 2044 1973 1974 1938 1975 1997 1989 2084 1966 1919 2024 1979 2006 2018 2001 2006 2023 1948 1954 2001 1958 1884 2034 1944 1990 2012 1966 2020 1991 2018 2062 1955 2003 2018 2000 2057 2064 1931 2004 1957 2017 2049 1972 1972 1998 2000 1986 2025 1938 2008 1881 1990 2052 1990 2077 1957 1958 1999 2001 2025 2048 2038 2057 1966 1992 1964 2004 2068 1938 1928 1962 1939 2008 1970 2009 1963 1895 1966 1982 2034 1994 1941 1956 1937 1980 2037 1942 1982 1993 1918 1981 2040 2060 1997 1954 1972 1937 2037 1941 1931 1993 1950 2063 1923 2023 1877 1965 2011 2044 1924 2047 1903 2039 1946 1978 1938 1999 1973 1967 1970 2044 2035 1937 2020 1957 1984 2008 1945 1966 1976 1921 1985 1952 1937 1870 1977 1949 1980 1952 2014 1913 1967 1859 1917 1922 2015 1965 2002 2025 1942 2011 1921 2025 2013 2027 2042 1995 1958 1955 2023 1993 1953 1948 2030 2021 1984 2032 1965 1947 1974 2034 1983 1952 1945 2012 2030 1994 2004 1937 2019 2037 1954 1972 2084 1977 1992 2019 1987 1952 1964 1901 2042 2026 2005 1983 1970 2031 2036 1996 2006 2024 1997 2034 2040 1937 1944 2023 2042 2123 2097 2010 2033 1953 2052 2020 2039 2041 2140 2078 2147 2107 2143 2099 2018 2043 2097 2089 2081 2087 2070 2076 2031 2036 2149 2068 2040 2095 2068 2034 2144 2092 2009 2014 2102 2059 2039 2020 2002 2004 2043 2034 1983 2066 2068 1981 1966 1960 2002 2073 2053 1920 1975 2047 1966 2008 2050 2014 2028 2123 2113 1963 2118 2161 2086 2098 2077 2064 2182 2142 2241 2256 2299 2338 2406 2450 2466 2546 2549 2587 2558 2500 2546 2537 2476 2472 2482 2510 2458 2483 2405 2506 2434 2467 2433 2389 2385 2462 2353 2399 2306 2270 2278 2245 2169 2280 2200 2215 2193 2165 2064 2107 2184 2150 2191 2099 2073 2139 2033 2069 2146 2168 2080 2154 2139 2064 2114 2064 2135 2058 2053 2009 2048 2111 2094 2105 2060 2107 2062 2095 2075 2053 2104 2065 2086 1989 2056 2072 2042 2074 2036 2117 2090 2005 2040 2023 2053 2012 1976 2041 2017 2052 2052 1909 1998 2078 1994 2006 2059 1978 1984 2029 2045 1907 2012 1947 1879 1958 1953 2001 1944 1990 1927 2113 1956 2004 2059 1939 1961 2023 1961 2060 1987 1976 2048 1933 1952 2013 1984 1969 2030 1972 1967 2008 1922 1963 2080 2028 1973 2063 1944 2027 1940 1970 2001 2037 2020 1959 1987 1994 1973 2018 1910 2059 1936 1926 1953 1965 1939 2020 1964 1974 2021 1966 2002 1904 2038 1868 1966 2022 1991 1909 1886 1980 2004 1921 1941 2067 1889 1984 2002 1999 1956 1891 1915 1950 1921 2011 2016 2014 1973 2022 2012 2010 1954 1917 1946 1951 2018 1910 1993 2034 1998 1980 1990 2032 2043 1951 1948 1934 2011 1969 1980 1933 1943 1972 2051 1996 1983 1999 1973 2028 1995 1970 2030 1959 2034 1970 2042 1969 2013 1992 2047 2080 2042 2009 2015 2041 2019 2033 1981 1964 1908 2056 1971 2008 2029 2071 1975 2064 2080 1992 2215 2126 2156 2058 2078 2115 2081 2058 2081 2172 2086 2151 2262 2310 2285 2390 2558 2553 2646 2745 2897 2897 3034 3120 3202 3130 3311 3161 3144 3025 2961 2942 2914 2880 2806 2911 2804 3000 2798 2768 2902 2798 2839 2791 2713 2601 2484 2621 2532 2585 2435 2461 2364 2334 2381 2311 2266 2213 2299 2213 2217 2288 2199 2224 2103 2182 2077 2171 2109 2183 2144 2246 2086 2139 2173 2181 2148 2137 2123 2138 2091 2152 2160 2083 2103 2137 2056 2072 2065 2145 2079 2104 2065 2178 2114 2080 2120 2108 2005 2042 1989 2050 1988 1957 2045 2005 1989 2037 2036 1983 2009 1963 1982 2026 2066 1975 2048 2001 1904 1960 2035 1984 2037 1992 2029 1936 2017 1973 2096 2050 2003 2012 1952 2016 2015 1988 1993 2008 2013 1944 1963 1989 1952 1994 1997 1967 1897 1946 1909 1949 1941 1961 2011 1918 1994 1954 2021 1979 1963 1968 1959 1956 1941 1940 1947 1927 1988 1960 1910 1968 1927 2035 1998 1948 1920 1996 1934 2015 1999 1973 1922 2027 1950 1952 1987 1980 1948 2041 1960 1937 1946 2050 1965 2037 1941 2008 2003 1983 2113 2026 1998 2027 2004 2008 2030 2039 2009 2013 2114 1971 2070 2098 2128 2099 2094 2193 2295 2216 2214 2302 2210 2262 2341 2241 2225 2218 2292 2309 2191 2301 2242 2216 2227 2174 2144 2237 2199 2230 2135 2162 2210 2147 2102 2166 2078 2079 2089 2016 2081 2074 2066 1964 2017 2076 2011 2043 2089 1992 2031 2052 1947 2056 1946 2033 1941 1940 2029 1975 2025 2031 2071 1981 1932 1987 1938 1979 1986 2043 2048 1982 1929 2013 2004 2001 1981 1982 1959 1982 1978 1944 2036 1965 1920 1918 1963 2015 1911 1957 1916 1905 2077 1999 1976 2006 1922 1992 2026 1996 1967 1955 1986 1944 1953 1937 1906 1984 1894 1930 1837 1891 1936 1893 1936 1979 1890 1956 1931 1910 1904 1932 1903 1900 1961 1927 1945 1974 1942 2019 1885 1889 1930 1886 1937 1929 1883 1970 1957 1970 1948 1936 1933 1941 1947 1996 1963 1942 1893 1955 2020 1937 1999 1890 1898 1991 1931 1935 1891 1907 1888 1850 1980 1921 1947 1945 1903 1968 1944 1932 2014 1905 1878 1923 1970 1909 1965 1895 1899 1952 2007 1967 1975 1873 1975 2008 1869 1944 1906 1938 1909 1944 1989 1969 1863 1949 1845 1972 1868 1944 1908 1952 1983 1931 2006 2006 1930 1966 1914 1921 1894 1886 1927 1945 1990 1902 1930 1994 1938 1990 1919 1954 1902 1925 1950 1986 1974 1920 1917 1849 1845 1957 1942 1934 1902 1961 1835 1977 1917 1939 1893 2032 1925 1949 1935 1969 1948 1856 1835 1979 1937 2006 1938 1867 1832 1912 1901 1958 1982 1920 1950 1932 2015 1857 2008 1883 1985 1916 1903 1956 1820 1913 1851 1945 2011 1860 1930 1926 1964 1915 1939 1984 1967 1885 1986 1912 2000 1964 1978 1962 1988 1890 1939 1939 1910 1874 1954 1897 1969 1892 1993 1891 1826 1958 1873 1942 1899 1871 1930 1990 1911 1984 1961 1929 1891 1970 1975 1940 1978 1975 1955 1940 1925 1906 1901 1894 1962 1880 1981 1991 1930 1874 1951 1886 1866 1977 1884 1969 1913 1915 1967 1987 1998 2006 1902 1985 1918 1863 1983 1968 1874 1962 1879 1898 2008 1902 1865 1898 1938 1922 1915 1894 1918 1927 1964 1931 1978 1925 1825 1975 1941 1969 1947 1870 1989 1920 1934 1902 1892 1902 2027 1934 1895 1996 1944 1940 1888 1919 1934 1950 1842 1906 1834 1879 1840 1891 1867 1973 1855 1849 1914 1864 1912 1968 1885 1845 1938 1901 1847 1996 1845 2010 1863 1959 1841 1892 1886 1914 1866 1876 1972 1871 1868 1950 1923 1900 1906 1887 1895 1927 1988 1967 1816 1877 1961 1921 1839 1980 1957 1846 1888 1873 1877 1886 1833 1851 1862 1943 1949 1968 1903 1812 1897 1872 1951 1928 1932 1963 1883 1896 1931 1933 1940 1912 1907 1888 1879 1914 1886 1930 1888 1910 1958 1960 2011 1894 1917 1920 1908 1882 1871 1878 1823 1991 1949 1927 1906 1887 1900 1866 2035 1895 2004 1848 1932 1898 1911 1919 1970 1980 1965 1898 1929 1946 2026 1909 1886 1974 2050 1963 1998 1991 2013 2054 2075 2103 2129 1952 2059 2130 2075 2136 2044 2066 2098 2049 2071 2015 2064 2020 2090 2045 1989 2026 2063 2042 2045 1987 2010 1989 2032 1944 2014 1977 2040 1968 1981 1973 2043 1990 2017 1932 2023 1947 1974 1957 1895 1885 1935 1962 1955 1914 1939 1894 2001 1946 1952 1939 1958 1996 1900 2026 1939 1893 1953 1982 1877 1925 1996 1957 1883 1957 1957 1913 1920 1898 1956 1974 1966 1943 1950 1892 1958 1786 1926 1970 2020 1927 1938 1909 1886 1983 1968 1925 1938 1927 1942 1923 1937 1922 2027 1877 1968 1971 1978 1908 1873 1980 1981 1929 1929 1891 1920 1817 1852 1925 1857 1932 1930 1842 1978 1974 1936 2009 1814 1923 1856 1868 1878 1933 1955 1942 1917 1916 1870 1908 1853 1918 1920 1887 1897 1883 1984 1919 1922 1842 1917 1942 1947 1953 1896 1935 1875 1908 1892 1883 1957 1921 1915 1877 1989 1854 1875 1885 1788 1956 1935 1856 1877 1890 1983 1955 1899 1886 1897 1923 1884 1918 1933 1920 1855 1839 1963 1934 1955 1967 1855 1901 1873 1947 1884 1954 1911 2013 1915 1960 1945 1876 1891 1974 1866 1939 1945 1908 1879 1926 1839 1899 1944 1870 1900 1886 1884 1887 1886 1942 1921 1874 1930 1957 1958 1975 1897 1914 1937 1924 1924 1842 1967 1947 1880 1904 1891 2025 1930 1932 1855 1925 1917 1967 1891 1865 1889 1892 1856 1854 1911 1943 1927 1903 1918 1847 1878 1891 1913 1989 1840 1911 1959 1883 1815 1986 1887 1867 1886 1860 1878 2041 1917 1914 1879 1951 1925 1870 1914 1906 1942 1858 1849 1915 1955 1942 1954 1896 1952 1927 1970 1930 1924 2056 1905 1976 1922 1898 1904 1999 1998 2055 2046 2026 2017 2001 2065 2044 2143 2085 2086 2144 2200 2075 2253 2261 2287 2315 2333 2449 2371 2391 2461 2357 2322 2335 2372 2221 2271 2322 2270 2286 2256 2419 2273 2292 2293 2199 2266 2177 2267 2286 2208 2308 2221 2283 2138 2154 2101 1997 2127 2029 2055 2030 2076 2071 2031 2058 2044 2038 2052 2004 2057 1916 2037 1881 2058 1978 2046 2035 1954 2038 2091 1864 1962 1966 1919 2007 1943 1938 2027 1986 1942 1985 2027 2005 1986 1956 1969 1868 1930 1916 1920 1950 1971 1939 1982 1931 1970 1936 1948 1928 1876 2040 1903 1962 1871 2017 1992 1918 1965 1990 1880 1916 1962 1860 1951 1879 1990 1934 1886 1930 1911 1848 1868 1910 1929 1949 1813 1879 1936 1891 1955 1910 1869 1926 1908 1884 1958 1835 1926 1941 1865 1916 1915 1908 1975 1928 1893 1873 1932 1930 1947 1900 1958 1983 1907 1951 1893 1997 1907 1894 1810 1864 1934 1940 1952 1866 1958 1903 1905 1935 1872 1942 1900 1834 1852 1845 1977 1922 1884 1910 1881 1870 1892 1919 1892 1848 1913 1960 1917 1929 1900 1906 1944 1858 1959 1910 1886 1955 1847 1924 1863 1781 2041 1954 1832 1864 1856 1940 1853 1970 1968 1911 1948 1957 1913 1939 1907 1890 1876 1935 1942 1825 1917 1897 1859 1903 1863 1977 1876 1915 1924 1832 1918 1823 1935 1913 1917 1881 1916 1961 1961 1899 1980 1880 1950 1926 1912 1974 2006 1931 1904 1917 1916 1865 1861 1874 1900 1965 1939 1877 1867 1907 1901 1878 1928 1866 1891 1919 1901 1929 1870 1875 1867 1954 1909 1951 1874 1916 1962 1900 1910 1873 1948 1930 1841 1872 1946 1852 1886 1770 1843 1907 1910 1887 1900 1984 1960 1915 1909 1875 1900 1904 1904 1982 1841 1905 1967 1922 1954 1912 1846 1846 1918 1826 1852 1849 1910 1912 1865 1964 1887 1919 1826 1870 1941 1927 1911 1860 1905 1958 1917 1927 1861 1903 1877 1902 1885 1880 1927 1880 1934 1971 1854 1954 1890 1970 1964 1873 1899 1966 1917 1897 1915 1888 1938 1933 1888 1860 1936 1838 1916 1894 1951 1949 1891 1935 1882 1882 1978 1947 1932 1915 1926 1963 1868 1942 1886 1954 1849 1828 1879 1871 1968 1891 1876 1882 1886 1909 1901 1848 1953 1963 1897 1931 1950 1873 1979 1954 1892 1913 1905 1902 1892 1907 1946 1831 1834 1991 1905 1935 1880 1939 1890 1873 1877 1885 1952 1857 1947 1953 1873 1820 1936 1925 1879 1875 1850 1836 1816 1902 1889 1975 1931 1949 1883 1992 1917 1912 1901 1846 1904 2005 1827 1870 1934 1927 1912 1865 1862 1932 1976 1928 1817 1907 1948 1903 1885 1827 1904 1929 1950 1877 1895 1868 1960 1975 1880 1924 1951 1875 1936 1912 1943 1896 1939 1915 1870 1910 1894 1943 1904 1859 1934 1897 1896 1857 1878 1894 1855 1921 1853 1891 1932 1903 1900 1926 1862 1923 1914 1855 1952 1961 1860 1945 1850 1880 1940 1911 1861 1925 1872 1899 1940 1835 1964 1877 1913 1950 1878 1920 1888 1927 1936 1955 1922 1875 1870 1882 1899 1849 1907 1913 1899 1911 1903 1860 1959 1933 1899 1858 1935 1873 1870 1901 1951 1904 1915 1921 1905 1932 1859 1860 1852 1917 1907 1879 1887 2008 1810 1852 1967 1902 1919 1900 1969 1919 1845 1888 1869 1857 1883 1934 1831 1903 1876 1948 1882 1859 1968 1912 1871 1926 1930 1931 1861 1876 1921 1843 1880 1881 1879 1873 1912 1911 1932 1869 1889 1921 1848 1844 1918 1887 1870 1897 1909 1932 1896 1934 1863 1878 1870 1919 1888 1909 1886 1857 1846 1853 1912 1919 1873 1938 1956 1938 1898 1935 1949 1860 1910 1877 1885 1897 1883 1900 1868 1893 1920 1915 1870 1862 1949 1910 1907 1943 1942 1964 1986 1913 1936 1978 1921 1969 1898 1916 1883 1870 1920 1883 2000 1911 1956 1972 2001 1908 1983 1885 1948 1916 2010 2042 2035 2000 2030 2028 2096 2042 2055 2045 2022 2090 1913 2009 1969 2048 1913 2049 1971 2082 1922 2080 1985 1984 2011 1981 2002 2108 2022 2026 1956 1916 2007 2054 1984 1940 1998 1979 1979 1955 1952 2021 1874 1895 2063 1991 1949 2008 1946 2021 1993 1982 2021 2001 1936 2033 1990 2051 1994 2048 2000 2089 2073 2065 2024 2125 2098 2065 1992 2062 1995 2072 2052 1952 1996 2051 2017 2013 2003 2031 2040 1996 1999 2025 2017 2085 2064 2042 2017 2002 2019 2128 2000 1989 1969 1979 1960 2085 1986 1965 2010 1992 1940 1975 1983 1892 1975 1949 1901 1976 1950 1968 1953 1985 2021 1946 2005 1913 1972 1967 1981 1962 1929 2028 1857 1945 1945 1924 1926 1980 1899 1925 1938 2002 1960 1990 2014 1990 1957 1977 1936 1901 1865 1975 1948 2041 1916 1995 1911 1953 1879 1964 1913 1927 1899 1883 1940 1933 1913 1919 1863 1952 1962 1947 1879 1962 1978 1998 1889 1912 1909 1984 1929 1889 1944 1887 1883 1929 1931 1898 1955 1922 1945 1938 1890 1909 1958 1950 1936 1944 1968 1873 1856 1854 1870 1883 1972 1939 1962 1936 1833 1879 1892 1943 1875 2025 1957 1813 1870 1819 1951 1915 1888 1902 1993 1852 1878 1985 1918 1912 1913 2020 1944 1879 1842 1935 1905 1945 1959 1973 1971 1859 1932 1973 1857 1919 1920 1854 1879 1953 1989 1930 1940 1893 1916 1885 1925 1972 2010 1994 1962 2045 1936 1944 1955 2007 2010 1919 2040 2061 1938 1956 2001 1922 2024 2059 2011 1993 1997 2024 1992 2014 1950 1982 1993 2006 2011 2059 2106 2076 2112 2040 2152 2109 2114 2254 2152 2179 2237 2282 2265 2512 2476 2500 2585 2593 2679 2812 2840 2876 2799 2896 2758 2798 2742 2722 2752 2573 2604 2708 2556 2492 2587 2618 2562 2504 2526 2572 2533 2530 2559 2635 2631 2566 2600 2593 2650 2457 2485 2548 2481 2415 2363 2428 2287 2318 2287 2244 2264 2233 2229 2177 2167 2163 2138 2206 2178 2125 2116 2117 2109 2114 2113 2113 2080 2084 2110 2073 2113 2094 2051 2027 2111 2070 2089 2059 2047 2024 2146 2061 2066 2001 2038 2046 1992 2038 2083 1987 2113 2078 1967 1991 2051 2015 1989 1990 1976 1980 1972 2041 1985 1982 2005 2026 1984 1967 2027 2004 2015 1927 2019 1987 2007 2037 2024 1968 1943 2001 1997 1925 1962 2087 1959 1979 1966 2003 2000 2039 2017 1967 1969 2023 1890 1943 1995 1970 1929 1988 1946 1986 2051 1861 2045 1892 1913 2000 1950 1952 1866 1905 1891 1926 1935 1985 1968 1948 1942 1968 1966 1916 1968 1970 1958 1941 1896 1992 1981 1926 1932 1844 1913 1985 2024 1982 1986 2019 1935 1952 1969 2041 2025 1952 2023 2022 2021 1970 2019 2043 1968 2018 2014 1899 2044 2022 1938 1979 1937 1932 1977 1882 2017 1967 2026 2010 2024 1926 1939 2096 1995 1923 2004 2026 2040 2046 1953 2005 1947 1863 1906 1990 1991 1962 1919 1935 1872 1967 1928 1895 1866 1911 1818 1930 1969 1965 1960 1938 1890 1878 1835 1881 1931 1904 1906 1969 1982 1931 2007 1987 1907 1933 1864 1967 1949 2000 1905 1842 1954 1843 1930 1918 1897 1999 1896 1910 1969 1894 1876 1830 1886 1897 1917 1947 1952 1962 1927 1918 1877 1921 1952 1845 1926 1934 1957 1906 1893 1948 1928 1894 1892 1917 1900 1846 1969 1915 1900 1907 2057 2004 1860 1862 1904 1843 1872 1910 1904 1889 1900 1964 1990 1865 1932 1914 1901 1921 1928 1931 1987 2010 1920 1909 1883 1930 1857 1854 1813 1898 1857 1912 1896 1903 1898 1915 2064 1926 1943 1888 1881 1929 1869 1846 1907 1883 1891 1954 1947 1907 1883 1883 1852 1930 1774 1877 1904 1848 1891 1783 1886 1969 1936 1912 1977 1855 1843 1885 1958 1917 1923 1881 1859 1935 1830 1887 1947 1859 1917 1906 1916 1834 1965 1957 1968 1909 1843 1898 1945 1842 1889 1902 1892 1856 1931 1910 1938 1904 1904 1866 1876 1909 1916 1913 1935 1877 1930 1926 1891 1871 1862 1973 1930 1919 1897 1872 1923 1810 1864 1884 1819 1895 1868 1883 1886 1951 1873 1916 1942 1896 1890 1910 1888 1882 1886 1849 1925 1929 1946 1911 1952 1921 1894 1923 1851 1842 1987 1894 1893 1971 1845 1897 1918 1893 1935 2015 1815 1940 1974 1957 1942 1908 1918 1904 1978 1861 1925 1988 1879 1908 1932 1945 1870 1938 1902 1936 1886 1904 1926 1926 1899 1906 1952 1837 1864 1896 1942 1861 1957 1859 1851 1922 1875 1896 1952 1893 1937 1917 1953 1886 1945 1944 1926 1893 1951 1843 1961 1892 1862 1908 1921 1923 1847 1960 1944 1894 1922 1907 1940 1923 1872 1946 1873 1847 1909 1863 1909 1919 1950 1930 1876 1879 1921 1928 1803 1899 1914 1970 1968 1937 1876 2004 1973 1832 1972 1887 1829 1889 1879 1903 1895 1897 1924 1871 1934 1827 1948 1855 1877 1940 1860 1961 1908 1945 1898 1895 1952 1867 1891 1890 1888 1876 1949 1884 1884 1940 1861 1920 1915 1944 1894 1982 1917 1908 1939 1983 1967 1902 1882 1898 1960 1984 1954 1944 1934 1875 1949 1845 1865 1890 1891 1947 1883 1898 1850 1903 1881 1937 1918 1881 1902 1983 1927 1900 1940 1904 1913 2013 1971 1817 1911 1899 1912 1916 1980 1899 1857 1938 1900 2038 1946 1860 1912 1966 1948 1966 1943 1990 1955 1957 1837 1932 1972 1887 1948 1972 1905 1948 1953 2083 2019 2040 2048 2028 2077 1954 2055 2048 2058 2028 2028 1999 1976 1918 1996 1889 1953 1935 1976 1935 1974 1965 1975 1916 1989 1999 1957 2010 2057 1963 1963 2005 1938 1931 1943 1966 1994 1983 2014 2024 2005 1952 1990 2005 2032 1860 1930 2017 1949 1989 1896 1926 1975 1948 1941 1928 1990 1984 1876 1896 2010 1876 1940 1868 1884 1853 1985 1848 1877 1917 1863 1890 1900 1840 1841 1893 1911 1920 1934 1953 1857 1954 1924 1884 1875 1856 1895 1953 1965 1932 1977 2004 1913 1902 1918 1854 1948 1967 1934 1953 1902 1987 1889 1842 1840 1867 1837 1907 1843 1837 1891 1839 1895 1956 1923 1935 1990 1919 1861 1833 1904 1947 1954 1951 1902 1906 1895 1959 1895 1871 1914 1929 1960 1882 1932 1966 1901 2028 1885 1892 1819 1875 1902 1913 1905 1968 1973 1903 1893 1881 1930 1916 1939 1941 1924 1876 1912 1860 1924 1888 1984 1898 1916 1903 1879 1993 1859 1903 1905 1936 1919 1872 1892 1912 1994 1931 1879 1847 1916 1951 1877 1882 1979 1895 1899 1873 1954 1904 1877 1808 1958 1909 1969 1914 1949 1954 1882 1806 1910 1926 1908 1884 1927 1896 1842 1766 1930 1907 1918 1947 1876 1947 1876 1914 1908 1940 1918 1942 1890 1950 1961 1954 2013 1957 1930 1924 1978 1933 1923 1911 1958 1952 1909 1861 1917 1842 1923 1858 2017 1898 2032 1882 1911 1929 1937 2012 1949 1983 1936 1930 1909 1914 1970 1903 2024 1949 1928 1909 1965 1950 1947 2000 2016 1863 1918 1953 1975 1992 1959 1983 2015 1947 1953 2013 2057 2025 2036 2006 2082 1993 2120 2133 2098 2152 2147 2190 2222 2287 2310 2358 2371 2470 2559 2535 2578 2601 2585 2591 2538 2437 2420 2412 2396 2438 2349 2294 2253 2342 2208 2340 2330 2394 2273 2276 2318 2291 2234 2307 2265 2335 2373 2329 2331 2393 2354 2250 2309 2336 2245 2297 2275 2190 2148 2215 2095 2152 2254 2098 2226 2151 2130 2137 2172 2072 2116 2178 2018 2067 2070 2072 2089 2054 2039 2038 2043 2012 2071 1953 2034 1973 1960 2095 2030 2112 1965 1993 2017 2025 1879 2024 2033 1949 2005 1939 2003 1947 1931 2014 1941 1953 2053 1877 2027 1949 2014 1964 1942 2000 2012 1985 2039 2001 2009 1897 1890 1969 1886 1933 1942 1985 1920 1922 1931 2017 1908 1933 1948 1986 2037 1968 1936 1978 1988 1848 1979 1944 1963 1908 2015 1927 1900 1952 2013 1920 1941 1961 1941 2011 1931 1926 1996 1892 1945 1908 1964 2010 1978 1948 1901 1839 1908 1936 1875 1983 1836 1870 1884 1916 1914 2040 1937 1941 1888 2018 1894 1952 1915 1934 1921 1972 1950 1896 1984 1903 1979 2019 1944 1968 2088 1982 1960 2037 1981 1977 1924 2018 1935 2003 1978 2004 1941 1918 1972 2068 1935 1988 1927 1899 2011 1939 1959 1954 1931 1915 1957 1896 1992 1900 1920 1978 1945 1941 1900 1906 1952 2013 1884 1953 1946 1870 1883 1905 1920 1945 1928 1869 1878 1838 1910 1926 1860 1996 1863 1974 1941 1954 1930 1810 1822 1896 1885 1932 1910 1921 1892 1892 1936 1878 1876 1924 1895 1859 2029 1916 1892 1840 1969 1921 1871 1891 1910 1933 1897 1981 1942 1927 1914 1920 1908 1894 1911 1884 1882 1941 1891 1879 1913 1900 1909 1881 1932 1923 1948 1947 1849 1841 1903 1963 1917 1934 1800 1892 1912 1874 1928 1874 1898 1933 1893 1881 2015 1869 1951 1911 1832 2013 1912 1905 1894 1870 1921 1944 1867 1889 1919 1920 1898 1915 1916 1956 1950 1913 1906 1885 1886 1935 1793 1961 1916 1890 1898 1888 1913 1914 1912 1929 1910 1942 1912 1902 1910 1854 1926 1905 1902 1881 1877 1874 1883 1908 1900 1918 1847 1948 1852 1877 1897 1892 1835 1988 1894 1812 1918 1932 1933 1897 1816 1888 1887 1970 1911 1947 1861 1928 1842 1906 1850 1934 1874 1901 1921 1907 1878 1877 1961 1931 1960 1867 1878 1842 1920 1936 1966 1909 1895 1950 1941 1938 1945 2010 1941 1961 1822 1943 1966 1788 1950 1973 1901 1866 1964 1858 1909 1880 1925 2039 1925 1884 1853 1919 1896 1880 1915 1951 1948 1894 1877 1917 2029 1852 1921 1826 1896 1966 1863 1861 1887 1877 1934 1901 1938 1859 1896 1980 1920 1961 1926 1941 1928 1816 1856 1876 1938 1890 1984 1966 1807 1885 1867 1926 1994 1877 1883 2023 1840 1841 1856 1897 1926 1842 1875 1901 1907 1851 1853 1820 1931 1918 1894 1892 1848 1962 1909 1891 1897 1957 1837 1900 1822 1892 1940 1957 1976 1901 1875 1865 1942 1915 1915 1933 1897 1905 1944 1948 1957 1985 1930 1908 1896 1934 1860 1854 1933 1911 1835 1943 1842 1921 1863 1859 1918 1918 1857 1916 1839 1930 1818 1943 1894 1885 1959 1870 1922 1924 1833 1909 1817 1934 1957 1912 1967 1902 1957 1894 1901 1914 1912 1933 1908 1835 1924 1865 1922 1958 1882 1930 1906 1901 1904 1902 1875 1944 1825 1904 1942 1874 1875 1868 1799 1924 1887 1911 1944 1931 1936 1885 1858 1878 1931 1879 1912 1964 1949 1935 1913 1926 2030 1911 1903 1894 1995 1870 1937 1940 1897 1891 1881 1917 1903 1958 1879 1906 1887 1932 1845 1881 1898 1900 1881 1937 1827 1920 1923 2001 1934 1974 1888 1889 1917 1882 1974 1988 1903 1974 1976 1923 1933 1970 1938 1962</counts>
			</dataPoints>
		</scan>
	</xrdMeasurement>
</xrdMeasurements>
