<?xml version="1.0"?>
<xrdMeasurements xmlns="http://www.xrdml.com/XRDMeasurement/2.3" xmlns:xsi="http://www.w3.org/2001/XMLSchema-instance" xsi:schemaLocation="http://www.xrdml.com/XRDMeasurement/2.3 http://www.xrdml.com/XRDMeasurement/2.3/XRDMeasurement.xsd" status="Completed" recordIdentifier="{EB455E57-62F5-4948-A53A-6C784AF6026F}">
	<comment>
		<entry/>
	</comment>
	<sample type="To be analyzed">
		<id>GPSS_Li2NiCl4_102925_69023408f1dc75abe2563670</id>
		<name></name>
		<preparedBy></preparedBy>
	</sample>
	<xrdMeasurement measurementType="Scan" status="Completed" sampleMode="Reflection">
		<usedWavelength intended="K-Alpha 1">
			<kAlpha1 unit="Angstrom">1.5405980</kAlpha1>
			<kAlpha2 unit="Angstrom">1.5444260</kAlpha2>
			<kBeta unit="Angstrom">1.3922500</kBeta>
			<ratioKAlpha2KAlpha1>0.5000</ratioKAlpha2KAlpha1>
		</usedWavelength>
		<incidentBeamPath>
			<radius unit="mm">145.00</radius>
			<xRayTube id="1010048" name="Empyrean Cu LFF HR (9430 033 7310x)">
				<tension unit="kV">40.0</tension>
				<current unit="mA">15.0</current>
				<anodeMaterial>Cu</anodeMaterial>
				<focus type="Line">
					<length unit="mm">12.0</length>
					<width unit="mm">0.4</width>
					<takeOffAngle unit="deg">6.0</takeOffAngle>
				</focus>
			</xRayTube>
			<sollerSlit id="21010002" name="Soller slits 0.04 rad.">
				<opening unit="rad">0.0400</opening>
			</sollerSlit>
			<mask id="22031000" name="Fixed mask 13 mm">
				<width unit="mm">9.00</width>
			</mask>
			<divergenceSlit id="22120001" name="Divergence slit 1°" xsi:type="fixedDivergenceSlitType">
				<distanceToSample unit="mm">50.00</distanceToSample>
				<height unit="mm">1.52</height>
			</divergenceSlit>
		</incidentBeamPath>
		<sampleMovement xsi:type="spinningSampleMovementType">
			<spinnerRevolutionTime unit="seconds">1.0</spinnerRevolutionTime>
		</sampleMovement>
		<diffractedBeamPath>
			<radius unit="mm">145.00</radius>
			<antiScatterSlit id="22090040" name="AS slit 9 mm (PIXcel)" xsi:type="fixedAntiScatterSlitType">
				<height unit="mm">9.00</height>
			</antiScatterSlit>
			<sollerSlit id="21020003" name="Large Soller slits 0.04 rad.">
				<opening unit="rad">0.0400</opening>
			</sollerSlit>
			<filter id="20030001" name="Large beta-filter Nickel">
				<material>Ni</material>
				<thickness unit="mm">0.020</thickness>
			</filter>
			<detector id="7010019" name="PIXcel1D-Medipix3 detector" xsi:type="rtmsDetectorType">
				<phd unit="keV">
					<lowerLevel>4.02</lowerLevel>
					<upperLevel>11.27</upperLevel>
				</phd>
				<mode>Scanning</mode>
				<activeLength unit="deg">5.542</activeLength>
			</detector>
		</diffractedBeamPath>
		<scan appendNumber="0" mode="Continuous" scanAxis="Gonio" status="Completed">
			<header>
				<startTimeStamp>2025-10-31T18:40:10-07:00</startTimeStamp>
				<endTimeStamp>2025-10-31T18:48:17-07:00</endTimeStamp>
				<author>
					<name>AutomatedUser</name>
				</author>
				<source>
					<applicationSoftware version="1.7b (136)">PANalytical Aeris Instrument Suite</applicationSoftware>
					<instrumentControlSoftware version="3.2.00000000 20240306">AERIS</instrumentControlSoftware>
					<instrumentID>950485</instrumentID>
				</source>
			</header>
			<dataPoints>
				<positions axis="2Theta" unit="deg">
					<startPosition>10.00943322</startPosition>
					<endPosition>99.99442286</endPosition>
				</positions>
				<positions axis="Omega" unit="deg">
					<startPosition>5.00471661</startPosition>
					<endPosition>49.99721143</endPosition>
				</positions>
				<commonCountingTime unit="seconds">12.495</commonCountingTime>
				<counts unit="counts">3315 3276 3281 3235 3254 3130 3261 3285 3229 3327 3292 3267 3167 3299 3333 3282 3321 3218 3338 3259 3248 3267 3221 3122 3270 3238 3267 3274 3255 3292 3264 3366 3317 3325 3348 3255 3236 3296 3294 3339 3401 3407 3480 3357 3373 3344 3365 3275 3362 3319 3295 3408 3368 3390 3393 3296 3413 3242 3315 3427 3424 3340 3355 3333 3391 3266 3350 3457 3512 3423 3375 3521 3509 3361 3410 3269 3279 3433 3368 3370 3362 3449 3498 3549 3430 3378 3542 3355 3422 3441 3551 3432 3484 3526 3510 3458 3575 3430 3527 3527 3419 3498 3548 3526 3460 3481 3371 3476 3553 3429 3637 3583 3622 3431 3583 3511 3520 3440 3511 3486 3451 3485 3489 3537 3630 3550 3598 3427 3525 3560 3368 3571 3602 3642 3524 3637 3654 3654 3525 3640 3451 3544 3537 3561 3554 3601 3560 3545 3523 3590 3491 3564 3637 3548 3658 3564 3533 3540 3736 3513 3536 3590 3530 3474 3686 3590 3603 3640 3580 3614 3540 3577 3577 3529 3751 3537 3658 3632 3727 3557 3600 3635 3599 3744 3508 3713 3628 3550 3712 3676 3453 3676 3585 3643 3541 3600 3602 3610 3644 3566 3626 3571 3642 3629 3667 3602 3704 3512 3538 3563 3660 3406 3643 3570 3572 3584 3660 3569 3520 3624 3659 3552 3574 3545 3524 3463 3558 3670 3535 3586 3478 3555 3465 3585 3566 3632 3504 3491 3532 3634 3539 3587 3533 3441 3513 3502 3451 3586 3592 3647 3532 3531 3547 3511 3494 3434 3503 3565 3605 3524 3422 3571 3568 3539 3574 3523 3447 3520 3586 3488 3536 3569 3544 3604 3571 3555 3620 3643 3646 3545 3595 3537 3614 3580 3567 3606 3603 3577 3573 3616 3669 3488 3639 3617 3506 3600 3703 3535 3599 3619 3592 3561 3579 3610 3804 3675 3694 3590 3542 3752 3644 3668 3608 3628 3641 3685 3682 3661 3644 3713 3702 3686 3756 3737 3720 3729 3744 3781 3718 3727 3776 3759 3674 3704 3726 3701 3818 3797 3718 3850 3880 3788 3856 3751 3874 3858 3864 3818 3799 3752 3787 3930 3805 3759 3712 3883 3863 3745 3888 3829 4025 3921 3875 3990 3928 3933 3931 3833 3971 3939 3877 4045 3981 3861 3875 3904 4053 4013 4021 3929 3947 4000 4091 3962 3975 4037 3972 3994 4018 3942 3979 4094 3943 4034 3862 4023 3938 4004 4086 4087 4064 4008 4094 4116 4001 3978 4057 4012 4018 4070 4113 4049 4134 4030 4173 4038 4027 4098 4104 4082 4130 4036 4124 4099 3972 4161 4125 4185 4183 4219 4120 4131 4174 4212 4271 4224 4291 4318 4341 4345 4417 4328 4376 4379 4452 4500 4433 4683 4730 4771 4657 4611 4673 4682 4817 4846 5048 5116 5092 5236 5364 5257 5325 5624 5706 5919 6116 6094 6478 6545 6976 7147 7559 7740 8041 8486 8686 8775 9224 9607 9714 9810 9896 10003 9875 9800 9549 9867 9523 9692 9358 9179 9306 9001 8558 8506 8394 8310 7966 7844 7667 7463 7088 6966 6672 6504 6205 6021 5714 5558 5379 5187 5022 4781 4704 4509 4247 4370 4296 4076 4103 3998 4016 3904 3914 3956 3836 3924 3946 3838 3789 3837 3825 3683 3832 3769 3791 3672 3790 3696 3613 3604 3635 3768 3579 3657 3720 3629 3660 3555 3665 3472 3568 3678 3565 3615 3646 3680 3517 3608 3625 3564 3510 3598 3530 3669 3601 3582 3598 3618 3486 3483 3475 3465 3561 3460 3487 3478 3440 3582 3443 3436 3520 3477 3456 3553 3466 3654 3478 3404 3420 3442 3473 3411 3528 3413 3426 3506 3467 3473 3423 3488 3507 3480 3494 3452 3496 3516 3377 3463 3578 3449 3505 3372 3425 3319 3501 3349 3386 3507 3383 3467 3465 3471 3511 3383 3411 3484 3527 3367 3358 3326 3421 3375 3559 3376 3389 3312 3365 3407 3264 3284 3500 3350 3397 3385 3395 3436 3314 3368 3542 3308 3393 3462 3373 3330 3449 3418 3318 3392 3471 3415 3365 3400 3514 3522 3368 3446 3458 3418 3340 3521 3453 3448 3467 3392 3479 3388 3343 3506 3377 3369 3364 3377 3374 3389 3257 3418 3322 3315 3321 3315 3398 3270 3332 3312 3383 3368 3276 3232 3292 3280 3376 3240 3287 3358 3264 3216 3271 3341 3290 3350 3271 3265 3273 3281 3269 3250 3290 3164 3323 3329 3293 3201 3314 3202 3180 3301 3275 3201 3280 3280 3188 3253 3261 3174 3275 3222 3297 3293 3304 3294 3221 3216 3231 3305 3210 3237 3220 3138 3156 3213 3129 3150 3119 3222 3279 3097 3273 3207 3186 3219 3213 3283 3218 3196 3245 3312 3304 3196 3200 3248 3210 3179 3192 3170 3180 3256 3206 3238 3166 3135 3161 3141 3182 3190 3213 3086 3148 3147 3219 3109 3233 3079 3244 3204 3274 3202 3170 3205 3064 3133 3214 3205 3177 3197 3177 3125 3187 3250 3123 3125 3181 3247 3100 3194 3091 3182 3111 3078 3050 3125 3141 3098 3150 3084 2992 3130 3188 3184 3169 3110 3176 3065 3151 3027 3123 3116 3084 3103 3141 3242 3115 3071 3113 3039 3107 3069 3144 3146 3147 3042 2999 3054 3077 3038 3076 3103 3184 3077 3063 3143 3149 3117 3157 3160 3004 3101 3095 3121 3078 3077 3056 2980 3100 3139 3196 3043 3086 3047 2983 2993 3038 3045 3130 3079 3057 3037 3126 3054 2893 3041 2951 2897 2979 2941 3031 3042 2963 2983 2979 2978 2930 3104 3071 2938 3047 2992 2876 2889 2993 2956 3036 3082 2990 2988 3051 3018 2991 3012 2946 2947 3118 3008 3031 2885 3101 2995 3104 2963 2934 3069 3111 3000 2986 3010 3065 3039 2879 2981 2944 3020 2953 2876 3023 3011 2927 2863 2924 2936 2908 2978 2913 2925 2905 2872 2960 2905 2919 2941 2956 2936 2840 2972 2944 2962 2923 3025 2892 2946 2953 2898 2993 2965 2975 2840 2923 3022 2870 2893 3027 3110 2982 2914 2985 2974 2951 2962 2911 2900 2992 2957 2925 3054 2876 3058 2963 2883 2995 2717 2957 2933 2910 2965 2944 2933 3013 2941 2906 2926 3046 3081 2947 2956 2957 2933 2934 3016 2830 2981 2903 2856 2909 2944 2916 2931 3054 2927 3051 2975 2895 2934 2936 2975 3000 3055 2939 2905 3013 2992 3040 2876 2910 2963 2998 2907 2880 2987 2923 3013 3094 2997 2917 2956 2986 3036 2981 3005 2996 2942 3020 2998 2992 3078 2875 2856 2893 2989 2864 2951 2950 3004 2939 2982 3001 2886 3017 2880 2969 3023 3006 2890 2892 2897 3022 2912 3000 2942 2873 2923 2957 2889 2993 2863 2960 2892 2910 2855 2917 2934 2990 2950 2957 2871 2932 2989 2983 2938 2873 2828 2991 2855 2949 2824 2873 2936 2860 2909 2857 2831 2878 2938 2839 2814 2831 2824 2961 2831 2809 2805 2897 2874 2792 2809 2820 2794 2860 2904 2939 2821 2778 2830 2867 2850 2810 2838 2772 2803 2821 2777 2790 2899 2814 2840 2750 2693 2810 2772 2728 2810 2827 2808 2700 2701 2786 2814 2821 2803 2751 2761 2698 2782 2673 2752 2778 2763 2756 2885 2812 2665 2685 2758 2638 2715 2702 2694 2700 2669 2739 2700 2607 2688 2640 2677 2745 2674 2618 2699 2737 2621 2595 2644 2676 2613 2575 2543 2629 2554 2585 2608 2598 2557 2546 2476 2530 2528 2510 2541 2506 2498 2578 2553 2520 2509 2503 2471 2457 2518 2365 2459 2443 2455 2443 2399 2411 2503 2483 2357 2461 2458 2469 2521 2255 2412 2349 2386 2441 2340 2435 2435 2445 2455 2374 2376 2432 2435 2276 2355 2332 2323 2326 2382 2376 2392 2360 2432 2375 2307 2364 2292 2359 2314 2280 2339 2308 2325 2328 2281 2360 2349 2352 2231 2296 2250 2319 2243 2253 2318 2239 2257 2291 2395 2392 2252 2318 2352 2302 2321 2349 2257 2305 2312 2343 2220 2229 2325 2257 2277 2305 2337 2305 2255 2225 2311 2263 2274 2333 2238 2335 2251 2324 2307 2233 2320 2333 2357 2290 2293 2346 2183 2413 2402 2367 2260 2351 2254 2310 2410 2279 2305 2290 2357 2307 2175 2349 2325 2324 2305 2244 2214 2310 2242 2231 2241 2213 2182 2259 2233 2281 2272 2355 2201 2334 2275 2246 2167 2207 2228 2260 2265 2265 2197 2277 2256 2279 2208 2200 2179 2132 2306 2244 2282 2257 2206 2240 2285 2162 2289 2222 2246 2269 2223 2242 2242 2242 2261 2237 2228 2186 2263 2282 2230 2243 2276 2253 2206 2186 2183 2205 2246 2161 2185 2275 2239 2248 2258 2165 2182 2306 2258 2240 2255 2261 2222 2299 2185 2217 2305 2209 2211 2327 2271 2189 2253 2241 2316 2252 2276 2223 2312 2266 2257 2170 2218 2286 2248 2292 2317 2278 2276 2231 2252 2178 2217 2211 2260 2257 2304 2274 2248 2255 2167 2241 2256 2304 2197 2184 2251 2276 2279 2217 2221 2253 2243 2172 2213 2289 2222 2271 2223 2261 2198 2189 2205 2212 2235 2151 2153 2236 2184 2209 2216 2173 2154 2239 2195 2181 2140 2159 2113 2206 2187 2217 2136 2233 2195 2126 2189 2196 2168 2195 2177 2174 2123 2191 2144 2149 2161 2217 2033 2223 2187 2150 2184 2096 2172 2073 2216 2090 2135 2147 2162 2140 2153 2153 2127 2070 2103 2115 2072 2131 2068 2105 2058 2116 2169 2088 2112 2085 2092 1955 2084 2118 2039 2005 2096 2102 2001 2064 2060 2053 2080 2065 2094 2061 2100 2048 2027 2055 2002 1988 1875 2061 1956 2055 1977 1989 1989 2019 1908 2091 1941 1993 2054 2014 1922 2022 1977 2005 1958 1926 2012 1840 1959 1919 1941 1938 1928 1991 1965 2033 1974 1904 1900 1977 1892 1892 1878 1899 1888 1920 1961 1888 1980 2003 1938 1941 1909 1880 1945 1866 1856 1899 1854 1891 1894 1889 1857 1805 1938 1897 1959 1903 1845 1826 1901 1867 1834 1847 1857 1879 1899 1921 1896 1858 1869 1812 1823 1799 1729 1831 1731 1815 1839 1819 1803 1819 1773 1784 1753 1707 1770 1759 1750 1832 1749 1835 1808 1820 1760 1698 1855 1731 1762 1811 1780 1711 1719 1750 1705 1828 1701 1748 1689 1748 1724 1782 1707 1739 1749 1729 1800 1763 1808 1736 1749 1728 1889 1729 1736 1792 1703 1753 1718 1701 1686 1764 1743 1760 1742 1800 1785 1781 1695 1747 1727 1696 1719 1696 1689 1688 1708 1756 1737 1737 1765 1699 1828 1802 1756 1705 1811 1812 1755 1754 1806 1729 1803 1769 1793 1770 1677 1786 1781 1777 1674 1737 1799 1713 1717 1803 1785 1761 1714 1633 1687 1715 1666 1659 1680 1606 1657 1703 1603 1695 1700 1758 1681 1628 1626 1612 1674 1689 1754 1582 1674 1667 1672 1690 1717 1614 1572 1745 1618 1664 1703 1695 1684 1700 1691 1534 1654 1614 1657 1744 1605 1697 1660 1711 1778 1676 1665 1654 1666 1722 1774 1726 1716 1697 1746 1741 1813 1757 1749 1802 1799 1783 1890 1872 1831 1910 1857 1996 2039 2002 2111 2239 2255 2408 2510 2644 2852 3075 3285 3539 3830 4062 4275 4393 4551 4769 4775 4640 4846 4675 4797 4657 4473 4591 4384 4325 4268 4139 3965 3888 3818 3561 3518 3398 3270 3152 2930 2853 2704 2696 2582 2466 2478 2280 2262 2195 2105 2134 2115 2076 1914 1909 1853 1922 1875 1832 1831 1818 1769 1743 1729 1695 1785 1866 1830 1716 1848 1775 1742 1707 1698 1694 1751 1754 1731 1717 1723 1760 1744 1753 1676 1773 1678 1770 1775 1698 1666 1645 1759 1694 1729 1793 1760 1747 1770 1722 1742 1642 1814 1745 1727 1701 1741 1683 1774 1769 1732 1597 1663 1668 1702 1641 1747 1775 1629 1629 1677 1644 1636 1697 1631 1695 1619 1603 1693 1654 1600 1643 1608 1565 1609 1633 1614 1602 1627 1732 1664 1612 1623 1632 1631 1642 1593 1623 1661 1597 1569 1589 1586 1542 1637 1570 1651 1582 1597 1629 1573 1576 1591 1582 1570 1537 1592 1584 1573 1575 1578 1559 1542 1604 1593 1555 1607 1509 1522 1571 1613 1617 1591 1549 1514 1584 1573 1478 1639 1494 1573 1543 1558 1561 1589 1519 1627 1505 1509 1518 1575 1533 1573 1574 1595 1525 1536 1566 1597 1572 1560 1556 1492 1559 1561 1488 1559 1583 1571 1544 1562 1510 1537 1599 1583 1605 1536 1585 1626 1596 1555 1618 1561 1534 1522 1585 1606 1593 1526 1568 1610 1606 1618 1599 1568 1633 1535 1640 1652 1620 1578 1630 1589 1592 1683 1598 1704 1596 1685 1700 1732 1641 1684 1701 1726 1730 1783 1851 1800 1866 1884 1862 1845 1883 1880 1873 1914 1982 1956 1920 1907 1918 1874 1904 1935 1924 1836 1962 1891 1910 1849 1878 1839 1802 1808 1808 1781 1837 1768 1676 1710 1664 1721 1647 1693 1697 1708 1694 1614 1687 1668 1719 1662 1729 1642 1611 1673 1616 1631 1622 1655 1711 1653 1647 1678 1613 1650 1675 1679 1612 1657 1639 1633 1644 1559 1693 1650 1686 1637 1655 1697 1635 1653 1615 1619 1685 1641 1624 1641 1619 1626 1669 1600 1680 1593 1603 1657 1616 1679 1684 1599 1635 1673 1617 1580 1618 1591 1627 1679 1655 1672 1625 1658 1623 1589 1592 1594 1712 1600 1625 1624 1607 1618 1571 1633 1607 1574 1687 1601 1599 1685 1567 1569 1646 1567 1574 1556 1522 1681 1632 1633 1664 1685 1592 1690 1585 1545 1610 1569 1610 1584 1576 1611 1610 1633 1694 1632 1636 1600 1589 1651 1595 1586 1594 1613 1578 1656 1610 1582 1668 1629 1599 1712 1669 1647 1650 1735 1712 1768 1792 1748 1826 1948 1978 1962 2063 2187 2296 2377 2618 2800 3138 3270 3726 3987 4332 4582 4893 5174 5378 5589 5559 5506 5562 5637 5524 5580 5419 5356 5339 5308 5091 5097 4844 4703 4482 4559 4413 4311 4099 3974 3687 3600 3443 3337 3118 3076 2873 2791 2560 2406 2364 2267 2246 2156 1989 1935 1820 1861 1769 1799 1727 1713 1585 1703 1614 1545 1705 1581 1606 1612 1601 1542 1537 1473 1530 1483 1500 1496 1458 1562 1549 1579 1517 1454 1485 1561 1471 1492 1399 1439 1521 1433 1468 1487 1476 1539 1506 1451 1444 1476 1462 1389 1468 1477 1449 1486 1448 1418 1520 1473 1471 1462 1432 1448 1523 1411 1458 1448 1452 1510 1461 1448 1535 1492 1507 1541 1494 1443 1541 1521 1458 1458 1617 1509 1534 1603 1551 1582 1577 1541 1606 1649 1665 1695 1647 1630 1729 1701 1728 1755 1752 1820 1836 1791 1787 1813 1691 1772 1783 1760 1790 1768 1680 1751 1730 1685 1599 1634 1637 1655 1625 1626 1656 1562 1571 1546 1521 1555 1538 1523 1496 1479 1475 1471 1504 1463 1523 1482 1440 1466 1504 1499 1480 1434 1503 1524 1502 1444 1536 1543 1459 1462 1442 1467 1424 1522 1448 1521 1420 1493 1416 1524 1456 1414 1452 1435 1473 1455 1430 1445 1432 1410 1419 1511 1499 1549 1495 1413 1406 1487 1412 1445 1451 1501 1464 1444 1405 1485 1430 1477 1455 1431 1484 1444 1450 1547 1446 1460 1532 1413 1439 1513 1420 1497 1448 1426 1373 1528 1534 1354 1417 1494 1469 1435 1424 1427 1429 1456 1405 1490 1484 1430 1423 1436 1479 1387 1413 1412 1392 1389 1461 1436 1450 1417 1437 1424 1395 1436 1438 1418 1393 1477 1448 1470 1368 1398 1416 1339 1498 1389 1453 1466 1466 1487 1439 1422 1418 1419 1397 1456 1410 1357 1345 1334 1445 1423 1349 1356 1353 1421 1378 1438 1402 1438 1361 1370 1345 1344 1317 1405 1385 1326 1371 1337 1356 1336 1379 1439 1440 1388 1431 1445 1416 1430 1434 1447 1386 1347 1449 1364 1368 1317 1422 1341 1333 1331 1374 1327 1321 1358 1341 1316 1371 1273 1300 1362 1336 1340 1310 1374 1306 1303 1431 1310 1378 1323 1359 1392 1346 1323 1310 1302 1325 1315 1362 1288 1275 1330 1339 1313 1290 1327 1319 1289 1282 1363 1266 1316 1285 1255 1360 1256 1251 1277 1273 1317 1295 1265 1281 1254 1192 1256 1305 1300 1264 1327 1325 1280 1285 1249 1217 1223 1295 1314 1264 1256 1239 1358 1272 1274 1290 1243 1266 1246 1288 1335 1269 1267 1257 1272 1293 1229 1283 1250 1221 1251 1270 1202 1313 1266 1200 1210 1248 1257 1203 1299 1251 1250 1264 1252 1207 1267 1255 1246 1216 1248 1199 1290 1252 1196 1268 1150 1244 1241 1223 1232 1186 1216 1230 1189 1176 1226 1173 1208 1158 1178 1207 1155 1181 1237 1222 1160 1224 1229 1191 1183 1177 1153 1205 1179 1141 1141 1172 1104 1132 1163 1140 1204 1175 1263 1127 1117 1130 1174 1136 1143 1215 1164 1145 1144 1133 1171 1163 1110 1144 1162 1117 1137 1142 1153 1161 1235 1169 1160 1153 1177 1142 1150 1107 1210 1085 1221 1141 1204 1160 1121 1148 1133 1139 1134 1138 1176 1104 1217 1102 1138 1178 1155 1210 1123 1195 1151 1112 1126 1142 1137 1129 1102 1104 1128 1125 1185 1097 1075 1167 1107 1146 1150 1129 1084 1116 1159 1155 1139 1128 1158 1120 1109 1100 1119 1067 1146 1108 1069 1124 1089 1047 1084 1084 1073 1129 1106 1080 1061 1061 1095 1109 1112 1083 1116 1070 1053 1144 1156 1127 1104 1123 1057 1128 1026 1080 1107 1113 1122 1027 1124 1057 1113 1076 1154 1085 1125 1132 1093 1080 1096 1058 1121 1077 1108 1030 1106 1089 1120 1070 1089 1068 1097 1126 1107 1129 1086 1045 1102 1039 1076 1149 1094 1121 1175 1048 1086 1095 1070 1100 1099 1060 1074 1140 1078 1080 1087 1063 1101 1064 1073 1109 1086 1093 1014 1067 1108 1092 990 1077 1055 1032 1085 1112 1089 1104 1056 1038 969 1101 1043 1119 1175 1099 1000 1121 1085 1027 1054 1043 1127 1062 1079 1111 1026 1091 1082 1076 1113 1055 1044 1081 1000 1059 1089 1041 1058 1095 1122 1072 1103 1072 1039 1104 1098 1077 1027 992 1099 1015 1069 1055 1040 1080 1078 1070 1039 1050 1081 1044 1039 1028 1049 1047 1062 1086 1067 1021 1038 1009 1084 1060 1046 1060 1094 1120 1038 1085 1085 1077 1014 1056 1001 1047 1081 993 1128 1047 1073 1022 1004 1018 1016 1039 1069 1050 1076 1104 1054 1089 1074 1088 1057 1104 1004 1043 1097 1054 1121 1064 1030 1070 1052 1027 1073 1065 1038 1066 1017 1058 1048 1000 1115 1018 1040 1031 1035 1113 1048 951 1076 1072 1009 1040 1070 1044 1000 1009 1059 1032 999 977 1000 1012 1019 1020 993 1050 1021 1061 1074 1059 1007 997 1098 1023 1019 1048 984 1044 1018 1009 1027 994 1001 1019 1058 1019 1015 1082 1026 1033 1005 1058 1037 967 1033 982 1026 1057 1008 1064 1022 1005 976 1051 1002 962 992 1000 1038 1005 997 922 1008 999 1011 1019 1035 1073 1003 1028 942 974 1015 1016 1036 1014 1012 1002 994 1053 1031 1074 1036 1043 1040 980 1086 958 1035 989 1055 1022 1001 1044 1071 1104 1023 1017 1037 970 1036 1014 1007 988 1058 1015 1032 1011 995 1026 974 1014 982 1050 1023 1005 1004 944 963 1019 951 1015 1026 1020 1048 1008 1020 956 1002 1017 970 982 1101 1045 1001 994 963 1033 1041 1022 979 1033 1002 1036 1026 1020 1030 998 1020 1012 955 1059 1003 989 1021 979 1013 984 1003 971 1005 975 1020 971 1019 979 1023 978 959 981 1002 1012 1021 972 989 968 997 958 964 1046 1005 1015 1000 1005 979 990 1023 1024 987 1047 929 970 1011 1043 1008 1042 1024 997 1018 986 1006 979 1026 1034 1016 1034 1002 982 1016 1032 1020 968 1027 1031 1014 970 1028 1035 996 1034 1058 1034 1051 1047 1038 1041 1042 1066 1062 1092 1034 1051 1027 1071 1099 1004 1022 1050 1073 1032 1046 1070 1089 1080 1045 1038 1026 1028 1035 1049 1038 1016 1028 1046 1024 1013 1023 1017 975 1026 1019 967 1049 968 989 1037 1011 1024 987 947 985 1011 976 1015 1033 991 1032 1005 1016 1003 1004 1032 991 1002 985 971 1011 1017 990 1018 994 980 1003 983 937 1069 964 1038 1052 1016 975 1003 1032 969 988 970 947 1091 1006 962 1032 986 1025 1018 1009 1017 1000 1064 1071 1040 965 987 994 1067 1034 1025 1030 1022 1109 1069 1068 1068 1001 1056 990 1127 1021 1012 1049 1084 1060 1030 982 1051 960 1080 1051 1052 981 1074 1110 1027 1091 1061 1049 1039 1044 1089 1040 1074 1074 1064 1044 1092 1017 1115 1064 1048 1009 1043 1025 1116 1068 1084 1005 1006 989 1042 1095 1055 1080 1041 1022 1010 1010 972 1023 1006 1071 1031 1055 967 956 1034 976 994 1003 937 1053 1014 977 1012 1021 1012 963 1025 1021 1009 993 972 1000 937 1031 1007 1027 1004 1032 993 997 1040 971 980 1031 982 1006 1090 972 981 1053 1028 996 995 1030 977 994 1051 971 999 1019 999 1074 941 963 993 1056 1020 1012 1022 998 1040 997 986 1015 1004 1028 979 1022 1050 970 1011 1001 1031 1030 1046 991 996 1005 1006 965 1004 1024 1038 1023 1012 995 1030 1010 976 1007 1094 1044 1001 981 1052 1012 1016 1030 990 1032 966 1006 1034 1002 1012 1015 1062 995 994 998 1022 1024 995 984 1006 1043 1019 938 1017 990 1034 1012 987 956 983 1013 1007 1005 938 1027 1028 973 1008 1043 1007 972 966 1002 1005 968 957 985 975 987 973 947 969 989 1002 1004 1029 1003 1014 1052 990 949 1033 1004 1099 995 1007 976 982 1005 1032 1032 1015 965 998 1014 1022 1054 995 1014 972 988 1012 1070 1043 1041 1059 1038 1042 947 992 1058 976 1043 1022 1004 1039 1024 1028 960 1012 1018 1038 1049 1029 1047 1063 1010 1118 1113 1056 1117 1171 1212 1293 1320 1415 1496 1566 1631 1782 1936 2017 1993 2210 2165 2315 2332 2252 2234 2130 2031 1898 1934 1934 1888 2026 2029 1962 1929 1968 1875 1789 1671 1723 1658 1650 1543 1575 1510 1469 1395 1420 1423 1416 1391 1364 1312 1319 1351 1162 1215 1257 1192 1097 1143 1152 1147 1095 1088 1110 1069 1096 1010 1050 991 1042 1011 1020 994 1018 999 982 986 989 1005 1004 995 977 1002 1030 955 991 947 951 935 997 999 949 997 984 958 999 988 935 957 977 931 981 1003 1021 941 954 973 953 965 934 914 939 937 915 1005 955 954 942 929 947 954 941 936 986 940 1010 889 961 983 972 991 948 889 990 889 938 894 954 963 924 920 971 926 962 1008 911 906 914 923 914 915 931 876 929 898 946 936 924 972 961 949 932 943 954 987 934 911 929 978 936 927 908 965 942 953 975 967 973 1016 1049 1003 1013 1044 1031 986 946 1057 998 1025 1014 1012 990 1012 957 989 1014 1009 990 1067 1021 1059 981 991 984 1058 1031 1031 991 939 1020 910 1046 979 1022 923 1029 1004 996 1002 1040 969 1035 1047 1042 1015 1002 1056 1037 1064 1009 1063 1039 1179 1169 1234 1162 1217 1230 1264 1379 1344 1480 1558 1512 1658 1698 1694 1750 1751 1786 1869 1845 1829 1731 1814 1929 1825 1760 1755 1750 1764 1817 1754 1683 1679 1630 1620 1540 1582 1452 1407 1410 1340 1347 1311 1236 1262 1221 1219 1212 1132 1094 1116 1050 1104 1045 1028 1049 1034 1045 1039 1051 1022 994 959 953 926 972 962 937 954 879 932 937 925 961 913 888 889 893 918 912 875 937 887 901 881 984 925 930 903 867 909 898 958 858 923 937 862 860 871 916 908 872 880 886 854 924 928 924 889 846 864 901 886 881 887 885 882 941 878 885 923 949 875 915 885 902 827 907 873 871 831 881 891 862 898 865 875 869 916 920 873 851 856 862 867 860 911 849 896 882 917 864 935 855 832 854 875 850 837 885 885 837 841 875 894 878 837 894 866 881 873 892 927 918 891 886 899 832 911 841 829 917 882 893 845 862 831 895 910 882 881 823 901 893 884 876 881 855 878 900 868 880 884 948 955 855 878 845 909 897 915 944 883 952 895 926 914 886 938 973 964 862 914 883 961 855 898 918 944 965 971 940 959 986 979 998 1012 1034 1038 1083 1091 1049 1095 1128 1120 1113 1199 1147 1169 1163 1215 1116 1168 1200 1135 1203 1145 1170 1215 1206 1181 1124 1186 1196 1135 1096 1128 1080 1071 1067 1018 999 1006 989 1003 932 927 1018 954 988 888 929 906 937 855 919 901 809 916 905 917 862 896 855 909 847 858 910 880 892 847 847 883 896 879 891 835 845 823 864 829 843 884 813 857 838 829 835 834 810 847 877 819 918 853 842 908 865 824 840 843 826 802 814 815 868 834 833 801 838 828 838 816 827 836 807 913 877 785 831 863 791 823 830 859 780 885 766 856 829 844 848 823 844 828 835 821 863 804 849 826 813 825 784 877 788 842 821 752 826 770 836 868 798 803 868 836 831 854 828 829 815 834 802 781 808 817 850 835 826 814 871 868 852 788 809 823 821 828 747 802 802 840 776 808 787 877 780 826 789 869 777 757 790 825 827 804 808 833 801 806 789 824 893 794 786 798 825 803 849 838 812 846 818 798 809 844 787 765 825 802 820 793 758 814 835 794 829 779 842 800 840 820 827 803 849 819 810 735 799 858 871 863 804 864 878 811 800 831 811 784 805 817 833 779 830 811 791 828 780 807 797 781 804 816 809 888 845 809 838 748 865 817 794 821 792 798 821 781 820 789 766 787 780 740 832 764 778 809 787 809 789 842 791 820 807 763 793 813 802 784 727 783 764 800 839 799 782 783 798 789 825 794 751 812 802 807 775 797 779 806 800 774 790 846 828 791 846 824 878 744 806 754 832 777 788 833 830 800 771 798 750 763 771 791 802 856 844 817 822 799 776 841 801 896 860 759 774 856 777 850 776 802 821 845 843 857 808 858 780 791 799 798 787 805 787 790 782 795 826 852 793 820 855 834 786 791 812 811 846 861 761 770 842 848 845 828 829 809 813 817 815 797 798 788 809 814 806 854 886 881 831 882 865 892 939 1007 993 1020 1014 1126 1180 1151 1241 1248 1258 1286 1288 1254 1238 1209 1275 1263 1188 1190 1235 1162 1224 1163 1183 1191 1136 1144 1016 1046 1063 1070 975 990 1021 1019 946 967 996 975 961 894 869 911 938 880 909 858 804 774 804 823 915 822 820 783 814 836 802 825 793 810 829 824 855 810 792 796 795 827 766 775 819 877 804 778 809 771 819 746 785 741 775 769 750 772 743 805 759 760 738 786 767 752 765 765 753 795 776 768 787 746 724 762 794 767 799 716 767 733 759 716 758 771 749 749 759 793 746 681 810 769 793 754 761 737 696 711 766 773 724 812 731 722 796 814 773 747 720 767 762 743 779 760 749 707 762 783 732 736 740 763 690 756 768 675 805 722 777 738 740 777 750 782 719 763 759 775 786 682 798 712 788 771 798 825 779 778 778 768 725 778 782 731 773 758 737 734 736 813 786 786 766 746 715 799 774 732 774 739 744 775 763 714 711 795 730 749 774 784 715 749 781 731 745 772 784 831 786 757 829 755 768 745 779 806 786 747 749 789 796 784 785 772 791 728 790 719 739 735 804 811 769 831 779 788 797 765 826 800 836 747 787 816 803 815 782 792 786 786 803 819 778 780 769 798 740 842 788 864 873 827 864 904 916 908 927 980 1025 1024 987 969 1038 982 992 984 974 934 984 961 948 936 906 931 984 953 973 938 903 937 909 917 890 894 924 897 910 879 911 874 857 794 869 847 914 860 914 845 805 797 804 787 771 841 819 851 841 802 789 762 812 825 785 790 801 797 831 731 778 775 800 784 813 821 799 765 767 738 765 766 747 751 729 751 772 746 801 812 774 800 779 781 763 757 817 746 826 789 716 749 727 814 786 785 744 764 827 812 774 804 811 843 779 728 776 754 770 735 786 793 769 774 791 763 787 800 784 796 778 791 782 805 782 788 808 783 783 802 786 804 765 837 747 767 755 788 765 786 767 798 783 817 724 781 803 839 749 836 740 809 835 795 778 773 782 833 767 834 791 829 841 855 786 805 806 851 826 842 811 867 888 899 882 924 840 935 913 866 870 931 905 862 848 873 876 867 864 896 844 824 846 811 836 820 860 880 803 845 871 860 827 876 820 851 810 808 830 835 811 830 861 781 827 792 774 784 756 738 772 787 774 751 781 796 779 775 790 753 803 758 764 806 855 777 764 762 770 800 726 744 793 779 782 786 767 836 813 780 722 805 723 783 741 700 787 712 796 750 769 754 751 731 813 785 762 782 717 788 768 759 758 765 800 760 712 803 730 736 764 798 748 743 799 763 833 830 775 774 754 756 777 786 774 738 726 736 762 791 811 799 814 741 791 775 741 788 767 792 767 769 747 791 792 825 714 781 757 773 744 807 750 784 784 758 706 742 775 745 774 765 727 725 741 716 755 769 713 715 812 802 752 755 761 724 731 804 757 708 753 757 769 676 774 755 717 746 736 703 772 767 770 763 735 789 755 688 770 796 721 760 735 691 718 759 752 747 741 703 766 720 706 746 700 763 728 777 736 723 784 741 785 752 746 728 756 722 759 712 722 713 719 730 759 764 747 824 788 750 803 769 787 814 745 736 737 692 719 743 755 770 763 740 762 705 787 743 739 713 767 704 758 741 779 761 750 778 799 773 741 741 690 749 715 755 713 706 727 733 760 676 704 726 685 729 773 739 713 724 779 760 742 757 679 760 738 761 771 702 729 780 745 755 756 756 720 737 670 691 740 713 783 715 786 766 789 750 689 719 719 728 729 755 712 733 689 734 784 727 738 707 694 661 706 697 759 723 673 712 702 693 746 741 717 717 733 693 713 723 750 706 697 712 718 691 732 720 708 680 732 711 702 717 678 695 713 749 686 722 711 702 658 743 685 690 732 736 732 723 747 696 714 776 716 677 703 718 750 719 699 736 703 661 708 705 746 722 700 716 745 708 703 671 701 718 683 730 705 745 707 732 701 771 704 696 718 731 761 695 746 746 720 730 737 695 705 670 701 697 711 667 748 687 743 729 743 684 721 753 692 694 675 712 688 679 710 740 684 676 737 680 660 711 715 696 745 750 659 755 688 719 716 697 694 733 698 675 673 680 689 738 717 699 707 756 674 693 730 700 675 660 694 730 664 706 732 695 670 704 641 744 696 689 735 699 712 692 679 655 694 728 703 668 664 675 710 701 707 693 676 691 694 679 713 722 677 715 625 695 690 716 744 711 740 677 673 677 748 704 695 715 734 657 704 707 688 678 704 712 675 636 742 701 710 676 652 684 686 675 649 682 717 669 666 665 722 711 714 713 739 701 705 679 740 691 693 657 729 681 719 738 720 679 695 700 664 671 685 691 698 717 728 700 633 711 718 694 710 671 706 762 697 707 714 741 673 675 692 686 752 707 705 624 685 694 672 677 730 710 736 696 693 672 719 683 710 701 738 687 677 755 702 709 691 666 727 643 709 689 689 692 681 680 666 676 676 677 666 679 690 697 687 639 703 695 675 688 726 686 699 684 735 663 649 633 656 698 683 655 709 657 658 665 715 686 715 647 696 689 655 673 761 649 698 687 665 702 661 663 737 677 741 713 662 711 718 680 719 648 747 702 701 659 670 707 714 658 695 670 711 704 673 665 710 650 638 696 703 651 703 696 696 644 689 695 693 637 683 696 656 632 699 712 738 689 638 717 664 679 688 719 664 701 685 714 650 705 667 728 648 677 689 657 708 617 662 686 686 716 699 680 648 681 725 702 708 702 697 711 671 707 625 726 712 736 650 713 705 658 694 698 700 660 657 671 670 688 627 691 637 722 724 682 656 677 700 694 705 675 745 660 699 731 711 707 655 698 672 707 680 669 683 678 669 683 728 713 668 637 662 639 683 675 627 715 675 729 700 739 710 719 732 697 710 675 695 712 705 678 727 706 699 728 681 713 678 702 736 792 761 720 755 789 764 743 764 749 802 775 840 826 823 846 819 873 834 882 883 857 818 848 848 837 838 781 841 810 862 847 817 729 809 832 796 803 751 803 774 808 749 814 802 828 819 771 741 757 792 805 791 739 867 817 750 682 795 725 765 755 719 743 712 666 720 750 701 741 741 746 749 751 748 726 743 727 769 680 715 734 681 658 768 705 769 656 718 691 715 741 696 746 681 643 705 685 727 694 731 667 721 685 684 726 709 701 703 661 671 676 635 695 670 669 679 662 672 681 704 664 728 707 674 679 696 707 632 767 715 750 661 671 686 678 722 708 652 683 689 618 702 684 700 683 678 693 677 721 676 670 698 682 738 720 684 718 686 676 673 682 700 679 649 710 692 735 675 733 668 657 695 629 725 650 688 678 681 697 660 715 704 677 662 712 701 706 706 661 730 726 681 705 698 729 662 643 644 640 683 700 674 702 644 682 646 687 697 639 709 691 718 644 660 669 685 704 628 712 665 696 655 708 671 703 683 695 674 701 665 648 680 655 669 673 671 702 690 717 705 657 723 702 652 694 713 682 754 629 708 613 678 695 690 660 689 696 660 686 700 694 731 717 684 732 710 680 659 652 658 674 693 677 706 683 680 686 684 734 675 683 711 643 731 670 667 699 725 724 676 690 668 719 666 690 684 633 703 646 724 695 692 713 688 710 648 699 674 679 710 676 671 643 669 697 670 739 736 680 665 656 679 678 673 646 690 646 699 650 705 671 678 684 635 642 721 676 669 702 658 684 677 717 706 670 579 649 712 688 735 681 722 690 724 668 689 671 673 645 670 683 695 672 654 716 639 706 748 725 652 717 701 648 660 668 643 638 690 694 630 696 645 689 688 641 690 686 671 699 686 682 707 645 645 621 660 629 667 678 690 670 618 716 667 671 615 631 705 625 614 667 712 671 708 683 689 627 678 707 694 695 690 661 680 727 682 659 681 631 667 653 654 692 629 703 657 640 690 737 661 681 628 697 683 660 709 706 726 644 634 696 674 618 662 674 610 662 669 681 697 654 740 669 683 699 697 678 713 673 695 696 656 684 711 676 674 619 678 670 703 676 645 671 727 696 637 711 662 610 689 604 652 736 691 726 676 718 701 657 710 680 641 694 659 699 670 656 667 645 714 670 694 678 679 719 699 646 666 622 661 688 681 623 705 698 670 683 682 640 710 685 726 685 686 689 650 674 714 713 652 683 654 674 673 695 664 681 660 645 684 705 672 690 651 668 692 709 680 693 714 673 680 674 715 716 661 685 647 641 647 689 649 666 668 650 657 661 630 688 685 660 649 698 693 706 679 661 644 665 685 649 661 642 693 647 681 672 693 692 683 718 684 691 689 675 706 622 690 651 655 677 634 634 700 702 635 671 707 676 647 664 657 651 659 670 652 677 660 696 644 659 691 657 639 671 655 629 677 705 679 674 716 662 666 670 670 689 666 695 661 678 718 659 721 625 717 694 707 703 686 682 637 682 645 688 660 706 648 626 673 675 615 664 655 648 680 678 687 662 677 710 688 706 667 687 631 705 698 687 699 706 678 672 647 684 747 683 667 726 666 685 685 713 706 693 708 679 691 699 655 655 658 641 674 656 678 701 671 704 721 700 685 704 696 713 706 646 686 691 671 711 699 754 640 715 739 720 698 785 757 796 794 809 849 822 872 845 850 808 846 808 788 808 843 714 727 774 762 728 761 744 724 733 755 733 772 796 787 810 775 761 730 777 753 728 739 718 745 749 736 709 696 750 715 703 720 724 698 699 753 712 696 748 679 684 659 639 706 669 693 691 655 730 654 638 685 662 656 683 691 635 636 685 661 688 669 655 650 691 724 690 652 681 691 681 686 690 645 684 642 698 672 709 630 690 707 671 698 638 670 654 704 692 657 663 689 678 623 660 642 677 701 652 667 699 668 692 666 618 667 713 664 724 714 650 713 655 697 660 665 654 695 671 700 674 654 702 683 678 675 679 700 679 681 680 617 660 674 665 693 634 658 675 632 688 683 666 714 661 656 677 705 718 724 663 618 659 661 682 641 673 683 732 706 695 682 678 664 652 687 658 622 693 683 658 671 733 667 675 654 662 702 695 721 704 648 671 649 665 712 695 691 720 695 685 721 712 679 654 682 669 670 696 689 693 723 653 712 717 727 680 686 699 670 700 741 666 712 684 731 738 706 728 745 760 758 819 790 793 794 896 878 870 895 905 841 924 865 892 875 791 795 802 799 806 758 809 775 808 770 754 793 777 780 819 752 791 812 860 804 818 764 780 772 784 754 796 676 745 748 730 757 739 794 696 706 754 726 720 717 701 729 718 695 718 675 713 714 708 663 737 695 757 693 751 656 691 693 698 678 688 676 694 669 694 736 693 739 666 645 716 654 675 646 682 667 652 663 686 647 701 669 635 710 643 662 658 636 668 658 664 601 629 693 628 634 637 637 632 628 630 681 631 666 647 684 634 676 670 693 688 651 613 683 691 653 671 707 608 678 677 690 661 645 654 601 683 608 607 671 636 670 673 721 662 646 700 685 655 640 667 671 627 655 678 641 649 671 695 638 650 688 714 695 677 674 649 681 658 630 678 658 693 709 660 722 682 666 635 656 676 635 634 690 660 641 642 646 682 652 694 698 700 662 620 685 690 661 671 708 628 646 640 640 711 622 657 648 688 677 645 703 670 617 698 650 658 635 673 706 714 678 667 676 666 673 655 698 649 651 733 640 742 648 639 615 678 674 700 678 684 722 684 674 648 713 657 693 664 649 675 670 684 711 652 652 725 666 662 655 707 642 685 680 638 677 705 661 644 676 720 722 703 669 685 677 686 680 670 665 659 692 649 692 694 682 687 664 661 728 657 703 691 681 727 731 714 698 722 735 675 670 661 705 751 739 675 688 710 721 723 702 653 679 721 699 720 685 695 697 681 726 736 732 668 692 728 711 736 727 734 747 735 739 778 748 769 778 730 712 743 741 730 743 734 764 752 769 776 814 792 765 756 723 721 777 717 742 724 765 737 733 709 690 769 748 758 693 707 711 763 741 789 711 740 714 753 743 706 745 726 690 674 731 718 688 736 675 723 692 666 751 658 757 703 733 686 681 663 700 659 690 683 692 659 663 622 661 724 672 647 694 678 660 706 688 655 650 688 631 660 653 634 710 648 705 674 678 667 713 677 659 644 614 686 654 668 699 611 701 666 676 688 689 700 699 679 677 671 681 621 694 698 649 659 650 652 665 646 615 682 677 636 704 676 654 661 707 689 666 670 627 678 660 671 681 685 634 682 670 707 691 703 640 649 659 702 669 701 686 671 681 675 592 670 631 680 685 693 632 657 649 640 694 735 651 685 669 665 653 693 684 665 604 663 633 625 606 683 625 651 619 614 682 634 627 644 671 651 660 690 663 644 656 707 659 661 650 659 585 663 651 680 643 664 654 644 655 653 685 658 630 660 639 708 644 635 703 631 630 704 674 700 648 669 641 648 646 690 658 643 687 616 646 654 630 680 681 676 630 651 652 643 645 659 630 633 654 651 594 609 638 676 632 636 658 616 624 600 652 655 629 637 654 636 621 645 648 612 649 628 635 616 664 692 655 624 617 651 666 670 638 662 663 621 649 656 627 652 661 704 606 726 670 669 629 629 617 633 614 633 598 662 677 655 657 651 624 632 656 643 637 658 637 635 622 625 620 668 625 665 603 655 627 641 621 605 628 666 651 661 611 628 610 632 627 596 588 603 626 635 657 666 638 647 641 627 636 644 596 615 671 617 651 619 599 593 648 606 641 606 596 640 624 641 617 630 652 588 645 628 631 629 641 654 616 612 620 642 649 620 666 650 630 638 596 608 618 673 622 676 628 647 646 591 646 599 611 567 655 591 641 638 653 645 631 652 662 639 605 634 626 611 633 664 595 643 588 594 630 624 681 599 605 574 676 663 639 640 648 648 635 652 650 642 617 609 634 614 604 640 617 671 574 636 641 673 629 593 616 609 598 614 583 601 589 622 642 642 589 622 624 603 639 621 601 640 630 645 626 628 626 620 633 663 620 606 634 613 615 596 627 594 615 603 644 621 649 596 650 598 644 581 672 619 633 588 647 577 620 671 575 703 614 634 606 669 631 623 661 606 639 622 623 610 581 616 674 590 629 625 633 614 623 598 580 629 643 595 600 633 596 641 658 608 615 615 601 605 610 605 603 659 601 589 605 629 686 637 633 645 674 598 630 658 645 628 624 646 658 666 619 679 629 645 643 674 617 636 689 656 601 626 651 654 655 598 618 618 605 629 641 672 633 612 656 638 612 620 667 655 657 642 689 664 656 684 665 659 640 626 643 649 700 692 706 767 710 715 711 749 764 759 734 767 722 755 785 742 730 761 736 693 650 705 700 708 689 686 610 619 668 657 691 689 686 660 648 666 695 703 667 671 721 698 713 663 658 711 615 706 630 661 646 646 691 679 680 656 641 617 641 674 670 665 659 631 639 709 669 648 660 621 667 610 677 683 640 649 644 648 600 609 674 644 661 625 652 642 665 615 620 639 675 658 637 642 631 667 609 641 602 625 623 651 672 603 611 632 626 625 628 583 705 624 638 649 680 601 618 640 591 605 604 632 668 593 682 603 627 611 625 616 633 645 623 591 651 658 634 602 625 607 621 632 592 618 666 630 626 634 619 662 634 646 600 608 648 603 626 640 648 657 618 624 663 627 614 589 617 645 648 583 615 633 625 616 675 626 636 631 621 607 628 568 675 660 629 638 613 611 602 610 641 638 608 602 591 613 644 644 597 583 642 652 645 606 604 600 572 595 607 580 590 632 588 617 651 616 633 627 614 654 594 611 632 622 588 608 587 676 640 596 648 575 672 610 633 631 609 606 624 620 633 617 630 656 602 590 632 610 681 662 617 605 614 648 671 656 632 591 610 626 633 617 588 609 618 599 624 613 621 608 652 653 655 593 646 590 637 649 607 592 648 615 656 677 685 620 636 596 608 658 633 611 583 643 665 617 592 603 605 648 595 606 633 666 599 652 641 617 599 612 651 633 624 640 618 612 625 633 649 632 666 609 626 634 613 634 634 548 620 613 620 578 669 664 617 609 644 625 634 631 639 587 642 629 634 669 630 649 639 603 642 672 582 566 650 633 634 592 666 644 614 632 621 654 639 626 627 617 572 688 598 594 610 603 635 622 629 591 686 632 659 610 645 647 594 598 641 647 620 624 625 676 605 637 627 654 613 586 668 579 591 649 618 595 637 609 594 588 617 575 609 591 623 623 652 665 664 612 624 564 591 632 617 613 631 621 621 639 616 608 610 610 572 580 647 584 587 589 601 626 617 661 625 676 603 546 627 600 650 651 613 633 636 617 588 611 634 620 613 591 572 653 636 613 638 566 608 608 609 620 620 630 662 634 615 613 582 635 646 574 587 601 648 614 615 604 622 633 634 608 645 649 604 652 586 651 622 633 603 663 628 589 664 639 630 629 588 685 616 644 613 657 648 651 659 609 650 643 584 646 641 644 628 627 619 650</counts>
			</dataPoints>
		</scan>
	</xrdMeasurement>
</xrdMeasurements>
