<?xml version="1.0"?>
<xrdMeasurements xmlns="http://www.xrdml.com/XRDMeasurement/2.3" xmlns:xsi="http://www.w3.org/2001/XMLSchema-instance" xsi:schemaLocation="http://www.xrdml.com/XRDMeasurement/2.3 http://www.xrdml.com/XRDMeasurement/2.3/XRDMeasurement.xsd" status="Completed" recordIdentifier="{5F5EF9FF-AE9F-4A90-9EB7-7E606F254325}">
	<comment>
		<entry/>
	</comment>
	<sample type="To be analyzed">
		<id>GPSS_Li1p5Mn0p5Sc0p5Cl4_111825_691cd5d8f3837ac4a0a99fdc</id>
		<name></name>
		<preparedBy></preparedBy>
	</sample>
	<xrdMeasurement measurementType="Scan" status="Completed" sampleMode="Reflection">
		<usedWavelength intended="K-Alpha 1">
			<kAlpha1 unit="Angstrom">1.5405980</kAlpha1>
			<kAlpha2 unit="Angstrom">1.5444260</kAlpha2>
			<kBeta unit="Angstrom">1.3922500</kBeta>
			<ratioKAlpha2KAlpha1>0.5000</ratioKAlpha2KAlpha1>
		</usedWavelength>
		<incidentBeamPath>
			<radius unit="mm">145.00</radius>
			<xRayTube id="1010048" name="Empyrean Cu LFF HR (9430 033 7310x)">
				<tension unit="kV">40.0</tension>
				<current unit="mA">15.0</current>
				<anodeMaterial>Cu</anodeMaterial>
				<focus type="Line">
					<length unit="mm">12.0</length>
					<width unit="mm">0.4</width>
					<takeOffAngle unit="deg">6.0</takeOffAngle>
				</focus>
			</xRayTube>
			<sollerSlit id="21010002" name="Soller slits 0.04 rad.">
				<opening unit="rad">0.0400</opening>
			</sollerSlit>
			<mask id="22031000" name="Fixed mask 13 mm">
				<width unit="mm">9.00</width>
			</mask>
			<divergenceSlit id="22120001" name="Divergence slit 1°" xsi:type="fixedDivergenceSlitType">
				<distanceToSample unit="mm">50.00</distanceToSample>
				<height unit="mm">1.52</height>
			</divergenceSlit>
		</incidentBeamPath>
		<sampleMovement xsi:type="spinningSampleMovementType">
			<spinnerRevolutionTime unit="seconds">1.0</spinnerRevolutionTime>
		</sampleMovement>
		<diffractedBeamPath>
			<radius unit="mm">145.00</radius>
			<antiScatterSlit id="22090040" name="AS slit 9 mm (PIXcel)" xsi:type="fixedAntiScatterSlitType">
				<height unit="mm">9.00</height>
			</antiScatterSlit>
			<sollerSlit id="21020003" name="Large Soller slits 0.04 rad.">
				<opening unit="rad">0.0400</opening>
			</sollerSlit>
			<filter id="20030001" name="Large beta-filter Nickel">
				<material>Ni</material>
				<thickness unit="mm">0.020</thickness>
			</filter>
			<detector id="7010019" name="PIXcel1D-Medipix3 detector" xsi:type="rtmsDetectorType">
				<phd unit="keV">
					<lowerLevel>4.02</lowerLevel>
					<upperLevel>11.27</upperLevel>
				</phd>
				<mode>Scanning</mode>
				<activeLength unit="deg">5.542</activeLength>
			</detector>
		</diffractedBeamPath>
		<scan appendNumber="0" mode="Continuous" scanAxis="Gonio" status="Completed">
			<header>
				<startTimeStamp>2025-11-23T16:41:57-08:00</startTimeStamp>
				<endTimeStamp>2025-11-23T16:50:05-08:00</endTimeStamp>
				<author>
					<name>AutomatedUser</name>
				</author>
				<source>
					<applicationSoftware version="1.7b (136)">PANalytical Aeris Instrument Suite</applicationSoftware>
					<instrumentControlSoftware version="3.2.00000000 20240306">AERIS</instrumentControlSoftware>
					<instrumentID>950485</instrumentID>
				</source>
			</header>
			<dataPoints>
				<positions axis="2Theta" unit="deg">
					<startPosition>10.00943322</startPosition>
					<endPosition>99.99442286</endPosition>
				</positions>
				<positions axis="Omega" unit="deg">
					<startPosition>5.00471661</startPosition>
					<endPosition>49.99721143</endPosition>
				</positions>
				<commonCountingTime unit="seconds">12.495</commonCountingTime>
				<counts unit="counts">3003 3000 2894 2959 2966 2993 2984 3022 2981 2988 2848 3008 2940 3094 3016 2916 3046 3044 2986 3004 2998 2999 3074 2925 3082 3164 3092 3046 3188 3096 3035 3047 3000 3058 2974 3088 3116 3177 3113 3089 3144 3148 3121 3110 3103 3211 3192 3210 3245 3160 3085 3221 3251 3192 3242 3243 3142 3180 3162 3236 3209 3178 3235 3155 3265 3270 3219 3219 3219 3170 3172 3205 3306 3262 3203 3098 3322 3215 3248 3188 3144 3196 3216 3247 3164 3219 3159 3260 3316 3163 3225 3254 3280 3284 3269 3122 3207 3344 3149 3310 3245 3232 3280 3194 3242 3237 3200 3367 3248 3307 3240 3273 3211 3283 3312 3350 3182 3256 3195 3237 3222 3332 3189 3297 3293 3261 3325 3277 3215 3310 3371 3283 3260 3175 3330 3323 3309 3347 3265 3344 3267 3309 3394 3336 3421 3332 3342 3328 3282 3244 3237 3374 3226 3389 3290 3429 3229 3235 3326 3374 3365 3400 3363 3294 3308 3413 3365 3347 3338 3235 3148 3382 3346 3382 3320 3399 3301 3210 3331 3383 3331 3302 3242 3262 3384 3303 3195 3142 3344 3453 3286 3168 3313 3369 3350 3337 3313 3387 3447 3263 3244 3236 3282 3351 3290 3280 3276 3326 3326 3271 3320 3347 3305 3242 3346 3222 3343 3226 3313 3368 3254 3302 3235 3259 3258 3194 3238 3292 3177 3281 3301 3257 3210 3301 3256 3177 3234 3289 3143 3268 3259 3219 3168 3285 3254 3373 3211 3282 3346 3218 3250 3235 3236 3291 3158 3165 3276 3199 3271 3247 3252 3099 3283 3246 3276 3172 3242 3216 3232 3245 3294 3283 3252 3308 3247 3208 3193 3346 3235 3196 3350 3185 3300 3280 3320 3298 3383 3314 3218 3298 3184 3325 3317 3270 3215 3256 3306 3271 3274 3261 3276 3306 3213 3282 3305 3246 3248 3288 3350 3209 3356 3344 3358 3337 3231 3300 3346 3220 3274 3397 3301 3287 3291 3322 3279 3346 3318 3230 3403 3439 3349 3463 3414 3323 3395 3518 3353 3365 3506 3421 3383 3358 3471 3499 3440 3407 3434 3471 3407 3468 3372 3459 3296 3523 3546 3478 3459 3605 3454 3454 3535 3514 3501 3438 3603 3535 3476 3494 3461 3349 3453 3561 3558 3483 3503 3693 3532 3583 3497 3556 3487 3499 3671 3682 3644 3626 3705 3667 3701 3707 3715 3748 3675 3703 3674 3694 3797 3789 3894 3778 3775 3799 3978 3961 3895 3896 4037 4020 3990 4096 4088 4079 4183 4317 4341 4400 4600 4653 4806 4850 5070 5163 5303 5518 5779 5997 6110 6284 6509 6638 6702 6548 6589 6422 6385 6253 6033 5993 6011 5749 5567 5605 5504 5322 5199 5075 5017 4975 4829 4821 4672 4560 4408 4392 4182 4285 4182 4122 4051 3839 3970 3840 3870 3804 3845 3775 3701 3756 3791 3724 3658 3624 3725 3721 3612 3506 3556 3525 3602 3442 3495 3475 3552 3419 3424 3482 3451 3457 3514 3447 3430 3386 3470 3474 3406 3387 3388 3408 3271 3256 3323 3351 3362 3328 3288 3359 3252 3342 3358 3355 3358 3339 3346 3282 3208 3243 3297 3391 3237 3342 3398 3204 3233 3192 3344 3320 3306 3296 3355 3410 3340 3253 3254 3311 3315 3320 3306 3277 3290 3279 3269 3259 3338 3360 3264 3374 3303 3313 3200 3303 3254 3224 3273 3285 3189 3247 3153 3206 3188 3187 3153 3145 3228 3162 3108 3109 3011 3155 3025 3230 3035 3158 3017 3098 3092 2969 3016 3079 3147 2992 3132 3101 3142 3104 3045 3049 2958 3004 3081 2968 3013 2997 3018 3044 3038 3111 3038 2945 2937 2964 3025 2983 3008 3018 2967 3039 3030 3072 3053 3101 3031 2884 3091 3008 2976 2998 2900 3034 2907 2915 3042 3005 2915 2993 3050 3002 2963 2928 2940 2958 2993 3047 3127 3038 3107 3012 2905 2896 2969 3010 2952 2951 2976 2974 3112 2956 3021 2934 2929 2998 3078 2928 2926 2848 2924 2878 2883 2903 3028 2916 2951 2883 2951 2943 2873 2888 2902 2863 2965 2836 2917 2989 2961 2922 2904 2803 2910 2870 2838 2870 2908 2910 2926 2992 2844 2938 2935 2950 2858 2951 2894 2903 2787 2889 2875 2980 2852 2941 2797 2861 2883 2960 2858 2922 2962 2965 2896 2928 2963 2956 2909 2828 2883 2867 2928 2904 2992 2905 3033 2934 2976 2988 3057 2902 2943 2969 2976 2952 2888 2991 2944 2957 2964 2926 2719 2825 2867 2856 2899 2829 2858 2841 2709 2812 2885 2730 2951 2862 2860 2806 2766 2767 2869 2889 2891 2818 2932 2752 2903 2824 2769 2900 2713 2885 2798 2854 2826 2811 2782 2791 2813 2823 2717 2760 2820 2777 2713 2847 2819 2762 2845 2669 2798 2715 2856 2791 2786 2755 2695 2765 2752 2866 2777 2724 2864 2774 2720 2814 2845 2735 2710 2782 2739 2711 2730 2693 2745 2890 2710 2728 2703 2734 2767 2684 2788 2870 2798 2788 2766 2760 2745 2758 2723 2706 2697 2806 2775 2875 2613 2682 2704 2797 2636 2751 2700 2684 2805 2648 2780 2692 2631 2798 2759 2717 2723 2651 2722 2701 2748 2671 2551 2742 2714 2721 2616 2664 2798 2676 2639 2732 2650 2643 2643 2707 2694 2712 2672 2628 2717 2627 2729 2723 2663 2600 2610 2616 2614 2588 2682 2569 2573 2714 2600 2591 2504 2559 2534 2704 2706 2648 2650 2618 2662 2585 2643 2634 2642 2655 2646 2657 2607 2602 2670 2587 2678 2726 2643 2656 2605 2642 2593 2631 2663 2604 2707 2589 2674 2627 2709 2636 2649 2652 2719 2615 2663 2656 2692 2670 2515 2645 2763 2604 2623 2653 2670 2623 2558 2565 2623 2606 2576 2607 2571 2648 2568 2644 2593 2621 2600 2546 2584 2547 2584 2559 2634 2576 2603 2598 2628 2548 2514 2623 2559 2478 2501 2554 2519 2509 2474 2576 2589 2555 2570 2570 2583 2569 2547 2533 2578 2572 2521 2533 2541 2534 2541 2580 2564 2634 2552 2520 2560 2506 2641 2510 2549 2589 2568 2497 2575 2570 2622 2518 2462 2571 2578 2549 2538 2558 2530 2536 2487 2533 2586 2577 2604 2597 2587 2606 2572 2600 2592 2537 2564 2505 2472 2579 2495 2502 2528 2603 2510 2543 2589 2567 2570 2504 2526 2492 2524 2544 2565 2516 2537 2639 2603 2539 2546 2526 2483 2596 2441 2562 2533 2459 2697 2621 2530 2548 2468 2531 2612 2529 2418 2440 2511 2527 2588 2482 2524 2539 2531 2577 2559 2490 2570 2522 2586 2445 2532 2560 2553 2550 2578 2606 2469 2537 2499 2524 2559 2513 2541 2563 2460 2578 2418 2568 2465 2493 2497 2559 2537 2418 2511 2487 2445 2530 2410 2451 2448 2391 2450 2545 2495 2463 2501 2376 2418 2469 2431 2324 2400 2412 2455 2413 2342 2416 2502 2527 2321 2392 2359 2413 2457 2433 2441 2367 2388 2410 2355 2403 2294 2317 2369 2376 2361 2361 2367 2279 2422 2326 2397 2324 2338 2259 2341 2355 2403 2293 2362 2221 2286 2293 2321 2197 2281 2257 2351 2289 2264 2256 2346 2261 2267 2244 2287 2327 2161 2173 2242 2244 2255 2204 2141 2252 2188 2195 2183 2202 2238 2244 2183 2254 2119 2078 2076 2145 2197 2139 2133 2150 2168 2043 2210 2101 2144 2173 2099 2122 2138 2137 2139 2039 2122 2115 2057 2119 2150 2178 2122 2009 2128 2067 2114 2076 2099 2009 2072 1975 2121 1951 2106 2070 2022 2040 2087 2012 2075 1972 2021 2048 2046 2016 2038 2053 1939 2052 2012 1956 2058 2014 2085 1965 2070 1955 2022 1951 1976 1923 1956 1957 1996 1997 1965 1925 2001 2019 1958 1848 1992 1925 1964 1926 1917 1928 1934 1881 1914 1909 1881 1856 1958 1954 1872 1945 1837 1910 1905 1918 1814 1867 1922 1951 1811 1822 1803 1922 1834 1924 1811 1837 1854 1907 1771 1845 1843 1985 1865 1901 1898 1853 1915 1937 1805 1841 1783 1792 1753 1873 1837 1821 1853 1831 1881 1849 1816 1825 1838 1858 1781 1889 1929 1796 1814 1855 1871 1796 1961 1763 1919 1856 1807 1713 1819 1899 1814 1847 1779 1834 1857 1785 1824 1804 1756 1818 1849 1799 1822 1834 1862 1896 1860 1781 1872 1757 1773 1812 1908 1831 1794 1846 1800 1849 1868 1837 1825 1860 1855 1824 1800 1853 1804 1823 1762 1794 1762 1899 1801 1801 1827 1775 1856 1803 1820 1752 1847 1872 1744 1881 1858 1837 1821 1853 1813 1785 1846 1864 1812 1824 1813 1846 1802 1797 1796 1917 1831 1844 1754 1805 1766 1786 1776 1715 1896 1861 1819 1738 1786 1803 1774 1815 1742 1779 1785 1853 1803 1839 1858 1820 1801 1866 1837 1860 1885 1756 1823 1801 1749 1837 1834 1803 1866 1792 1798 1803 1841 1827 1909 1797 1772 1809 1837 1760 1845 1848 1811 1838 1801 1859 1810 1804 1752 1824 1767 1800 1774 1771 1771 1792 1759 1719 1796 1725 1768 1734 1773 1793 1785 1777 1758 1690 1833 1785 1740 1742 1708 1671 1769 1699 1778 1686 1657 1755 1638 1760 1752 1693 1702 1776 1699 1741 1744 1773 1768 1688 1691 1732 1680 1798 1706 1691 1731 1724 1735 1712 1720 1714 1755 1653 1641 1697 1693 1650 1669 1674 1657 1619 1577 1582 1658 1663 1658 1652 1645 1636 1640 1612 1632 1596 1638 1576 1649 1599 1644 1588 1601 1533 1638 1676 1539 1680 1625 1568 1622 1619 1591 1547 1557 1570 1576 1578 1510 1600 1640 1523 1589 1579 1569 1535 1503 1575 1496 1508 1545 1529 1548 1546 1492 1512 1567 1608 1552 1635 1554 1578 1435 1591 1517 1508 1437 1521 1543 1523 1510 1454 1473 1425 1546 1457 1469 1474 1529 1474 1560 1481 1451 1501 1497 1522 1521 1523 1445 1466 1444 1451 1490 1465 1498 1461 1441 1478 1453 1429 1503 1472 1448 1449 1480 1488 1390 1469 1464 1446 1489 1401 1459 1443 1505 1498 1383 1395 1448 1472 1480 1485 1496 1488 1460 1433 1536 1507 1442 1500 1623 1672 1672 1687 1676 1693 1828 1907 1958 2003 2046 2155 2099 2103 2171 2121 2104 2027 1963 1879 1928 1904 1874 1779 1675 1535 1620 1622 1529 1603 1483 1506 1463 1491 1409 1415 1424 1462 1396 1504 1374 1402 1373 1391 1374 1373 1442 1347 1363 1404 1322 1376 1312 1355 1360 1311 1340 1337 1334 1291 1359 1397 1293 1282 1330 1269 1295 1250 1332 1316 1316 1233 1281 1352 1291 1266 1319 1316 1276 1259 1352 1250 1273 1275 1303 1323 1272 1239 1315 1286 1334 1316 1288 1316 1358 1306 1341 1295 1342 1388 1340 1355 1306 1438 1362 1398 1401 1489 1444 1446 1474 1531 1557 1623 1598 1683 1696 1735 1768 1867 2051 2094 2164 2362 2597 2783 2843 3349 3452 3530 3906 3816 3896 3947 4024 3927 4016 3846 3824 3599 3574 3473 3492 3381 3430 3297 3392 3320 3275 3232 3242 3233 3154 2997 2938 2844 2807 2714 2583 2430 2395 2258 2186 2065 2019 1906 1830 1795 1768 1678 1587 1615 1598 1507 1472 1401 1440 1412 1328 1351 1343 1280 1257 1352 1284 1280 1252 1198 1183 1200 1234 1131 1151 1191 1179 1106 1175 1164 1134 1149 1108 1145 1185 1107 1135 1115 1189 1147 1153 1167 1200 1100 1087 1170 1071 1103 1111 1068 1116 1121 1083 1111 1144 1061 1139 1092 1095 1135 1094 1128 1111 1114 1114 1158 1129 1102 1098 1191 1136 1101 1051 1065 1042 1068 1098 1048 1084 1084 1026 1106 1057 1109 1102 1080 1105 1094 1116 1017 1076 1006 1102 1064 1077 1008 1071 1044 1090 1029 1073 1045 1037 1050 1047 1033 1080 1041 1087 1036 1137 984 1078 1059 1059 1085 1032 1028 1037 1045 1026 993 1006 1046 1062 993 996 1063 1038 1039 1062 1051 1067 1059 1076 1006 1018 1103 1056 1026 985 1013 1040 1008 971 942 1040 1100 972 1040 1016 1031 1000 1094 1022 1045 1005 1078 1044 1015 1032 1023 968 973 1076 1036 1032 1085 1050 983 1029 1046 1004 1023 1017 957 966 1022 1045 975 1054 925 988 1049 1039 995 1018 995 1010 1029 1112 1007 1011 992 997 987 964 988 1015 972 984 988 998 1033 1012 1027 1011 1006 1017 962 974 972 1034 964 984 1001 1062 981 985 1048 958 960 1013 1004 1034 964 1024 976 975 1017 958 1004 993 957 1016 992 1022 968 958 1007 919 923 998 1014 971 943 958 961 968 991 907 990 1000 945 975 919 1023 960 983 958 934 972 934 990 963 977 974 966 976 961 957 935 915 944 982 911 1023 978 925 970 957 975 981 967 1028 965 990 1026 901 992 934 975 953 998 1037 1009 1012 991 1029 967 1020 1001 997 970 988 970 970 1055 1051 1062 1056 986 991 986 1070 1009 1047 1025 965 1056 1051 1013 1047 1038 1014 1054 953 926 969 1011 1053 1072 1040 1039 1064 1041 1006 1003 1092 1034 1084 1064 1020 1046 1079 1031 1053 1093 1113 1092 1081 1099 1112 1124 1087 1109 1134 1082 1136 1138 1166 1138 1149 1185 1175 1164 1174 1222 1250 1261 1316 1357 1347 1494 1460 1591 1556 1578 1628 1753 1778 1896 1947 2041 2223 2338 2411 2521 2764 2934 3314 3512 3902 4279 4779 5211 5791 6404 6907 7312 7854 7823 7964 8011 8006 8033 8047 7799 7478 7178 6768 6236 5925 5457 5064 4621 4281 3997 3750 3418 3044 2919 2718 2454 2307 2122 1916 1883 1807 1719 1630 1548 1459 1413 1359 1311 1317 1209 1214 1211 1165 1157 1148 1096 1174 1094 1072 1073 1010 1062 1016 1008 1050 970 1029 956 972 980 993 962 960 965 921 998 911 915 983 931 915 933 930 931 905 903 947 858 914 955 888 939 961 899 908 919 963 919 934 866 933 877 916 848 919 880 898 863 937 895 890 931 896 876 895 915 912 927 927 889 909 933 893 914 882 902 890 826 967 896 865 861 880 894 870 893 866 917 907 920 877 909 900 905 900 902 828 861 836 923 827 837 873 921 886 863 872 915 886 869 828 865 863 820 873 798 883 872 856 946 832 849 882 832 829 880 882 852 844 846 875 878 882 848 939 881 850 821 873 877 897 804 859 887 867 810 924 860 817 851 853 828 820 883 840 858 848 856 829 850 792 890 831 856 833 802 827 818 829 872 831 843 851 843 802 842 870 802 780 812 855 835 837 849 856 811 866 862 854 833 857 847 768 794 825 810 832 772 846 771 845 859 844 824 819 837 830 825 864 835 794 815 834 890 798 870 854 826 816 822 824 841 852 803 790 814 825 785 809 857 779 835 789 840 815 786 834 826 817 811 780 819 760 802 747 831 844 847 806 823 797 863 810 896 848 849 817 899 919 862 881 801 898 899 900 844 857 806 865 839 867 859 781 849 846 827 819 827 804 807 782 781 826 753 806 773 743 796 778 759 808 801 723 790 819 784 829 782 809 728 727 750 774 753 732 819 750 767 762 779 711 773 774 727 785 757 710 814 784 743 746 786 787 753 703 784 779 709 711 790 745 751 800 738 750 819 719 732 736 752 735 752 756 796 768 722 770 742 735 718 737 753 748 728 783 785 793 755 732 682 724 708 713 726 724 724 721 709 803 763 710 784 767 763 751 714 674 734 772 750 720 714 784 825 735 766 726 765 788 721 733 776 718 686 736 711 698 777 705 680 764 731 780 748 739 740 719 783 708 760 724 684 730 747 750 737 750 742 772 736 729 735 702 722 707 741 718 701 728 691 739 751 743 757 723 708 741 734 743 727 741 744 708 691 695 690 720 685 760 694 712 716 718 716 706 721 681 736 688 766 668 735 757 742 746 721 716 688 695 716 700 717 685 698 713 706 734 703 700 714 708 732 717 722 752 710 812 764 765 733 721 707 721 747 758 740 705 698 708 715 734 706 663 731 730 711 708 743 728 716 695 647 760 698 724 722 724 697 684 721 726 745 690 710 688 704 668 691 680 699 692 726 665 737 691 679 706 696 743 676 697 684 687 649 721 668 692 699 758 740 693 688 728 727 713 711 685 710 704 653 652 745 719 697 698 725 728 644 747 666 692 698 683 694 715 714 658 644 686 728 676 674 709 638 680 771 682 720 676 673 704 745 730 686 702 731 753 672 680 717 673 668 687 757 718 700 690 650 737 698 684 699 736 686 754 670 632 699 681 689 664 709 672 651 749 669 659 655 679 650 754 700 667 718 708 652 644 682 641 713 709 674 636 709 686 678 749 730 623 609 711 711 685 690 723 675 690 718 712 697 670 705 686 660 760 660 638 677 683 655 724 679 724 646 683 705 699 682 691 713 658 672 662 720 644 670 701 663 684 714 682 696 664 683 667 636 692 699 661 653 685 658 638 656 670 690 636 640 704 654 634 681 669 693 683 657 731 675 709 710 691 670 690 718 662 685 651 684 700 669 655 730 713 691 685 712 691 681 694 689 665 707 690 703 764 680 660 681 668 742 703 692 724 721 683 701 705 718 708 706 667 709 652 637 708 703 666 682 694 676 664 700 712 743 671 700 687 711 740 706 676 655 671 696 684 655 668 653 738 718 674 710 640 696 666 637 680 666 679 653 647 629 697 678 688 681 655 665 665 664 640 667 643 674 661 673 701 694 619 659 682 684 625 650 736 706 653 680 665 640 671 614 700 686 691 685 636 701 664 633 668 676 650 648 713 666 632 672 627 669 673 673 646 661 706 661 679 673 614 666 600 670 656 642 615 623 664 693 651 653 654 626 659 636 673 632 678 587 644 629 654 668 649 656 712 632 672 654 667 715 641 650 658 640 652 710 637 616 658 666 643 615 665 709 659 684 690 682 656 687 713 654 712 664 649 747 703 667 682 652 662 665 709 701 730 750 664 744 687 720 690 704 654 691 729 747 738 732 801 715 719 759 774 786 736 772 773 756 781 775 780 796 864 879 872 872 941 926 964 1015 1011 1092 1004 1092 1073 1057 993 1018 1030 984 997 994 1009 995 1047 980 958 935 882 886 874 907 784 786 811 797 743 753 748 753 765 780 720 756 725 697 694 666 679 698 662 685 717 643 662 676 701 622 678 686 674 662 641 646 628 628 684 663 675 664 646 680 615 663 671 657 684 653 701 659 675 695 615 628 667 664 639 664 646 664 651 679 604 695 666 627 670 646 612 616 658 683 639 606 635 606 642 630 635 627 662 626 640 612 663 685 614 622 643 645 612 580 620 684 623 631 680 669 669 684 670 656 645 703 662 643 691 654 626 637 642 669 692 656 635 689 639 636 627 650 613 657 608 656 619 625 675 605 611 646 652 612 647 657 665 618 622 613 624 664 646 595 600 601 587 601 641 640 662 623 638 585 643 583 619 640 660 608 561 647 607 600 610 606 635 631 634 608 590 672 547 652 602 623 623 619 632 623 671 608 636 645 597 649 650 617 647 630 609 659 644 635 591 673 629 632 668 633 646 641 581 616 640 654 613 634 584 648 608 592 647 611 633 638 617 633 628 662 612 586 658 637 623 607 617 622 594 624 623 645 615 656 638 636 632 656 620 603 649 657 578 646 603 606 640 610 654 675 607 633 611 627 615 662 614 629 630 647 659 596 637 657 618 669 637 622 615 626 590 614 598 629 630 637 589 614 607 664 658 619 602 625 665 620 647 646 605 637 665 661 630 649 625 679 657 614 624 696 659 652 684 652 678 669 683 611 684 677 653 722 669 728 661 719 683 689 756 674 733 726 669 766 748 794 738 804 813 743 767 790 823 858 841 837 859 898 921 959 1021 1062 1102 1112 1225 1218 1231 1327 1442 1639 1700 1926 2179 2289 2531 2590 2830 2645 2632 2637 2632 2497 2410 2327 2349 2365 2434 2405 2356 2389 2366 2354 2471 2371 2384 2424 2365 2266 2385 2263 2296 2213 2189 2119 2078 1998 2060 1956 1943 1873 1852 1740 1811 1619 1608 1493 1447 1393 1228 1306 1193 1148 1215 1052 1009 1026 1015 965 931 913 795 864 836 812 834 845 790 717 778 734 734 765 752 774 673 691 670 678 718 691 719 709 697 665 675 661 675 633 685 678 636 646 634 621 634 649 647 595 621 683 609 638 633 630 604 614 633 580 617 613 681 638 647 602 613 668 565 618 622 611 605 601 632 626 616 581 636 600 615 574 633 583 632 617 601 611 558 557 607 662 654 567 605 618 571 540 600 572 631 595 614 559 519 621 572 588 594 609 597 647 580 597 561 649 599 653 589 584 602 604 574 610 610 591 627 617 600 610 574 596 601 559 577 650 596 577 615 591 576 607 593 612 600 599 561 580 611 575 558 589 622 575 599 615 557 613 583 624 627 593 612 603 625 637 627 616 632 629 638 610 690 630 669 646 701 743 774 795 768 798 867 893 926 883 892 872 783 824 773 822 771 837 792 782 764 747 782 771 736 706 705 725 648 664 643 635 622 639 621 601 604 614 626 525 570 593 559 544 568 579 531 520 620 560 598 584 558 557 604 563 570 564 580 555 533 562 596 565 513 577 524 529 577 543 609 554 577 551 591 528 537 580 567 586 570 572 569 532 564 536 570 539 583 595 552 549 544 543 577 534 572 627 561 566 549 541 534 566 557 568 597 561 565 524 566 520 486 515 543 583 496 555 574 594 533 519 528 574 556 551 561 559 566 555 545 526 560 553 548 597 534 601 530 571 532 532 563 545 543 549 491 591 513 551 551 563 552 512 557 528 542 531 559 545 556 510 523 564 550 529 527 518 544 503 572 541 533 491 542 466 551 562 588 514 527 502 555 571 560 536 532 574 523 512 545 501 515 538 573 560 537 554 528 552 509 543 536 547 553 593 572 570 536 589 558 520 528 509 519 498 565 564 524 543 499 527 557 500 542 548 542 564 540 482 523 528 522 485 541 495 518 570 546 530 540 484 561 535 516 528 540 476 541 553 560 495 523 534 531 541 500 492 517 530 517 515 539 577 556 497 501 489 528 493 529 490 546 541 536 530 580 539 568 508 500 505 506 512 561 509 517 524 515 530 508 507 526 497 547 550 505 514 548 513 526 526 517 529 535 526 515 493 486 507 507 524 543 470 501 510 527 517 510 521 521 541 495 541 509 520 514 556 530 534 495 540 484 519 493 504 471 521 524 586 508 515 535 507 516 548 545 515 496 570 498 558 602 563 511 538 515 495 471 525 518 520 496 526 516 506 523 488 523 538 532 551 477 551 537 483 525 515 530 490 514 522 562 478 526 504 525 505 464 540 473 502 501 515 489 479 544 496 497 522 501 509 452 527 514 522 531 517 546 484 517 545 476 499 491 500 500 505 513 474 497 506 510 515 488 510 518 552 487 497 512 570 496 516 497 473 510 523 507 491 491 484 476 504 482 496 547 548 480 508 519 517 516 505 524 500 526 489 512 481 509 513 520 525 487 493 527 512 501 505 502 516 546 523 488 519 518 481 486 516 473 521 514 529 530 529 526 507 497 507 535 516 492 506 511 497 499 503 508 488 488 505 513 509 468 509 459 480 523 491 495 488 512 474 485 501 485 490 553 532 478 535 498 482 530 512 525 479 532 460 524 524 495 503 459 515 522 501 487 505 491 487 503 521 538 495 535 530 532 485 462 538 508 513 507 482 505 546 529 542 495 552 566 554 551 569 564 567 569 561 570 554 542 569 576 552 491 561 533 540 578 536 533 536 540 524 529 534 501 519 563 557 530 554 547 530 525 538 506 523 518 521 529 518 493 514 497 515 545 515 573 498 603 560 568 545 609 582 539 554 561 584 580 580 559 588 617 576 662 623 645 689 660 741 710 758 720 767 734 797 783 789 777 827 798 862 891 831 868 819 851 822 790 814 742 752 733 819 806 824 715 723 748 744 737 780 736 692 649 650 696 610 649 619 696 636 616 614 648 672 639 593 565 576 552 588 561 546 549 522 542 551 530 567 546 540 557 507 509 517 551 521 535 491 554 528 508 546 520 459 499 481 493 503 513 491 484 532 512 488 517 516 493 501 495 502 510 519 543 528 483 451 525 545 503 501 516 520 484 466 501 515 472 473 522 484 522 484 512 498 510 488 483 480 475 486 499 497 496 518 488 493 521 524 490 488 495 460 498 502 481 487 496 506 464 504 448 492 479 486 518 490 500 489 468 430 514 460 493 458 475 489 475 492 485 514 496 477 502 478 445 499 498 480 498 482 505 502 526 523 496 451 454 498 428 503 479 493 509 474 482 513 495 489 504 495 494 497 481 479 502 470 488 434 464 444 461 477 435 469 495 496 476 500 478 492 517 481 499 484 499 495 506 552 544 533 492 516 563 559 546 497 511 519 514 526 528 505 521 547 561 543 534 556 595 560 560 569 596 595 592 539 576 626 596 570 648 608 625 668 640 682 691 698 684 771 781 822 826 926 957 1037 1053 1075 1089 1081 1034 1032 967 914 940 940 897 829 883 862 911 878 880 898 865 862 750 841 835 744 734 693 727 669 697 683 685 688 689 748 680 679 703 662 709 691 674 665 719 666 721 677 638 639 707 681 658 704 670 683 627 679 601 634 655 670 638 642 613 626 599 605 559 578 587 611 546 567 556 556 556 586 547 581 517 507 506 526 518 535 541 500 486 512 480 479 479 490 524 504 499 508 511 534 491 494 441 486 491 519 511 493 478 560 493 491 480 534 462 490 467 495 468 490 481 472 523 472 507 451 451 481 498 438 504 466 491 508 524 477 481 460 471 479 474 482 478 486 464 466 482 455 484 435 500 493 500 485 485 457 474 488 486 500 484 502 486 463 475 405 436 440 455 483 466 455 500 488 467 461 479 488 471 490 490 487 498 485 439 489 466 518 504 499 528 481 516 517 439 496 459 491 554 439 536 503 505 488 507 531 462 514 450 511 512 515 460 490 475 511 524 492 542 522 553 528 506 525 561 544 510 567 569 560 574 533 555 518 583 496 554 570 574 590 542 535 531 534 518 515 526 531 519 514 497 568 550 514 507 501 514 476 512 477 521 487 465 496 479 502 456 489 417 516 450 486 474 453 475 447 481 436 479 471 491 473 464 423 438 458 472 443 425 447 470 463 469 452 472 454 424 446 447 475 455 444 455 502 501 488 501 448 427 456 447 411 455 447 451 441 436 457 480 426 440 463 449 472 454 434 469 396 463 412 467 415 462 454 448 431 453 411 412 429 435 419 456 451 430 438 444 433 436 469 454 464 452 454 424 411 442 453 458 433 420 419 459 458 453 419 388 457 395 436 460 445 491 443 465 407 426 438 426 437 420 455 418 423 420 461 441 457 463 428 446 456 431 468 438 444 429 423 419 473 414 480 444 498 432 450 435 474 419 428 472 400 434 436 405 416 419 435 405 426 392 389 430 445 404 481 470 435 434 409 429 421 450 429 465 453 402 453 433 409 390 429 411 460 413 455 396 462 403 448 425 450 454 408 434 419 459 440 420 427 446 458 398 427 404 402 469 404 452 452 415 440 423 415 417 432 442 413 453 417 409 459 424 441 413 394 432 428 417 405 429 414 460 472 452 425 452 432 422 419 443 425 417 411 458 428 415 420 451 422 468 414 412 446 454 465 428 405 470 423 448 437 425 427 456 457 478 416 444 419 417 417 410 404 461 451 477 449 420 409 386 432 457 395 425 400 423 450 431 416 430 403 429 427 435 435 420 434 477 411 470 402 461 445 427 407 415 434 414 443 431 428 401 426 437 466 427 460 448 399 442 423 417 423 421 428 429 439 401 425 448 414 386 394 425 447 423 418 420 433 406 388 430 399 450 442 431 432 436 457 409 441 439 419 478 415 404 443 414 390 447 445 409 410 412 382 438 365 430 418 423 444 425 432 437 410 430 435 441 468 440 483 435 434 486 400 441 439 430 428 421 391 422 431 411 464 452 465 408 427 453 433 435 432 395 434 431 451 447 426 431 418 419 419 447 427 459 453 453 417 446 444 478 433 476 445 428 400 477 497 482 438 443 457 450 456 478 419 451 431 458 413 449 466 453 492 451 453 437 494 469 458 481 467 458 487 453 464 416 428 435 432 467 478 462 440 453 487 502 450 469 445 476 410 470 430 418 478 430 428 425 446 464 432 427 418 374 435 443 399 457 401 479 436 438 428 451 446 433 402 408 392 416 465 432 418 458 427 413 425 448 403 375 440 404 425 427 464 455 430 435 405 407 411 404 430 416 400 413 420 421 430 395 392 420 390 435 403 422 380 400 421 456 418 468 409 401 427 431 419 465 361 428 429 424 418 420 435 417 425 426 398 446 409 413 461 438 406 409 403 413 425 405 414 406 412 415 416 433 471 397 426 424 436 435 460 416 385 438 385 411 405 462 470 441 446 404 429 445 440 396 424 426 445 410 415 421 421 394 414 420 393 413 422 415 430 409 424 420 450 416 430 413 432 423 404 435 420 428 410 446 436 430 438 434 423 411 443 404 395 416 392 404 400 402 439 390 450 430 412 434 423 408 418 437 400 430 394 419 442 434 428 386 429 414 394 382 425 404 433 442 442 450 439 414 427 406 413 415 414 404 452 418 385 354 398 404 458 429 423 457 417 382 455 415 458 446 460 392 401 478 379 387 459 445 417 424 464 437 425 430 445 425 419 443 418 449 413 465 450 417 456 437 467 432 452 410 467 457 445 455 458 497 469 463 410 472 461 500 462 505 496 476 500 537 498 534 563 556 544 585 620 569 643 629 600 621 620 643 597 569 596 603 579 544 568 543 587 582 610 573 546 626 562 551 577 579 507 530 524 561 535 524 483 445 491 492 494 513 492 478 451 466 428 426 471 453 457 421 460 445 422 437 449 428 429 425 442 448 426 421 442 396 412 491 420 428 394 431 426 400 412 427 434 387 431 415 427 411 443 397 432 413 433 416 420 416 449 430 438 419 430 448 465 449 439 413 412 418 374 386 453 460 404 420 430 356 383 378 409 415 409 426 398 420 445 399 427 385 406 399 397 380 413 410 413 433 379 387 378 460 384 443 369 424 414 398 427 420 392 423 397 443 389 391 420 421 426 420 424 394 438 414 405 421 444 396 397 416 407 414 403 396 406 399 414 387 409 423 381 366 417 427 447 415 415 416 389 390 408 433 414 406 420 430 404 394 431 437 422 414 403 423 421 394 422 398 421 422 420 402 400 423 415 375 395 447 393 417 406 397 418 432 426 419 414 401 383 396 433 438 421 428 385 380 392 402 377 442 437 414 407 357 346 406 408 395 410 390 414 422 421 412 416 386 385 423 394 414 386 410 418 406 408 412 396 388 379 392 410 411 396 408 439 429 385 383 430 407 395 435 425 408 421 401 390 412 398 433 373 441 429 430 387 425 416 398 376 388 405 404 419 418 420 417 421 414 372 392 390 397 410 404 408 404 395 369 424 437 412 430 398 422 427 420 389 413 446 415 420 387 390 419 395 393 406 393 414 444 398 390 405 428 359 401 400 415 387 400 424 409 424 392 402 386 414 419 432 415 422 428 414 410 417 363 400 410 407 385 405 418 438 415 410 419 444 421 402 447 415 433 427 441 448 425 439 428 405 404 394 428 375 425 451 395 406 376 361 389 431 422 387 388 431 439 456 432 394 445 430 445 418 389 442 407 438 369 405 411 440 410 372 422 411 443 384 371 405 423 378 408 421 405 391 443 421 432 395 395 382 397 411 418 395 408 426 414 368 425 384 386 414 390 383 416 392 432 397 398 387 402 426 417 392 443 416 400 416 371 400 419 415 416 395 434 389 410 447 423 424 398 403 405 416 395 390 390 351 418 388 379 416 417 463 409 422 446 400 416 392 405 401 423 411 421 397 435 368 374 404 413 410 377 420 417 423 385 365 428 387 391 400 406 400 427 409 423 381 407 392 431 402 398 410 407 397 417 433 403 411 438 446 407 379 423 402 409 395 419 400 428 385 433 418 388 396 404 373 393 411 388 419 382 393 424 414 455 408 414 407 394 437 405 430 408 413 403 410 387 427 410 441 412 427 405 410 418 434 438 391 439 375 424 395 406 428 424 437 444 410 416 409 391 417 416 392 405 418 432 412 412 414 377 422 451 425 425 406 394 390 427 429 412 423 429 418 403 420 394 402 408 424 389 433 457 368 436 409 433 429 445 466 418 431 432 436 450 435 403 448 412 441 465 421 434 422 425 431 409 411 421 441 425 445 407 477 440 446 456 435 409 448 460 442 447 439 433 426 403 443 395 455 428 411 430 443 399 459 415 458 421 422 453 455 444 463 416 460 441 440 497 455 464 465 510 487 485 500 516 518 484 498 498 512 474 488 480 473 449 454 483 435 499 448 473 491 416 458 467 472 501 453 466 477 478 516 454 488 468 480 473 449 457 428 467 443 484 466 418 437 421 460 443 436 435 426 492 438 446 454 437 436 474 475 475 473 436 436 430 450 455 446 451 420 463 466 443 428 455 408 471 452 468 427 405 392 409 405 437 450 470 421 439 474 426 390 418 437 411 418 437 438 418 436 427 438 399 404 425 439 455 417 424 447 429 419 404 385 447 432 419 423 401 390 461 409 404 466 416 400 420 402 411 458 457 414 400 422 409 382 422 379 419 435 431 425 442 427 462 448 420 436 385 425 428 415 428 415 405 423 403 458 400 441 424 423 402 395 432 434 486 482 455 390 427 402 390 394 414 420 448 425 426 453 457 449 397 404 397 467 452 438 431 457 446 432 450 448 419 450 443 489 463 454 466 458 508 473 423 478 428 449 506 458 494 495 479 504 473 492 469 447 484 485 495 542 490 521 509 536 557 527 577 566 621 569 664 636 647 683 692 723 687 717 710 732 681 688 675 643 664 636 612 632 649 616 598 627 597 622 612 601 670 644 655 624 688 633 655 654 649 599 661 709 687 662 638 639 639 585 665 614 595 567 602 562 624 580 582 549 568 531 527 541 539 569 551 545 548 556 528 571 543 531 490 522 531 519 491 493 481 457 493 476 458 446 463 467 457 408 451 445 434 441 443 429 447 471 446 440 492 477 450 504 476 487 425 393 414 450 441 411 439 409 461 422 401 408 421 413 441 425 416 373 405 413 393 439 422 422 400 400 382 446 419 414 419 427 432 376 391 381 440 402 444 400 401 392 410 442 408 398 403 431 424 400 416 415 392 396 424 409 387 421 434 428 399 426 439 423 423 411 432 411 423 417 420 432 413 440 394 420 412 430 405 457 435 417 397 384 443 439 435 452 429 396 446 419 404 418 411 407 423 410 405 440 436 432 437 426 431 393 401 392 409 452 438 418 448 400 406 438 413 481 382 424 415 414 436 383 449 442 404 444 383 430 417 403 414 405 361 419 417 405 389 412 397 412 411 437 409 437 376 414 370 385 415 430 370 423 419 388 406 421 411 376 414 387 406 445 400 373 447 416 391 396 394 403 395 429 395 392 410 407 411 403 409 384 417 410 401 391 363 393 401 403 381 395 377 407 427 418 400 388 411 374 412 409 398 413 419 388 386 402 398 402 371 382 394 370 379 395 380 401 399 383 425 388 377 401 411 398 415 391 417 376 379 350 386 430 391 365 399 361 414 388 385 375 384 405 389 383 391 418 414 388 363 381 399 404 371 417 403 380 389 386 406 362 415 393 381 368 409 381 346 349 374 382 404 383 375 355 411 393 417 389 370 403 400 421 417 389 398 392 419 364 419 408 409 403 373 365 397 367 400 406 387 381 384 363 400 396 385 407 427 400 375 368 364 384 400 414 405 414 388 392 393 397 404 385 377 380 386 389 407 369 392 406 358 360 378 406 422 368 400 376 393 425 377 403 361 394 363 390 380 406 431 396 394 377 397 392 422 400 421 378 380 377 391 398 400 433 385 374 433 418 380 374 393 388 381 384 409 380 424 341 401 404 385 383 330 373 383 383 397 332 380 377 383 383 413 415 367 435 354 377 375 399 428 388 386 364 438 384 379 404 413 379 377 420 414 356 408 390 410 401 414 397 354 399 400 420 353 373 389 372 381 400 393 364 420 350 385 358 411 385 377 381 410 385 375 376 395 381 357 359 403 379 372 341 389 397 363 391 379 399 381 375 376 380 381 384 373 392 396 428 343 378 394 364 373 400 370 360 363 371 407 350 408 345 382 386 394 380 370 394 389 377 399 384 389 408 349 379 385 382 414 418 389 369 378 372 368 363 364 375 383 390 399 411 383 390 406 380 408 392 377 344 425 400 412 421 405 384 402 386 400 394 360 358 381 388 380 381 408 394 406 399 415 435 412 437 402 421 381 400 424 424 388 376 371 411 368 417 366 407 406 355 410 409 431 399 392 426 392 412 404 400 367 365 398 407 355 418 414 408 369 406 392 391 410 396 381 382 378 373 415 375 379 363 382 401 383 384 434 411 384 363 402 342 394 351 388 364 392 369 344 358 357 383 374 380 361 370 418 395 371 385 386 394 378 346 421 403 388 375 366 338 385 385 389 376 391 383 384 362 388 374 397 357 366 378 388 374 395 396 373 388 351 382 386 409 391 382 376 403 373 340 399 376 352 389 396 339 410 381 405 387 378 338 383 347 378 364 365 382 378 396 396 406 380 410 374 368 374 336 365 368 408 375 341 392 392 372 383 363 384 363 398 399 382 353 398 378 401 389 372 424 391 366 340 379 361 341 383 386 407 354 381 386 355 405 390 370 365 375 351 382 389 363 391 395 372 374 384 342 403 360 387 410 388 387 394 394 384 393 391 417 380 388 384 399 378 438 371 415 385 376 373 401 389 387 416 414 385 357 375 348 390 374 367 397 364 407 374 413 420 382 396 393 439 431 391 374 444 454 399 449 396 452 402 402 408 449 418 415 462 440 393 449 429 454 454 451 477 439 422 452 440 469 456 476 530 492 522 527 561 508 527 533 532 498 549 515 506 553 497 521 537 501 524 600 606 566 553 596 522 577 565 521 556 557 505 532 529 516 523 559 500 498 495 466 502 498 470 490 482 505 492 489 510 487 456 480 490 476 462 460 449 497 479 468 460 468 437 453 477 433 483 449 458 511 425 432 460 445 471 439 418 416 429 445 398 461 438 436 431 467 397 429 416 422 442 446 431 413 422 427 399 427 402 416 400 398 399 391 441 420 417 427 432 443 420 402 435 424 421 419 397 392 392 413 425 394 388 379 378 397 401 407 398 398 352 430 387 398 401 403 368 395 408 355 400 402 379 384 402 420 388 409 393 375 376 385 398 402 384 396 384 368 393 386 392 421 379 383 387 406 393 378 375 399 417 354 407 426 389 400 398 395 406 432 379 397 401 419 415 385 418 406 383 454 388 351 377 428 369 398 378 382 372 394 369 372 438 370 349 387 376 378 383 354 413 387 399 376 346 374 383 398 415 410 417 371 415 394 390 352 359 389 389 382 374 382 385 368 362 352 360 359 388 367 360 369 364 412 385 392 382 393 370 394 395 377 338 395 366 381 343 357 349 351 366 400 367 365 374 362 359 368 375 346 402 403 406 376 368 365 385 375 401 363 371 371 374 373 353 370 367 380 400 372 419 389 346 375 383 386 383 378 350 389 421 375 367 373 354 407 367 392 360 371 361 376 393 406 369 364 357 358 348 338 388 370 357 384 404 350 346 362 361 353 365 370 360 404 359 387 374 371 369 359 305 391 355 389 373 375 381 370 365 368 367 389 397 379 374 363 357 322 364 389 377 378 388 364 375 360 365 368 376 402 366 341 334 394 347 353 383 366 401 388 360 374 389 374 351 397 340 382 353 350 383 374 402 353 373 358 343 381 359 352 348 364 379 408 359 405 377 383 397 360 329 357 417 364 389 330 333 340 382 391 421 363 388 371 366 335 380 378 375 380 349 361 371 361 365 329 394 350 363 378 409 371 370 397 352 351 328 379 358 355 377 409 380 401 365 421 395 392 336 351 394 387 388 364 430 390 375 364 360 357 387 369 342 372 362 334 385 374 366 369 375 352 380 359 382 371 361 337 379 351 334 344 359 370 366 362 356 382 381 357 387 367 384 383 353 424 372 364 350 382 363 395 392 383 345 408 363 363 339 371 375 377 374 363 359 390 357 397 346 367 388 377 428 340 389 348 364 374 309 363 383 374 386 350 356 382 382 400 389 362 355 354 368 357 404 369 374 359 405 419 388 357 348 365 350 393 382 368 369 349 348 375 341 387 405 332 361 368 352 363 378 378 397 386 360 391 360 413 364 381 391 363 364 391 377 332 359 359 364 355 389 403 433 347 357 368 370 393 359 381 364 393 372 401 403 354 384 351 377 370 369 377 382 350 366 394 375 366 358 360 389 405 399 369 371 388 365 377 377 368 370 387 360 368 394 373 367 422 413 423 384 338 381 340 399 431 338 368 358 387 367 372 365 345 342 396 375 418 384 429 375 343 394 343 375 363 370 394 346 408 428 394 425 405 404 400 392 414 366 402 382 412 366 420 399 446 398 380 409 421 423 433 418 377 426 416 394 418 438 421</counts>
			</dataPoints>
		</scan>
	</xrdMeasurement>
</xrdMeasurements>
