<?xml version="1.0"?>
<xrdMeasurements xmlns="http://www.xrdml.com/XRDMeasurement/2.3" xmlns:xsi="http://www.w3.org/2001/XMLSchema-instance" xsi:schemaLocation="http://www.xrdml.com/XRDMeasurement/2.3 http://www.xrdml.com/XRDMeasurement/2.3/XRDMeasurement.xsd" status="Completed" recordIdentifier="{197A0257-6BA8-4B45-B293-54DE85375992}">
	<comment>
		<entry/>
	</comment>
	<sample type="To be analyzed">
		<id>GPSS_Li1p65Mn0p65Mg0p30V0p15Cl4_121225_693c5ab8f4d05ae3d6974f18</id>
		<name></name>
		<preparedBy></preparedBy>
	</sample>
	<xrdMeasurement measurementType="Scan" status="Completed" sampleMode="Reflection">
		<usedWavelength intended="K-Alpha 1">
			<kAlpha1 unit="Angstrom">1.5405980</kAlpha1>
			<kAlpha2 unit="Angstrom">1.5444260</kAlpha2>
			<kBeta unit="Angstrom">1.3922500</kBeta>
			<ratioKAlpha2KAlpha1>0.5000</ratioKAlpha2KAlpha1>
		</usedWavelength>
		<incidentBeamPath>
			<radius unit="mm">145.00</radius>
			<xRayTube id="1010048" name="Empyrean Cu LFF HR (9430 033 7310x)">
				<tension unit="kV">40.0</tension>
				<current unit="mA">15.0</current>
				<anodeMaterial>Cu</anodeMaterial>
				<focus type="Line">
					<length unit="mm">12.0</length>
					<width unit="mm">0.4</width>
					<takeOffAngle unit="deg">6.0</takeOffAngle>
				</focus>
			</xRayTube>
			<sollerSlit id="21010002" name="Soller slits 0.04 rad.">
				<opening unit="rad">0.0400</opening>
			</sollerSlit>
			<mask id="22031000" name="Fixed mask 13 mm">
				<width unit="mm">9.00</width>
			</mask>
			<divergenceSlit id="22120001" name="Divergence slit 1°" xsi:type="fixedDivergenceSlitType">
				<distanceToSample unit="mm">50.00</distanceToSample>
				<height unit="mm">1.52</height>
			</divergenceSlit>
		</incidentBeamPath>
		<sampleMovement xsi:type="spinningSampleMovementType">
			<spinnerRevolutionTime unit="seconds">1.0</spinnerRevolutionTime>
		</sampleMovement>
		<diffractedBeamPath>
			<radius unit="mm">145.00</radius>
			<antiScatterSlit id="22090040" name="AS slit 9 mm (PIXcel)" xsi:type="fixedAntiScatterSlitType">
				<height unit="mm">9.00</height>
			</antiScatterSlit>
			<sollerSlit id="21020003" name="Large Soller slits 0.04 rad.">
				<opening unit="rad">0.0400</opening>
			</sollerSlit>
			<filter id="20030001" name="Large beta-filter Nickel">
				<material>Ni</material>
				<thickness unit="mm">0.020</thickness>
			</filter>
			<detector id="7010019" name="PIXcel1D-Medipix3 detector" xsi:type="rtmsDetectorType">
				<phd unit="keV">
					<lowerLevel>4.02</lowerLevel>
					<upperLevel>11.27</upperLevel>
				</phd>
				<mode>Scanning</mode>
				<activeLength unit="deg">5.542</activeLength>
			</detector>
		</diffractedBeamPath>
		<scan appendNumber="0" mode="Continuous" scanAxis="Gonio" status="Completed">
			<header>
				<startTimeStamp>2025-12-15T16:33:35-08:00</startTimeStamp>
				<endTimeStamp>2025-12-15T16:41:42-08:00</endTimeStamp>
				<author>
					<name>AutomatedUser</name>
				</author>
				<source>
					<applicationSoftware version="1.7b (136)">PANalytical Aeris Instrument Suite</applicationSoftware>
					<instrumentControlSoftware version="3.2.00000000 20240306">AERIS</instrumentControlSoftware>
					<instrumentID>950485</instrumentID>
				</source>
			</header>
			<dataPoints>
				<positions axis="2Theta" unit="deg">
					<startPosition>10.00943322</startPosition>
					<endPosition>99.99442286</endPosition>
				</positions>
				<positions axis="Omega" unit="deg">
					<startPosition>5.00471661</startPosition>
					<endPosition>49.99721143</endPosition>
				</positions>
				<commonCountingTime unit="seconds">12.495</commonCountingTime>
				<counts unit="counts">2818 2903 2942 2933 2770 2891 2884 2857 2873 2887 2854 2861 2804 2887 2900 2767 2896 2872 2860 2844 2848 2871 2830 2892 2851 2832 2871 2857 2861 2866 2923 2830 2962 2718 2857 2864 2882 2936 2864 2797 2958 2962 2821 2815 2836 2876 2744 2950 2855 2840 2880 2897 2756 2929 2855 2848 2811 2869 2871 2811 2822 2917 2823 2919 2844 2816 2936 2791 2870 2816 2928 2878 2889 2886 2898 2871 2825 2922 2906 2903 2804 2821 2864 2763 2866 2803 2829 2912 2916 2849 2897 2833 2895 2763 2783 2901 2871 2847 2848 2975 2934 2913 2783 2900 2892 2860 2939 2919 2871 2953 2789 2903 2993 2955 2738 2948 2918 3011 2925 2965 2954 2911 2831 2928 2841 2923 2951 2830 2934 3002 2926 2903 2863 2898 2842 2971 2796 2859 2907 2954 2893 2905 2801 2842 2875 2872 2824 2916 2915 2949 2836 2960 2901 2908 2980 2979 2875 2883 2880 2748 2853 2926 2991 2811 2927 2930 2881 2775 2895 2800 2895 2804 2886 2969 2772 3026 2822 2910 2817 2896 2878 2939 2747 2823 2808 2955 2822 2881 2899 2831 2800 2904 2958 2937 2885 2853 2875 2971 2902 2863 2831 2823 2886 2806 2809 2883 2870 2863 2801 2874 2908 2880 2868 2930 2821 2743 2800 2769 2886 2779 2828 2926 2873 2742 2935 2871 2927 2867 2844 2904 2884 2804 2821 2802 2954 2879 2876 2878 2903 2856 2923 2848 2898 2939 2674 2809 2866 2829 2919 2802 2847 2816 2788 2904 2899 2846 2783 2858 2969 2876 2832 2869 2954 2922 2851 2868 2849 2898 2807 2791 2795 2873 2773 2850 2919 2872 2886 2931 2861 2866 2874 2909 2984 2909 2975 2868 2960 2894 2979 2934 2960 2966 2986 2880 2942 2863 2929 2967 2904 2975 2882 2914 3023 2869 2906 3007 2965 2971 2958 2928 2921 3003 2944 3061 3009 3056 2942 3067 2934 3136 3059 3117 2951 3048 3076 3011 2965 2956 2992 3041 3023 3098 2931 3065 3081 3181 3070 2973 3111 3086 3151 3087 3017 3149 3061 3169 3125 3330 3161 3167 3197 3013 3151 3193 3168 3180 3143 3297 3231 3222 3251 3241 3251 3288 3323 3238 3212 3321 3226 3212 3279 3277 3291 3365 3231 3266 3414 3412 3346 3373 3402 3228 3479 3359 3443 3529 3263 3402 3526 3465 3395 3444 3485 3421 3479 3469 3579 3447 3503 3597 3429 3537 3612 3547 3612 3667 3674 3672 3710 3727 3907 3766 3810 3883 3900 3846 3981 3829 3942 3964 4077 4262 4335 4106 4334 4495 4457 4818 4640 4725 4849 4991 5164 5108 5269 5437 5550 5578 5520 5692 5674 5565 5587 5519 5622 5592 5706 5672 5593 5499 5529 5429 5281 5334 5265 5300 5164 5016 4886 4906 4808 4786 4603 4558 4508 4523 4447 4272 4211 4126 4113 4036 4043 3996 3981 3936 3902 3827 3929 3846 3820 3786 3768 3982 3815 3828 3777 3846 3738 3799 3780 3746 3739 3685 3804 3749 3807 3720 3699 3719 3675 3716 3624 3691 3605 3589 3575 3508 3528 3624 3655 3578 3456 3532 3533 3585 3381 3462 3407 3389 3429 3493 3354 3479 3436 3393 3362 3465 3582 3424 3449 3375 3397 3266 3256 3291 3443 3328 3391 3456 3363 3342 3326 3372 3435 3211 3273 3351 3299 3234 3338 3279 3369 3326 3259 3328 3307 3318 3327 3297 3360 3303 3331 3234 3344 3302 3367 3283 3264 3248 3247 3253 3185 3180 3245 3288 3236 3186 3284 3262 3079 3260 3151 3150 3177 3144 3241 3169 3212 3159 3193 3163 3255 3275 3268 3161 3055 3158 3194 3153 3233 3226 3107 3150 3076 3109 3063 3192 3199 3243 3103 3099 3042 3111 3188 3113 3101 3159 3186 3174 3207 3244 3120 3054 3057 3124 3177 3064 3089 3095 3061 3050 3219 3085 3103 3100 3137 2992 3120 3117 2951 3054 3069 3052 3078 3016 3036 2941 2988 3024 3101 3042 3099 3094 3060 3039 2999 3092 2969 2991 3000 3120 2967 3065 3080 2984 3050 3017 3010 3162 3092 2897 3161 3050 3087 3016 2987 2980 2937 3015 3021 3026 3010 3028 3086 3030 3003 3133 2984 3006 2927 2957 2947 2919 3088 3075 3024 2969 2991 2945 3042 2956 2961 2921 2907 2994 2867 2969 3060 2985 2977 2974 2864 3082 2986 3101 2934 2979 2996 2847 2997 2900 2935 2902 2982 2933 2954 2990 2969 2895 2994 2931 2904 2998 2954 2962 3067 2819 2887 2964 2937 2863 2988 3002 2946 3009 2932 2990 2832 2986 2988 2911 2996 2982 2949 3045 2979 3045 2941 2844 2884 2925 3020 2972 2867 3039 2891 2959 2853 2850 2912 2999 2884 3014 2895 2975 2949 3003 2907 2954 2887 2878 2947 2878 2819 2858 2859 2934 2903 2820 2790 2794 2892 2939 2926 2860 2901 2854 2861 2921 2837 2819 2856 2800 2910 2805 2922 2883 2723 2953 2886 2872 2794 2947 2842 2905 2857 2918 2932 2922 2904 2942 2807 2971 2804 2899 2836 2844 2884 2859 2903 2851 2836 2862 2874 2763 2749 2904 2911 3013 2879 2785 2847 2804 2864 2751 2935 2805 2842 2719 2899 2867 2822 2792 2876 2917 2792 2754 2805 2797 2886 2784 2767 2842 2803 2743 2838 2881 2804 2809 2825 2787 2816 2835 2752 2745 2776 2732 2714 2821 2846 2727 2891 2652 2672 2716 2684 2695 2872 2696 2777 2705 2735 2771 2731 2721 2683 2722 2746 2739 2831 2754 2681 2765 2751 2672 2621 2735 2655 2704 2688 2722 2653 2737 2798 2796 2604 2718 2621 2759 2689 2584 2738 2766 2745 2718 2667 2637 2624 2773 2750 2677 2705 2736 2606 2726 2825 2622 2655 2646 2721 2552 2701 2614 2736 2620 2742 2650 2625 2669 2680 2759 2651 2640 2710 2695 2736 2679 2664 2744 2697 2690 2697 2763 2568 2624 2646 2619 2542 2652 2643 2704 2630 2691 2576 2626 2619 2596 2651 2659 2593 2625 2638 2722 2703 2663 2692 2579 2664 2593 2643 2554 2683 2597 2569 2674 2599 2596 2594 2546 2646 2628 2507 2715 2565 2546 2603 2529 2548 2667 2544 2622 2547 2657 2593 2730 2629 2699 2607 2596 2627 2679 2598 2651 2683 2612 2681 2613 2591 2638 2589 2667 2638 2620 2717 2663 2563 2622 2517 2654 2656 2551 2566 2634 2567 2707 2665 2574 2612 2637 2620 2585 2597 2625 2712 2517 2630 2682 2603 2642 2594 2634 2714 2605 2612 2579 2608 2618 2663 2711 2569 2751 2534 2599 2587 2608 2572 2624 2591 2647 2597 2664 2617 2624 2633 2570 2562 2624 2691 2707 2640 2572 2578 2617 2591 2627 2602 2590 2583 2572 2638 2582 2596 2666 2556 2702 2648 2599 2617 2622 2627 2496 2610 2646 2586 2589 2548 2683 2637 2551 2565 2565 2568 2533 2553 2563 2545 2588 2655 2649 2480 2583 2554 2587 2620 2576 2632 2492 2446 2488 2622 2518 2478 2573 2517 2597 2574 2607 2540 2611 2567 2535 2462 2559 2494 2544 2573 2613 2513 2507 2418 2500 2357 2535 2591 2532 2533 2432 2445 2365 2490 2418 2524 2378 2410 2538 2449 2434 2361 2510 2467 2428 2415 2446 2426 2357 2426 2415 2402 2421 2378 2362 2338 2324 2308 2440 2336 2335 2299 2312 2378 2431 2350 2376 2287 2300 2262 2333 2352 2318 2244 2251 2321 2313 2294 2345 2320 2266 2271 2254 2281 2255 2219 2261 2267 2322 2272 2224 2219 2337 2196 2186 2247 2198 2291 2218 2211 2160 2219 2148 2131 2194 2251 2161 2256 2149 2242 2191 2136 2124 2162 2174 2151 2049 2137 2036 2096 2142 2206 2070 2160 2090 2056 2190 2126 2094 2028 2061 2121 2051 2016 2121 2070 2057 2148 2051 2051 2117 2000 2063 2158 2172 2051 2052 2097 2061 2105 2027 2079 2086 2058 2064 1995 2117 2088 2121 2022 2009 2100 2070 2041 2020 2020 2003 2090 2014 2005 2010 1991 2044 2014 2002 2049 2040 2027 1964 2032 2037 1936 1970 2020 2057 1982 2008 2042 1907 2003 2078 1970 1916 1930 1974 1977 1907 1942 1923 2006 1924 1972 1899 1990 1920 1896 1950 1947 1872 1901 1987 1941 1958 2047 1971 1970 1962 1933 1941 1898 2022 1987 1934 1971 1996 2052 1890 1923 1942 1898 1869 1873 1936 1915 1929 1913 1981 1983 1947 1983 1974 1976 1835 1905 1883 1955 1823 1923 1900 1893 1852 1967 1907 1954 1931 1881 2013 1931 1885 1864 1876 1939 1908 1913 1901 1926 1850 1938 1832 1909 1914 1994 1906 1943 1883 1941 1858 1934 1925 2003 1894 1951 1908 1969 1950 1978 1921 1860 1943 1828 1976 1968 1968 1973 1864 1923 1934 1911 1976 1903 1987 1859 1945 1932 1949 2016 1949 1898 1985 1849 1925 1860 1962 1954 1957 1932 2019 1923 1939 1938 1923 2007 1925 1874 1930 2005 1912 1880 1998 1907 1970 1923 1928 1923 1960 1920 1941 1991 1984 2058 1977 1898 1917 1989 1846 1948 1968 1942 1977 1880 2061 1950 2026 1902 1915 1987 1924 1959 2027 1974 2063 2004 1878 1968 1989 1980 1937 1906 2014 2037 1955 1953 1942 1949 1899 1908 1864 1939 1999 1926 1949 1920 1999 1851 1924 1885 1934 1946 1958 1924 1915 1976 1964 1975 1901 1854 1907 1875 1817 1902 1917 1862 1791 1866 1882 1906 1939 1802 1859 1828 1933 1758 1873 1886 1820 1807 1862 1812 1829 1891 1917 1847 1788 1844 1883 1804 1856 1812 1842 1781 1789 1845 1858 1838 1770 1840 1852 1813 1810 1917 1742 1793 1844 1707 1820 1840 1723 1806 1757 1770 1793 1721 1815 1749 1701 1819 1644 1706 1731 1800 1807 1634 1727 1766 1704 1693 1745 1755 1765 1777 1707 1715 1732 1737 1782 1683 1624 1721 1700 1712 1773 1659 1644 1670 1736 1643 1706 1711 1662 1707 1643 1751 1722 1692 1670 1649 1686 1619 1695 1670 1704 1591 1622 1633 1638 1657 1730 1691 1687 1646 1644 1627 1592 1578 1607 1550 1665 1661 1635 1772 1611 1626 1660 1646 1708 1778 1643 1714 1601 1645 1782 1773 1782 1817 1720 1899 1910 1924 1934 1987 1996 2071 2162 2268 2210 2285 2269 2470 2530 2532 2710 2620 2736 2760 2748 2682 2833 2744 2756 2672 2674 2749 2521 2672 2585 2521 2406 2406 2353 2200 2280 2285 2158 2107 2055 2072 2049 1933 2021 1802 1884 1775 1813 1739 1726 1761 1724 1680 1712 1625 1685 1535 1687 1575 1528 1623 1565 1597 1556 1641 1569 1528 1485 1555 1559 1569 1582 1586 1485 1498 1582 1475 1545 1550 1554 1583 1511 1554 1465 1474 1476 1510 1557 1510 1492 1507 1475 1528 1464 1553 1530 1473 1503 1582 1469 1557 1620 1569 1618 1650 1645 1583 1707 1712 1717 1748 1768 1846 1946 2018 1953 2154 2257 2253 2386 2454 2623 2635 2797 3013 3189 3316 3538 3815 4124 4456 4676 4816 5061 5334 5618 5673 5835 5824 5983 5775 5778 5681 5623 5371 5081 5166 5030 4751 4683 4412 4463 4275 4085 4060 3840 3742 3425 3474 3112 2979 2911 2813 2599 2470 2441 2301 2208 2093 2002 1975 1839 1824 1844 1752 1708 1699 1631 1565 1588 1627 1528 1601 1602 1563 1570 1605 1567 1491 1548 1498 1513 1461 1564 1562 1576 1520 1433 1524 1470 1444 1445 1404 1438 1375 1376 1428 1456 1474 1395 1355 1414 1363 1352 1399 1343 1375 1323 1350 1416 1354 1254 1385 1338 1318 1331 1340 1295 1343 1300 1375 1349 1328 1335 1328 1319 1312 1343 1377 1338 1271 1262 1288 1319 1313 1298 1294 1380 1326 1333 1265 1317 1307 1387 1327 1347 1351 1347 1321 1317 1322 1271 1277 1378 1328 1268 1295 1287 1319 1299 1315 1263 1311 1305 1285 1322 1295 1300 1286 1324 1311 1259 1272 1282 1231 1255 1273 1256 1265 1243 1270 1340 1300 1280 1240 1253 1234 1242 1216 1292 1300 1293 1318 1288 1202 1294 1225 1246 1257 1236 1186 1272 1275 1335 1240 1283 1225 1249 1179 1213 1201 1269 1299 1245 1297 1230 1274 1237 1293 1219 1238 1251 1276 1295 1266 1234 1172 1302 1311 1292 1238 1180 1251 1168 1173 1213 1253 1218 1250 1199 1193 1282 1215 1229 1169 1201 1167 1206 1228 1231 1264 1194 1212 1209 1181 1186 1284 1175 1200 1233 1182 1220 1160 1210 1220 1248 1229 1293 1222 1233 1218 1210 1182 1238 1210 1258 1217 1208 1211 1221 1232 1207 1250 1195 1250 1243 1193 1224 1184 1210 1209 1204 1224 1218 1262 1171 1128 1218 1218 1252 1237 1174 1168 1140 1167 1203 1211 1143 1214 1085 1070 1134 1196 1275 1106 1105 1242 1179 1182 1133 1219 1188 1168 1218 1107 1163 1245 1144 1252 1172 1182 1193 1130 1166 1213 1185 1185 1203 1188 1228 1179 1223 1217 1175 1265 1192 1228 1180 1256 1200 1232 1220 1137 1171 1250 1276 1265 1206 1220 1262 1228 1254 1181 1267 1191 1191 1232 1211 1235 1223 1296 1292 1242 1308 1250 1262 1228 1175 1229 1309 1214 1259 1266 1271 1278 1234 1261 1279 1229 1200 1245 1237 1337 1218 1226 1247 1249 1274 1248 1201 1343 1330 1281 1336 1251 1292 1289 1338 1326 1312 1290 1278 1325 1370 1326 1373 1374 1398 1321 1324 1322 1419 1440 1477 1550 1503 1532 1578 1581 1593 1707 1698 1837 1880 1961 2014 2209 2225 2411 2572 2734 3022 3296 3527 3794 4017 4328 4913 5179 5625 6119 6850 7188 8041 8553 9185 9360 10076 10798 10704 11024 11258 11376 11212 10705 10864 10345 10204 9904 9413 8910 8649 8295 7906 7662 7221 6920 6602 6150 5783 5531 5242 4848 4652 4447 4163 3825 3608 3404 3240 2982 2793 2681 2554 2454 2237 2140 2142 1983 1964 1867 1867 1749 1813 1689 1755 1692 1665 1601 1626 1728 1674 1626 1626 1589 1567 1569 1595 1556 1522 1410 1453 1439 1385 1433 1397 1390 1372 1364 1437 1377 1332 1379 1335 1258 1354 1338 1282 1301 1312 1316 1210 1213 1305 1284 1236 1353 1239 1280 1236 1303 1254 1251 1231 1179 1230 1268 1255 1200 1265 1193 1234 1230 1211 1215 1240 1204 1232 1191 1230 1241 1229 1218 1171 1182 1241 1152 1180 1266 1238 1220 1160 1157 1213 1165 1166 1177 1122 1218 1167 1224 1218 1190 1165 1149 1122 1125 1156 1119 1125 1151 1183 1131 1148 1176 1108 1109 1146 1161 1108 1147 1118 1169 1163 1132 1121 1135 1203 1107 1198 1173 1116 1128 1131 1112 1134 1169 1120 1201 1136 1107 1160 1093 1130 1153 1177 1082 1159 1193 1105 1113 1103 1151 1112 1073 1113 1104 1096 1082 1139 1085 1093 1136 1127 1125 1163 1114 1104 1064 1136 1065 1153 1132 1119 1167 1116 1165 1120 1127 1099 1067 1137 1076 1148 1032 1030 1140 1084 1072 1146 1183 1140 1116 1155 1090 1179 1172 1089 1070 1062 1065 1032 1136 1092 1116 1059 1071 1127 1052 1091 1065 1096 1079 1077 1189 1082 1139 1088 1138 1081 1041 1079 1160 1086 1074 1098 1122 1076 1123 1125 1114 1088 1057 1088 1061 1031 1067 1058 1143 1039 1132 1060 1097 1117 1157 1068 1122 1125 1086 1079 1089 1112 1097 1059 1119 1165 1030 1100 1104 1178 1115 1214 1133 1170 1148 1166 1200 1109 1124 1135 1200 1115 1115 1152 1107 1108 1106 1088 1057 1116 1149 1150 1055 1039 1127 1149 1083 1084 1087 1036 1122 1081 1096 1126 1108 1052 1095 1106 1082 1106 1046 1076 1058 1172 1083 1033 1088 1074 1054 1118 1052 1068 1091 1106 1076 1073 1041 1027 1108 1018 1083 1055 1047 1013 1078 1063 991 1104 1039 1092 1027 1104 977 1010 1014 993 1058 1035 1088 966 1095 1003 997 1024 1002 1018 1067 1034 1025 1004 1022 1028 972 1087 1049 991 956 1010 978 1056 982 1053 972 1027 999 1011 996 1031 987 1037 993 1017 995 1031 1025 975 1028 978 1023 1018 954 1067 1058 1029 975 1020 1058 965 999 1056 1019 991 1002 1047 1018 968 1034 1012 1031 1030 1001 1009 1041 1035 1057 987 1033 964 990 969 1019 1002 1007 1084 1012 1044 1007 981 983 970 1012 1006 1010 975 1029 1042 990 963 955 999 1007 1039 933 1003 1042 1018 977 972 1022 957 1008 1005 990 980 1001 975 964 979 1000 984 988 1006 969 960 1006 984 988 951 993 987 1023 975 956 943 1025 1022 967 1013 1047 925 967 984 998 984 966 956 1012 1023 975 998 1003 969 995 953 940 963 994 997 988 897 972 989 996 1011 998 983 970 1021 1000 952 1020 938 1002 987 999 959 931 987 1011 996 987 979 995 953 994 979 997 957 954 929 1008 1026 971 984 1004 1004 961 948 988 992 1006 1037 959 1006 959 948 958 963 1015 942 920 998 965 1001 992 1036 959 976 993 958 967 962 943 994 965 974 1033 1050 916 943 986 985 1018 937 999 982 1020 985 968 920 952 978 940 969 971 1045 1012 946 998 999 999 967 996 992 996 1028 968 1002 1011 1004 930 1008 966 961 1015 971 1005 1025 1014 1024 957 927 959 990 969 893 934 931 981 942 954 999 948 959 967 984 929 971 968 952 981 1003 1021 938 964 966 963 966 995 988 958 1018 940 972 940 940 986 965 980 985 971 1000 978 984 996 998 992 986 981 954 878 910 931 988 942 980 950 967 962 989 959 965 991 988 938 929 925 975 960 921 866 968 1007 915 982 1006 944 961 992 922 956 977 975 959 924 965 1044 941 991 969 952 1006 981 975 930 1001 972 925 974 962 953 966 958 940 949 937 979 911 932 955 999 965 999 991 1018 996 990 955 1005 978 971 957 1026 939 984 901 960 1019 947 962 929 936 977 960 941 953 1000 951 932 932 958 988 964 992 919 986 977 966 954 961 961 886 881 897 909 944 938 961 979 989 1021 942 887 998 894 950 937 933 949 945 983 918 955 998 964 979 976 898 952 982 957 965 859 1006 988 954 918 922 936 1022 897 1024 922 943 928 970 980 909 960 909 907 918 925 957 928 933 936 989 934 933 922 924 899 899 941 998 928 942 965 956 888 999 974 935 945 900 946 960 952 973 960 984 939 978 910 972 944 974 949 951 915 943 934 989 933 978 970 965 943 954 932 928 958 945 960 949 1028 943 942 1033 1008 930 929 954 955 956 971 916 967 1016 1003 962 973 970 955 983 988 933 991 949 984 959 917 974 986 991 939 901 980 984 959 950 1010 959 928 878 927 932 937 989 900 892 963 960 972 951 972 975 939 1009 955 987 928 941 946 1008 958 946 958 958 978 938 940 925 976 1027 1025 1009 983 1008 1008 1078 1047 1016 1057 1120 1087 1051 1118 1150 1160 1198 1176 1258 1341 1371 1370 1462 1497 1588 1632 1692 1831 1804 1875 1877 1953 1975 1948 2024 2022 1940 1878 1913 1924 1896 1847 1776 1825 1667 1707 1633 1586 1541 1507 1445 1405 1396 1279 1292 1176 1248 1250 1198 1172 1077 1164 1082 1098 1091 1049 1069 1035 997 986 936 1031 995 976 947 1030 977 1015 924 1032 982 962 1012 917 995 985 921 944 989 978 962 961 944 931 929 945 969 991 950 947 966 919 919 973 908 958 1021 963 923 917 972 901 942 996 941 932 935 923 999 921 920 973 972 936 910 932 915 938 913 950 871 900 943 947 954 961 954 914 950 908 962 877 975 916 905 939 916 922 978 947 925 949 953 846 953 886 910 917 988 960 939 977 913 898 959 895 904 895 939 909 898 917 956 984 910 992 905 931 902 925 915 901 922 907 897 940 935 902 963 907 1015 916 978 886 942 928 959 953 922 911 874 916 895 875 990 914 908 904 929 908 891 944 897 915 957 904 929 953 935 918 890 991 918 924 931 884 930 973 844 916 882 898 947 916 897 920 907 897 843 913 902 879 940 901 906 929 949 936 883 919 984 966 982 933 930 891 936 928 907 919 942 882 916 934 840 851 978 942 1001 966 964 938 924 1004 949 958 957 953 906 959 956 948 923 926 903 858 903 927 948 931 986 940 949 928 944 966 921 953 935 987 961 909 934 979 951 892 930 980 936 949 932 970 941 943 971 961 950 994 941 936 923 982 981 876 915 922 976 970 916 932 938 1026 954 924 999 897 964 967 952 982 942 965 1008 996 984 992 997 935 977 977 967 955 985 955 910 935 975 955 937 968 969 937 986 908 1002 954 996 912 971 966 999 1059 1036 970 1032 1045 1025 1031 995 1037 1046 1046 1041 1070 1056 1069 1063 1064 1113 1166 1243 1162 1236 1229 1171 1279 1321 1339 1417 1435 1524 1593 1607 1699 1896 2057 2104 2464 2538 2683 3031 3220 3545 3868 4171 4638 4966 5191 5624 5893 6035 6157 6365 6502 6307 6358 6165 6178 6130 5955 5721 5838 5538 5555 5287 5124 4942 4792 4414 4071 3969 3644 3442 3205 3076 2890 2730 2605 2460 2366 2192 2140 2022 1848 1744 1620 1604 1552 1519 1422 1333 1295 1328 1262 1209 1133 1176 1204 1130 1153 1124 1092 1073 1102 1110 1065 1126 1035 1044 1001 1040 1020 1004 1069 1030 963 1015 1081 1071 1091 1059 1028 1066 1070 1084 981 1036 1024 1037 1038 1011 1049 1070 1073 1055 1045 1036 1050 997 1029 974 1022 1028 1037 1034 1016 970 954 962 975 1070 1031 1021 1040 1034 1021 961 1029 990 1019 1001 1021 982 1035 949 981 1013 1018 978 938 961 965 955 964 929 971 925 927 941 952 896 886 955 970 930 917 951 951 939 931 894 936 925 869 931 891 915 927 915 917 995 859 928 937 952 876 930 945 902 913 902 886 887 909 878 913 887 896 918 916 931 945 828 881 943 873 886 902 932 945 869 924 912 964 930 886 930 880 937 934 917 942 947 923 927 965 924 868 981 875 917 988 986 1001 972 976 1082 1015 1014 1002 1020 1101 1158 1133 1188 1162 1211 1299 1266 1313 1358 1325 1323 1338 1365 1441 1387 1368 1413 1380 1383 1386 1424 1375 1376 1305 1343 1293 1294 1340 1257 1262 1268 1115 1172 1214 1087 1181 1133 1040 1016 1024 999 1041 1080 976 924 962 948 1031 940 935 983 933 906 973 962 908 915 915 856 877 888 902 928 927 875 880 901 895 866 866 884 869 907 891 838 852 894 897 876 830 853 894 864 906 844 928 860 862 871 877 910 900 852 876 881 905 888 872 822 857 919 898 825 863 920 830 841 880 882 912 838 843 855 882 837 852 897 846 848 902 810 849 906 853 862 872 878 797 837 902 876 884 879 914 912 827 859 898 853 867 839 840 850 903 861 829 883 802 886 839 878 839 856 862 833 878 790 874 855 863 861 820 864 861 883 843 868 893 860 803 886 854 790 833 818 903 788 854 858 854 862 837 848 848 834 842 854 841 848 826 843 873 866 851 830 880 846 787 876 831 857 852 872 839 869 904 824 831 854 826 841 804 845 856 898 844 852 855 849 815 894 789 889 800 882 797 882 770 850 841 811 871 832 801 802 888 847 812 806 846 829 841 803 849 800 799 843 832 808 840 802 863 837 806 871 846 867 830 821 884 875 805 785 858 827 848 822 882 829 858 825 866 815 825 798 864 812 820 789 810 874 807 829 818 835 829 853 827 756 857 816 783 768 811 832 830 829 782 871 801 813 801 837 829 808 849 823 836 829 849 830 850 814 855 826 771 842 810 873 829 768 863 804 845 832 826 782 828 822 819 830 898 866 882 826 817 853 810 826 783 794 789 756 868 778 801 804 807 804 784 881 830 820 844 819 855 866 781 851 777 811 853 872 790 819 848 811 832 823 847 837 865 807 783 764 850 812 817 814 837 832 803 820 791 849 850 793 838 790 863 835 816 837 798 820 842 820 780 798 799 832 836 830 821 811 856 861 820 767 777 839 795 865 855 871 814 787 817 844 842 810 850 841 785 794 837 799 805 847 813 773 806 780 851 841 813 805 775 759 807 794 788 815 773 791 835 793 829 812 764 832 813 864 875 829 848 831 833 839 742 830 842 824 836 858 837 774 826 770 775 808 816 815 825 829 811 820 845 812 818 829 818 851 770 867 772 830 791 798 798 789 823 796 854 782 814 812 793 816 834 817 808 816 800 842 851 856 778 816 833 831 829 815 793 813 818 803 773 811 807 836 785 842 813 778 793 813 822 816 813 773 812 853 824 779 776 824 820 826 848 795 813 793 866 861 812 802 836 806 838 834 834 810 803 851 821 842 811 851 863 877 859 913 866 902 870 907 895 884 938 939 895 852 900 923 926 917 961 983 876 893 967 952 863 924 903 930 891 973 916 927 872 884 931 835 891 837 879 876 912 900 861 814 836 836 887 901 883 862 919 925 843 926 860 904 891 872 875 895 872 944 931 963 986 1046 1106 1112 1152 1130 1217 1272 1282 1409 1414 1552 1515 1656 1588 1691 1646 1632 1739 1676 1796 1614 1666 1624 1611 1571 1587 1544 1558 1537 1585 1473 1490 1431 1327 1328 1341 1260 1292 1196 1159 1155 1101 1108 1062 1035 1092 967 1003 932 987 967 887 941 966 902 887 895 867 889 908 894 861 847 858 851 875 854 815 843 846 836 856 818 850 790 826 846 814 841 852 869 818 812 824 814 806 844 815 860 788 796 828 848 861 783 870 867 823 889 808 861 792 817 848 824 817 878 877 794 827 881 799 823 875 878 862 850 827 871 839 855 829 901 819 821 879 880 849 854 793 869 807 798 856 826 829 778 786 786 831 816 768 781 832 811 862 811 808 813 813 797 738 834 781 820 837 798 799 820 822 862 797 776 792 827 909 856 779 812 790 787 822 814 784 819 824 801 790 817 743 822 779 788 775 788 780 795 802 836 781 759 782 827 811 767 825 759 852 807 779 761 805 838 835 840 820 819 809 792 780 806 829 812 817 848 775 805 821 797 793 791 801 824 822 818 799 780 804 807 842 861 837 835 822 871 818 840 831 884 797 842 878 843 840 824 847 849 874 914 909 915 862 860 921 898 879 970 929 932 999 1054 1004 1044 1064 1105 1164 1285 1297 1415 1380 1462 1500 1583 1595 1775 1845 1807 2007 2051 2097 2149 2236 2293 2288 2155 2139 2220 2131 2145 2084 2082 2089 1974 2041 1931 2000 1928 1859 1896 1801 1734 1723 1592 1627 1507 1410 1343 1377 1270 1279 1295 1187 1161 1108 1125 1084 1031 1090 988 983 965 916 928 948 921 925 920 836 855 874 828 886 866 866 885 819 860 812 845 844 886 858 895 876 854 818 799 840 866 821 860 816 805 846 817 811 818 819 826 792 835 866 820 802 852 832 843 840 800 858 815 874 857 800 776 790 802 799 840 796 786 856 788 821 836 826 863 825 823 780 821 803 816 805 833 861 853 807 846 839 828 782 836 768 838 820 835 812 781 827 784 791 816 858 793 768 835 799 831 840 777 813 817 824 810 779 834 791 817 833 824 780 855 799 767 786 850 816 844 777 789 823 806 769 783 849 833 813 819 835 798 843 869 861 846 860 864 945 915 882 878 942 944 979 971 952 987 980 1014 1025 1057 1045 1084 1116 1093 1080 1137 1109 1129 1052 1167 1130 1053 1057 1164 1080 1020 1049 1042 1001 1027 989 966 1006 959 971 927 914 985 890 928 894 949 868 879 838 821 831 780 873 820 819 787 807 799 792 781 771 787 812 818 792 782 849 743 752 800 824 757 813 793 771 794 827 769 790 774 792 748 776 800 762 747 751 795 803 805 765 828 787 760 808 749 841 794 842 824 806 748 819 761 744 786 713 796 763 805 749 748 770 719 767 737 783 791 803 794 768 780 767 774 799 778 792 785 778 727 797 774 719 746 823 768 799 757 785 778 769 807 721 754 804 812 794 827 755 738 778 779 774 751 744 793 745 843 787 775 767 745 804 797 752 761 792 755 791 787 767 760 761 757 732 750 751 792 778 747 774 750 780 786 783 804 785 795 787 774 782 753 811 748 701 764 734 713 757 800 779 814 751 771 801 761 787 707 732 751 740 758 761 741 763 746 776 752 753 716 758 781 770 702 806 740 786 767 825 793 760 773 783 734 811 750 776 747 751 764 749 750 732 739 755 787 730 746 753 746 716 747 734 783 733 821 787 720 717 762 755 769 758 724 759 786 772 755 755 771 737 743 750 739 729 732 740 710 753 763 754 743 784 763 774 767 724 711 743 758 765 829 767 773 775 835 750 761 756 790 772 819 782 788 754 749 777 746 761 710 751 728 738 687 805 774 740 731 752 790 734 754 704 722 774 773 771 716 776 781 754 748 732 785 721 776 750 744 757 758 769 722 779 802 787 816 721 773 774 754 781 780 715 727 767 731 755 760 759 775 737 724 767 730 784 764 781 743 768 714 719 760 783 762 734 742 709 763 789 801 748 744 804 774 763 742 727 742 805 744 722 744 791 721 756 739 728 769 733 770 793 708 741 691 732 779 776 702 716 784 740 774 793 716 726 775 725 782 808 743 735 699 749 778 754 706 748 718 762 803 722 733 807 727 733 765 743 759 741 696 788 741 747 725 691 739 778 753 723 776 731 718 807 734 759 772 746 761 785 772 759 713 775 768 747 736 746 782 722 759 738 738 753 778 813 733 751 780 689 698 721 811 770 793 757 743 762 768 784 800 799 750 789 785 788 759 796 761 784 802 810 809 809 806 800 838 834 826 839 900 865 850 850 956 898 917 936 937 969 940 911 897 911 877 883 956 920 883 906 847 876 913 897 856 863 893 904 849 882 876 842 854 831 859 847 873 830 816 857 773 780 837 798 799 765 812 791 754 724 775 798 781 824 777 797 761 715 758 769 749 769 760 775 727 789 773 758 734 730 767 753 770 772 751 781 748 768 804 773 760 744 729 737 757 732 769 805 743 819 766 801 720 776 754 759 706 746 738 749 741 716 771 791 723 742 743 732 717 727 730 741 756 771 702 734 761 711 765 770 784 755 713 719 673 772 722 770 752 705 784 727 753 739 779 758 729 741 741 756 731 716 735 760 752 726 739 745 783 726 743 730 735 761 750 719 749 752 756 711 778 747 770 735 765 754 752 669 711 720 759 729 746 763 741 760 755 733 721 722 691 789 737 705 750 710 784 736 749 692 748 758 707 710 721 794 779 757 728 790 754 762 738 734 741 758 721 761 734 677 696 707 757 769 790 762 782 758 742 777 742 759 707 722 740 693 782 742 726 738 763 750 709 732 766 732 758 784 764 727 738 730 722 724 773 737 704 765 683 747 704 762 776 737 763 753 740 733 749 735 731 770 800 768 782 749 807 772 782 780 751 783 743 775 742 756 749 776 747 746 797 794 888 847 784 802 798 829 828 830 804 865 884 912 903 956 921 1007 879 1034 1042 1036 1050 1056 1027 1166 1220 1207 1261 1244 1313 1219 1282 1276 1258 1311 1265 1253 1313 1229 1276 1176 1169 1226 1114 1148 1208 1197 1182 1123 1200 1095 1100 1135 1063 1069 1034 1071 951 1047 949 947 980 937 896 880 933 871 858 888 866 856 815 860 843 785 847 821 787 825 797 831 859 742 743 708 784 725 828 759 797 795 805 803 762 774 799 760 740 738 774 838 762 758 765 752 767 777 750 747 705 760 728 771 729 757 732 737 754 764 730 682 780 758 761 777 753 781 688 773 777 743 807 772 723 724 764 736 783 733 710 726 734 742 749 791 686 735 765 779 767 735 708 739 754 754 813 762 734 737 796 763 746 703 767 765 828 777 725 771 718 778 805 755 764 731 788 777 774 731 731 695 774 726 759 735 809 744 734 750 743 770 722 721 740 772 709 703 759 743 752 749 726 702 698 754 725 753 767 724 749 700 749 725 718 797 775 713 743 716 743 721 737 743 706 787 760 707 761 712 710 719 774 801 733 759 762 718 713 750 731 775 741 764 838 770 659 720 740 743 721 729 725 753 768 749 738 777 704 740 754 772 734 755 763 753 715 719 678 746 760 709 744 747 727 768 735 784 718 793 688 743 697 740 777 771 723 711 730 749 740 781 709 760 741 681 702 741 698 705 764 731 690 740 733 744 681 753 715 740 733 736 776 754 722 729 754 728 734 726 681 780 711 712 750 762 730 744 756 746 762 706 705 767 720 735 747 719 745 782 727 746 733 720 719 730 746 726 702 770 730 747 698 743 730 746 726 758 743 728 800 742 747 694 771 749 730 760 663 717 756 712 742 728 740 721 717 678 747 786 780 725 760 721 724 734 743 725 734 728 751 792 750 744 767 729 727 757 751 719 743 766 759 749 740 738 709 723 754 778 762 717 702 748 699 697 741 760 785 717 751 754 758 755 727 710 737 742 778 714 712 754 755 737 703 753 686 723 725 733 754 744 743 704 740 735 713 748 753 816 749 759 748 755 746 744 761 758 705 737 753 713 708 777 735 731 740 759 745 743 749 729 780 766 774 773 702 732 761 676 747 710 757 754 728 737 764 729 694 724 746 763 822 734 703 680 804 736 718 756 727 732 717 732 763 781 736 731 798 780 730 762 695 695 737 722 752 738 725 725 707 792 738 690 729 759 765 750 725 792 692 761 739 798 734 687 724 713 680 732 753 766 719 737 702 738 704 718 756 739 752 727 761 748 758 722 689 721 783 675 711 720 739 686 762 769 707 768 757 740 726 729 729 723 751 662 742 751 734 726 750 700 752 735 781 752 717 714 722 698 745 715 754 718 736 729 724 730 712 721 729 715 739 727 789 773 758 765 777 735 721 700 766 778 786 714 755 813 764 750 778 758 735 694 751 741 719 758 739 763 745 749 707 762 757 759 765 712 734 685 688 708 780 751 729 804 703 777 702 775 776 757 730 743 777 762 736 761 764 747 763 789 772 788 822 825 807 775 811 818 772 836 789 827 872 837 863 789 860 847 833 834 923 905 909 887 829 881 883 881 831 846 844 883 839 873 861 829 901 873 894 843 788 799 853 830 829 869 840 804 827 842 885 765 769 801 766 810 815 823 777 844 877 798 862 828 831 856 907 898 929 902 943 939 983 997 968 924 956 928 981 969 1001 948 985 930 990 953 954 952 965 937 912 885 887 845 873 918 887 956 857 905 985 914 882 845 849 933 850 838 805 815 859 831 810 801 807 821 779 815 870 754 803 811 799 783 762 754 813 764 768 752 771 757 790 742 764 779 726 722 775 724 760 778 730 777 760 782 808 793 754 744 754 764 752 763 735 811 720 788 774 760 720 754 707 683 746 798 727 730 734 717 764 750 735 786 707 762 727 758 764 760 801 770 752 726 759 793 762 778 759 798 756 739 766 734 776 735 766 797 772 799 738 752 764 786 728 762 812 784 780 777 744 744 804 781 823 706 794 817 756 788 735 805 757 793 782 794 719 810 792 776 766 770 685 795 776 790 770 772 740 761 837 774 743 731 781 776 709 780 773 785 800 809 769 778 790 828 751 806 802 748 778 820 810 841 854 818 853 860 805 776 893 820 827 771 851 883 860 873 835 910 879 874 855 907 933 914 981 981 1028 1118 1025 1154 1151 1152 1249 1303 1313 1329 1355 1389 1516 1528 1560 1656 1584 1695 1730 1702 1745 1699 1803 1753 1842 1686 1740 1655 1651 1661 1697 1554 1551 1560 1626 1565 1475 1431 1513 1492 1505 1542 1401 1476 1456 1413 1342 1389 1265 1359 1256 1284 1264 1211 1154 1142 1148 1081 1009 1046 1035 1040 1015 997 972 957 915 876 898 892 855 889 886 871 883 814 871 849 831 789 836 815 803 799 803 811 843 801 802 751 775 819 796 754 775 843 821 794 807 790 789 803 759 781 800 797 756 805 763 721 799 803 773 784 781 762 744 780 752 762 791 729 809 810 740 767 800 749 759 779 739 787 768 763 775 740 774 793 732 827 828 843 763 774 854 781 786 766 760 781 758 759 787 766 736 836 760 792 790 778 842 791 782 819 798 852 825 839 763 838 820 778 793 785 772 785 793 778 783 815 825 844 819 834 832 897 837 881 854 845 867 848 833 896 872 896 898 883 873 854 840 827 853 900 834 867 883 808 848 820 800 826 840 889 850 824 863 853 853 785 807 796 847 738 785 770 823 773 771 817 807 796 808 778 782 775 761 823 820 718 757 770 730 766 745 785 769 778 762 752 796 747 729 807 767 743 780 747 821 793 753 780 780 736 758 782 773 743 762 788 765 765 787 757 803 740 773 787 762 717 783 715 735 760 773 738 747 775 743 726 718 743 704 765 743 749 749 764 740 763 724 763 789 720 746 778 774 764 771 702 728 715 706 756 792 764 734 744 697 754 750 685 713 740 745 741 781 757 772 716 722 720 729 706 731 749 781 732 763 757 756 751 710 741 772 754 677 706 750 724 745 713 727 770 736 734 744 682 740 726 733 732 732 757 758 758 710 720 722 756 712 772 747 732 759 739 785 737 733 754 796 710 736 726 747 753 721 712 731 752 744 772 760 738 773 707 707 725 672 731 748 743 723 775 736 728 733 778 747 733 731 763 712 725 769 759 703 688 751 721 754 736 747 761 726 724 772 720 692 724 775 687 714 753 767 728 753 701 726 711 706 692 743 758 731 760 700 714 754 770 739 690 715 686 731 733 722 731 769 763 749 741 683 764 754 752 765 776 707 739 762 700 757 730 768 728 723 782 772 750 763 696 751 723 723 714 819 653 761 733 713 746 755 701 725 758 782 699 736 745 727 728 730 724 754 755 736 722 726 716 732 696 720 791 724 727 721 705 722 668 752 702 744 741 765 718 711 736 707 765 740 747 710 758 704 705 778 710 744 743 749 712 817 723 790 782 690 766 774 712 741 724 688 767 759 724 707 743 768 748 737 719 742 743 702 731 696 736 785 750 711 702 743 758 786 735 750 770 722 704 779 715 716 771 739 723 740 757 737 727 729 774 767 762 729 744 763 762 718 713 765 772 711 759 755 745 762 797 755 766 765 765 694 754 782 707 764 800 701 776 732 772 709 727 777 773 784 761 744 747 737 754 790 771 767 768 822 803 803 770 749 795 861 815 824 816 797 865 834 829 844 801 900 896 823 849 838 834 803 821 813 889 827 809 822 813 852 796 823 800 778 798 839 800 850 795 845 852 832 785 766 800 768 823 839 811 755 781 767 755 809 801 770 809 781 753 756 754 792 766 741 758 739 761 736 741 722 735 792 749 732 751 792 733 753 749 757 762 788 733 730 790 730 742 706 770 720 769 745 759 778 726 769 713 766 713 767 743 757 717 743 713 715 799 701 741 773 725 734 778 736 710 748 730 760 700 746 758 706 775 693 761 680 764 762 677 698 757 717 730 755 758 671 744 696 692 767 755 736 726 728 678 758 767 732 721 797 755 752 721 729 790 734 730 728 795 712 749 759 726 724 779 737 759 696 727 721 732 752 730 726 744 762 743 720 732 767 754 720 731 794 696 792 717 758 677 729 736 758 743 709 786 785 752 724 737 742 772 759 737 737 743 772 734 759 730 755 691 752 777 740 776 758 757 744 742 760 729 752 754 760 820 740 748 757 774 745 749 779 710 782 720 752 750 771 774 723 758 733 762 802 786 789 755 801 767 719 758 730 762 763 793 816 782 802 796 773 737 790 775 838 808 783 809 818 791 819 811 845 837 877 892 855 852 885 927 896 953 955 990 1059 1043 1086 1080 1118 1124 1166 1195 1285 1219 1222 1319 1406 1343 1390 1431 1375 1460 1400 1509 1442 1431 1468 1439 1365 1352 1333 1277 1312 1315 1214 1232 1213 1279 1204 1290 1205 1224 1194 1151 1170 1216 1185 1195 1220 1146 1182 1138 1206 1240 1114 1109 1077 1121 1057 1064 997 962 1017 996 952 908 916 869 881 902 814 873 869 862 837 846 822 848 826 828 831 804 806 810 855 784 818 768 870 763 772 773 778 807 811 842 818 747 821 745 784 801 804 738 749 787 799 816 812 683 780 791 737 773 724 738 794 710 749 686 794 805 755 783 771 767 760 729 695 729 733 774 756 745 777 747 762 773 769 737 745 787 768 766 739 744 780 748 764 752 754 766 738 707 775 721 753 721 712 706 724 766 831 794 736 822 745 781 766 750 750 785 767 718 784 783 806 733 785 761 781 828 770 753 795 800 782 786 740 782 798 729 805 807 800 859 819 757 847 777 786 828 800 786 865 789 840 765 759 739 766 803 780 737 786 808 784 807 803 770 818 758 766 823 774 747 763 755 769 760 770 790 764 782 796 733 787 783 714 792 752 750 741 797 756 707 726 712 713 754 751 763 783 758 744 766 753 762 754 792 695 780 751 802 761 755 750 735 728 768 734 764 743 753 710 731 782 747 722 757 723 747 689 734 740 727 804 737 732 733 739 684 751 785 675 736 748 718 754 733 710 745 720 721 733 747 702 743 699 747 744 719 709 748 792 720 744 735 738 739 722 750 706 754 723 760 754 714 705 711 720 742 738 729 717 747 781 716 758 731 736 794 694 685 774 727 721 695 694 740 714 751 709 761 722 671 750 719 719 712 723 730 702 740 689 779 731 723 766 749 755 733 723 705 787 754 703 747 735 730 724 742 750 721 734 728 787 712 769 710 738 753 720 701 703 646 738 712 797 773 776 765 750 731 756 738 749 698 804 706 790 763 744 726 713 716 742 712 770 704 724 767 707 747 705 725 718 737 745 725 727 746 747 729 746 762 733 749 709 728 746 704 761 732 753 706 734 734 745 720 743 752 723 719 734 721 727 732 733 716 702 727 768 707 720 731 727 758 727 694 748 725 731 734 756 733 736 737 683 728 719 723 723 698 795 734 762 755 719 721 710 710 722 772 715 731 769 742 693 738 696 670 788 794 759 700 754 701 727 743 727 758 751 728 752 754 733 730 734 714 719 741 745 717 718 743 708 750 752 744 749 692 749 736 697 712 707 731 730 777 726 763 739 777 772 734 708 721 691 745 754 706 727 745 716 691 729 759 720 703 733 704 746 681 711 676 747 734 763 770 755 747 692 786 701 726 705 735 771 736 789 732 732 744 801 715 748 778 726 744 732 713 688 763 727 735 719 688 733 714 733 720 707 697 670 723 746 797 707 780 711 754 749 799 741 813 780 797 813 787 819 724 789 782 772 755 706 743 772 787 774 725 763 799 802 831 832 786 774 823 821 824 853 847 853 863 860 853 869 839 886 857 897 892 943 913 866 933 855 911 889 835 879 856 938 794 885 838 832 849 838 832 841 881 824 868 858 828 859 827 815 821 855 816 869 837 823 880 906 898 853 868 873 842 875 887 835 882 885 867 855 924 863 888 830 837 877 909 878 892 941 846 900 925 901 915 867</counts>
			</dataPoints>
		</scan>
	</xrdMeasurement>
</xrdMeasurements>
