<?xml version="1.0"?>
<xrdMeasurements xmlns="http://www.xrdml.com/XRDMeasurement/2.3" xmlns:xsi="http://www.w3.org/2001/XMLSchema-instance" xsi:schemaLocation="http://www.xrdml.com/XRDMeasurement/2.3 http://www.xrdml.com/XRDMeasurement/2.3/XRDMeasurement.xsd" status="Completed" recordIdentifier="{8C9A7421-9EBB-45E3-8B53-6A14A681E436}">
	<comment>
		<entry/>
	</comment>
	<sample type="To be analyzed">
		<id>GPSS_Li2Zn0p5Mn0p5Cl4_100725_68e5a91e07cf888582f93609</id>
		<name></name>
		<preparedBy></preparedBy>
	</sample>
	<xrdMeasurement measurementType="Scan" status="Completed" sampleMode="Reflection">
		<usedWavelength intended="K-Alpha 1">
			<kAlpha1 unit="Angstrom">1.5405980</kAlpha1>
			<kAlpha2 unit="Angstrom">1.5444260</kAlpha2>
			<kBeta unit="Angstrom">1.3922500</kBeta>
			<ratioKAlpha2KAlpha1>0.5000</ratioKAlpha2KAlpha1>
		</usedWavelength>
		<incidentBeamPath>
			<radius unit="mm">145.00</radius>
			<xRayTube id="1010048" name="Empyrean Cu LFF HR (9430 033 7310x)">
				<tension unit="kV">40.0</tension>
				<current unit="mA">15.0</current>
				<anodeMaterial>Cu</anodeMaterial>
				<focus type="Line">
					<length unit="mm">12.0</length>
					<width unit="mm">0.4</width>
					<takeOffAngle unit="deg">6.0</takeOffAngle>
				</focus>
			</xRayTube>
			<sollerSlit id="21010002" name="Soller slits 0.04 rad.">
				<opening unit="rad">0.0400</opening>
			</sollerSlit>
			<mask id="22031000" name="Fixed mask 13 mm">
				<width unit="mm">9.00</width>
			</mask>
			<divergenceSlit id="22120001" name="Divergence slit 1°" xsi:type="fixedDivergenceSlitType">
				<distanceToSample unit="mm">50.00</distanceToSample>
				<height unit="mm">1.52</height>
			</divergenceSlit>
		</incidentBeamPath>
		<sampleMovement xsi:type="spinningSampleMovementType">
			<spinnerRevolutionTime unit="seconds">1.0</spinnerRevolutionTime>
		</sampleMovement>
		<diffractedBeamPath>
			<radius unit="mm">145.00</radius>
			<antiScatterSlit id="22090040" name="AS slit 9 mm (PIXcel)" xsi:type="fixedAntiScatterSlitType">
				<height unit="mm">9.00</height>
			</antiScatterSlit>
			<sollerSlit id="21020003" name="Large Soller slits 0.04 rad.">
				<opening unit="rad">0.0400</opening>
			</sollerSlit>
			<filter id="20030001" name="Large beta-filter Nickel">
				<material>Ni</material>
				<thickness unit="mm">0.020</thickness>
			</filter>
			<detector id="7010019" name="PIXcel1D-Medipix3 detector" xsi:type="rtmsDetectorType">
				<phd unit="keV">
					<lowerLevel>4.02</lowerLevel>
					<upperLevel>11.27</upperLevel>
				</phd>
				<mode>Scanning</mode>
				<activeLength unit="deg">5.542</activeLength>
			</detector>
		</diffractedBeamPath>
		<scan appendNumber="0" mode="Continuous" scanAxis="Gonio" status="Completed">
			<header>
				<startTimeStamp>2025-10-09T13:09:21-07:00</startTimeStamp>
				<endTimeStamp>2025-10-09T13:17:28-07:00</endTimeStamp>
				<author>
					<name>AutomatedUser</name>
				</author>
				<source>
					<applicationSoftware version="1.7b (136)">PANalytical Aeris Instrument Suite</applicationSoftware>
					<instrumentControlSoftware version="3.2.00000000 20240306">AERIS</instrumentControlSoftware>
					<instrumentID>950485</instrumentID>
				</source>
			</header>
			<dataPoints>
				<positions axis="2Theta" unit="deg">
					<startPosition>10.00943322</startPosition>
					<endPosition>99.99442286</endPosition>
				</positions>
				<positions axis="Omega" unit="deg">
					<startPosition>5.00471661</startPosition>
					<endPosition>49.99721143</endPosition>
				</positions>
				<commonCountingTime unit="seconds">12.495</commonCountingTime>
				<counts unit="counts">2224 2103 2162 2231 2122 2041 2176 2180 2109 2115 2196 2129 2153 2133 2146 2153 2133 2166 2155 2088 2225 2063 2227 2202 2074 2190 2113 2155 2122 2188 2051 2053 2086 2149 2101 2113 2138 2056 2087 2124 2133 2157 2043 2135 2096 2132 2146 2105 2150 2076 2125 2159 2089 2108 2056 2125 2080 2159 2138 2122 2221 2182 2029 2108 2089 2205 2075 2138 2141 2079 2150 2098 2275 2092 2100 2104 2160 2152 2167 2105 2046 2080 2166 2127 2139 2093 2071 2109 2089 2072 2108 2046 2104 2098 1994 2069 2055 2030 2055 1998 2076 1957 2033 2024 2110 2055 2003 2006 1995 2033 2000 1989 2055 2063 1979 2064 2050 1993 2043 2004 1990 2005 1965 2025 1987 2042 1999 2052 2006 1971 1989 1934 2074 1915 1986 1962 1994 1970 1939 1964 1962 2016 1933 1900 1929 1904 2023 1938 1916 2024 1994 2013 2016 2002 2039 1914 2008 1943 1957 1942 2027 1936 1972 1882 1975 1944 1890 1921 1987 1987 1997 1954 1925 1944 1874 1925 1862 1954 1883 1976 1977 2014 1946 1959 1876 1899 1967 1910 1911 1897 1869 1918 1980 1846 1908 1902 1915 1912 1919 1947 1884 1920 1913 1892 1905 1896 1875 1896 1875 1844 1872 1950 1935 1857 1928 1832 1998 1891 1917 1951 1928 1968 1866 1952 1877 1857 1949 1981 1884 1931 1806 1816 1865 1881 1868 1894 1890 1820 1904 1879 1844 1854 1881 1885 1822 1824 1831 1805 1873 1843 1854 1860 1804 1807 1829 1852 1783 1812 1803 1758 1740 1803 1846 1771 1775 1780 1792 1811 1783 1807 1750 1808 1804 1757 1861 1732 1868 1755 1778 1768 1803 1825 1836 1712 1768 1783 1794 1757 1801 1765 1772 1790 1819 1696 1759 1732 1717 1785 1766 1781 1764 1794 1714 1783 1839 1740 1706 1772 1712 1674 1766 1721 1757 1719 1678 1652 1734 1692 1755 1752 1710 1717 1762 1710 1748 1583 1673 1701 1588 1761 1681 1738 1675 1655 1698 1655 1623 1673 1650 1661 1570 1618 1725 1572 1660 1672 1660 1584 1748 1681 1771 1700 1697 1660 1684 1692 1654 1684 1625 1719 1827 1681 1671 1660 1690 1610 1678 1627 1631 1650 1623 1648 1713 1591 1582 1743 1645 1682 1665 1605 1617 1553 1607 1696 1674 1641 1648 1660 1648 1643 1552 1630 1653 1570 1584 1685 1631 1606 1645 1568 1669 1622 1703 1671 1661 1610 1707 1633 1617 1669 1694 1692 1699 1648 1775 1773 1713 1727 1774 1749 1663 1662 1669 1587 1702 1637 1645 1646 1631 1651 1637 1598 1600 1616 1700 1670 1641 1633 1685 1758 1646 1694 1702 1649 1600 1652 1631 1658 1693 1643 1738 1749 1615 1773 1708 1661 1788 1801 1810 1745 1932 1919 1943 1936 1959 1922 1875 1866 1971 1859 1914 1802 1844 1835 1923 1773 1826 1774 1896 1840 1829 1856 1774 1750 1777 1761 1894 1855 1842 1838 1841 1873 1839 1706 1792 1710 1748 1726 1725 1694 1734 1689 1652 1601 1702 1633 1650 1682 1682 1590 1695 1671 1700 1666 1668 1573 1672 1601 1687 1654 1623 1620 1592 1649 1609 1545 1609 1647 1566 1569 1609 1547 1486 1501 1603 1533 1566 1546 1547 1561 1516 1489 1521 1495 1516 1533 1563 1595 1524 1620 1527 1592 1569 1561 1579 1545 1502 1568 1619 1536 1525 1584 1556 1538 1436 1550 1548 1604 1568 1577 1612 1561 1649 1484 1573 1579 1547 1444 1515 1530 1500 1484 1503 1526 1530 1440 1467 1503 1542 1486 1532 1487 1383 1476 1350 1493 1441 1446 1483 1512 1506 1440 1453 1477 1420 1398 1482 1452 1408 1353 1414 1382 1400 1460 1409 1414 1366 1325 1405 1404 1400 1356 1353 1388 1397 1342 1461 1416 1457 1436 1351 1381 1353 1347 1368 1367 1421 1343 1375 1394 1369 1375 1419 1416 1431 1413 1395 1431 1502 1396 1493 1487 1546 1407 1524 1502 1544 1557 1688 1591 1580 1547 1562 1526 1542 1549 1430 1454 1390 1505 1504 1468 1491 1419 1490 1496 1459 1440 1399 1385 1380 1353 1389 1430 1424 1462 1336 1439 1392 1355 1383 1410 1326 1395 1337 1362 1284 1333 1355 1337 1337 1365 1354 1337 1359 1282 1361 1275 1372 1335 1307 1316 1316 1250 1321 1358 1319 1316 1317 1361 1334 1369 1320 1277 1282 1366 1308 1383 1321 1363 1346 1327 1315 1310 1301 1303 1286 1244 1222 1274 1305 1329 1271 1274 1313 1333 1281 1290 1327 1356 1406 1298 1358 1375 1426 1412 1393 1497 1393 1340 1434 1419 1384 1365 1376 1345 1323 1288 1355 1353 1315 1386 1399 1346 1261 1374 1229 1284 1289 1259 1344 1375 1287 1330 1304 1305 1248 1260 1302 1273 1324 1247 1310 1288 1251 1301 1375 1320 1290 1272 1256 1285 1356 1315 1280 1253 1279 1234 1247 1261 1285 1235 1260 1199 1270 1273 1237 1223 1255 1310 1188 1207 1214 1256 1204 1247 1257 1193 1221 1258 1236 1195 1190 1237 1161 1193 1223 1240 1139 1188 1257 1269 1182 1216 1132 1261 1239 1199 1132 1155 1212 1152 1237 1145 1257 1195 1217 1255 1190 1232 1219 1172 1224 1167 1198 1229 1211 1194 1206 1224 1226 1205 1168 1140 1173 1185 1205 1185 1254 1230 1232 1243 1235 1220 1219 1249 1237 1207 1214 1232 1198 1225 1152 1185 1139 1238 1150 1151 1139 1205 1186 1253 1228 1144 1185 1198 1143 1192 1134 1173 1169 1280 1263 1207 1246 1186 1157 1206 1183 1245 1245 1280 1266 1272 1351 1216 1351 1248 1228 1249 1237 1285 1265 1195 1170 1249 1196 1223 1137 1194 1174 1246 1199 1142 1213 1098 1156 1136 1168 1170 1147 1118 1173 1156 1055 1152 1123 1116 1066 1123 1114 1159 1106 1104 1161 1112 1109 1137 1200 1179 1097 1143 1122 1081 1119 1086 1095 1096 1072 1074 1139 1105 1084 1129 1115 1094 1176 1039 1132 1076 1127 1105 1103 1148 1110 1154 1055 1149 1101 1052 1110 1112 1071 1064 1136 1090 1101 1045 1035 1098 1139 1107 1115 1117 1065 1138 1063 1074 1102 1099 1076 1125 1194 1169 1072 1097 1092 1108 1075 1111 1073 1090 1109 1105 1119 1074 1119 1090 1051 1075 1033 1075 1099 1095 1118 1104 1136 1149 1088 1098 1087 1092 1109 1088 1115 1129 1101 1173 1121 1062 1111 1078 1037 1091 1076 1090 1040 1055 1031 1034 1072 1034 1070 1067 1027 1086 1092 1017 1028 1034 1111 1099 1067 1064 1031 1041 1127 1064 1112 1018 1063 1078 994 1133 1133 1056 1113 1117 1108 1137 1195 1099 1175 1149 1137 1184 1193 1158 1180 1205 1175 1188 1122 1114 1146 1132 1077 1103 1119 1018 1032 1132 1143 1093 1065 1048 1080 1098 1077 1110 1069 1091 1021 1104 1081 1059 1080 1029 1017 1075 1039 1061 1095 1067 1051 1053 998 1029 992 1046 1025 1027 1035 1025 1049 1033 1040 1075 987 1015 991 1033 1058 1001 1059 1060 1034 1025 1039 1047 1095 1010 1027 1117 1018 1020 1065 1026 1112 1074 1078 1117 1105 1052 1083 1057 1110 1067 1044 1070 1047 1085 1018 1033 1054 1066 1046 1037 1074 1069 1009 1067 1059 1077 1036 1073 1070 1018 1121 1034 1082 1113 1053 1082 1158 1034 1136 1200 1212 1243 1161 1185 1153 1178 1119 1154 1142 1091 1060 1069 1061 1057 1101 1027 1079 1021 1070 1009 994 1087 1028 1062 999 989 1057 986 1053 1016 1018 965 1001 968 995 995 961 976 942 956 992 972 937 918 1014 999 1006 977 999 982 1014 1014 948 1064 1035 1012 1066 985 992 1019 1018 990 989 999 990 994 1049 979 979 986 986 992 990 940 998 994 955 1024 942 1017 972 944 971 917 1030 967 965 971 1023 993 1015 1039 1008 1001 953 1063 1024 1043 930 950 1004 948 983 960 958 943 961 931 1012 917 958 916 1050 954 943 974 939 1034 991 998 920 902 964 948 995 990 1024 924 968 948 909 929 949 1022 1011 951 947 1017 942 963 1023 970 952 923 924 981 1011 954 1044 1053 957 1005 1005 999 1010 1036 985 1028 1021 1023 1043 1055 1012 1039 1038 1023 1075 1029 1026 1067 1021 1013 1031 1001 993 1038 1021 938 943 934 947 999 1020 969 981 997 972 950 960 1016 1027 997 996 1022 1034 978 1036 985 1003 919 942 960 1001 979 930 994 942 975 1008 925 976 923 952 920 873 930 960 955 936 925 951 938 925 953 930 880 908 948 913 949 960 904 939 939 935 979 880 915 989 964 942 918 897 878 897 904 891 922 889 954 884 950 961 911 920 900 921 944 922 933 905 934 919 962 902 850 890 920 917 958 906 913 913 914 924 889 965 933 945 873 913 884 870 911 992 921 977 916 891 893 909 914 897 914 965 926 904 909 912 917 893 875 910 953 882 942 914 925 903 838 917 927 901 841 901 905 884 944 927 924 913 933 911 955 890 918 896 922 924 966 858 840 865 928 921 879 932 905 928 926 926 974 902 949 983 950 932 987 970 1004 999 974 971 1104 1012 1003 1020 1034 1038 1039 1021 1060 1047 1011 1070 1088 1028 1045 1056 1089 1055 1087 1038 1056 977 966 1003 932 973 1015 1016 970 1029 1021 931 949 982 972 991 977 953 940 982 950 968 985 968 925 983 1007 967 951 979 1018 962 997 1042 992 1040 992 1048 975 1012 984 1108 1021 1011 1004 1003 1012 962 973 1010 953 1006 966 1017 961 1022 982 984 964 964 979 976 880 947 961 942 984 1052 1049 998 1010 1052 1049 1071 1079 1084 1107 1141 1132 1157 1105 1153 1132 1144 1163 1128 1117 1076 1096 1096 1060 1046 1071 1088 1051 971 1032 1043 969 1038 1017 978 972 985 983 1007 930 942 954 981 993 963 960 1012 941 1009 999 1031 1013 989 1061 1046 1138 1038 1127 1005 1102 1058 1000 1080 1035 1051 1030 999 959 963 937 1020 979 962 944 964 1039 927 965 986 938 936 936 913 975 1010 1024 875 1002 964 988 960 945 956 977 900 968 994 945 936 1024 1006 1003 1003 1008 1037 1067 983 1176 926 1240 1050 1342 1110 1441 1153 1484 1289 1474 1350 1605 1383 1545 1354 1460 1230 1319 1279 1154 1139 1137 1058 1067 1120 1098 959 1034 1041 982 1000 1042 1024 996 1021 999 985 1041 990 971 1000 1014 989 963 978 985 977 970 1059 996 1011 1049 1050 1083 1105 1078 1136 1128 1187 1138 1162 1331 1331 1472 1568 1688 1881 2034 2217 2298 2398 2429 2700 2830 2965 3243 3158 3152 2771 2744 2566 2490 2389 2369 2173 2060 1823 1767 1684 1630 1524 1472 1494 1429 1384 1393 1431 1335 1402 1346 1296 1392 1327 1328 1361 1394 1391 1374 1372 1357 1369 1386 1429 1518 1360 1388 1376 1409 1385 1344 1307 1276 1288 1269 1252 1280 1243 1165 1029 1133 1102 1090 1069 1097 1074 1041 1070 1003 1048 1045 1020 1075 1001 993 956 1028 1022 963 954 1026 922 917 917 932 944 892 943 948 943 932 903 956 895 950 951 914 969 1022 964 923 921 971 960 917 987 927 988 998 1045 1043 1068 1058 1084 1046 1047 1021 1046 1139 1107 1038 1055 1107 1102 1023 1145 1134 1139 1072 1027 1139 1109 1017 1063 1064 990 1016 1086 1081 1035 1042 1056 1043 1030 981 1013 991 1040 968 1050 976 1072 984 1060 1030 1061 1017 1044 1021 1029 954 1028 981 999 970 989 965 911 996 968 939 981 948 971 945 962 946 969 946 974 996 984 1009 1014 966 995 987 1028 985 987 1018 1063 970 1004 1012 1035 982 1011 1051 1065 1073 1085 1072 1131 1122 1237 1276 1260 1294 1333 1338 1337 1370 1417 1449 1460 1386 1481 1484 1422 1536 1474 1457 1439 1547 1493 1398 1451 1464 1441 1418 1404 1401 1394 1393 1301 1336 1246 1311 1194 1252 1240 1219 1232 1247 1245 1198 1188 1220 1259 1143 1207 1166 1136 1145 1166 1179 1144 1153 1155 1124 1115 1160 1065 1130 1143 1084 1058 1075 1069 978 1012 1067 1066 1074 1021 1093 1052 1015 998 1070 992 1027 1003 1026 1021 1049 1057 1050 1080 1066 1027 1076 1110 1063 1096 1109 1097 1098 1088 1115 1120 1119 1070 1049 1046 1007 1030 1124 1011 1040 969 1050 928 978 940 952 1005 967 1017 957 950 883 979 934 1018 989 975 1004 1006 1010 971 1013 1023 960 1011 973 988 1075 970 914 877 936 934 945 944 957 1000 971 946 907 956 930 941 952 917 987 989 930 911 954 902 909 928 898 937 954 958 962 963 931 937 951 976 992 1017 995 1011 1024 1050 1005 1026 1012 1044 1023 1042 1005 996 1031 980 1005 1014 933 948 998 980 994 978 954 1017 964 993 1021 1007 1071 1048 1085 1128 1113 1120 1101 1114 1165 1103 1148 1137 1214 1171 1203 1245 1235 1247 1230 1211 1242 1264 1225 1282 1347 1311 1360 1318 1381 1458 1589 1695 1759 2009 2249 2577 2924 3649 4117 5125 6005 6467 6681 6411 6150 5928 5361 5030 4670 4526 4331 4044 3687 3426 3042 2690 2339 1985 1827 1670 1750 1681 1680 1577 1710 1658 1561 1505 1472 1421 1439 1369 1347 1336 1303 1239 1211 1142 1101 1097 1076 1165 957 985 1021 1033 903 994 912 943 924 888 932 856 918 885 938 922 897 875 876 874 956 926 888 862 900 916 923 899 901 897 884 937 904 894 877 909 883 877 862 937 930 943 950 944 899 894 964 991 880 848 923 890 951 932 947 894 874 921 872 855 911 891 840 818 852 835 868 841 850 914 884 829 824 817 856 862 854 886 850 872 806 805 793 846 825 785 773 749 763 768 760 807 792 771 800 781 765 738 816 771 740 781 765 764 743 687 722 793 771 779 775 756 735 736 777 742 733 806 764 733 773 735 752 691 719 719 728 746 771 721 737 778 714 718 769 696 788 739 730 768 764 735 772 719 750 781 778 726 752 788 796 780 800 807 777 798 844 795 825 831 817 856 808 780 861 830 824 842 808 853 835 758 795 761 802 800 810 795 769 817 790 758 770 758 739 735 784 730 728 731 699 759 755 770 759 746 743 719 755 791 763 733 753 811 779 746 777 746 783 782 816 777 756 797 760 715 775 761 785 743 753 754 784 758 786 800 774 766 827 781 839 823 847 845 875 845 865 881 850 879 952 928 959 941 1041 929 1005 1033 969 989 923 955 980 971 973 896 946 865 883 938 884 816 846 835 832 786 776 828 779 747 766 784 782 755 819 735 784 798 775 735 755 745 760 764 728 729 710 765 738 723 811 700 753 774 750 686 739 742 744 797 790 736 735 698 767 756 737 765 731 788 717 778 735 742 744 696 735 707 722 746 747 698 746 728 754 695 719 777 755 700 767 701 725 726 753 676 740 723 718 704 715 739 686 755 728 748 737 710 762 792 727 765 774 768 705 764 785 836 787 795 806 832 885 905 891 880 880 892 891 911 868 907 881 946 867 897 865 855 869 868 840 841 834 782 866 878 758 830 762 765 781 776 727 787 745 772 766 766 727 786 724 726 764 731 717 737 718 729 742 734 680 725 729 687 686 748 698 722 713 698 705 713 659 673 673 663 714 670 686 717 664 678 737 676 661 662 726 711 706 709 701 737 749 741 710 702 677 739 724 704 707 752 662 702 651 716 728 665 716 683 681 724 709 779 683 715 683 695 716 690 699 737 676 685 705 669 689 696 682 776 747 705 742 700 752 717 788 676 710 715 702 646 751 690 723 742 726 680 701 675 669 688 683 677 650 708 694 691 685 702 725 734 745 696 695 672 640 707 683 710 702 677 711 712 700 700 730 735 689 661 672 655 717 661 711 716 681 683 667 666 656 705 641 705 701 707 682 681 665 652 679 624 673 664 675 672 724 627 679 672 654 675 671 657 697 715 688 708 658 714 679 662 675 679 659 656 643 655 649 703 675 703 703 668 653 718 641 699 624 668 639 676 641 673 667 636 665 651 655 683 651 628 687 660 676 657 707 665 695 719 626 658 688 677 718 693 656 697 690 676 642 637 635 650 620 667 723 695 661 702 666 666 639 646 676 677 631 655 725 677 688 652 662 710 694 694 707 691 655 704 716 687 709 729 670 763 724 707 747 659 706 686 763 706 712 714 728 668 703 650 736 701 698 700 730 702 708 716 678 727 757 677 681 716 741 686 701 682 702 675 653 706 691 742 708 694 676 670 660 741 729 683 634 664 708 680 728 735 706 691 717 627 688 668 661 703 651 689 668 687 691 710 727 705 665 702 668 686 744 609 732 714 674 692 717 677 684 734 689 712 705 678 708 713 721 707 693 732 710 716 717 727 707 733 720 666 722 690 757 735 754 764 745 727 764 735 786 730 784 787 761 742 800 770 789 769 846 796 773 768 805 773 811 774 798 784 798 800 764 752 812 781 790 752 807 747 780 746 783 795 732 752 778 779 781 757 720 807 752 751 737 733 745 755 732 719 724 736 774 759 782 716 745 695 752 732 707 740 703 716 714 770 739 730 745 757 746 757 759 710 704 762 780 704 736 714 692 733 743 735 725 725 696 761 713 715 656 761 691 744 746 737 762 751 754 736 740 698 737 777 744 757 737 801 713 768 703 728 714 747 752 742 757 724 773 757 711 733 703 649 732 711 667 719 718 708 715 705 729 731 704 727 708 677 716 693 734 702 697 724 704 696 702 680 732 692 695 693 654 708 756 673 708 713 694 714 641 677 682 664 669 694 652 646 668 667 670 644 672 658 740 684 652 661 660 684 690 681 646 665 683 688 707 748 682 724 658 728 702 661 729 687 740 734 703 706 656 725 700 655 741 720 746 675 718 703 698 690 735 657 674 667 703 681 710 686 633 646 691 709 707 690 662 700 713 635 707 720 643 654 634 651 697 693 650 673 700 664 684 651 666 680 698 669 645 690 746 708 712 708 717 708 718 748 705 730 726 717 729 724 766 757 753 712 749 681 719 713 702 727 723 704 692 786 728 731 757 731 757 709 693 674 681 680 657 757 698 687 702 685 690 672 730 694 691 677 685 722 715 702 737 730 718 660 760 689 726 751 741 728 712 793 714 773 748 740 758 792 807 792 761 780 793 795 806 832 818 823 840 861 838 849 840 791 766 777 814 795 798 822 778 773 820 783 812 809 769 786 748 789 798 818 802 780 832 814 829 797 820 850 853 783 823 871 811 820 780 864 795 814 838 832 812 770 798 788 797 737 789 772 783 727 768 812 787 764 732 762 688 761 755 753 780 726 759 742 739 768 687 709 704 672 723 711 693 703 757 694 723 714 700 663 687 754 734 758 752 748 732 697 708 684 695 732 665 752 765 742 718 716 735 716 691 724 716 747 691 752 670 737 723 699 694 717 645 690 659 667 715 670 686 724 696 679 690 737 745 731 702 735 755 669 712 710 740 729 722 735 730 747 704 732 686 721 661 705 724 713 723 735 672 705 713 705 774 755 708 803 768 752 769 788 840 900 824 945 931 945 966 967 965 999 1006 994 1052 978 985 980 1043 1006 1015 1021 1055 907 1014 951 955 914 987 969 905 906 949 967 938 974 966 868 865 920 917 938 877 911 845 840 884 812 926 853 826 864 882 848 859 858 855 787 756 797 819 811 820 818 868 791 900 781 834 866 862 885 851 869 947 902 871 892 923 894 913 864 930 944 919 934 906 919 976 929 992 992 995 1022 1067 1049 1077 1128 1225 1355 1457 1602 1812 1952 2204 2171 2141 2059 1759 1748 1554 1540 1463 1502 1518 1593 1586 1780 1595 1545 1403 1295 1218 1143 1077 1010 1024 917 977 881 977 948 961 894 903 865 862 852 822 809 878 839 858 843 802 774 758 782 785 792 777 780 798 772 769 711 800 753 757 721 734 700 752 741 770 744 717 736 732 694 722 722 735 714 656 681 726 733 749 701 653 774 677 739 702 708 715 676 683 709 687 702 731 704 734 703 707 724 658 714 658 652 688 635 767 688 672 710 723 688 683 748 718 730 718 713 732 719 681 685 667 715 661 719 694 683 680 680 705 696 708 681 672 678 689 683 643 684 613 681 744 639 645 645 669 685 672 646 708 685 703 668 617 691 690 673 650 681 674 665 662 650 633 599 647 642 636 694 662 658 648 630 677 648 654 664 636 667 670 664 644 724 675 663 697 654 699 657 644 688 658 645 624 710 686 716 751 701 690 650 673 635 670 677 673 666 667 682 663 620 635 626 694 630 651 671 653 676 632 633 637 664 654 640 638 633 634 668 665 624 706 651 640 693 681 667 640 693 613 617 689 646 638 659 667 669 626 651 642 654 626 597 638 664 629 634 666 662 650 651 620 658 663 652 670 698 682 706 633 579 666 668 664 689 672 697 678 693 642 685 670 645 671 641 674 665 675 642 667 690 621 683 636 716 671 673 700 631 734 697 697 686 734 678 625 678 671 731 697 708 613 680 661 661 677 693 661 678 659 661 668 654 671 644 702 626 617 662 624 690 636 694 639 664 681 663 643 668 647 714 663 665 636 668 631 636 670 572 618 590 617 609 616 668 720 616 662 612 627 610 662 654 641 650 611 669 616 624 615 607 664 587 649 668 625 648 629 648 609 634 612 623 622 635 594 642 640 593 614 642 602 649 654 636 674 589 653 636 666 623 661 669 680 661 613 683 697 645 655 672 673 628 678 671 648 620 644 655 679 677 650 646 639 669 621 677 627 688 640 660 660 666 662 654 666 683 674 635 646 667 717 670 683 629 665 624 651 615 629 631 630 643 581 666 671 620 644 632 622 682 645 633 627 585 596 646 611 629 639 586 620 655 617 630 653 597 632 599 603 601 649 606 604 657 627 698 640 636 588 656 586 620 608 639 598 638 594 577 633 597 606 613 607 582 625 619 604 590 628 641 623 620 613 610 687 647 622 597 644 532 608 611 612 604 603 629 607 588 630 596 640 623 625 616 621 627 660 647 648 626 614 585 646 633 609 657 613 596 614 628 614 679 617 618 614 694 648 604 633 642 686 634 659 595 644 612 684 678 653 680 597 671 638 701 598 628 644 671 622 670 626 639 651 710 668 708 715 700 670 645 661 606 609 638 661 627 620 636 615 672 656 619 612 642 604 666 650 691 611 611 612 615 607 649 648 632 634 581 618 601 639 611 643 643 626 594 618 618 632 644 626 654 616 602 633 604 623 633 595 644 671 684 661 611 676 644 599 696 649 621 669 623 659 642 627 634 618 586 676 627 686 633 679 620 652 632 684 615 635 602 615 649 686 649 573 610 624 620 618 631 662 665 708 606 638 623 647 628 648 623 610 623 636 601 542 609 611 611 572 595 615 604 617 622 628 647 629 615 634 628 581 589 596 597 613 614 605 645 681 587 602 614 629 622 605 602 623 622 634 584 594 635 605 599 609 638 622 616 596 607 612 645 656 604 692 611 607 592 575 605 608 605 604 601 619 616 637 633 605 636 589 646 657 616 593 637 605 606 670 623 633 645 641 627 631 616 593 611 622 618 621 656 618 642 651 662 609 641 609 672 580 653 633 629 642 669 633 663 619 627 689 617 625 659 624 632 651 634 650 631 604 613 612 623 661 612 582 625 617 592 616 695 649 637 651 657 668 611 590 664 614 603 636 630 634 639 669 631 670 578 670 654 638 606 662 692 668 646 613 639 637 700 615 681 632 695 663 691 695 699 640 714 669 717 723 783 797 883 809 878 935 926 989 963 1008 994 909 982 926 980 905 906 838 866 883 892 865 895 887 874 823 841 843 791 809 784 719 759 787 703 730 636 690 663 656 677 636 648 611 677 667 647 694 608 620 710 613 645 648 629 646 647 640 616 639 647 651 665 669 622 682 613 610 647 646 637 659 633 620 641 627 625 599 616 655 594 645 587 617 650 597 642 673 623 593 610 632 654 600 572 595 623 630 625 574 608 595 623 631 590 590 642 584 579 655 609 596 595 605 638 571 585 580 575 609 537 574 615 567 595 575 578 569 586 576 591 649 621 586 584 548 521 556 616 540 587 567 595 589 578 562 575 543 547 574 615 598 590 581 594 545 574 552 638 539 563 576 598 553 555 612 554 627 557 585 548 603 609 556 551 585 629 593 587 597 591 563 591 581 597 574 609 543 628 582 590 631 594 591 607 616 562 595 616 604 642 599 530 581 568 594 570 580 647 596 591 584 560 545 609 604 540 597 569 588 587 595 580 557 555 610 552 590 541 578 614 539 541 590 576 530 615 568 539 570 600 543 619 562 565 592 576 608 558 632 615 551 646 548 543 593 638 586 632 634 543 596 582 586 603 608 590 570 667 624 630 586 615 659 691 694 718 768 725 783 735 770 800 778 718 684 680 650 665 647 675 649 692 694 730 631 686 676 668 668 626 652 636 582 607 609 545 583 552 621 609 610 561 606 565 526 563 582 582 583 588 525 544 533 580 551 571 561 532 577 535 545 575 569 545 576 553 549 500 550 525 570 585 547 549 535 532 534 577 529 598 584 573 544 526 596 569 567 550 548 546 587 548 577 560 574 565 564 554 551 588 543 514 600 534 574 531 539 567 537 506 549 552 573 565 557 586 575 608 561 544 529 549 566 577 541 538 561 552 614 578 530 583 608 604 609 580 589 565 593 549 596 589 599 518 590 562 544 567 566 610 554 585 569 596 556 569 587 610 583 591 582 575 592 537 515 608 561 579 579 558 485 522 556 540 550 578 593 537 569 587 548 514 563 534 559 581 556 582 521 557 567 556 548 565 547 535 564 541 539 541 543 547 518 534 532 519 517 526 530 557 578 541 540 528 531 511 522 535 563 541 552 541 569 564 539 537 587 536 560 521 539 570 512 546 523 506 504 563 507 572 528 531 557 560 555 519 539 553 521 475 575 534 557 556 541 518 572 543 572 548 534 524 520 565 518 552 505 565 524 530 587 564 548 540 568 501 531 552 535 554 567 526 526 588 602 522 545 577 549 560 608 554 541 519 544 559 588 562 529 553 604 557 543 556 594 567 565 559 540 560 558 557 546 498 534 518 529 535 548 478 501 539 529 553 557 544 543 542 523 526 580 596 538 526 546 538 587 499 556 528 533 525 512 561 552 502 594 513 564 514 559 501 546 530 524 529 525 520 532 564 566 520 557 558 513 500 586 585 527 517 531 562 568 526 521 498 546 524 532 533 551 526 564 540 544 523 541 527 557 481 529 510 538 524 506 529 577 511 493 550 516 498 513 530 505 519 488 529 505 567 501 553 480 539 503 517 515 530 528 522 532 532 548 521 492 497 512 522 503 526 541 539 528 522 518 498 507 520 537 544 505 532 561 560 489 537 556 529 524 495 536 492 552 498 560 541 560 521 578 551 496 520 512 502 489 526 502 489 534 502 494 543 464 509 559 552 518 497 507 534 546 530 529 485 519 518 546 552 551 575 515 568 551 546 521 534 530 558 542 547 518 549 563 537 540 584 526 550 554 545 515 551 539 558 566 525 515 538 566 542 525 503 529 534 567 534 542 543 537 592 535 524 549 523 532 571 503 513 559 505 541 529 542 496 521 546 532 564 555 555 511 519 545 551 528 529 564 539 528 557 567 547 546 529 544 479 490 501 496 509 481 536 492 553 521 520 539 541 587 544 544 550 473 506 535 498 470 524 494 519 507 502 510 541 527 537 525 531 562 504 497 529 532 509 521 523 522 484 489 554 509 533 503 537 510 485 490 504 485 505 512 514 514 519 509 501 514 555 523 516 530 539 495 519 544 518 536 513 520 555 525 515 533 550 531 534 565 522 492 543 555 519 510 550 531 488 561 557 550 513 566 557 515 507 532 554 557 513 544 527 546 616 476 555 543 586 567 507 464 500 544 514 500 510 505 520 508 502 531 503 521 492 523 503 515 501 534 510 517 523 498 514 529 494 525 502 536 505 477 515 510 492 509 521 501 522 507 529 529 536 509 529 521 545 524 502 505 474 492 538 500 542 518 499 514 526 507 496 532 539 471 502 502 493 506 518 504 500 495 556 558 514 495 505 549 533 566 498 514 518 504 512 516 503 482 540 450 505 484 509 489 526 513 505 503 474 499 489 498 499 494 516 509 504 454 520 500 500 526 520 508 502 483 548 505 449 517 485 500 533 505 489 524 478 484 519 522 433 528 520 527 484 519 494 523 503 490 499 479 490 534 510 503 520 523 513 505 519 510 508 476 471 470 460 482 467 521 489 510 488 491 485 508 495 529 500 468 505 487 525 489 516 494 549 499 546 514 530 524 508 497 503 515 504 483 482 490 510 534 511 477 490 501 488 502 487 489 502 525 495 526 540 515 499 493 504 466 522 536 539 442 479 470 499 495 495 498 506 527 498 526 528 496 460 504 477 493 458 503 517 494 483 490 501 473 521 534 534 495 479 503 466 511 480 515 532 510 486 530 525 528 491 533 544 487 493 503 478 536 481 555 539 514 565 510 529 522 555 519 516 550 503 501 490 534 544 520 521 477 534 463 552 521 473 511 536 483 508 530 484 522 493 542 523 530 550 536 523 495 532 520 525 488 525 542 509 495 514 552 507 555 555 557 498 540 515 483 518 471 483 491 470 517 514 500 517 499 509 559 531 519 513 573 519 485 526 523 505 505 520 524 538 555 587 572 536 574 631 655 670 718 718 766 730 719 698 645 635 615 615 579 583 548 562 567 551 599 610 574 612 625 631 603 592 654 581 604 578 552 528 500 527 501 563 539 536 540 486 519 540 494 495 536 469 495 474 540 496 497 472 474 507 533 450 468 497 529 487 515 515 499 493 481 550 504 480 486 497 532 494 494 459 480 514 501 462 430 538 482 514 514 509 498 520 523 493 479 487 483 524 484 469 506 498 534 478 484 520 485 499 508 536 506 500 538 492 518 469 476 530 494 521 511 505 502 463 500 449 491 487 475 528 480 487 490 486 466 596 443 490 484 496 519 518 476 497 514 490 468 491 477 523 489 553 463 500 494 489 520 511 464 490 489 453 472 492 524 517 462 542 496 467 457 477 533 501 495 476 502 487 500 475 470 500 463 492 521 485 490 476 489 468 492 505 525 484 474 518 483 472 466 502 519 522 512 494 500 500 512 537 519 547 512 504 493 523 467 479 505 464 467 472 501 488 500 504 495 505 493 498 494 505 512 495 499 532 524 490 462 517 475 487 521 488 481 475 489 477 543 446 478 502 494 526 515 527 458 475 520 484 515 506 457 489 524 499 505 478 485 493 517 480 492 500 508 442 519 508 486 487 506 477 510 468 484 474 511 511 535 473 505 512 453 480 453 476 474 505 490 495 470 516 487 512 502 482 473 455 510 513 482 513 517 486 482 509 479 485 520 463 523 472 500 515 462 515 503 474 497 470 490 517 464 498 503 495 489 502 477 473 519 500 483 491 463 467 491 502 512 464 452 474 476 488 512 488 524 485 482 496 501 493 499 497 502 493 454 475 520 496 484 477 454 533 516 530 473 475 489 441 528 515 491 465 461 477 504 513 501 517 503 519 511 541 478 507 519 473 578 484 496 524 479 489 546 507 473 508 487 539 544 511 534 478 497 520 476 511 547 482 453 527 512 523 522 483 557 522 499 496 484 488 517 530 479 519 547 500 510 521 493 555 506 539 539 516 520 501 463 543 524 493 535 532 511 529 484 508 489 527 515 528 517 544 546 476 559 528 528 474 528 504 550 547 503 531 522 504 582 559 517 521 532 552 492 519 522 494 562 515 520 502 498 510 530 540 523 486 556 585 489 540 534 503 515 513 518 534 508 522 517 525 491 538 522 527 497 477 509 504 459 504 512 490 527 534 444 507 517 509 514 529 508 513 516 538 514 475 489 529 496 528 504 515 501 522 534 489 499 496 538 465 488 531 508 495 541 501 525 495 500 495 479 516 464 453 490 491 483 506 496 502 509 488 474 500 492 509 490 473 522 478 489 506 527 503 507 493 495 480 543 508 509 521 540 515 507 514 518 453 490 457 523 557 521 493 511 487 513 510 508 471 497 474 502 536 498 481 508 541 547 507 553 518 509 508 476 522 523 519 533 490 495 495 520 487 492 485 511 486 490 450 476 481 522 487 494 543 503 483 492 517 473 514 476 508 517 489 489 499 557 489 514 510 496 517 484 496 472 500 507 496 497 539 533 484 508 528 525 529 536 449 483 493 491 521 513 566 505 481 516 512 509 511 510 466 538 516 496 523 532 553 504 480 509 499 520 573 502 564 572 585 593 539 522 535 512 524 526 621 507 597 557 543 540 552 613 578 587 596 588 598 614 648 615 656 673 659 711 706 676 709 671 604 613 601 627 617 546 610 552 573 574 565 544 585 601 623 567 615 610 607 590 602 577 636 557 560 573 555 564 505 555 554 521 512 544 500 550 519 529 519 494 496 535 493 496 471 522 480 526 513 529 545 501 504 518 543 481 519 506 482 501 530 498 472 484 495 526 509 508 540 528 544 516 497 467 536 479 512 499 549 549 522 529 528 534 501 508 530 546 536 523 542 512 514 523 526 518 495 516 466 545 475 509 490 519 474 518 501 506 528 534 500 513 543 510 499 483 540 473 516 515 500 525 507 497 486 494 517 512 510 568 499 543 559 590 505 534 486 506 546 527 536 492 541 529 526 492 544 530 557 545 520 522 564 521 538 530 525 561 462 543 580 532 582 529 557 529 515 552 579 532 503 563 516 531 540 530 536 532 520 501 493 522 514 533 515 540 536 547 526 511 553 503 509 575 490 507 526 533 567 533 505 534 511 518 529 518 522 517 543 533 519 541 518 533 546 511 508 521 515 508 575 592 484 548 578 498 538 564 586 587 612 614 616 670 605 620 603 629 642 629 580 592 588 585 558 573 524 573 554 554 599 558 521 591 593 576 572 578 591 636 574 581 613 565 555 561 508 501 562 552 539 509 518 499 517 473 531 533 516 535 484 505 529 536 523 510 549 531 554 535 487 548 502 509 548 546 496 487 489 521 461 498 490 525 468 555 474 478 502 557 530 498 521 477 543 516 535 468 543 494 503 465 501 548 486 504 499 533 510 496 514 537 516 545 514 492 483 561 510 508 492 484 534 513 510 508 509 520 536 535 519 516 512 498 491 478 506 556 506 513 515 534 494 469 505 480 534 497 530 518 506 510 516 510 518 504 514 512 544 501 497 514 468 504 512 481 500 501 518 499 512 489 471 511 510 510 508 511 538 520 506 499 486 458 498 506 484 512 475 488 581 530 514 493 471 480 451 488 491 506 523 498 519 488 483 476 455 519 492 500 562 497 484 502 527 540 550 517 492 514 511 480 509 475 507 532 512 567 503 507 534 483 522 522 526 485 496 525 484 541 515 554 505 493 460 512 452 526 484 527 495 487 498 536 526 515 520 517 481 488 503 477 505 492 476 530 544 494 522 493 509 510 482 541 492 487 473 512 457 518 489 539 528 527 472 534 501 513 492 505 518 526 485 510 481 522 495 476 522 471 468 499 473 472 481 518 505 490 476 480 471 497 500 489 506 511 468 490 494 484 464 488 500 469 469 493 520 460 489 494 479 482 503 500 495 509 525 508 518 509 478 463 456 464 518 494 517 472 500 478 483 480 493 521 506 478 457 506 533 430 493 446 467 473 485 473 471 507 485 489 456 544 469 513 521 529 503 492 541 486 486 495 461 521 499 511 490 464 487 504 529 492 483 508 507 516 536 514 547 465 515 498 551 548 518 503 501 505 520 532 496 525 535 507 492 526 513 486 516 545 501 496 462 545 497 532 456 463 493 524 494 516 522 500 474 498 480 513 469 504 483 482 506 507 467 470 475 472 467 476 506 469 459 481 491 529 496 514 521 513 479 527 497 509 469 502 500 492 498 522 504 496 495 484 503 494 490 506 499 477 501 452 482 506 544 513 485 509 479 493 446 503 483 508 499 457 475 434 456 499 490 483 495 505 472 462 517 498 489 457 473 494 473 479 470 523 481 469 481 479 482 571 500 522 473 524 477 483 485 539 524 492 501 467 484 503 504 459 505 483 471 480 484 498 494 481 481 494 486 544 526 480 457 483 524 481 494 505 438 486 490 496 506 447 463 467 506 476 482 504 479 466 502 488 512 455 417 507 515 509 530 502 497 477 489 539 481 470 471 487 445 506 482 538 479 451 454 510 478 496 468 509 510 501 488 503 491 487 459 495 492 515 491 528 507 484 457 514 455 517 492 503 489 494 479 487 503 494 493 474 492 496 474 500 502 531 487 503 479 517 483 478 504 493 482 502 467 515 530 479 519 465 495 457 488 498 452 499 463 470 533 521 486 495 459 562 532 553 494 477 515 498 531 497 494 491 529 483 474 475 509 514 473 499 507 511 502 500 529 512 519 498 508 522 515 487 495 500 471 527 512 523 508 516 513 520 463 493 499 545 482 507 523 520 515 474 507 538 536 509 524 514 483 502 481 474 530 518 503 533 485 512 459 538 481 495 491 448 499 535 484 506 489 495 516 481 490 526 546 508 484 475 495 467 504 523 530 491 449 493 499 482 469 507 490 476 495 493 493 515 493 501 472 511 470 507 496 483 509 510 522 531 489 468 481 486 491 526 544 460 497 479 457 474 509 483 487 490 522 494 488 496 485 485 472 518 464 465 512 501 491 498 480 510 476 484 518 472 500 518 504 498 522 500 488 532 493 486 530 490 483 467 524 447 542 497 507 456 532 525 511 499 495 461 466 541 548 537 498 489 505 471 472 482 481 508 513 456 513 503 509 504 504 494 512 515 482 506 490 515 531 499 515 539 499 482 507 518 497 469 533 530 479 509 501 481 484 445 458 470 464 470 485 429 485 476 468 472 509 506 517 456 464 535 454 506 521 489 504 465 475 506 516 482 488 509 449 496 505 505 479 501 487 486 473 483 493 485 515 471 489 509 495 486 511 469 540 493 500 501 471 504 477 489 489 511 530 565 482 507 558 503 539 479 578 533 562 560 631 592 599 591 599 547 620 619 582 584 545 546 534 546 524 540 561 529 465 534 562 528 528 528 553 532 504 541 488 540 575 552 538 554 551 538 562 530 525 546 546 536 511 537 497 496 468 498 500 520 530 569 526 475 508 494 506 516 482 535 498 509 502 492 505 506 508 465 506 508 529 515 454 577 450 505 506 479 511 470 487 456 500 506 478 532 520 469 471 464 501 515 526 491 445 474 496 471 461 451 554 517 503 477 507 490 477 492 490 467 498 528 488 495 472 500 447 507 514 481 497 486 493 494 470 543 519 494 509 429 491 485 492 491 481 471 522 478 483 451 494 488 508 464 454 486 504 466 501 474 490 489 473 427 464 483 469 506 496 508 462 487 471 442 501 466 460 458 472 503 488 520 467 485 486 459 510 495 436 483 514 495 475 503 522 467 507 494 480 484 495 468 480 494 499 464 496 517 498 500 512 491 489 485 475 497 519 477 495 516 468 521 475 467 464 456 514 476 460 453 481 478 474 537 479 496 454 505 508 504 503 478 531 505 488 511 495 481 484 487 479 461 480 473 496 514 463 494 466 457 480 468 472 525 474 443 497 496 483 436 482 509 487 481 449 515 462 533 478 460 482 472 471 525 496 500 427 492 503 516 517 455 518 439 487 470 485 462 469 482 489 491 488 466 467 519 481 495 478 508 517 459 471 489 478 521 438 493 495 511 469 425 506 500 469 510 439 469 509 486 491 506 457 541 468 458 468 507 504 492 525 471 492 473 490 494 453 471 537 464 489 486 483 418 449 464 468 488 455 459 499 477 465 483 484 466 505 484 479 491 516 503 442 522 450 507 461 484 445 476 473 506 469 481 489 473 452 474 464 487 459 501 427 470 487 501 464 455 490 475 491 447 435 502 491 458 477 475 511 482 455 448 473 472 520 514 459 427 438 470 495 506 484 460 474 444 492 513 508 464 549 452 496 475 454 436 474 482 447 510 474 465 490 469 442 452 454 476 453 443 462 466 488 521 496 483 502 526 514 481 512 488 471 502 491 474 535 487 482 465 464 475 462 486 511 472 467 453 445 515 463 531 497 446 496 498 486 485 499 441 494 502 482 462 536 459 466 495 475 493 487 499 477 502 497 471 456 484 478 458 478 477 503 495 483 500 435 488 469 498 492 515 481 504 446 488 485 514 478 499 489 477 443 482</counts>
			</dataPoints>
		</scan>
	</xrdMeasurement>
</xrdMeasurements>
