<?xml version="1.0"?>
<xrdMeasurements xmlns="http://www.xrdml.com/XRDMeasurement/2.3" xmlns:xsi="http://www.w3.org/2001/XMLSchema-instance" xsi:schemaLocation="http://www.xrdml.com/XRDMeasurement/2.3 http://www.xrdml.com/XRDMeasurement/2.3/XRDMeasurement.xsd" status="Completed" recordIdentifier="{024A00EB-6CE0-48B4-BE0C-F9218EEB2E02}">
	<comment>
		<entry/>
	</comment>
	<sample type="To be analyzed">
		<id>GPSS_Li1p7Mn0p8Nb0p05V0p15Cl4_110825_690fcd71f040177efa2b8c4d</id>
		<name></name>
		<preparedBy></preparedBy>
	</sample>
	<xrdMeasurement measurementType="Scan" status="Completed" sampleMode="Reflection">
		<usedWavelength intended="K-Alpha 1">
			<kAlpha1 unit="Angstrom">1.5405980</kAlpha1>
			<kAlpha2 unit="Angstrom">1.5444260</kAlpha2>
			<kBeta unit="Angstrom">1.3922500</kBeta>
			<ratioKAlpha2KAlpha1>0.5000</ratioKAlpha2KAlpha1>
		</usedWavelength>
		<incidentBeamPath>
			<radius unit="mm">145.00</radius>
			<xRayTube id="1010048" name="Empyrean Cu LFF HR (9430 033 7310x)">
				<tension unit="kV">40.0</tension>
				<current unit="mA">15.0</current>
				<anodeMaterial>Cu</anodeMaterial>
				<focus type="Line">
					<length unit="mm">12.0</length>
					<width unit="mm">0.4</width>
					<takeOffAngle unit="deg">6.0</takeOffAngle>
				</focus>
			</xRayTube>
			<sollerSlit id="21010002" name="Soller slits 0.04 rad.">
				<opening unit="rad">0.0400</opening>
			</sollerSlit>
			<mask id="22031000" name="Fixed mask 13 mm">
				<width unit="mm">9.00</width>
			</mask>
			<divergenceSlit id="22120001" name="Divergence slit 1°" xsi:type="fixedDivergenceSlitType">
				<distanceToSample unit="mm">50.00</distanceToSample>
				<height unit="mm">1.52</height>
			</divergenceSlit>
		</incidentBeamPath>
		<sampleMovement xsi:type="spinningSampleMovementType">
			<spinnerRevolutionTime unit="seconds">1.0</spinnerRevolutionTime>
		</sampleMovement>
		<diffractedBeamPath>
			<radius unit="mm">145.00</radius>
			<antiScatterSlit id="22090040" name="AS slit 9 mm (PIXcel)" xsi:type="fixedAntiScatterSlitType">
				<height unit="mm">9.00</height>
			</antiScatterSlit>
			<sollerSlit id="21020003" name="Large Soller slits 0.04 rad.">
				<opening unit="rad">0.0400</opening>
			</sollerSlit>
			<filter id="20030001" name="Large beta-filter Nickel">
				<material>Ni</material>
				<thickness unit="mm">0.020</thickness>
			</filter>
			<detector id="7010019" name="PIXcel1D-Medipix3 detector" xsi:type="rtmsDetectorType">
				<phd unit="keV">
					<lowerLevel>4.02</lowerLevel>
					<upperLevel>11.27</upperLevel>
				</phd>
				<mode>Scanning</mode>
				<activeLength unit="deg">5.542</activeLength>
			</detector>
		</diffractedBeamPath>
		<scan appendNumber="0" mode="Continuous" scanAxis="Gonio" status="Completed">
			<header>
				<startTimeStamp>2025-11-11T15:15:05-08:00</startTimeStamp>
				<endTimeStamp>2025-11-11T15:23:12-08:00</endTimeStamp>
				<author>
					<name>AutomatedUser</name>
				</author>
				<source>
					<applicationSoftware version="1.7b (136)">PANalytical Aeris Instrument Suite</applicationSoftware>
					<instrumentControlSoftware version="3.2.00000000 20240306">AERIS</instrumentControlSoftware>
					<instrumentID>950485</instrumentID>
				</source>
			</header>
			<dataPoints>
				<positions axis="2Theta" unit="deg">
					<startPosition>10.00943322</startPosition>
					<endPosition>99.99442286</endPosition>
				</positions>
				<positions axis="Omega" unit="deg">
					<startPosition>5.00471661</startPosition>
					<endPosition>49.99721143</endPosition>
				</positions>
				<commonCountingTime unit="seconds">12.495</commonCountingTime>
				<counts unit="counts">2856 2795 2816 2783 2871 2950 2847 2834 2961 2767 2819 2811 2812 2887 2890 2819 2784 2798 2932 2852 2828 2773 2892 2839 2760 2883 2865 2882 2863 2863 2896 2906 2742 2831 2879 2886 2872 2880 2780 2839 2869 2803 2893 2875 2935 2837 2900 2884 2923 2813 2960 2800 2820 2890 2873 2920 2905 2902 2918 2800 2865 2768 2819 2948 2984 2808 2877 2848 2861 2819 2894 2845 2827 2941 2785 2808 2959 2948 2925 2890 2914 2836 2806 2842 2782 2694 2894 2915 2957 2942 2861 2943 2775 2825 2868 2867 2904 2872 2815 2886 2900 3018 2855 2851 2947 2878 2827 2895 2883 2939 2810 2793 2880 2870 2949 2855 2888 2876 2931 2904 2963 2866 2860 2811 2859 2985 2894 2960 2903 2874 2925 2869 3071 2934 2994 2856 2737 2977 3009 2909 2879 2882 2872 2829 2851 2838 2882 2990 2874 2851 2936 2946 2816 2926 2970 2947 2804 2830 2920 2917 2938 2929 2900 2906 2882 2953 2948 2947 2960 2953 3002 3028 2945 2996 2859 2831 2877 2876 2889 2877 2926 2951 2842 2873 2838 2826 2876 2864 2748 2872 2854 2821 2915 2833 2903 2882 2807 2896 2801 2814 2850 2863 2805 2878 2926 2874 2935 2857 2893 2898 2732 2822 2807 2875 2873 2880 2879 2846 2779 2767 2961 2818 2838 2851 2803 2908 2901 2868 2855 2796 2918 2772 2811 2977 2835 2784 2985 2844 2853 2847 2726 2865 2805 2860 2828 2851 2849 2797 2810 2786 2826 2702 2775 2845 2810 2783 2887 2797 2805 2877 2874 2749 2866 2794 2737 2778 2850 2776 2837 2918 2934 2881 2835 2781 2876 2856 2800 2842 2928 2826 2851 2941 2828 2859 2853 2882 2814 2888 2855 2830 2816 2958 2867 2869 2923 2959 2845 2902 2948 2909 2906 2817 3017 2863 2883 2956 2983 2830 2886 2968 2888 2958 2940 2890 2886 2890 3020 2981 2953 2900 2970 3016 2892 3003 3071 3034 2896 3073 3072 2933 2986 2909 3097 3028 3011 2905 3031 3028 3010 3033 3007 3085 3072 3079 3061 3150 3127 3143 3165 3138 3152 3057 3037 3128 3034 3224 3110 3193 3106 3084 3231 3223 3115 3069 3215 3140 3238 3189 3323 3178 3214 3165 3255 3246 3121 3200 3180 3202 3277 3316 3198 3388 3355 3143 3414 3303 3347 3219 3412 3389 3393 3302 3409 3325 3264 3436 3331 3320 3429 3454 3430 3350 3567 3282 3455 3339 3443 3473 3534 3372 3723 3416 3508 3666 3621 3629 3631 3560 3759 3701 3694 3727 3814 3811 3851 3869 3895 3870 4051 4113 4084 4147 4082 4131 4217 4177 4237 4172 4277 4343 4269 4387 4297 4408 4385 4407 4330 4470 4528 4522 4399 4515 4589 4614 4633 4610 4632 4739 4689 4623 4797 4749 4850 4752 4782 4796 4743 4868 4904 4886 5002 4924 4997 4994 5051 5056 5028 5046 5025 5210 4987 5179 5031 5031 5069 5115 4935 4924 4794 4870 4830 4796 4833 4672 4812 4773 4621 4664 4537 4472 4560 4532 4365 4265 4278 4354 4207 4130 4119 3951 3856 3875 3773 3714 3752 3613 3656 3531 3563 3548 3413 3422 3476 3402 3329 3405 3348 3378 3321 3321 3291 3234 3225 3179 3313 3240 3193 3272 3212 3257 3192 3316 3224 3228 3163 3222 3178 3255 3230 3185 3108 3273 3045 3139 3124 3164 3051 3213 3075 3123 3171 3169 3089 3140 3101 3125 3077 3179 3068 3127 3086 3117 3010 3110 3147 3116 3196 3178 3046 3082 3076 3113 3121 3112 3148 3035 3047 3065 3080 3106 2967 3115 2954 3096 3017 3089 3005 3069 3072 3184 2990 3073 2969 3001 3012 3040 3032 2954 3040 3022 2957 3040 2985 2980 2993 2991 3099 3093 2995 2998 3018 3034 2957 3012 2962 3028 2867 2970 2892 2989 3011 2943 3068 2981 3003 2932 2932 3025 2924 3014 3029 2967 3081 2904 2958 2962 3112 2978 2963 2962 2980 3008 2942 3036 2959 3001 3011 3077 3006 2938 2979 3041 2966 2990 2931 2893 3057 2985 3010 3043 3076 2978 3150 2962 3100 3081 2936 3037 2909 2988 2959 2948 3056 2995 2904 2959 2956 2964 2967 2987 2923 2904 2973 3046 3000 2989 3012 2896 2952 2831 2867 2857 2932 2865 2902 2950 2886 2951 2918 2800 2880 2889 2881 2911 2869 2879 2935 2800 2787 2840 2812 2821 2882 2856 2933 2857 2899 2812 2895 2914 2828 2876 2940 2895 2765 2900 2843 2891 2909 2844 2836 2809 2731 2888 2898 2802 2859 2754 2875 2779 2850 2715 2741 2896 2815 2839 2850 2879 2824 2838 2897 2812 2806 2910 2820 2788 2894 2906 2738 2828 2861 2810 2950 2903 2730 2937 2842 2962 2820 2984 2779 2854 2831 2866 2867 2819 2723 2840 2756 2744 2734 2807 2917 2847 2818 2688 2719 2821 2836 2797 2870 2845 2760 2737 2757 2760 2776 2838 2857 2843 2721 2761 2769 2811 2735 2893 2793 2795 2793 2750 2800 2681 2789 2810 2732 2736 2731 2838 2751 2816 2737 2809 2798 2750 2703 2804 2677 2762 2805 2788 2857 2702 2815 2799 2682 2755 2706 2874 2704 2775 2768 2789 2655 2760 2753 2652 2718 2732 2799 2750 2744 2848 2693 2831 2757 2700 2558 2806 2734 2706 2706 2738 2742 2774 2718 2731 2765 2591 2736 2691 2581 2676 2710 2637 2588 2682 2692 2616 2636 2721 2684 2723 2646 2680 2661 2608 2591 2808 2696 2579 2664 2702 2568 2663 2693 2686 2727 2711 2722 2636 2777 2526 2593 2651 2655 2641 2633 2538 2590 2630 2732 2612 2629 2627 2585 2661 2534 2658 2598 2567 2586 2650 2570 2641 2674 2653 2569 2587 2588 2588 2616 2604 2667 2586 2515 2600 2579 2660 2597 2541 2663 2572 2569 2663 2622 2626 2585 2619 2630 2600 2557 2699 2555 2619 2651 2568 2628 2548 2565 2556 2516 2617 2569 2637 2601 2637 2490 2649 2610 2687 2527 2595 2692 2612 2560 2575 2662 2520 2611 2583 2595 2549 2564 2567 2603 2608 2621 2515 2574 2597 2606 2628 2652 2567 2570 2605 2559 2593 2478 2605 2657 2567 2578 2501 2517 2547 2594 2630 2623 2525 2486 2555 2647 2622 2659 2620 2561 2507 2582 2534 2664 2555 2556 2605 2549 2614 2593 2451 2622 2457 2434 2609 2520 2533 2549 2562 2529 2616 2556 2612 2560 2667 2623 2577 2490 2593 2660 2650 2531 2632 2572 2548 2538 2521 2590 2557 2570 2633 2646 2577 2578 2658 2482 2690 2609 2579 2526 2607 2602 2537 2587 2586 2555 2562 2629 2534 2570 2609 2519 2581 2612 2514 2558 2582 2593 2557 2667 2600 2533 2550 2498 2557 2556 2651 2584 2538 2475 2556 2594 2600 2656 2481 2592 2550 2579 2512 2587 2518 2566 2560 2593 2576 2526 2529 2538 2626 2604 2528 2493 2624 2537 2600 2541 2577 2554 2542 2525 2548 2464 2439 2544 2537 2474 2436 2539 2503 2449 2524 2578 2448 2571 2439 2445 2431 2423 2515 2505 2412 2404 2425 2493 2521 2418 2538 2406 2469 2488 2355 2520 2443 2438 2424 2403 2349 2388 2414 2366 2407 2437 2464 2457 2392 2413 2327 2348 2342 2359 2344 2296 2362 2416 2350 2349 2336 2350 2352 2333 2369 2475 2244 2327 2339 2311 2311 2273 2244 2259 2409 2297 2340 2351 2158 2250 2167 2212 2241 2263 2243 2179 2222 2247 2248 2205 2236 2347 2303 2213 2273 2264 2223 2192 2227 2184 2200 2116 2201 2193 2163 2159 2153 2147 2232 2183 2160 2233 2142 2224 2221 2100 2199 2154 2165 2210 2126 2191 2206 2161 2144 2220 2226 2098 2095 2082 2166 2179 2113 2033 2174 2108 2086 2088 2166 2107 2175 2101 2044 2043 2100 2003 2137 2053 2084 2050 2028 2072 2105 1997 2045 2050 2116 2092 2056 2117 2034 2026 2072 2077 2086 2051 2055 2056 2009 2057 1981 2014 2047 2041 1998 2192 2061 2024 2063 2086 2052 2050 2081 1967 2058 2064 2040 1998 1963 1965 1991 2047 2006 1958 2009 2020 2086 2035 2101 2141 2016 1996 1969 2052 2000 2052 2000 2048 2051 2047 1976 2050 2050 1991 2036 2109 1975 1988 2051 1998 1937 2025 2026 1961 1973 1955 2004 2016 2029 1984 1927 1980 2010 1925 2003 1984 1929 1948 2006 1963 1942 1934 1941 1961 1895 1889 1910 1927 1967 1915 1933 1926 1932 1928 1901 1987 1902 1943 1912 1939 1941 1943 1986 1947 1916 2016 1942 1942 1993 1968 1992 1877 1947 1981 1912 1888 1923 1937 1891 1931 1943 1951 1941 2002 1989 1889 1954 1988 2028 1930 1972 2018 1940 1903 1998 1995 1918 1968 1908 1995 1962 1948 1966 2015 1901 1978 2000 1997 2001 1986 1884 2026 1850 1953 1963 1932 1964 1972 1951 1860 1923 1960 1943 1941 1847 1995 1961 1968 1963 1971 1967 1956 1931 1935 1943 1947 2048 1959 1978 1977 1967 1968 1984 1913 1869 1875 1972 2009 2014 1885 1900 1961 1947 1942 1985 1887 1951 1972 1935 1932 1935 1965 1957 1937 1895 1964 1926 1965 2051 1885 1974 1902 1923 1933 1977 2002 1995 1949 1982 1945 1974 1985 1968 1951 1886 1987 1884 1981 1919 1952 1876 1888 1804 1903 1969 1900 1876 1896 1950 1942 1943 1911 1902 1929 1939 1962 1961 1912 1993 1947 1895 1949 1888 1938 1881 1903 1922 2015 1930 1847 1842 1910 1923 1889 1848 1913 1849 1928 1831 1847 1865 1844 1964 1865 1851 1881 1780 1905 1881 1905 1741 1913 1756 1797 1802 1766 1732 1811 1798 1843 1765 1821 1816 1840 1794 1838 1797 1815 1761 1866 1779 1750 1740 1834 1787 1753 1818 1721 1736 1832 1845 1717 1794 1813 1769 1737 1700 1760 1783 1759 1772 1797 1698 1783 1648 1728 1686 1745 1698 1714 1773 1769 1732 1792 1750 1722 1762 1685 1699 1734 1730 1696 1731 1696 1644 1713 1622 1690 1704 1728 1737 1718 1661 1793 1728 1675 1767 1691 1709 1742 1735 1735 1792 1722 1814 1787 1752 1823 1813 1861 1842 1808 1864 1910 1821 1926 2009 2049 2083 2013 2057 2171 2246 2257 2233 2336 2386 2436 2414 2487 2497 2515 2671 2530 2537 2694 2531 2581 2631 2581 2519 2525 2671 2619 2582 2571 2537 2535 2515 2508 2457 2417 2379 2355 2350 2368 2261 2296 2267 2303 2156 2083 2136 1998 1978 2052 1932 1956 1911 1908 1982 1825 1886 1842 1836 1779 1931 1801 1771 1750 1824 1705 1680 1778 1790 1695 1743 1788 1692 1728 1773 1709 1694 1665 1700 1629 1684 1686 1630 1651 1652 1602 1658 1595 1617 1597 1628 1584 1629 1683 1620 1684 1671 1645 1563 1614 1533 1580 1643 1657 1581 1616 1593 1626 1560 1593 1607 1655 1688 1686 1655 1658 1692 1727 1768 1741 1835 1801 1838 1832 1987 1991 2130 2072 2215 2101 2340 2209 2329 2407 2351 2394 2376 2419 2510 2570 2571 2574 2552 2581 2618 2546 2516 2460 2458 2566 2583 2530 2649 2489 2562 2574 2512 2587 2546 2461 2508 2513 2547 2508 2564 2525 2539 2546 2684 2676 2646 2781 2782 2764 2908 2910 2918 2943 3056 2953 3152 3122 3115 3179 3121 3286 3279 3283 3103 3143 3244 3269 3336 3367 3223 3097 2963 2851 2678 2814 2590 2597 2550 2438 2349 2312 2142 2092 2034 1977 1891 1932 1856 1823 1788 1661 1784 1655 1661 1593 1672 1557 1530 1548 1506 1545 1602 1477 1519 1566 1478 1471 1480 1440 1470 1526 1523 1532 1509 1479 1512 1503 1435 1473 1474 1496 1438 1447 1439 1498 1437 1466 1396 1382 1446 1486 1469 1409 1405 1455 1417 1368 1433 1408 1436 1408 1397 1471 1397 1452 1430 1366 1390 1396 1411 1363 1384 1426 1424 1433 1357 1339 1485 1353 1359 1395 1309 1332 1395 1343 1411 1325 1355 1384 1430 1333 1342 1384 1369 1334 1363 1378 1284 1326 1441 1389 1376 1436 1373 1328 1374 1425 1342 1388 1403 1298 1427 1346 1388 1341 1333 1379 1372 1320 1379 1317 1356 1408 1385 1317 1383 1369 1379 1331 1346 1349 1353 1306 1296 1278 1340 1386 1274 1324 1334 1323 1297 1349 1367 1298 1270 1353 1288 1342 1325 1307 1295 1296 1273 1311 1328 1270 1258 1400 1315 1297 1276 1366 1352 1312 1269 1294 1309 1306 1291 1355 1347 1343 1329 1299 1312 1331 1311 1355 1296 1404 1337 1330 1346 1255 1278 1367 1369 1320 1284 1355 1403 1302 1301 1323 1320 1322 1263 1196 1327 1266 1275 1357 1311 1348 1242 1290 1279 1275 1310 1284 1340 1293 1341 1306 1314 1289 1248 1365 1337 1363 1287 1304 1231 1269 1254 1325 1320 1336 1309 1242 1289 1275 1267 1338 1388 1334 1304 1411 1335 1333 1323 1341 1295 1326 1347 1269 1314 1258 1333 1313 1299 1366 1351 1338 1361 1401 1366 1346 1310 1287 1339 1336 1376 1352 1297 1279 1316 1313 1421 1403 1369 1331 1396 1342 1401 1402 1392 1357 1365 1419 1462 1403 1340 1395 1387 1463 1386 1410 1428 1420 1467 1438 1439 1404 1400 1435 1409 1480 1376 1506 1455 1452 1502 1409 1496 1470 1443 1498 1477 1409 1482 1522 1475 1587 1491 1623 1526 1545 1521 1572 1483 1572 1592 1623 1668 1743 1645 1756 1763 1736 1754 1785 1878 1829 1917 1969 2014 2114 1990 2040 2074 2196 2261 2346 2397 2389 2477 2570 2666 2642 2761 2865 2858 3188 3158 3285 3388 3608 3600 3817 3826 3995 4025 4097 4315 4397 4340 4550 4536 4667 4557 4703 4708 4862 4809 4752 4818 4748 4736 4911 4805 4745 4746 5019 4914 4926 4900 4991 5070 5174 5207 5175 5118 5068 5169 5140 5263 4959 5151 4921 5081 5101 5090 5031 5135 5201 5205 5144 5095 5389 5260 5263 5007 5079 5043 5064 5008 5022 4928 4931 4856 4637 4736 4510 4477 4245 4312 4202 4042 3930 3888 3619 3574 3501 3414 3179 3150 2988 2893 2754 2675 2607 2527 2351 2337 2312 2176 2101 2031 2045 1904 1925 1741 1745 1628 1644 1618 1526 1643 1529 1487 1500 1482 1422 1479 1412 1485 1464 1320 1385 1403 1383 1404 1371 1395 1351 1331 1302 1373 1367 1333 1312 1371 1330 1294 1327 1362 1327 1326 1307 1328 1317 1285 1332 1241 1272 1301 1322 1303 1270 1253 1257 1286 1304 1269 1291 1270 1305 1263 1331 1379 1261 1229 1265 1215 1285 1244 1257 1240 1250 1194 1301 1232 1335 1298 1302 1303 1244 1194 1256 1242 1247 1266 1243 1238 1254 1283 1222 1191 1271 1215 1281 1233 1260 1220 1204 1289 1218 1223 1254 1176 1287 1202 1225 1253 1247 1191 1290 1212 1201 1202 1233 1282 1208 1203 1236 1239 1265 1219 1248 1216 1205 1207 1175 1178 1235 1138 1162 1219 1240 1200 1229 1206 1192 1243 1188 1189 1228 1218 1135 1222 1242 1219 1197 1235 1114 1173 1204 1214 1260 1188 1154 1192 1165 1203 1183 1226 1182 1175 1230 1254 1207 1195 1277 1192 1203 1169 1215 1206 1165 1225 1203 1207 1200 1240 1138 1230 1222 1182 1237 1176 1163 1197 1143 1233 1164 1109 1161 1217 1223 1154 1217 1138 1134 1188 1172 1194 1161 1260 1264 1177 1219 1203 1216 1194 1202 1180 1221 1182 1204 1240 1260 1225 1167 1228 1201 1239 1260 1204 1208 1172 1188 1284 1254 1226 1276 1165 1169 1226 1260 1183 1202 1272 1204 1182 1262 1264 1280 1259 1236 1289 1216 1348 1228 1264 1296 1329 1324 1287 1312 1270 1305 1341 1276 1315 1342 1287 1378 1344 1315 1283 1324 1346 1315 1388 1337 1307 1301 1289 1310 1289 1311 1285 1202 1246 1228 1262 1262 1273 1218 1242 1180 1150 1175 1115 1156 1197 1165 1149 1133 1182 1116 1193 1148 1101 1167 1108 1165 1128 1082 1173 1232 1180 1100 1008 1085 1102 1174 1168 1181 1232 1104 1148 1125 1145 1112 1062 1075 1108 1117 1154 1125 1189 1090 1164 1061 1032 1173 1146 1036 1152 1098 1144 1110 1094 1107 1119 1090 1157 1103 1143 1137 1140 1126 1192 1178 1093 1172 1085 1119 1087 1136 1182 1181 1147 1130 1096 1171 1136 1105 1110 1152 1116 1102 1086 1115 1139 1089 1127 1036 1138 1093 1147 1053 1071 1188 1069 1160 1067 1106 1106 1099 1119 1101 1127 1134 1121 1121 1101 1099 1074 1064 1064 1146 1140 1096 1099 1042 1091 1087 1060 1076 1072 1153 1125 1051 1064 1117 1109 1064 1050 1108 1083 1050 1123 1041 1029 995 1056 1060 1140 1064 1108 1045 1094 1064 1093 1058 1063 1118 1079 1033 1112 1085 1102 1099 1068 1039 1088 1076 1043 1072 1129 1050 1050 1098 1113 1052 1049 1045 1105 1066 1073 1120 1038 1071 1074 1138 1083 1033 1097 1102 1084 1032 1046 1102 1027 1083 1051 1118 1043 1057 1063 1087 1104 1072 1100 1050 1098 1039 1005 1068 1093 1087 1066 1011 1075 1053 1087 1087 1045 1036 1101 1018 1071 1074 1041 1073 1039 1021 1055 1026 1024 1053 1120 1080 1052 1074 1052 1065 1087 1079 1001 1027 1082 1066 1079 1105 1051 1092 1088 1029 1033 1051 1067 1083 1060 1022 1060 998 1058 1023 1050 1060 1013 1080 1108 1060 1068 1039 1090 1026 1055 1042 1058 1050 1014 1047 1060 1094 1094 1029 1051 1071 1114 1039 1070 1053 1004 1034 1066 1029 1053 1015 1003 1101 1078 1085 1110 1085 1096 1066 1104 1075 989 1084 1077 1051 1081 1078 1105 1012 1014 1009 1068 1129 1038 1124 1079 1041 1069 1040 1077 1065 1071 1065 1046 1029 1093 1066 1061 1054 1074 1085 1027 1083 1123 1041 1150 1092 1018 1099 1066 1043 1011 1054 1063 1062 1062 1161 1038 1037 1042 1048 1099 1055 1035 1075 1067 1009 1089 1065 1049 1104 1032 1022 1056 1056 1105 1107 1028 1021 1057 1023 1050 1084 1012 1024 1121 1104 1084 1016 1040 1059 1082 1029 1077 1118 1003 1042 988 965 1090 1040 1069 1011 1061 1023 1041 1078 1059 1041 1041 1089 1078 1085 1074 1087 1054 1038 987 1066 1064 1047 1097 1053 1024 1078 1018 1059 1091 1028 1053 1027 1091 1072 1109 1071 1031 1075 1103 999 1067 1093 1068 1050 1080 1117 1074 1101 1089 1015 1081 1014 1055 1066 1018 983 978 1093 1040 1122 1076 1066 1130 1088 1054 1086 1115 1093 1035 1077 1064 1100 1013 1092 1115 1140 1079 1048 1012 1052 1024 1028 1094 1011 1044 1058 1044 1101 1023 1057 1040 1047 1051 1104 1020 1065 1056 1068 1004 1029 1058 1012 1029 1024 1045 1046 1043 1080 1086 1095 1068 1073 1065 991 1028 1067 1052 1055 1071 1061 1044 1026 1012 1062 997 1013 1019 1036 1006 1078 1067 1023 1036 1053 988 1039 1011 1040 1058 1023 1025 1061 948 1101 1062 1040 1082 1015 1059 1005 1080 1030 1072 1032 1007 1034 988 1032 1031 1038 1071 1031 991 1058 992 979 1023 1051 1069 1022 1027 1051 1044 1031 1092 1054 1047 1052 1019 1004 1029 1093 1042 1075 1022 1062 1054 1104 1093 1053 1022 1063 1030 1022 1129 1045 1076 1118 1047 1076 1027 1074 1030 1055 1057 1105 1101 1086 1100 1051 1087 1131 1019 1096 1050 1081 1016 1123 1113 1190 1139 1182 1129 1121 1136 1138 1235 1169 1164 1176 1178 1218 1186 1245 1315 1298 1332 1253 1345 1246 1303 1296 1290 1268 1260 1277 1318 1435 1386 1253 1254 1311 1318 1264 1276 1257 1283 1267 1280 1327 1239 1229 1266 1267 1228 1198 1200 1202 1172 1233 1182 1135 1167 1130 1184 1164 1118 1138 1156 1159 1127 1271 1069 1090 1189 1162 1130 1129 1117 1160 1154 1127 1174 1182 1119 1162 1253 1159 1181 1147 1218 1219 1224 1221 1274 1181 1237 1211 1265 1264 1255 1295 1321 1327 1353 1315 1311 1282 1323 1297 1357 1333 1352 1339 1282 1226 1291 1263 1376 1300 1283 1240 1235 1219 1232 1276 1249 1265 1196 1222 1189 1139 1166 1162 1149 1194 1163 1128 1092 1107 1146 1108 1076 1134 1102 1121 1074 1059 1047 1070 1114 1044 1075 1080 1054 1016 1058 1018 1053 994 1024 1068 1042 1068 1081 1044 1081 1105 1003 1066 1041 1089 1065 1092 1022 1079 1025 1020 1065 1029 1025 1044 1019 1076 1058 1003 1097 1022 1058 1068 1025 1070 1036 1071 1051 1008 1029 1044 1055 1062 1028 1027 1071 1006 1100 1053 1143 949 1035 1012 1079 1016 981 1032 1009 1024 1063 1041 1006 1018 1090 989 1056 1054 1010 1014 1024 967 995 1033 991 1018 971 1014 1026 1094 1062 987 998 1014 1016 999 1029 1081 996 1020 1008 1088 988 980 1035 1058 1009 1043 1017 1035 975 1036 1027 1009 1053 1032 1060 1037 1075 1023 1022 966 1011 985 1028 1003 1027 974 1068 1026 1019 934 974 1114 1048 1029 1060 988 983 1009 1088 1055 980 1035 1029 1062 1035 1073 1071 1017 988 1050 1025 1152 1103 1035 1060 1034 1023 1021 1023 1016 988 1079 1006 1044 1048 993 1075 1142 1041 1028 1008 976 1042 1022 1057 987 1035 1048 1055 1056 1092 1053 999 1061 1029 1069 1066 1015 996 988 1010 1089 1074 1015 987 1069 1039 969 1075 1028 1068 1040 1103 1012 1063 1073 1078 1023 1100 1070 1094 1039 1059 1086 1043 1067 1119 1091 1122 956 1080 1144 1106 1056 1144 1105 1155 1149 1123 1148 1170 1140 1163 1154 1221 1204 1243 1232 1279 1282 1314 1309 1368 1429 1580 1567 1604 1667 1792 1808 1859 2010 2103 2102 2252 2454 2583 2576 2627 2699 2756 2842 2805 2852 2968 3114 3054 3229 3200 3262 3384 3359 3269 3416 3324 3307 3238 3148 3152 3127 3033 3027 2932 2967 2836 2751 2830 2684 2664 2542 2479 2464 2456 2312 2328 2176 2092 2029 1990 1933 1830 1837 1775 1689 1723 1733 1674 1605 1643 1562 1564 1562 1530 1465 1461 1525 1445 1508 1487 1486 1457 1536 1537 1503 1483 1571 1575 1528 1566 1678 1700 1700 1719 1720 1755 1704 1893 1898 1844 1933 1883 1985 1968 2045 2038 2017 2116 2059 2183 2247 2236 2367 2358 2353 2379 2421 2503 2421 2409 2389 2406 2358 2397 2280 2338 2355 2324 2282 2315 2273 2224 2195 2106 2111 2113 2058 1982 1868 1944 1825 1807 1832 1761 1731 1672 1732 1601 1550 1548 1522 1503 1413 1363 1399 1373 1289 1257 1285 1293 1306 1268 1292 1144 1163 1200 1152 1222 1168 1152 1214 1149 1167 1104 1125 1115 1136 1069 1121 1095 1143 1032 1129 1066 1018 1037 1041 1075 1069 1054 1043 1083 1008 1031 1016 1056 1120 1088 1076 1062 1044 1028 1079 1070 1019 1026 1047 1067 1057 1045 1058 1079 1050 1046 1036 978 1009 1026 1035 1019 1041 1000 990 1047 1045 992 1063 1043 1107 1122 1078 1090 1109 1062 1103 1091 1075 1121 1099 1157 1114 1184 1146 1136 1191 1231 1239 1294 1282 1389 1357 1432 1458 1472 1415 1408 1457 1481 1539 1498 1567 1452 1479 1486 1445 1488 1470 1507 1509 1495 1510 1443 1492 1381 1448 1370 1294 1259 1225 1210 1281 1288 1250 1241 1204 1233 1149 1166 1150 1141 1123 1117 1084 1030 1054 1071 1123 1044 1094 1071 1055 1079 1052 1035 1067 1135 1037 1041 1043 1047 1061 1095 1068 1079 1089 1086 1041 1084 1096 1066 1048 1074 1088 1117 1127 1103 1186 1091 1111 1101 1084 1062 1135 1075 1036 1086 1009 1126 1080 1070 1029 1046 1101 1016 1012 1040 1048 967 1004 955 992 971 980 991 984 998 1006 1047 1026 982 962 963 986 980 977 1011 956 908 941 942 989 940 1003 942 1007 950 982 940 978 882 960 929 1014 960 967 944 944 993 956 976 1009 960 968 952 948 1037 998 1030 1011 972 960 1013 974 974 957 1017 987 938 944 951 985 995 984 966 988 940 955 938 975 969 939 959 982 938 926 1004 993 973 922 919 938 963 971 988 975 966 930 961 1004 966 883 970 981 946 984 965 949 930 937 990 849 940 942 963 982 935 950 916 931 940 960 893 934 977 957 963 949 960 903 950 884 935 918 897 912 924 905 911 926 883 962 939 942 895 938 972 946 957 892 941 900 980 981 948 983 936 906 916 948 946 943 961 947 946 901 936 908 968 927 942 893 915 950 953 958 911 953 889 920 938 957 913 924 930 914 928 938 923 908 975 898 900 968 950 904 947 921 970 936 927 992 964 910 944 940 969 928 928 970 930 960 942 913 920 909 972 962 971 876 917 952 961 953 973 961 945 961 959 895 912 939 953 931 927 951 905 960 917 936 1004 957 936 961 961 928 912 899 916 894 892 945 931 893 946 930 938 913 932 886 915 965 962 937 899 961 887 971 922 870 931 920 921 884 911 948 916 906 927 931 949 870 968 896 964 929 911 867 919 970 914 924 919 911 878 871 923 913 913 855 939 918 899 956 925 903 975 956 857 920 923 857 903 893 922 917 948 921 908 914 868 915 909 880 884 914 975 928 910 917 960 914 917 893 942 960 930 893 920 907 985 933 928 945 985 943 908 951 936 859 947 967 922 942 906 962 944 945 914 929 943 987 953 920 917 916 943 889 912 888 990 903 906 922 943 955 953 910 935 932 937 963 970 889 879 953 878 948 924 1013 942 910 891 905 965 927 955 931 865 892 922 914 947 893 902 877 933 946 899 963 883 907 892 914 944 912 941 861 926 911 959 922 921 977 928 916 902 910 873 989 918 925 890 940 955 842 857 914 932 906 980 984 908 851 929 908 940 911 911 913 914 942 948 914 958 990 1009 1019 983 948 959 982 1042 1024 928 989 1027 1004 1021 1026 1014 976 1069 993 1047 1050 1003 1065 1005 1019 1032 1005 1012 989 1006 953 944 988 994 1014 976 1005 966 1019 983 1021 965 961 944 1001 894 961 921 939 932 951 966 985 1007 998 944 922 940 941 1024 935 946 914 942 957 957 951 1022 952 1028 1022 1021 971 979 990 995 1007 1041 1057 1002 1011 1017 1006 1106 1060 996 1037 1146 1078 1044 987 1123 1068 1052 1142 1197 1112 1116 1092 1061 1073 1109 1109 1077 1091 1126 1021 1163 1111 1047 1039 1041 1049 1042 989 1055 1022 1022 1063 1039 1066 1027 977 1025 1020 987 985 988 938 1026 988 1050 967 1039 1044 959 992 923 952 997 1051 1022 939 1051 1054 1002 992 1022 1021 1004 999 1065 955 985 1029 1071 1022 1024 1087 1039 1037 1006 1112 1072 1113 1044 1125 1090 1091 1147 1147 1127 1175 1139 1148 1135 1224 1161 1284 1218 1191 1259 1270 1234 1230 1268 1283 1267 1258 1297 1317 1280 1277 1264 1286 1225 1187 1305 1231 1269 1246 1251 1259 1256 1202 1217 1221 1146 1171 1170 1143 1047 1072 1115 1046 1041 1040 1080 1011 1046 1039 1006 1018 987 962 974 940 941 955 971 999 962 939 949 932 953 936 928 920 930 918 901 927 902 948 958 948 921 919 889 908 849 864 851 901 965 898 968 877 890 894 890 948 973 892 909 869 870 928 900 937 911 934 943 886 937 924 888 912 934 880 878 868 931 920 904 961 890 912 884 918 867 900 921 886 949 886 872 920 918 927 896 944 935 950 923 891 939 923 916 950 941 898 885 907 935 928 922 994 969 938 893 987 998 940 958 1021 977 1001 1025 1030 1048 1034 1091 1084 1094 1148 1076 1118 1160 1110 1193 1214 1203 1235 1247 1347 1309 1325 1316 1348 1358 1401 1425 1431 1411 1577 1475 1555 1535 1589 1529 1555 1503 1558 1480 1508 1477 1436 1498 1500 1530 1456 1421 1439 1424 1498 1363 1319 1313 1311 1377 1308 1212 1253 1190 1119 1189 1097 1145 1141 1143 1083 1084 1072 1102 1032 1068 982 986 1098 1027 1070 965 1061 1001 1076 944 978 1011 1057 1019 1010 1009 928 995 996 954 983 1019 1029 964 994 1080 996 1006 998 1024 1035 1029 1037 1050 1061 1054 1115 1030 1081 1044 1025 1139 1063 1096 1137 1110 1095 1096 1172 1103 1090 1119 1170 1112 1152 1193 1183 1207 1143 1186 1135 1176 1188 1173 1149 1180 1156 1192 1246 1162 1172 1140 1077 993 1097 1106 1047 1103 1096 1050 1076 1009 1084 1038 1051 979 1029 981 1010 1021 972 978 945 1002 964 909 940 971 946 928 907 921 904 899 857 928 901 953 919 887 948 891 942 964 895 937 914 906 953 922 918 954 892 940 935 942 889 961 970 958 962 946 999 943 963 927 1045 962 979 1003 983 1049 1073 1032 1019 1101 1088 1079 1058 1081 1109 1071 1062 1069 1094 1105 1084 1076 1053 1126 1039 1080 1093 1108 1056 1170 1086 1124 1082 1102 1128 1118 1064 1049 1006 990 1014 1022 1043 1012 984 1068 1012 1021 1020 1022 1007 964 935 975 991 959 906 956 1018 1006 946 909 930 955 924 960 962 898 907 924 893 904 956 916 924 943 870 935 886 874 970 916 874 912 930 928 911 948 944 933 904 960 906 856 987 923 942 908 881 967 897 914 917 926 876 900 956 869 903 907 937 938 950 902 919 957 889 923 879 904 914 860 940 881 901 895 898 896 905 881 891 881 938 929 948 917 901 936 951 920 873 916 933 897 946 872 890 877 911 949 867 877 906 868 905 933 907 879 914 914 876 905 861 948 954 937 910 986 945 944 945 951 954 966 935 935 912 970 949 999 940 989 937 925 903 952 905 934 961 963 888 942 902 925 912 880 942 957 900 931 861 912 897 856 871 884 932 922 915 903 929 883 903 852 850 839 900 859 885 854 925 861 859 912 845 877 879 877 841 897 862 900 845 832 871 845 852 881 911 875 869 854 892 924 890 889 840 882 898 816 840 857 876 909 828 896 843 919 826 854 895 901 829 879 940 878 869 858 898 887 838 850 854 861 872 867 871 862 912 836 819 887 863 848 887 831 851 806 893 891 873 808 872 868 839 845 846 861 849 900 856 899 839 907 833 876 870 873 842 859 860 860 891 870 837 843 883 876 876 820 832 902 850 889 873 865 841 873 831 826 901 850 909 865 853 849 856 934 827 845 844 864 881 893 873 882 819 866 939 927 814 822 905 854 824 854 816 864 860 859 881 876 858 839 855 895 870 865 812 836 871 863 867 839 884 819 873 864 872 845 905 823 872 806 868 813 835 892 846 856 851 840 821 839 843 880 885 874 897 850 855 891 813 874 838 821 887 842 828 904 886 860 852 896 928 842 851 902 831 879 863 944 826 908 876 863 903 831 862 848 833 878 799 928 810 884 840 849 925 833 873 859 927 885 797 894 821 902 871 857 857 882 831 897 795 816 869 849 883 844 875 844 868 841 857 871 836 868 827 843 893 874 848 886 810 840 816 904 906 919 884 894 870 833 855 850 883 919 871 900 908 879 871 896 854 824 894 848 821 858 886 873 880 904 878 929 912 896 875 903 907 910 871 925 908 885 819 829 908 851 914 893 880 887 922 911 923 956 906 912 939 968 890 896 887 887 837 932 896 834 919 907 950 858 872 909 929 915 978 969 843 893 908 917 930 935 884 928 907 890 919 903 963 889 921 889 935 878 981 864 912 927 940 857 908 864 861 901 934 928 875 902 890 886 884 881 898 889 896 849 903 908 887 898 943 851 879 932 908 940 838 862 851 905 943 908 914 880 859 939 939 991 950 964 898 895 944 918 883 928 898 860 863 938 919 939 911 930 913 844 885 912 906 855 880 867 846 865 920 956 912 850 839 872 834 863 943 865 857 802 887 874 903 829 870 832 895 857 864 869 874 879 858 879 865 840 904 908 846 881 861 867 811 813 842 940 854 880 813 838 872 834 832 838 838 833 864 846 951 863 863 820 877 810 865 825 863 846 862 864 863 840 849 860 832 851 843 888 857 847 819 895 799 893 894 821 875 841 913 836 817 882 860 869 874 882 855 889 851 825 913 850 848 837 855 902 863 898 821 873 834 828 804 881 867 907 888 939 897 926 896 845 851 839 888 897 899 875 891 861 871 823 834 907 872 900 901 925 928 886 899 865 899 867 903 886 895 951 914 933 918 867 955 915 838 910 946 893 902 916 905 935 944 907 872 921 873 963 939 965 958 945 917 1025 924 884 977 880 948 980 940 979 994 961 1022 1012 992 999 995 1050 1009 1020 943 1024 956 935 1011 1039 1053 1015 976 947 994 1009 959 969 937 943 936 964 1017 983 944 927 914 1026 971 942 981 959 947 935 926 931 911 893 920 943 958 911 921 948 889 932 920 885 893 957 938 954 964 1000 906 1007 944 956 966 961 984 983 989 948 976 1008 997 1006 1020 993 985 1010 1063 1059 948 943 1014 919 1004 994 1017 1036 990 961 998 930 914 969 966 981 991 978 941 966 955 1016 977 1037 994 1002 1007 888 966 984 974 942 995 953 980 963 1009 982 950 950 898 973 929 956 938 894 996 943 1012 940 989 935 968 962 936 943 922 951 1004 913 971 963 974 947 978 913 900 975 1024 950 932 952 880 913 940 937 899 901 974 935 900 904 895 864 912 832 884 876 848 865 896 892 882 924 875 843 841 954 887 886 922 910 887 901 899 843 795 907 838 885 842 827 848 799 862 824 847 854 809 830 844 851 868 887 871 879 876 865 868 855 849 905 878 861 808 858 831 860 793 819 801 801 848 869 883 853 865 791 871 829 862 884 830 842 836 822 897 862 897 822 857 773 863 870 854 878 826 815 820 848 867 848 799 811 842 852 811 834 859 854 817 847 840 853 830 852 820 836 854 813 843 876 849 879 881 867 870 855 882 837 862 881 866 838 826 857 860 771 865 856 863 843 872 775 840 883 871 824 865 905 871 814 821 870 834 824 864 852 836 863 868 767 839 858 884 818 888 827 855 822 844 857 838 848 847 815 850 894 905 870 836 861 839 827 817 830 848 870 815 828 839 873 858 855 863 828 839 800 844 899 891 852 776 907 796 808 878 800 863 854 889 869 827 847 819 885 849 910 845 916 853 825 910 891 825 807 858 849 871 845 800 880 906 861 882 833 873 793 838 811 885 877 856 810 878 788 828 860 836 882 881 859 844 861 855 858 773 822 862 870 894 852 864 874 856 803 828 814 819 839 811 876 868 854 829 872 801 836 841 861 889 896 851 885 825 815 892 848 864 876 853 865 873 834 911 792 887 853 822 868 880 879 874 851 827 828 894 855 817 841 893 892 818 823 843 823 846 855 805 829 870 846 803 854 868 893 864 882 832 831 858 863 858 863 881 830 888 882 842 874 885 808 800 820 844 806 824 858 849 829 897 824 866 869 772 822 869 815 845 849 846 853 800 816 841 843 833 844 885 887 852 848 807 832 879 821 861 895 846 799 828 871 902 858 868 876 807 807 890 872 840 863 873 873 865 854 857 875 840 865 871 874 840 850 847 820 846 834 848 799 813 800 819 906 872 851 843 844 846 820 861 861 849 899 869 801 825 866 865 872 848 848 827 930 857 804 854 865 849 900 918 819 817 830 849 845 884 847 880 846 876 824 882 902 877 885 893 839 878 817 852 893 859 907 877 864 857 941 871 900 887 894 900 920 845 869 919 917 965 864 945 879 937 923 889 845 935 872 937 945 915 954 855 886 926 950 917 949 893 929 896 960 922 903 899 893 932 909 931 912 926 918 928 921 873 876 825 915 942 886 873 871 912 917 898 901 941 884 969 887 904 873 859 871 952 956 856 910 923 906 897 909 973 870 924 917 928 978 906 893 932 896 897 908 899 926 906 937 887 877 942 860 958 962 877 886 870 958 891 902 975 874 845 915 933 913 883 897 930 941 950 891 876 925 939 853 903 923 887 854 875 913 862 882 930 924 842 885 910 938 941 906 868 908 919 843 915 874 877 893 854 916 852 904 854 910 925 858 900 911 883 868 888 886 937 936 843 865 896 856 895 960 857 849 879 948 846 884 914 903 855 917 850 826 846 898 869 819 872 910 845 886 901 866 891 928 882 929 898 870 869 892 859 860 888 915 845 893 858 936 913 949 900 936 922 978 902 907 918 883 927 939 947 946 885 867 970 919 931 928 892 906 952 967 969 969 971 1002 954 897 1027 934 1008 1055 996 1016 1052 1030 1024 983 1045 1029 1029 1013 962 986 974 1027 1026 991 1040 977 1021 988 1050 1017 1042 1019 1061 968 988 995 974 977 922 1055 976 997 961 987 1035 1007 987 984 1004 981 948 1000 1018 965 993 965 998 988 977 1044 931 1009 991 960 1028 1013 991 1010 999 1068 1060 1010 1011 1116 1077 1063 1060 1137 1125 1142 1122 1153 1241 1144 1155 1238 1189 1248 1271 1287 1297 1254 1295 1276 1180 1305 1251 1293 1273 1358 1360 1291 1383 1270 1247 1334 1289 1246 1246 1290 1259 1270 1222 1243 1230 1216 1252 1241 1185 1195 1224 1232 1157 1116 1134 1108 1070 1096 1128 1079 1058 1105 1067 1005 1022 1072 1083 1001 1010 954 979 1010 1025 953 919 1006 970 960 994 955 973 930 926 939 954 907 972 936 954 928 944 917 953 914 913 976 895 935 913 902 878 975 856 931 918 922 926 862 922 952 935 883 892 954 975 882 945 916 920 928 945 943 936 914 901 927 944 935 976 953 961 898 952 912 1007 975 953 973 1019 1009 943 983 938 1021 998 976 987 1061 1023 1087 1042 1048 1032 1003 1044 980 1039 1087 1022 1068 1040 1013 1067 1111 1023 1093 1084 1134 1097 1120 1056 1113 1129 1136 1161 1135 1159 1180 1157 1173 1154 1181 1210 1216 1210 1211 1196 1239 1299 1293 1239 1223 1287 1259 1226 1219 1221 1264 1180 1167 1188 1265 1264 1159 1157 1215 1183 1113 1117 1096 1180 1108 1067 1116 1151 1065 1113 1071 1105 1015 1093 1103 1117 1018 1034 1006 994 1024 976 992 1002 990 1026 964 948 931 959 916 917 878 914 969 987 914 805 875 968 903 959 923 901 909 897 905 898 863 885 911 927 873 827 935 891 909 837 883 911 855 893 862 878 889 877 894 869 852 889 908 856 883 842 914 899 853 864 861 879 853 846 897 887 867 842 819 875 807 900 918 914 838 863 918 919 895 850 818 883 827 867 919 902 885 877 880 851 886 848 899 880 891 885 844 896 878 887 890 869 953 882 873 907 860 896 916 946 919 872 885 865 829 926 899 929 876 844 865 891 897 941 877 873 910 911 879 880 910 861 858 895 833 907 941 843 883 856 861 899 886 849 909 899 902 860 889 851 845 873 856 888 867 860 870 892 918 847 831 858 828 887 863 835 882 872 872 827 838 855 833 860 894 848 833 832 772 910 872 869 854 895 845 884 859 862 873 863 851 875 889 804 854 840 793 868 797 862 860 891 836 853 863 867 883 864 828 892 897 807 876 892 838 831 848 895 890 861 796 842 910 818 865 881 876 889 866 855 914 860 889 855 852 894 849 879 845 858 870 808 933 844 910 880 880 882 864 815 889 859 855 887 912 881 848 942 895 842 871 841 879 885 813 843 935 826 854 887 875 904 872 883 898 855 842 854 833 937 878 814 913 827 845 877 878 862 855 835 888 808 847 805 855 830 870 788 851 842 892 846 882 833 876 824 857 832 862 864 844 832 838 822 812 864 845 837 852 867 819 876 819 872 851 812 882 867 865 810 827 862 880 865 860 848 854 859 847 825 862 907 882 893 919 824 846 847 862 805 855 893 897 872 862 872 824 808 908 849 878 862 887 898 817 814 836 825 851 873 856 831 874 858 871 833 876 890 845 844 861 842 829 917 867 859 881 812 842 901 850 869 828 916 910 872 832 886 842 877 902 832 908 859 885 880 832 848 853 860 890 804 840 891 903 876 861 951 897 800 856 891 930 846 889 882 846 947 926 907 818 888 889 905 899 878 915 900 855 873 885 892 869 915 869 919 891 893 932 856 835 880 867 878 882 966 874 841 921 858 918 908 929 896 881 865 917 957 862 891 897 889 831 827 891 925 909 889 892 883 895 918 902 920 921 923 932 905 888 898 861 905 866 881 895 883 932 919 874 900 867 884 942 886 891 881 947 906 813 865 849 893 902 858 828 907 875 878 899 848 872 848 840 881 905 896 847 928 942 910 841 848 910 871 784 868 830 860 883 914 858 854 875 823 809 859 856 855 849 802 914 897 824 875 894 880 858 855 919 824 883 879 846 866 820 891 828 876 846 855 811 904 885 847 863 870 851 841 827 863 894 856 877 877 853 892 902 841 875 856 858 866 887 884 822 888 874 869 880 882 935 826 918 883 885 844 852 840 861 897 856 912 886 873 896 856 881 845 900 919 911 837 850 893 846 838 928 864 885 883 884 839 922 875 887 866 931 890 844 869 880 918 939 909 876 850 932 901 886 915 921 859 864 933 911 872 935 851 895 873 834 886 869 895 883 934 919 866 905 888 916 871 986 978 952 964 980 972 993 1065 971 999 989 1049 1048 965 996 1001 1045 1015 1022 1076 984 1045 1039 1033 1028 1036 1022 1018 1026 1006 1024 1071 1062 1041 988 1038 1047 1117 1079 1074 1126 1104 1132 1113 1071 1046 1043 1103 1044 1057 1078 1083 1096 1117 1013 1055 1047 1067 1043 1041 1044 1056 1060 1054 1047 996 999 985 1022 1003 1030 1019 1066 1009 969 1019 1054 992 973 1013 1025 985 967 986 1061 1086 1019 1014 1044 1013 1062 1039 991 1022 996 1034 1020 997 1076 1029 1025 1046 982 1015 982 981 1042 966 987 978 995 954 959 990 967 1030 1000 927 931 902 973 966 971 995 942 926 976 955 930 1026 910 960 885 968 951 964 1006 900 956 954 972 934 938 867 906 903 962 898 882 924 927 923 924 879 953 874 926 914 931 908 931 924 949 885 914 937 934 927 900 873 918 971 888 948 962 846 933 913 886 948 994 979 889 910 958 943 1003 978 1022 991 1007 997 1006 978 1018 998 995 957 974 987 979 1001 967 975 990 996 996 983 905 1009 936 1011 963 985 1044 961 962 977 975 1012 1070 976 996 998 991 1005 1086 1028 994 1005 1047 974 964 979 980 1004 970 952 997 978 984 984 955 983 954 954 1009 992 937 932 921 943 1003 963 989 917 989 935 947 932 933 924 916 899 921 926 885 909 904 908 921 897 922 932 859 910 875 793 867 875 890 833 889 889 917 896 941 821 845 879 895 868 852 911 894 873 838 824 902 910 880 840 834 902 884 873 887 882 906 879 862 910 911 841 870 855 881 815 873 888 888 856 849 837 865 861 813 856 888 852 862 859 838 915 872 896 920 910 846 839 857 864 897 876 880 872 900 943 879 868 809 924 851 854 923 895 868 873 881 910 892 902 897 902 888 905 894 918 892 913 950 874 868 876 870 899 896 864 922 870 832 851 856 909 915 864 846 858 908 884 848 893 880 882 845 851 869 846 853 851 911 846 850 916 915 831 884 780 849 882 897 845 864 870 855 872 857 853 882 803 889 828 871 860 893 833 865 860 818 826 884 817 884 835 840 880 877 851 885 837 871 898 909 862 905 814 794 849 861 857 854 895 853 796 904 888 818 833 814 869 845 889 889 836 857 833 869 836 807 872 817 845 886 877 878 891 827 832 841 879 851 817 790 841 862 879 860 824 853 819 863 826 797 829 831 817 868 857 822 838 871 855 869 827 813 879 864 807 833 820 800 821 828 878 889 861 831 799 825 892 824 898 848 829 825 842 867 855 816 774 876 834 857 855 848 853 823 843 911 848 799 827 847 857 826 855 924 873 839 862 852 871 834 853 829 849 819 812 828 813 855 878 880 849 858 910 842 854 809 801 882 868 894 848 870 818 844 887 838 815 824 759 879 896 836 873 851 850 855 894 821 780 846 838 797 882 875 823 867 839 902 875 916 838 866 864 842 809 888 882 891 860 821 879 859 874 851 853 861 845 899 896 862 854 937 875 849 868 865 882 871 839 836 868 898 869 880 894 885 852 857 892 855 880 873 871 836 875 842 895 888 860 846 841 937 870 885 903 843 901 946 885 875 901 926 868 895 940 915 870 932 853 864 865 926 907 885 923 923 874 920 890 854 897 916 899 905 951 836 888 884 872 915 906 900 874 888 841 868 911 912 984 860 871 910 902 908 904 911 832 903 935 893 914 897 907 893 884 894 894 886 914 897 962 893 895 879 860 899 916 886 887 876 955 876 901 886 927 955 870 912 883 873 827 847</counts>
			</dataPoints>
		</scan>
	</xrdMeasurement>
</xrdMeasurements>
