<?xml version="1.0"?>
<xrdMeasurements xmlns="http://www.xrdml.com/XRDMeasurement/2.3" xmlns:xsi="http://www.w3.org/2001/XMLSchema-instance" xsi:schemaLocation="http://www.xrdml.com/XRDMeasurement/2.3 http://www.xrdml.com/XRDMeasurement/2.3/XRDMeasurement.xsd" status="Completed" recordIdentifier="{8F5E6098-2793-4A8F-B15B-D47EE793DF2E}">
	<comment>
		<entry/>
	</comment>
	<sample type="To be analyzed">
		<id>GPSS_Li1p6Fe0p6In0p4Cl4_121325_693cb366f4d05ae3d69752bb</id>
		<name></name>
		<preparedBy></preparedBy>
	</sample>
	<xrdMeasurement measurementType="Scan" status="Completed" sampleMode="Reflection">
		<usedWavelength intended="K-Alpha 1">
			<kAlpha1 unit="Angstrom">1.5405980</kAlpha1>
			<kAlpha2 unit="Angstrom">1.5444260</kAlpha2>
			<kBeta unit="Angstrom">1.3922500</kBeta>
			<ratioKAlpha2KAlpha1>0.5000</ratioKAlpha2KAlpha1>
		</usedWavelength>
		<incidentBeamPath>
			<radius unit="mm">145.00</radius>
			<xRayTube id="1010048" name="Empyrean Cu LFF HR (9430 033 7310x)">
				<tension unit="kV">40.0</tension>
				<current unit="mA">15.0</current>
				<anodeMaterial>Cu</anodeMaterial>
				<focus type="Line">
					<length unit="mm">12.0</length>
					<width unit="mm">0.4</width>
					<takeOffAngle unit="deg">6.0</takeOffAngle>
				</focus>
			</xRayTube>
			<sollerSlit id="21010002" name="Soller slits 0.04 rad.">
				<opening unit="rad">0.0400</opening>
			</sollerSlit>
			<mask id="22031000" name="Fixed mask 13 mm">
				<width unit="mm">9.00</width>
			</mask>
			<divergenceSlit id="22120001" name="Divergence slit 1°" xsi:type="fixedDivergenceSlitType">
				<distanceToSample unit="mm">50.00</distanceToSample>
				<height unit="mm">1.52</height>
			</divergenceSlit>
		</incidentBeamPath>
		<sampleMovement xsi:type="spinningSampleMovementType">
			<spinnerRevolutionTime unit="seconds">1.0</spinnerRevolutionTime>
		</sampleMovement>
		<diffractedBeamPath>
			<radius unit="mm">145.00</radius>
			<antiScatterSlit id="22090040" name="AS slit 9 mm (PIXcel)" xsi:type="fixedAntiScatterSlitType">
				<height unit="mm">9.00</height>
			</antiScatterSlit>
			<sollerSlit id="21020003" name="Large Soller slits 0.04 rad.">
				<opening unit="rad">0.0400</opening>
			</sollerSlit>
			<filter id="20030001" name="Large beta-filter Nickel">
				<material>Ni</material>
				<thickness unit="mm">0.020</thickness>
			</filter>
			<detector id="7010019" name="PIXcel1D-Medipix3 detector" xsi:type="rtmsDetectorType">
				<phd unit="keV">
					<lowerLevel>4.02</lowerLevel>
					<upperLevel>11.27</upperLevel>
				</phd>
				<mode>Scanning</mode>
				<activeLength unit="deg">5.542</activeLength>
			</detector>
		</diffractedBeamPath>
		<scan appendNumber="0" mode="Continuous" scanAxis="Gonio" status="Completed">
			<header>
				<startTimeStamp>2025-12-17T10:49:38-08:00</startTimeStamp>
				<endTimeStamp>2025-12-17T10:57:45-08:00</endTimeStamp>
				<author>
					<name>AutomatedUser</name>
				</author>
				<source>
					<applicationSoftware version="1.7b (136)">PANalytical Aeris Instrument Suite</applicationSoftware>
					<instrumentControlSoftware version="3.2.00000000 20240306">AERIS</instrumentControlSoftware>
					<instrumentID>950485</instrumentID>
				</source>
			</header>
			<dataPoints>
				<positions axis="2Theta" unit="deg">
					<startPosition>10.00943322</startPosition>
					<endPosition>99.99442286</endPosition>
				</positions>
				<positions axis="Omega" unit="deg">
					<startPosition>5.00471661</startPosition>
					<endPosition>49.99721143</endPosition>
				</positions>
				<commonCountingTime unit="seconds">12.495</commonCountingTime>
				<counts unit="counts">2977 3080 2966 2896 3058 3140 3108 2993 3050 3096 3064 2900 2977 3029 3084 3093 3114 3058 3048 3061 3096 3024 3080 3019 3074 3064 3112 3080 3073 3096 3026 2987 3082 3032 3150 3001 3100 3160 3015 3112 3108 3160 3125 3105 3177 3118 3209 3144 3228 3201 3144 3191 3187 3105 3125 3213 3270 3326 3132 3269 3298 3340 3329 3394 3283 3276 3376 3465 3512 3377 3424 3511 3494 3418 3505 3567 3594 3563 3617 3634 3610 3746 3743 3723 3800 3781 3800 3946 3924 3943 3933 3912 3932 4104 4097 4075 4162 4111 4245 4135 4125 4300 4322 4341 4179 4223 4345 4250 4306 4327 4196 4174 4237 4232 4202 4158 4232 4076 4012 4082 3979 3945 3980 3786 3817 3719 3641 3430 3510 3548 3501 3331 3503 3432 3461 3406 3314 3423 3474 3383 3266 3413 3434 3273 3384 3256 3324 3401 3269 3315 3259 3329 3215 3296 3225 3302 3360 3357 3412 3320 3298 3356 3297 3269 3274 3382 3251 3293 3255 3249 3366 3316 3314 3254 3214 3306 3253 3389 3288 3358 3309 3264 3294 3167 3156 3181 3279 3177 3171 3238 3350 3300 3344 3245 3171 3167 3269 3222 3246 3062 3263 3256 3238 3262 3161 3312 3205 3272 3321 3286 3242 3310 3255 3224 3245 3141 3271 3206 3153 3226 3188 3163 3216 3157 3182 3235 3254 3379 3258 3218 3222 3271 3198 3153 3134 3217 3270 3335 3109 3230 3055 3303 3152 3167 3222 3302 3212 3325 3309 3252 3268 3251 3167 3157 3208 3150 3107 3204 3332 3116 3166 3196 3259 3174 3073 3234 3132 3116 3238 3249 3172 3179 3232 3298 3163 3166 3131 3184 3284 3241 3224 3139 3194 3220 3210 3215 3133 3215 3247 3195 3218 3267 3227 3345 3216 3174 3148 3216 3222 3214 3244 3284 3319 3227 3237 3309 3271 3107 3317 3237 3268 3342 3219 3307 3208 3273 3196 3294 3221 3294 3301 3260 3282 3213 3261 3141 3281 3294 3292 3289 3424 3319 3240 3213 3301 3373 3414 3270 3336 3373 3371 3454 3411 3364 3372 3253 3315 3235 3336 3345 3427 3426 3422 3433 3444 3522 3492 3458 3415 3433 3436 3561 3414 3448 3477 3504 3542 3571 3523 3486 3467 3593 3534 3564 3494 3592 3482 3657 3579 3563 3625 3564 3583 3447 3663 3617 3597 3666 3663 3699 3711 3611 3659 3667 3636 3636 3549 3700 3761 3627 3728 3721 3698 3734 3723 3727 3714 3722 3847 3749 3699 3900 3760 3782 3797 3854 3848 3845 3929 3978 3948 3907 4036 3929 4024 4062 4156 4112 4269 4179 4156 4167 4267 4173 4322 4352 4349 4386 4302 4386 4445 4486 4571 4599 4561 4554 4661 4838 4613 4748 4871 4859 5060 5118 5138 5149 5219 5454 5440 5407 5480 5567 5703 5711 5856 5772 5962 5862 5827 5782 5948 5856 5932 5835 5785 5713 5682 5497 5451 5339 5435 5067 5128 4950 4868 4652 4664 4512 4433 4381 4239 4203 4019 4025 3946 4018 3927 3763 3821 3788 3825 3795 3731 3778 3706 3978 3667 3680 3784 3743 3708 3720 3711 3576 3783 3759 3597 3663 3699 3634 3530 3660 3639 3504 3587 3426 3507 3474 3440 3492 3387 3410 3444 3221 3336 3390 3347 3430 3361 3319 3411 3305 3376 3245 3363 3304 3391 3208 3299 3186 3228 3313 3342 3252 3276 3271 3175 3171 3283 3244 3253 3319 3220 3185 3172 3228 3229 3248 3247 3228 3266 3130 3108 3219 3228 3143 3228 3253 3071 3147 3262 3146 3249 3265 3127 3189 3180 3073 3169 3118 3023 3135 3108 3050 3193 3072 3133 3242 3081 3120 3067 3081 3115 3023 3164 3108 3193 3148 3086 3074 3149 3116 3136 3096 3053 3241 3063 3037 3128 2997 3093 2968 3069 3189 3133 3217 3116 3249 3124 3028 3149 3075 3083 3094 3084 3114 3230 3191 3190 3293 3237 3181 3174 3201 3186 3231 3233 3214 3265 3220 3203 3263 3131 3226 3330 3267 3343 3320 3190 3285 3234 3178 3240 3389 3319 3357 3406 3270 3279 3370 3477 3314 3406 3329 3318 3371 3418 3319 3221 3382 3281 3307 3297 3355 3353 3188 3322 3236 3199 3282 3192 3061 3114 3037 3105 2963 2994 3009 3036 3002 3052 2957 3020 3065 3006 2995 3078 3060 2852 3069 2911 2999 3001 2948 2985 2921 2996 3015 2990 2898 2988 2941 2852 2876 2937 2914 2919 2958 2924 2858 3079 2937 2991 2794 2872 2848 2904 2922 2920 2846 2957 2885 2911 2922 2952 2973 2927 3022 2868 2948 2977 2875 2872 2913 2865 2912 2950 2849 2818 2986 2828 2873 2946 2892 2910 2898 2981 2794 2840 2728 2906 2936 2731 2953 2809 2845 2996 2908 2950 2889 3009 2850 2751 2979 2782 2882 2832 2756 2874 2758 2889 2879 2816 2973 2884 2934 2817 2929 2880 2875 2796 2917 2776 2844 2839 2779 2840 2853 2839 2881 2819 2876 2875 2933 2810 2899 2873 2830 2818 2730 2890 2931 2875 2917 2772 2832 2842 2776 2834 2801 2826 2774 2829 2786 2822 2854 2751 2750 2777 2808 2814 2804 2869 2798 2851 2805 2849 2784 2818 2842 2777 2687 2814 2843 2878 2790 2847 2862 2744 2773 2833 2804 2782 2856 2787 2778 2848 2682 2715 2772 2770 2815 2798 2790 2838 2819 2727 2838 2708 2725 2752 2792 2777 2792 2751 2779 2804 2698 2785 2724 2723 2745 2734 2699 2734 2766 2624 2720 2730 2746 2789 2735 2673 2692 2662 2767 2783 2851 2709 2741 2714 2677 2711 2796 2701 2693 2776 2633 2692 2619 2753 2763 2692 2816 2744 2607 2627 2646 2665 2743 2806 2666 2670 2672 2726 2700 2614 2793 2668 2691 2623 2737 2708 2718 2708 2561 2677 2660 2698 2627 2716 2768 2700 2670 2625 2667 2675 2590 2560 2660 2717 2589 2701 2631 2656 2666 2667 2720 2700 2567 2629 2712 2707 2602 2698 2717 2710 2632 2717 2744 2690 2659 2644 2775 2698 2654 2582 2616 2594 2664 2612 2623 2606 2673 2707 2552 2705 2610 2681 2638 2601 2659 2668 2680 2660 2686 2537 2625 2689 2629 2616 2721 2718 2638 2637 2584 2657 2632 2673 2667 2617 2704 2644 2678 2656 2607 2621 2673 2664 2552 2624 2750 2655 2582 2693 2659 2682 2657 2641 2704 2706 2663 2611 2708 2573 2704 2671 2613 2654 2643 2661 2692 2681 2664 2663 2650 2650 2681 2731 2624 2701 2626 2677 2633 2539 2676 2661 2658 2624 2711 2690 2660 2600 2564 2592 2626 2691 2715 2666 2641 2672 2672 2651 2713 2699 2692 2643 2659 2575 2657 2710 2648 2689 2694 2590 2621 2709 2680 2603 2567 2647 2722 2609 2673 2614 2545 2656 2581 2630 2602 2621 2736 2680 2598 2516 2548 2625 2639 2589 2611 2582 2674 2651 2705 2679 2648 2704 2599 2622 2589 2539 2551 2644 2581 2552 2568 2591 2644 2581 2588 2633 2567 2499 2601 2513 2541 2630 2516 2514 2604 2548 2549 2635 2606 2571 2500 2603 2553 2616 2498 2540 2535 2561 2531 2582 2449 2459 2440 2554 2524 2554 2372 2517 2475 2381 2408 2429 2521 2343 2464 2395 2483 2525 2449 2471 2467 2421 2458 2473 2375 2408 2406 2335 2487 2373 2433 2455 2420 2475 2498 2425 2454 2431 2404 2393 2384 2445 2337 2291 2393 2348 2381 2374 2386 2300 2391 2338 2361 2337 2330 2338 2306 2353 2255 2304 2324 2285 2219 2269 2289 2352 2223 2229 2351 2274 2274 2269 2272 2256 2219 2242 2259 2192 2263 2232 2266 2191 2232 2181 2283 2199 2219 2164 2232 2189 2213 2193 2162 2237 2284 2308 2198 2202 2236 2240 2144 2224 2183 2180 2242 2162 2202 2169 2206 2263 2227 2226 2288 2183 2174 2148 2190 2094 2255 2129 2076 2123 2206 2164 2155 2223 2218 2206 2234 2221 2243 2189 2237 2139 2231 2222 2158 2284 2246 2285 2296 2313 2207 2308 2234 2267 2248 2357 2364 2304 2381 2338 2233 2317 2363 2270 2256 2333 2400 2273 2429 2370 2360 2352 2492 2362 2417 2343 2348 2495 2438 2414 2490 2472 2551 2546 2544 2482 2585 2603 2570 2603 2526 2527 2662 2562 2610 2618 2546 2662 2603 2593 2498 2539 2435 2446 2403 2320 2422 2388 2354 2293 2264 2228 2300 2316 2213 2243 2206 2086 2176 2178 2095 2193 2116 2081 2027 2081 2098 2122 2100 2032 2069 2058 2024 2086 2077 2074 2025 1990 2030 2090 2060 2069 2033 1986 2037 2091 2114 2072 2056 2080 2007 2124 1991 2058 1999 2061 2010 2039 2048 2053 2039 2015 2096 2040 2092 2080 2014 2074 1960 2053 2156 2047 2015 2027 2076 2094 2053 2073 2077 2014 2067 2033 2054 2033 2020 2074 2000 2067 2121 2064 2034 2092 2088 2030 1986 2047 2046 2047 2119 2105 1931 2112 2015 2064 2111 2086 2062 1949 2001 2021 2147 2111 2083 2088 2156 2034 2008 2070 2084 2042 2041 2089 2127 2082 2043 2044 2100 1973 1994 2189 2008 2028 2125 2105 2083 2090 1991 2016 2000 2008 2038 2037 2007 2017 2071 2068 2022 2049 2003 2052 1947 2074 2036 2091 1965 2069 2103 1950 2122 1976 1941 2012 2019 2020 2021 2074 2051 2048 2005 2036 2079 1986 2056 1950 1946 2060 2037 1951 1990 1952 1997 1998 1990 1976 1976 1981 1938 1919 2063 1980 1992 1892 2012 1999 1936 2006 2052 1964 1967 1996 1898 1927 1912 1914 2002 2036 1968 1978 1976 1903 1887 1947 1815 1867 1913 1923 1953 1915 2045 1872 1886 1970 1945 1949 1907 1825 1962 1917 1843 1903 1914 1855 1957 1961 1783 1861 1948 1813 1922 1870 1895 1925 1890 1929 1851 1935 1862 1819 1853 1867 1875 1911 1806 1771 1856 1872 1851 1773 1840 1857 1827 1823 1926 1855 1920 1833 1759 1842 1748 1884 1829 1834 1818 1796 1887 1770 1868 1864 1835 1798 1793 1751 1722 1827 1833 1857 1824 1797 1781 1805 1768 1787 1844 1728 1744 1851 1757 1800 1729 1795 1750 1762 1755 1742 1748 1706 1755 1805 1771 1764 1773 1692 1713 1800 1766 1774 1793 1837 1726 1759 1761 1780 1905 1876 1814 1765 1740 1835 1790 1827 1778 1879 1902 1902 1883 1940 1898 2011 1963 2028 2011 2082 2005 2161 2133 2189 2260 2128 2178 2139 2070 2144 2226 2110 2280 2186 2159 2159 2096 2207 2142 2268 2293 2176 2290 2326 2255 2430 2289 2373 2463 2478 2528 2582 2516 2464 2447 2605 2555 2509 2588 2611 2498 2623 2491 2485 2390 2388 2369 2240 2329 2162 2266 2152 2131 2060 1994 2051 1936 1981 1956 1920 1874 1835 1755 1798 1881 1717 1764 1742 1726 1845 1682 1702 1784 1670 1701 1675 1796 1630 1635 1655 1707 1567 1640 1678 1722 1671 1639 1606 1655 1580 1643 1678 1595 1693 1666 1594 1655 1676 1676 1592 1654 1629 1697 1557 1668 1708 1716 1666 1672 1658 1659 1722 1731 1792 1819 1755 1805 1807 1845 1857 1880 1847 1909 2047 1863 1898 2071 1929 1993 2005 2030 1985 2011 2056 2026 1972 2072 1940 2014 2108 2095 2122 2152 2159 2226 2158 2364 2280 2316 2426 2483 2429 2496 2416 2408 2429 2390 2526 2502 2539 2511 2547 2389 2400 2405 2350 2322 2226 2284 2170 2153 2204 2032 2065 2032 1937 1937 1836 1875 1804 1796 1777 1776 1671 1691 1633 1681 1631 1618 1554 1617 1568 1527 1519 1517 1590 1453 1506 1511 1504 1533 1494 1499 1507 1489 1519 1490 1481 1431 1488 1469 1526 1454 1440 1430 1583 1513 1477 1457 1520 1409 1525 1438 1468 1486 1492 1502 1444 1452 1419 1519 1395 1487 1455 1494 1505 1449 1518 1498 1386 1506 1491 1467 1429 1509 1455 1382 1442 1414 1384 1381 1399 1466 1509 1527 1382 1490 1362 1491 1491 1443 1364 1502 1468 1519 1426 1477 1434 1507 1393 1453 1442 1436 1431 1432 1452 1409 1440 1423 1431 1421 1450 1414 1476 1386 1451 1420 1385 1444 1384 1429 1426 1470 1416 1398 1417 1404 1397 1417 1374 1443 1410 1371 1357 1468 1437 1458 1339 1339 1405 1481 1455 1357 1321 1342 1400 1353 1417 1400 1429 1380 1325 1372 1350 1320 1403 1416 1407 1323 1385 1365 1400 1363 1336 1385 1372 1382 1346 1335 1390 1418 1320 1366 1387 1370 1359 1396 1373 1300 1344 1379 1357 1353 1380 1372 1365 1371 1331 1406 1277 1363 1297 1372 1301 1373 1371 1359 1303 1319 1276 1386 1276 1363 1365 1438 1324 1372 1313 1341 1337 1376 1342 1383 1371 1385 1323 1348 1284 1330 1319 1376 1394 1415 1340 1418 1367 1349 1340 1324 1278 1328 1307 1318 1391 1304 1356 1367 1407 1358 1389 1386 1370 1385 1347 1412 1381 1335 1346 1368 1362 1302 1417 1274 1369 1254 1375 1319 1385 1359 1362 1355 1361 1430 1336 1333 1405 1453 1394 1345 1390 1365 1362 1408 1377 1413 1378 1375 1425 1351 1387 1399 1392 1441 1446 1475 1440 1467 1503 1519 1532 1561 1520 1564 1528 1574 1627 1508 1553 1514 1515 1533 1562 1449 1564 1509 1567 1506 1540 1544 1576 1543 1532 1547 1527 1646 1658 1552 1650 1638 1662 1638 1632 1682 1647 1654 1626 1597 1786 1653 1699 1679 1651 1636 1715 1720 1623 1681 1647 1586 1577 1599 1603 1616 1611 1558 1631 1560 1638 1530 1549 1595 1566 1636 1555 1601 1594 1638 1637 1710 1719 1681 1699 1725 1717 1832 1851 1822 1791 1959 1915 1950 1989 1974 2018 2038 2115 2081 2246 2256 2307 2386 2414 2466 2490 2523 2530 2589 2700 2741 2726 2781 2860 2978 2977 2990 3063 3203 3224 3208 3205 3435 3350 3401 3379 3390 3409 3362 3441 3485 3448 3506 3510 3554 3422 3522 3573 3615 3526 3536 3557 3606 3640 3700 3685 3741 3755 3768 3720 3876 3701 3751 3712 3691 3638 3503 3476 3455 3310 3208 3008 2915 2970 2740 2783 2534 2438 2390 2344 2283 2139 2102 2037 1890 1964 1900 1842 1762 1811 1762 1671 1646 1624 1563 1654 1628 1501 1504 1539 1498 1458 1467 1519 1470 1428 1442 1442 1428 1420 1396 1391 1426 1401 1412 1388 1384 1375 1416 1404 1336 1383 1466 1438 1382 1414 1395 1468 1369 1428 1371 1329 1379 1389 1352 1358 1364 1319 1387 1317 1366 1379 1299 1305 1292 1257 1320 1319 1345 1267 1276 1350 1269 1233 1327 1320 1262 1318 1265 1339 1249 1256 1288 1290 1307 1289 1258 1350 1298 1347 1273 1239 1328 1266 1293 1326 1266 1266 1247 1346 1265 1255 1316 1188 1300 1248 1240 1213 1317 1265 1254 1306 1317 1269 1191 1276 1221 1265 1241 1261 1227 1256 1210 1286 1314 1228 1268 1266 1234 1234 1216 1238 1180 1258 1217 1222 1236 1235 1263 1258 1276 1260 1243 1261 1265 1231 1222 1182 1258 1235 1285 1253 1255 1279 1287 1236 1237 1263 1180 1194 1224 1194 1207 1242 1179 1244 1212 1232 1261 1251 1211 1200 1210 1226 1157 1162 1197 1263 1226 1245 1235 1194 1283 1190 1242 1219 1162 1211 1209 1206 1195 1197 1157 1191 1201 1240 1178 1236 1212 1223 1156 1172 1232 1165 1189 1178 1174 1169 1157 1220 1195 1185 1184 1148 1185 1168 1225 1176 1223 1207 1160 1229 1268 1229 1249 1216 1232 1285 1217 1287 1221 1180 1267 1304 1270 1316 1225 1271 1318 1299 1266 1316 1282 1329 1312 1304 1267 1337 1313 1242 1232 1341 1315 1313 1352 1391 1318 1387 1336 1357 1352 1335 1374 1323 1387 1308 1377 1383 1312 1444 1347 1348 1344 1393 1433 1453 1353 1388 1419 1310 1344 1371 1354 1297 1290 1327 1339 1325 1332 1341 1328 1310 1390 1289 1295 1243 1252 1234 1223 1226 1234 1253 1281 1223 1268 1180 1181 1225 1254 1247 1252 1169 1163 1233 1142 1218 1246 1179 1162 1252 1177 1198 1200 1171 1201 1159 1225 1190 1255 1241 1235 1251 1248 1228 1217 1227 1268 1306 1326 1294 1206 1276 1265 1257 1284 1278 1259 1257 1333 1336 1202 1264 1220 1294 1323 1280 1322 1284 1336 1296 1334 1319 1384 1258 1375 1275 1319 1399 1342 1364 1307 1351 1341 1304 1303 1373 1322 1303 1231 1299 1287 1265 1255 1261 1233 1231 1337 1213 1192 1228 1193 1200 1207 1172 1179 1169 1210 1158 1184 1139 1149 1166 1150 1153 1166 1176 1137 1166 1166 1152 1133 1210 1160 1184 1176 1227 1145 1185 1096 1151 1089 1177 1066 1140 1112 1150 1114 1152 1171 1165 1145 1145 1168 1105 1118 1201 1125 1262 1118 1138 1154 1131 1135 1104 1138 1171 1112 1144 1156 1165 1120 1103 1160 1154 1194 1129 1115 1142 1136 1214 1095 1134 1184 1113 1143 1120 1140 1139 1158 1169 1152 1115 1151 1146 1162 1130 1153 1142 1137 1114 1130 1066 1077 1073 1168 1124 1124 1124 1095 1182 1145 1167 1152 1141 1093 1125 1122 1091 1185 1072 1184 1119 1079 1130 1164 1148 1088 1148 1147 1124 1109 1089 1148 1123 1107 1069 1109 1139 1156 1099 1109 1130 1123 1143 1184 1105 1124 1167 1182 1160 1184 1165 1156 1149 1118 1130 1210 1136 1096 1121 1084 1093 1135 1079 1102 1149 1143 1138 1134 1164 1143 1132 1138 1104 1128 1156 1089 1051 1152 1043 1117 1105 1152 1149 1108 1077 1163 1136 1117 1159 1053 1123 1169 1095 1143 1105 1061 1090 1157 1121 1090 1097 1120 1114 1126 1153 1148 1052 1117 1110 1149 1113 1139 1108 1062 1074 1128 1082 1025 1167 1125 1168 1102 1116 1117 1078 1171 1107 1129 1133 1106 1138 1091 1115 1093 1113 1060 1122 1176 1072 1067 1131 1124 1144 1105 1132 1126 1112 1044 1092 1086 1176 1130 1161 1098 1134 1111 1175 1119 1090 1123 1072 1166 1116 1107 1136 1142 1162 1155 1111 1148 1119 1129 1156 1098 1218 1113 1155 1110 1061 1113 1204 1147 1102 1111 1114 1192 1125 1148 1077 1083 1126 1140 1128 1114 1118 1090 1241 1171 1183 1102 1147 1107 1161 1150 1206 1159 1199 1133 1153 1197 1113 1211 1167 1174 1153 1116 1247 1163 1059 1125 1193 1207 1135 1159 1193 1225 1205 1195 1191 1218 1219 1165 1174 1269 1157 1245 1191 1237 1208 1259 1163 1226 1197 1251 1205 1159 1145 1199 1183 1162 1200 1119 1170 1145 1089 1068 1115 1084 1069 1060 1117 1044 1164 1159 1124 1085 1054 1099 1056 1076 1084 1067 1083 1097 1070 1093 1083 1065 1099 1113 1054 1119 1078 1146 1106 1107 1022 1112 1057 1111 1076 1097 1134 1060 1058 1088 1093 1061 1124 1078 1076 1039 1134 1117 1024 1086 1093 1089 1047 1054 1083 1086 1105 1090 1100 1112 1108 1060 1047 1076 1044 1120 1064 1112 1059 1034 1075 1068 1097 1063 1093 1100 1118 1015 1057 1038 1088 1049 1059 1087 1046 1111 1099 1054 1089 1097 1094 1071 1058 1081 1072 1012 1108 1090 1158 1008 1065 1039 1089 1052 1063 1113 1129 1119 1148 1128 1086 1124 1132 1103 1094 1131 1046 1098 1078 1082 1123 1114 1110 1089 1129 1167 1090 1203 1138 1126 1134 1182 1192 1091 1161 1125 1134 1145 1088 1196 1132 1164 1179 1137 1155 1120 1196 1120 1135 1228 1135 1181 1167 1093 1117 1180 1146 1124 1107 1203 1105 1152 1137 1109 1123 1077 1126 1180 1127 1101 1155 1162 1075 1107 1160 1133 1103 1095 1102 1135 1131 1150 1131 1159 1147 1163 1183 1138 1221 1205 1138 1228 1238 1122 1207 1170 1182 1208 1225 1203 1229 1151 1221 1202 1207 1214 1241 1223 1283 1180 1352 1282 1295 1325 1281 1343 1272 1293 1317 1375 1369 1370 1366 1321 1322 1307 1424 1382 1315 1338 1304 1403 1273 1304 1357 1370 1392 1355 1335 1306 1325 1432 1331 1357 1375 1289 1337 1390 1265 1371 1350 1194 1373 1307 1323 1339 1312 1295 1377 1306 1267 1213 1281 1293 1257 1269 1217 1235 1229 1197 1172 1166 1116 1145 1158 1166 1142 1165 1187 1145 1176 1121 1170 1087 1115 1072 1127 1110 1119 1060 1065 1064 1054 1122 1049 1012 1087 1063 1067 1076 1010 1041 1022 1059 1081 1035 1073 1046 1003 989 1026 1050 1012 1075 987 1052 1063 1030 980 1054 1060 1060 1072 1045 1008 1025 1033 1105 1081 1015 1049 1097 1100 1070 1126 1040 1046 1094 1132 1075 1015 1044 1054 1028 1084 1036 1054 1079 1075 1052 1069 1037 1061 1037 997 1013 1042 999 1064 1046 981 1038 1043 1056 1045 1014 1038 1016 1080 1050 980 1008 1093 1098 1044 1070 1050 1080 1063 1093 1040 1011 1042 1171 1052 1021 1053 1058 971 1015 1023 1052 1071 999 1026 1010 1028 1060 1056 1027 1100 1056 1047 992 1047 1057 1068 1035 1126 1069 1031 963 1056 994 1059 1039 1038 1044 1047 1068 1025 1063 1079 1003 1051 1096 1061 1099 1069 1056 1076 1087 1107 1024 1159 1045 1085 1131 1085 1140 1062 1090 1147 1030 1120 1094 1070 1048 1113 1108 1131 1102 1048 1114 1059 1061 1070 1112 1108 1097 1146 1053 1128 1052 1098 1069 1124 1073 1072 1025 1083 1003 1059 1041 1072 1035 1043 1063 1013 1074 1078 1093 1002 1053 1063 1027 1133 1016 1035 1043 1044 1058 1040 1063 1047 1026 1003 1029 1009 1055 971 1051 1068 1065 1033 1051 1054 1084 1069 1052 1060 1026 1029 1081 1030 1051 1065 1032 1117 1090 1045 1120 996 1052 1123 1127 1047 1102 1035 993 1033 1045 1053 1135 1045 1088 1077 1034 1055 1055 1122 1043 1107 1030 1111 1077 1105 1061 1092 1057 1055 1086 1134 1169 1075 1112 1052 1078 1098 1077 1110 1114 1097 1092 1170 1137 1141 1172 1114 1180 1153 1269 1202 1173 1303 1261 1275 1305 1280 1287 1272 1319 1390 1407 1415 1475 1444 1460 1528 1558 1627 1613 1666 1715 1751 1799 1819 1924 1915 2040 2002 1946 2051 1960 2065 2121 2149 2120 2111 2194 2129 2167 2276 2199 2274 2190 2163 2208 2175 2238 2293 2293 2286 2288 2402 2471 2398 2474 2411 2431 2462 2458 2402 2393 2428 2390 2306 2322 2259 2295 2226 2191 2138 2057 2023 2021 1984 1970 1888 1943 1740 1795 1709 1667 1623 1666 1520 1540 1457 1439 1403 1512 1406 1360 1375 1351 1327 1295 1313 1308 1311 1203 1221 1188 1154 1211 1209 1139 1171 1160 1162 1185 1106 1130 1103 1079 1085 1129 1106 1139 1104 1145 1052 1062 1033 1078 1082 1029 1054 1053 1010 1023 1101 1020 1099 1067 1059 1048 1054 1079 1096 1027 1083 1115 1050 1074 1058 1081 1087 969 1040 1016 1066 1072 1102 1023 1083 1038 1042 1055 1003 999 1058 1042 1001 1127 1009 1022 990 1041 965 1084 998 995 1046 1014 1021 1027 1057 1055 1009 979 1019 1000 1087 1000 1069 1028 1041 1035 981 1038 1126 1030 1042 1055 1069 1047 1013 1034 976 1084 960 1032 1019 1054 1049 979 1087 946 1006 1074 1016 1045 1035 1097 993 1044 1064 1014 1049 1026 1026 1042 1016 1079 1123 1066 1074 1055 1018 1104 1051 1046 1126 1085 1122 1097 1121 1145 1152 1070 1199 1148 1107 1079 1144 1166 1203 1148 1174 1192 1220 1156 1255 1233 1244 1192 1248 1260 1274 1262 1297 1254 1259 1259 1254 1237 1314 1323 1239 1258 1242 1285 1254 1308 1293 1365 1323 1341 1363 1333 1288 1351 1270 1273 1265 1306 1284 1286 1238 1252 1268 1264 1254 1156 1164 1262 1179 1217 1195 1177 1165 1221 1168 1190 1190 1136 1107 1142 1189 1120 1096 1117 1123 1028 1108 1131 1070 1068 1087 1061 1066 1060 1031 1109 1069 1048 1047 1108 1083 1139 1039 1052 1059 1089 1087 1021 1064 1017 1100 1149 1062 1055 1033 1036 1100 1007 1079 1064 1096 1073 1059 1040 1052 1066 1119 1070 1050 1056 1077 975 1012 1021 1063 1053 1106 1035 1022 1015 1063 1054 1059 1057 1039 1031 1055 1021 1058 1060 1028 1060 1062 990 1037 1038 968 1022 976 999 1019 1018 988 996 1026 973 915 1051 973 1036 942 977 928 974 1002 936 965 970 980 899 985 926 923 945 958 965 959 1022 996 997 962 915 942 985 977 915 980 943 1020 971 997 1011 922 1006 902 937 920 974 963 950 951 985 929 904 886 984 946 955 956 905 978 954 970 963 893 963 941 985 911 925 904 914 930 1028 1049 983 953 915 954 948 954 952 1010 901 990 936 921 923 933 968 945 950 891 991 952 942 964 964 900 933 936 989 1007 933 960 935 920 931 930 917 985 939 966 933 1021 923 927 932 942 902 924 952 939 936 952 988 938 1011 935 910 864 897 892 943 946 942 926 920 942 940 973 958 931 977 895 943 928 991 915 1001 914 931 904 962 921 951 944 921 940 938 966 939 967 942 967 955 950 939 963 936 994 934 928 890 957 907 943 943 964 960 948 935 935 937 931 943 975 964 956 932 940 938 933 932 891 889 931 918 927 967 894 921 936 977 883 889 925 936 930 936 931 945 926 924 912 907 922 944 903 917 976 897 967 919 970 942 984 1018 1022 989 950 884 895 996 987 938 941 970 1031 940 924 981 961 936 989 987 959 956 978 938 933 931 974 972 946 1013 999 980 973 968 958 964 949 934 956 1028 970 1020 993 965 960 951 992 996 1006 983 1002 989 1009 981 973 1045 997 1036 990 1049 1044 978 1009 953 995 989 1018 980 1004 1046 1014 1041 1016 971 995 1061 1068 994 1030 1002 975 1081 992 1019 1032 985 964 1024 992 974 1025 937 1000 1061 947 1038 1005 1035 1012 975 1002 970 936 985 960 997 1002 980 1019 986 957 949 1002 991 988 997 936 966 988 955 984 927 957 970 1000 961 934 1000 945 970 921 924 846 923 891 902 957 884 919 936 968 947 902 957 915 929 950 907 878 953 908 903 959 916 918 924 937 971 981 907 993 898 950 971 906 916 991 1009 949 949 884 955 984 1002 904 949 929 996 890 986 995 918 911 950 953 948 984 1000 939 944 925 932 949 955 975 980 923 965 1014 1009 1022 931 979 981 959 988 991 1008 1007 1009 1034 990 1021 1026 985 1017 981 998 988 1011 972 1014 967 978 983 950 965 949 990 977 957 943 1000 1011 950 1013 1020 961 942 994 1014 1027 1023 955 977 981 943 975 952 927 1020 947 994 972 1017 964 989 966 962 1023 1004 911 961 997 970 948 934 986 1031 1012 993 979 976 940 953 958 973 977 965 1001 970 1026 1006 981 991 1007 989 994 996 984 1053 947 1019 1014 1030 982 929 1020 996 1035 1026 1056 1032 1014 995 1042 1016 991 1001 1002 1015 1033 995 978 1045 1062 1024 956 964 1000 998 958 1065 972 999 954 1030 961 962 966 954 956 920 1003 992 940 979 993 985 942 910 1013 954 965 949 944 907 930 980 950 936 932 937 959 941 928 942 914 932 954 970 952 929 895 982 912 964 952 926 950 923 911 911 891 942 938 885 931 916 932 950 953 916 918 880 874 887 960 921 917 904 892 903 897 908 885 925 980 934 875 904 900 935 915 956 909 890 855 927 950 883 864 941 969 903 973 925 929 977 938 900 889 998 885 904 917 952 914 924 864 925 842 914 895 907 914 964 880 896 916 890 847 894 940 921 955 843 962 939 900 870 928 894 875 864 877 910 880 888 889 911 953 934 847 934 899 909 1002 845 959 861 885 923 945 903 934 906 872 894 954 1001 869 913 886 930 959 924 945 932 995 949 951 912 966 935 947 962 932 970 970 1011 984 975 940 991 884 995 967 885 968 986 979 948 952 992 1007 944 952 970 1016 984 1045 1019 1046 1039 1092 1047 1013 1041 1024 1068 1049 1083 1064 1080 1125 1096 1118 1125 1124 1086 1145 1200 1167 1135 1124 1151 1243 1203 1186 1194 1204 1131 1237 1238 1273 1224 1291 1175 1283 1300 1295 1296 1249 1261 1263 1270 1187 1318 1264 1363 1274 1236 1352 1256 1266 1272 1323 1355 1264 1318 1284 1264 1212 1267 1297 1254 1250 1230 1205 1167 1216 1175 1178 1189 1145 1116 1158 1103 1123 1129 1093 1040 1123 1018 1102 1080 1070 1060 1020 1019 1017 984 940 906 1016 964 1005 1020 945 970 931 963 1018 1024 957 1004 924 924 942 940 907 949 931 989 925 947 856 957 1019 958 868 933 842 898 915 913 936 883 946 917 875 881 919 858 945 908 893 878 923 851 929 912 924 916 873 908 911 947 941 892 873 980 870 909 923 863 928 924 886 860 918 913 894 888 862 880 855 935 903 897 912 877 934 956 837 908 898 883 942 879 915 914 866 877 919 861 843 928 878 885 827 889 928 906 931 917 931 906 892 892 885 894 915 848 848 869 953 861 898 908 904 959 930 930 946 974 910 940 932 941 902 979 906 949 1000 927 950 1051 946 985 975 969 997 983 1026 1039 986 1009 984 1036 992 1065 1008 1015 1005 1045 1081 996 992 1012 1007 1006 1040 1000 1037 994 1008 998 986 1001 1044 972 968 1011 1063 983 959 1075 1026 973 1037 971 960 1017 988 942 1008 922 1006 990 1013 997 1003 930 991 926 1044 936 983 979 1007 959 993 976 1024 983 936 965 905 996 930 951 977 947 976 951 936 933 946 984 930 897 979 916 941 938 906 941 944 861 908 961 965 958 903 942 948 913 913 926 943 902 863 879 861 863 914 901 913 872 909 878 901 914 915 895 889 910 914 896 898 866 902 866 869 894 856 872 885 872 862 870 909 880 876 826 874 885 851 877 891 853 908 884 934 833 860 836 904 929 856 860 846 823 859 823 827 850 940 873 852 861 891 876 857 915 915 907 906 826 899 892 877 883 914 895 890 875 839 842 816 907 913 901 821 875 856 848 915 882 896 907 909 896 842 867 839 920 860 846 884 877 856 890 870 842 857 859 923 847 867 830 888 869 886 821 887 913 892 843 869 859 855 881 944 847 854 832 886 830 880 884 878 805 874 851 902 881 880 844 918 900 912 883 865 835 872 838 861 885 817 870 801 909 883 875 849 865 865 805 856 858 865 888 857 838 848 824 969 889 812 870 901 880 862 843 823 854 895 836 838 836 854 900 837 937 839 913 884 897 879 836 842 908 884 883 887 875 894 876 890 901 881 886 888 886 919 835 991 941 859 893 903 838 985 912 965 894 855 935 886 899 891 901 917 913 945 935 867 924 858 943 935 931 901 858 927 972 878 912 882 879 923 908 923 904 865 888 862 925 899 933 874 854 886 872 868 847 913 883 914 854 839 856 869 896 911 906 886 906 863 884 866 937 903 836 885 917 832 836 874 866 864 871 911 859 829 890 891 944 866 892 815 865 915 865 855 869 809 920 865 888 868 820 857 854 839 862 844 901 812 904 860 864 837 850 869 847 861 861 840 859 833 804 886 888 856 880 848 909 869 880 861 850 870 824 825 852 856 834 859 869 859 859 844 904 917 869 901 907 924 804 845 808 833 853 837 844 876 874 882 883 819 848 879 859 858 839 848 948 913 838 912 893 827 868 897 858 883 935 863 828 828 940 949 888 890 895 880 916 949 954 894 938 894 863 930 903 891 888 949 862 904 952 923 929 886 978 960 929 890 966 955 933 896 922 954 930 912 959 913 902 927 902 839 923 943 905 901 933 889 844 948 916 920 912 961 919 872 883 921 945 921 851 971 935 948 918 906 927 919 936 912 874 919 891 898 936 893 912 879 909 886 881 826 895 881 884 875 912 875 913 903 899 899 928 892 903 943 906 874 860 907 881 943 914 858 861 906 887 886 866 870 874 879 885 859 858 870 930 887 896 849 882 878 851 885 900 897 858 881 904 850 875 943 849 839 852 845 817 870 894 847 865 869 900 821 868 856 846 816 874 756 902 885 814 844 858 859 852 843 889 818 898 877 822 841 800 841 861 843 868 815 906 832 856 857 789 804 843 837 822 814 858 843 841 843 835 825 907 864 873 821 894 843 826 873 854 791 798 820 841 824 923 828 816 880 787 876 903 824 886 869 814 859 811 864 850 884 844 831 863 837 895 922 872 803 786 862 852 884 883 874 852 834 849 854 853 903 888 844 877 812 858 862 884 885 828 833 892 814 855 844 914 824 827 828 884 830 875 881 893 898 799 897 888 850 855 854 848 864 795 829 898 843 873 916 917 875 838 833 914 917 811 854 885 857 888 844 897 865 874 861 881 887 836 848 889 943 854 920 898 916 892 826 883 879 911 921 891 891 924 869 917 881 882 897 901 914 880 901 933 921 946 943 929 898 946 907 953 889 993 902 926 954 948 911 959 911 917 944 909 913 908 923 912 974 938 941 975 909 980 905 931 919 913 987 903 893 901 988 935 932 933 968 953 900 913 891 942 976 964 960 892 940 901 969 897 978 937 882 887 987 916 907 949 891 870 845 912 922 982 880 922 882 942 918 919 914 908 909 889 885 916 888 892 862 858 835 897 908 865 906 830 908 941 859 870 901 816 825 839 834 907 843 808 869 851 844 845 825 845 877 841 891 879 852 798 840 862 835 854 904 840 856 841 833 838 840 797 800 906 810 878 812 823 807 814 838 912 790 827 848 847 895 879 804 877 848 880 831 783 800 864 861 888 825 861 874 839 877 876 817 850 902 814 830 834 828 860 853 849 826 820 846 840 875 834 815 888 857 877 891 801 846 811 855 916 875 818 857 808 804 860 842 855 801 835 875 822 884 854 851 867 894 869 840 822 879 811 937 857 875 814 839 866 811 857 827 848 842 824 850 816 836 819 926 811 909 825 829 884 871 874 852 868 869 853 905 814 819 821 851 831 878 856 853 847 865 888 875 869 848 809 861 819 863 894 882 859 844 870 884 890 886 835 835 813 888 847 864 827 866 877 840 833 803 887 882 873 858 903 931 872 858 899 884 862 881 870 875 895 912 906 858 813 885 878 823 870 825 954 853 842 816 869 909 829 924 824 839 817 868 833 863 823 811 828 880 863 818 886 841 907 858 811 838 810 805 849 847 847 848 874 852 834 849 851 872 837 869 818 844 883 876 878 866 811 831 827 814 813 855 831 874 876 795 831 899 809 832 814 880 863 862 829 841 866 832 866 795 825 873 805 821 807 809 813 863 788 829 812 880 833 832 853 816 827 829 822 859 865 905 875 825 828 833 864 828 854 856 824 840 840 842 862 899 850 877 790 815 840 823 850 819 839 870 783 820 876 838 854 858 845 813 861 811 802 818 825 862 841 876 841 807 797 834 860 842 825 819 821 880 766 856 865 905 829 864 876 811 839 782 850 816 756 877 802 856 879 919 863 892 833 850 857 845 825 790 883 807 848 821 849 875 927 843 820 873 820 877 880 857 834 834 837 848 848 819 833 847 835 864 848 825 866 895 830 803 829 886 816 856 831 865 866 868 893 828 827 834 833 819 851 849 846 819 882 791 869 899 805 851 861 859 844 824 835 845 871 856 887 852 865 823 890 836 836 869 841 887 876 858 870 840 835 839 899 873 821 864 835 851 806 821 844 856 858 844 890 841 862 859 862 890 864 849 856 849 843 853 871 830 820 875 864 855 821 839 831 857 844 804 849 860 832 902 848 866 869 819 862 854 861 828 800 886 896 866 819 866 922 854 825 859 845 801 854 826 839 838 835 818 838 849 851 859 825 885 819 843 845 843 844 860 890 872 833 864 840 812 794 789 878 837 842 853 823 854 828 877 881 883 853 839 767 852 880 846 868 880 870 859 873 824 858 869 855 858 870 813 839 815 888 834 819 867 822 862 922 862 879 884 866 910 850 851 868 869 903 909 934 891 863 918 856 885 875 865 924 880 878 942 921 902 899 946 920 933 911 919 840 934 946 864 904 893 941 896 930 941 899 846 882 867 904 899 926 912 898 939 855 895 907 922 916 908 885 863 833 914 931 869 857 900 936 886 860 862 890 908 885 901 896 878 896 875 959 840 862 889 816 884 846 919 863 864 871 874 836 879 853 879 906 881 842 908 893 920 886 867 875 877 834 860 851 926 838 847 834 865 865 873 956 898 831 863 855 869 896 869 852 872 882 835 856 872 838 861 839 862 815 880 880 880 852 852 835 847 894 822 885 854 829 834 864 858 846 826 806 869 862 850 840 864 865 848 849 863 836 838 902 849 865 774 907 830 868 845 835 898 802 866 863 879 845 852 869 854 788 856 819 856 857 856 895 897 812 816 874 883 794 791 848 892 830 853 877 868 862 895 812 833 788 799 898 891 792 861 881 836 867 855 845 883 833 823 899 912 887 903 872 843 866 810 870 850 826 891 852 907 864 865 864 847 871 859 906 813 859 853 835 830 967 849 903 870 857 858 900 865 924 878 930 854 939 909 874 915 929 898 864 862 911 941 975 937 944 964 927 959 929 921 927 895 943 954 951 931 955 1012 939 932 1061 980 1035 977 954 997 962 948 1001 1050 1073 1009 1050 1036 1031 1024 1039 1083 1091 1092 1013 1009 1027 1064 1042 1059 1053 1045 1055 1126 1087 1061 1106 1144 1111 1033 1067 1040 1042 1004 1040 1056 1026 1068 1003 1015 972 1134 1134 1082 1089 1068 1041 1053 984 1048 1052 1009 1048 1027 1052 1103 952 1031 1043 1029 1045 1021 1009 969 1032 942 1025 939 983 984 944 948 937 976 945 958 932 958 957 918 990 919 936 881 939 984 914 957 956 932 858 921 942 920 884 907 893 884 926 850 932 902 879 966 908 875 861 911 954 895 983 925 850 877 904 852 919 885 890 853 878 861 911 871 836 922 918 894 890 888 854 868 867 895 781 844 893 864 866 877 878 827 895 844 868 843 853 884 945 887 855 880 846 876 852 891 932 892 867 894 877 880 923 853 900 887 861 833 908 880 906 883 860 875 867 848 865 814 951 883 900 923 843 856 893 901 867 809 842 921 831 915 861 873 907 829 888 911 841 896 851 912 912 822 913 838 876 878 872 886 893 921 912 864 928 926 910 841 844 840 925 887 895 858 901 907 896 912 904 880 858 894 885 831 879 869 920 893 868 900 893 863 838 838 902 929 856 868 867 898 847 886 899 884 908 924 837 842 876 870 856 869 874 910 885 824 881 867 865 870 806 841 907 831 832 856 854 817 915 889 848 840 905 840 889 846 860 855 865 770 859 808 843 829 831 860 899 860 848 835 875 829 906 859 820 819 842 923 843 834 826 851 878 842 816 853 890 831 866 847 830 837 867 846 856 871 878 819 817 811 894 858 862 858 827 846 856 846 831 849 828 846 847 850 815 815 823 840 863 829 824 791 854 809 856 851 850 917 843 853 807 861 877 820 864 879 881 846 856 812 856 827 833 840 843 832 850 855 866 859 841 827 825 806 808 899 843 843 880 841 860 907 860 805 905 827 869 888 880 867 866 889 845 854 847 809 810 861 831 801 850 868 851 828 804 832 827 864 799 818 840 827 876 861 794 843 810 809 811 827 784 859 868 834 783 820 848 799 793 846 798 861 834 819 845 862 813 871 841 892 831 849 860 846 823 866 830 832 868 825 863 807 786 821 855 836 868 822 795 818 785 851 806 847 814 828 871 850 784 868 848 833 856 831 819 838 811 843 790 850 839 807 830 828 861 850 820 800 804 786 816 811 790 841 799 836 841 879 796 788 816 825 818 845 872 834 824 810 848 822 819 844 805 850 829 830 840 782 793 810 826 869 866 807 877 851 827 787 830 814 839 875 790 845 810 812 834 831 876 850 868 863 850 783 823 805 832 862 780 829 797 792 826 832 795 862 783 829 847 845 845 860 810 810 790 882 846 854 853 799 879 828 782 820 803 836 850 867 787 837 816 815 860 830 834 830 813 836 833 816 799 812 769 873 835 837 876 770 900 859 873 888 851 802 807 798 851 903 790 800 827 794 814 790 837 908 852 820 809 793 908 827 811 776 818 826 821 873 825 827 890 867 881 811 878 893 855 863 813 841 915 842 860 844 924 840 879 876 760 920 869 816 863 842 824 824 816 850 863 887 876 773 887 891 845 868 814 830 859 881 860 830 843 852 799 834 888 803 837 870 843 840 874 829 806 835 846 854 843 810 851 852 807 870 787 826 840 876 885 838 849 840 799 873 816 831 824 834 848 872 832 884 816 806 848 786 838 875 860 819 832 871 789 832 799 808 868 853 799 828 842 796 807 828 850 784 816 802 844 824 843 858 824 874 840 821 858 800 849 760 818 858 782 844 861 815 820 845 862 815 834 806 782 812 791 815 819 828 827 865 866 780 817 886 821 808 750 809 866 805 848 804 838 865 868 797 815 840 886 850 847 793 820 831 855 815 856 835 809 797 855 802 900 805 868 790 862 764 793 796 842 836 806 844 839 787 847 879 856 820 853 807 793 889 825 829 799 821 792 843 790 857 813 812 796 862 865 871 875 837 830 866 830 745 855 878 838 819 883 838 854 807 856 868 795 862 785 874 839 844 864 871 838 839 825 866 863 836 830 848 762 884 825 843 831 871 837 847 835 831 827 849 819 813 840 790 840 810 834 844 864 897 852 885 823 914 852 854 840 833 848 874 844 884 881 875 899 902 866 867 894 865 927 864 933 898 882 871 892 844 890 927 871 887 940 877 922 903 908 876 902 941 912 956 929 921 921 957 972 974 925 1046 951 926 963 928 933 918 1011 984 987 965 974 1003 1025 1026 985 1040 988 921 944 995 972 992 980 973 935 995 1004 994 979 985 968 927 982 1028 945 934 954 986 936 942 954 972 900 1007 920 938 959 947 934 933 940 876 885 914 957 857 883 911 956 909 947 957 860 898 902 941 915 882 872 934 905 852 904 858 822 827 890 898 854 890 832 869 831 847 888 860 856 879 828 850 857 869 858 835 861 852 788 814 840 851 868 911 801 858 858 852 877 873 840 832 803 831 852 867 828 790 853 829 886 853 849 856 853 806 849 902 821 786 844 832 854 837 840 809 798 874 828 888 838 859 837 837 837 865 800 865 824 873 847 794 838 831 830 824 814 853 830 862 893 833 819 870 813 845 810 837 875 784 825 820 835 859 793 845 834 834 843 817 837 865 822 885 817 834 813 899 886 878 851 866 883 839 879 808 850 845 846 853 855 905 880 918 891 878 871 883 884 887 828 867 860 844 832 871 833 867 821 830 799 793 870 828 868 829 837 838 825 885 787 860 837 818 822 844 848 802 806 780 835 945 851 910 887 782 844 840 858 866 788 848 825 824 864 815 833 803 817 789 807 819 845 795 879 826 793 823 764 791 854 835 856 763 895 828 785 828 830 791 855 796 840 827 746 755 857 832 804 831 799 821 810 852 836 835 781 815 803 814 841 838 790 819 802 798 811 782 751 786 833 826 824 832 815 810 792 791 828 812 796 803 787 864 782 798 809 780 778 800 794 861 756 768 849 790 800 811 791 815 793 838 813 794 791 813 842 807 815 772 799 850 776 773 790 861 801 838 813 794 806 802 801 818 809 726 899 829 823 835 765 803 880 815 812 814 756 797 817 803 755 799 805 847 837 811 742 782 820 795 851 853 804 813 864 828 867 785 782 815 777 795 820 806 793 844 787 835 827 810 822 804 812 819 838 783 799 826 836 824 780 832 837 771 827 795 837 807 785 752 794 831 828 777 797 848 854 832 808 856 812 824 810 789 796 785 802 762 845 853 735 829 759 812 803 817 823 758 783 828 818 796 780 772 848 786 822 834 874 857 829 849 801 778 833 840 860 777 825 834 830 816 850 891 874 848 851 836 746 805 822 865 832 785 818 831 855 789 813 864 821 797 849 804 839 740 818 815 806 859 778 850 865 848 808 869 848 819 825 795 849 802 823 798 840 847 823 802 829 842 834 850 797 780 806 851 835 830 809 853 814 769 817 792 845 741 848 792 786 789 781 845 814 785 826 789 875 809 810 807 799 826 839 809 824 848 816 852 747 891 806 852 816 868 800 808 818 811 833 860 815 785</counts>
			</dataPoints>
		</scan>
	</xrdMeasurement>
</xrdMeasurements>
