<?xml version="1.0"?>
<xrdMeasurements xmlns="http://www.xrdml.com/XRDMeasurement/2.3" xmlns:xsi="http://www.w3.org/2001/XMLSchema-instance" xsi:schemaLocation="http://www.xrdml.com/XRDMeasurement/2.3 http://www.xrdml.com/XRDMeasurement/2.3/XRDMeasurement.xsd" status="Completed" recordIdentifier="{33257A57-C87B-44BF-B6B2-C740643F0BAD}">
	<comment>
		<entry/>
	</comment>
	<sample type="To be analyzed">
		<id>GPSS_Li1p8Mg0p1Fe0p1Ta0p1Y0p1Mn0p5Cl4_122325_694ae824ae15af25ac372785</id>
		<name></name>
		<preparedBy></preparedBy>
	</sample>
	<xrdMeasurement measurementType="Scan" status="Completed" sampleMode="Reflection">
		<usedWavelength intended="K-Alpha 1">
			<kAlpha1 unit="Angstrom">1.5405980</kAlpha1>
			<kAlpha2 unit="Angstrom">1.5444260</kAlpha2>
			<kBeta unit="Angstrom">1.3922500</kBeta>
			<ratioKAlpha2KAlpha1>0.5000</ratioKAlpha2KAlpha1>
		</usedWavelength>
		<incidentBeamPath>
			<radius unit="mm">145.00</radius>
			<xRayTube id="1010048" name="Empyrean Cu LFF HR (9430 033 7310x)">
				<tension unit="kV">40.0</tension>
				<current unit="mA">15.0</current>
				<anodeMaterial>Cu</anodeMaterial>
				<focus type="Line">
					<length unit="mm">12.0</length>
					<width unit="mm">0.4</width>
					<takeOffAngle unit="deg">6.0</takeOffAngle>
				</focus>
			</xRayTube>
			<sollerSlit id="21010002" name="Soller slits 0.04 rad.">
				<opening unit="rad">0.0400</opening>
			</sollerSlit>
			<mask id="22031000" name="Fixed mask 13 mm">
				<width unit="mm">9.00</width>
			</mask>
			<divergenceSlit id="22120001" name="Divergence slit 1°" xsi:type="fixedDivergenceSlitType">
				<distanceToSample unit="mm">50.00</distanceToSample>
				<height unit="mm">1.52</height>
			</divergenceSlit>
		</incidentBeamPath>
		<sampleMovement xsi:type="spinningSampleMovementType">
			<spinnerRevolutionTime unit="seconds">1.0</spinnerRevolutionTime>
		</sampleMovement>
		<diffractedBeamPath>
			<radius unit="mm">145.00</radius>
			<antiScatterSlit id="22090040" name="AS slit 9 mm (PIXcel)" xsi:type="fixedAntiScatterSlitType">
				<height unit="mm">9.00</height>
			</antiScatterSlit>
			<sollerSlit id="21020003" name="Large Soller slits 0.04 rad.">
				<opening unit="rad">0.0400</opening>
			</sollerSlit>
			<filter id="20030001" name="Large beta-filter Nickel">
				<material>Ni</material>
				<thickness unit="mm">0.020</thickness>
			</filter>
			<detector id="7010019" name="PIXcel1D-Medipix3 detector" xsi:type="rtmsDetectorType">
				<phd unit="keV">
					<lowerLevel>4.02</lowerLevel>
					<upperLevel>11.27</upperLevel>
				</phd>
				<mode>Scanning</mode>
				<activeLength unit="deg">5.542</activeLength>
			</detector>
		</diffractedBeamPath>
		<scan appendNumber="0" mode="Continuous" scanAxis="Gonio" status="Completed">
			<header>
				<startTimeStamp>2025-12-24T14:31:12-08:00</startTimeStamp>
				<endTimeStamp>2025-12-24T14:39:19-08:00</endTimeStamp>
				<author>
					<name>AutomatedUser</name>
				</author>
				<source>
					<applicationSoftware version="1.7b (136)">PANalytical Aeris Instrument Suite</applicationSoftware>
					<instrumentControlSoftware version="3.2.00000000 20240306">AERIS</instrumentControlSoftware>
					<instrumentID>950485</instrumentID>
				</source>
			</header>
			<dataPoints>
				<positions axis="2Theta" unit="deg">
					<startPosition>10.00943322</startPosition>
					<endPosition>99.99442286</endPosition>
				</positions>
				<positions axis="Omega" unit="deg">
					<startPosition>5.00471661</startPosition>
					<endPosition>49.99721143</endPosition>
				</positions>
				<commonCountingTime unit="seconds">12.495</commonCountingTime>
				<counts unit="counts">3276 3119 3195 3222 3199 3136 3168 3190 3129 3136 3137 3162 3187 3266 3182 3190 3141 3243 3153 3210 3160 3107 3260 3098 3094 3193 3270 3255 3264 3092 3275 3188 3220 3187 3252 3133 3249 3248 3217 3306 3238 3300 3198 3348 3306 3260 3411 3356 3280 3211 3311 3250 3349 3356 3313 3195 3365 3286 3379 3341 3363 3358 3379 3382 3407 3322 3439 3365 3346 3432 3440 3422 3431 3373 3361 3356 3416 3418 3423 3435 3459 3463 3489 3511 3445 3461 3358 3482 3480 3545 3506 3486 3450 3490 3531 3515 3550 3539 3482 3575 3605 3534 3677 3604 3554 3536 3630 3692 3548 3625 3557 3603 3604 3505 3648 3575 3664 3624 3635 3563 3559 3583 3590 3622 3543 3683 3585 3694 3714 3680 3605 3663 3666 3596 3702 3654 3691 3627 3685 3627 3722 3634 3677 3610 3769 3784 3748 3787 3552 3700 3779 3742 3592 3819 3688 3786 3766 3606 3741 3673 3715 3727 3724 3758 3712 3633 3750 3755 3659 3775 3852 3760 3792 3698 3762 3707 3641 3730 3742 3703 3576 3634 3720 3782 3644 3642 3636 3762 3868 3744 3609 3696 3495 3658 3713 3681 3654 3564 3586 3775 3667 3719 3613 3717 3668 3666 3637 3627 3734 3773 3557 3601 3756 3699 3519 3622 3671 3657 3620 3623 3699 3593 3632 3576 3626 3678 3554 3492 3618 3699 3599 3571 3610 3605 3629 3657 3734 3655 3537 3560 3487 3560 3647 3731 3479 3547 3587 3645 3583 3590 3692 3533 3593 3602 3659 3577 3583 3526 3499 3576 3585 3474 3493 3551 3528 3500 3505 3419 3516 3631 3562 3556 3484 3536 3564 3539 3520 3530 3535 3423 3474 3480 3509 3534 3399 3506 3433 3437 3462 3570 3534 3488 3458 3578 3586 3505 3530 3429 3451 3472 3428 3409 3363 3536 3414 3543 3416 3503 3602 3510 3459 3520 3500 3546 3532 3520 3470 3520 3557 3490 3522 3530 3527 3523 3514 3476 3481 3579 3461 3510 3487 3497 3497 3497 3449 3580 3549 3576 3553 3494 3556 3586 3568 3487 3365 3518 3538 3618 3545 3562 3603 3552 3691 3558 3533 3585 3613 3659 3503 3603 3482 3522 3707 3732 3544 3584 3728 3638 3733 3605 3759 3748 3748 3602 3616 3742 3546 3647 3648 3665 3749 3756 3710 3759 3769 3658 3704 3685 3751 3642 3786 3695 3787 3730 3773 3775 3812 3763 3643 3763 3665 3903 3823 3827 3827 3908 3976 3821 3838 3806 3906 3996 3963 3936 4023 4075 3946 4107 4176 4117 4170 4138 4151 4187 4316 4270 4325 4343 4400 4459 4384 4341 4712 4566 4578 4599 4566 4724 4726 4885 4870 4738 4726 4906 4836 4663 4918 4877 4813 4739 4573 4646 4695 4503 4320 4260 4220 4115 4100 4073 4062 3964 3912 3928 3921 3781 3755 3788 3806 3646 3766 3705 3662 3743 3804 3639 3674 3691 3703 3707 3692 3718 3624 3703 3667 3602 3604 3598 3734 3662 3702 3652 3714 3766 3508 3791 3624 3637 3519 3516 3523 3513 3558 3648 3352 3516 3549 3616 3546 3399 3466 3581 3461 3390 3373 3527 3531 3383 3442 3405 3435 3391 3384 3403 3511 3465 3440 3397 3513 3498 3450 3608 3473 3460 3384 3417 3499 3491 3440 3452 3552 3394 3524 3384 3469 3397 3370 3367 3497 3415 3349 3401 3532 3503 3449 3448 3374 3458 3338 3410 3392 3449 3293 3258 3319 3237 3266 3229 3277 3262 3299 3257 3296 3247 3322 3254 3265 3318 3255 3187 3310 3339 3322 3236 3204 3138 3212 3168 3257 3186 3270 3134 3239 3129 3217 3251 3144 3297 3094 3181 3146 3041 3078 3082 3196 3236 3276 3159 3172 3117 3146 3084 3135 3199 3187 3091 3193 3169 3026 3173 3068 3093 3004 3184 2984 3078 3084 3060 3190 3100 2975 3120 3091 3037 3125 3173 3072 3052 3046 3015 3030 3087 3061 3088 3256 3082 3078 3131 3041 3079 2978 3038 3104 3074 3124 3178 3031 3097 3006 3030 2987 2974 2997 3129 3075 3084 3053 3077 3025 3051 3021 2978 3108 3067 3142 3043 3137 3025 3130 2979 2979 2991 3123 2994 3163 3009 3101 3058 3177 3143 3032 3039 3044 3172 3071 2946 3030 3030 3159 3065 3013 3067 2986 2990 3006 2992 3028 3048 2859 2994 3028 2882 3012 3066 2917 3064 3068 2928 2994 2949 3011 3049 3012 2934 3015 2930 2990 2962 2976 2980 3000 3007 2922 2995 2907 2912 2997 2951 2966 3007 2982 2952 2932 3045 3010 2995 2940 3046 2940 2962 2944 2919 2854 2969 2940 2973 2965 2916 2872 2995 2933 2954 2924 2981 2946 2975 2921 3010 2893 2923 2859 2908 2983 2859 2908 2880 2872 2965 2975 2862 2957 2811 2997 2952 2989 2892 2892 2835 2829 2830 2790 2874 2952 2941 2746 2873 2891 2969 2842 2878 2802 2951 2914 2902 2897 2839 2944 2864 2899 2799 2842 2926 2869 2821 2992 2941 2869 2886 2893 2822 2822 2932 2876 2855 2868 2894 2956 2758 2853 2782 2793 2893 2884 2857 2868 2871 2891 2804 2947 2782 2773 2772 2838 2789 2813 2846 2856 2740 2909 2833 2816 2897 2757 2752 2787 2716 2878 2764 2799 2846 2874 2819 2832 2815 2776 2759 2714 2769 2879 2637 2819 2754 2729 2795 2780 2719 2705 2790 2896 2674 2807 2737 2697 2709 2734 2791 2764 2716 2841 2752 2786 2811 2781 2842 2799 2739 2676 2678 2747 2791 2700 2754 2658 2725 2690 2630 2653 2720 2698 2646 2693 2623 2717 2688 2764 2656 2676 2838 2726 2757 2666 2708 2711 2711 2644 2807 2732 2618 2767 2700 2772 2743 2630 2715 2611 2654 2667 2708 2712 2676 2600 2710 2648 2709 2736 2672 2801 2683 2731 2703 2765 2753 2658 2683 2623 2674 2663 2711 2676 2615 2710 2610 2621 2568 2550 2750 2634 2664 2585 2732 2579 2738 2655 2644 2635 2623 2786 2634 2714 2733 2679 2613 2595 2661 2640 2706 2702 2741 2663 2607 2634 2595 2703 2595 2601 2706 2633 2741 2648 2637 2641 2622 2654 2577 2649 2597 2626 2548 2641 2644 2667 2679 2657 2761 2591 2676 2638 2694 2699 2692 2708 2636 2690 2547 2714 2629 2601 2742 2650 2703 2728 2655 2668 2691 2688 2755 2738 2703 2718 2758 2667 2687 2759 2573 2638 2658 2672 2799 2645 2583 2591 2667 2633 2625 2744 2598 2693 2690 2729 2647 2759 2685 2682 2619 2701 2671 2822 2760 2792 2647 2670 2621 2709 2692 2830 2659 2727 2627 2595 2659 2713 2655 2696 2727 2746 2683 2660 2681 2675 2663 2663 2604 2626 2580 2761 2697 2648 2658 2664 2674 2730 2610 2760 2607 2666 2748 2785 2719 2611 2642 2691 2636 2639 2646 2680 2643 2580 2557 2609 2682 2667 2614 2557 2563 2680 2632 2634 2652 2680 2547 2647 2634 2600 2624 2615 2676 2576 2610 2644 2541 2585 2550 2556 2641 2633 2608 2643 2659 2628 2683 2631 2542 2520 2590 2632 2495 2583 2614 2667 2631 2552 2534 2564 2648 2533 2503 2563 2523 2438 2551 2598 2581 2499 2551 2499 2561 2617 2488 2581 2589 2487 2415 2525 2524 2426 2409 2531 2465 2431 2467 2536 2448 2448 2463 2429 2431 2423 2547 2487 2487 2433 2365 2476 2491 2392 2442 2374 2391 2436 2416 2469 2404 2334 2402 2444 2473 2416 2341 2426 2428 2370 2406 2306 2436 2382 2317 2332 2257 2369 2358 2326 2285 2329 2358 2335 2324 2397 2321 2308 2363 2284 2388 2261 2262 2329 2285 2286 2227 2313 2273 2336 2279 2405 2299 2272 2330 2287 2362 2257 2292 2416 2328 2309 2313 2228 2280 2230 2257 2329 2343 2194 2225 2214 2251 2322 2281 2160 2235 2210 2204 2216 2139 2165 2133 2179 2198 2270 2136 2121 2290 2212 2212 2217 2149 2202 2194 2100 2136 2196 2115 2137 2156 2280 2208 2215 2128 2191 2182 2133 2150 2058 2204 2237 2237 2216 2142 2181 2083 2037 2198 2099 2127 2032 2182 2048 2102 2075 2058 2093 2129 2141 2056 2036 2063 2022 2249 2125 2103 2135 2062 2073 2108 2038 2101 2160 1996 2029 2034 2169 2151 2111 2046 2100 2181 2133 2130 2024 2024 2099 2111 2101 2164 2015 2014 2100 2054 2116 2020 2026 1990 2028 2047 2040 2029 2096 2006 2108 2006 2103 2111 2115 2087 2028 2111 2041 2043 2108 2077 2091 2147 2114 2031 2046 2072 2019 2026 2045 2050 1988 2083 2044 2034 2131 2159 2085 2107 2061 2124 2090 2075 1994 2078 2082 2062 2004 2199 2023 2034 2110 2014 2076 2039 2124 2062 2037 2065 2182 2063 2077 1962 2083 2110 2057 2116 2082 2091 2032 2111 2059 1958 2114 2088 2073 2124 2083 2067 2067 2073 2062 2103 2069 2087 2048 2088 2072 2070 2158 2085 2110 2027 2102 2103 2012 2064 2009 2054 2122 2005 2082 2110 2075 2092 2049 2108 2084 2114 2074 2191 2078 2047 2023 2088 2021 2028 2097 2081 2141 2088 2072 2111 1990 2136 2106 2059 2193 2084 2085 2035 2045 1961 2110 2027 2085 2110 2092 2002 2088 2061 2028 2063 2160 2115 2008 2028 2097 2006 1982 2215 2102 2069 2142 2079 2087 2133 2006 2039 2043 2011 2007 2079 2039 2026 2114 2133 2132 2050 2044 1988 2010 2034 2057 2062 2008 2047 2079 1975 1959 2044 1983 2023 2029 2003 1957 2027 2002 1958 2038 1932 1925 1986 2025 1936 1950 1941 2039 1898 1981 1968 2011 1947 2015 1912 1929 1952 1921 1895 2013 2056 1923 1922 1874 1898 1959 1947 2011 1868 1895 1924 1921 1879 1897 1828 1952 1835 1935 1893 1836 1919 1953 2008 1966 1932 1879 1825 1879 1894 1875 1792 1869 1817 1884 1836 1849 1868 1861 1839 1911 1858 1850 1938 1914 1814 1893 1830 1851 1941 1876 1867 1816 1842 1817 1793 1829 1878 1800 1919 1856 1798 1814 1807 1751 1791 1853 1871 1825 1808 1802 1798 1783 1751 1848 1838 1823 1838 1805 1813 1817 1847 1851 1823 1887 1839 1862 1911 1943 1906 1962 1975 1936 1995 1997 2123 2095 2156 2142 2246 2269 2248 2201 2325 2308 2322 2474 2410 2438 2529 2521 2543 2567 2590 2631 2573 2502 2620 2766 2619 2583 2594 2526 2475 2474 2437 2341 2316 2275 2168 2013 2153 1993 2032 1989 1899 1882 1894 1815 1818 1860 1769 1848 1809 1743 1803 1749 1725 1814 1820 1808 1902 1713 1840 1765 1749 1756 1742 1660 1709 1741 1731 1713 1778 1675 1693 1679 1762 1691 1682 1699 1734 1739 1769 1657 1628 1742 1666 1739 1625 1644 1658 1697 1656 1696 1787 1681 1772 1678 1785 1783 1699 1757 1649 1776 1830 1803 1814 1949 1900 1904 1869 1971 1950 2062 1938 2120 2113 2134 2224 2311 2348 2506 2559 2658 2731 2845 2923 3005 3167 3239 3396 3380 3574 3698 3779 3898 3974 4163 4278 4261 4350 4439 4488 4442 4471 4477 4487 4397 4310 4280 3959 3933 3745 3587 3419 3251 3026 2801 2754 2599 2571 2429 2285 2285 2120 2024 1979 2013 1977 1985 1928 1813 1851 1889 1921 1901 1927 1878 1872 1831 1906 1892 1947 2056 2004 1982 1989 1984 1989 2089 2016 2058 2039 2049 2100 2033 1984 1994 2061 1967 1980 1974 1925 1891 1921 1844 1798 1795 1758 1692 1711 1677 1664 1667 1574 1626 1560 1642 1513 1575 1570 1556 1574 1553 1503 1562 1514 1587 1575 1494 1492 1516 1544 1550 1520 1473 1417 1561 1491 1503 1546 1503 1502 1475 1526 1515 1501 1494 1534 1493 1475 1501 1522 1498 1588 1507 1557 1538 1548 1559 1485 1451 1478 1560 1550 1486 1469 1483 1537 1485 1486 1511 1481 1433 1494 1502 1433 1474 1509 1517 1485 1520 1495 1435 1510 1522 1585 1592 1613 1570 1572 1522 1579 1719 1602 1700 1634 1672 1718 1813 1713 1762 1761 1892 1822 1937 1966 1980 2024 1977 2023 1995 2042 2018 2079 2019 2101 2143 2203 2110 2217 2144 2095 2053 1828 1991 1820 1809 1809 1761 1733 1771 1667 1593 1669 1616 1613 1538 1536 1518 1548 1477 1419 1456 1518 1457 1451 1434 1450 1414 1412 1451 1426 1483 1512 1423 1406 1430 1514 1470 1492 1396 1432 1452 1493 1453 1454 1471 1410 1500 1436 1507 1560 1436 1479 1394 1495 1477 1463 1453 1448 1469 1396 1463 1331 1416 1414 1469 1382 1402 1407 1427 1349 1342 1390 1333 1416 1386 1397 1374 1472 1373 1411 1412 1390 1419 1436 1415 1343 1401 1399 1429 1382 1359 1367 1340 1454 1423 1403 1381 1420 1318 1426 1403 1377 1446 1457 1399 1420 1482 1417 1413 1524 1420 1462 1471 1409 1380 1478 1420 1493 1415 1446 1507 1528 1468 1446 1540 1507 1522 1462 1549 1472 1479 1479 1408 1497 1412 1505 1460 1444 1513 1462 1406 1520 1410 1441 1370 1509 1449 1467 1417 1471 1419 1426 1402 1427 1413 1503 1364 1406 1387 1465 1468 1418 1510 1437 1462 1400 1435 1448 1490 1417 1485 1431 1414 1520 1500 1456 1458 1439 1523 1519 1495 1498 1474 1568 1429 1422 1459 1486 1521 1541 1527 1523 1580 1547 1579 1547 1520 1632 1630 1607 1624 1670 1694 1612 1708 1710 1612 1768 1724 1773 1771 1861 1893 1858 1904 1886 1997 1898 2125 2049 2133 2159 2288 2400 2515 2596 2806 2823 3098 3253 3266 3626 3711 4063 4272 4466 4870 5169 5345 5598 6020 6185 6553 6757 7087 7311 7675 7871 8036 8289 8455 8611 8609 8625 8618 8353 8153 7942 7548 7390 6940 6334 6062 5845 5444 4985 4551 4237 3929 3696 3424 3202 3089 2820 2619 2567 2433 2281 2292 2194 2132 2034 2002 2014 2060 1994 2016 1964 1884 1897 1933 1947 1913 1953 1837 1993 1936 1979 2110 2012 2147 2021 2125 2098 2174 2111 2187 2236 2284 2187 2162 2222 2144 2096 2124 2057 2175 1984 2087 1882 1890 1888 1870 1824 1766 1772 1750 1710 1700 1554 1593 1588 1552 1463 1454 1500 1377 1412 1413 1439 1385 1413 1396 1378 1348 1358 1357 1353 1377 1310 1367 1407 1337 1392 1360 1363 1345 1385 1314 1363 1236 1299 1394 1397 1352 1345 1326 1385 1373 1358 1283 1273 1294 1299 1341 1310 1299 1267 1312 1298 1299 1329 1338 1346 1395 1319 1272 1332 1273 1333 1366 1352 1328 1332 1336 1186 1331 1273 1324 1271 1215 1270 1307 1353 1294 1320 1319 1334 1333 1249 1331 1276 1354 1337 1316 1284 1283 1302 1285 1350 1387 1383 1264 1402 1327 1368 1359 1310 1264 1326 1344 1254 1309 1304 1261 1312 1287 1255 1265 1239 1284 1321 1307 1348 1361 1304 1280 1288 1310 1342 1291 1292 1232 1281 1270 1246 1336 1309 1289 1339 1266 1302 1380 1285 1297 1232 1327 1335 1324 1366 1309 1418 1311 1421 1269 1334 1323 1327 1333 1321 1349 1317 1379 1357 1306 1368 1319 1278 1325 1286 1257 1330 1252 1346 1221 1330 1327 1276 1289 1272 1244 1237 1266 1247 1285 1197 1284 1258 1312 1279 1302 1269 1198 1304 1231 1326 1193 1225 1294 1277 1303 1305 1286 1247 1252 1323 1302 1294 1293 1304 1304 1293 1296 1298 1246 1264 1293 1309 1276 1307 1279 1287 1314 1290 1271 1312 1226 1261 1340 1385 1355 1313 1250 1279 1322 1275 1225 1314 1208 1312 1197 1247 1289 1229 1308 1221 1250 1178 1263 1305 1264 1324 1170 1259 1229 1197 1264 1216 1236 1200 1230 1231 1215 1239 1220 1137 1301 1271 1233 1262 1199 1226 1216 1275 1245 1240 1283 1167 1224 1295 1256 1229 1235 1182 1250 1270 1277 1249 1203 1236 1243 1224 1242 1208 1285 1198 1224 1224 1212 1179 1202 1252 1188 1226 1220 1227 1255 1168 1213 1259 1225 1209 1231 1217 1204 1162 1177 1234 1240 1199 1205 1142 1180 1240 1234 1238 1232 1242 1230 1256 1193 1176 1190 1200 1177 1181 1179 1161 1178 1166 1231 1201 1243 1279 1176 1200 1155 1172 1163 1229 1169 1176 1131 1187 1188 1209 1203 1220 1135 1184 1167 1176 1171 1192 1191 1144 1213 1165 1210 1105 1230 1203 1122 1268 1123 1175 1177 1206 1249 1251 1198 1188 1208 1185 1116 1195 1136 1171 1193 1191 1166 1205 1151 1198 1285 1100 1145 1159 1207 1219 1191 1165 1117 1178 1165 1129 1151 1202 1204 1205 1150 1149 1146 1183 1148 1267 1220 1208 1169 1191 1197 1174 1135 1175 1197 1182 1165 1238 1217 1271 1152 1162 1214 1177 1185 1201 1197 1114 1178 1134 1167 1127 1178 1186 1141 1206 1226 1133 1143 1192 1177 1110 1147 1219 1089 1208 1164 1225 1164 1182 1102 1169 1177 1202 1131 1179 1201 1215 1171 1248 1212 1161 1198 1194 1169 1173 1149 1114 1204 1167 1188 1252 1179 1193 1128 1190 1204 1152 1169 1193 1191 1225 1159 1159 1138 1107 1196 1224 1144 1179 1210 1190 1148 1123 1149 1132 1094 1170 1186 1177 1177 1177 1203 1195 1162 1215 1162 1228 1175 1139 1191 1184 1212 1161 1297 1276 1211 1287 1244 1319 1293 1337 1343 1366 1339 1303 1405 1365 1376 1386 1352 1453 1432 1481 1650 1465 1521 1535 1534 1594 1521 1539 1501 1476 1548 1542 1473 1475 1454 1430 1385 1450 1404 1325 1271 1341 1293 1325 1244 1316 1237 1271 1205 1212 1120 1258 1190 1177 1152 1161 1153 1161 1148 1160 1210 1136 1133 1233 1141 1184 1165 1166 1156 1206 1184 1196 1137 1161 1102 1134 1152 1237 1143 1178 1145 1117 1107 1136 1106 1166 1153 1158 1099 1138 1209 1161 1140 1128 1148 1168 1103 1143 1166 1109 1133 1143 1153 1164 1141 1152 1070 1154 1037 1111 1094 1093 1138 1133 1181 1135 1135 1129 1134 1148 1131 1158 1084 1157 1201 1120 1169 1129 1143 1173 1153 1161 1125 1130 1096 1113 1177 1182 1157 1203 1164 1123 1158 1121 1167 1095 1185 1102 1099 1207 1149 1179 1200 1132 1091 1186 1086 1175 1112 1157 1189 1136 1114 1170 1175 1094 1143 1177 1182 1137 1196 1145 1158 1129 1215 1127 1186 1123 1170 1225 1180 1110 1210 1164 1211 1258 1188 1187 1215 1179 1228 1216 1225 1200 1158 1139 1119 1213 1218 1222 1227 1215 1159 1139 1107 1157 1181 1143 1157 1157 1194 1201 1168 1156 1175 1161 1209 1155 1126 1091 1129 1155 1171 1133 1161 1091 1107 1150 1143 1193 1126 1163 1133 1141 1097 1132 1201 1139 1151 1206 1133 1155 1134 1148 1137 1149 1173 1173 1196 1178 1130 1114 1136 1119 1154 1118 1140 1218 1159 1097 1166 1119 1152 1112 1103 1168 1146 1168 1107 1092 1066 1201 1177 1113 1123 1126 1121 1072 1131 1147 1197 1190 1151 1178 1156 1176 1145 1176 1179 1144 1231 1169 1142 1158 1136 1098 1134 1107 1107 1149 1131 1122 1169 1180 1171 1132 1168 1189 1191 1137 1163 1135 1151 1153 1147 1180 1219 1183 1159 1262 1204 1221 1215 1175 1164 1152 1124 1113 1094 1233 1171 1125 1170 1136 1149 1155 1189 1131 1146 1179 1163 1119 1100 1177 1148 1119 1197 1152 1140 1122 1147 1161 1155 1207 1205 1170 1244 1191 1171 1145 1148 1211 1233 1253 1206 1208 1298 1245 1275 1276 1307 1284 1314 1314 1414 1374 1419 1477 1483 1499 1550 1577 1598 1678 1636 1729 1683 1709 1700 1828 1819 1808 1798 1865 1937 1860 1831 1872 1809 1746 1799 1715 1685 1619 1581 1592 1564 1533 1505 1426 1359 1341 1369 1392 1274 1315 1268 1339 1227 1257 1209 1249 1186 1185 1192 1149 1218 1185 1218 1181 1173 1191 1158 1102 1170 1188 1158 1213 1186 1162 1167 1169 1088 1165 1085 1152 1176 1175 1159 1143 1141 1182 1136 1154 1151 1160 1132 1175 1153 1151 1155 1174 1210 1119 1186 1162 1177 1211 1189 1207 1137 1158 1196 1128 1222 1155 1204 1150 1144 1196 1166 1159 1153 1165 1187 1135 1198 1122 1137 1128 1139 1116 1075 1090 1082 1166 1111 1103 1118 1155 1202 1143 1130 1109 1114 1141 1115 1097 1104 1117 1140 1123 1176 1146 1092 1097 1178 1141 1134 1103 1127 1098 1122 1117 1027 1108 1142 1188 1059 1117 1097 1144 1085 1108 1076 1138 1131 1055 1122 1183 1103 1113 1118 1076 1094 1113 1062 1040 1064 1102 1160 1181 1122 1072 1138 1098 1117 1121 1115 1140 1134 1222 1050 1099 1150 1107 1106 1124 1096 1140 1081 1062 1092 1105 1044 1129 1155 1104 1094 1120 1123 1107 1094 1082 1053 1112 1090 1147 1094 1138 1135 1087 1135 1093 1116 1049 1046 1195 1114 1068 1145 1098 1176 1149 1124 1076 1123 1174 1117 1091 1078 1129 1071 1127 1025 1135 1067 1098 1142 1156 1147 1107 1082 1221 1158 1062 1137 1107 1096 1130 1175 1116 1200 1112 1114 1144 1189 1100 1107 1160 1176 1069 1132 1133 1032 1071 1083 1129 1126 1147 1176 1118 1149 1161 1157 1108 1141 1138 1107 1239 1124 1228 1151 1166 1193 1103 1174 1128 1222 1104 1234 1115 1158 1159 1200 1125 1156 1172 1146 1197 1184 1154 1209 1127 1173 1247 1173 1136 1196 1229 1195 1178 1230 1213 1160 1160 1211 1200 1171 1152 1236 1177 1257 1240 1230 1201 1285 1266 1321 1224 1242 1158 1247 1300 1228 1212 1214 1241 1262 1191 1261 1288 1260 1256 1279 1264 1329 1193 1322 1260 1276 1311 1316 1357 1335 1354 1381 1394 1354 1423 1378 1548 1448 1551 1543 1526 1543 1601 1587 1633 1733 1683 1796 1768 1748 1801 1981 2072 2033 2264 2275 2360 2425 2538 2700 2822 2896 3106 3355 3518 3666 3910 4058 4276 4490 4622 4622 4928 5227 5184 5228 5229 5187 5232 5232 5097 5051 4921 4618 4634 4287 4222 3963 3979 3766 3581 3458 3276 2988 2893 2788 2606 2386 2277 2180 2131 2037 1889 1833 1733 1683 1682 1620 1557 1426 1576 1423 1474 1434 1402 1431 1271 1321 1331 1276 1270 1328 1317 1338 1259 1263 1229 1228 1246 1204 1204 1264 1186 1184 1207 1208 1193 1164 1241 1300 1241 1204 1215 1211 1211 1245 1216 1225 1276 1278 1231 1323 1276 1298 1348 1249 1349 1244 1299 1270 1395 1428 1321 1321 1427 1495 1408 1443 1472 1357 1409 1429 1397 1424 1413 1427 1392 1395 1365 1405 1368 1367 1327 1325 1283 1350 1321 1327 1233 1264 1216 1174 1216 1215 1187 1193 1182 1212 1219 1177 1110 1143 1186 1151 1151 1153 1133 1151 1157 1117 1107 1162 1084 1081 1159 1093 1085 1155 1096 1105 1193 1142 1078 1164 1107 1030 1119 1150 1121 1055 1074 1116 1054 1121 1145 1045 1040 1130 1096 1152 1164 1068 1058 1097 1085 1135 1110 1106 1139 1071 1145 1106 1156 1074 1121 1126 1105 1098 1077 1124 1113 1111 1094 1122 1141 1078 1091 1073 1147 1150 1105 1177 1148 1156 1140 1185 1166 1208 1223 1223 1219 1174 1264 1311 1242 1273 1302 1397 1416 1317 1404 1458 1386 1499 1424 1400 1489 1447 1492 1490 1500 1452 1462 1446 1503 1420 1435 1386 1424 1384 1399 1352 1301 1298 1375 1369 1253 1258 1221 1285 1235 1256 1177 1189 1225 1182 1114 1238 1116 1155 1143 1187 1141 1159 1161 1102 1137 1114 1117 1110 1083 1145 1137 1085 1143 1132 1104 1135 1106 1101 1113 1110 1176 1120 1111 1086 1147 1125 1150 1133 1055 1079 1096 1153 1102 1094 1083 1151 1044 1099 1020 1108 984 1062 1073 1159 1097 1077 1105 1078 1119 1059 1053 1030 1137 1092 1047 1069 1059 1050 1046 1040 1059 1071 1093 1112 1040 1076 1135 1094 1176 1052 1064 1111 1138 1168 1120 1116 1102 1076 1097 1021 1048 1139 1107 1126 1126 1148 1134 1091 1106 1084 1143 1094 1108 1109 1063 1128 1049 1092 1096 1044 1027 1133 1069 1110 1106 1100 1040 1016 1109 1051 1084 1031 1052 1096 1113 1010 1033 1066 1038 1042 1031 1101 1032 1057 1102 1064 1055 1006 1082 1044 1036 1109 1062 1034 1077 1086 1088 1126 1140 1169 1084 1107 1103 1068 1104 1083 1092 1121 1092 1184 1101 1109 1095 1085 1160 1087 1110 1163 1124 1160 1097 1122 1159 1100 1146 1123 1128 1168 1126 1124 1133 1140 1121 1123 1061 1085 1088 1063 1117 1094 1045 1017 1083 1059 1091 1079 1057 1077 1045 1050 1017 1085 1057 1053 1071 1111 1006 1031 1064 1001 1075 1086 1022 1036 1004 1081 1000 987 1072 1083 1020 1101 1047 1036 997 1041 996 1016 1037 1005 1079 1107 1032 1058 1005 1126 1051 1097 1088 1052 1033 1056 1050 1068 1023 1014 1060 998 1053 1066 1024 1042 1049 1066 1007 1017 998 1045 1042 1096 1054 1063 1042 1018 1047 1142 1027 1066 1033 1041 1088 1076 1035 1004 1017 997 1047 1079 1033 1088 1042 1063 1001 1041 1073 1025 998 997 1096 1007 1048 1022 1059 1052 1029 1037 1020 1031 1033 1076 1003 989 1050 1033 1027 982 1052 984 1023 1055 1070 1003 1039 1080 1074 1084 1034 1053 1059 1089 1067 1045 1095 1072 1110 1048 1018 1033 1042 1084 1080 1052 1078 1006 1010 1023 998 997 1086 1023 1015 1052 1053 1068 1046 1066 1041 965 1006 1036 1037 1000 1028 1056 996 1030 1003 1097 1088 1040 1012 1080 1036 1045 1025 1046 1031 1020 1067 1011 1051 1053 958 1048 1044 1028 1096 1028 1092 1060 1048 1037 971 1035 1051 1030 1011 991 988 1002 1005 978 1042 1032 1062 1088 1077 1029 1017 1107 1004 1079 991 1048 1023 1039 1021 1029 938 1081 1048 1001 956 1022 976 1021 1056 1012 1090 1060 1040 1030 1068 1002 1020 1021 1082 989 1082 1058 1039 1026 968 1012 1042 1003 1026 1015 979 1066 1041 1057 1048 1056 998 1045 1028 1027 1036 1019 990 1051 1024 1026 1067 1019 1058 1055 1016 1044 1052 1088 1020 1022 1005 1075 1041 1075 1062 1011 1030 1015 984 1067 1091 1012 1023 1002 958 974 1050 1026 1041 1070 1007 1020 1040 1028 1035 1039 1065 1086 1017 1049 1071 1056 1054 1014 1074 1098 993 1082 1042 1085 1108 1092 1049 1031 1031 1055 1019 1043 1084 1054 1067 1111 1047 1084 1044 1143 1096 1123 1069 1125 1137 1121 1142 1149 1108 1073 1151 1101 1131 1186 1180 1121 1190 1105 1144 1202 1150 1058 1119 1099 1105 1074 1128 1128 1096 1103 1069 1081 1103 1107 1082 1107 1098 1040 1029 1110 1060 1050 1027 1069 1059 1094 1091 1006 1127 1131 1156 1146 1089 1173 1111 1125 1160 1165 1150 1239 1152 1165 1238 1232 1192 1292 1279 1352 1391 1390 1418 1447 1447 1448 1493 1523 1580 1615 1654 1650 1705 1661 1611 1618 1594 1651 1613 1612 1588 1630 1576 1571 1501 1554 1500 1510 1406 1436 1385 1455 1349 1379 1226 1292 1162 1276 1190 1193 1190 1209 1144 1169 1116 1179 1136 1150 1104 1108 1083 1070 1037 1071 1042 1050 1048 1066 1072 1103 1001 1080 1119 1062 1024 1026 1070 1021 1028 1098 981 1076 1092 1037 1051 1104 1113 994 1081 1025 1067 1101 1042 1047 1052 1052 1104 1095 1085 1117 1039 1134 1073 1095 1093 1109 1068 1172 1114 1062 1081 1065 1109 1111 1182 1134 1143 1107 1139 1153 1144 1145 1143 1132 1205 1184 1189 1157 1179 1185 1175 1163 1162 1162 1191 1168 1216 1228 1200 1170 1169 1215 1199 1187 1202 1125 1148 1112 1128 1114 1060 1144 1046 1099 1119 1081 1125 1096 1075 1121 1132 1086 1047 1035 1039 1010 1017 1019 1064 1040 1028 983 1041 1000 1027 997 1050 1015 1063 1029 1045 1054 1021 1053 973 1038 978 1012 1043 1016 1024 1023 1022 1036 1008 1008 1038 946 1035 1017 1054 1063 1068 934 984 1008 964 1017 944 1051 1015 977 1044 1025 1046 1039 1038 1031 1049 1062 1077 987 1048 1039 1022 1027 1039 1035 970 1025 1007 1066 1063 1047 971 1010 1008 1036 1050 970 1059 1005 1075 991 1102 1033 1032 1057 1081 999 1091 1072 1098 1056 1090 1090 1034 1102 1065 1113 1114 1153 1134 1215 1207 1255 1222 1260 1287 1324 1329 1314 1321 1444 1566 1539 1587 1675 1742 1726 1778 1852 1912 1875 1939 1960 2020 2076 1954 1979 1941 1948 1937 1912 1889 1884 1812 1844 1770 1730 1712 1764 1723 1722 1652 1503 1567 1553 1448 1468 1369 1422 1329 1328 1297 1271 1297 1221 1215 1173 1185 1189 1226 1179 1237 1198 1153 1152 1160 1098 1084 1152 1049 1015 1048 994 1030 1066 1050 1047 1089 1056 1013 1036 997 1003 1081 1010 1052 1048 1016 1024 1006 951 1029 1054 1050 1029 1034 1029 971 993 1019 1015 1004 1042 1004 957 936 1023 1047 1037 1037 1050 1029 1011 1004 1024 988 992 966 999 925 1010 1034 1071 987 1084 1022 1039 965 1001 1073 1081 1054 1005 1015 1083 1065 1103 1088 1065 1048 1074 1055 1123 1099 1080 1060 1064 1103 1124 1039 1036 1072 1092 1058 1050 1092 1024 1008 975 1050 1004 1011 1018 969 1037 1004 1006 986 1062 1006 983 996 1010 967 977 955 924 996 1034 1010 1009 958 1075 1008 992 973 960 1054 983 1041 961 1042 1100 1083 1050 960 1014 1025 1065 1067 1116 1040 1124 1094 1104 1143 1144 1137 1122 1179 1181 1210 1174 1143 1210 1133 1169 1233 1162 1188 1205 1158 1148 1197 1188 1245 1161 1107 1195 1187 1149 1174 1176 1089 1151 1150 1084 1136 1105 1107 1028 1033 1033 1035 1019 1113 1058 1016 1056 1051 1041 996 1049 997 997 1013 999 989 1001 1039 923 1012 1036 1041 1034 1026 956 1012 973 1021 948 1018 994 1011 1011 1015 993 1024 940 984 923 997 992 970 1011 933 1043 908 1022 967 1003 961 940 978 948 1019 973 944 956 967 983 940 992 915 992 1003 1017 957 957 990 936 981 954 938 951 993 960 949 972 941 988 946 919 998 967 1021 974 968 950 951 942 992 988 892 977 957 968 1024 987 937 958 918 971 941 917 927 966 991 1001 928 971 1010 977 1010 958 936 952 925 1036 937 1013 937 1007 972 966 1006 975 954 993 941 988 1003 1030 992 968 976 989 923 979 903 958 957 963 997 957 982 930 913 957 928 987 994 1033 984 956 1065 1003 1012 996 997 978 965 993 998 977 1045 953 1022 1032 963 986 1023 966 1037 969 1031 1004 973 1026 1025 1063 1001 994 1029 983 974 940 1029 973 959 988 971 1030 1018 969 970 951 994 989 983 1021 1014 976 1043 982 990 927 1003 955 953 1027 992 996 907 993 954 913 974 955 928 920 964 927 1002 984 920 986 1041 957 989 949 1018 935 941 938 922 909 977 980 910 975 940 906 945 955 991 939 959 921 954 983 974 933 956 930 961 945 953 934 921 972 973 982 957 1010 918 1005 976 966 970 1016 964 938 942 927 940 1026 940 933 946 937 947 921 969 986 972 998 960 922 944 963 959 978 1007 969 937 957 945 983 910 973 987 903 955 981 953 950 1023 1013 971 901 961 939 950 979 923 958 928 995 990 956 944 936 1004 958 910 974 993 965 936 943 997 945 922 980 1002 965 934 952 943 944 974 942 968 963 932 916 956 916 976 979 920 953 911 913 936 940 911 928 924 898 961 963 920 853 944 896 979 940 984 932 889 947 969 921 1001 936 1001 958 942 944 952 910 995 993 970 928 965 1044 961 1007 936 997 994 964 1014 959 951 979 988 927 962 961 931 938 919 957 925 974 934 950 996 1001 966 952 978 1003 960 963 959 936 1007 942 959 945 955 971 940 968 937 985 965 902 995 904 980 965 980 960 962 932 896 999 914 1006 928 994 946 954 969 961 930 963 912 973 946 993 1019 1006 954 1052 1019 993 1036 1012 1022 1057 1024 1117 1078 1054 1066 1065 1079 1056 1061 1073 1054 992 1055 1065 1033 1092 1080 1048 1062 1005 1015 1111 1085 1011 1100 963 991 1012 1003 974 942 994 1039 1035 968 999 988 969 963 941 968 981 932 948 1014 942 926 951 953 954 931 935 914 914 944 944 993 964 972 998 959 947 963 952 931 989 923 964 943 969 926 917 890 923 947 1024 945 914 963 963 933 970 956 949 980 949 969 930 889 953 921 960 915 985 921 879 962 963 907 961 954 973 941 920 972 933 967 945 955 966 951 915 959 923 960 945 963 1001 990 941 907 962 950 966 974 947 922 924 962 947 928 966 977 1002 956 917 897 937 863 971 910 939 958 895 931 1002 891 951 946 928 1019 902 951 985 916 911 895 940 949 980 954 934 909 883 897 966 990 922 938 959 944 897 922 910 960 934 935 936 945 973 929 974 946 948 953 923 961 928 935 985 953 887 918 907 914 947 904 923 978 818 923 963 901 947 980 987 915 967 936 993 980 932 920 939 949 917 909 925 949 931 931 918 936 937 952 849 917 938 977 944 871 960 952 926 928 924 977 883 939 968 955 934 929 934 912 968 922 888 968 945 974 966 980 835 944 947 962 884 967 927 964 925 935 1009 975 1012 942 944 964 1004 927 1007 960 943 975 924 993 943 956 957 999 960 947 1059 1036 1047 1047 1078 1087 1081 1079 1034 1066 1106 1180 1119 1143 1173 1172 1206 1199 1217 1234 1321 1248 1273 1301 1357 1406 1365 1342 1379 1301 1314 1352 1336 1272 1315 1362 1309 1308 1252 1235 1252 1297 1246 1268 1304 1145 1197 1183 1176 1151 1131 1097 1121 1120 1156 1079 1003 1062 1021 1011 1070 1016 1026 993 989 1038 956 1079 1038 953 997 972 995 960 965 989 991 965 977 976 984 923 963 970 901 962 978 957 1014 980 1010 933 973 904 957 938 922 944 963 922 988 933 974 963 943 916 957 908 974 937 953 990 954 931 963 924 930 986 940 941 965 1008 959 986 997 933 985 974 953 953 948 934 924 921 960 927 932 893 947 971 920 967 1002 955 916 922 971 953 958 947 995 947 975 1002 994 1029 1022 995 893 976 939 1062 983 976 908 963 1016 997 953 944 947 994 980 1003 992 1048 1009 929 997 1046 954 999 955 1007 990 1016 951 1024 964 953 942 948 1004 965 986 933 949 1001 981 928 927 1018 971 977 936 956 904 968 1023 947 903 950 907 936 969 948 991 942 960 926 961 932 972 932 922 950 950 908 962 949 909 944 927 871 1016 933 944 949 905 911 969 921 955 917 895 1001 962 910 906 952 954 1005 917 953 940 900 965 957 953 922 930 977 958 966 935 978 901 959 903 891 925 916 863 975 961 885 884 949 930 933 985 914 939 937 916 902 946 987 937 961 936 926 897 925 965 958 1003 876 937 1012 954 941 903 945 945 916 922 940 939 887 947 965 926 921 965 863 952 931 915 930 886 946 928 915 932 917 931 932 939 938 944 979 957 950 957 910 970 968 936 947 931 951 921 993 969 907 970 946 987 969 950 952 949 963 889 903 950 968 932 964 955 929 967 859 976 899 938 937 887 918 906 952 968 955 982 919 961 906 897 985 893 936 903 909 934 960 941 974 948 948 972 960 895 986 983 923 947 955 945 865 963 904 947 940 942 945 933 951 845 932 919 928 938 979 950 955 943 926 964 932 944 957 951 938 928 974 939 989 964 949 917 1019 941 995 992 951 916 911 952 917 920 945 939 886 934 957 946 883 925 899 974 889 916 943 918 943 917 914 964 956 938 965 1000 920 929 934 955 914 990 987 955 976 921 952 934 914 903 912 933 886 905 942 970 909 917 973 922 920 968 956 938 926 934 929 969 931 1019 943 963 930 926 1005 901 941 925 937 933 968 902 955 937 904 909 912 982 955 1004 912 953 923 938 922 948 912 970 899 913 889 953 915 970 940 940 928 937 897 938 956 899 1022 970 923 900 912 986 930 972 912 939 962 980 977 919 899 918 944 932 936 950 917 904 995 950 958 957 927 953 992 960 918 952 928 915 939 953 987 912 942 896 962 994 919 907 904 951 963 923 913 929 966 964 955 980 925 938 954 889 939 910 896 894 851 897 943 906 883 918 933 924 860 952 974 917 887 921 915 924 907 936 954 954 893 882 998 922 992 934 986 1004 896 969 1011 1005 947 935 907 947 974 940 948 924 932 949 939 917 928 989 905 911 976 956 994 915 959 999 951 1005 964 986 971 983 1016 1039 977 1064 978 988 1031 1013 1000 991 1032 1088 1058 1049 965 1022 1000 1055 1004 1014 1065 1023 990 1006 1010 976 991 986 985 1023 1061 1024 1008 1029 1003 1064 987 1061 970 962 976 1039 967 1013 1012 994 983 1008 1045 1026 988 1049 1018 1049 1053 1039 1108 1097 1049 1005 1106 1066 1047 998 1116 1080 1093 1094 1154 1150 1052 1129 1063 1136 1024 1084 1083 1092 1020 1017 1057 1055 1083 1041 1065 1078 1130 1142 1079 1068 1014 1055 1095 1067 1083 1062 1035 1052 1041 1063 1056 990 1059 1042 1056 1034 1089 1020 1054 1063 1039 1027 1076 1004 1000 978 985 993 984 982 1039 1023 957 1038 982 986 1026 951 1034 1000 965 990 909 1035 1025 1011 931 1005 984 957 996 959 935 936 965 1025 999 1055 989 1006 993 950 942 954 994 936 969 973 970 930 980 953 947 945 1005 1022 908 988 995 990 917 1006 947 953 909 929 932 971 942 997 909 924 971 979 943 971 1028 939 954 948 948 983 956 947 981 951 973 998 911 967 967 974 924 990 987 991 951 986 949 986 1016 963 999 934 968 1014 992 946 976 964 1025 990 987 942 979 948 998 999 977 975 1032 1028 1089 946 1050 1019 1044 991 1036 1003 1033 985 1011 988 1030 999 960 1033 999 979 1022 1049 1019 1036 1066 1068 1073 1063 1056 1061 1105 1054 1078 1050 1062 1080 1064 1035 1059 987 1054 1113 1099 1154 1173 1191 1121 1225 1231 1212 1245 1230 1312 1336 1451 1364 1434 1434 1607 1514 1620 1629 1653 1707 1674 1669 1692 1744 1708 1690 1730 1786 1750 1679 1648 1629 1685 1633 1572 1642 1599 1578 1612 1534 1569 1584 1590 1585 1601 1537 1520 1510 1402 1488 1430 1377 1291 1324 1336 1269 1307 1341 1252 1240 1199 1185 1161 1195 1197 1165 1157 1187 1188 1124 1132 1052 1056 1082 1091 1042 1127 1101 1068 1041 1075 1027 1014 1038 1043 1064 980 1050 975 976 982 929 960 1015 988 947 991 998 978 1009 950 1024 959 921 916 928 962 1035 1029 997 979 954 888 890 967 974 942 910 955 947 968 996 961 943 992 974 955 979 997 932 1030 947 948 972 945 992 932 992 1027 1025 951 984 964 981 969 964 1008 942 980 999 972 952 966 946 943 937 964 963 977 990 949 991 940 1013 1007 998 971 988 947 998 1035 951 969 961 1009 1021 1047 976 971 1007 998 985 1060 1002 1029 1064 995 1052 1001 1054 1037 1155 1069 1030 998 1079 1061 1081 1120 1024 1053 1054 1061 1047 1075 1079 1086 1088 1025 1105 1029 1021 1062 1074 1089 984 1002 1056 1056 997 1000 1021 1007 1012 1049 1057 992 1066 1042 1044 1023 984 1031 991 988 974 1015 989 964 1016 935 963 996 959 988 986 971 938 1018 968 968 1045 932 997 941 1017 934 925 942 925 939 914 953 899 969 917 931 932 942 958 974 895 934 956 970 917 954 964 938 961 919 905 971 919 984 931 921 915 958 873 910 949 883 933 1011 955 936 916 939 897 959 992 966 887 992 963 937 992 995 952 937 973 926 953 935 966 905 987 940 925 918 887 902 934 999 937 972 940 1010 966 906 958 899 917 957 1009 949 990 968 883 991 955 947 938 959 937 961 977 1013 934 975 983 985 933 1031 994 946 1033 1006 923 1031 979 964 1008 1030 883 993 997 971 951 955 983 996 980 976 946 1028 918 964 935 930 991 949 904 947 981 966 959 887 898 910 978 906 901 914 1017 949 884 919 950 940 914 916 977 937 964 937 931 958 871 938 910 938 895 906 923 921 891 911 889 1007 851 954 917 875 957 877 935 949 884 932 903 898 876 943 979 929 880 927 930 909 1007 976 955 920 915 960 921 923 963 929 980 916 932 897 970 907 885 934 1000 935 935 975 914 924 929 920 905 909 873 916 888 884 885 910 931 951 948 981 936 917 959 960 967 938 1000 941 961 993 923 965 915 927 965 971 914 912 933 909 901 970 959 956 946 895 947 917 892 954 879 874 946 936 921 873 900 964 915 935 958 956 900 887 953 859 891 908 947 928 928 919 904 895 938 939 957 959 983 884 941 954 947 906 915 952 974 969 920 936 953 922 919 910 876 965 930 966 896 952 885 941 896 936 966 957 968 909 959 987 985 989 887 909 963 898 947 871 910 925 914 947 914 964 903 911 940 934 918 901 926 899 922 926 984 964 967 961 917 953 914 906 964 932 933 946 993 952 964 948 929 965 931 925 946 959 909 968 965 920 942 930 932 968 948 942 931 926 936 924 903 987 1010 967 998 967 1001 990 979 951 975 1073 947 1023 942 917 991 955 1044 1028 946 1035 1031 1023 1053 1048 1025 1012 1008 961 1004 1011 995 962 971 1008 976 971 984 975 1018 1004 1010 978 1040 991 928 1022 990 972 1011 882 1008 922 1059 965 951 1036 1000 991 964 1004 947 934 1078 931 965 958 946 892 902 952 967 937 935 921 960 933 929 954 957 992 927 930 913 917 1000 920 949 985 1001 942 994 914 927 938 889 918 886 962 959 981 893 971 943 924 1006 954 844 897 922 930 937 919 979 906 946 924 944 927 959 941 953 974 943 955 887 913 959 972 941 920 1002 977 922 1000 934 937 926 996 956 959 870 838 937 963 971 927 908 987 915 898 936 909 927 897 929 885 949 930 945 932 932 951 906 987 888 891 920 939 985 952 903 902 956 996 922 980 900 909 888 931 940 978 951 906 948 917 938 935 923 928 899 897 948 922 971 939 912 921 939 924 908 957 914 902 937 943 971 952 906 903 905 953 977 924 950 958 933 969 970 960 959 949 917 947 1007 942 947 995 999 909 966 994 886 948 941 952 964 986 976 971 974 898 969 935 919 956 969 957 937 968 944 990 938 993 969 885 1016 951 992 900 922 923 973 913 1007 964 985 1004 963 970 1000 1003 977 921 998 975 1003 1022 1083 982 1051 1040 1027 1083 1118 1084 1138 1098 1207 1148 1176 1267 1233 1314 1269 1287 1349 1383 1345 1373 1412 1424 1448 1426 1398 1410 1430 1407 1374 1459 1411 1373 1432 1287 1299 1349 1319 1382 1306 1319 1287 1306 1293 1362 1299 1272 1289 1289 1271 1307 1256 1253 1281 1227 1242 1231 1191 1146 1189 1184 1196 1091 1139 1161 1120 1096 1125 1084 1093 1051 1132 1013 1080 1053 1030 1032 1080 1085 1037 1027 1067 1008 1020 998 1016 987 973 1001 986 1010 945 1016 960 1014 1021 953 967 965 920 1042 966 990 963 921 943 964 1022 1009 912 949 976 976 922 959 945 977 951 1014 909 975 954 946 861 865 929 938 1015 992 988 970 960 979 897 928 931 955 924 949 964 1013 938 968 886 927 913 956 917 943 973 985 967 981 930 944 902 909 927 953 915 936 955 951 926 969 912 931 934 967 966 909 938 951 940 950 948 931 921 921 903 976 985 990 932 892 962 963 979 1004 955 907 979 935 949 1012 976 964 1001 934 934 1003 937 951 915 939 891 1000 978 960 943 975 944 964 942 981 985 985 952 904 1009 1011 981 965 961 953 989 949 967 996 1021 944 989 949 978 993 1001 1006 1017 972 1035 979 957 982 1012 970 1022 938 968 927 1014 965 1000 977 991 994 985 951 962 915 961 926 924 949 932 950 926 952 946 933 974 954 974 919 930 995 930 969 969 986 916 944 973 947 940 922 992 945 916 979 892 901 942 923 968 909 894 946 986 923 946 950 968 940 939 978 965 950 900 932 985 925 923 902 840 899 931 941 917 926 948 942 896 947 911 917 929 982 943 957 936 917 974 892 910 916 973 959 923 929 953 914 969 938 924 881 944 986 973 906 940 866 923 920 894 937 945 927 963 1000 966 953 958 931 960 934 953 875 961 881 975 988 903 914 920 918 933 939 922 916 898 935 947 915 903 899 967 873 974 916 899 868 896 957 944 905 947 899 914 904 893 892 864 907 910 968 960 920 918 909 912 920 918 971 893 966 908 951 897 920 909 857 949 964 985 883 933 941 916 932 974 930 915 917 934 907 896 945 884 924 854 925 945 902 938 899 928 929 892 992 924 899 902 947 890 898 864 842 912 912 950 946 924 942 897 963 904 927 936 906 899 914 921 946 929 930 939 927 924 882 933 905 842 918 915 935 909 928 965 883 920 914 940 898 913 870 943 862 973 847 916 852 924 901 960 926 879 945 965 843 901 957 926 932 894 975 936 890 934 899 903 932 939 895 915 977 940 950 968 913 933 878 928 891 849 882 869 953 915 931 893 926 951 939 925 923 976 914 942 949 974 883 916 966 920 920 983 877 920 889 936 917 958 915 982 923 899 875 927 899 933 911 956 935 977 854 945 855 922 873 948 863 927 962 943 952 942 962 874 988 864 961 889 900 921 933 911 926 852 898 953 907 946 960 925 941 911 893 940 906 900 908 948 985 957 924 964 930 890 930 935 942 886 969 956 922 982 968 957 904 953 994 961 942 969 942 1010 991 969 932 954 1051 1041 1011 939 940 974 928 1039 1003 1058 1057 1038 964 1034 1040 1023 1002 993 1055 1071 994 1063 1006 1001 1038 982 1006 960 989 949 967 1005 1006 1005 987 1054 1027 947 967 1000 1041 1024 1005 993 1069 993 1102 1029 1017 1018 977 1001 1032 1016 1029 1026 1024 1043 1026 1031 988 1003 1014 994 1065 1023 1028 947 1050 1031 1009 957 1007 1042 1008 985 1043 991 995 993 1029 1022 966 1041 976 977 1017 1075 975 963 938 977 1041 1015 1041 1015 1051 978 1031 1032 974 986 1047 949 984</counts>
			</dataPoints>
		</scan>
	</xrdMeasurement>
</xrdMeasurements>
