<?xml version="1.0"?>
<xrdMeasurements xmlns="http://www.xrdml.com/XRDMeasurement/2.3" xmlns:xsi="http://www.w3.org/2001/XMLSchema-instance" xsi:schemaLocation="http://www.xrdml.com/XRDMeasurement/2.3 http://www.xrdml.com/XRDMeasurement/2.3/XRDMeasurement.xsd" status="Completed" recordIdentifier="{059A3842-A325-46B2-9744-BC93E5E2C2D2}">
	<comment>
		<entry/>
	</comment>
	<sample type="To be analyzed">
		<id>GPSS_Li1p5Co0p5Cr0p5Cl4_101825_68f3c986028f64128e25b35a</id>
		<name></name>
		<preparedBy></preparedBy>
	</sample>
	<xrdMeasurement measurementType="Scan" status="Completed" sampleMode="Reflection">
		<usedWavelength intended="K-Alpha 1">
			<kAlpha1 unit="Angstrom">1.5405980</kAlpha1>
			<kAlpha2 unit="Angstrom">1.5444260</kAlpha2>
			<kBeta unit="Angstrom">1.3922500</kBeta>
			<ratioKAlpha2KAlpha1>0.5000</ratioKAlpha2KAlpha1>
		</usedWavelength>
		<incidentBeamPath>
			<radius unit="mm">145.00</radius>
			<xRayTube id="1010048" name="Empyrean Cu LFF HR (9430 033 7310x)">
				<tension unit="kV">40.0</tension>
				<current unit="mA">15.0</current>
				<anodeMaterial>Cu</anodeMaterial>
				<focus type="Line">
					<length unit="mm">12.0</length>
					<width unit="mm">0.4</width>
					<takeOffAngle unit="deg">6.0</takeOffAngle>
				</focus>
			</xRayTube>
			<sollerSlit id="21010002" name="Soller slits 0.04 rad.">
				<opening unit="rad">0.0400</opening>
			</sollerSlit>
			<mask id="22031000" name="Fixed mask 13 mm">
				<width unit="mm">9.00</width>
			</mask>
			<divergenceSlit id="22120001" name="Divergence slit 1°" xsi:type="fixedDivergenceSlitType">
				<distanceToSample unit="mm">50.00</distanceToSample>
				<height unit="mm">1.52</height>
			</divergenceSlit>
		</incidentBeamPath>
		<sampleMovement xsi:type="spinningSampleMovementType">
			<spinnerRevolutionTime unit="seconds">1.0</spinnerRevolutionTime>
		</sampleMovement>
		<diffractedBeamPath>
			<radius unit="mm">145.00</radius>
			<antiScatterSlit id="22090040" name="AS slit 9 mm (PIXcel)" xsi:type="fixedAntiScatterSlitType">
				<height unit="mm">9.00</height>
			</antiScatterSlit>
			<sollerSlit id="21020003" name="Large Soller slits 0.04 rad.">
				<opening unit="rad">0.0400</opening>
			</sollerSlit>
			<filter id="20030001" name="Large beta-filter Nickel">
				<material>Ni</material>
				<thickness unit="mm">0.020</thickness>
			</filter>
			<detector id="7010019" name="PIXcel1D-Medipix3 detector" xsi:type="rtmsDetectorType">
				<phd unit="keV">
					<lowerLevel>4.02</lowerLevel>
					<upperLevel>11.27</upperLevel>
				</phd>
				<mode>Scanning</mode>
				<activeLength unit="deg">5.542</activeLength>
			</detector>
		</diffractedBeamPath>
		<scan appendNumber="0" mode="Continuous" scanAxis="Gonio" status="Completed">
			<header>
				<startTimeStamp>2025-10-21T11:47:26-07:00</startTimeStamp>
				<endTimeStamp>2025-10-21T11:55:33-07:00</endTimeStamp>
				<author>
					<name>AutomatedUser</name>
				</author>
				<source>
					<applicationSoftware version="1.7b (136)">PANalytical Aeris Instrument Suite</applicationSoftware>
					<instrumentControlSoftware version="3.2.00000000 20240306">AERIS</instrumentControlSoftware>
					<instrumentID>950485</instrumentID>
				</source>
			</header>
			<dataPoints>
				<positions axis="2Theta" unit="deg">
					<startPosition>10.00943322</startPosition>
					<endPosition>99.99442286</endPosition>
				</positions>
				<positions axis="Omega" unit="deg">
					<startPosition>5.00471661</startPosition>
					<endPosition>49.99721143</endPosition>
				</positions>
				<commonCountingTime unit="seconds">12.495</commonCountingTime>
				<counts unit="counts">3156 3207 3186 3240 3275 3124 3197 3160 3271 3276 3211 3161 3187 3071 3238 3122 3169 3179 3084 3114 3164 3178 3218 3136 3173 3317 3142 3279 3139 3243 3258 3230 3180 3245 3240 3244 3301 3257 3178 3203 3153 3282 3215 3319 3260 3328 3251 3227 3283 3213 3323 3186 3228 3319 3259 3261 3208 3330 3174 3385 3320 3358 3297 3223 3362 3275 3324 3369 3192 3306 3247 3454 3398 3371 3280 3381 3367 3261 3418 3269 3329 3381 3252 3304 3439 3397 3416 3319 3355 3238 3305 3323 3288 3334 3488 3350 3343 3314 3447 3410 3318 3438 3387 3452 3384 3363 3322 3338 3357 3540 3403 3377 3412 3382 3315 3399 3367 3477 3301 3315 3381 3419 3405 3437 3338 3504 3466 3514 3351 3381 3428 3412 3444 3490 3413 3467 3446 3480 3576 3313 3368 3307 3399 3527 3407 3394 3424 3452 3473 3464 3463 3431 3454 3460 3489 3517 3381 3566 3485 3396 3400 3451 3464 3339 3428 3462 3506 3479 3489 3477 3301 3503 3375 3534 3391 3422 3350 3553 3460 3367 3449 3451 3462 3435 3458 3387 3371 3448 3381 3596 3545 3484 3425 3551 3588 3543 3495 3469 3249 3471 3406 3428 3383 3510 3523 3494 3382 3510 3511 3516 3526 3482 3419 3419 3417 3467 3447 3439 3345 3502 3432 3476 3562 3381 3381 3417 3341 3382 3493 3299 3423 3467 3388 3346 3343 3496 3379 3549 3540 3283 3399 3437 3393 3580 3406 3510 3295 3342 3313 3527 3437 3511 3394 3350 3378 3401 3396 3409 3447 3363 3358 3530 3497 3504 3379 3554 3360 3446 3391 3478 3463 3444 3416 3393 3349 3399 3373 3457 3488 3322 3499 3557 3372 3435 3378 3369 3432 3404 3482 3398 3547 3457 3458 3558 3474 3412 3568 3513 3392 3493 3502 3542 3521 3503 3553 3533 3538 3447 3487 3607 3481 3596 3465 3578 3438 3604 3575 3572 3651 3522 3519 3666 3589 3532 3572 3494 3641 3555 3629 3693 3649 3698 3640 3597 3655 3560 3660 3681 3732 3654 3640 3755 3683 3610 3668 3633 3582 3653 3667 3612 3671 3736 3789 3718 3650 3739 3740 3770 3743 3742 3791 3595 3696 3815 3772 3798 3731 3752 3790 3827 3754 3824 3730 3839 3906 3844 3849 3764 3884 3834 3809 3869 3828 3830 3933 3883 3838 3886 3791 3821 3870 3977 3870 3904 3879 3933 4050 3927 3971 3976 3936 3893 3929 4011 3954 3969 3946 3987 3994 3897 3984 3961 4009 4090 4164 4015 4061 4185 4047 4018 4038 4085 3930 4057 4026 4080 4194 4125 4108 4039 4160 4014 3991 4198 4127 4234 4145 4258 4260 4119 4268 4066 4167 4281 4230 4151 4219 4324 4362 4407 4425 4389 4362 4398 4470 4503 4479 4526 4530 4705 4622 4592 4757 4677 4746 4906 4974 5001 5064 4968 4978 5158 5157 5306 5305 5486 5623 5408 5566 5738 5537 5757 5706 5927 5871 5911 6146 6116 6153 6131 6153 6292 6110 6335 6095 6218 6292 5990 6228 6030 6138 6169 6058 6266 6111 6295 6300 6294 6266 6274 6279 6267 6287 6207 6158 6224 6164 6231 5989 5848 5910 5576 5409 5185 5054 4822 4725 4662 4343 4278 4257 4228 4137 4087 4183 3943 4015 3967 3923 3922 3905 3889 3893 3909 3791 3841 3787 3847 3885 3733 3762 3902 3837 3831 3837 3738 3741 3838 3824 3835 3781 3791 3817 3699 3822 3739 3745 3807 3760 3810 3663 3754 3789 3790 3746 3720 3643 3717 3750 3598 3612 3720 3733 3695 3668 3800 3676 3756 3669 3721 3732 3610 3640 3691 3658 3728 3622 3640 3604 3671 3666 3586 3548 3596 3687 3759 3618 3493 3558 3586 3651 3671 3593 3606 3653 3666 3596 3543 3584 3737 3643 3657 3659 3568 3566 3663 3584 3693 3637 3578 3685 3510 3607 3545 3655 3687 3625 3662 3586 3561 3589 3610 3567 3566 3699 3539 3553 3577 3585 3630 3718 3623 3655 3684 3735 3629 3677 3608 3841 3657 3628 3735 3693 3536 3709 3798 3682 3683 3657 3724 3700 3698 3795 3737 3774 3816 3642 3723 3791 3667 3630 3670 3840 3737 3720 3750 3799 3747 3881 3814 3805 3863 3757 3822 3715 3742 3834 3808 3747 3802 3702 3882 3785 3663 3647 3671 3663 3669 3580 3535 3585 3657 3627 3474 3734 3550 3536 3573 3612 3596 3577 3581 3585 3499 3517 3493 3607 3542 3695 3499 3675 3555 3553 3654 3568 3448 3548 3565 3533 3522 3465 3576 3530 3539 3486 3374 3525 3545 3627 3546 3674 3677 3478 3584 3737 3478 3489 3588 3501 3612 3518 3508 3493 3606 3532 3574 3480 3542 3501 3587 3412 3495 3532 3491 3417 3522 3540 3502 3460 3547 3477 3473 3585 3534 3531 3476 3617 3423 3448 3464 3439 3479 3519 3558 3437 3492 3475 3427 3467 3494 3425 3549 3477 3519 3496 3559 3581 3482 3481 3349 3489 3545 3553 3463 3452 3585 3508 3467 3546 3438 3461 3458 3647 3430 3569 3438 3419 3463 3479 3386 3443 3334 3484 3542 3476 3477 3513 3440 3486 3459 3504 3357 3442 3482 3480 3438 3513 3461 3454 3391 3385 3413 3451 3477 3527 3401 3310 3522 3411 3383 3393 3448 3374 3393 3439 3368 3398 3373 3410 3445 3380 3295 3438 3485 3412 3451 3552 3463 3384 3450 3377 3378 3435 3425 3461 3316 3476 3400 3368 3417 3390 3440 3401 3374 3446 3428 3366 3304 3382 3431 3438 3375 3438 3428 3283 3285 3457 3403 3431 3441 3400 3440 3309 3323 3446 3309 3334 3294 3422 3298 3425 3276 3318 3397 3365 3290 3366 3338 3440 3393 3313 3265 3388 3314 3269 3268 3339 3279 3372 3318 3309 3413 3443 3355 3291 3338 3195 3485 3419 3352 3267 3342 3359 3370 3387 3278 3361 3287 3446 3309 3300 3299 3311 3272 3299 3267 3391 3267 3382 3272 3148 3315 3306 3346 3264 3203 3269 3265 3352 3424 3426 3226 3324 3372 3229 3287 3276 3305 3394 3413 3277 3282 3346 3351 3182 3331 3433 3286 3344 3278 3237 3382 3308 3257 3335 3294 3429 3343 3356 3254 3326 3306 3319 3313 3412 3386 3345 3336 3373 3249 3313 3330 3305 3385 3314 3267 3310 3238 3234 3350 3293 3338 3277 3312 3280 3413 3392 3361 3386 3404 3251 3455 3289 3350 3293 3421 3432 3296 3400 3477 3335 3419 3360 3256 3367 3424 3390 3373 3278 3269 3347 3284 3262 3400 3322 3262 3376 3190 3214 3324 3272 3373 3367 3386 3219 3343 3294 3374 3323 3404 3415 3379 3305 3378 3311 3322 3249 3175 3339 3318 3384 3478 3362 3318 3381 3444 3385 3282 3380 3317 3330 3323 3333 3430 3417 3316 3378 3264 3395 3452 3279 3438 3255 3274 3281 3418 3246 3430 3283 3318 3335 3391 3329 3303 3277 3272 3372 3232 3338 3344 3330 3251 3252 3229 3334 3287 3251 3230 3222 3244 3079 3372 3292 3333 3240 3162 3244 3358 3325 3251 3335 3194 3267 3166 3215 3420 3208 3173 3213 3242 3202 3203 3239 3198 3243 3277 3239 3225 3197 3180 3213 3135 3185 3066 3128 3176 3217 3169 3264 3211 3183 3115 3110 3100 3298 3153 3113 3128 3064 3172 3214 3187 3194 3084 3070 3046 3154 3070 3034 3109 3102 3187 2998 3054 3121 2994 3046 3100 3091 3114 3002 3164 2961 2961 2976 3050 3131 3063 3039 2975 3132 3035 3166 3027 3063 3027 3092 3054 3001 3033 2971 3057 2973 2997 3039 2999 2948 2936 3026 3059 3044 2965 3059 2897 3021 2971 2985 2849 2885 2946 2978 2925 2915 2942 2761 3003 2960 2898 2870 2916 2918 3033 2901 2928 2929 2857 2884 2837 2893 2933 2859 2910 2820 2903 2872 2854 2902 2794 2894 2830 2791 2905 2873 2925 2924 2951 2851 2809 2909 2820 2793 2786 2870 2955 2822 2807 2854 2748 2786 2800 2849 2832 2790 2879 2716 2780 2850 2862 2851 2871 2837 2833 2935 2757 2659 2790 2894 2789 2819 2929 2839 2851 2825 2880 2833 2809 2929 2744 2858 2845 2838 2908 2891 2833 2768 2886 2682 2804 2866 2913 2785 2853 2893 2812 2873 2775 2880 2868 2972 2937 2911 2928 2930 2863 2794 2843 3003 2891 2860 2971 2912 2981 2989 2901 2959 2842 2898 2833 2817 2938 2909 2822 2883 3100 2899 2945 2874 2794 2974 2773 2912 2800 2860 2830 2937 2798 2886 2817 2883 2810 2886 2807 2866 2831 2821 2901 2852 2810 2755 2768 2870 2939 2789 2806 2770 2693 2756 2797 2813 2804 2730 2659 2798 2762 2786 2712 2893 2799 2799 2721 2771 2804 2787 2794 2730 2859 2717 2749 2762 2864 2812 2768 2841 2767 2911 2823 2869 2863 2772 2772 2770 2760 2768 2772 2759 2818 2786 2844 2858 2787 2772 2737 2774 2838 2797 2897 2827 2839 2771 2786 2888 2813 2835 2837 2871 2869 2810 2741 2858 2874 2756 2838 2770 2848 2761 2898 2879 2792 2805 2763 2754 2865 2910 2844 2778 2790 2761 2866 2809 2854 2750 2794 2879 2852 2871 2900 2803 2872 2904 2766 2868 2853 2799 2726 2803 2866 2888 2762 2775 2811 2807 2799 2803 2835 2762 2829 2781 2790 2766 2844 2809 2786 2816 2843 2801 2839 2683 2762 2755 2824 2765 2840 2708 2656 2867 2846 2840 2720 2820 2758 2606 2699 2743 2735 2774 2752 2704 2750 2684 2693 2711 2765 2635 2820 2706 2739 2769 2610 2700 2697 2687 2711 2660 2704 2710 2705 2681 2681 2668 2710 2669 2732 2648 2640 2814 2677 2597 2733 2734 2711 2691 2658 2693 2669 2692 2684 2617 2726 2622 2703 2600 2682 2574 2687 2636 2570 2635 2640 2678 2617 2658 2720 2660 2676 2639 2600 2494 2710 2663 2581 2580 2558 2621 2607 2573 2475 2595 2615 2563 2531 2591 2650 2577 2582 2550 2507 2647 2552 2590 2653 2629 2594 2678 2662 2585 2525 2573 2507 2739 2639 2681 2556 2586 2511 2558 2628 2506 2464 2526 2572 2556 2527 2509 2575 2563 2491 2507 2587 2489 2565 2500 2447 2574 2611 2508 2464 2519 2510 2595 2540 2428 2530 2615 2442 2477 2547 2566 2438 2466 2413 2503 2427 2475 2453 2454 2474 2577 2483 2395 2391 2500 2499 2514 2465 2459 2484 2498 2485 2407 2545 2459 2380 2454 2473 2416 2434 2416 2460 2474 2394 2475 2418 2501 2425 2536 2542 2479 2524 2454 2388 2486 2427 2480 2501 2475 2482 2419 2468 2484 2446 2511 2457 2554 2535 2438 2552 2531 2485 2521 2525 2591 2548 2574 2586 2446 2577 2550 2603 2606 2671 2596 2630 2708 2731 2618 2682 2666 2798 2633 2623 2717 2667 2641 2615 2620 2644 2596 2631 2727 2686 2642 2720 2639 2634 2736 2634 2652 2701 2572 2662 2580 2682 2649 2703 2674 2630 2689 2628 2545 2669 2636 2600 2669 2537 2653 2570 2649 2466 2592 2617 2560 2450 2488 2479 2563 2519 2558 2448 2433 2554 2466 2450 2519 2573 2518 2487 2615 2516 2510 2448 2493 2487 2457 2434 2542 2440 2464 2471 2558 2475 2490 2442 2486 2531 2444 2473 2470 2526 2506 2633 2511 2597 2529 2602 2568 2578 2549 2606 2689 2699 2772 2772 2793 2789 2744 2862 2888 2844 2909 2886 3045 3011 3088 3116 3195 3201 3238 3321 3376 3436 3538 3559 3646 3662 3671 3716 3689 3780 3741 3784 3708 3617 3544 3612 3574 3384 3387 3351 3244 3169 3331 3127 3133 3070 3008 3010 2950 3059 2808 2896 2887 2822 2796 2809 2806 2842 2702 2667 2746 2617 2626 2606 2538 2560 2586 2592 2616 2636 2649 2550 2634 2535 2514 2656 2584 2540 2660 2548 2486 2734 2670 2631 2660 2760 2765 2612 2834 2783 2751 2806 2838 2743 2835 2719 2827 2730 2679 2729 2686 2662 2659 2578 2577 2552 2412 2512 2474 2391 2489 2367 2316 2331 2281 2494 2284 2375 2210 2324 2341 2271 2315 2249 2310 2356 2346 2363 2292 2269 2260 2433 2280 2393 2241 2308 2247 2210 2327 2342 2288 2245 2249 2311 2323 2379 2401 2249 2375 2231 2333 2368 2235 2401 2310 2320 2305 2244 2350 2294 2315 2294 2352 2391 2436 2218 2331 2289 2356 2337 2315 2375 2355 2363 2330 2377 2394 2330 2294 2317 2346 2372 2368 2313 2348 2400 2505 2425 2292 2356 2256 2350 2293 2284 2356 2295 2318 2373 2334 2367 2323 2416 2255 2290 2334 2241 2275 2364 2355 2322 2284 2265 2358 2258 2252 2410 2347 2447 2353 2270 2293 2272 2327 2278 2298 2298 2298 2249 2260 2302 2336 2231 2223 2292 2237 2319 2302 2290 2372 2244 2397 2324 2305 2226 2296 2225 2302 2302 2334 2355 2293 2209 2368 2173 2407 2261 2351 2329 2353 2430 2338 2258 2307 2236 2236 2305 2241 2216 2312 2316 2353 2338 2302 2249 2437 2201 2271 2306 2273 2311 2354 2345 2333 2271 2334 2273 2299 2286 2326 2247 2346 2320 2316 2197 2322 2300 2218 2282 2306 2293 2323 2181 2339 2334 2371 2365 2353 2331 2313 2280 2290 2316 2265 2321 2232 2255 2336 2226 2372 2280 2378 2358 2258 2341 2291 2281 2353 2334 2273 2206 2259 2267 2243 2303 2297 2290 2392 2327 2324 2265 2257 2250 2262 2339 2245 2247 2279 2304 2302 2243 2266 2167 2303 2345 2234 2227 2358 2312 2255 2164 2301 2230 2355 2343 2263 2286 2313 2244 2313 2297 2288 2261 2326 2336 2308 2295 2258 2295 2319 2277 2323 2299 2318 2295 2299 2228 2302 2300 2251 2305 2366 2287 2286 2299 2317 2360 2355 2342 2282 2265 2356 2268 2314 2337 2385 2189 2412 2319 2295 2170 2383 2368 2444 2378 2360 2353 2410 2344 2473 2489 2367 2451 2402 2493 2518 2493 2618 2595 2581 2652 2627 2510 2625 2660 2687 2749 2704 2757 2779 2874 2911 2916 2960 3036 3201 3127 3208 3258 3280 3339 3461 3595 3591 3771 3719 3972 4005 4046 4248 4345 4536 4543 4493 4799 4876 5113 5084 5240 5475 5347 5315 5440 5279 5397 5281 5092 5176 4957 4852 4508 4487 4374 4362 4321 4183 4111 3957 3840 3919 3885 3849 3901 3671 3770 3652 3595 3714 3652 3688 3646 3651 3609 3650 3481 3397 3337 3330 3407 3264 3306 3212 3103 3077 3009 2918 2889 2824 2852 2708 2723 2630 2661 2668 2661 2646 2567 2697 2637 2575 2670 2662 2608 2643 2570 2739 2687 2578 2585 2575 2703 2720 2629 2689 2601 2644 2605 2554 2583 2533 2599 2645 2664 2612 2582 2554 2614 2544 2553 2491 2577 2665 2625 2537 2481 2523 2480 2510 2598 2503 2452 2481 2424 2444 2411 2532 2388 2487 2494 2482 2505 2541 2620 2570 2406 2572 2495 2437 2523 2481 2593 2478 2553 2566 2524 2432 2594 2644 2583 2577 2482 2501 2543 2543 2565 2498 2553 2445 2516 2487 2537 2501 2605 2620 2577 2567 2370 2560 2540 2376 2493 2452 2485 2545 2475 2499 2440 2427 2400 2520 2404 2402 2354 2399 2396 2305 2339 2365 2355 2342 2274 2290 2315 2426 2309 2356 2326 2346 2159 2250 2309 2294 2314 2199 2269 2346 2276 2256 2333 2317 2277 2238 2286 2253 2236 2245 2330 2216 2183 2283 2305 2244 2230 2177 2277 2258 2331 2328 2229 2214 2263 2201 2192 2316 2300 2251 2337 2276 2162 2292 2212 2219 2198 2178 2218 2192 2109 2265 2296 2292 2292 2225 2288 2189 2242 2164 2107 2234 2221 2144 2245 2196 2272 2200 2182 2249 2205 2170 2270 2167 2280 2271 2282 2142 2189 2169 2281 2204 2289 2241 2207 2240 2299 2247 2294 2115 2172 2205 2227 2191 2188 2197 2204 2261 2196 2274 2224 2175 2263 2206 2161 2184 2141 2165 2234 2272 2206 2264 2278 2204 2268 2230 2247 2255 2231 2205 2303 2221 2228 2270 2135 2169 2282 2235 2180 2235 2263 2193 2288 2286 2287 2314 2226 2249 2245 2286 2255 2240 2247 2180 2297 2243 2255 2249 2242 2259 2236 2216 2142 2258 2142 2220 2138 2258 2191 2156 2222 2137 2136 2217 2129 2164 2216 2190 2221 2249 2156 2125 2156 2162 2134 2123 2195 2140 2216 2156 2185 2214 2160 2121 2225 2112 2163 2248 2137 2202 2213 2151 2231 2126 2116 2128 2232 2275 2227 2206 2146 2210 2102 2249 2112 2198 2269 2184 2260 2218 2192 2207 2275 2193 2218 2311 2272 2277 2198 2265 2210 2168 2181 2212 2284 2217 2219 2246 2177 2222 2195 2199 2216 2265 2278 2180 2262 2241 2236 2245 2184 2227 2148 2208 2160 2299 2233 2230 2192 2157 2219 2166 2251 2245 2211 2258 2172 2084 2241 2132 2159 2135 2211 2124 2147 2216 2136 2110 2128 2053 2088 2128 2221 2145 2101 2167 2156 2165 2141 2134 2116 2080 2148 2101 2149 2060 2191 2165 2173 2191 2146 2107 2119 2178 2125 2126 2131 2086 2155 2173 2150 2158 2173 2109 2190 2095 2065 2195 2119 2166 2238 2169 2153 2157 2113 2163 2184 2121 2143 2114 2147 2160 2198 2071 2110 2198 2155 2151 2079 2018 2156 2047 2198 2139 2138 2041 2114 2157 2228 2156 2203 2206 2164 2136 2158 2080 2063 2125 2125 2126 2125 2134 2056 2084 2169 2156 2218 2179 2096 2135 2038 2138 2116 2098 2155 2098 2101 2162 2039 2168 2211 2277 2080 2073 2143 2177 2158 2187 2149 2033 2099 2096 2058 2142 2121 2164 2174 2076 2100 2151 2196 2110 2014 2117 2122 2114 2080 2100 2122 2219 2180 2198 2124 2091 2052 2127 2173 2164 2130 2091 2170 2064 2201 2154 2080 2052 2095 2094 2080 2123 2108 2053 2158 2084 2101 2177 2093 2178 2093 2174 2124 2110 2100 2209 2101 2030 2118 2131 2200 2140 2058 2148 2101 2120 2149 2109 2134 2135 2150 2054 2089 2167 2204 2107 2171 2246 2050 2130 2105 2053 2112 2059 2199 2102 2156 2146 2093 2108 2115 2079 2157 2100 2101 2027 2092 2172 2130 2056 2137 2091 2191 2072 2151 2224 2050 2117 2216 2118 2186 2065 2112 2129 2148 2166 2129 2108 2031 2098 2114 2214 2076 2057 2174 2123 2075 2127 2122 2084 2148 2077 2093 2155 2079 2140 2125 2124 2098 2120 2061 2125 2121 2136 2207 2155 2154 2106 2078 2055 2173 2094 2121 2090 2093 2105 2174 2122 2163 2142 2182 2140 2163 2127 2117 2065 2082 2153 2081 2099 2133 2141 2068 2157 2155 2058 2094 2163 2098 2120 2181 2193 2049 2161 2070 2145 2213 2178 2093 2113 2109 2084 2131 2164 2102 2130 2152 2094 2199 2154 2163 2129 2150 2075 2153 2180 2232 2232 2189 2179 2074 2145 2210 2128 2122 2167 2184 2218 2144 2174 2183 2167 2065 2132 2139 2039 2146 2119 2092 1937 2143 2152 2121 2220 2204 2163 2190 2102 2163 2081 2084 2144 2216 2127 1992 2082 2110 2073 2090 2136 2154 2057 2089 2172 2105 2081 2137 2154 2032 2147 2104 2147 2123 2120 2070 2146 2087 2070 2077 2075 2082 2092 2158 2104 2036 2110 2109 2080 2078 2089 2155 2074 2060 2113 2149 2157 2208 2027 2163 2073 2031 2089 2073 2068 2148 2157 2090 2148 2164 2256 2181 2137 1988 2051 2149 2133 2055 2050 2121 2180 2130 2127 2113 2174 2112 2123 2067 2024 2086 2171 2085 2137 2086 2199 2120 2159 2091 2158 2133 2125 2080 2047 2143 2066 2061 2135 2130 2063 2108 2069 2123 2099 2160 2113 2117 2021 2038 2060 2108 2109 2097 2107 2089 2151 2066 2147 2069 2089 2096 2103 2068 2148 2043 2150 2045 2087 2098 2116 2101 2062 2153 2174 2105 2126 2107 2095 2100 2055 2001 2069 2104 2169 2110 2104 2177 2045 2126 2132 2134 2092 2140 2128 2078 2131 2030 2139 2129 2135 2095 2097 2169 2118 2153 2159 2030 2136 2074 2097 2115 2107 2119 2113 2228 2153 2079 2197 2097 2119 2170 2159 2098 2135 2113 2134 2188 2116 2163 2173 2155 2119 2277 2205 2245 2256 2239 2151 2200 2178 2252 2284 2279 2350 2284 2308 2315 2299 2299 2305 2350 2346 2343 2317 2361 2361 2365 2366 2349 2400 2350 2383 2313 2331 2371 2276 2308 2280 2268 2324 2382 2342 2326 2339 2251 2338 2334 2248 2284 2318 2340 2378 2322 2295 2269 2365 2325 2238 2249 2279 2292 2250 2279 2276 2260 2184 2274 2155 2205 2203 2263 2172 2217 2176 2171 2205 2171 2085 2102 2180 2192 2139 2150 2124 2258 2170 2150 2116 2125 2179 2115 2126 2178 2181 2146 2137 2247 2178 2182 2154 2244 2198 2237 2283 2104 2179 2105 2116 2102 2180 2147 2211 2166 2157 2157 2203 2152 2214 2200 2169 2176 2143 2182 2275 2246 2265 2220 2200 2172 2202 2259 2234 2145 2161 2178 2143 2290 2237 2218 2213 2146 2100 2241 2226 2186 2181 2163 2201 2040 2139 2183 2187 2127 2101 2190 2169 2163 2192 2193 2138 2247 2064 2224 2246 2189 2141 2148 2215 2135 2152 2211 2103 2126 2164 2192 2210 2205 2207 2138 2168 2100 2241 2250 2173 2124 2167 2138 2200 2166 2151 2259 2086 2211 2124 2090 2120 2251 2189 2216 2151 2176 2117 2193 2139 2165 2221 2096 2143 2174 2157 2133 2129 2199 2027 2159 2126 2149 2123 2102 2144 2133 2136 2232 2084 2067 2068 2169 2076 2076 2112 2063 2131 2107 2161 2164 2177 2103 2224 2068 2184 2138 2085 2135 2080 2097 2186 2103 2092 2101 2105 2219 2059 2144 2140 2105 2200 2180 2106 2108 2078 2145 2130 2147 2108 2169 2143 2103 2125 2150 2237 2170 2180 2061 2205 2131 2115 2126 2094 2189 2149 2105 2193 2141 2183 2035 2102 2079 2082 2103 2178 2202 2099 2074 2156 2091 2169 2133 2022 2159 2146 2124 2165 2185 2067 2080 2103 2092 2044 2148 2169 2067 2097 2149 2152 2117 2117 2102 2150 2106 2118 2185 2163 2141 2128 2111 2048 2098 2105 2176 2159 2100 2131 2087 2054 2150 2037 2113 2099 2205 2188 2072 2102 2040 2191 2106 2137 2120 2112 2152 2069 2141 2096 2124 2142 2118 2083 2119 2069 2082 2140 2168 2118 2115 2219 2164 2152 2190 2164 2059 2211 2139 2115 2155 2137 2171 2120 2139 2156 2198 2205 2257 2200 2302 2261 2273 2259 2279 2274 2296 2246 2249 2323 2329 2263 2252 2420 2392 2423 2391 2481 2486 2460 2582 2483 2619 2624 2577 2671 2808 2708 2759 2831 2820 2929 3058 3005 3138 3069 3215 3328 3374 3445 3353 3422 3506 3527 3364 3513 3529 3435 3566 3491 3572 3349 3483 3357 3482 3448 3546 3389 3461 3252 3245 3201 3179 3120 3102 3027 2989 2967 3006 2789 2949 2795 2730 2751 2632 2682 2613 2577 2623 2595 2659 2462 2399 2455 2393 2416 2385 2342 2299 2438 2410 2375 2441 2321 2362 2369 2303 2449 2285 2299 2366 2308 2266 2394 2294 2443 2432 2379 2290 2343 2417 2337 2322 2372 2264 2346 2304 2290 2316 2378 2319 2293 2335 2230 2296 2362 2321 2377 2372 2317 2386 2290 2316 2336 2281 2288 2445 2345 2474 2424 2368 2419 2424 2498 2446 2445 2398 2479 2499 2531 2511 2543 2552 2609 2485 2604 2528 2487 2593 2468 2493 2476 2484 2552 2500 2509 2369 2390 2422 2349 2465 2372 2367 2416 2349 2395 2436 2366 2245 2294 2247 2280 2311 2291 2222 2236 2289 2238 2254 2306 2251 2264 2225 2146 2263 2292 2294 2299 2275 2229 2297 2238 2303 2307 2290 2298 2229 2305 2217 2287 2276 2214 2330 2292 2189 2317 2321 2228 2228 2269 2298 2182 2265 2305 2205 2289 2338 2349 2280 2271 2197 2258 2242 2197 2212 2250 2181 2265 2274 2174 2165 2211 2276 2138 2267 2214 2232 2227 2333 2291 2210 2170 2235 2167 2220 2231 2228 2278 2286 2277 2239 2249 2310 2308 2318 2343 2297 2286 2329 2349 2305 2249 2274 2278 2424 2381 2324 2365 2332 2315 2309 2280 2390 2307 2380 2371 2369 2307 2320 2343 2455 2358 2411 2345 2318 2387 2378 2437 2263 2392 2363 2359 2296 2371 2370 2299 2413 2393 2259 2304 2400 2362 2338 2463 2448 2438 2424 2384 2361 2439 2325 2393 2327 2376 2412 2387 2431 2314 2327 2325 2312 2318 2249 2392 2397 2334 2306 2326 2222 2281 2239 2210 2240 2254 2292 2249 2291 2265 2186 2277 2155 2273 2170 2147 2183 2192 2109 2192 2217 2203 2224 2171 2195 2245 2243 2159 2216 2263 2184 2190 2160 2262 2182 2257 2203 2251 2225 2236 2218 2233 2242 2151 2192 2193 2217 2316 2227 2194 2314 2205 2270 2270 2232 2333 2192 2201 2206 2168 2278 2157 2168 2271 2219 2224 2172 2213 2236 2119 2139 2183 2080 2196 2065 2180 2206 2104 2251 2162 2142 2146 2191 2146 2085 2112 2117 2144 2087 2213 2132 2102 2158 2113 2131 2185 2046 2180 2047 2147 2116 2163 2153 2131 2187 2087 2069 2089 2025 2087 2056 2030 2137 2137 2100 2041 2005 2110 2125 2086 2088 2114 2080 2150 2027 2188 2151 2147 2088 2083 2073 2095 2189 2067 2138 1990 2060 2099 2066 2082 2157 2019 2043 2143 2146 2079 2053 2034 2160 2134 2077 2020 2110 2138 2110 2197 2112 2045 2071 2129 2159 2138 2105 2095 2112 2139 2071 2175 2225 2046 2132 2037 2117 2160 2119 2088 2050 2132 2114 2093 2103 2121 2170 2151 2161 2142 2137 2096 2154 2208 2081 2183 2182 2103 2062 2070 2155 2114 2215 2062 2167 2063 2087 2130 2211 2146 2176 2183 2126 2137 2164 2147 2131 2106 2055 2185 2178 2096 2141 2142 2136 2034 2113 2100 2072 2132 2017 2099 2099 2071 2027 2147 2068 2166 2138 2117 2055 2110 2085 2039 2141 2107 2178 2102 2078 2080 2142 2043 2095 2070 2139 2090 2033 2055 2090 2029 2068 2080 2096 2095 2047 2066 2092 2101 2096 2024 2143 2147 2109 2074 2074 2070 2125 2206 2152 2122 2135 2083 2225 2144 2177 2070 2016 2161 2150 2102 2132 2118 2093 2168 2054 2135 2138 2114 2197 2068 2097 2080 2152 2103 2063 2126 2103 2090 2069 2045 2042 2211 2037 2176 2200 2115 2158 2181 2085 2073 2186 2104 2200 2087 2016 2129 2058 2018 2119 2147 2160 2167 2146 2057 2120 2155 2078 2156 2105 2068 2127 2050 2134 2006 2040 2009 2052 2081 2010 2070 2033 2012 2077 2069 2066 2111 2173 2095 2089 2087 2008 2130 2070 2084 2064 2136 2036 2117 2137 2093 2091 2046 2074 2075 2124 2067 2109 2081 2069 2040 2087 2132 2136 2085 2145 2111 2124 2167 2002 2101 2087 2036 2158 2027 2091 2061 2026 2046 2120 2036 2087 2097 2077 2088 2093 2105 2090 1951 2040 2092 2097 2069 2124 2141 2041 2044 2064 2041 2134 2133 2095 2084 2097 2050 2066 2075 2124 2014 2086 2063 2078 2085 2129 2054 2099 2001 2058 2061 2091 2089 2078 2114 2076 2057 2089 2067 2036 2077 2091 2067 2088 2061 2235 2095 2089 2094 2110 2055 2065 2142 2076 2133 2112 2076 2106 2139 2073 2047 2042 2088 2055 2155 2107 2051 2009 2086 2075 2116 2076 1978 2157 2036 2153 2117 2044 2022 2108 2122 2032 2104 2046 2056 2146 2004 2149 2106 2054 2086 2052 2090 2186 2088 2086 2114 2074 2092 2058 2008 2166 2082 2168 2071 2129 2073 2084 2137 2026 2192 2101 2078 2151 2028 2044 2065 2125 2124 2084 2095 2045 2117 2176 2084 2084 2143 2166 2120 2021 2086 2076 2128 2172 2140 2173 2044 2220 2180 2159 2120 2181 2187 2147 2202 2135 2235 2233 2232 2218 2267 2293 2273 2341 2399 2378 2411 2331 2388 2432 2421 2477 2508 2391 2504 2420 2470 2596 2570 2598 2601 2552 2492 2498 2523 2434 2392 2491 2416 2414 2459 2432 2390 2386 2381 2339 2357 2356 2306 2247 2322 2239 2254 2258 2289 2273 2249 2243 2214 2184 2200 2183 2163 2215 2083 2133 2163 2103 2150 2137 2162 2171 2064 2202 2189 2113 2180 2137 2148 2122 2161 2120 2145 2140 2172 2101 2178 2096 2151 2226 2134 2157 2114 2066 2211 2042 2145 2113 2041 2149 2130 2145 2114 2135 2146 2080 2101 2121 2052 2097 2102 2151 2032 2109 2059 2190 2078 2145 2098 2043 2081 2124 2012 2040 2046 2041 2075 2119 2107 2117 2046 2044 2064 2128 2097 2007 2100 2026 2143 2113 2085 2077 2043 2082 2059 2085 2053 2067 2043 2057 2045 2114 2120 2055 2129 2058 2043 2045 2129 2197 2064 2140 2133 2174 2092 2120 2113 2093 2069 2155 2040 2090 2089 2085 2111 2124 2146 2116 2035 2098 2054 2153 1978 2155 2134 2112 2053 2077 2136 2166 2119 2150 2059 2108 2104 2106 2057 2005 2149 2091 2003 2135 2098 2074 2082 2020 2047 2045 2112 2144 2098 2051 2035 2149 2112 2121 2110 2206 2073 2059 2063 2151 2134 2077 2159 2084 2005 2063 2127 2089 2137 2082 2162 2079 2170 2096 2042 2119 2082 2119 2042 2068 2061 2126 2020 2115 2087 2119 2068 2087 2132 2036 2122 2129 2073 2168 2152 2136 2133 2140 2054 2057 2168 2140 2189 2072 2148 2141 2065 2137 2074 2117 2212 2185 2159 2136 2147 2203 2175 2138 2118 2236 2224 2167 2277 2152 2210 2240 2246 2266 2337 2325 2341 2269 2377 2401 2359 2407 2364 2438 2499 2456 2426 2481 2419 2409 2382 2407 2384 2402 2378 2391 2379 2397 2411 2314 2427 2372 2373 2361 2359 2295 2374 2241 2366 2340 2320 2282 2361 2227 2296 2302 2327 2264 2286 2206 2172 2238 2276 2247 2225 2284 2322 2142 2277 2180 2356 2314 2276 2343 2158 2259 2233 2211 2189 2162 2251 2185 2326 2141 2150 2268 2188 2192 2233 2148 2112 2117 2182 2093 2200 2185 2213 2211 2172 2048 2141 2150 2046 2077 2155 2057 2170 2156 2113 2094 2078 2120 2100 2210 2173 2165 2065 2114 2151 2128 2129 2142 2115 2161 2096 2162 2089 2098 2077 2183 2048 2101 2174 2138 2164 2315 2157 2185 2124 2186 2259 2158 2166 2178 2217 2151 2212 2224 2311 2282 2119 2289 2278 2242 2203 2273 2263 2318 2329 2335 2399 2429 2448 2403 2418 2521 2457 2471 2544 2470 2476 2536 2513 2420 2438 2523 2390 2496 2385 2373 2310 2363 2346 2299 2206 2451 2350 2322 2353 2348 2274 2266 2173 2264 2194 2200 2194 2239 2136 2169 2183 2121 2164 2194 2119 2145 2104 2133 2063 2114 2091 2177 2137 2196 2157 2187 2159 2154 2143 2236 2093 2216 2177 2253 2159 2200 2144 2245 2267 2132 2171 2334 2360 2144 2174 2129 2245 2176 2187 2270 2180 2153 2124 2277 2239 2157 2242 2212 2160 2232 2252 2144 2172 2141 2170 2184 2232 2245 2181 2119 2162 2238 2139 2114 2186 2140 2144 2125 2103 2171 2202 2151 2110 2137 2152 2142 2194 2189 2169 2143 2203 2121 2136 2082 2155 2170 2114 2066 2136 2095 2123 2147 2113 2083 2159 2130 2195 2149 2114 2105 2141 2093 2058 2123 2155 2029 2137 2141 2142 2095 2108 2167 2125 2172 2089 2158 2162 2088 2151 2090 2188 2079 2041 2168 2146 2155 2174 2111 2206 2124 2028 2118 2099 2072 2120 2070 2191 2157 2078 2098 2192 2146 2121 2158 2143 2093 2069 2172 2105 2148 2225 2141 2177 2167 2179 2175 2198 2032 2079 2101 2164 2088 2185 2153 2153 2131 2207 2160 2201 2180 2136 2086 2117 2148 2215 2166 2176 2189 2123 2114 2052 2168 2085 2116 2096 2097 2161 2124 2179 2145 2095 2053 2093 2164 2121 2156 2094 2124 2113 2077 2225 2179 2130 2110 2089 2190 2120 2040 2164 2109 2083 2142 2103 2138 2112 2090 2076 2127 2107 2097 2096 2189 2075 2089 2133 2040 2168 2111 2179 2102 2223 2111 2076 2161 2156 2117 2103 2129 2093 2090 2059 2048 2107 2119 2065 2158 2146 2107 2139 2129 2095 2126 2029 2186 2069 2083 2100 2148 2234 2200 2030 2097 2108 2113 2150 2111 2071 2095 2055 2048 2162 2114 2031 2074 2113 2064 2071 2140 2114 2114 2118 2040 2080 2006 2030 2189 2157 2082 2091 2141 2078 2104 2106 2061 2021 2058 2040 2131 2116 2070 2198 2140 2120 2111 2106 2129 2101 2078 2137 2096 2137 2021 2048 2001 2109 2110 2093 2089 2127 2068 2081 2104 2144 2016 2113 2107 2039 2073 2072 1994 2031 2131 2043 2055 2134 2077 2042 2043 2023 2118 2061 2131 2092 2111 2137 2158 2147 2093 2019 2147 2071 2080 2103 2118 2045 2102 2162 2096 2131 2079 2132 2113 2022 2140 2053 2056 2146 2144 2005 2099 2049 2175 2044 2160 2085 2030 2071 2084 2099 2115 2106 2126 2041 2092 2002 2062 2109 2029 2114 2098 2109 2110 2161 2059 2151 2021 2166 2059 2013 2093 2098 2034 2139 2080 2104 2097 2048 2039 2100 2122 2111 2108 2061 2099 2082 2054 2084 2093 2027 2046 2121 2067 2044 2069 2084 2040 2043 2012 2066 1999 2078 2138 2042 2088 2041 2046 2036 2087 2108 2118 2070 2063 2091 1958 2091 2080 2019 2005 2121 2047 2062 2106 2022 2124 2102 2065 2040 2024 2075 2107 2082 2030 2052 2127 2107 2044 2116 2084 2168 2096 2082 2103 2105 2094 2153 2075 2104 2056 2039 2147 2059 2096 2094 2056 1982 2031 2017 2087 2106 2078 2054 2052 2011 2104 2043 2043 2102 2082 1999 2118 2000 2031 2220 2065 2039 2099 2071 2132 2062 2070 2153 2102 2050 2137 2104 2078 2045 2068 2055 2117 1994 2074 2163 2062 2067 2137 2145 2047 2066 2052 2101 1942 2081 2053 2121 2016 1981 2127 2101 2126 2068 2108 2070 2128 2074 2172 2106 2107 2135 2128 2132 2098 2139 2135 2073 2027 2064 2082 2139 2121 1984 2134 2097 2060 2108 2110 2136 2090 2154 2018 2050 2111 2117 2095 2178 2210 2142 2127 2169 2098 2098 2078 2174 2106 2118 2049 2163 2099 2146 2057 2148 2087 2029 2064 2074 2087 2111 2095 2063 2076 2138 2148 2136 2042 1997 2107 2126 2111 2063 2107 2026 2109 1985 2060 2100 2052 2133 2080 2160 2030 2052 1999 2063 2049 2085 2129 2032 2085 2052 2037 2027 2110 2124 2157 2104 2064 2184 2056 2118 2071 2083 2056 2106 2001 2106 2060 2056 2035 2117 2102 2153 2007 2026 2141 2011 2027 2098 2157 2160 2162 2045 2093 2043 2122 2067 2055 2131 2176 2043 2026 1990 2031 2117 2100 2138 2010 2079 2055 2026 2048 2068 2104 2063 2074 2144 2048 2010 2056 2048 2084 2070 2055 2082 2018 2040 2106 2021 2095 2077 2193 2123 2053 2123 2045 2043 2071 2069 2086 1995 2049 2099 2080 1988 2017 2068 2082 2038 2151 2122 2123 2062 2050 2111 2107 2088 2151 2190 2046 2073 2045 2080 2047 2092 2065 2099 2066 2116 2113 2102 2107 2037 2103 2020 2138 2088 2094 2043 2056 2044 2163 2139 2094 2097 2018 2021 1984 2008 2080 2067 2144 1985 2012 2075 2105 2088 2113 2092 2060 2063 2099 2108 2079 2044 2034 2054 2136 2109 2075 2005 2067 2045 2045 2119 2052 1994 2045 2041 2121 2002 2066 2035 2119 2133 2084 2115 2097 2127 2163 2133 2099 2088 2086 2151 2125 2098 2106 2058 2179 2241 2198 2207 2135 2086 2169 2152 2153 2214 2137 2137 2159 2148 2096 2171 2171 2216 2232 2144 2114 2143 2116 2224 2138 2213 2230 2277 2278 2251 2165 2257 2152 2117 2206 2164 2194 2247 2187 2228 2174 2256 2204 2130 2218 2186 2219 2206 2185 2106 2181 2189 2222 2173 2062 2243 2199 2203 2190 2121 2171 2158 2184 2183 2209 2114 2122 2078 2214 2147 2140 2093 2167 2078 2157 2149 2130 2153 2093 2129 2076 2199 2133 2093 2128 2059 2077 2095 2113 2178 2109 2077 2191 2135 2135 2205 2223 2089 2204 2126 2187 2195 2178 2141 2104 2125 2139 2060 2072 2177 2203 2066 2114 2158 2102 2151 2030 2133 2223 2137 2096 2160 2107 2140 2171 2075 2040 2139 2082 2065 2172 2156 2095 2134 2097 2162 2159 2088 2107 2080 2099 2153 2132 2167 2084 2092 2110 2036 2156 2060 2085 2067 2007 2065 2088 2164 2069 2079 2124 1999 2093 2105 2057 2108 2081 2065 2064 2066 2091 2003 2169 2164 2082 2156 2138 2047 2051 2102 2108 2045 2090 2023 2129 2104 2035 2070 2076 2034 2015 2081 2048 2069 2148 2122 2105 2075 2023 2097 2102 2000 2169 2046 2108 2102 2146 2103 1990 2031 2102 2057 2113 2077 2141 2111 2118 2062 2108 2126 2115 2103 2122 2085 2120 2176 2078 2031 2041 2122 2090 2143 2163 1978 2103 2120 2020 2161 2101 2028 2118 2018 2127 2038 2070 2151 2093 2103 2041 2061 2144 2110 2145 2065 2091 2142 2136 2060 2027 2112 1994 2108 2106 2223 2053 2030 2113 2039 2040 2187 2099 2164 2112 2113 2125 2161 2058 2012 2098 2097 2102 1992 2071 2141 2020 2111 2130 2111 2091 2099 2051 2086 2138 2120 2049 2070 2065 2067 2059 2130 2056 2166 2200 2085 2056 2125 2180 1992 2086 2007 2104 2013 2123 2112 2041 2101 2045 2124 2050 2136 2118 2120 2130 2164 2099 2147 2075 2107 2095 2081 2068 2062 2071 2066 2071 2096 2068 2124 2086 2032 2060 2059 2163 2108 2159 2077 2073 2107 2123 2055 2142 2083 2105 2079 2106 2066 2057 2158 2160 2062 2072 2078 2063 2021 2144 2099 1977 2047 2125 2038 2090 2136 2052 2069 2080 2168 2120 2056 2037 2072 2069 2104 2150 2110 2177 2125 2069 2058 2071 2090 2116 2027 2112 2115 2083 2113 2058 2103 2023 2103 2114 2153 2055 2191 2044 2073 2106 2100 2103 2163 2069 2090 2156 2043 2095 2089 2069 2038 2177 2036 2127 2051 2116 2100 2085 2038 2121 2139 2096 2050 2021 2119 2112 2052 2095 2102 2189 2131 2110 2074 2178 2151 2097 2178 2047 2091 2126 2150 2182 2111 2055 2069 2080 2052 2040 2106 2168 2076 2171 2165 2087 2092 2033 2048 2113 2074 2045 2069 2156 2134 2124 2042 2134 2117 2052 2061 2018 2071 2124 2080 2045 2129 2038 2068 2068 2176 2135 2132 2038 2136 2067 2086 2041 2110 2038 2135 2047 2040 2136 2058 2104 2157 2183 2139 2102 2151 2116 2115 2115 2092 2097 2130 1958 2041 2172 2122 2137 2135 2144 2125 2157 2090 2059 2034 2089 2028 2057 2078 2119 2048 2024 2053 2049 2151 2092 2040 2073 2098 2076 2080 2141 2063 2068 2086 2083 2126 2043 2075 2085 2048 2102 2059 2080 2109 2155 2048 2123 2082 2139 2052 2099 2059 2159 2103 2127 2131 2058 2103 2062 2113 2105 2108 2068 2063 2063 2064 2013 2070 2076 2126 2112 2048 2047 2072 2144 2039 2078 2091 2077 1978 2087 2013 2071 2044 2084 2099 2098 2089 2079 2062 2180 2135 2101 2099 2090 2100 2136 2052 2174 2128 2105 2023 2143 2128 2130 2173 2121 2083 2073 2053 2152 2088 2118 2149 2076 2109 2114 2091 2155 2049 2106 2072 2123 2108 2004 2052 2086 2138 2161 2100 2084 2058 2123 2088 2091 2024 2088 2006 2085 2045 2032 2110 2053 2083 2050 2101 2126 2138 2055 1991 2123 2062 2178 2128 2092 2038 2035 2058 2087 2102 2062 1997 2132 2178 2137 2115 2148 2079 2075 2110 2101 2051 2033 2174 2116 2103 2100 2087 2043 2094 2060 2117 2076 2063 2102 2096 2058 2110 2109 2150 2112 2148 2165 2103 2118 2121 2085 2118 2140 2026 2105 2060 2129 2022 2073 2094 2052 2143 2131 2126 2093 2102 2073 2091 2097 2203 2140 2116 2046 2140 2121 2251 2198 2224 2181 2085 2156 2165 2080 2133 2159 2138 2107 2182 2139 2122 2202 2150 2166 2165 2127 2227 2203 2219 2202 2275 2212 2265 2131 2304 2240 2176 2241 2164 2282 2122 2110 2176 2122 2193 2247 2280 2256 2166 2173 2215 2239 2147 2204 2194 2220 2182 2231 2232 2170 2165 2200 2112 2234 2225 2188 2235 2143 2259 2216 2218 2121 2034 2240 2219 2113 2201 2159 2121 2108 2087 2097 2155 2121 2140 2136 2122 2066 2154 2169 2139 2165 2164 2095 2109 2092 2123 2157 2084 2098 2154 2049 2190 2140 2104 2135 2103 2097 2031 2134 2141 2114 2034 2117 2192 2119 2173 2062 2153 2165 2173 2092 2175 2101 2165 2095 2062 2144 2195 2123 2154 2100 2124 2031 2082 2110 2153 2102 2172 2158 2086 2149 2085 2134 2089 2186 2039 2088 2103 2076 2123 2083 2118 2099 2138 2172 2134 2060 2092 2224 2018 2162 2072 2132 2204 2049 2178 2068 2118 2190 2086 2056 2132 2131 2190 2208 2119 2157 2202 2115 2210 2109 2217 2158 2180 2106 2185 2199 2112 2124 2271 2201 2153 2165 2182 2165 2323 2133 2072 2129 2122 2223 2212 2096 2187 2208 2270 2133 2160 2220 2191 2199 2111 2186 2193 2265 2241 2175 2172 2205 2190 2204 2099 2218 2116 2089 2195 2141 2115 2219 2093 2114 2152 2155 2190 2082 2093 2145 2219 2167 2186 2057 2099 2122 2219 2141 2204 2220 2194 2154 2191 2137 2195 2244 2150 2149 2207 2225 2192 2270 2206 2214 2224 2297 2254 2210 2245 2307 2295 2324 2274 2394 2361 2276 2301 2426 2394 2316 2381 2418 2302 2325 2392 2461 2456 2341 2319 2405 2385 2328 2385 2349 2359 2369 2430 2383 2326 2465 2340 2349 2299 2356 2320 2231 2278 2310 2328 2383 2230 2402 2263 2203 2259 2215 2277 2327 2255 2245 2305 2178 2258 2258 2235 2145 2231 2092 2280 2283 2184 2171 2107 2185 2175 2183 2233 2232 2252 2266 2196 2273 2256 2234 2184 2256 2160 2210 2192 2107 2231 2222 2195 2144 2169 2198 2202 2154 2134 2160 2113 2170 2163 2159 2256 2220 2230 2167 2182 2188 2163 2164 2239 2157 2158 2230 2138 2227 2113 2164 2149 2124 2084 2123 2231 2166 2151 2211 2126 2126 2166 2181 2104 2132 2157 2147 2195 2127 2198 2153 2168 2122 2203 2114 2144 2185 2098 2172 2129 2235 2166 2141 2117 2149 2177 2127 2067 2128 2197 2134 2161 2143 2110 2123 2271 2053 2193 2186 2171 2184 2110 2036 2162 2155 2219 2131 2162 2179 2121 2092 2180 2112 2115 2122 2170 2126 2125 2111 2214 2195 2192 2156 2178 2144 2106 2139 2166 2111 2158 2089 2175 2264 2170 2163 2131 2232 2158 2227 2181 2116 2210 2211 2174 2143 2206 2128 2176 2243 2172 2136 2113 2142 2138 2220 2193 2216 2254 2240 2194 2109 2254 2207 2200 2229 2230 2220 2190 2206 2220 2207 2141 2328 2225 2225 2249 2171 2238 2172 2221 2134 2181 2183 2148 2253 2179 2278 2171 2215 2209 2179 2103 2252 2251 2155 2233 2276 2279 2238 2128 2180 2174 2141 2091 2188 2150 2197 2179 2151 2052 2129 2244 2212 2172 2207 2222 2202 2160 2185 2173 2241 2122 2179 2182 2152 2183 2196 2058 2186 2091 2113 2073 2171 2174 2130 2161 2183 2166 2161 2220 2230 2132 2139 2156 2178 2103 2134 2078 2113 2167 2128 2141 2151 2140 2146 2189 2152 2025 2128 2165 2127 2065 2129 2235 2133 2132 2098 2180 2158 2206 2162 2188 2249 2099 2115 2174 2224 2238 2089 2097 2206 2097 2098 2153 2177 2190 2190 2191 2142 2193 2125 2151 2170 2132 2194 2198 2254 2206 2208 2183 2152 2124 2159 2172 2245 2218 2223 2242 2201 2224 2221 2201 2188 2217 2202 2167 2194 2148 2193 2242 2189 2137 2145 2239 2182 2125 2162 2141 2165 2097 2198 2141 2165 2169 2119 2197 2212 2174 2145 2124 2139 2185 2124 2179 2119 2166 2179 2180 2088 2120 2168 2218 2142 2085 2049 2052 2132 2183 2140 2095 2100 2129 2113 2134 2085 2089 2107 2165 2162 2161 2131 2109 2146 2095 2135 2019 2095 2112 2160 2144 2088 2134 2113 2105 1995 2137 2110 2197 2152 2032 2076 2102 2100 2039 2208 2179 2081 2076 2094 2098 2150 2101 2126 1996 2128 2147 2075 2069 2085 2133 2021 2105 2091 2161 2230 2158 2227 2124 2092 2121 2084 2057 2132 2074 2125 2150 2160 2109 2072 2150 2125 2158 2166 2169 2097 2215 2119 2122 2157 2092 2107 2162 2162 2133 2243 2078 2124 2132 2077 2129 2188 2111 2207 2096 2123 2182 2121 2096 2169 2117 2119 2178 2190 2085 2158 2102 2119 2167 2057 2093 2030 2128 2057 2108 2103 2111 2180 2109 2102 2210 2157 2116 2097 2160 2142 2107 2112 2139 2164 2112 2194 2139 2181 2103 2086 2152 2104 2156 2157 2076 2142 2060 2087 2146 2110 2201 2161 2144 2087 2209 2080 2200 2128 2091 2212 2148 2189 2157 2196 2078 2075 2125 2085 2029 2079 2116 2187 2201 2141 2026 2145 2176 2116 2155 2140 2139 2082 2110 2179 2084 2122 2168 2136 2103 2113 2039 2134 2139 2120 2059 2071 2117 2092 2134 2092 2074 2101 2203 2075 2122 2126 2076 2148 2111 2072 2199 2175 2060 2201 2093 2139 2146 2135 2048 2095 2174 2110 2138 2179 2099 2042 2070 2059 2065 2019 2056 2068 2149 2137 2151 2151 2104 2082 2147 2215 2078 2083 2104 2133 2204 2081 2244 2122 2195 2226 2203 2156 2161 2034 2151 2131 2091 2095 2132 2017 2176 2126 2137 2200 2187 2067 2185 2120 2120 2118 2131 2094 2153 2093 2142 2026 2124 2173 2084 2134 2117 2077 2109 2077 2134 2167 2129 2150 2217 2103 2159 2088 2157 2164 2048 2041 2108 2175 2101 2091 2112 2110 2143 2096 2172 2106 2115 2063 2117 2058 2096 2070 2048 2141 2094 2073 2132 2119 2113 2095 2109 2079 2123 2127 2090 2190 2171 2065 2079 2119 2198 2228 2276 2128 2077 2093 2122 2084 2113 2187 2115 2077 2204 2066 2078 2145 2158 2198 2115 2050 2145 2064 2151 2135 2046 2114 2097 2097 2092 2099 2202 2134 2111 2146 2087 2051 2142 2170 2162 2132 2163 2061 2068 2133 2111 2056 2101 2067 2089 2104 2093 2068 2142 2106 2067 2030 2175 2138 2052 2132 2129 2152 2120 2134 2124 2108 2096 2059 2139 2084 2177 2092 2065 2055 2100 2123 2131 2068 2170 2189 2095 2090 2112 2067 2131 2052 2176 2039 2187 2170 2070 2128 2117 2108 2156 2145 2153 2130 2096 2156 2159 2137 2138 2213 2106 2052 2069 2099 2053 2104 2111 2121 2143 2054 2083 2042 2123 2151 2148 2026 2211 2081 2085 2192 2048 2113 2121 2153 2037 2098 2190 2133 2129 2137 2121 2074 2213 2130 2170 2111 2093 2143 2140 2123 2113 2143 2102 2122 2158 2174 2132 2147 2116 2165 2137 2145 2074 2146 2132 2089 2111 2146 2146 2136 2071 2053 2179 2170 2086 2098 2155 2067 2135 2170 2120 2177 2179 2170 2075 2241 2198 2082 2131 2144 2124 2130 2093 2160 2173 2236 2096 2171 2127 2199 2184 2180 2162 2149 2205 2236 2177 2195 2228 2155 2295 2237 2246 2284 2301 2240 2253 2201 2273 2280 2290 2277 2304 2332 2311 2302 2291 2276 2353 2243 2319 2223 2317 2340 2299 2231 2228 2321 2229 2206 2351 2236 2226 2226 2302 2301 2291 2246 2293 2275 2298 2313 2180 2304 2249 2167 2278 2209 2251 2257 2276 2340 2265 2316 2232 2223 2245 2270 2192 2163 2225 2181 2189 2168 2165 2203 2219 2170 2257 2122 2150 2202 2184 2208 2169 2142 2246 2157 2120 2139 2099 2187 2221 2244 2210 2149 2190 2083 2135 2239 2128 2121 2204 2096 2237 2156 2099 2205 2151 2222 2171 2156 2141 2077 2174 2253 2146 2151 2225 2101 2189 2121 2155 2187 2214 2128 2167 2134 2168 2146 2180 2124 2204 2172 2175 2168 2103 2215 2176 2117 2167 2109 2116 2186 2172 2286 2078 2169 2197 2095 2107 2119 2151 2136 2056 2196 2125 2198 2032 2200 2159 2225 2209 2153 2104 2189 2094 2120 2161 2134 2206 2104 2125 2227 2040 2067 2088 2148 2209 2088 2054 2110 2177 2132 2088 2022 2082 2247 2204 2193 2102 2212 2070 2169 2150 2147 2113 2099 2203 2056 2171 2116 2134 2231 2185 2186 2106 2081 2143 2109 2193 2138 2098 2061 2091 2119 2090 2029 2178 2258 2120 2192 2134 2015 2053 2072 2130 2031 2118 2115 2127 2150 2122 2244 2179 2166 2136 2126 2117 2183 2197 2108 2174 2148 2158 2157 2231 2145 2161 2195 2142 2148 2077 2211 2173 2204 2191 2099 2263 2117 2136 2184 2183 2211 2130 2069 2151 2128 2131 2185 2101 2173 2140 2180 2152 2232 2217 2224 2151 2223 2247 2283 2239 2162 2250 2170 2181 2247 2141 2256 2202 2209 2176 2257 2197 2149 2179 2224 2210 2179 2185 2164 2185 2252 2142 2191 2170 2280 2232 2221 2124 2228 2289 2250 2213 2105 2199 2171 2174 2247 2172 2172 2152 2167 2255 2262 2132 2148 2179 2150 2168 2140 2165 2117 2239 2196 2102 2183 2138 2134 2050 2062 2161 2162 2274 2173 2098 2184 2046 2118 2167 2145 2197 2219 2137 2199 2161 2143 2102 2276 2144 2142 2152 2115 2125 2128 2160 2160 2146 2182 2102 2150 2041 2132 2136 2149 2135 2060 2138 2127 2202 2092 2169 2090 2082 2095 2127 2090 2133 2120 2040 2189 2108 2109 2029 2105 2146 2092 2110 2171 2102 2137 2159 2136 2058 2072 2089 2174 2097 2147 2101 2098 2126 2111 2083 2085 2137 2142 2088 2144 2077 2077 2160 2197 2007 2184 2084 2111 2094 2095 2140 2174 2095 2110 2172 2088 2089 2151 2188 2127 2174 2107 2123 2164 2100 2233 2124 2093 2271 2070 2154 2102 2138 2044 2064 2152 2072 2100 2101 2180 2137 2115 2212 2100 2096 2184 2158 2183 2080 2139 2059 2140 2141 2106 2043 2130 2084 2175 2119 2117 2107 2067 2148 2108 2149 2125 2118 2073 2100 2172 2148 2121 2117 2164 2084 2091 2135 2089 2080 2080 2098 2130 2086 2108 2117 2108 2121 2146</counts>
			</dataPoints>
		</scan>
	</xrdMeasurement>
</xrdMeasurements>
