<?xml version="1.0"?>
<xrdMeasurements xmlns="http://www.xrdml.com/XRDMeasurement/2.3" xmlns:xsi="http://www.w3.org/2001/XMLSchema-instance" xsi:schemaLocation="http://www.xrdml.com/XRDMeasurement/2.3 http://www.xrdml.com/XRDMeasurement/2.3/XRDMeasurement.xsd" status="Completed" recordIdentifier="{17A5E5F4-6D4D-4A85-8383-80F48E93ED7D}">
	<comment>
		<entry/>
	</comment>
	<sample type="To be analyzed">
		<id>GPSS_Li1p5Fe0p5Y0p25In0p25Cl4_122625_694efed0ae15af25ac374c57</id>
		<name></name>
		<preparedBy></preparedBy>
	</sample>
	<xrdMeasurement measurementType="Scan" status="Completed" sampleMode="Reflection">
		<usedWavelength intended="K-Alpha 1">
			<kAlpha1 unit="Angstrom">1.5405980</kAlpha1>
			<kAlpha2 unit="Angstrom">1.5444260</kAlpha2>
			<kBeta unit="Angstrom">1.3922500</kBeta>
			<ratioKAlpha2KAlpha1>0.5000</ratioKAlpha2KAlpha1>
		</usedWavelength>
		<incidentBeamPath>
			<radius unit="mm">145.00</radius>
			<xRayTube id="1010048" name="Empyrean Cu LFF HR (9430 033 7310x)">
				<tension unit="kV">40.0</tension>
				<current unit="mA">15.0</current>
				<anodeMaterial>Cu</anodeMaterial>
				<focus type="Line">
					<length unit="mm">12.0</length>
					<width unit="mm">0.4</width>
					<takeOffAngle unit="deg">6.0</takeOffAngle>
				</focus>
			</xRayTube>
			<sollerSlit id="21010002" name="Soller slits 0.04 rad.">
				<opening unit="rad">0.0400</opening>
			</sollerSlit>
			<mask id="22031000" name="Fixed mask 13 mm">
				<width unit="mm">9.00</width>
			</mask>
			<divergenceSlit id="22120001" name="Divergence slit 1°" xsi:type="fixedDivergenceSlitType">
				<distanceToSample unit="mm">50.00</distanceToSample>
				<height unit="mm">1.52</height>
			</divergenceSlit>
		</incidentBeamPath>
		<sampleMovement xsi:type="spinningSampleMovementType">
			<spinnerRevolutionTime unit="seconds">1.0</spinnerRevolutionTime>
		</sampleMovement>
		<diffractedBeamPath>
			<radius unit="mm">145.00</radius>
			<antiScatterSlit id="22090040" name="AS slit 9 mm (PIXcel)" xsi:type="fixedAntiScatterSlitType">
				<height unit="mm">9.00</height>
			</antiScatterSlit>
			<sollerSlit id="21020003" name="Large Soller slits 0.04 rad.">
				<opening unit="rad">0.0400</opening>
			</sollerSlit>
			<filter id="20030001" name="Large beta-filter Nickel">
				<material>Ni</material>
				<thickness unit="mm">0.020</thickness>
			</filter>
			<detector id="7010019" name="PIXcel1D-Medipix3 detector" xsi:type="rtmsDetectorType">
				<phd unit="keV">
					<lowerLevel>4.02</lowerLevel>
					<upperLevel>11.27</upperLevel>
				</phd>
				<mode>Scanning</mode>
				<activeLength unit="deg">5.542</activeLength>
			</detector>
		</diffractedBeamPath>
		<scan appendNumber="0" mode="Continuous" scanAxis="Gonio" status="Completed">
			<header>
				<startTimeStamp>2025-12-29T11:55:27-08:00</startTimeStamp>
				<endTimeStamp>2025-12-29T12:03:34-08:00</endTimeStamp>
				<author>
					<name>AutomatedUser</name>
				</author>
				<source>
					<applicationSoftware version="1.7b (136)">PANalytical Aeris Instrument Suite</applicationSoftware>
					<instrumentControlSoftware version="3.2.00000000 20240306">AERIS</instrumentControlSoftware>
					<instrumentID>950485</instrumentID>
				</source>
			</header>
			<dataPoints>
				<positions axis="2Theta" unit="deg">
					<startPosition>10.00943322</startPosition>
					<endPosition>99.99442286</endPosition>
				</positions>
				<positions axis="Omega" unit="deg">
					<startPosition>5.00471661</startPosition>
					<endPosition>49.99721143</endPosition>
				</positions>
				<commonCountingTime unit="seconds">12.495</commonCountingTime>
				<counts unit="counts">2840 2757 2784 2854 2793 2711 2700 2917 2751 2719 2837 2786 2736 2727 2728 2863 2802 2706 2888 2723 2794 2727 2782 2784 2809 2829 2769 2718 2806 2745 2714 2721 2821 2759 2837 2872 2809 2709 2751 2878 2731 2808 2825 2833 2740 2813 2821 2833 2821 2881 2815 2758 2859 2871 2774 2860 2861 2848 2873 2779 2811 2796 2781 2793 2810 2886 2779 2765 2815 2822 2880 2860 2866 2923 2843 2896 2814 2771 2867 2888 2916 2868 2901 2877 2866 2914 2820 2838 2787 2857 2906 2832 2919 2836 2928 3028 2908 2836 2953 2850 2842 2838 2816 2910 3010 2905 2887 2841 2952 2940 2907 2964 2838 2991 3026 2857 2908 2884 2847 2920 3087 2954 2920 2890 2979 2864 2901 2941 2930 2867 2887 3051 3033 2947 2915 2831 2938 2836 2890 2975 2846 2995 2920 2920 2927 2986 2819 3003 2942 2933 3009 2879 2996 2996 2940 2864 2921 3000 2904 2993 2874 3002 2845 2939 2877 2901 2879 2872 2947 2868 2824 2963 2938 2906 2949 2915 2810 2940 3009 2956 2891 2952 2860 3027 2857 2992 2895 2865 2975 2897 2891 2903 2933 2899 2954 2951 2969 2854 2894 2905 2845 2908 3001 2875 2936 2868 2767 2946 2982 2909 2861 2835 3012 2876 2906 2956 2886 2816 2913 2855 2919 2857 2892 2811 2805 2815 2896 2843 2881 2808 2814 2778 2842 2849 2961 2816 2880 2812 2819 2846 2922 2793 2779 2807 2826 2780 2854 2869 2823 2812 2837 2756 2905 2902 2891 2909 2777 2894 2808 2859 2733 2834 2883 2816 2744 2881 2910 2874 2820 2772 2701 2712 2897 2854 2901 2816 2853 2784 2803 2805 2826 2849 2735 2840 2818 2739 2775 2797 2761 2886 3000 2830 2769 2874 2911 2925 2803 2892 2741 2840 2782 2733 2759 2813 2913 2861 2859 2846 2900 2807 2818 2939 2838 2876 2944 2891 2883 2948 2899 2886 2856 2939 2852 2800 2832 2893 2975 2819 2907 2911 2969 2922 2909 2916 2927 2941 2962 2965 2872 2925 2979 2988 2949 2974 2995 2910 2942 2975 2970 2957 3013 3096 2961 2976 3026 2967 3013 3052 3037 3040 3134 3064 2994 3013 2954 2962 3016 3134 3002 3112 3042 3019 3034 3223 3088 3053 3083 3101 2973 3209 3108 3113 3162 3166 3294 3150 3061 3174 3133 3139 3104 3286 3141 3226 3128 3214 3076 3135 3196 3309 3191 3214 3235 3168 3191 3233 3233 3242 3222 3259 3254 3245 3296 3301 3357 3292 3262 3447 3393 3385 3448 3327 3403 3392 3479 3409 3545 3532 3409 3457 3402 3541 3395 3427 3478 3413 3391 3368 3547 3355 3414 3471 3289 3393 3478 3363 3445 3583 3461 3554 3542 3434 3451 3523 3491 3540 3519 3561 3510 3523 3584 3419 3604 3459 3649 3616 3592 3647 3630 3629 3648 3692 3578 3783 3719 3665 3662 3721 3531 3784 3717 3617 3694 3493 3475 3593 3376 3443 3466 3361 3337 3353 3370 3369 3253 3210 3185 3198 3242 3115 3265 3227 3221 3116 3134 3173 3152 3103 3167 3093 3070 3224 3266 3157 3160 3182 3286 3119 3253 3203 3134 3115 3158 3257 3059 3220 3166 3148 3199 3258 3322 3179 3132 3068 3192 3058 3144 3044 3156 3042 3017 3009 3133 3042 3093 2963 3148 3020 3016 3162 3098 3078 3000 3014 2996 3017 3078 3031 3143 2943 3018 3022 3022 3111 3028 3027 3044 3059 3123 3108 2998 3018 3132 3020 3067 3119 3060 3065 3033 3109 3119 3037 2984 3009 3063 2926 2898 3033 2910 2913 2883 2803 2850 2925 2855 2888 2901 2871 3007 2910 2822 2853 2802 2867 2841 2890 2877 2783 2910 2782 2878 2847 2918 2725 2860 2811 2702 2756 2890 2867 2881 2749 2834 2842 2750 2887 2709 2765 2810 2760 2814 2779 2782 2916 2719 2768 2707 2721 2705 2875 2757 2737 2781 2809 2695 2782 2728 2726 2724 2735 2764 2686 2758 2767 2859 2760 2731 2769 2896 2764 2712 2683 2728 2728 2751 2794 2610 2747 2837 2649 2733 2836 2726 2806 2741 2818 2771 2713 2705 2740 2731 2736 2681 2669 2768 2792 2811 2797 2790 2750 2749 2668 2750 2825 2711 2759 2740 2689 2771 2796 2743 2790 2687 2786 2832 2756 2742 2733 2854 2744 2862 2771 2833 2789 2777 2761 2776 2721 2787 2800 2797 2856 2783 2781 2682 2717 2637 2712 2629 2666 2685 2662 2662 2729 2670 2646 2611 2676 2582 2714 2693 2704 2626 2704 2681 2778 2602 2607 2663 2665 2644 2587 2552 2595 2571 2586 2595 2627 2606 2622 2655 2601 2624 2544 2663 2625 2665 2677 2621 2629 2630 2678 2600 2616 2659 2537 2600 2560 2610 2633 2600 2641 2603 2665 2584 2578 2607 2532 2620 2593 2532 2565 2535 2544 2596 2637 2588 2565 2517 2531 2562 2499 2653 2571 2558 2522 2562 2555 2620 2618 2507 2521 2600 2539 2625 2599 2429 2634 2587 2578 2561 2594 2473 2512 2503 2507 2508 2477 2575 2496 2474 2460 2570 2565 2488 2523 2621 2504 2497 2536 2504 2553 2538 2549 2517 2568 2512 2468 2471 2416 2413 2419 2570 2571 2578 2442 2555 2464 2546 2484 2457 2483 2497 2548 2443 2423 2398 2464 2424 2427 2391 2428 2402 2447 2479 2444 2557 2443 2408 2474 2422 2451 2458 2514 2465 2494 2465 2496 2448 2423 2409 2506 2417 2427 2441 2372 2449 2441 2486 2390 2397 2321 2469 2418 2481 2404 2347 2285 2341 2394 2384 2397 2475 2422 2309 2429 2493 2355 2443 2457 2378 2422 2466 2358 2392 2481 2371 2302 2359 2495 2419 2387 2388 2348 2325 2407 2357 2321 2286 2375 2453 2315 2357 2328 2293 2321 2252 2471 2316 2301 2413 2338 2428 2320 2438 2461 2435 2240 2338 2320 2288 2290 2366 2366 2389 2380 2318 2385 2303 2336 2268 2304 2340 2342 2377 2331 2326 2376 2403 2308 2332 2318 2371 2326 2320 2303 2300 2343 2228 2306 2262 2280 2315 2286 2337 2270 2313 2285 2295 2336 2200 2365 2391 2293 2255 2290 2285 2289 2187 2309 2273 2360 2315 2242 2350 2329 2312 2303 2336 2327 2252 2314 2267 2319 2307 2263 2225 2258 2274 2381 2259 2351 2249 2270 2293 2347 2300 2255 2434 2292 2326 2356 2259 2210 2370 2383 2398 2304 2319 2325 2297 2355 2352 2367 2313 2313 2356 2312 2306 2344 2314 2293 2277 2322 2279 2293 2382 2294 2229 2316 2327 2317 2369 2257 2451 2258 2384 2313 2239 2310 2346 2254 2294 2315 2380 2253 2240 2285 2394 2310 2345 2419 2335 2316 2311 2403 2274 2295 2314 2413 2277 2350 2321 2450 2339 2319 2316 2416 2296 2221 2382 2329 2405 2423 2289 2252 2325 2251 2405 2317 2328 2365 2234 2283 2284 2273 2392 2268 2264 2193 2227 2233 2294 2315 2259 2234 2224 2284 2307 2267 2261 2236 2310 2288 2264 2340 2252 2243 2204 2244 2215 2249 2266 2246 2271 2230 2231 2251 2180 2185 2206 2229 2223 2242 2164 2282 2154 2202 2197 2224 2248 2294 2193 2143 2171 2239 2218 2193 2130 2254 2279 2105 2224 2145 2178 2001 2168 2125 2145 2172 2150 2158 2056 2177 2207 2157 2218 2155 2121 2125 2156 2077 2070 2089 2051 2097 2087 2132 2056 2055 2032 2038 2085 2074 2049 2107 2074 1955 2015 2073 2126 2090 2013 2048 2065 1971 1983 1970 2015 2019 2067 1935 1962 1984 1990 2005 2026 2017 2015 2088 2002 1939 1913 1990 1930 1967 1965 1928 1923 1963 1876 1908 1963 1931 1905 1893 1880 1927 1914 1932 1938 1913 1874 1928 1921 1876 1893 1871 1827 1820 1912 1909 1840 1790 1974 1843 1925 1903 1957 1915 1836 1888 1910 1921 1857 1816 1841 1877 1830 1891 1780 1913 1848 1871 1858 1855 1809 1770 1797 1756 1796 1714 1831 1759 1770 1736 1810 1879 1801 1863 1797 1802 1868 1750 1748 1817 1785 1766 1785 1845 1757 1734 1732 1671 1761 1762 1768 1771 1839 1762 1765 1723 1764 1771 1780 1678 1651 1684 1720 1737 1676 1754 1773 1719 1714 1758 1722 1715 1720 1668 1724 1678 1719 1694 1676 1711 1679 1795 1768 1742 1762 1814 1664 1776 1675 1673 1710 1616 1773 1704 1618 1713 1688 1699 1685 1702 1669 1709 1832 1726 1755 1696 1694 1732 1638 1653 1724 1645 1708 1620 1694 1657 1684 1689 1657 1741 1648 1689 1655 1703 1698 1785 1677 1738 1669 1669 1640 1671 1726 1602 1652 1813 1615 1720 1695 1737 1636 1729 1712 1668 1661 1735 1765 1678 1604 1684 1647 1586 1765 1686 1646 1653 1704 1693 1684 1716 1707 1687 1650 1657 1703 1660 1770 1626 1766 1690 1622 1775 1681 1701 1674 1708 1695 1740 1687 1727 1779 1708 1669 1640 1687 1682 1751 1756 1667 1789 1616 1667 1728 1770 1680 1743 1736 1715 1700 1679 1814 1712 1684 1676 1741 1689 1750 1808 1686 1729 1707 1701 1645 1701 1676 1718 1755 1731 1716 1656 1771 1705 1556 1728 1713 1745 1744 1688 1683 1712 1658 1610 1711 1681 1621 1691 1660 1713 1724 1701 1686 1718 1704 1687 1677 1726 1777 1675 1718 1696 1666 1684 1726 1731 1731 1706 1678 1728 1720 1693 1769 1757 1702 1691 1662 1640 1739 1698 1757 1683 1681 1684 1682 1616 1758 1659 1675 1694 1612 1637 1699 1631 1732 1676 1634 1622 1671 1689 1641 1630 1660 1646 1671 1677 1675 1592 1604 1670 1670 1601 1570 1587 1676 1677 1601 1637 1577 1556 1577 1554 1576 1550 1635 1553 1574 1550 1630 1523 1597 1555 1513 1559 1508 1493 1530 1582 1543 1505 1575 1462 1521 1514 1608 1549 1487 1512 1553 1489 1521 1492 1434 1544 1502 1495 1460 1549 1485 1501 1525 1484 1431 1483 1482 1439 1459 1462 1491 1526 1511 1468 1523 1495 1457 1386 1550 1433 1494 1494 1502 1387 1415 1436 1396 1418 1448 1405 1511 1423 1430 1501 1447 1406 1417 1388 1446 1452 1415 1396 1392 1333 1408 1503 1433 1488 1407 1448 1421 1411 1519 1483 1515 1484 1392 1423 1458 1391 1426 1442 1411 1489 1541 1479 1541 1453 1515 1468 1528 1488 1530 1535 1454 1435 1475 1433 1431 1451 1448 1528 1480 1487 1428 1438 1425 1473 1446 1417 1437 1416 1517 1454 1549 1502 1486 1478 1508 1465 1475 1522 1490 1514 1571 1510 1570 1548 1590 1530 1480 1568 1551 1516 1542 1570 1491 1533 1556 1537 1468 1537 1488 1529 1507 1424 1427 1367 1429 1477 1405 1378 1500 1312 1357 1412 1292 1298 1292 1352 1361 1351 1292 1358 1249 1295 1286 1348 1356 1278 1235 1261 1311 1304 1290 1304 1353 1251 1252 1334 1318 1383 1354 1392 1320 1308 1318 1344 1335 1326 1360 1266 1379 1451 1420 1384 1423 1466 1483 1522 1522 1516 1566 1483 1507 1552 1546 1510 1562 1507 1535 1504 1516 1497 1542 1460 1407 1487 1456 1450 1476 1402 1437 1441 1433 1408 1510 1463 1547 1444 1480 1527 1495 1528 1549 1566 1501 1661 1585 1694 1679 1623 1604 1628 1633 1648 1661 1638 1612 1644 1667 1643 1590 1631 1658 1656 1641 1689 1681 1626 1535 1547 1518 1480 1517 1436 1430 1411 1396 1354 1312 1322 1265 1269 1269 1218 1183 1281 1281 1302 1222 1167 1249 1285 1223 1168 1227 1137 1155 1216 1137 1174 1124 1169 1135 1137 1142 1077 1200 1208 1152 1167 1194 1167 1201 1163 1116 1108 1165 1200 1187 1177 1148 1166 1122 1099 1190 1139 1142 1131 1145 1159 1179 1137 1219 1164 1159 1131 1143 1164 1179 1226 1108 1146 1215 1099 1150 1170 1220 1110 1200 1167 1218 1227 1210 1248 1305 1280 1292 1385 1390 1327 1390 1363 1421 1436 1379 1383 1412 1339 1451 1448 1410 1413 1420 1391 1457 1338 1451 1360 1336 1412 1399 1369 1437 1369 1367 1366 1418 1368 1350 1369 1311 1357 1402 1346 1382 1465 1433 1544 1533 1599 1511 1607 1626 1585 1648 1635 1669 1646 1679 1669 1727 1625 1676 1716 1706 1634 1629 1578 1568 1657 1522 1458 1421 1464 1406 1344 1338 1234 1316 1255 1208 1118 1232 1276 1166 1146 1146 1110 1178 1076 1123 1114 1145 1161 1103 1134 1146 1141 1161 1171 1116 1126 1126 1091 1140 1122 1115 1195 1098 1107 1152 1209 1165 1115 1207 1204 1134 1194 1096 1182 1207 1172 1188 1125 1088 1112 1150 1163 1047 1132 1111 1152 1126 1089 1082 1048 1087 1096 1110 1031 1079 1114 1075 1084 1132 1091 1112 1088 1141 1106 1047 1166 1122 1094 1071 1054 1016 1082 1024 1064 1090 1083 1103 1085 1066 1103 1082 1110 1094 1072 1126 1106 1130 1021 1045 1027 1113 1018 1036 1057 1035 1030 1032 996 1084 1054 1007 1021 1059 990 996 1054 1114 1008 1022 1000 978 1007 1029 1027 1007 1028 1050 1005 1049 1054 1024 1018 1031 1034 1086 1040 1003 1048 993 1036 1090 1079 1056 1094 995 1101 1054 1140 1039 1140 1144 1110 1120 1053 1101 1074 1093 1100 1075 1139 1065 1059 1072 1098 1114 1062 1088 1128 1078 1085 1078 1076 1143 1128 1167 1105 1051 1051 1109 1111 1104 1124 1084 1092 1108 1099 1102 1119 1188 1175 1146 1177 1220 1155 1137 1176 1169 1181 1148 1215 1163 1194 1244 1300 1199 1192 1291 1260 1350 1289 1323 1345 1325 1489 1460 1535 1621 1679 1662 1732 1720 1773 1745 1768 1795 1874 1836 1812 1731 1728 1742 1708 1682 1624 1669 1529 1621 1604 1546 1521 1565 1591 1533 1631 1645 1624 1586 1663 1624 1738 1737 1911 1912 1967 2008 1972 2082 2144 2135 2079 2197 2117 2121 2264 2227 2351 2353 2349 2368 2440 2301 2351 2377 2359 2325 2417 2447 2318 2307 2215 2223 2123 2007 1932 1862 1776 1877 1643 1564 1540 1429 1437 1344 1266 1390 1259 1257 1297 1196 1123 1170 1184 1198 1099 1099 1145 1136 1127 1113 1041 1126 1076 1186 1108 1157 1149 1117 1080 1100 1075 1073 1143 1106 1056 1086 1027 1128 1107 1057 1059 1074 1134 1068 1049 997 1110 1071 1026 1078 1078 1032 1074 1044 1074 1032 1059 1030 1080 1086 1065 1034 1110 1081 1104 1105 1038 1103 1110 1110 1092 1067 1100 1069 1091 1152 1090 1086 1130 1060 1057 1058 1038 1048 1110 1113 1083 1117 1154 1117 1085 1014 1079 1044 1022 1008 1056 1050 1088 1017 963 1026 1048 1055 1018 1018 1094 1029 1035 1019 1031 982 1022 1002 1055 1007 1059 1021 984 1045 1048 986 1068 1028 1079 1033 1014 1037 979 1082 1059 1032 987 962 949 981 994 995 1079 1006 1023 1040 1000 1038 963 998 1051 1019 1013 1072 1049 1003 1032 995 958 944 1009 1000 1011 1024 1009 984 991 1059 1094 1040 1011 1020 997 951 1020 1067 1006 973 1048 1058 1023 1009 1014 998 982 961 936 989 1001 1011 948 1013 1002 959 955 986 972 922 993 960 982 997 974 949 952 1002 931 924 967 985 978 960 1019 960 973 997 991 955 1066 977 942 1012 979 947 992 965 946 931 931 1028 901 976 1018 977 956 1030 955 965 984 1005 969 1047 987 1001 1016 944 980 978 941 938 926 970 962 986 930 994 1012 978 1024 995 990 969 997 1026 947 966 964 966 1003 1007 1001 1026 925 981 910 945 987 1023 1015 1008 999 950 932 960 991 977 951 956 997 972 999 966 1005 947 938 941 939 916 966 930 996 922 946 917 887 990 964 922 970 927 988 928 891 913 964 935 944 929 983 977 986 956 1002 997 952 963 928 946 947 917 972 980 952 974 969 975 972 935 949 911 1010 950 915 911 970 976 942 938 915 985 905 959 919 911 929 966 970 884 979 879 906 958 963 959 897 997 986 871 1006 893 924 901 926 901 965 913 982 852 895 931 900 912 874 968 928 891 919 888 927 941 946 967 893 933 888 988 899 897 890 939 934 976 965 920 967 887 930 949 915 921 963 907 969 967 941 924 960 953 984 929 902 914 908 890 912 877 960 870 905 898 979 939 938 938 954 857 918 898 949 892 938 898 908 927 945 976 950 937 950 951 926 934 919 954 841 1001 897 931 940 943 944 980 897 924 903 928 1003 981 971 934 931 919 961 920 972 887 902 921 916 925 923 902 960 894 996 934 867 906 928 987 950 1006 943 939 886 902 931 919 947 935 974 1008 937 922 887 951 966 934 940 1021 931 969 962 988 977 969 998 996 982 1044 986 982 1067 1047 1063 1055 1110 1054 1086 1085 1083 1051 1070 1197 1119 1132 1114 1159 1109 1089 1145 1095 1093 1136 1090 1108 1145 1132 1093 1105 1127 1196 1126 1116 1102 1148 1080 1077 1210 1155 1186 1157 1187 1223 1190 1216 1223 1190 1255 1238 1278 1256 1280 1288 1292 1197 1232 1174 1184 1180 1152 1159 1169 1091 1154 1143 1102 1118 1015 1031 1022 989 1064 953 1014 971 996 953 976 952 935 962 922 899 986 994 957 949 907 967 998 919 964 968 937 895 952 925 949 921 875 892 895 937 938 934 870 946 938 900 896 907 859 887 886 963 947 892 929 932 896 905 909 923 889 877 936 937 924 875 936 845 917 885 940 929 931 928 874 904 967 941 987 919 949 850 949 933 926 897 915 937 962 924 942 984 923 921 980 882 885 890 898 886 903 943 990 1013 945 984 969 968 944 915 945 920 937 941 907 911 906 1000 945 1018 976 1002 939 930 978 998 979 981 907 905 918 925 1004 1012 942 920 932 958 940 940 965 948 953 907 942 1008 978 957 1000 1023 987 978 969 1009 1005 995 1029 946 975 905 1005 955 1003 1009 949 995 948 945 954 932 1026 890 1005 1024 944 919 922 940 943 904 937 970 950 919 893 968 921 938 959 868 888 973 987 939 937 946 957 941 970 913 960 928 922 937 938 914 943 954 906 972 992 928 941 929 963 989 1000 913 985 931 949 951 928 963 958 934 889 926 970 954 967 901 982 953 945 952 913 876 950 939 911 942 954 954 932 937 941 972 946 999 949 928 979 966 955 889 896 940 960 876 866 940 941 976 917 953 992 889 994 915 954 898 1012 995 926 949 995 967 984 936 985 937 996 936 953 935 995 968 979 1027 1022 962 941 960 946 943 951 958 978 922 959 968 943 970 930 992 922 964 925 975 938 977 1018 909 977 942 1049 924 968 1022 992 941 910 976 968 941 982 952 959 893 983 918 1010 866 984 976 926 906 1022 950 944 979 1001 969 982 934 1040 1006 969 946 1025 981 1053 1051 973 1104 1018 1004 1034 1019 1004 1045 1094 1050 1071 1095 1050 1042 1065 1050 981 1017 1079 1036 1057 1060 1043 1020 1047 1055 1057 1040 1074 1073 1051 1043 1021 998 1043 1077 1066 1051 1036 1075 1094 1081 1028 1041 1035 1041 1066 1055 1070 1020 998 1034 945 953 1021 991 944 903 968 953 964 910 952 962 947 935 936 967 967 943 878 947 887 930 894 988 911 972 873 910 902 935 976 954 929 935 938 883 949 910 896 961 945 856 916 906 941 895 895 1000 927 920 897 889 923 869 923 922 911 948 915 844 916 936 937 965 964 996 917 897 910 982 951 941 939 875 933 846 905 958 934 949 892 907 894 888 959 828 886 954 882 914 973 945 922 921 904 891 937 876 959 933 1010 939 955 915 844 942 944 938 942 947 914 853 859 891 946 980 918 928 938 895 931 934 882 935 904 896 895 887 926 880 870 915 898 908 953 891 854 946 931 918 905 945 904 903 895 881 917 890 891 867 927 928 928 937 915 924 850 881 828 911 907 837 800 885 912 929 887 893 889 909 909 948 820 923 899 914 935 913 881 895 927 872 977 883 904 883 873 849 912 910 893 861 865 906 923 951 915 904 920 883 885 922 861 918 943 895 945 981 904 940 932 917 928 890 874 985 990 887 899 870 906 949 925 926 913 922 940 914 899 907 910 922 920 918 891 945 914 945 860 875 948 973 945 915 929 941 922 959 1000 966 967 954 1009 940 967 1022 933 1005 1025 1018 999 1030 1048 1064 1042 1035 1029 983 1030 1109 1126 1058 1063 1060 1131 1083 1084 1067 1065 1094 1111 1115 1061 1075 1070 1137 1105 1094 1132 1149 1150 1101 1048 1075 1084 1177 1108 1145 1135 1130 1161 1129 1091 1077 1145 1182 1150 1225 1197 1086 1210 1180 1133 1156 1148 1129 1116 1121 1117 1093 1109 1148 1122 1148 1204 1105 1125 1241 1242 1177 1173 1302 1274 1289 1339 1354 1395 1318 1430 1456 1461 1527 1623 1739 1672 1717 1858 1845 1803 1855 1768 1839 1728 1757 1754 1759 1774 1766 1743 1787 1765 1700 1744 1688 1626 1584 1671 1693 1692 1629 1642 1601 1589 1576 1623 1595 1536 1607 1645 1619 1583 1555 1579 1517 1538 1514 1539 1472 1432 1467 1379 1387 1267 1350 1312 1328 1238 1187 1204 1212 1186 1157 1149 1099 1107 1108 1110 1054 1016 1033 1009 964 946 975 1001 981 975 901 964 965 916 965 961 910 976 885 929 929 973 923 953 945 958 887 911 948 920 899 901 886 935 910 891 940 884 936 895 964 938 901 946 924 906 935 892 919 926 907 937 943 970 904 916 912 882 927 914 913 927 893 895 910 915 884 871 885 890 912 910 876 966 952 889 886 909 870 905 873 934 907 926 925 841 907 962 874 909 888 837 882 916 919 948 966 920 944 899 922 920 880 867 949 853 938 872 923 983 901 928 867 928 916 921 931 861 885 895 915 937 855 870 920 855 915 916 890 906 965 932 919 924 941 940 962 953 994 929 949 967 965 987 931 936 951 950 990 951 1013 1000 1011 1041 990 1011 972 955 1021 1049 950 1059 990 997 1078 1101 998 1014 1019 975 1011 1059 1009 983 1050 1020 990 1082 1060 997 960 1031 997 977 1062 1000 1036 988 1024 970 1046 1025 1040 1107 975 1036 963 1012 1035 992 1027 1042 968 1036 1019 983 1051 1035 967 902 966 959 950 945 956 972 952 957 956 955 917 965 904 937 937 929 918 943 995 1007 950 909 913 978 915 895 902 890 946 873 1027 933 880 966 963 945 908 941 949 953 906 865 966 965 891 942 884 899 984 957 932 935 925 968 942 911 935 983 932 956 981 900 995 925 925 905 995 919 937 891 962 937 880 968 925 932 930 924 943 902 912 950 955 945 910 913 913 929 1000 934 891 934 877 907 981 922 919 937 970 936 926 991 938 935 963 958 958 941 928 1020 967 970 1004 923 943 934 978 935 924 933 1025 958 1016 986 969 1028 992 953 928 969 949 1002 916 949 966 948 987 991 956 909 902 972 995 987 964 971 956 884 956 993 914 920 873 877 910 903 923 887 896 893 914 893 921 942 859 844 860 910 884 842 884 884 808 888 895 865 919 881 914 882 877 889 882 909 864 878 913 902 860 846 887 865 878 828 846 891 855 890 866 883 894 901 907 895 844 883 903 865 880 933 892 883 932 922 857 866 898 841 892 890 859 866 899 904 918 918 893 871 817 880 841 909 898 871 857 904 847 861 851 840 885 897 885 906 862 871 836 845 886 875 881 930 869 904 839 868 902 877 936 905 861 850 851 851 891 802 887 870 892 905 858 882 927 873 856 915 809 863 878 870 879 912 840 860 872 830 877 876 889 942 849 880 861 851 827 844 883 888 889 868 860 916 885 837 911 839 844 898 878 883 942 833 835 868 858 879 885 885 853 843 871 828 870 899 857 860 856 825 945 954 891 886 847 937 868 909 841 916 819 862 884 923 867 858 902 879 859 857 853 892 901 883 883 854 850 823 920 887 912 849 838 889 891 881 914 877 803 860 862 853 883 841 838 848 862 846 899 867 852 877 937 855 842 874 886 886 898 801 869 888 815 854 873 816 901 861 851 891 920 863 889 883 861 823 881 849 863 861 847 897 918 856 822 923 931 889 912 875 918 909 883 985 856 871 915 895 869 904 891 863 854 879 901 834 867 866 907 872 875 863 902 923 896 865 886 852 898 847 871 825 871 874 878 885 895 921 904 847 888 894 855 845 881 830 858 886 872 901 844 909 884 875 857 905 870 877 909 831 878 883 929 835 920 870 877 828 898 858 788 872 901 915 881 819 885 876 882 854 894 823 861 913 889 860 851 938 905 905 907 846 909 808 878 888 863 920 969 901 889 894 921 877 874 836 896 851 872 905 870 908 924 881 903 913 879 887 893 943 893 905 938 861 912 952 923 978 922 927 937 910 920 900 915 929 925 921 931 880 952 909 913 870 925 904 871 869 915 896 951 902 936 940 976 898 849 923 884 894 920 933 961 949 903 891 876 915 912 926 898 957 912 959 910 963 1033 985 969 989 1013 939 990 949 946 988 996 984 977 1003 937 1053 1015 1054 991 1012 1048 1038 1061 1001 1048 1030 1027 1094 1047 1051 1057 996 1055 1020 965 1042 1017 1000 992 986 1004 988 998 1014 998 979 1035 986 982 934 930 951 955 985 946 999 936 928 950 938 942 947 962 882 933 873 948 968 991 909 899 917 929 919 979 944 889 904 937 928 909 976 944 960 956 886 881 914 909 907 947 878 893 920 859 893 981 883 993 935 936 957 925 932 899 887 931 935 857 900 914 910 919 968 938 908 963 898 942 965 922 914 894 920 898 995 902 930 912 942 945 909 918 934 854 926 877 896 892 928 935 813 880 898 936 944 935 924 913 899 871 893 909 879 935 892 888 858 890 882 912 921 901 858 924 901 871 858 922 896 909 856 905 906 854 920 832 890 882 909 867 850 906 889 849 866 896 868 846 885 896 894 902 906 911 892 885 935 913 854 866 939 877 899 894 879 859 894 907 950 884 944 924 939 864 923 877 923 874 879 904 893 882 922 930 923 919 929 904 887 931 926 944 960 851 954 921 966 1020 925 985 966 1014 1015 984 1005 964 981 1008 964 964 959 991 998 1067 1109 1056 1058 970 1074 1092 1063 1033 1031 1011 1051 1073 1069 1014 1061 1055 1031 1035 1155 1095 1086 1068 1127 1083 1068 1106 1070 1108 1039 1103 1075 1103 1114 1102 1097 1164 1072 1116 1140 1122 1065 1097 1089 1056 1110 1008 1056 1012 975 985 1028 1010 923 1010 979 954 989 998 1014 1012 1034 959 944 955 946 896 913 930 925 907 901 876 918 874 904 911 900 900 878 847 928 894 904 851 934 885 877 874 887 900 896 879 879 928 930 795 907 892 840 871 911 908 886 917 880 882 841 885 858 912 898 877 894 843 892 832 868 867 889 884 886 852 896 909 854 880 895 893 909 831 858 908 872 844 912 883 946 876 885 937 878 904 812 816 855 914 890 879 827 820 891 844 877 910 848 880 862 842 873 952 940 891 939 894 839 878 948 949 955 894 879 944 902 902 896 879 904 876 937 937 890 900 858 931 873 934 920 946 910 923 933 925 936 906 979 844 852 905 931 856 905 938 886 914 937 961 959 966 949 941 996 902 920 918 896 1003 893 923 907 930 876 919 933 996 926 925 918 937 955 966 933 970 956 869 924 977 942 914 974 928 928 880 867 891 951 853 919 917 896 880 963 864 951 951 929 888 856 901 867 927 907 854 962 919 835 887 800 850 919 896 849 923 870 864 869 923 895 870 864 814 901 885 859 905 905 884 862 874 908 880 891 926 848 913 915 890 877 842 871 857 845 893 867 843 833 906 882 859 864 906 855 837 851 900 852 880 865 898 896 854 903 919 877 966 809 872 880 910 908 893 904 911 879 921 874 867 886 928 951 900 863 944 870 900 861 863 904 972 907 931 903 951 937 925 934 930 918 953 868 877 871 950 871 921 906 920 937 926 948 961 906 944 919 896 977 944 933 952 964 1007 960 939 935 921 890 953 921 926 864 906 919 901 919 874 882 893 888 909 889 959 916 887 875 893 879 848 903 877 844 870 893 881 852 919 813 838 838 860 870 909 911 909 842 898 886 883 911 878 857 847 880 899 892 852 926 889 894 829 886 846 857 867 852 867 911 879 839 886 917 918 860 894 888 886 907 903 899 879 882 908 906 888 864 872 901 868 844 857 849 840 859 837 860 869 909 776 851 953 860 886 874 931 905 882 850 875 882 932 865 868 904 858 901 809 845 887 863 836 875 900 893 895 870 861 884 836 940 922 870 925 900 829 904 926 898 901 818 876 888 841 927 939 877 885 852 905 903 871 855 831 937 921 902 893 915 908 835 960 866 901 888 878 932 850 866 945 902 873 941 935 920 880 914 901 867 843 928 863 947 882 940 842 870 887 903 905 861 860 885 887 903 946 874 877 894 906 886 896 864 932 923 907 930 916 889 872 854 936 929 913 968 914 892 884 909 916 927 885 930 898 886 883 905 901 893 852 871 930 905 889 922 939 917 875 945 926 907 885 855 927 902 837 899 869 848 919 853 815 924 835 893 864 871 905 917 839 917 882 891 860 883 901 814 900 879 921 835 893 856 899 867 901 903 891 896 922 843 889 882 857 914 863 836 871 869 909 881 868 859 805 877 832 945 857 858 909 934 862 811 866 894 897 863 941 919 868 849 833 899 912 887 856 927 828 963 838 895 891 901 845 928 899 930 886 971 960 901 883 889 865 922 932 923 903 900 933 969 911 954 921 890 923 901 892 908 886 898 906 929 879 922 913 932 946 886 963 985 930 887 918 917 942 874 913 906 927 827 873 938 829 941 882 906 921 908 908 826 953 835 907 841 887 923 892 867 853 897 888 930 905 818 915 857 886 894 901 892 880 925 942 859 959 895 882 872 840 907 905 900 878 855 914 884 873 856 866 874 854 897 876 915 902 857 846 946 918 854 868 834 853 905 891 908 900 878 865 826 863 855 872 844 843 874 945 867 882 864 969 873 954 859 912 885 901 908 892 901 904 932 868 851 932 849 921 863 891 932 886 884 880 919 912 910 927 894 833 902 864 826 867 884 889 880 952 866 955 903 891 857 876 881 907 843 838 915 840 876 927 966 917 909 886 918 908 939 895 860 927 849 899 880 913 895 856 923 859 838 905 976 866 929 885 837 886 814 890 917 862 896 894 888 917 914 915 817 914 833 895 824 917 911 891 900 880 907 870 846 887 946 880 890 824 868 870 889 872 856 900 811 927 824 863 876 824 904 873 894 927 863 894 856 876 934 887 849 929 968 918 831 914 933 1014 986 987 866 862 859 866 902 908 882 850 929 881 893 895 868 880 851 863 837 949 960 875 895 895 916 971 870 942 1007 852 918 914 970 920 911 900 901 984 929 963 869 962 920 892 919 957 915 999 946 938 961 921 943 916 922 951 1024 946 954 957 940 1033 1040 979 1001 944 986 946 977 980 1008 1009 960 988 983 1002 1000 994 903 982 974 990 929 979 981 977 997 1007 968 939 1020 970 903 942 947 898 943 940 967 984 911 909 972 898 896 926 938 877 946 925 982 940 918 923 925 913 908 968 957 903 896 937 873 896 914 887 875 909 890 874 901 896 923 925 974 924 920 967 889 923 894 889 916 911 884 858 908 859 957 935 907 923 861 895 871 925 930 918 857 870 877 927 919 872 940 928 915 892 897 876 977 935 905 899 879 893 873 895 853 913 875 927 921 854 875 853 864 880 945 903 880 926 872 911 875 905 854 889 855 903 897 880 854 883 881 853 927 933 881 858 928 929 844 857 878 913 903 955 907 893 889 939 829 869 910 836 909 936 893 906 862 897 908 943 908 869 875 920 893 893 861 889 952 954 936 894 922 881 921 930 904 884 915 903 954 899 919 915 917 918 888 905 995 875 901 900 861 889 930 928 877 903 898 947 944 884 879 877 905 882 930 905 823 905 928 935 922 912 971 970 891 893 897 868 831 867 892 904 883 936 912 861 908 874 921 893 909 859 929 885 924 936 900 960 924 899 885 945 948 902 941 937 958 966 912 941 925 919 887 935 971 917 934 919 909 935 924 961 882 934 881 861 873 951 838 878 954 929 951 913 914 830 913 933 919 880 915 901 878 999 897 896 890 926 957 900 912 965 901 908 898 864 900 838 877 890 873 884 855 962 897 901 887 937 943 900 863 887 933 893 961 952 866 874 879 901 894 936 924 897 936 945 853 950 938 963 939 934 862 876 920 915 896 978 927 942 923 887 861 919 895 937 926 929 862 932 925 915 901 943 899 889 914 904 901 836 894 912 961 913 908 945 930 919 938 926 903 935 925 901 908 864 868 911 910 907 958 936 910 990 886 904 899 863 894 903 878 906 846 997 914 893 916 914 893 965 898 930 865 899 888 955 870 952 934 920 899 873 919 895 864 954 915 940 851 947 1003 934 949 922 917 975 941 861 919 937 940 960 908 939 931 926 886 969 926 906 919 937 954 941 948 974 929 948 894 889 936 966 925 936 927 952 922 931 942 917 882 941 945 882 919 936 946 906 887 939 882 942 940 891 965 955 913 910 915 851 893 861 886 851 862 891 871 897 888 909 967 864 871 911 911 904 947 902 921 884 931 920 950 870 921 902 940 910 872 890 879 944 925 960 885 893 916 921 863 964 921 855 864 897 948 914 888 926 872 835 925 983 903 907 915 895 886 936 972 904 936 864 887 927 956 926 923 886 906 898 911 918 928 938 873 936 954 906 880 874 901 892 926 904 931 939 979 870 969 885 986 961 933 987 960 900 911 905 950 939 931 936 975 989 917 922 924 955 920 938 954 958 963 904 950 932 981 951 952 1004 949 936 933 902 924 878 1001 992 913 928 920 967 921 944 953 998 913 931 915 888 994 937 969 961 939 1043 905 976 920 921 969 971 956 974 970 972 978 1031 984 984 943 946 983 999 1004 982 1028 1015 992 990 1036 981 1059 961 1017 1040 1018 1017 1005 1019 1038 956 1030 1056 998 1056 1021 1027 977 1042 993 1040 997 998 1025 1057 1016 1006 1050 1018 991 1036 931 1078 1036 976 1094 1021 959 1033 941 1012 982 968 1042 951 1001 999 927 941 977 1004 1023 912 1052 919 888 985 1001 964 927 960 1000 1046 914 954 1010 938 966 976 930 936 951 1020 1021 922 979 967 950 1019 956 961 996 923 967 959 933 931 956 991 880 930 961 914 990 936 918 954 928 919 985 892 929 949 939 908 935 880 966 992 950 936 940 963 1008 919 999 915 972 927 930 983 884 919 937 995 992 930 927 956 967 952 972 1001 919 947 1015 934 934 969 956 876 943 949 939 960 952 876 997 967 962 985 919 1005 932 964 950 1020 932 972 951 952 959 949 986 983 949 954 938 926 929 962 948 932 933 932 974 970 1048 1017 955 1011 985 1038 987 974 1025 936 1010 931 977 941 956 966 998 1014 1028 944 947 971 1026 970 987 1036 1046 1006 1010 1021 1003 1003 989 907 1029 1014 996 961 979 961 957 972 924 968 967 946 991 1011 914 997 1012 1006 934 952 962 947 1013 946 1009 945 1007 973 1008 914 986 992 1061 1029 950 1008 970 1003 1059 964 1052 1020 1104 1002 1023 1071 1026 1030 1093 1040 1076 1020 999 1069 1050 1048 1036 1079 1083 1109 1100 1145 1105 1174 1140 1115 1127 1099 1119 1093 1198 1111 1147 1188 1131 1105 1104 1214 1168 1100 1102 1150 1094 1202 1123 1210 1103 1139 1062 1060 1149 1059 1085 1072 1126 1045 1153 1104 1091 1103 1129 1079 1165 1088 1036 1101 1098 1090 1026 1024 1059 999 999 1004 1052 1039 1067 971 1069 986 979 1032 992 977 982 939 1005 992 973 923 967 960 982 988 923 993 946 1028 963 984 946 907 1033 978 978 915 1044 940 969 969 975 945 946 946 943 1016 996 975 960 931 978 966 939 968 966 962 959 968 932 951 948 939 970 973 950 952 942 922 919 949 966 918 986 956 990 863 941 942 952 966 889 930 884 964 989 905 952 898 892 924 954 943 971 950 974 950 939 946 935 859 932 924 939 972 1004 969 947 917 949 948 963 958 897 909 951 944 954 932 996 972 964 984 971 961 895 1015 910 945 962 949 1025 918 932 942 967 920 968 962 920 966 946 1005 957 906 968 941 927 911 966 987 977 970 943 996 1012 1000 942 944 992 954 945 945 939 964 918 933 927 1012 965 953 946 981 947 988 947 948 1009 981 1022 983 980 967 945 915 1026 990 970 928 999 1054 974 959 1000 983 1036 990 961 956 974 1038 1034 998 1038 980 1004 1027 1071 1018 978 1076 980 1043 978 1054 1022 1035 935 994 1033 986 964 991 973 1026 1081 1039 1060 1053 1015 978 1044 991 1027 993 976 951 967 944 964 1018 941 1000 1001 969 981 963 970 918 955 975 966 1037 933 973 969 982 954 993 1011 984 944 974 948 935 921 906 925 1003 931 974 930 966 987 919 984 956 933 904 948 936 957 928 1009 962 958 961 908 933 935 946 942 937 953 972 935 975 967 934 964 943 958 928 903 955 941 884 870 920 885 925 891 955 989 1001 966 973 970 949 916 941 888 955 893 992 908 983 960 956 957 984 929 945 932 995 929 947 929 974 968 934 958 970 954 962 963 871 940 943 886 962 926 942 973 950 940 963 905 934 916 956 956 979 926 927 935 969 965 944 938 928 969 975 966 884 942 935 940 951 889 906 938 945 941 939 960 930 873 903 955 947 919 911 982 924 967 947 962 939 944 908 935 977 951 928 912 940 952 972 943 919 945 906 941 942 928 936 947 948 933 912 961 982 943 952 951 892 960 927 970 938 872 890 900 938 915 901 982 924 913 980 931 964 925 922 910 889 986 915 1013 915 949 918 954 928 951 916 948 947 971 931 956 935 937 1013 948 932 899 1001 1000 968 975 909 931 927 892 917 920 957 935 908 928 945 955 979 917 960 949 956 907 912 996 933 989 900 966 934 967 950 945 936 911 928 943 949 946 875 890 900 941 984 1006 901 978 938 960 945 914 900 962 916 979 913 907 926 981 970 945 938 907 967 985 936 927 916 935 905 969 974 931 936 966 905 970 980 997 945 975 961 981 948 988 1009 927 1032 933 906 1009 931 928 967 972 963 1022 924 934 944 889 968 1019 992 963 976 966 923 960 954 1009 892 960 932 1000 944 967 990 922 975 972 931 974 1004 981 1030 951 978 979 962 962 952 968 998 956 1008 941 991 934 999 1021 985 940 949 952 916 995 960 1023 959 992 1005 961 957 959 982 939 955 956 956 928 953 957 947 912 930 972 956 982 970 1027 934 968 994 962 968 950 943 929 1050 864 965 944 942 947 979 961 920 942 969 981 969 964 919 887 944 918 980 983 976 924 924 937 889 956 983 955 945 922 922 958 980 1020 926 948 965 955 942 992 901 985 891 966 992 918 852 959 967 957 938 942 930 951 886 1046 966 1017 947 960 944 967 970 974 900 936 991 920 957 1014 967 1056 992 1024 994 951 893 972 941 970 957 1002 938 948 924 905 913 1001 1002 930 964 961 1026 912 978 921 955 1001 966 927 978 935 970 935 1009 940 929 932 949 954 918 960 972 984 904 943 958 968 974 1021 950 919 958 926 922 930 948 986 959 918 918 994 982 931 901 1005 916 976 962 965 997 1008 992 955 984 953 949 988 1000 959 979 902 953 971 980 919 919 901 956 946 982 971 1000 971 947 971 977 951 936 986 952 901 924 917 995 950 968 965 998 947 903 949 963 940 946 930 938 979 935 950 983 935 964 959 1009 956 938 965 962 994 899 1010 994 1021 960 951 994 1059 970 1003 1007 1030 970 1047 1065 1092 995 1038 1028 1013 977 1041 1035 997 1012 1097 1010 1056 1065 1117 1127 1125 1094 1040 1072 1128 1081 1091 1113 1144 1116 1094 1134 1128 1100 1123 1142 1140 1041 1101 1158 1134 1145 1162 1106 1063 1064 1066 1162 1104 1096 1124 1161 1119 1094 1087 1071 1103 1102 1069 1146 1099 1121 1094 1126 1062 1050 1045 1068 1045 1016 1039 1022 1059 1064 1005 1060 993 1022 983 1074 1036 1056 1006 1008 1005 985 1016 951 1014 940 1011 1006 985 964 950 986 974 1001 1030 986 1016 949 972 964 1031 955 950 940 930 967 903 992 948 996 967 951 941 959 935 954 1016 942 941 985 929 1001 943 953 994 966 952 987 926 971 981 1007 919 949 952 912 917 994 951 966 951 920 942 970 959 940 964 959 959 954 945 909 992 970 956 999 1030 924 951 976 979 965 987 963 943 953 969 1025 886 956 1003 932 993 980 980 959 959 997 953 950 961 966 1013 994 948 983 979 971 992 924 945 967 954 1002 946 978 972 1001 988 1003 1010 1020 1020 993 1015 953 936 974 1047 1010 1013 990 982 1025 995 931 964 930 997 912 959 1016 1005 974 986 998 1004 975 982 1039 1009 992 1023 1008 971 983 961 902 922 953 955 965 1014 958 959 966 966 973 984 968 999 967 918 935 936 921 920 994 946 995 924 901 925 965 924 959 907 1019 991 992 921 973 979 976 926 974 900 958 969 909 962 976 997 927 962 994 933 954 871 925 947 925 950 949 908 897 912 933 946 1011 955 955 939 995 962 952 946 948 947 978 961 961 942 928 953 965 971 896 931 938 982 948 964 984 989 962 949 938 980 949 992 912 929 949 991 891 982 925 922 998 986 983 926 954 940 964 939 978 948 985 940 924 965 947 989 936 980 951 902 935 967 980 943 952 986 964 935 1010 1005 916 1003 943 940 981 922 961 946 873 946 964 995 984 947 982 1004 954 938 1003 990 961 972 940 975 971 1006 910 988 933 978 952 921 985 978 1031 935 1004 973 979 935 972 902 953 978 951 980 982 1043 969 977 1012 1020 936 980 978 976 974 994 1022 966 907 957 997 1016 958 987 993 985 938 993 1006 1048 969 987 1011 989 970 1008 1031 983 967 960 959 970 929 1028 1003 932 984 978 1013 971 1011 929 967 952 981 991 932 942 964 983 997 994 970 969 1013 946 976 959 993 946 1001 935 944 942 960 1017 946 934 1026 958 988 934 967 931 1024 948 1035 916 938 930 995 1022 970 978 986 944 994 983 981 1004 969 959 972 931 989 971 1013 955 996 931 958 964 925 1012 995 995 980 915 956 954 966 976 934 972 931 916 972 932 1020 976 990 940 976 950 984 931 977 974 992 1007 989 970 918 946 1020 981 984 996 964 947 981 927 1018 976 920 963 896 969 935 965 983 964 1014 909 951 1004 923 920 969 940 912 976 976 889 995 975 908 943 978 959 1029 963 975 963 957 980 895 950 953 1038 909 997 916 959 951 926 986 976 979 949 946 996 972 973 999 975 1011 1006 935 1011 964 979 956 970 1016 996 923 1001 989 958 1005 1044 1004 1001 972 966 973 984 1027 998 984 958 1039 1010 1022 982 926 974 987 994</counts>
			</dataPoints>
		</scan>
	</xrdMeasurement>
</xrdMeasurements>
