<?xml version="1.0"?>
<xrdMeasurements xmlns="http://www.xrdml.com/XRDMeasurement/2.3" xmlns:xsi="http://www.w3.org/2001/XMLSchema-instance" xsi:schemaLocation="http://www.xrdml.com/XRDMeasurement/2.3 http://www.xrdml.com/XRDMeasurement/2.3/XRDMeasurement.xsd" status="Completed" recordIdentifier="{E01D4B42-D2E8-44ED-81CE-42DA1C8573B6}">
	<comment>
		<entry/>
	</comment>
	<sample type="To be analyzed">
		<id>GPSS_Li1p9Mn0p9V0p1Cl4_111425_69175e1347a6a0fd7c659350</id>
		<name></name>
		<preparedBy></preparedBy>
	</sample>
	<xrdMeasurement measurementType="Scan" status="Completed" sampleMode="Reflection">
		<usedWavelength intended="K-Alpha 1">
			<kAlpha1 unit="Angstrom">1.5405980</kAlpha1>
			<kAlpha2 unit="Angstrom">1.5444260</kAlpha2>
			<kBeta unit="Angstrom">1.3922500</kBeta>
			<ratioKAlpha2KAlpha1>0.5000</ratioKAlpha2KAlpha1>
		</usedWavelength>
		<incidentBeamPath>
			<radius unit="mm">145.00</radius>
			<xRayTube id="1010048" name="Empyrean Cu LFF HR (9430 033 7310x)">
				<tension unit="kV">40.0</tension>
				<current unit="mA">15.0</current>
				<anodeMaterial>Cu</anodeMaterial>
				<focus type="Line">
					<length unit="mm">12.0</length>
					<width unit="mm">0.4</width>
					<takeOffAngle unit="deg">6.0</takeOffAngle>
				</focus>
			</xRayTube>
			<sollerSlit id="21010002" name="Soller slits 0.04 rad.">
				<opening unit="rad">0.0400</opening>
			</sollerSlit>
			<mask id="22031000" name="Fixed mask 13 mm">
				<width unit="mm">9.00</width>
			</mask>
			<divergenceSlit id="22120001" name="Divergence slit 1°" xsi:type="fixedDivergenceSlitType">
				<distanceToSample unit="mm">50.00</distanceToSample>
				<height unit="mm">1.52</height>
			</divergenceSlit>
		</incidentBeamPath>
		<sampleMovement xsi:type="spinningSampleMovementType">
			<spinnerRevolutionTime unit="seconds">1.0</spinnerRevolutionTime>
		</sampleMovement>
		<diffractedBeamPath>
			<radius unit="mm">145.00</radius>
			<antiScatterSlit id="22090040" name="AS slit 9 mm (PIXcel)" xsi:type="fixedAntiScatterSlitType">
				<height unit="mm">9.00</height>
			</antiScatterSlit>
			<sollerSlit id="21020003" name="Large Soller slits 0.04 rad.">
				<opening unit="rad">0.0400</opening>
			</sollerSlit>
			<filter id="20030001" name="Large beta-filter Nickel">
				<material>Ni</material>
				<thickness unit="mm">0.020</thickness>
			</filter>
			<detector id="7010019" name="PIXcel1D-Medipix3 detector" xsi:type="rtmsDetectorType">
				<phd unit="keV">
					<lowerLevel>4.02</lowerLevel>
					<upperLevel>11.27</upperLevel>
				</phd>
				<mode>Scanning</mode>
				<activeLength unit="deg">5.542</activeLength>
			</detector>
		</diffractedBeamPath>
		<scan appendNumber="0" mode="Continuous" scanAxis="Gonio" status="Completed">
			<header>
				<startTimeStamp>2025-11-17T13:05:45-08:00</startTimeStamp>
				<endTimeStamp>2025-11-17T13:13:52-08:00</endTimeStamp>
				<author>
					<name>AutomatedUser</name>
				</author>
				<source>
					<applicationSoftware version="1.7b (136)">PANalytical Aeris Instrument Suite</applicationSoftware>
					<instrumentControlSoftware version="3.2.00000000 20240306">AERIS</instrumentControlSoftware>
					<instrumentID>950485</instrumentID>
				</source>
			</header>
			<dataPoints>
				<positions axis="2Theta" unit="deg">
					<startPosition>10.00943322</startPosition>
					<endPosition>99.99442286</endPosition>
				</positions>
				<positions axis="Omega" unit="deg">
					<startPosition>5.00471661</startPosition>
					<endPosition>49.99721143</endPosition>
				</positions>
				<commonCountingTime unit="seconds">12.495</commonCountingTime>
				<counts unit="counts">2750 2828 2789 2853 2697 2837 2754 2871 2871 2851 2895 2881 2782 2816 2769 2865 2813 2742 2855 2872 2923 2904 2873 2954 2823 2840 2829 2805 2854 2885 2896 2856 2844 2858 2869 2963 2795 2830 2830 2827 2793 2896 2882 2880 2862 2758 2928 2841 2903 2896 2948 2839 2939 2942 2903 2914 2867 2989 2962 3064 2928 2955 2995 2958 3039 2978 3083 3021 3098 3020 3026 3061 3208 3116 3190 3170 3130 3185 3153 3274 3125 3214 3256 3262 3133 3253 3161 3169 3162 3163 3219 3083 3102 3106 3030 3086 3091 3028 3022 2998 3035 2960 2993 3034 2997 3032 3023 2907 2913 3026 2921 2918 2958 2970 2974 2897 2971 2975 3015 2926 3022 2853 2994 2911 2900 2994 2833 2937 2977 2896 2947 2960 2919 2992 2858 2856 2960 2869 2862 2873 2933 2963 2923 2987 2916 2876 2966 2872 2908 2936 2874 2858 2876 2828 3004 2859 2895 2815 2905 3059 2859 2879 2897 2823 2964 2878 2918 3033 2946 3024 2926 2836 2956 2940 2825 2892 2909 2922 2911 2929 2802 2891 2861 2935 2795 2961 2820 2967 2933 2859 2902 2913 2850 2795 2875 2944 2929 3061 2857 2860 2816 2915 2874 2971 2936 2978 2935 2905 2918 2879 2730 2848 2914 2890 2856 2795 2940 2890 2905 2804 2898 2881 2860 2889 2848 2887 2894 2901 2926 2863 2890 2880 2949 2836 2910 2826 2898 2898 2846 2870 2788 2742 2953 2872 2910 2904 2820 2853 2811 2897 2862 2818 2833 2839 2810 2900 2904 2812 2965 2831 2917 2809 2920 2789 2845 2920 2934 2930 2817 2907 2842 2834 2923 3024 2875 2923 2905 2996 2981 2921 2967 2988 2834 2964 2973 2903 3013 2933 3003 2869 3013 2901 3062 2986 2921 2883 3077 3017 2956 3123 2947 2953 2864 2987 3138 3009 3080 3018 3048 3013 3084 2954 2981 3058 3137 3001 3118 3020 3100 3006 2999 3002 3075 3133 3097 3089 3125 3155 3081 3174 3186 3100 3081 3167 3104 3175 3159 3092 3197 3217 3173 3140 3108 3277 3183 3135 3282 3234 3236 3271 3239 3278 3236 3256 3271 3257 3276 3314 3261 3295 3295 3309 3344 3250 3316 3344 3277 3352 3349 3354 3322 3452 3359 3361 3351 3342 3334 3319 3447 3419 3431 3590 3434 3535 3578 3438 3518 3632 3438 3681 3491 3599 3687 3679 3597 3786 3621 3832 3832 3835 4042 3930 4070 4165 4179 4345 4371 4710 4793 4863 4947 5041 5157 5147 5028 4864 4926 4604 4593 4466 4330 4164 4072 3995 3930 3923 3747 3856 3878 3625 3719 3655 3656 3862 3714 3739 3636 3652 3586 3591 3597 3725 3543 3631 3555 3591 3629 3678 3615 3655 3582 3655 3571 3609 3651 3599 3620 3724 3611 3647 3562 3605 3572 3472 3760 3514 3653 3501 3533 3582 3440 3609 3575 3398 3387 3448 3397 3492 3500 3430 3366 3399 3461 3351 3384 3347 3378 3269 3339 3273 3392 3306 3399 3347 3281 3216 3269 3317 3250 3228 3290 3141 3253 3261 3194 3266 3278 3323 3381 3267 3203 3198 3214 3176 3225 3150 3142 3248 3140 3135 3150 3180 3191 3210 3177 3179 3263 3186 3176 3247 3039 3154 3157 3147 3156 3197 3196 3185 3094 3133 3059 3021 3131 3172 3069 2994 3074 3096 3035 3065 2998 3055 3092 3002 3014 2947 3050 2932 3001 2964 3047 3077 3060 2995 3012 2953 3029 3047 3033 3068 2998 2896 2980 3108 3021 3028 2947 2966 3012 2972 2902 2944 2956 2997 3044 2974 3115 2891 2897 2983 2989 3074 2955 2941 2906 2861 2961 2987 2852 2975 2903 2908 2937 2792 2893 2900 2979 2939 2846 2955 2890 3050 2953 2973 2818 2804 2827 2909 2860 2824 2873 2878 2900 3020 2818 2887 2886 2812 2909 2795 2901 2855 2863 2865 3019 2797 2836 2882 2937 2826 2856 2857 2906 2861 2949 2867 3006 2819 2899 2903 2878 2909 2862 2739 2802 2884 2853 2787 2811 2950 2817 2838 2858 2756 2855 2844 2827 2866 2747 2788 2917 2837 2858 2819 2886 2881 2871 2896 2792 2749 2803 2769 2822 2829 2720 2805 2759 2870 2855 2757 2849 2839 2805 2797 2901 2711 2766 2756 2884 2673 2845 2901 2830 2816 2764 2913 2733 2756 2817 2760 2731 2775 2747 2808 2755 2681 2662 2757 2834 2712 2721 2758 2763 2870 2733 2846 2760 2848 2825 2777 2758 2759 2779 2773 2771 2780 2783 2816 2717 2698 2777 2743 2708 2840 2820 2909 2731 2806 2722 2741 2724 2824 2803 2600 2793 2752 2779 2777 2738 2694 2744 2756 2718 2734 2702 2799 2875 2717 2783 2701 2720 2711 2696 2800 2734 2788 2686 2728 2735 2776 2698 2779 2652 2822 2719 2712 2682 2757 2713 2647 2715 2731 2690 2575 2809 2758 2742 2699 2745 2613 2692 2790 2714 2599 2668 2682 2692 2640 2671 2604 2678 2621 2755 2733 2673 2664 2692 2720 2699 2656 2657 2691 2622 2654 2663 2696 2720 2690 2737 2645 2714 2609 2693 2622 2551 2609 2690 2652 2610 2671 2693 2577 2693 2699 2641 2604 2595 2608 2586 2608 2681 2642 2659 2720 2553 2616 2600 2620 2631 2695 2635 2626 2579 2661 2669 2537 2691 2688 2583 2585 2660 2649 2579 2552 2614 2533 2554 2570 2616 2608 2539 2545 2545 2376 2491 2572 2553 2553 2493 2577 2696 2467 2502 2544 2496 2562 2570 2492 2560 2606 2580 2513 2594 2571 2585 2582 2618 2470 2537 2495 2387 2625 2615 2549 2544 2538 2490 2553 2600 2531 2580 2548 2526 2555 2482 2572 2514 2509 2477 2491 2536 2490 2561 2463 2556 2548 2485 2502 2516 2527 2511 2532 2523 2533 2458 2618 2514 2505 2490 2534 2398 2493 2592 2532 2517 2460 2470 2487 2461 2523 2391 2510 2530 2412 2506 2552 2429 2655 2492 2457 2522 2577 2442 2485 2492 2507 2479 2531 2473 2506 2643 2518 2515 2482 2504 2513 2485 2465 2488 2536 2459 2405 2442 2424 2467 2439 2492 2370 2526 2410 2445 2475 2495 2485 2511 2478 2429 2480 2443 2561 2419 2434 2520 2577 2543 2484 2601 2503 2414 2513 2459 2473 2501 2530 2440 2458 2465 2465 2529 2525 2526 2455 2532 2558 2536 2585 2522 2505 2508 2500 2481 2502 2521 2485 2490 2476 2518 2521 2481 2502 2542 2464 2418 2452 2490 2489 2542 2468 2463 2556 2392 2446 2457 2413 2516 2472 2443 2517 2552 2449 2504 2485 2464 2419 2442 2492 2416 2491 2456 2407 2531 2442 2515 2513 2605 2548 2496 2467 2464 2459 2455 2356 2508 2391 2552 2448 2427 2435 2421 2476 2549 2462 2434 2575 2423 2449 2435 2387 2338 2375 2426 2496 2410 2396 2432 2469 2449 2426 2383 2461 2337 2377 2487 2312 2354 2394 2369 2280 2362 2395 2360 2393 2339 2328 2345 2357 2467 2299 2330 2387 2338 2438 2311 2352 2306 2232 2309 2320 2284 2360 2298 2292 2288 2288 2259 2180 2239 2213 2198 2282 2186 2347 2315 2195 2287 2179 2303 2290 2172 2177 2189 2198 2250 2192 2254 2211 2231 2251 2159 2112 2186 2212 2200 2198 2216 2194 2179 2249 2218 2064 2155 2195 2051 2189 2171 2092 2169 1995 2011 2159 2084 2168 2076 2124 2136 2095 2028 2178 2046 2045 2123 2064 2080 2093 2111 2020 1998 1973 1898 2063 2006 2073 2007 2020 2063 2033 1931 2014 2023 2072 1973 2011 1926 2004 1972 1970 2025 1965 2026 1960 1996 2046 1957 1861 1880 1944 2045 1924 1997 2004 2014 1907 1964 1882 1959 1959 1993 1959 1942 1841 1925 1887 1975 1964 1972 1886 1920 1966 1911 1944 1870 1922 1929 1876 1862 1906 1928 1922 1865 1875 1799 1823 1905 1888 1907 1866 1820 1895 1846 1882 1825 1867 1855 1830 1849 1774 1888 1803 1791 1779 1899 1826 1843 1855 1797 1847 1782 1800 1849 1807 1855 1863 1875 1835 1806 1765 1846 1852 1885 1771 1779 1800 1745 1812 1785 1766 1838 1820 1759 1800 1778 1818 1840 1767 1804 1909 1739 1797 1811 1736 1812 1779 1796 1785 1735 1755 1801 1811 1769 1871 1814 1849 1704 1802 1750 1802 1868 1817 1824 1764 1756 1732 1769 1774 1798 1764 1830 1794 1804 1816 1780 1766 1797 1768 1852 1691 1755 1781 1859 1753 1783 1831 1895 1769 1820 1772 1837 1685 1816 1822 1702 1817 1806 1842 1755 1785 1708 1796 1769 1786 1860 1924 1796 1870 1789 1804 1765 1756 1800 1758 1787 1776 1820 1850 1742 1738 1828 1833 1824 1858 1831 1772 1738 1801 1765 1808 1771 1827 1773 1816 1800 1786 1804 1794 1743 1795 1832 1795 1913 1760 1857 1852 1800 1769 1813 1785 1850 1896 1823 1793 1793 1833 1775 1700 1871 1810 1751 1816 1738 1816 1816 1777 1799 1828 1781 1741 1809 1823 1847 1844 1758 1763 1783 1700 1817 1770 1745 1867 1848 1766 1816 1764 1737 1822 1765 1723 1820 1791 1856 1675 1829 1757 1784 1766 1753 1699 1706 1788 1703 1727 1764 1798 1742 1750 1834 1762 1795 1788 1722 1759 1750 1735 1712 1750 1758 1701 1719 1704 1739 1725 1768 1697 1791 1732 1648 1728 1748 1770 1740 1687 1700 1760 1736 1637 1735 1768 1643 1709 1662 1678 1637 1635 1657 1617 1601 1713 1678 1635 1677 1645 1700 1577 1640 1618 1637 1732 1648 1651 1705 1632 1567 1604 1585 1709 1602 1530 1605 1599 1592 1657 1590 1639 1612 1677 1565 1567 1571 1562 1584 1615 1547 1619 1585 1622 1523 1552 1525 1637 1633 1511 1572 1604 1531 1566 1663 1540 1559 1518 1598 1575 1549 1510 1522 1539 1461 1498 1558 1457 1567 1503 1514 1537 1511 1499 1603 1536 1479 1559 1505 1527 1481 1464 1490 1603 1534 1513 1461 1507 1513 1503 1456 1473 1512 1558 1518 1457 1473 1457 1528 1579 1538 1469 1569 1501 1565 1572 1590 1544 1625 1674 1657 1741 1860 1874 1927 1986 2033 2206 2217 2346 2486 2540 2557 2548 2690 2448 2469 2414 2318 2211 2160 2069 2020 1930 1793 1774 1719 1729 1710 1560 1592 1635 1563 1503 1553 1442 1438 1518 1468 1556 1456 1476 1484 1465 1441 1323 1456 1405 1399 1413 1427 1352 1376 1336 1304 1300 1345 1366 1394 1297 1356 1367 1317 1401 1311 1395 1310 1349 1286 1252 1277 1366 1291 1340 1315 1310 1320 1341 1282 1304 1268 1292 1367 1341 1308 1285 1363 1308 1319 1298 1312 1271 1316 1305 1292 1370 1323 1288 1356 1331 1373 1305 1341 1323 1302 1284 1341 1334 1314 1382 1347 1419 1362 1479 1424 1505 1604 1559 1647 1709 1872 2057 2136 2272 2385 2673 2789 3005 3075 3296 3338 3415 3245 3227 3120 2936 2762 2668 2526 2326 2237 2040 1954 1896 1771 1603 1578 1504 1501 1474 1433 1428 1427 1337 1420 1379 1340 1360 1339 1336 1319 1310 1351 1352 1307 1247 1292 1294 1317 1293 1359 1353 1454 1363 1436 1423 1468 1449 1429 1535 1575 1581 1619 1615 1637 1538 1531 1529 1427 1478 1445 1424 1400 1389 1397 1301 1279 1254 1214 1320 1262 1259 1199 1185 1197 1233 1263 1228 1169 1178 1238 1224 1203 1173 1237 1237 1188 1186 1177 1190 1185 1209 1169 1166 1204 1148 1193 1183 1156 1126 1193 1130 1173 1112 1135 1168 1198 1153 1101 1163 1163 1113 1131 1210 1156 1085 1187 1083 1136 1170 1122 1114 1182 1119 1182 1086 1092 1138 1067 1154 1105 1117 1121 1147 1113 1132 1145 1071 1173 1058 1140 1107 1097 1159 1078 1108 1128 1119 1106 1062 1115 1058 1158 1140 1138 1061 1170 1064 1074 1122 1124 1084 1112 1052 1099 1083 1023 1100 1043 1026 1091 1115 1116 1102 1062 1080 1083 1051 1115 1057 1106 1105 1087 1062 1098 1046 1065 1071 1062 1067 1074 1062 1048 1059 1019 1070 1074 1025 1129 1097 1014 1052 1045 1036 1096 1027 1038 1046 1066 1057 1077 1122 1079 1054 1005 1043 1055 1099 1130 1100 1053 1064 1022 1084 1047 1059 1117 1045 1080 1051 1072 1098 1056 1090 1057 1083 1071 1079 1080 1027 1088 1062 1044 1097 1076 1114 1099 1177 1167 1178 1134 1137 1137 1156 1181 1130 1243 1175 1106 1133 1116 1168 1153 1215 1292 1202 1207 1233 1300 1316 1307 1294 1281 1297 1412 1444 1434 1354 1421 1420 1363 1486 1397 1351 1329 1368 1340 1311 1277 1299 1301 1277 1276 1206 1211 1215 1209 1177 1179 1138 1137 1171 1085 1192 1163 1172 1078 1134 1070 1114 1073 1088 1073 1057 1054 1073 1024 1115 1063 1094 1048 1067 1101 1053 1037 1066 1085 1076 1053 1111 1056 1144 1029 1079 1080 1095 1004 1009 1084 1084 1063 1060 1052 1024 1047 1051 1042 1088 1013 1092 1021 1091 1034 1110 997 1054 1019 1047 1074 1068 1050 1004 959 1107 1110 1096 1085 1072 1121 1104 1054 1041 1045 1028 1061 1021 1044 1004 1056 1066 1086 1092 1048 994 1059 1052 1070 1057 1141 1098 1097 1082 1121 1102 1181 1089 1115 1104 1147 1135 1107 1153 1238 1178 1255 1239 1266 1232 1214 1213 1281 1341 1439 1468 1555 1619 1775 1968 2070 2196 2488 2721 3090 3477 3654 4287 4713 5431 6014 6469 7003 7464 7697 7735 7485 7321 6927 6563 6360 5840 5640 5274 4875 4417 3982 3519 3144 2797 2574 2374 2158 2104 1976 1844 1744 1703 1658 1616 1577 1515 1563 1533 1515 1417 1487 1450 1471 1468 1455 1382 1333 1365 1364 1363 1358 1300 1326 1201 1290 1233 1191 1235 1236 1273 1257 1265 1309 1290 1296 1298 1321 1371 1365 1321 1386 1378 1464 1406 1457 1410 1367 1296 1252 1258 1289 1259 1266 1234 1219 1213 1188 1154 1100 1125 1055 1094 1091 1053 1095 1081 1031 1077 992 1075 1030 1017 1049 1025 967 1006 1082 997 1040 1001 1001 990 950 976 989 975 984 1040 1007 1004 960 1028 974 956 1028 962 939 993 933 963 925 999 966 968 992 1002 982 916 914 922 995 911 949 961 962 961 1000 920 957 1010 952 961 930 909 949 999 960 938 935 1016 972 977 906 908 971 999 1006 916 1017 942 912 938 967 984 935 965 910 911 931 907 884 957 911 942 926 969 936 949 935 893 909 904 937 897 866 908 922 990 917 925 848 951 910 932 871 906 863 899 868 931 902 896 874 875 869 903 898 899 962 886 899 914 926 898 864 893 823 836 883 955 897 970 874 926 918 931 888 905 950 901 864 945 863 926 840 895 926 865 877 864 866 915 899 854 872 824 840 877 849 893 808 820 890 832 827 846 874 916 847 906 866 842 884 841 860 844 903 866 869 897 863 858 850 874 885 863 873 839 908 892 896 838 862 877 856 874 902 906 892 910 860 944 894 898 945 914 885 905 897 865 837 923 925 896 865 874 818 804 824 878 834 876 838 848 833 843 847 846 796 845 831 828 805 850 817 832 825 854 848 812 873 816 828 864 830 845 858 896 857 851 889 826 852 889 871 912 844 883 854 843 821 864 858 877 855 874 838 897 841 869 848 843 820 843 771 822 813 848 819 865 771 831 841 852 862 795 827 870 825 795 801 787 792 791 821 824 775 833 844 816 865 859 783 776 800 823 792 773 732 832 776 812 809 785 814 818 779 815 819 817 897 782 786 805 781 807 823 794 809 746 832 786 745 806 832 784 795 811 812 801 802 795 783 745 764 787 811 781 800 795 787 778 841 774 778 844 804 833 807 776 791 735 782 831 823 815 789 769 810 746 789 793 795 830 812 802 760 759 760 775 790 764 754 769 765 807 785 822 806 766 787 790 753 749 800 812 761 749 789 750 785 797 777 798 801 795 789 785 769 796 765 754 774 720 815 728 758 738 768 781 800 777 784 810 746 767 754 771 719 752 804 757 726 789 757 752 796 754 770 759 748 766 777 784 787 732 752 721 775 806 716 767 802 774 732 738 768 776 793 801 748 763 754 727 740 703 754 727 807 699 753 762 718 749 722 721 773 748 793 786 798 727 704 728 774 716 768 771 758 691 778 764 731 748 813 728 800 756 802 834 775 739 777 739 740 733 735 779 786 724 779 756 712 735 751 754 763 781 756 789 768 739 718 782 756 751 752 743 765 759 774 788 706 783 718 741 671 787 755 769 705 698 788 729 768 699 737 743 745 756 815 728 747 721 706 713 739 726 732 748 748 740 771 756 751 782 737 686 744 769 740 711 748 762 788 798 775 756 731 724 801 770 768 752 746 758 759 753 751 758 749 778 727 714 707 746 718 690 747 700 771 674 753 785 724 685 740 710 689 735 726 767 710 746 731 709 718 754 676 715 654 747 720 739 748 670 722 771 762 755 697 644 744 725 741 749 735 685 718 735 686 730 718 709 741 696 744 725 727 725 659 684 718 716 709 708 707 718 734 720 688 762 716 766 720 727 743 699 734 745 746 684 746 738 701 784 736 745 699 731 737 712 672 742 744 717 722 750 727 709 707 693 788 769 696 743 735 726 734 712 710 694 649 704 701 752 690 706 758 744 726 758 726 700 715 727 769 682 719 681 732 741 744 725 747 693 737 748 734 736 790 729 687 689 733 713 683 740 719 698 716 727 687 679 677 763 731 708 757 731 767 704 751 699 702 668 733 710 745 690 687 691 702 777 796 718 739 698 700 719 782 755 709 697 742 701 741 702 759 710 712 706 738 718 704 687 746 740 765 729 772 691 755 726 742 724 682 752 718 719 750 750 703 696 748 731 757 749 765 771 778 760 760 807 753 707 775 745 730 751 783 711 723 754 723 747 797 713 764 765 732 763 762 756 722 823 783 757 734 731 738 733 754 760 760 743 719 727 728 750 715 715 683 729 712 714 712 732 710 759 693 759 734 712 696 725 671 752 692 721 771 766 709 727 734 749 779 818 785 788 813 752 804 880 877 888 927 993 1063 1102 1140 1165 1220 1217 1288 1186 1199 1081 1120 1091 1039 1096 1074 1039 1084 987 935 992 938 889 837 870 834 781 774 730 770 743 733 739 710 713 692 722 710 772 680 704 672 701 736 732 750 743 686 710 701 675 744 706 633 711 743 655 665 654 632 682 653 677 706 751 650 713 670 623 712 671 680 694 660 696 679 708 681 673 690 650 725 695 705 711 625 695 736 706 650 698 678 674 737 689 648 723 684 632 656 714 665 717 684 670 701 668 675 707 689 654 685 675 721 666 725 695 695 661 603 698 665 682 701 645 706 611 681 695 663 643 654 634 644 724 688 673 685 666 683 660 670 647 703 654 657 683 653 693 699 693 660 673 670 650 687 662 703 649 638 688 703 630 634 678 673 676 666 650 660 641 690 650 674 672 656 668 706 699 661 676 662 674 662 667 662 619 636 656 638 652 662 682 724 682 669 652 667 686 644 676 647 666 646 642 654 693 678 654 684 712 658 659 674 665 719 701 686 715 693 674 680 627 723 653 700 633 668 719 623 652 696 715 691 652 674 669 713 602 729 667 695 658 716 657 646 633 666 717 676 649 677 639 649 714 699 705 664 702 679 680 684 703 656 634 661 694 662 682 717 670 629 682 710 724 707 680 678 671 675 646 622 685 721 650 688 667 679 673 665 696 659 654 680 669 647 699 661 666 625 644 645 614 685 676 644 647 673 677 684 666 654 623 707 689 661 662 659 617 677 695 622 653 687 665 671 677 653 691 708 656 670 662 691 654 681 679 670 714 677 686 638 667 697 616 650 728 689 683 669 722 680 718 675 708 701 698 703 712 688 735 762 749 712 701 800 771 792 744 781 818 777 775 797 823 797 856 848 815 873 924 934 1009 1142 1149 1235 1454 1584 1775 1972 2155 2561 2802 3097 3359 3350 3353 3352 3185 3032 2821 2597 2588 2441 2431 2407 2454 2383 2372 2303 2111 1930 1762 1561 1408 1350 1294 1193 1107 1091 1071 976 985 894 940 910 916 870 878 800 782 829 764 767 766 687 701 682 694 721 756 718 722 722 749 696 712 698 719 738 697 712 665 684 756 684 709 698 700 686 656 682 681 687 701 718 663 693 698 671 662 718 724 707 706 678 673 663 670 678 762 780 726 751 727 758 768 763 798 722 773 734 770 730 780 787 776 766 759 730 699 735 780 730 742 759 748 689 729 728 682 692 730 673 707 692 667 694 695 691 659 711 637 700 723 661 695 663 669 716 645 640 702 655 684 654 612 701 701 635 658 658 650 617 647 666 645 686 650 655 682 681 653 651 646 639 590 618 673 607 645 663 602 586 583 625 594 603 581 640 633 624 608 639 610 634 637 582 587 645 611 663 622 605 658 642 603 589 628 620 612 634 596 562 607 633 640 607 632 627 594 609 649 629 741 622 664 673 723 717 721 739 722 731 761 859 824 864 845 857 815 784 774 799 728 793 762 809 790 786 755 772 726 720 720 722 710 677 665 702 673 671 671 655 626 612 628 637 623 613 613 584 630 632 600 595 617 560 621 610 627 580 558 578 599 597 630 583 651 629 541 574 589 585 585 608 606 613 592 606 630 596 608 612 613 594 556 554 589 605 632 580 585 550 576 588 576 595 595 620 613 614 584 604 584 575 615 580 583 644 604 614 586 587 614 590 557 632 560 585 586 616 584 586 570 587 526 605 560 560 588 595 599 592 578 606 567 619 572 590 599 571 560 563 532 589 606 577 604 565 571 558 563 569 544 607 635 552 574 589 597 544 527 564 560 593 596 566 614 576 561 575 575 591 585 605 627 578 580 572 551 566 559 564 600 617 550 582 591 564 566 621 562 554 579 600 611 575 622 607 546 580 562 569 547 561 568 541 551 574 557 585 524 589 623 535 603 545 600 552 625 547 575 546 593 568 621 559 590 566 602 583 606 604 551 586 563 620 574 569 582 623 578 572 560 602 579 579 582 561 589 544 574 521 583 529 539 555 548 585 566 583 559 547 558 529 549 590 586 539 569 570 568 545 552 562 576 553 572 526 579 512 605 535 559 549 575 554 566 562 541 572 522 557 594 543 507 579 593 528 556 578 584 591 582 572 552 540 535 597 515 603 521 517 571 541 548 565 546 587 540 585 576 542 571 568 568 558 569 560 550 516 561 557 540 550 582 571 543 556 540 566 562 597 546 561 554 567 569 518 540 572 511 534 547 560 564 570 537 568 577 602 544 555 548 550 520 542 548 565 548 579 572 548 542 532 535 561 532 639 527 555 537 494 562 557 580 559 551 562 553 567 550 562 584 542 527 515 541 488 521 514 545 559 604 560 549 532 588 528 522 540 509 562 515 525 520 526 509 549 519 554 530 538 515 521 534 518 567 533 489 522 556 558 556 510 490 585 563 526 547 576 520 523 489 574 553 542 504 532 508 575 530 542 498 573 551 529 479 559 572 566 529 517 521 552 559 518 527 566 543 537 508 502 548 572 565 522 551 614 579 620 511 526 527 533 511 506 515 508 573 539 512 517 516 530 513 549 545 531 491 558 549 505 569 520 539 535 541 537 518 545 532 582 548 550 572 557 547 488 557 556 541 549 593 522 555 526 564 543 546 518 547 565 552 532 495 571 528 553 511 547 547 539 491 521 546 535 590 564 497 525 517 548 534 501 516 517 520 540 538 529 525 532 535 557 546 556 555 521 573 565 572 591 599 577 587 589 600 562 551 550 550 569 555 536 560 507 575 587 609 589 561 552 561 548 593 557 578 561 520 563 499 553 548 533 548 517 560 516 550 511 548 554 567 563 571 552 551 520 524 508 558 522 534 545 578 547 545 571 550 583 574 612 630 616 672 679 684 682 740 701 730 790 698 764 753 741 718 768 651 717 682 684 682 721 668 653 681 668 641 663 644 635 671 598 572 592 565 606 576 555 538 534 627 492 515 567 569 568 544 602 563 511 518 517 544 554 563 551 532 509 524 510 508 529 531 533 490 544 497 515 527 527 538 553 563 483 497 547 541 540 528 546 552 617 530 529 539 516 540 536 485 509 496 551 516 542 572 549 539 524 562 523 535 526 486 550 550 561 544 549 517 562 523 514 522 564 525 556 578 568 551 560 552 540 568 582 614 555 560 554 565 597 579 577 527 563 544 534 556 566 555 600 549 561 532 581 516 548 540 524 478 495 529 542 478 550 494 515 517 498 534 544 509 494 495 505 524 490 516 474 533 528 512 527 535 500 551 477 554 540 506 501 540 526 511 488 547 533 533 519 543 540 525 520 482 543 508 549 548 533 529 501 491 536 554 504 471 533 492 542 496 537 502 519 505 485 511 540 530 505 508 526 480 516 515 509 543 501 527 540 494 529 535 537 506 541 470 525 532 528 527 534 536 557 546 546 554 516 543 526 517 509 495 565 536 557 543 555 591 558 577 549 608 599 596 612 660 644 670 694 748 850 869 837 893 895 947 886 912 876 866 744 745 793 714 722 776 790 783 740 787 772 771 736 712 672 680 654 603 643 653 609 592 562 561 559 552 566 527 547 562 549 550 524 544 537 580 507 541 536 500 475 492 534 524 494 503 479 547 537 520 498 519 498 525 480 493 436 478 487 471 507 526 537 486 518 471 474 490 488 481 494 524 462 543 497 488 469 491 484 484 470 517 481 483 492 507 531 489 494 491 508 533 521 527 510 518 495 490 523 478 536 501 510 523 498 466 538 467 548 504 495 508 517 554 533 538 505 475 519 467 500 495 479 481 499 471 497 502 507 518 472 535 503 497 508 505 513 506 515 480 489 493 491 545 515 529 507 469 461 499 460 458 472 477 443 477 478 512 478 516 523 486 462 503 509 485 474 452 492 466 473 483 501 472 517 492 502 493 490 569 499 557 561 583 582 553 547 555 606 583 550 587 566 590 502 537 532 554 525 555 549 554 560 557 544 528 551 512 518 559 574 499 556 483 508 497 517 499 541 495 530 524 507 459 501 512 465 448 546 502 517 470 510 508 528 446 502 493 516 450 498 484 448 486 523 506 472 468 459 480 438 470 471 472 467 463 491 472 517 449 437 470 456 472 502 479 476 455 470 504 500 469 472 486 461 475 488 493 504 476 486 445 454 460 510 459 509 461 484 472 461 429 481 454 485 471 486 454 485 482 506 465 477 466 479 468 484 478 470 471 455 456 449 456 465 463 464 451 470 499 466 486 486 459 517 476 499 492 493 504 441 473 468 512 445 446 477 447 446 478 478 471 488 476 435 455 474 410 468 491 461 457 447 478 447 473 458 462 402 487 417 525 462 458 470 463 448 460 462 485 476 474 459 470 429 496 463 490 449 499 431 483 475 508 446 470 480 446 428 430 464 455 473 474 449 461 463 479 462 493 447 441 441 431 509 468 490 448 466 440 498 437 445 492 453 446 482 441 477 460 469 435 462 434 499 463 464 474 478 488 487 459 459 474 493 464 478 445 500 466 466 456 474 509 479 478 430 475 500 489 464 440 434 459 462 492 446 502 457 472 496 438 472 450 446 434 436 493 434 433 459 468 489 450 472 442 437 464 477 509 480 456 454 443 441 470 398 465 450 469 475 474 466 473 470 462 479 439 462 429 469 466 474 450 506 455 479 453 455 457 423 463 427 422 474 434 439 468 467 521 465 441 450 467 461 465 466 463 444 444 455 461 464 456 441 486 458 486 497 425 429 456 488 473 438 475 423 444 443 436 469 478 451 485 477 478 481 440 449 417 454 446 461 424 446 436 454 465 435 475 487 392 464 436 522 431 438 455 475 466 490 440 455 429 478 490 460 460 464 431 433 470 469 476 423 478 483 471 409 447 453 462 464 469 491 484 479 462 468 447 451 473 472 485 471 432 455 456 491 503 446 439 454 437 463 464 497 448 442 483 462 491 468 466 463 479 446 482 470 487 446 401 462 456 480 419 482 461 482 448 513 486 483 475 464 471 449 459 454 434 476 418 471 463 438 458 444 462 493 458 462 449 472 482 456 512 466 502 479 450 470 498 499 540 500 555 497 491 519 504 534 501 492 488 474 464 461 429 471 510 487 467 471 511 518 474 474 472 473 463 449 498 464 498 466 445 481 460 479 404 458 459 506 477 463 440 455 471 490 480 467 473 458 459 491 419 458 431 464 441 481 465 441 471 481 478 459 461 459 473 451 433 447 480 467 441 432 468 476 459 446 446 469 464 473 472 487 477 483 451 461 427 450 463 466 416 457 483 432 424 461 421 445 498 453 448 415 439 441 464 477 419 504 447 475 458 435 462 472 447 453 449 457 443 418 461 433 441 442 435 514 470 434 484 439 460 453 460 453 448 480 436 433 460 454 454 421 471 458 467 486 430 416 453 435 448 465 440 460 458 426 449 453 413 474 450 434 452 459 447 451 426 424 418 398 454 434 421 443 445 427 465 443 437 472 437 450 445 447 496 431 419 467 425 452 472 462 426 432 442 416 419 468 437 423 479 430 466 427 471 442 454 472 461 435 467 495 462 439 442 435 416 431 436 425 407 430 474 449 445 456 448 466 421 450 429 449 444 424 447 454 439 422 467 420 421 494 417 449 467 456 452 433 453 470 462 424 452 463 439 459 427 454 457 480 455 473 429 442 409 474 437 417 497 489 436 447 495 429 427 431 449 460 455 461 502 436 464 432 434 507 476 515 474 502 511 499 512 533 511 523 522 558 604 568 560 654 604 613 613 629 609 635 609 559 574 619 550 554 522 571 558 565 569 519 531 556 536 525 558 558 510 535 509 495 524 484 500 498 500 488 485 475 485 500 468 472 491 449 466 467 478 432 462 475 466 427 466 437 450 471 462 461 451 474 453 462 447 454 491 428 474 437 434 415 436 426 456 446 465 431 457 438 463 469 438 436 444 440 411 426 475 424 441 485 435 434 481 480 436 459 431 453 424 479 426 449 450 456 477 478 438 450 460 427 441 474 404 413 446 470 417 475 428 471 424 454 411 434 494 426 422 490 488 422 451 435 417 472 474 433 427 425 451 433 449 450 474 425 398 423 414 412 404 485 442 465 445 426 445 444 448 472 430 451 474 412 450 437 427 455 410 399 437 457 417 468 437 482 408 445 422 452 381 409 410 410 420 451 449 451 419 438 467 438 453 440 441 443 416 432 443 439 410 445 416 447 419 442 476 449 465 422 408 470 395 449 417 471 483 458 450 486 425 406 468 431 472 436 396 454 464 453 444 455 439 436 399 419 401 438 418 471 431 446 453 440 411 391 430 431 448 399 430 409 453 455 443 463 447 415 415 419 439 434 438 444 442 423 427 421 412 428 422 471 456 443 458 442 449 416 413 433 455 437 425 411 396 403 471 409 436 398 462 437 414 448 419 417 464 410 459 434 454 421 417 473 424 439 437 418 439 420 416 459 402 420 405 443 431 460 456 403 454 425 453 427 422 439 401 435 466 450 446 433 456 446 450 418 412 463 451 458 416 437 414 435 460 423 459 426 422 433 417 418 424 442 430 439 427 461 440 416 451 405 455 407 445 431 439 451 440 441 430 457 433 421 426 429 463 397 452 430 443 461 449 403 439 423 456 462 432 453 414 447 409 425 442 448 417 440 426 450 434 424 437 445 455 427 398 393 419 430 401 421 416 401 424 418 454 435 448 435 447 439 424 427 439 438 439 412 434 419 436 412 452 449 447 469 473 464 415 460 417 439 441 434 441 472 439 466 410 399 400 457 431 438 428 440 437 402 438 445 441 428 414 438 434 415 414 422 456 428 400 429 412 435 432 402 438 443 432 404 410 448 415 431 408 419 456 440 438 393 408 462 412 413 382 440 447 422 420 431 456 449 440 465 468 413 424 477 428 433 477 437 425 457 427 410 444 399 466 435 439 431 469 451 475 465 435 444 425 438 407 429 485 434 430 416 373 406 432 428 466 424 431 435 426 401 456 422 458 448 422 468 427 423 459 453 501 410 438 422 456 464 415 467 430 435 442 457 438 417 439 445 426 435 405 423 417 445 449 426 435 406 447 450 477 450 450 430 419 478 444 466 443 450 465 444 430 432 446 437 460 424 424 460 441 430 435 431 448 418 457 440 456 459 440 436 449 450 425 485 416 408 441 443 439 423 462 433 482 439 465 456 464 424 464 446 453 471 463 494 469 474 453 432 436 491 471 475 469 477 492 485 474 440 494 487 449 469 472 480 432 463 481 448 466 464 477 463 453 458 471 489 476 435 475 447 446 494 475 452 475 457 473 457 490 445 435 468 478 467 476 465 433 442 460 481 453 466 463 441 448 494 457 483 496 468 463 451 479 500 491 476 500 480 488 458 462 445 495 468 457 458 435 425 454 490 491 494 433 488 482 463 427 482 492 465 469 464 473 495 434 441 440 457 420 473 459 496 448 423 486 466 424 435 425 437 431 445 470 484 423 461 390 405 437 467 437 437 478 462 434 446 460 449 442 436 438 403 462 439 457 474 464 433 439 445 461 467 450 479 443 445 444 417 442 442 464 483 427 466 428 401 445 437 401 458 417 426 451 430 427 422 445 452 408 442 447 470 421 420 416 480 451 410 419 488 408 460 427 467 425 476 445 430 458 461 418 463 467 408 440 461 441 448 446 442 468 466 414 440 432 491 456 449 423 450 449 444 439 455 444 436 465 443 424 465 472 446 459 452 482 453 491 485 464 446 452 455 443 453 474 466 452 462 471 447 508 454 429 485 466 477 484 475 455 452 443 435 486 513 435 456 447 417 467 455 447 428 444 463 459 501 477 454 473 467 498 489 420 468 490 475 507 504 475 473 464 530 518 558 537 586 589 560 621 623 582 587 639 676 681 684 739 707 672 693 683 623 643 629 633 628 649 572 562 551 611 646 645 640 579 601 585 563 558 632 594 573 575 560 584 600 538 518 554 511 510 531 500 530 495 521 501 500 474 476 462 460 477 461 458 474 494 447 468 484 433 456 492 400 469 481 479 463 440 412 471 472 421 440 476 414 429 399 443 472 463 421 443 456 454 432 454 432 487 434 404 438 398 432 445 424 445 440 459 443 412 469 413 434 456 409 428 481 460 449 405 448 427 461 455 410 422 420 417 434 425 451 473 437 444 470 386 435 441 445 458 423 469 437 436 418 459 473 417 426 432 433 469 463 448 443 437 416 428 421 400 421 437 440 471 470 432 431 453 478 450 428 433 438 442 461 439 483 452 486 478 446 474 484 417 465 477 472 501 439 442 539 500 468 473 454 454 471 453 456 505 433 486 441 456 469 472 470 447 470 525 460 479 475 441 484 441 427 483 456 441 482 457 445 422 468 439 431 444 417 434 461 432 428 447 413 492 483 395 440 402 450 460 456 438 471 391 397 409 394 433 444 442 431 414 407 397 420 443 449 444 408 439 437 420 412 437 438 430 443 432 411 442 451 400 442 389 415 486 431 426 411 404 404 416 418 416 435 408 397 396 403 439 425 457 403 414 405 434 420 415 441 362 421 407 420 410 419 428 412 409 423 430 414 438 422 428 414 425 434 424 428 353 398 414 429 385 434 415 385 437 416 455 440 378 415 440 465 415 418 419 407 419 414 399 419 409 422 440 407 424 433 448 395 472 405 430 455 461 404 397 397 454 389 418 437 431 415 399 416 413 384 409 444 384 408 446 395 415 413 422 431 422 432 427 409 390 404 384 408 415 400 429 443 435 406 421 424 403 427 469 399 415 386 432 436 459 440 418 429 389 418 446 385 405 361 390 421 427 424 451 444 415 405 439 437 435 451 405 413 417 443 419 432 440 379 420 381 415 414 461 400 474 455 426 413 386 431 435 384 466 397 450 395 439 424 371 412 389 383 430 429 388 418 433 424 417 428 424 395 407 376 394 410 364 425 453 442 392 411 398 412 408 430 418 405 434 393 405 372 377 422 457 438 412 450 452 381 430 419 423 470 401 418 389 433 412 432 404 370 408 394 422 403 414 402 428 418 432 435 411 400 391 387 404 397 424 379 342 438 424 377 427 404 413 423 403 403 387 371 413 410 417 412 408 402 391 390 391 393 412 384 405 421 388 425 417 420 401 396 367 352 419 391 402 429 398 413 402 441 415 397 372 413 456 371 408 358 425 406 406 400 406 449 446 409 416 399 396 424 400 425 447 391 411 403 440 398 430 420 400 438 445 398 366 396 428 392 392 417 405 392 462 389 412 396 403 399 411 395 397 393 421 439 455 398 429 411 415 413 387 468 364 433 436 436 437 423 411 452 432 423 407 419 444 493 453 438 469 433 425 418 442 418 403 425 422 450 409 463 416 384 447 412 392 419 404 407 439 434 420 421 451 418 419 405 424 399 392 429 381 413 426 445 432 399 471 428 418 400 403 438 391 424 370 402 401 409 432 401 421 411 378 397 421 386 400 387 407 380 407 404 440 419 427 437 422 442 449 413 406 385 427 390 419 413 423 392 429 397 425 399 401 425 382 393 425 424 407 420 388 415 394 420 372 378 395 375 402 383 392 382 405 451 445 389 386 440 425 419 429 385 411 425 393 379 349 391 402 412 366 428 410 445 441 395 408 417 381 390 414 401 389 438 437 395 426 400 387 435 423 404 438 395 416 398 419 392 404 413 422 425 420 460 347 374 435 390 386 401 422 410 380 404 391 435 425 440 406 422 415 408 372 423 384 362 432 392 408 378 402 426 406 419 411 407 386 410 404 371 409 401 437 403 434 380 414 398 431 429 419 383 412 370 393 397 384 404 393 408 380 411 372 410 437 413 410 399 400 385 375 406 412 419 412 403 408 405 422 382 391 399 383 396 465 418 407 423 398 441 408 450 402 379 444 420 414 421 413 447 448 435 417 454 403 430 401 424 469 428 420 456 465 441 450 443 433 451 460 440 512 517 507 509 538 573 536 551 552 576 556 557 549 533 548 536 530 530 517 510 492 514 487 497 488 453 484 499 478 461 510 477 501 507 535 484 525 490 517 553 472 519 511 449 482 471 421 472 442 421 454 444 438 457 413 428 469 457 420 429 410 414 447 414 400 433 410 423 425 406 402 384 438 426 432 388 413 375 409 417 407 449 427 431 468 423 405 423 379 377 394 392 387 418 414 412 413 408 429 373 414 410 389 407 381 380 401 408 388 376 420 356 395 390 409 412 387 417 398 403 408 397 368 395 382 417 452 396 376 388 383 398 384 389 391 424 405 429 394 415 396 405 417 396 425 418 407 406 364 385 416 424 384 399 411 426 414 410 359 396 410 387 367 384 386 412 370 379 386 380 398 358 385 463 423 394 414 404 379 378 422 432 411 417 420 379 392 420 391 426 420 428 396 452 417 440 420 396 401 426 402 410 421 366 402 428 349 429 423 383 426 386 413 365 401 413 377 390 339 371 394 407 431 365 418 417 416 386 425 379 387 410 408 417 432 379 390 388 427 423 426 403 371 421 387 402 350 430 408 412 407 381 374 413 387 400 414 394 391 405 409 402 425 393 386 379 423 439 417 372 390 393 421 358 391 416 420 369 388 389 372 355 375 384 363 355 413 411 412 375 422 400 359 375 368 381 402 371 394 377 392 376 381 402 387 391 391 417 409 373 367 422 390 394 361 401 404 394 406 393 413 396 379 418 391 413 389 391 424 385 408 357 389 373 404 424 440 378 380 418 416 416 409 402 424 414 354 431 393 392 409 384 390 406 384 367 382 403 417 404 385 418 388 373 384 362 390 400 341 373 374 399 371 378 382 395 405 393 363 404 373 392 399 407 350 406 403 389 404 374 430 389 377 403 373 387 415 386 393 404 384 396 420 391 398 381 406 436 376 397 392 407 364 382 373 379 378 411 419 370 388 374 419 371 389 403 394 383 379 398 376 382 417 414 401 423 384 368 410 392 396 390 416 399 412 411 397 410 366 394 373 385 395 366 386 387 392 392 428 361 383 406 365 424 367 365 370 385 396 390 411 388 375 416 384 443 364 376 371 360 371 372 411 395 383 381 436 344 373 388 382 388 409 376 411 374 409 376 374 359 375 411 361 394 382 396 378 382 403 381 370 400 383 391 369 400 379 368 390 378 385 387 368 409 353 382 409 427 388 397 352 393 379 384 405 384 389 353 384 368 405 365 421 393 376 384 376 366 373 416 417 382 387 379 378 370 397 374 398 361 367 338 377 370 400 392 410 418 387 361 363 384 380 399 368 393 406 398 399 370 394 368 417 387 382 380 362 359 421 415 377 372 345 375 372 372 413 363 393 371 414 391 378 388 375 414 378 386 400 399 344 370 404 414 418 368 385 372 406 397 414 399 386 408 427 397 418 409 408 411 386 431 412 421 423 390 449 429 450 410 401 421 377 407 393 408 427 394 407 398 394 385 399 375 399 413 431 374 402 397 373 410 368 439 391 407 417 425 410 435 412 439 374 431 399 370 400 435 382 379 395 397 436 370 413 411 393 404 419 441 415 444 419 387 422 417 416 394 383 417 389 386 369 424 405 420 412 401 385 406 421 368 401 366 392 395 381 440 431 395 404 412 412 385 402 427 396 404 396 421 411 412 386 392 415 382 367 374 384 402 396 404 386 354 371 348 358 371 382</counts>
			</dataPoints>
		</scan>
	</xrdMeasurement>
</xrdMeasurements>
