<?xml version="1.0"?>
<xrdMeasurements xmlns="http://www.xrdml.com/XRDMeasurement/2.3" xmlns:xsi="http://www.w3.org/2001/XMLSchema-instance" xsi:schemaLocation="http://www.xrdml.com/XRDMeasurement/2.3 http://www.xrdml.com/XRDMeasurement/2.3/XRDMeasurement.xsd" status="Completed" recordIdentifier="{9A3C6DB2-951A-4826-BA47-AEAAA0734EB0}">
	<comment>
		<entry/>
	</comment>
	<sample type="To be analyzed">
		<id>GPSS_Li1p6Mn0p8Y0p1Ta0p1Cl4_112225_6921f967f4e53d1f72397d3a</id>
		<name></name>
		<preparedBy></preparedBy>
	</sample>
	<xrdMeasurement measurementType="Scan" status="Completed" sampleMode="Reflection">
		<usedWavelength intended="K-Alpha 1">
			<kAlpha1 unit="Angstrom">1.5405980</kAlpha1>
			<kAlpha2 unit="Angstrom">1.5444260</kAlpha2>
			<kBeta unit="Angstrom">1.3922500</kBeta>
			<ratioKAlpha2KAlpha1>0.5000</ratioKAlpha2KAlpha1>
		</usedWavelength>
		<incidentBeamPath>
			<radius unit="mm">145.00</radius>
			<xRayTube id="1010048" name="Empyrean Cu LFF HR (9430 033 7310x)">
				<tension unit="kV">40.0</tension>
				<current unit="mA">15.0</current>
				<anodeMaterial>Cu</anodeMaterial>
				<focus type="Line">
					<length unit="mm">12.0</length>
					<width unit="mm">0.4</width>
					<takeOffAngle unit="deg">6.0</takeOffAngle>
				</focus>
			</xRayTube>
			<sollerSlit id="21010002" name="Soller slits 0.04 rad.">
				<opening unit="rad">0.0400</opening>
			</sollerSlit>
			<mask id="22031000" name="Fixed mask 13 mm">
				<width unit="mm">9.00</width>
			</mask>
			<divergenceSlit id="22120001" name="Divergence slit 1°" xsi:type="fixedDivergenceSlitType">
				<distanceToSample unit="mm">50.00</distanceToSample>
				<height unit="mm">1.52</height>
			</divergenceSlit>
		</incidentBeamPath>
		<sampleMovement xsi:type="spinningSampleMovementType">
			<spinnerRevolutionTime unit="seconds">1.0</spinnerRevolutionTime>
		</sampleMovement>
		<diffractedBeamPath>
			<radius unit="mm">145.00</radius>
			<antiScatterSlit id="22090040" name="AS slit 9 mm (PIXcel)" xsi:type="fixedAntiScatterSlitType">
				<height unit="mm">9.00</height>
			</antiScatterSlit>
			<sollerSlit id="21020003" name="Large Soller slits 0.04 rad.">
				<opening unit="rad">0.0400</opening>
			</sollerSlit>
			<filter id="20030001" name="Large beta-filter Nickel">
				<material>Ni</material>
				<thickness unit="mm">0.020</thickness>
			</filter>
			<detector id="7010019" name="PIXcel1D-Medipix3 detector" xsi:type="rtmsDetectorType">
				<phd unit="keV">
					<lowerLevel>4.02</lowerLevel>
					<upperLevel>11.27</upperLevel>
				</phd>
				<mode>Scanning</mode>
				<activeLength unit="deg">5.542</activeLength>
			</detector>
		</diffractedBeamPath>
		<scan appendNumber="0" mode="Continuous" scanAxis="Gonio" status="Completed">
			<header>
				<startTimeStamp>2025-11-24T13:09:23-08:00</startTimeStamp>
				<endTimeStamp>2025-11-24T13:17:30-08:00</endTimeStamp>
				<author>
					<name>AutomatedUser</name>
				</author>
				<source>
					<applicationSoftware version="1.7b (136)">PANalytical Aeris Instrument Suite</applicationSoftware>
					<instrumentControlSoftware version="3.2.00000000 20240306">AERIS</instrumentControlSoftware>
					<instrumentID>950485</instrumentID>
				</source>
			</header>
			<dataPoints>
				<positions axis="2Theta" unit="deg">
					<startPosition>10.00943322</startPosition>
					<endPosition>99.99442286</endPosition>
				</positions>
				<positions axis="Omega" unit="deg">
					<startPosition>5.00471661</startPosition>
					<endPosition>49.99721143</endPosition>
				</positions>
				<commonCountingTime unit="seconds">12.495</commonCountingTime>
				<counts unit="counts">3237 3097 3131 3015 3007 3155 3027 3099 3038 3136 3129 3030 3050 3104 3031 3096 3114 3024 3109 3129 3034 3099 3058 2998 3017 3146 3063 3166 3188 3046 3121 3110 3155 3045 3123 3051 2994 3065 3112 3132 3164 3083 3127 3117 3098 3067 3144 3070 3085 3046 3138 3175 3003 3108 3055 3062 3083 3096 3041 3021 3026 3195 3117 3070 3095 3132 3126 3100 3125 3110 3140 3050 3213 3105 3063 3058 3087 3122 3029 3184 3119 3093 3126 3134 3203 3121 3199 3124 3109 3119 3065 3079 3122 3110 3002 3102 3173 3140 3055 3108 3076 3057 3081 3163 3093 3192 3108 3072 3179 3136 3181 3172 3122 3183 3273 3132 3117 3228 3258 3183 3205 3057 3140 3064 3141 3145 3220 3198 3145 3010 3215 3202 3225 3194 3137 3125 3075 3124 3224 3182 3150 3233 3114 3164 3231 3221 3155 3069 3219 3027 3189 3147 3165 3238 3285 3127 3284 3233 3084 3202 3261 3100 3146 3108 3212 3122 3174 3142 3170 3140 3189 3135 3136 3195 3293 3121 3162 3088 3208 3172 3199 3151 3289 3163 3241 3022 3089 3212 3123 3139 3170 3189 3060 3117 3078 3159 3139 3141 3134 3124 3196 3107 3020 3180 3240 3095 3124 3097 3144 3133 3198 3068 3288 3151 3118 3199 3157 3211 3236 3129 3110 3156 3216 3029 3109 3053 3139 3181 3011 3179 3130 3260 3090 3258 3104 2973 3068 3145 3047 3137 3154 3029 3048 3140 3192 3063 3224 3138 3133 3038 3121 3089 3146 3032 3072 3206 3109 3070 3095 3132 3139 2959 3069 3064 3095 3089 3157 3038 3078 3039 3031 3088 3092 3177 3155 3155 3109 3053 3069 3126 3110 3085 3104 3121 3256 3111 3164 3099 3223 3154 3203 3128 3137 3196 3124 3023 3025 3102 3154 3153 3114 3124 3199 3204 3148 3113 3107 3152 3042 3239 3072 3219 3166 3302 3243 3182 3292 3177 3247 3215 3228 3218 3251 3161 3184 3309 3230 3329 3343 3311 3251 3266 3227 3293 3224 3299 3357 3276 3315 3360 3364 3360 3336 3392 3312 3186 3237 3298 3285 3266 3326 3340 3421 3347 3521 3324 3352 3396 3487 3344 3409 3461 3473 3438 3336 3393 3473 3464 3461 3473 3593 3488 3489 3536 3477 3577 3521 3607 3598 3643 3580 3645 3614 3620 3586 3692 3777 3653 3606 3716 3596 3717 3733 3805 3896 3766 3811 3875 3804 3767 3883 3921 3937 4038 3893 4035 4053 4088 4083 4318 4375 4227 4319 4544 4524 4767 4735 4771 4938 5029 5146 5256 5267 5200 5158 5214 5290 5253 5210 5151 5075 5083 5162 4887 5091 4949 4860 5018 4822 4697 4753 4524 4588 4608 4584 4549 4479 4454 4520 4403 4362 4330 4339 4375 4374 4507 4318 4262 4375 4351 4425 4402 4317 4345 4506 4358 4473 4279 4283 4314 4344 4177 4267 4269 4315 4246 4115 3994 4052 4066 4069 4056 4152 4034 4037 4034 3955 3978 4024 3884 4003 3875 3817 3984 3908 3827 3887 3795 3792 3621 3788 3742 3796 3790 3701 3884 3729 3796 3660 3817 3741 3637 3691 3706 3620 3729 3721 3678 3657 3612 3621 3584 3547 3620 3671 3738 3684 3666 3677 3598 3704 3584 3647 3690 3796 3515 3641 3580 3621 3653 3535 3642 3676 3631 3688 3635 3413 3727 3555 3587 3563 3546 3447 3510 3570 3573 3642 3508 3461 3411 3427 3408 3484 3562 3557 3497 3575 3505 3282 3434 3380 3448 3356 3391 3452 3324 3324 3340 3484 3397 3449 3356 3492 3445 3359 3373 3318 3340 3355 3315 3353 3357 3330 3347 3432 3309 3305 3402 3261 3192 3252 3250 3341 3233 3307 3222 3243 3238 3265 3415 3371 3311 3253 3346 3189 3375 3329 3291 3284 3292 3234 3321 3217 3184 3320 3235 3296 3157 3255 3318 3231 3199 3239 3161 3215 3182 3208 3219 3164 3155 3267 3182 3204 3242 3302 3224 3229 3286 3187 3246 3232 3288 3227 3223 3199 3206 3211 3132 3077 3150 3146 3220 3186 3220 3161 3224 3231 3152 3325 3249 3151 3175 3205 3280 3259 3170 3152 3229 3271 3242 3222 3174 3175 3211 3130 3225 3268 3162 3141 3236 3091 3234 3122 3232 3174 3197 3155 3272 3150 3234 3210 3232 3235 3109 3228 3126 3134 3128 3024 3241 3258 3168 3197 3173 3220 3146 3182 3200 3177 3151 3203 3114 3150 3278 3007 3099 3209 3142 3141 3140 3161 3192 3207 3092 3095 3088 3143 3109 3092 3129 3176 3217 3099 3047 3050 3118 3164 3124 3142 3045 3069 3063 3241 3109 3070 2977 3055 3011 3120 3150 3118 3068 3084 3117 3008 2986 3026 3132 3054 3152 3026 3113 3048 3082 3120 3124 3047 3118 3124 3141 3029 3023 3024 3129 3042 2928 3060 3049 3089 3070 3085 3022 3037 3043 2915 3024 2976 2927 2974 3072 3090 2917 2964 2927 2957 3023 2870 2888 3038 2986 2988 2917 2915 2973 2878 2965 2910 2979 3027 3091 2940 2985 2946 2887 2964 2943 3008 2907 2913 2966 2914 2887 3003 2903 2883 3005 2911 2913 2846 2910 2994 3037 2958 2891 2920 2978 2871 3031 2906 3045 2856 2962 3024 2971 2968 2909 2818 2979 2987 2941 2936 2848 2996 2926 2966 2984 2890 2915 2801 2940 2872 2891 2851 2866 2868 2778 2770 2995 2902 2931 2938 2890 2818 2885 2831 2887 2858 2899 2865 2896 2909 2929 2885 2874 2882 2792 2942 2898 2817 2847 2795 2863 2861 2901 2892 2821 2767 2742 2895 2901 2798 2920 2796 2844 2827 2769 2800 2859 2732 2890 2884 2788 2828 2942 2737 2855 2733 2885 2794 2806 2803 2805 2749 2922 2763 2676 2707 2795 2720 2735 2849 2785 2685 2773 2798 2800 2769 2740 2772 2705 2754 2860 2668 2825 2871 2790 2824 2763 2803 2712 2746 2746 2793 2817 2778 2811 2748 2757 2647 2710 2760 2788 2677 2648 2597 2764 2730 2700 2724 2690 2697 2792 2745 2848 2738 2649 2710 2692 2782 2750 2793 2681 2625 2693 2722 2717 2647 2694 2759 2744 2803 2664 2674 2737 2700 2750 2744 2718 2685 2730 2699 2760 2792 2633 2744 2643 2789 2625 2670 2684 2729 2794 2720 2669 2647 2755 2684 2672 2688 2688 2701 2787 2725 2694 2639 2724 2732 2644 2720 2625 2674 2689 2726 2722 2636 2659 2833 2732 2772 2752 2687 2673 2667 2807 2805 2721 2714 2692 2812 2612 2708 2819 2737 2728 2717 2733 2732 2720 2687 2753 2776 2731 2652 2786 2806 2830 2764 2768 2757 2729 2779 2718 2679 2748 2806 2745 2625 2767 2714 2754 2778 2805 2796 2813 2721 2768 2711 2758 2740 2774 2705 2701 2674 2638 2785 2716 2635 2683 2775 2670 2720 2627 2710 2788 2685 2726 2616 2754 2663 2711 2761 2689 2744 2695 2689 2818 2728 2822 2716 2715 2811 2698 2647 2676 2663 2753 2712 2651 2660 2577 2701 2774 2582 2597 2642 2728 2752 2626 2724 2732 2704 2632 2650 2733 2651 2726 2589 2629 2675 2743 2707 2619 2685 2581 2606 2610 2624 2540 2548 2655 2660 2643 2671 2603 2571 2630 2565 2596 2626 2571 2679 2605 2591 2623 2549 2603 2655 2702 2521 2589 2590 2569 2544 2541 2531 2590 2484 2515 2561 2442 2582 2516 2544 2500 2564 2514 2499 2492 2526 2535 2480 2415 2471 2504 2524 2490 2531 2488 2440 2572 2439 2585 2380 2547 2379 2490 2373 2464 2362 2448 2418 2422 2352 2427 2419 2432 2452 2480 2415 2356 2354 2432 2388 2370 2405 2433 2447 2472 2443 2427 2373 2345 2375 2372 2358 2340 2393 2403 2396 2284 2369 2335 2221 2411 2305 2252 2313 2391 2351 2243 2408 2279 2389 2233 2333 2244 2313 2198 2145 2293 2267 2279 2253 2260 2319 2226 2347 2253 2330 2173 2198 2261 2226 2274 2310 2302 2337 2322 2109 2303 2194 2252 2278 2241 2203 2219 2130 2237 2106 2090 2174 2094 2211 2179 2267 2112 2096 2175 2197 2208 2055 2199 2130 2172 2232 2181 2203 2218 2121 2082 2145 2168 2149 2115 2097 2227 2164 2146 2089 2047 2095 2137 2086 2128 2162 2150 2151 2198 2082 2114 2055 2067 2148 2137 2125 2168 2079 2127 2074 2113 2100 2076 2136 2094 2146 2178 2074 2183 2131 2151 2067 2131 2107 2125 2207 2164 2182 2087 2148 2198 2134 2142 2112 2078 2090 2187 2136 2208 2053 2084 2128 2063 2182 2123 2098 2072 2098 2054 2156 2109 2100 2080 2128 2082 2093 2111 2177 2005 2129 2140 2121 2084 2070 2052 2159 1990 2153 2089 2134 2141 2066 2028 2142 2169 2136 2132 2116 2100 2109 2074 2053 2128 2130 2175 2137 2120 2124 2229 2236 2164 2085 2212 2179 2111 2135 2118 2211 2198 2160 2045 2149 2141 2069 2100 2158 2070 2145 2175 2159 2146 2146 2022 2105 2155 2144 2110 2181 2196 2140 2117 2115 2083 2203 2032 2150 2041 2108 2114 2131 2077 2139 2168 2081 2120 2157 2138 2108 2184 2180 2121 2051 2067 2140 2178 2227 2159 2158 2109 2102 2123 2104 2253 2194 2222 2116 2108 2200 2138 2150 2205 2090 2119 2179 2134 2106 2237 2140 2184 2095 2157 2177 2132 2131 2223 2221 2100 2082 2021 2172 2168 2089 2206 2127 2105 2103 2063 2135 2075 2125 2133 2155 2196 2143 2008 2067 2031 2086 2158 2068 2127 2099 2046 2048 2079 2060 2018 2041 2041 2069 2061 2004 1989 2045 2033 2021 2042 1968 2015 1986 2038 2013 2025 1994 2070 2017 2062 2020 2110 2092 2068 2071 2064 2088 1965 1995 2001 1933 2068 1988 1987 2013 1992 1952 2033 1926 2065 2035 1953 1971 1911 1998 1922 1985 1971 1998 1909 2000 1971 1919 1995 2017 1982 1918 1973 1968 1897 1837 1948 1944 1975 1948 1986 1977 2017 1948 1920 1990 1964 1941 1893 1917 1879 1921 1844 1948 1925 1990 1959 1891 1886 1946 1950 1989 1904 1906 2009 1946 2055 2026 2016 1957 2129 1921 2061 2083 2049 2165 2158 2246 2281 2308 2478 2484 2597 2665 2723 2787 2891 2939 3053 3111 3106 3162 2984 3195 3113 3164 3149 3109 3079 3010 2922 2922 2984 2912 2752 2683 2638 2709 2634 2464 2363 2351 2282 2222 2236 2156 2116 2100 2124 2115 2123 2083 2114 2119 2027 2099 2046 2070 2023 2028 2003 1963 2124 2088 2075 1930 1924 1950 1920 1995 1948 1909 1838 1826 1849 1746 1869 1837 1821 1832 1707 1748 1862 1772 1813 1731 1800 1816 1764 1743 1784 1730 1810 1822 1697 1849 1791 1691 1840 1782 1850 1889 1850 1806 1809 1784 1761 1798 1737 1843 1857 1715 1953 1859 1860 1933 1892 1879 1869 2073 1979 2027 2190 2233 2332 2540 2605 2706 2815 2955 3125 3212 3405 3446 3699 3751 3834 3836 3944 4049 3974 4120 3953 3974 3790 3746 3859 3692 3610 3603 3390 3408 3242 3175 3025 2889 2876 2637 2581 2507 2440 2341 2283 2234 2164 2233 2240 2140 2081 2115 1992 2102 2159 2177 2059 2105 2080 2172 2079 2073 2179 2197 2076 2108 1961 2022 2171 2099 2024 2010 2040 2012 2055 2063 2044 1983 2056 1975 2126 1984 1954 1918 2012 2044 1918 1910 1928 1929 1881 1906 1839 1852 1744 1826 1791 1734 1746 1813 1720 1686 1762 1714 1665 1625 1653 1623 1601 1646 1679 1673 1677 1650 1590 1693 1665 1607 1648 1707 1681 1632 1623 1617 1560 1613 1599 1575 1635 1567 1561 1643 1575 1651 1600 1586 1574 1653 1585 1608 1600 1608 1604 1561 1491 1569 1547 1558 1540 1496 1542 1568 1557 1633 1470 1589 1522 1598 1550 1581 1557 1537 1606 1589 1597 1497 1532 1534 1526 1555 1533 1523 1547 1572 1654 1597 1523 1555 1625 1581 1662 1583 1551 1591 1704 1613 1729 1759 1732 1745 1867 1891 1793 1899 1969 2062 2045 2079 2149 2223 2152 2173 2202 2215 2274 2250 2122 2316 2244 2143 2128 2224 2166 2096 2063 2026 2037 2023 1983 1948 1831 1820 1805 1819 1753 1737 1684 1738 1673 1648 1647 1671 1625 1638 1597 1621 1627 1659 1620 1660 1651 1648 1671 1642 1626 1570 1648 1658 1612 1558 1559 1544 1593 1563 1573 1591 1624 1559 1586 1538 1562 1609 1580 1554 1513 1469 1500 1552 1515 1548 1507 1520 1491 1532 1547 1523 1529 1509 1564 1388 1489 1453 1430 1433 1483 1540 1521 1456 1521 1462 1385 1521 1442 1414 1557 1505 1448 1424 1470 1475 1417 1474 1469 1502 1486 1433 1513 1498 1405 1503 1517 1477 1533 1459 1446 1425 1433 1483 1502 1482 1531 1547 1500 1563 1577 1626 1450 1515 1568 1497 1451 1460 1484 1517 1582 1563 1613 1489 1646 1509 1547 1526 1541 1569 1553 1492 1525 1539 1480 1592 1500 1561 1590 1555 1549 1494 1491 1609 1510 1511 1448 1509 1471 1505 1538 1529 1453 1505 1477 1449 1483 1415 1527 1546 1617 1508 1541 1507 1508 1518 1557 1527 1509 1445 1498 1498 1483 1562 1497 1551 1547 1544 1506 1571 1553 1519 1654 1633 1576 1590 1565 1627 1580 1614 1639 1601 1600 1693 1714 1788 1719 1715 1716 1721 1832 1874 1808 1882 1839 1938 1940 1951 1977 2027 2077 2161 2097 2223 2297 2357 2518 2540 2584 2800 2988 3196 3346 3711 4053 4390 4737 5187 5599 6002 6499 7252 7406 7860 8258 8559 8846 9152 9347 9443 9461 9468 9324 9400 9177 9018 8878 8677 8510 7794 7508 7143 6696 6323 5716 5530 5223 4856 4517 4340 4096 3763 3618 3469 3234 3267 3248 3211 3146 3108 3187 3116 3191 3148 3394 3208 3172 3231 3158 3204 3094 3094 2864 2837 2754 2812 2691 2681 2524 2557 2406 2438 2355 2469 2433 2432 2381 2397 2411 2397 2278 2376 2330 2289 2481 2390 2358 2393 2383 2320 2386 2244 2266 2264 2232 2163 2108 2165 1971 1988 1916 1942 1931 1894 1797 1759 1782 1668 1729 1617 1656 1618 1579 1661 1554 1621 1529 1543 1447 1495 1474 1454 1467 1537 1545 1543 1448 1498 1409 1400 1448 1469 1483 1439 1406 1517 1478 1436 1502 1469 1450 1404 1444 1417 1361 1383 1400 1428 1417 1370 1474 1429 1352 1428 1454 1418 1412 1305 1448 1436 1370 1392 1326 1359 1436 1350 1430 1400 1449 1312 1414 1375 1402 1462 1423 1427 1341 1368 1405 1374 1401 1397 1335 1382 1421 1393 1352 1470 1342 1360 1407 1346 1386 1456 1366 1424 1447 1398 1353 1429 1360 1320 1355 1401 1385 1349 1376 1431 1433 1427 1339 1432 1421 1413 1379 1393 1375 1395 1418 1431 1390 1442 1402 1353 1469 1375 1377 1394 1431 1381 1357 1315 1364 1344 1450 1452 1400 1386 1380 1351 1392 1377 1363 1411 1353 1368 1410 1391 1443 1436 1380 1323 1374 1348 1296 1452 1338 1344 1377 1422 1378 1331 1351 1306 1354 1311 1379 1286 1327 1386 1374 1415 1379 1382 1395 1322 1354 1282 1337 1329 1317 1391 1369 1357 1376 1282 1398 1248 1399 1372 1358 1334 1349 1317 1388 1361 1350 1386 1398 1399 1451 1376 1445 1392 1387 1378 1448 1444 1386 1415 1402 1471 1486 1498 1414 1440 1395 1466 1418 1391 1437 1421 1457 1374 1362 1416 1355 1395 1355 1381 1336 1363 1415 1322 1372 1360 1312 1270 1331 1360 1314 1328 1237 1378 1285 1329 1358 1335 1312 1359 1324 1356 1393 1309 1311 1306 1323 1331 1280 1361 1310 1309 1296 1397 1399 1341 1385 1381 1298 1364 1345 1350 1363 1396 1393 1324 1280 1370 1340 1352 1341 1329 1309 1372 1293 1312 1258 1325 1304 1326 1334 1297 1341 1250 1332 1384 1371 1238 1285 1255 1308 1322 1234 1214 1345 1299 1316 1221 1346 1294 1302 1369 1221 1218 1355 1289 1295 1264 1324 1270 1286 1305 1293 1264 1250 1265 1251 1218 1330 1283 1241 1255 1197 1248 1205 1266 1220 1177 1251 1281 1239 1268 1224 1335 1253 1313 1281 1307 1198 1260 1272 1266 1233 1248 1277 1272 1284 1269 1205 1235 1327 1242 1237 1297 1280 1263 1316 1296 1201 1292 1317 1252 1261 1248 1211 1252 1258 1265 1215 1241 1260 1170 1217 1303 1253 1201 1221 1233 1218 1253 1230 1234 1306 1336 1173 1196 1245 1276 1227 1326 1228 1240 1252 1246 1232 1167 1263 1193 1298 1279 1215 1277 1281 1229 1279 1196 1217 1267 1248 1246 1218 1161 1201 1164 1290 1223 1246 1317 1249 1234 1221 1262 1215 1240 1184 1274 1217 1275 1259 1265 1234 1243 1232 1265 1258 1240 1236 1318 1262 1212 1230 1165 1329 1223 1116 1268 1194 1236 1197 1267 1253 1153 1246 1164 1223 1194 1241 1231 1272 1247 1228 1246 1250 1251 1221 1192 1229 1202 1226 1298 1213 1231 1237 1305 1231 1209 1207 1241 1269 1144 1246 1219 1257 1232 1226 1173 1301 1223 1239 1199 1274 1203 1301 1194 1240 1281 1181 1232 1177 1196 1309 1200 1246 1195 1206 1237 1220 1211 1282 1232 1222 1244 1209 1324 1267 1244 1319 1261 1244 1395 1330 1355 1441 1384 1391 1386 1432 1397 1451 1512 1533 1544 1575 1521 1526 1537 1530 1569 1614 1619 1601 1656 1630 1671 1582 1556 1608 1502 1557 1555 1431 1471 1422 1528 1496 1414 1502 1454 1419 1402 1354 1427 1371 1451 1352 1347 1314 1385 1275 1395 1283 1320 1306 1360 1360 1332 1281 1308 1254 1285 1368 1263 1289 1338 1245 1316 1216 1286 1292 1317 1323 1176 1268 1230 1184 1272 1213 1168 1232 1256 1220 1140 1175 1230 1250 1222 1189 1279 1173 1290 1162 1213 1183 1214 1198 1149 1257 1257 1229 1172 1168 1236 1170 1245 1158 1240 1206 1180 1249 1167 1221 1197 1198 1238 1178 1320 1265 1217 1198 1257 1245 1220 1263 1257 1183 1252 1198 1210 1199 1189 1208 1236 1188 1234 1276 1197 1227 1200 1247 1198 1263 1218 1213 1213 1223 1185 1266 1262 1186 1239 1245 1172 1222 1220 1236 1225 1214 1231 1255 1206 1201 1247 1231 1221 1162 1276 1203 1258 1224 1248 1191 1214 1216 1229 1284 1223 1272 1222 1274 1254 1295 1230 1204 1278 1254 1159 1214 1282 1176 1245 1273 1275 1212 1234 1169 1156 1201 1244 1286 1202 1176 1183 1178 1209 1173 1229 1252 1192 1257 1288 1260 1174 1206 1211 1207 1150 1157 1211 1195 1252 1163 1186 1238 1243 1246 1249 1216 1203 1336 1245 1254 1169 1215 1199 1222 1210 1263 1193 1202 1184 1254 1279 1256 1252 1207 1296 1170 1218 1213 1264 1240 1271 1220 1188 1209 1266 1241 1246 1209 1152 1192 1239 1218 1220 1154 1240 1188 1181 1152 1218 1215 1289 1223 1277 1240 1194 1189 1205 1225 1203 1226 1211 1198 1210 1209 1244 1227 1213 1218 1193 1253 1155 1207 1235 1224 1224 1232 1287 1224 1258 1255 1303 1266 1258 1254 1258 1301 1201 1229 1226 1220 1217 1249 1238 1258 1251 1259 1227 1298 1184 1286 1282 1241 1275 1226 1196 1221 1294 1220 1294 1270 1269 1239 1270 1302 1250 1211 1258 1245 1258 1226 1220 1349 1212 1210 1224 1217 1299 1220 1266 1291 1296 1318 1295 1348 1409 1384 1424 1410 1513 1482 1653 1676 1672 1761 1809 1869 1855 1820 1908 1980 1965 1968 1934 2052 1943 1974 2003 1939 1997 1911 1957 1852 1881 1890 1767 1734 1744 1654 1621 1587 1516 1526 1480 1522 1461 1459 1436 1382 1325 1359 1427 1391 1348 1306 1351 1326 1312 1300 1249 1241 1304 1261 1230 1320 1240 1247 1240 1271 1298 1283 1273 1245 1222 1235 1258 1270 1260 1205 1230 1256 1234 1193 1191 1246 1224 1140 1209 1223 1213 1237 1221 1186 1239 1230 1224 1250 1220 1200 1280 1260 1233 1293 1237 1222 1324 1260 1265 1227 1275 1253 1222 1257 1286 1224 1302 1326 1262 1279 1255 1303 1254 1265 1315 1327 1259 1338 1299 1296 1259 1255 1281 1234 1242 1262 1243 1269 1229 1241 1202 1245 1182 1233 1178 1220 1235 1162 1169 1206 1218 1170 1164 1240 1196 1200 1236 1106 1153 1180 1203 1207 1150 1098 1177 1212 1185 1207 1138 1194 1176 1205 1154 1196 1208 1218 1176 1266 1247 1178 1220 1222 1250 1182 1165 1188 1104 1152 1217 1133 1201 1216 1204 1219 1149 1148 1149 1158 1157 1202 1181 1232 1155 1232 1167 1165 1159 1150 1151 1200 1163 1158 1215 1155 1138 1129 1211 1207 1167 1166 1181 1152 1206 1177 1160 1251 1123 1200 1203 1182 1169 1196 1171 1156 1221 1187 1160 1160 1091 1179 1199 1108 1245 1182 1175 1194 1199 1224 1166 1202 1186 1195 1188 1129 1201 1168 1206 1229 1205 1190 1209 1223 1267 1196 1211 1180 1152 1174 1185 1230 1180 1158 1274 1156 1134 1086 1139 1237 1183 1214 1175 1173 1274 1217 1204 1239 1127 1161 1147 1190 1148 1141 1178 1223 1241 1210 1197 1146 1197 1216 1177 1220 1161 1278 1160 1177 1209 1209 1193 1198 1178 1146 1143 1214 1179 1248 1215 1296 1182 1196 1163 1202 1154 1184 1266 1261 1212 1288 1272 1223 1161 1183 1257 1196 1238 1226 1157 1202 1179 1233 1190 1318 1263 1202 1280 1267 1299 1307 1274 1312 1302 1341 1278 1254 1328 1299 1298 1315 1304 1265 1328 1312 1277 1320 1331 1366 1315 1386 1362 1338 1370 1387 1446 1389 1382 1467 1555 1497 1533 1491 1464 1493 1571 1578 1651 1739 1725 1751 1802 1831 1927 1966 2091 2218 2189 2508 2674 2834 2974 3221 3328 3653 3958 4176 4306 4586 4795 4924 5022 5198 5255 5364 5448 5558 5740 5578 5491 5561 5456 5325 5241 5080 4950 4727 4579 4361 4139 3846 3685 3529 3288 3118 3078 2982 2734 2627 2540 2333 2312 2290 2182 2067 2028 2027 1918 1878 1929 1914 1883 1770 1721 1682 1669 1765 1737 1665 1526 1599 1490 1558 1459 1463 1449 1435 1402 1435 1410 1345 1380 1263 1259 1318 1296 1220 1324 1262 1215 1275 1267 1214 1302 1272 1110 1207 1248 1249 1205 1313 1282 1295 1208 1266 1269 1258 1270 1292 1211 1333 1241 1285 1336 1309 1304 1368 1396 1400 1376 1393 1465 1419 1462 1421 1504 1446 1469 1504 1535 1466 1434 1575 1505 1520 1569 1428 1573 1532 1490 1389 1438 1447 1465 1449 1437 1420 1469 1441 1416 1359 1371 1349 1370 1331 1309 1415 1329 1345 1241 1221 1254 1230 1295 1335 1197 1284 1239 1232 1224 1218 1218 1225 1191 1227 1212 1238 1235 1197 1205 1183 1186 1191 1188 1122 1145 1149 1227 1157 1139 1205 1178 1216 1222 1239 1194 1210 1134 1175 1209 1148 1250 1188 1185 1237 1163 1201 1201 1121 1165 1146 1218 1207 1215 1173 1174 1236 1268 1206 1224 1163 1172 1218 1227 1241 1265 1254 1212 1232 1250 1292 1298 1347 1276 1340 1306 1362 1431 1428 1514 1509 1441 1530 1551 1573 1569 1601 1595 1653 1642 1552 1618 1622 1621 1584 1572 1588 1658 1553 1578 1552 1499 1478 1474 1460 1431 1440 1386 1412 1438 1365 1444 1427 1308 1278 1322 1257 1329 1322 1356 1266 1328 1323 1269 1242 1283 1219 1210 1287 1282 1275 1196 1144 1278 1170 1266 1171 1216 1188 1188 1178 1168 1200 1199 1288 1237 1181 1115 1100 1098 1104 1083 1170 1073 1150 1183 1147 1163 1140 1123 1112 1181 1146 1093 1176 1187 1172 1137 1174 1118 1152 1178 1099 1100 1171 1108 1173 1147 1109 1171 1094 1136 1123 1147 1108 1130 1085 1084 1102 1119 1159 1138 1102 1144 1104 1117 1063 1152 1099 1116 1138 1114 1196 1191 1168 1104 1094 1157 1105 1107 1131 1166 1120 1162 1140 1202 1176 1130 1090 1132 1120 1087 1128 1200 1182 1122 1080 1193 1135 1141 1106 1119 1135 1184 1165 1154 1135 1098 1107 1215 1136 1109 1049 1140 1124 1150 1147 1120 1137 1072 1148 1136 1117 1144 1136 1161 1125 1107 1092 1105 1093 1087 1107 1058 1088 1115 1172 1089 1050 1160 1041 1124 1104 1188 1143 1126 1095 1186 1157 1092 1161 1150 1107 1158 1143 1115 1226 1144 1178 1136 1146 1180 1161 1184 1223 1164 1147 1199 1163 1188 1146 1202 1152 1205 1158 1210 1193 1136 1193 1131 1174 1137 1131 1140 1138 1130 1102 1135 1144 1085 1151 1125 1100 1132 1167 1131 1109 1147 1135 1122 1129 1167 1130 1138 1109 1094 1071 1150 1144 1086 1105 1140 1072 1134 1069 1094 1034 1087 1074 1107 1122 1129 1124 1134 1112 1039 1056 1067 1076 1060 1046 1059 1103 1000 998 1041 1118 1070 1097 1069 1175 1054 1096 1082 1062 1065 1098 1085 1022 1059 1088 1038 1159 1034 1117 1123 1147 1090 1072 1103 1087 1116 1017 1084 1016 1122 1073 1085 1067 1072 1085 1136 1060 1063 1124 1125 1082 1082 1105 1139 1120 1112 1143 1115 1075 1080 1042 1046 1101 1113 1111 1098 1117 1010 1055 1054 1037 1063 1015 1098 1092 1087 1120 1068 1021 1020 1081 1073 1054 1087 1084 1069 990 1045 1064 1049 1068 1061 1085 1088 1073 1084 1087 1074 1078 1060 1096 1015 1045 1056 1076 1055 1055 1081 1086 1111 1060 1030 1055 1040 1133 1048 1073 1059 1070 1066 1050 1080 1051 1062 1062 1107 1009 1071 1151 1073 1041 1046 1117 1078 1081 1111 1068 1034 1097 1082 1072 1110 1105 1101 1134 1124 1051 1069 1096 1128 1068 1062 1056 1017 1070 1088 1043 1074 1047 1069 1063 1109 1093 1103 1122 1123 1087 1083 1057 1041 1106 1065 1026 1072 1067 1054 1075 1080 1035 1034 1064 1030 1109 1051 1086 1075 1107 1033 1029 1037 1113 1051 1092 1061 1052 1083 1061 1068 1094 1060 1039 1059 1106 1058 1005 990 1074 1046 986 1133 1052 1057 1067 1079 1057 1063 1018 1048 1081 1066 1073 1007 1089 1032 1055 1047 1085 1103 1062 1057 1039 1096 1095 1077 1073 1074 1076 1064 1043 1105 1134 1119 1102 1078 1081 1026 1068 1061 1004 997 1064 1045 1031 1051 1067 1044 1064 1056 1077 1163 1060 1030 1126 1049 1059 1071 1050 1024 1059 1134 1121 1111 1081 1046 1128 1097 1093 1070 1126 1199 1190 1170 1154 1197 1116 1155 1169 1155 1170 1167 1167 1168 1229 1162 1288 1184 1135 1229 1132 1151 1177 1153 1142 1219 1163 1171 1149 1116 1145 1112 1139 1100 1119 1116 1074 1102 1113 1089 1107 1088 1096 1138 1083 1108 1135 1089 1175 1135 1062 1113 1140 1105 1130 1126 1215 1149 1189 1226 1196 1246 1264 1320 1289 1380 1377 1363 1446 1464 1436 1447 1550 1457 1525 1615 1503 1541 1587 1506 1625 1539 1624 1475 1594 1545 1544 1501 1458 1452 1379 1385 1374 1331 1334 1327 1345 1363 1313 1299 1293 1255 1259 1250 1178 1144 1196 1205 1144 1163 1127 1138 1186 1113 1118 1027 1124 1083 1141 1040 1135 1086 1099 1081 1082 1111 1108 1070 1074 1097 1015 1042 1085 1120 1063 1066 1085 1076 1037 1060 1057 1064 1083 1091 1070 1117 1069 1073 1099 1057 1105 1050 1073 1092 1088 1075 1093 1109 1132 1122 1072 1153 1114 1114 1095 1130 1089 1133 1125 1143 1073 1207 1138 1099 1109 1114 1079 1152 1174 1065 1124 1117 1095 1132 1142 1111 1183 1175 1115 1169 1129 1184 1194 1133 1129 1223 1191 1221 1192 1208 1166 1203 1201 1201 1292 1272 1182 1234 1188 1217 1237 1178 1127 1215 1156 1189 1148 1118 1134 1181 1129 1104 1161 1108 1164 1077 1107 1122 1118 1089 1077 1089 1087 1046 1074 1087 1107 1083 1050 1059 1108 1026 1081 1111 1117 1014 1048 1035 998 1111 1092 1093 1074 1050 1066 1038 1160 1067 1111 1136 1088 1042 1047 1084 1135 1021 1099 1031 1107 1095 1035 1017 994 1059 1075 1067 1111 1003 1047 1075 1057 1045 1104 1044 1072 1083 1087 1075 1107 1088 1098 1044 1104 1091 1027 1044 1060 1052 1129 1054 1121 1114 1055 1094 1048 1094 1080 1091 1162 1091 1092 1125 1095 1144 1107 1121 1175 1122 1168 1266 1268 1312 1269 1334 1335 1422 1346 1511 1558 1643 1683 1696 1730 1721 1812 1800 1921 1908 1971 1958 1986 2063 1921 2044 2002 2038 2072 1963 1891 1913 1856 1833 1732 1705 1673 1664 1609 1680 1613 1669 1614 1574 1510 1542 1438 1455 1452 1444 1465 1484 1379 1399 1359 1324 1302 1318 1341 1280 1280 1292 1269 1266 1270 1268 1177 1167 1226 1215 1212 1101 1185 1163 1115 1189 1210 1161 1084 1155 1099 1142 1100 1110 1081 1063 1054 1088 1102 1000 1065 1109 1153 1083 1063 1107 1061 1025 1067 1015 1054 1029 1069 1078 1062 1018 1073 1038 1088 1022 1135 1035 1066 1028 1045 1042 1085 1066 1037 1061 1080 1095 1058 1026 1119 1064 1054 1054 1064 1049 1030 1079 1044 1061 1032 1033 1090 1047 1057 995 1001 1097 1109 1026 1139 1039 1031 1120 1058 1103 1084 1077 1113 1098 1062 1152 1059 1018 1097 1076 1066 1140 1032 1092 1107 1104 1081 1094 1083 1017 1081 1049 1083 1031 1076 1102 1075 1107 1114 1102 1095 1029 1129 1028 1026 1053 1081 1084 1090 1050 1046 1057 1095 1041 1065 1086 1137 1116 1133 1138 1099 1122 1154 1170 1119 1157 1146 1167 1242 1197 1165 1202 1248 1296 1266 1288 1227 1198 1259 1217 1195 1286 1309 1278 1238 1195 1265 1168 1199 1242 1195 1190 1114 1114 1150 1229 1166 1165 1118 1161 1147 1172 1136 1090 1122 1037 1096 1110 1126 1110 1027 1105 1140 1011 1064 1054 1097 1055 1109 1122 1040 1091 1044 1012 1055 1118 1038 1058 1119 971 1064 1071 1020 967 1022 1024 1035 1016 984 1039 1046 1045 1071 1014 1015 1071 1033 1020 997 1035 1061 1017 1020 1009 1035 1054 1061 1022 1036 948 1070 1013 1025 1011 1027 1052 977 1026 1061 1090 1016 1053 1070 1021 1013 1032 998 1070 1044 1051 1036 1024 1059 1065 1063 1058 1031 1016 1030 1069 1024 1103 1033 1012 1046 976 1027 1012 1029 1013 982 994 1047 1094 1043 1015 1009 1061 1038 960 1026 989 1044 993 946 1041 1018 972 1008 1032 952 1016 1052 1008 1006 923 1028 1028 1034 986 1016 1056 1090 965 1025 1025 969 963 1056 986 998 1062 1063 1035 999 1048 1047 1018 1037 1072 1033 1019 998 1050 993 1051 996 1079 1047 1068 981 1071 1088 994 987 1049 1061 1001 1034 1047 1027 1046 992 977 1028 1043 1044 1028 1040 1028 1100 1052 1052 1088 1008 1097 1017 1039 1079 1108 1068 1096 1053 1063 1096 1106 1066 1069 975 1125 1033 1068 983 1004 1000 1017 1027 1045 1064 1071 1077 1078 1085 1034 1026 1032 1039 972 991 1030 1057 1033 997 1005 1061 1082 991 1063 975 993 1035 1062 1080 1047 982 1019 1039 1016 1018 1048 1000 1068 997 1042 1039 1044 988 1021 1038 1015 1024 939 1033 960 1010 997 1016 1078 980 1013 971 1028 974 990 991 1029 922 1058 1016 950 943 1001 1017 1011 1054 1047 1010 1034 1005 1022 1036 984 1070 1028 1043 930 1030 994 997 1020 1017 1056 996 980 1015 1019 961 980 978 997 1044 1062 999 970 1038 1027 985 1006 966 1035 1004 1046 1008 1032 1010 1005 966 942 968 999 985 977 961 989 1044 1043 1029 996 1000 991 1016 998 1025 1028 1071 957 964 959 971 948 971 998 1004 1012 1036 993 969 1077 1030 998 1029 984 1018 992 1003 1040 991 981 1033 1031 967 993 986 949 993 990 1054 992 954 1012 986 1023 992 1029 989 958 992 922 983 1012 1022 1023 992 1046 964 1025 1020 972 1017 960 988 964 1017 1009 979 1030 981 1043 1025 1008 980 1016 987 1053 998 1058 987 984 1035 951 1037 1006 1007 1038 1029 994 996 1051 1033 1023 991 1039 989 1017 1007 947 1038 987 974 1060 1016 1066 996 1035 1005 990 955 1061 1000 987 1015 985 1015 998 1008 1014 1016 966 1052 1049 1029 988 1012 980 1035 967 1060 1075 1128 1083 1037 1079 1117 1097 1114 1094 1186 1159 1151 1170 1132 1154 1154 1131 1095 1155 1160 1107 1061 1091 1087 1058 1126 1099 1095 1083 1110 1054 1089 1033 1053 1079 1073 1075 1017 1048 1075 1038 1061 1085 1057 1016 985 1033 1043 1060 1024 1026 1067 1018 1034 1029 1055 1030 1053 1059 1023 955 1019 985 1001 998 948 996 971 1061 986 1026 1000 999 1034 1003 973 1036 1004 1008 978 994 1040 1029 1066 1043 915 980 1002 999 938 1009 994 1029 979 1001 975 1047 983 1049 1026 987 1003 1018 984 951 1018 1007 996 964 1005 1027 997 952 1028 1020 992 1033 971 1116 993 999 1012 987 1064 963 955 936 1003 989 1003 951 993 982 1005 1006 957 962 1003 960 945 958 996 990 1016 969 990 932 954 997 1034 1044 990 994 1012 943 1018 959 981 1053 1040 1027 989 987 999 1063 987 1017 972 945 971 954 972 966 977 973 1002 981 1007 1019 936 1035 997 961 1032 982 1009 1006 963 975 1019 959 977 955 982 950 954 996 893 954 961 1012 1007 1047 995 990 1020 1035 993 1022 949 1014 944 938 983 1032 976 1015 997 1004 987 992 1022 951 983 940 976 957 973 1034 1044 943 942 930 984 1042 980 1033 996 1050 951 1005 1021 990 957 1004 981 1020 944 993 972 1059 988 967 947 980 1036 978 1058 1065 1008 1021 959 1062 1085 949 977 980 974 1039 953 1031 1051 972 996 1016 993 976 1044 1010 995 993 992 1017 1076 1047 1048 1053 1041 1016 1040 1043 1212 1056 1084 1078 1068 1147 1141 1118 1134 1228 1182 1248 1238 1306 1204 1297 1329 1274 1331 1441 1358 1352 1428 1393 1433 1457 1446 1384 1450 1402 1342 1361 1355 1382 1332 1305 1344 1301 1306 1298 1263 1222 1287 1214 1267 1223 1228 1255 1201 1242 1154 1222 1151 1172 1136 1048 1083 1127 1100 1074 1079 1062 1023 1001 1007 1053 1114 1063 1041 1023 957 1063 1016 1044 1027 1023 989 985 1036 1029 1010 971 1017 1007 983 975 977 1022 974 1023 1000 1058 1011 1013 987 962 1024 939 982 1030 1019 976 1031 966 997 1015 982 991 1002 1034 1050 1029 1084 1031 1003 1078 1019 978 1046 1026 1018 1079 1072 1030 1000 1021 1041 1087 986 1025 1026 989 988 986 1040 986 1033 1069 1074 1011 986 1025 1014 1023 1024 987 984 999 992 935 1006 996 925 991 978 1022 978 1045 1051 961 1056 1075 998 988 1034 1022 978 1025 996 952 1003 1015 970 1076 1012 970 1028 1017 912 982 1016 1047 1001 977 1036 1000 998 1031 963 1020 1156 1021 980 1017 1018 1020 1029 1038 1053 1010 1006 1040 992 1014 988 1009 956 994 1005 1013 989 998 975 1014 1053 970 984 1020 1006 991 1009 943 1005 1028 1012 989 981 986 1017 973 1023 992 1007 966 1017 944 939 994 936 1037 1013 960 986 979 962 980 1004 964 1043 949 1006 1016 994 981 990 977 1010 976 1002 934 1025 961 998 972 1027 954 990 990 960 1034 989 1024 971 958 948 921 1031 952 982 1002 1003 985 989 991 1011 966 1010 968 1038 930 1049 1037 980 980 997 966 997 983 1069 966 991 972 985 996 1001 1000 1008 1050 1020 985 968 1024 1009 997 997 1049 962 1026 964 986 926 965 1017 988 1043 983 982 1024 934 961 974 1004 956 948 936 988 927 1060 959 985 926 959 950 963 955 1002 1027 988 976 979 978 1012 965 975 971 1023 971 1028 914 981 1024 934 1008 993 982 1003 1006 969 1030 1001 908 970 1006 962 990 915 985 972 957 997 951 1030 1009 990 1032 1050 1025 974 1012 1077 935 966 983 1020 959 963 961 991 975 960 912 986 942 978 982 943 957 1005 968 986 958 935 989 989 961 969 993 950 1049 1003 1028 979 982 1033 971 1015 950 972 948 1062 960 990 1008 988 939 1000 971 945 949 1006 1011 1000 971 963 1044 981 968 990 1005 993 985 1010 1039 1002 972 928 1004 1029 974 993 937 919 1031 958 987 980 989 931 1020 948 951 1010 956 1001 978 974 917 942 941 990 962 966 1019 932 983 924 1010 984 1033 1014 946 959 979 1021 1004 965 965 928 939 972 1020 967 963 964 916 938 1008 983 992 993 988 1001 989 1020 943 1038 962 948 978 1001 1001 992 949 1021 941 950 991 1040 950 951 985 1022 1005 946 976 944 948 971 976 956 978 1043 1045 997 971 1002 960 960 1078 978 979 1011 1020 1002 974 937 982 973 1021 991 1000 1009 997 951 982 994 989 1008 971 1028 973 951 1002 940 991 987 1011 1003 953 959 1032 938 967 962 946 940 977 998 922 947 1032 1059 919 1064 1073 970 982 1011 1020 1030 1015 1006 964 986 980 1010 954 980 981 979 1063 1009 939 992 999 1071 984 937 1000 1035 1012 1018 934 1003 993 960 996 1001 978 983 1013 1006 1046 985 965 971 947 981 1019 955 1007 1049 1018 1002 982 1009 972 1042 1099 1023 982 1005 1007 1084 976 1058 1043 1027 1026 1054 1084 1041 1081 1064 1029 1085 1029 1043 1132 1115 1092 1112 1171 1020 1132 1105 1082 1086 1121 1126 1048 1112 1116 1049 1064 1135 1028 1033 1089 1100 1039 1107 1095 1062 1030 1049 1024 1009 1074 1118 1008 1035 1112 1004 1038 1023 998 1055 1079 1080 1003 1096 1056 1107 1126 1072 1097 1103 1170 1109 1129 1097 1148 1112 1116 1146 1128 1159 1128 1145 1108 1177 1133 1112 1145 1103 1127 1036 1103 1129 1111 1117 1171 1121 1090 1117 1077 1085 1115 1160 1082 1037 1084 1096 1059 1035 1067 1031 1020 1078 1052 970 1062 1053 1018 1067 1092 1015 1030 1050 1019 1082 1017 1043 1101 988 1087 1060 1042 1016 1012 1019 1016 1018 1007 979 1053 1055 1058 1077 1003 1012 992 1018 1004 1093 1037 1050 1014 1051 1071 1040 1088 1051 1076 1014 987 1074 1027 993 1000 1018 1026 1060 1012 1084 1013 1066 1028 1031 989 1041 1059 950 1106 1090 1053 1012 1018 1054 1013 1000 1027 1005 990 1050 981 999 983 1060 1060 1033 961 1031 1001 951 1045 1038 1030 1034 1004 1000 1025 1023 1010 1070 1021 1056 1045 1032 974 970 1025 1007 1032 1012 991 1047 976 1012 1041 968 1050 1011 952 991 1036 958 989 1000 994 970 999 1054 1026 1109 1026 1033 1008 1039 1065 1023 984 1038 1072 1013 1012 1048 991 976 1045 1050 1085 1086 1060 1104 1087 1121 996 1076 1116 1092 1077 1055 1071 1103 1114 1079 1010 1126 1103 1144 1085 1072 1168 1099 1113 1129 1139 1113 1114 1222 1175 1193 1175 1206 1199 1238 1238 1292 1332 1383 1380 1485 1450 1521 1622 1612 1679 1701 1791 1629 1854 1781 1847 1878 1837 1849 1801 1761 1827 1792 1738 1858 1747 1676 1759 1638 1640 1626 1561 1600 1601 1583 1624 1634 1602 1629 1639 1605 1660 1622 1534 1545 1536 1486 1488 1459 1418 1385 1287 1353 1261 1316 1237 1175 1199 1220 1187 1217 1150 1155 1142 1156 1185 1147 1117 1120 1157 1108 1156 1148 1089 1107 1112 1056 1097 1086 1065 1018 1052 1025 1078 1025 1031 1027 1034 1079 1078 1074 1008 1077 989 1020 1065 1013 1060 1086 1046 1023 1017 1045 1037 989 974 1021 1015 1009 922 1003 911 1033 978 1009 980 1025 1043 987 1036 998 941 1029 1040 1032 1002 1047 996 1023 996 985 1021 1045 964 1035 959 966 958 982 993 968 981 991 983 1000 987 950 1108 1055 1051 1064 991 1054 918 992 1022 1017 985 1002 1028 1027 1046 1005 1020 1069 1011 1020 1019 1028 1049 984 1030 1021 1069 1081 1064 996 1069 1030 1092 1039 1094 1094 1056 1106 1086 1077 1099 1067 1057 1093 1102 1090 1056 1030 1063 1103 1071 1016 1064 1105 1104 1069 1116 1094 1132 1100 1105 1127 1148 1135 1158 1127 1124 1179 1195 1078 1138 1063 1119 1150 1136 1147 1064 1075 1077 1093 1071 1133 1120 1108 1064 1006 1040 1063 1047 1101 1053 1127 1065 1057 1081 1094 1004 1034 1035 1053 1102 1006 1006 1089 1080 1047 1036 1075 972 1077 950 988 972 1043 966 1025 1046 1035 1031 1058 1004 937 1024 991 977 1028 1017 992 983 915 986 975 975 1009 1007 1002 976 999 940 998 933 956 970 966 1010 967 991 948 940 993 979 1025 1049 1017 1002 989 950 986 1013 1051 943 933 937 998 1041 1011 984 953 960 984 1016 978 1063 965 1023 955 1037 952 989 986 934 977 959 1072 955 1022 995 1049 1078 982 1031 911 996 1008 959 954 1012 980 1070 1000 977 992 1033 992 1055 1007 1058 976 970 971 1089 1040 1015 1050 1015 1062 1006 960 1064 1057 1035 958 1045 1019 1036 1048 995 1046 1020 989 1002 959 1043 1008 1007 1070 971 1040 1006 1047 991 1019 1035 1015 1046 996 1030 1023 976 1049 1042 1031 1048 1040 968 1023 1003 968 989 989 1008 1017 960 1036 974 938 1037 965 1039 987 982 973 966 980 960 983 961 972 961 1009 981 980 943 1019 1026 983 969 950 1041 994 911 991 970 974 1019 998 996 948 951 1058 882 1043 939 1003 1011 959 1000 945 927 987 948 959 935 952 995 951 978 1003 976 983 958 1009 940 973 998 919 1011 915 999 981 940 999 974 975 976 948 916 963 970 997 1016 1031 874 1003 942 912 1003 965 985 965 1018 1031 947 985 977 1012 1033 978 979 960 1004 989 953 1045 996 1002 968 996 972 965 971 945 1013 954 979 1007 876 985 1022 952 982 992 1029 1008 938 987 1030 984 974 1028 902 982 1004 968 949 870 944 1024 977 1003 1039 992 932 934 989 994 988 934 1047 936 974 993 1001 972 984 902 951 997 970 996 976 995 946 982 1023 950 1005 1013 998 980 1005 1021 972 903 934 951 966 956 975 1035 960 1105 1009 984 977 965 949 945 982 945 979 987 1026 978 973 987 993 1042 992 983 986 987 995 1015 972 986 992 991 982 984 990 1026 989 1019 1034 1081 994 1038 1014 1036 1021 1021 1083 1053 1053 1041 1030 1012 1069 1040 1028 1099 1071 1056 1050 1102 1056 1045 1076 1090 1020 1072 1027 1097 1036 1066 1061 1031 1036 1065 1054 1062 1034 1046 1012 1027 1076 1017 1063 1026 1024 1044 1040 1002 984 1000 972 1007 1002 1005 1052 973 977 1003 1005 1018 1019 1043 960 1039 925 997 965 1008 1045 984 1018 1012 949 967 965 1006 944 972 1013 985 1009 984 930 999 952 966 972 1037 946 1004 1045 1020 970 1017 955 941 998 963 1001 964 974 1026 1010 1016 995 1019 970 1041 980 1004 942 968 1083 997 1002 962 916 991 1040 976 979 969 971 955 1002 997 1010 985 997 1004 953 985 1006 928 942 1051 999 900 985 984 1002 972 962 964 969 965 922 982 971 967 958 958 958 954 939 955 964 1020 970 1000 993 969 936 964 946 1031 912 990 960 995 1013 983 964 1010 940 972 999 986 1002 1029 985 976 1008 991 942 948 956 1002 1012 1011 985 985 993 995 955 976 1013 999 980 1033 946 1039 905 970 993 933 944 963 994 986 1036 983 1030 961 993 964 989 1047 940 1025 980 973 979 967 975 1002 1026 986 1018 999 1011 1012 1007 1009 1020 1026 942 1030 1000 990 1015 1022 925 986 1006 976 1000 987 958 1012 1007 1019 1015 1020 965 1064 963 1022 1047 1009 1038 1017 1066 970 1025 1047 1084 1041 1058 1025 1101 1022 1086 1029 1060 1083 1135 1126 1140 1059 1098 1134 1126 1125 1172 1164 1243 1285 1275 1297 1280 1379 1409 1373 1451 1475 1520 1504 1445 1533 1563 1582 1501 1585 1554 1599 1566 1547 1480 1442 1468 1485 1443 1399 1438 1461 1350 1377 1334 1334 1307 1393 1361 1351 1356 1411 1349 1360 1300 1371 1316 1282 1305 1291 1312 1289 1253 1273 1225 1220 1122 1186 1210 1130 1130 1128 1150 1123 1049 1086 1091 1103 1077 1044 1073 1063 1057 972 1009 1056 1023 1042 1036 1051 1010 981 992 1020 1020 979 1078 1018 1056 941 1035 1002 959 1062 1042 955 1027 1002 959 1038 968 1036 1032 1018 1007 1011 974 1040 1006 1061 1019 1025 964 1026 986 1011 1014 979 1016 1034 1017 976 1035 1080 987 988 1041 1049 984 1052 1037 1036 1018 1058 1017 943 1032 1024 1018 1063 960 971 998 1005 990 1014 963 1011 983 987 1000 952 979 1018 982 975 1017 996 960 1017 915 1024 943 969 1025 1008 1039 1069 975 1023 1029 964 1052 1024 1052 993 1008 963 1040 996 1033 1027 1022 1033 999 1006 1038 1046 1045 1040 1048 1079 1030 1006 1061 1014 1060 1014 1034 951 996 1045 970 985 1037 915 983 986 986 986 1040 1023 1074 1125 1049 967 1008 949 999 955 954 999 982 1020 1011 1076 1014 1060 925 1031 998 998 1019 1036 1014 1038 964 1004 938 1021 986 1013 980 1014 1012 1013 1034 1025 1021 1040 1022 970 937 953 1042 978 974 992 1000 1068 973 971 980 1005 971 998 1021 975 1036 975 1009 929 986 962 1009 1001 980 923 980 1016 980 983 1017 1050 995 992 974 965 941 950 984 1014 916 1022 1025 1036 972 1006 1032 976 988 983 970 981 963 990 1032 1023 975 950 990 1048 1006 1038 949 982 1007 1035 1030 979 964 981 966 1021 989 957 1001 913 982 943 965 1004 1003 982 993 964 970 940 939 957 1014 956 984 976 988 985 988 995 956 963 985 925 963 945 983 1011 960 1020 910 978 1010 942 948 944 959 979 959 968 951 972 957 941 1017 942 1009 965 1036 961 939 972 992 964 978 962 1006 934 967 968 1021 987 1008 1003 976 985 964 995 962 1014 953 938 985 984 943 1012 936 980 946 950 949 1013 961 946 970 943 973 955 977 968 1009 962 1008 992 991 1006 981 974 901 915 949 963 973 921 1033 899 956 1021 959 917 949 910 1023 945 941 963 943 974 948 994 951 1031 1029 987 933 917 969 977 937 991 976 941 963 990 938 928 949 940 966 1000 986 896 991 923 991 951 948 1011 1012 993 938 943 955 947 941 911 995 936 985 949 871 956 937 940 950 997 960 955 1019 969 913 957 961 945 976 1024 987 955 965 971 975 947 955 965 989 938 968 955 953 891 1055 945 983 977 974 950 976 925 933 978 975 1004 888 933 971 968 946 942 954 952 926 999 983 978 1002 986 965 941 1035 1054 916 912 936 950 904 982 978 917 997 986 924 898 943 948 935 942 930 977 983 905 933 1001 1029 956 1012 987 928 908 1019 948 936 940 1033 1024 1015 977 955 1010 957 965 977 930 967 982 944 970 989 914 963 973 947 1032 950 987 1006 969 976 980 913 929 978 976 970 1072 1007 928 926 995 948 1005 939 1007 989 1034 1009 1041 961 970 1021 1015 984 1025 1051 1067 1007 1061 1059 1084 1103 1112 1061 1075 1095 1092 1122 1037 1075 1037 1084 1037 989 1114 1086 1087 1070 1081 1079 1073 1057 1027 1041 1124 1031 1075 1029 1025 1024 1006 1050 1029 1088 1021 1065 1002 1004 1078 1094 1026 1088 1112 1027 1097 1041 1049 1058 1062 1033 1058 1063 1069 1077 1035 1093 998 1071 1030 1109 1045 1111 1057 1060 1090 1061 1146 1116 1063 1123 1058 1008 1107 1042 1067 1051 1106 1034 1013 1125 1091 1025 1030 1025 1013 1032 1034 1023 1031 1018 975 940 1008 1008 1044 1062 1020 1007 1054 1011 1041 974 1024 1002 992 1026 972 1040 949 970 895 973 1025 988 968 997 959 1023 924 1023 999 1004 1026 964 989 1019 977 975 997 951 960 939</counts>
			</dataPoints>
		</scan>
	</xrdMeasurement>
</xrdMeasurements>
