<?xml version="1.0"?>
<xrdMeasurements xmlns="http://www.xrdml.com/XRDMeasurement/2.3" xmlns:xsi="http://www.w3.org/2001/XMLSchema-instance" xsi:schemaLocation="http://www.xrdml.com/XRDMeasurement/2.3 http://www.xrdml.com/XRDMeasurement/2.3/XRDMeasurement.xsd" status="Completed" recordIdentifier="{510BAE06-4A11-4E2F-A867-A23AB9095C44}">
	<comment>
		<entry/>
	</comment>
	<sample type="To be analyzed">
		<id>GPSS_Li1p6Mn0p8V0p1Nb0p1Cl4_121825_6943d914f4d05ae3d69790b8</id>
		<name></name>
		<preparedBy></preparedBy>
	</sample>
	<xrdMeasurement measurementType="Scan" status="Completed" sampleMode="Reflection">
		<usedWavelength intended="K-Alpha 1">
			<kAlpha1 unit="Angstrom">1.5405980</kAlpha1>
			<kAlpha2 unit="Angstrom">1.5444260</kAlpha2>
			<kBeta unit="Angstrom">1.3922500</kBeta>
			<ratioKAlpha2KAlpha1>0.5000</ratioKAlpha2KAlpha1>
		</usedWavelength>
		<incidentBeamPath>
			<radius unit="mm">145.00</radius>
			<xRayTube id="1010048" name="Empyrean Cu LFF HR (9430 033 7310x)">
				<tension unit="kV">40.0</tension>
				<current unit="mA">15.0</current>
				<anodeMaterial>Cu</anodeMaterial>
				<focus type="Line">
					<length unit="mm">12.0</length>
					<width unit="mm">0.4</width>
					<takeOffAngle unit="deg">6.0</takeOffAngle>
				</focus>
			</xRayTube>
			<sollerSlit id="21010002" name="Soller slits 0.04 rad.">
				<opening unit="rad">0.0400</opening>
			</sollerSlit>
			<mask id="22031000" name="Fixed mask 13 mm">
				<width unit="mm">9.00</width>
			</mask>
			<divergenceSlit id="22120001" name="Divergence slit 1°" xsi:type="fixedDivergenceSlitType">
				<distanceToSample unit="mm">50.00</distanceToSample>
				<height unit="mm">1.52</height>
			</divergenceSlit>
		</incidentBeamPath>
		<sampleMovement xsi:type="spinningSampleMovementType">
			<spinnerRevolutionTime unit="seconds">1.0</spinnerRevolutionTime>
		</sampleMovement>
		<diffractedBeamPath>
			<radius unit="mm">145.00</radius>
			<antiScatterSlit id="22090040" name="AS slit 9 mm (PIXcel)" xsi:type="fixedAntiScatterSlitType">
				<height unit="mm">9.00</height>
			</antiScatterSlit>
			<sollerSlit id="21020003" name="Large Soller slits 0.04 rad.">
				<opening unit="rad">0.0400</opening>
			</sollerSlit>
			<filter id="20030001" name="Large beta-filter Nickel">
				<material>Ni</material>
				<thickness unit="mm">0.020</thickness>
			</filter>
			<detector id="7010019" name="PIXcel1D-Medipix3 detector" xsi:type="rtmsDetectorType">
				<phd unit="keV">
					<lowerLevel>4.02</lowerLevel>
					<upperLevel>11.27</upperLevel>
				</phd>
				<mode>Scanning</mode>
				<activeLength unit="deg">5.542</activeLength>
			</detector>
		</diffractedBeamPath>
		<scan appendNumber="0" mode="Continuous" scanAxis="Gonio" status="Completed">
			<header>
				<startTimeStamp>2025-12-21T14:13:08-08:00</startTimeStamp>
				<endTimeStamp>2025-12-21T14:21:16-08:00</endTimeStamp>
				<author>
					<name>AutomatedUser</name>
				</author>
				<source>
					<applicationSoftware version="1.7b (136)">PANalytical Aeris Instrument Suite</applicationSoftware>
					<instrumentControlSoftware version="3.2.00000000 20240306">AERIS</instrumentControlSoftware>
					<instrumentID>950485</instrumentID>
				</source>
			</header>
			<dataPoints>
				<positions axis="2Theta" unit="deg">
					<startPosition>10.00943322</startPosition>
					<endPosition>99.99442286</endPosition>
				</positions>
				<positions axis="Omega" unit="deg">
					<startPosition>5.00471661</startPosition>
					<endPosition>49.99721143</endPosition>
				</positions>
				<commonCountingTime unit="seconds">12.495</commonCountingTime>
				<counts unit="counts">3100 3149 3025 3177 3080 3099 3146 3097 3238 3172 3139 3188 3125 3155 3259 3209 3228 3190 3212 3197 3284 3316 3170 3196 3272 3215 3130 3197 3215 3188 3304 3280 3252 3324 3265 3275 3159 3225 3234 3183 3179 3326 3206 3242 3342 3319 3306 3350 3326 3311 3292 3385 3309 3364 3273 3270 3408 3415 3448 3294 3370 3343 3306 3429 3379 3446 3405 3397 3376 3395 3510 3440 3441 3497 3580 3595 3411 3672 3589 3600 3536 3557 3652 3653 3559 3587 3614 3451 3631 3434 3512 3577 3548 3721 3597 3527 3557 3555 3557 3634 3567 3580 3505 3541 3537 3521 3587 3573 3453 3688 3428 3541 3581 3544 3699 3559 3631 3701 3686 3566 3543 3549 3590 3636 3539 3615 3612 3531 3632 3579 3612 3596 3753 3667 3622 3660 3555 3640 3568 3632 3598 3657 3748 3660 3677 3721 3706 3640 3690 3625 3684 3510 3569 3666 3709 3731 3627 3608 3570 3709 3674 3632 3654 3543 3731 3756 3743 3621 3700 3768 3631 3736 3630 3710 3565 3703 3651 3665 3682 3819 3603 3597 3596 3621 3699 3707 3657 3654 3717 3619 3647 3740 3622 3605 3591 3535 3642 3597 3696 3548 3712 3625 3672 3647 3733 3634 3634 3654 3637 3585 3600 3505 3791 3560 3727 3571 3677 3547 3520 3601 3648 3632 3586 3527 3574 3608 3664 3633 3540 3586 3442 3562 3416 3496 3517 3580 3569 3561 3607 3555 3578 3453 3634 3589 3565 3531 3523 3681 3434 3506 3573 3474 3477 3538 3616 3603 3550 3561 3570 3464 3529 3347 3483 3446 3507 3349 3404 3445 3463 3452 3554 3548 3528 3628 3435 3600 3535 3511 3499 3525 3448 3428 3534 3503 3627 3428 3435 3425 3453 3576 3567 3636 3504 3432 3508 3502 3516 3547 3452 3553 3480 3578 3454 3493 3553 3597 3643 3411 3381 3529 3598 3522 3569 3603 3611 3537 3524 3590 3531 3515 3541 3606 3641 3550 3548 3486 3547 3569 3466 3458 3532 3632 3540 3635 3594 3744 3594 3579 3544 3604 3586 3677 3532 3665 3601 3632 3668 3767 3643 3574 3677 3635 3691 3614 3664 3702 3624 3638 3758 3746 3672 3666 3706 3735 3743 3722 3686 3693 3681 3721 3871 3756 3719 3770 3881 3750 3737 3735 3813 3838 3762 3899 3895 3830 3828 3734 3834 3770 3770 3914 3764 3801 3819 3948 3888 3945 3927 3992 3845 3968 3916 3921 3975 4122 4167 4042 4235 4157 4360 4414 4459 4412 4419 4565 4599 4695 4835 4893 4903 5026 4902 5098 4934 4743 4758 4793 4783 4749 4870 4828 4735 4863 4727 4814 4589 4665 4456 4530 4436 4417 4437 4255 4335 4296 4225 4163 4189 4133 4055 4043 4072 4051 4005 3869 3876 3940 3961 3951 3996 3991 3942 4035 4033 3926 4101 3997 3963 4039 3939 4090 4133 3950 3935 3940 4002 3878 3917 3884 3866 3943 3894 3804 3851 3855 3771 3783 3824 3825 3772 3778 3749 3728 3756 3755 3641 3650 3726 3613 3631 3705 3559 3557 3495 3526 3548 3573 3504 3443 3512 3472 3500 3480 3484 3495 3561 3407 3373 3451 3399 3487 3447 3504 3430 3473 3442 3538 3423 3385 3420 3492 3394 3493 3321 3407 3371 3294 3267 3314 3318 3400 3359 3477 3274 3229 3340 3414 3410 3350 3347 3382 3342 3407 3374 3358 3272 3322 3291 3356 3295 3272 3263 3282 3264 3195 3239 3215 3342 3332 3319 3127 3325 3178 3327 3128 3217 3180 3259 3316 3267 3162 3226 3087 3280 3177 3200 3121 3121 3222 3148 3254 3249 3179 3160 3236 3142 3221 3144 3151 3027 3163 3222 3249 3111 3142 3089 3152 3263 3154 3123 3085 3218 3114 3117 3125 3246 3167 3168 3079 3037 3104 3088 3236 3102 3048 3085 3129 3197 3198 3091 3154 2985 3196 3083 3195 3237 3039 2986 3020 3222 3134 3130 3093 3144 3146 3028 3100 3181 3073 3039 3098 3175 3121 2997 3122 3132 3088 3024 3054 3099 3050 2945 3114 3073 3096 3111 3019 2986 3063 3078 3085 3048 3180 2966 3137 3041 3061 3110 3108 2980 3164 3066 3092 3010 3086 3021 3072 2894 3075 3035 3024 3062 3059 2983 2977 3042 3059 2996 2985 3009 3120 2952 2978 2988 3022 2998 3042 3000 3087 2984 3016 2987 3026 3009 2911 3031 3023 3022 2991 2970 3019 2997 3013 2927 3126 3024 3035 2980 2994 3085 2989 3016 2871 2994 3045 3060 2970 2933 2936 3030 3042 2882 3009 2926 2999 3032 2963 2960 2916 2850 2995 2980 3128 2981 2989 2906 3012 2906 2887 2851 2943 2931 2917 2915 2963 2968 3002 2969 2965 3011 2930 2970 2884 2952 2922 3020 2929 2900 2955 2980 2850 2887 2977 2881 3036 2976 2979 2915 2929 2857 2906 2911 2851 2947 2896 2896 2805 2897 2865 2897 2877 2858 2828 2904 2840 2894 2770 2883 2875 2909 2948 2907 2856 2834 2832 2938 2859 2865 2841 2882 2895 2919 2788 2752 2851 2804 2850 2901 2768 2869 2813 2830 2817 2771 2909 2832 2916 2740 2849 2814 2881 2811 2830 2885 2789 2826 2811 2792 2779 2817 2827 2832 2759 2899 2871 2700 2795 2791 2762 2865 2828 2683 2751 2779 2800 2836 2790 2791 2770 2801 2696 2785 2647 2738 2802 2740 2751 2745 2730 2786 2813 2751 2755 2777 2688 2797 2777 2783 2839 2851 2661 2808 2654 2770 2646 2692 2765 2781 2677 2764 2637 2720 2696 2751 2655 2712 2705 2681 2759 2739 2754 2667 2731 2669 2699 2740 2770 2651 2680 2703 2678 2671 2684 2740 2629 2691 2759 2684 2685 2608 2701 2682 2750 2799 2632 2687 2690 2773 2727 2583 2605 2726 2785 2673 2637 2626 2625 2618 2636 2702 2644 2703 2634 2650 2562 2567 2657 2657 2621 2676 2601 2710 2689 2667 2662 2550 2539 2631 2623 2654 2509 2739 2613 2694 2636 2670 2621 2642 2563 2647 2593 2581 2621 2524 2655 2728 2602 2630 2564 2643 2668 2684 2585 2570 2717 2655 2592 2506 2576 2552 2658 2617 2599 2694 2620 2725 2568 2620 2676 2755 2627 2603 2607 2726 2560 2617 2573 2667 2646 2636 2652 2623 2600 2642 2659 2736 2713 2625 2604 2619 2634 2659 2608 2643 2664 2651 2634 2614 2609 2630 2572 2693 2622 2617 2670 2522 2662 2629 2634 2634 2602 2660 2678 2645 2572 2664 2695 2556 2628 2611 2674 2663 2683 2540 2639 2641 2675 2637 2660 2673 2660 2682 2488 2647 2579 2550 2678 2666 2527 2583 2665 2681 2485 2648 2669 2596 2602 2581 2709 2531 2608 2616 2527 2642 2652 2596 2569 2550 2470 2623 2612 2495 2626 2568 2438 2486 2517 2518 2484 2510 2447 2542 2532 2482 2530 2626 2499 2490 2445 2516 2455 2434 2563 2414 2578 2492 2513 2503 2476 2520 2530 2534 2531 2421 2450 2524 2475 2381 2470 2404 2503 2423 2427 2490 2485 2511 2442 2385 2410 2491 2387 2440 2339 2456 2446 2370 2353 2385 2471 2405 2375 2401 2364 2387 2452 2315 2360 2340 2333 2352 2345 2371 2322 2352 2333 2422 2331 2380 2303 2302 2268 2357 2273 2260 2281 2271 2297 2285 2318 2286 2240 2271 2241 2230 2316 2175 2220 2256 2288 2211 2306 2170 2216 2188 2234 2229 2219 2280 2092 2203 2201 2177 2192 2172 2165 2087 2169 2159 2185 2139 2232 2117 2122 2175 2188 2043 2124 2121 2173 2039 1965 2181 2118 2204 2119 2034 2076 2084 2051 2078 2179 2049 2130 2137 2106 2108 2077 2028 2058 2056 1996 2050 1986 2058 2103 2016 2014 2085 2080 2036 1970 2034 2064 2119 1991 2041 1988 1966 2132 2015 1963 1931 2002 1935 2027 1963 1989 1979 2011 2030 2031 1970 2020 1990 2017 2010 2044 1983 1916 1982 2037 1932 2078 1987 1963 1988 1896 1936 1858 1867 1976 1992 1863 1998 1912 1982 1938 1926 1972 1974 1878 1941 1950 1913 2010 1906 1895 1860 1886 1915 1935 1917 1947 1895 1924 1893 2003 1968 1899 1926 1913 1928 1949 1925 1959 1887 1883 1948 1950 1872 1942 1824 1856 1857 2012 1958 1925 1929 1902 1815 1871 1994 1997 1860 1876 1934 1897 1934 1816 1906 1931 1861 1903 1869 1872 1854 1893 1996 1895 1822 1892 1956 1930 2017 1868 1918 1922 1947 1867 1861 1913 1821 1925 1836 1935 1830 1852 1986 1830 1833 1868 1872 1868 1927 1889 1881 1844 1919 1951 1909 1892 1973 1984 1919 1893 1920 1763 1826 1900 1909 1952 1898 1846 1962 1910 1851 1941 1862 1838 1860 1915 1859 1964 1980 1840 1960 1898 1858 1867 1858 1925 1887 1886 1831 1876 1881 1871 1814 1884 1907 1814 1910 1985 1890 1882 1949 1921 1906 1890 1953 1882 1877 1875 1915 1912 1920 1794 1960 1937 1884 1904 1885 1851 1876 1851 1923 1878 1916 1906 1879 1864 1876 1929 1915 1919 1861 1986 1851 1889 1818 1910 1877 1882 1908 1767 1896 1872 1866 1931 1851 1835 1919 1848 1897 1842 1765 1871 1852 1772 1902 1831 1823 1786 1889 1751 1824 1849 1834 1835 1834 1821 1787 1795 1810 1794 1811 1864 1761 1839 1782 1861 1786 1832 1853 1814 1844 1862 1734 1805 1733 1802 1812 1833 1796 1834 1794 1761 1781 1756 1794 1701 1743 1743 1772 1719 1722 1752 1767 1768 1765 1826 1746 1767 1666 1735 1747 1753 1746 1720 1751 1739 1671 1701 1752 1722 1734 1673 1641 1679 1676 1643 1648 1678 1677 1606 1644 1697 1692 1708 1687 1644 1665 1716 1652 1639 1629 1671 1643 1598 1671 1697 1681 1614 1675 1597 1668 1648 1633 1572 1510 1645 1695 1673 1669 1625 1596 1547 1597 1640 1652 1550 1594 1642 1617 1560 1549 1630 1630 1620 1555 1535 1624 1574 1641 1616 1627 1587 1600 1572 1658 1540 1591 1600 1592 1592 1592 1559 1552 1589 1475 1584 1614 1596 1557 1577 1581 1634 1620 1622 1650 1558 1606 1690 1609 1608 1659 1671 1764 1762 1757 1800 1843 1960 2046 2066 2038 2196 2239 2189 2257 2255 2296 2319 2222 2332 2280 2317 2385 2262 2322 2280 2220 2154 2229 2199 2123 2130 2086 2013 2065 2109 2078 1910 1930 1936 1907 1802 1730 1730 1711 1729 1693 1589 1630 1611 1582 1556 1492 1432 1508 1515 1472 1513 1471 1432 1475 1489 1394 1436 1462 1435 1460 1381 1421 1447 1398 1453 1427 1419 1436 1402 1475 1366 1432 1389 1363 1458 1404 1376 1422 1384 1460 1428 1390 1410 1405 1374 1388 1383 1385 1452 1395 1439 1428 1364 1375 1426 1448 1363 1443 1451 1361 1362 1408 1379 1479 1493 1483 1457 1450 1490 1481 1600 1646 1683 1682 1710 1835 1913 1984 2046 2116 2254 2323 2437 2440 2566 2599 2694 2843 2772 2823 2741 2721 2828 2649 2785 2778 2807 2745 2724 2630 2578 2561 2614 2637 2472 2460 2464 2251 2249 2212 2036 1919 1968 1903 1729 1826 1737 1596 1668 1619 1594 1539 1566 1517 1535 1452 1469 1468 1397 1465 1470 1479 1547 1532 1517 1513 1515 1514 1550 1593 1549 1538 1570 1561 1604 1526 1451 1561 1484 1486 1528 1408 1484 1475 1376 1430 1414 1373 1421 1444 1341 1379 1409 1379 1388 1293 1295 1380 1280 1351 1271 1269 1275 1317 1269 1316 1245 1223 1237 1297 1226 1289 1222 1220 1319 1293 1224 1251 1261 1289 1225 1271 1263 1253 1272 1267 1251 1263 1206 1166 1178 1223 1234 1306 1268 1207 1289 1197 1278 1219 1264 1195 1283 1208 1213 1174 1141 1173 1233 1201 1259 1181 1222 1141 1231 1134 1194 1176 1175 1207 1161 1139 1212 1229 1208 1167 1198 1179 1222 1214 1175 1204 1176 1142 1166 1143 1197 1129 1167 1097 1129 1158 1128 1160 1134 1178 1171 1107 1177 1193 1109 1132 1149 1126 1248 1192 1129 1143 1145 1140 1120 1149 1113 1164 1143 1107 1135 1140 1149 1142 1110 1169 1085 1178 1126 1167 1163 1113 1215 1157 1150 1183 1231 1081 1162 1103 1128 1110 1166 1145 1163 1092 1107 1123 1140 1139 1138 1120 1085 1171 1133 1151 1151 1117 1133 1110 1175 1071 1076 1185 1136 1122 1124 1107 1056 1140 1132 1153 1125 1164 1085 1162 1146 1131 1141 1170 1141 1144 1175 1179 1124 1164 1207 1186 1139 1148 1155 1227 1226 1228 1293 1185 1210 1216 1224 1156 1259 1263 1160 1216 1183 1202 1297 1278 1246 1287 1217 1311 1190 1214 1285 1206 1147 1219 1149 1215 1176 1175 1119 1124 1068 1136 1085 1140 1135 1088 1150 1116 1173 1120 1087 1081 1140 1118 1111 1145 1079 1094 1155 1125 1162 1082 1122 1134 1099 1081 1212 1080 1136 1159 1088 1136 1140 1148 1064 1183 1093 1186 1115 1140 1151 1085 1146 1113 1109 1161 1174 1100 1084 1098 1179 1131 1144 1160 1116 1116 1131 1085 1111 1063 1110 1041 1086 1063 1133 1119 1130 1063 1116 1124 1183 1204 1050 1128 1130 1132 1123 1106 1203 1179 1155 1212 1111 1187 1183 1172 1160 1106 1152 1190 1179 1165 1192 1220 1166 1164 1180 1176 1172 1166 1221 1219 1208 1218 1219 1248 1329 1237 1325 1301 1381 1346 1415 1397 1497 1477 1532 1578 1663 1756 1884 1929 1988 2303 2436 2690 2870 3053 3462 3669 4057 4372 4646 5002 5032 5262 5472 5690 5833 5927 6098 5995 6125 6206 6110 6224 6024 6062 5862 6083 5691 5759 5563 5431 5327 5168 5102 4865 4729 4495 4233 3957 3726 3651 3421 3174 3015 2783 2765 2554 2523 2325 2195 2198 2027 2040 1928 1861 1855 1871 1836 1828 1774 1876 1812 1732 1792 1759 1780 1765 1808 1825 1827 1893 1847 1869 1807 1884 1824 1817 1798 1868 1823 1734 1855 1762 1787 1705 1683 1635 1675 1661 1552 1636 1533 1522 1562 1534 1472 1467 1351 1399 1426 1359 1380 1247 1222 1291 1241 1173 1239 1167 1197 1135 1176 1186 1131 1145 1018 1126 1097 1120 1144 1058 1032 1100 1092 1039 1067 1104 1059 1058 1043 1132 1084 1087 1039 1013 1000 995 1071 1077 1047 1144 1053 1053 1042 1017 1039 1008 1068 1030 1077 1056 1038 1080 1086 1044 988 1041 997 1048 1062 983 1043 1037 1022 1056 1004 1054 1007 1006 1079 997 1010 1015 971 1042 987 1011 1068 1047 1046 1032 1038 1025 961 969 1023 1031 1078 1037 1052 998 1002 958 1021 978 1035 1009 1013 1038 1038 931 912 1026 934 987 983 964 1040 1017 976 958 951 896 1028 1056 1045 961 1012 1034 963 1028 969 978 942 949 1039 1008 964 979 965 955 987 893 914 965 940 984 977 994 931 1029 933 932 973 943 965 1006 952 978 964 896 978 981 1005 911 970 961 948 949 934 992 930 972 958 947 987 973 984 1044 935 961 970 913 942 1037 965 957 973 970 999 939 1007 947 973 1023 977 997 944 981 928 979 979 963 972 935 950 948 910 948 985 939 970 982 1013 988 948 971 1036 1052 998 964 1000 1001 1033 1059 1047 1006 1016 941 944 964 978 985 974 959 991 1006 1008 975 944 978 970 990 952 967 914 895 976 898 985 959 958 992 923 976 968 970 989 859 948 934 1005 925 913 903 989 1033 924 932 930 913 955 923 1010 999 959 945 960 964 937 957 980 978 960 990 928 916 966 926 960 986 895 886 960 894 938 939 920 899 884 896 958 910 892 895 870 911 856 881 850 901 933 935 935 917 812 895 902 935 877 855 931 915 882 896 893 874 864 919 891 869 945 830 889 913 902 856 888 905 858 922 889 878 926 887 906 880 921 918 886 904 816 887 846 892 916 900 875 889 920 857 910 863 878 865 926 896 891 890 855 916 810 893 846 845 932 846 883 842 887 854 909 894 842 875 841 895 897 903 864 920 862 855 852 899 853 863 921 831 879 828 853 879 829 879 908 821 847 824 855 883 843 809 878 890 875 932 860 941 888 857 892 888 851 847 924 853 807 858 876 862 843 870 934 869 833 919 858 853 863 869 871 840 855 872 796 818 869 917 825 934 834 906 936 892 837 853 910 811 873 850 828 897 888 888 836 849 809 855 857 857 857 858 800 849 840 876 828 843 827 828 887 859 870 899 829 850 840 849 853 845 876 875 872 818 839 840 837 875 866 788 762 790 898 850 862 837 853 819 877 830 875 856 864 828 812 810 841 845 897 890 872 803 844 742 861 826 821 866 864 797 877 798 815 832 834 860 861 810 854 775 836 862 864 841 871 825 845 836 799 864 804 804 875 853 834 842 787 806 830 853 891 866 849 845 852 814 779 875 816 849 878 784 821 794 824 862 811 846 755 810 792 857 884 884 843 838 825 857 820 851 836 804 864 880 871 843 835 877 867 859 840 811 843 864 858 817 869 795 811 843 834 776 830 855 830 861 837 823 829 800 797 809 773 813 873 820 814 844 865 826 859 789 833 879 849 807 800 836 857 854 801 843 843 765 852 804 839 831 831 831 823 806 808 835 857 853 806 831 796 831 844 869 814 801 831 834 804 785 894 846 867 870 810 813 833 859 828 844 859 843 805 806 834 842 788 839 827 787 831 824 835 787 810 804 798 849 849 785 821 819 816 804 856 822 821 831 841 823 814 768 838 830 817 804 849 819 895 775 827 814 797 855 789 845 803 844 813 825 802 792 779 777 790 859 792 855 802 794 805 853 813 811 813 817 777 798 857 810 842 793 858 832 776 871 835 844 883 772 821 792 813 812 789 795 813 844 793 861 796 848 822 767 809 788 802 828 825 803 836 781 846 768 836 813 822 807 847 807 850 847 867 758 814 798 804 820 825 824 857 860 776 786 777 854 799 875 825 825 802 794 813 846 818 817 811 908 796 750 859 821 808 797 821 841 809 788 817 809 821 866 866 790 879 818 878 823 873 854 841 872 785 831 878 818 765 841 824 818 826 808 852 838 809 840 821 823 811 846 826 833 804 836 808 837 786 832 804 819 841 907 819 757 791 827 804 795 832 852 845 861 819 770 833 837 800 859 804 853 836 856 784 884 871 855 847 864 913 930 926 950 1014 1056 1065 1065 1120 1117 1161 1198 1246 1188 1188 1243 1246 1247 1250 1242 1188 1273 1309 1264 1258 1210 1264 1180 1224 1237 1167 1146 1119 1082 1109 1086 1066 1029 1059 974 1055 1017 992 927 955 905 906 918 891 820 805 872 850 858 848 858 813 753 825 804 810 832 822 841 819 836 817 783 880 797 785 850 819 780 881 783 807 806 823 786 818 788 843 778 803 768 790 785 801 764 808 795 862 824 789 777 768 808 804 765 847 785 835 807 806 832 839 823 890 756 818 809 845 831 849 795 804 816 822 795 819 759 859 819 804 780 764 759 758 817 814 792 798 805 774 769 794 797 774 756 799 748 843 769 786 742 728 783 801 756 823 739 771 723 769 819 771 842 781 806 778 753 769 766 752 763 779 786 751 796 788 773 785 738 796 758 787 761 761 785 755 813 822 756 794 757 756 768 736 810 770 806 752 791 795 686 745 762 790 805 752 766 771 788 814 750 776 784 746 777 788 760 786 766 773 742 780 771 855 709 793 766 749 774 736 724 775 773 810 750 785 799 784 772 764 794 799 750 799 761 773 739 755 749 761 762 783 750 784 768 823 781 769 784 791 759 743 741 831 766 773 740 788 811 782 771 783 789 772 807 780 768 806 730 790 766 795 831 821 786 761 821 788 817 812 796 712 818 773 779 771 778 765 794 750 791 758 775 761 771 822 764 783 725 778 751 796 790 775 811 709 765 778 763 771 743 723 760 789 799 764 777 830 777 810 822 760 799 778 794 765 815 767 794 739 763 744 815 796 792 743 830 757 778 811 803 776 804 704 773 818 841 743 832 794 747 769 778 749 804 834 773 840 817 799 826 791 873 824 844 868 859 896 849 854 901 883 815 919 899 958 956 990 978 990 1068 1119 1136 1241 1254 1283 1436 1515 1641 1759 1901 2123 2207 2242 2451 2504 2598 2606 2692 2680 2787 2912 2882 2947 3019 2973 3138 2975 3075 2969 2832 2942 2925 2854 2742 2636 2543 2528 2413 2384 2176 2114 2043 1943 1889 1733 1712 1689 1498 1461 1410 1398 1265 1287 1201 1197 1143 1071 990 967 991 1004 934 936 945 862 844 890 891 884 881 828 833 837 860 819 857 874 822 796 821 865 803 775 843 783 816 817 840 835 828 836 779 815 804 848 864 858 870 928 902 913 932 957 945 936 954 960 931 964 964 989 953 1008 952 1000 940 965 975 944 1003 1011 984 976 972 919 970 949 969 919 928 882 936 905 888 917 876 877 911 820 862 849 858 888 838 842 889 858 852 751 831 828 786 833 771 818 807 766 751 825 820 827 795 769 799 756 766 815 730 821 743 800 778 736 765 756 751 742 738 723 718 704 819 773 747 770 705 720 743 774 712 784 694 740 746 736 711 778 786 749 743 785 781 733 683 741 748 746 717 795 787 718 765 713 750 759 781 807 751 743 693 798 756 792 771 777 781 762 770 799 790 816 855 886 880 874 864 934 862 902 882 910 948 923 937 986 963 985 996 941 969 979 932 945 968 973 997 1023 957 937 894 924 911 894 914 902 870 896 872 870 840 875 848 803 824 793 778 812 829 823 791 753 788 687 745 750 747 755 721 705 709 753 707 732 713 715 740 711 767 791 731 708 785 681 680 736 716 725 721 744 700 665 730 723 699 690 729 717 727 730 690 722 685 699 717 698 706 714 721 639 697 690 696 713 699 728 714 704 712 716 693 705 678 699 694 714 709 679 672 731 709 699 683 701 676 685 682 682 734 695 686 714 649 714 651 675 654 675 712 758 673 702 645 683 705 656 691 701 688 726 748 703 688 670 686 666 694 673 692 674 684 668 703 699 677 704 680 710 752 699 678 698 721 708 688 700 674 680 630 703 673 665 727 683 698 692 706 697 653 696 691 645 711 711 742 737 659 695 705 703 744 702 683 706 707 647 652 688 683 687 643 639 674 667 696 672 669 659 681 673 650 684 767 650 730 686 677 683 679 686 695 722 674 697 669 696 700 665 674 671 639 659 661 716 665 693 701 707 672 717 675 699 689 700 679 702 700 726 671 695 697 662 677 627 652 662 665 671 697 672 683 675 664 705 693 635 648 671 642 683 685 701 681 688 721 645 634 656 641 667 642 667 675 664 652 623 667 653 639 653 664 669 688 708 725 663 689 671 695 685 690 664 699 637 684 643 670 697 704 709 684 693 674 692 694 675 639 645 671 685 603 724 640 677 677 654 670 667 711 659 695 701 688 646 703 629 678 651 651 644 692 695 628 636 666 667 645 685 687 681 643 636 634 662 637 656 646 649 671 670 653 663 639 721 654 654 653 677 640 701 673 654 708 688 622 665 667 669 655 650 704 647 670 637 665 699 657 623 668 668 673 682 657 626 652 661 621 621 656 679 643 668 692 623 696 667 667 677 654 628 683 613 653 610 647 635 654 659 629 678 672 681 617 619 640 684 666 684 636 660 631 682 658 632 622 701 672 652 640 635 674 589 645 645 655 652 636 637 644 648 596 664 589 633 584 643 662 667 652 660 658 623 598 637 663 688 645 654 686 603 653 629 640 647 678 648 649 687 656 622 644 691 666 621 652 614 629 662 689 706 653 638 677 693 641 646 641 658 642 650 627 650 625 605 632 616 675 662 666 636 659 651 633 643 691 640 632 681 640 644 658 662 647 634 647 612 641 653 662 636 615 688 701 670 646 660 635 672 661 640 692 597 688 578 694 608 633 649 622 694 666 692 670 702 668 684 676 720 714 724 661 673 707 681 684 658 707 741 719 676 695 735 690 712 722 725 649 670 676 658 713 714 747 672 702 679 681 670 684 597 651 686 687 643 685 687 683 675 644 670 640 665 641 677 624 693 671 663 685 698 740 718 724 687 726 706 750 737 770 813 748 820 813 875 894 849 884 889 865 855 858 921 895 893 841 936 917 900 910 920 921 915 874 890 849 850 849 807 857 765 781 818 742 797 758 726 809 739 745 691 703 756 774 661 732 716 680 687 672 721 683 628 640 637 673 627 682 664 671 661 641 652 679 675 667 653 672 654 632 683 662 598 661 652 624 678 604 616 679 679 671 668 625 672 617 678 697 670 674 696 660 647 626 649 695 675 628 623 690 624 655 686 662 641 693 692 689 683 640 693 642 681 675 729 657 662 682 707 715 723 702 685 761 682 656 703 681 699 683 710 708 708 700 706 710 705 652 710 713 716 643 681 645 664 674 669 652 613 717 666 620 649 669 670 636 640 642 664 654 635 620 635 591 658 606 642 659 669 615 621 640 648 655 634 666 653 632 708 637 687 646 628 627 613 618 693 655 615 587 655 673 603 669 658 582 584 681 652 666 595 614 655 614 654 640 627 644 642 655 628 661 644 660 642 661 637 628 630 668 626 632 666 618 640 680 629 629 674 659 624 615 661 669 631 661 664 652 688 642 660 639 657 662 676 682 663 662 672 705 675 679 674 666 702 724 682 709 738 798 769 815 845 872 844 887 941 983 1033 1029 1083 1051 1077 1103 1028 1065 1094 1154 1127 1133 1129 1148 1166 1088 1107 1155 1120 1044 1109 1064 1083 1074 1078 1016 960 1047 944 903 887 864 888 844 856 863 830 816 832 809 735 744 734 812 717 743 672 739 712 684 710 710 656 663 702 680 660 709 689 652 705 642 644 638 656 674 638 664 608 662 641 666 640 663 616 626 591 627 638 613 579 613 611 645 646 650 661 638 625 642 604 628 625 631 630 619 639 643 590 654 616 617 661 649 665 610 674 662 643 625 615 562 650 656 626 643 664 591 652 633 649 651 628 640 649 640 631 659 647 639 674 660 666 627 685 637 688 648 627 595 658 654 622 623 592 657 620 602 602 647 564 617 660 587 642 640 646 640 617 627 634 629 598 659 615 610 613 679 610 629 677 643 672 592 641 618 667 646 615 631 671 672 680 628 617 657 691 635 679 700 696 720 659 669 682 685 684 721 722 752 745 743 710 751 730 702 694 746 777 711 760 749 792 707 727 743 757 700 706 769 698 721 689 652 707 701 623 653 664 695 659 657 636 635 679 622 659 683 682 659 597 622 611 585 630 645 637 634 613 621 620 611 622 622 614 609 558 607 624 624 573 589 578 607 618 590 631 679 607 637 594 666 654 608 607 589 584 629 635 584 608 637 548 639 637 604 614 585 616 598 626 632 603 584 585 636 583 587 563 641 558 642 625 584 619 576 553 597 647 632 604 608 594 623 587 613 637 615 600 594 593 575 586 591 599 638 638 631 598 592 601 610 574 593 619 581 579 623 584 570 580 608 609 596 615 638 602 570 599 613 582 612 596 628 591 605 588 597 605 610 631 612 615 640 612 597 618 617 618 615 640 615 609 595 613 622 644 588 668 575 609 627 591 570 627 589 617 576 580 563 604 578 620 653 621 608 562 598 633 588 574 555 583 599 565 596 589 626 567 623 603 580 617 615 627 561 577 616 626 543 575 570 633 630 598 604 602 605 574 592 580 605 600 587 601 584 594 635 573 556 567 581 561 554 596 584 590 630 665 581 560 564 588 585 542 606 559 581 588 583 595 555 543 588 587 572 545 586 535 611 616 546 549 602 529 549 597 577 562 606 617 599 617 582 588 585 596 580 604 550 585 612 598 592 604 578 645 579 608 559 539 543 602 569 605 609 592 589 599 633 586 602 614 584 548 587 616 649 606 609 590 580 580 582 600 576 577 601 581 595 615 585 584 619 560 586 610 571 588 577 556 622 608 603 634 584 600 633 578 603 601 595 599 560 599 572 584 602 568 567 586 594 584 603 614 605 554 577 593 551 584 532 578 591 613 602 592 597 579 580 568 544 584 574 562 619 564 584 594 556 553 574 608 585 549 624 628 592 525 588 529 561 529 584 534 600 552 592 619 551 595 569 595 590 549 559 548 592 622 605 601 610 615 581 562 560 575 580 608 537 579 603 605 573 615 579 613 554 613 588 615 598 580 582 552 582 527 570 592 567 607 585 557 598 546 518 594 560 544 597 638 572 610 580 574 554 576 566 551 581 583 577 561 570 545 585 611 592 574 584 577 614 597 592 576 622 610 645 621 619 653 672 651 636 653 633 674 678 633 638 665 640 652 632 633 702 673 660 629 627 602 636 678 632 611 654 687 614 603 607 691 663 646 632 617 646 646 630 601 591 584 584 578 598 587 580 612 625 593 576 604 612 526 614 599 599 593 655 602 598 542 588 594 553 562 593 582 543 596 627 622 535 605 593 582 616 574 577 573 603 569 525 582 574 576 576 580 552 566 568 536 573 618 541 626 594 602 581 529 560 587 538 597 617 568 618 547 579 579 549 566 567 545 609 548 559 580 626 551 611 569 566 578 548 633 558 611 575 549 599 576 600 585 581 612 580 546 608 618 614 592 569 597 586 579 582 570 567 584 530 553 598 584 616 594 537 576 604 572 591 584 574 572 578 611 525 604 581 615 576 608 624 582 559 587 564 574 580 544 561 576 568 607 562 545 583 580 559 561 562 557 572 578 566 548 591 539 545 557 597 603 581 560 571 545 587 572 583 580 575 561 604 581 563 581 560 579 577 595 588 551 570 592 571 573 557 521 555 561 615 563 603 632 530 598 551 544 566 568 611 563 561 547 605 559 575 551 606 571 575 565 590 581 556 602 557 598 581 585 586 539 590 585 546 567 562 538 561 610 572 584 607 596 593 603 605 598 647 594 562 625 567 591 594 573 605 606 622 623 660 622 627 635 652 621 657 687 711 703 700 750 726 751 792 741 773 761 769 785 812 785 799 834 863 804 778 781 781 823 781 812 794 735 816 718 752 780 780 778 746 728 753 714 729 656 645 649 683 705 660 687 664 669 632 636 628 644 661 665 626 622 602 594 629 626 663 616 619 593 593 581 620 592 605 602 576 572 632 558 596 568 627 586 578 545 622 635 603 598 577 591 558 595 596 570 591 601 584 622 535 593 586 542 589 633 539 606 631 558 582 594 594 616 601 589 568 622 588 640 586 605 563 647 549 589 634 554 578 593 594 591 573 586 617 609 587 566 585 595 556 573 618 601 540 596 599 572 571 611 607 571 590 617 560 575 602 650 606 557 572 620 624 589 600 555 587 635 609 611 610 603 602 611 611 618 585 607 634 620 615 607 577 586 590 558 594 607 612 616 634 600 580 581 606 588 570 588 587 589 608 570 568 641 596 575 617 581 571 561 599 544 549 624 587 582 541 582 574 596 574 617 585 596 551 576 573 586 544 619 624 583 542 551 539 616 574 599 567 594 564 564 527 600 560 597 544 583 558 542 592 550 553 541 553 558 593 565 559 582 578 599 587 524 587 536 588 594 558 584 570 580 591 599 595 538 594 553 550 589 550 589 584 617 570 589 544 572 555 555 592 571 622 579 598 584 557 605 593 590 603 594 611 600 551 534 573 546 562 518 558 572 580 581 547 550 535 592 600 563 603 565 561 611 558 541 557 573 575 590 550 604 561 585 577 589 584 536 541 538 586 552 565 515 571 597 602 559 587 560 581 571 529 581 536 563 572 597 550 588 580 557 562 579 555 564 592 639 562 547 567 582 543 574 586 547 565 570 552 583 584 517 568 545 587 559 554 580 545 583 549 571 566 571 572 540 594 529 599 535 572 567 571 588 559 613 588 573 558 560 571 538 556 563 599 558 586 582 604 580 555 545 598 562 603 572 598 573 621 593 614 578 616 529 583 611 580 576 568 547 556 559 585 520 586 552 593 603 590 583 572 581 564 570 603 552 557 557 556 565 571 605 580 566 549 537 540 537 590 568 567 587 579 518 570 557 569 536 580 588 562 548 562 548 601 533 602 578 556 548 540 558 541 536 547 562 577 556 517 535 575 583 542 582 580 554 592 571 552 590 540 520 527 598 561 531 575 578 548 560 535 574 589 613 526 547 552 539 530 557 554 574 573 540 570 592 584 570 580 582 564 585 587 586 562 637 578 579 571 567 588 564 557 574 604 592 597 606 533 562 524 602 602 565 610 544 531 568 543 573 557 567 566 553 544 573 578 593 605 556 560 565 604 630 598 571 567 564 584 564 581 595 538 557 613 582 578 562 591 525 554 589 577 541 578 574 563 569 569 588 603 568 553 581 595 590 553 605 546 594 591 558 578 602 603 543 570 608 533 615 570 587 574 562 573 603 607 589 598 596 577 580 558 576 585 626 571 613 531 589 602 608 561 641 606 610 621 594 628 603 626 648 578 608 606 642 622 608 607 652 644 666 633 647 654 608 603 626 570 596 621 632 642 609 648 630 639 642 620 646 636 632 631 575 600 620 629 656 591 564 596 591 606 647 607 600 658 594 552 604 612 639 539 616 631 640 626 643 599 634 641 629 604 632 662 624 694 622 666 676 684 696 667 669 612 621 650 604 674 677 626 597 636 659 639 631 608 616 652 638 617 663 612 646 631 640 628 570 604 584 591 612 660 587 616 617 565 603 590 604 601 594 593 573 606 590 560 581 624 584 569 572 614 594 573 578 600 526 550 586 600 554 572 590 588 571 536 582 560 588 640 613 611 541 625 591 563 564 568 576 567 596 549 570 627 578 572 571 553 567 561 545 582 559 554 558 564 599 527 573 569 620 571 602 577 615 595 567 558 576 593 569 630 585 581 584 598 526 583 586 616 587 606 573 576 552 572 582 612 588 577 603 581 586 574 564 549 579 600 588 570 586 592 581 609 608 596 600 571 576 561 618 638 555 629 613 595 610 596 602 600 625 639 571 624 623 622 565 614 584 640 642 592 620 579 634 592 579 608 599 645 660 630 641 606 668 612 601 636 627 590 635 632 639 592 581 654 659 649 693 635 647 677 693 638 634 648 689 683 736 743 729 721 800 755 822 835 787 877 893 902 922 996 932 935 1027 983 978 969 998 973 1023 1013 980 986 969 1016 968 903 963 987 934 951 902 899 882 843 860 873 834 851 824 846 856 814 807 732 812 782 793 808 721 739 775 699 686 745 695 728 716 684 627 675 625 572 667 630 616 639 656 646 643 599 600 655 608 643 635 586 606 623 636 562 590 625 561 573 583 595 628 612 569 594 566 598 587 589 606 591 571 607 534 535 604 574 579 573 601 601 581 579 551 551 605 616 552 533 577 636 583 603 554 534 630 542 605 596 572 573 554 557 632 614 626 593 573 578 619 595 606 576 579 621 561 618 596 602 558 552 543 583 568 555 623 587 542 583 559 535 589 573 554 597 592 562 552 584 621 609 629 602 609 594 617 615 612 611 629 656 658 646 691 636 656 649 630 668 665 674 727 642 682 656 701 631 654 690 676 690 676 691 642 651 656 648 598 663 653 651 588 645 661 679 634 641 654 652 675 642 650 672 597 590 679 603 636 636 642 631 597 632 609 634 600 627 595 561 576 611 575 605 543 592 592 592 581 580 587 565 582 578 598 568 588 566 561 604 558 578 575 536 554 571 578 545 567 569 574 581 571 570 563 530 567 582 592 554 564 569 518 593 516 589 583 576 603 582 559 548 568 564 569 560 519 589 604 535 570 554 573 565 608 559 585 544 590 559 554 585 535 606 594 558 595 568 625 586 562 588 593 590 599 536 626 587 594 560 534 544 508 544 574 558 540 554 547 564 585 557 526 555 524 591 553 578 590 578 533 560 586 554 586 551 533 558 580 539 594 523 571 520 565 569 573 581 572 565 536 558 569 536 556 588 557 562 576 584 497 586 536 550 550 576 551 540 586 551 566 549 564 571 554 536 540 570 553 565 575 563 526 577 518 544 569 563 567 535 600 555 525 529 565 566 527 579 552 551 548 562 548 555 505 565 550 569 571 554 578 565 572 515 534 578 530 551 573 560 532 560 544 514 541 548 553 545 536 558 537 556 558 535 559 548 562 576 585 583 549 529 548 568 550 552 587 540 483 538 601 584 562 552 578 528 525 549 519 548 567 593 613 599 528 476 530 540 551 515 553 527 565 558 580 566 569 553 563 536 506 570 578 593 572 588 562 531 576 554 587 556 570 526 517 550 553 555 559 612 520 546 554 530 562 554 540 562 556 556 556 533 568 559 569 584 551 527 576 551 544 551 547 542 565 509 513 514 550 578 544 540 559 532 556 565 568 584 525 582 571 553 600 544 528 606 542 527 547 568 551 554 550 545 574 531 535 556 532 525 548 546 585 535 524 548 550 543 549 597 550 575 594 568 542 541 550 532 596 591 575 601 557 575 562 569 547 565 576 582 509 548 578 532 527 572 528 572 602 523 540 546 597 531 602 545 566 536 568 537 594 599 550 603 552 607 586 627 585 572 603 600 548 605 578 600 587 603 636 567 613 577 576 611 571 602 560 610 552 634 592 617 553 598 571 567 567 592 615 532 544 605 590 638 581 592 602 575 575 605 553 621 524 581 534 578 563 543 554 597 549 566 517 545 597 541 578 571 577 539 557 574 558 575 567 556 556 586 606 583 548 536 540 565 536 560 583 566 561 577 561 549 524 571 557 583 522 536 558 557 529 575 553 555 517 589 535 570 510 577 599 579 528 560 544 539 550 542 528 581 555 547 528 546 566 545 528 541 551 551 551 598 544 545 572 570 548 554 572 546 580 515 543 533 572 578 550 575 555 554 572 561 553 579 507 570 529 559 548 517 546 551 542 542 562 545 517 573 537 603 570 533 555 538 521 550 565 547 588 552 560 540 572 550 522 535 574 539 599 559 555 497 580 533 584 563 534 585 546 575 575 576 516 529 563 511 545 533 530 555 542 526 533 556 516 575 535 605 596 568 530 573 539 531 584 584 559 560 534 565 563 524 564 558 505 527 519 563 547 538 538 590 545 534 565 593 555 539 548 601 551 548 575 589 550 509 568 547 566 578 607 565 531 560 600 570 577 543 551 561 543 579 591 598 568 539 604 595 568 638 634 625 594 613 606 646 648 673 712 705 719 741 708 662 779 692 779 808 765 812 780 872 836 825 872 817 861 809 785 764 810 821 806 745 754 729 767 762 730 776 756 731 745 710 726 733 716 696 738 724 704 716 742 671 663 677 691 674 683 648 691 660 681 663 674 623 674 632 686 592 617 607 582 607 549 597 624 575 584 569 543 605 560 583 552 536 610 558 611 553 594 540 610 543 591 567 587 562 517 601 584 546 576 565 612 559 613 651 535 573 552 561 573 547 549 570 557 565 552 576 630 555 587 492 570 540 545 543 588 592 561 589 499 571 527 545 555 549 577 505 566 578 524 543 530 531 590 527 580 514 523 555 533 524 557 571 581 572 576 583 541 553 567 591 540 522 544 521 552 541 537 559 529 517 548 530 560 528 560 549 566 543 581 555 530 530 560 562 651 611 520 542 579 530 559 544 573 559 605 566 576 583 566 589 583 605 530 582 582 564 541 570 536 552 549 615 553 616 532 568 562 568 569 539 583 584 586 551 563 559 590 542 570 528 526 602 608 581 581 571 566 530 558 596 546 573 562 553 560 595 547 628 583 559 572 579 580 572 551 578 580 565 556 561 551 570 558 536 528 536 575 539 553 557 524 553 562 552 586 560 598 557 577 518 556 623 522 556 544 523 498 520 558 554 516 525 576 503 556 536 547 517 559 545 539 549 504 568 514 558 501 538 531 578 523 577 525 574 560 511 579 519 562 536 536 485 588 542 580 576 586 508 522 493 553 565 499 564 589 550 493 500 533 529 535 578 539 544 551 535 544 509 535 530 531 569 573 587 527 561 566 577 561 564 533 607 534 559 547 538 553 579 514 516 538 510 527 586 535 550 592 539 549 564 532 559 534 532 558 545 525 501 513 539 501 537 537 526 499 542 602 535 519 548 541 549 549 582 546 565 500 536 532 512 572 530 523 545 532 545 553 582 539 502 517 503 559 529 520 567 519 545 560 503 546 554 499 548 509 451 558 551 528 525 566 552 544 541 573 543 546 531 575 522 574 532 551 547 557 515 558 478 578 558 532 550 516 523 508 542 544 542 547 551 499 500 577 489 547 526 561 531 544 542 500 544 535 490 534 561 548 552 539 555 533 523 544 498 570 524 524 549 519 522 553 518 509 533 515 512 560 521 523 534 517 480 540 520 596 494 490 543 500 528 545 536 529 564 561 544 569 524 515 539 564 532 522 581 523 527 537 538 537 556 536 570 537 530 600 552 549 493 543 519 497 615 565 517 584 533 556 519 590 558 537 538 497 538 518 556 582 560 515 527 559 526 520 468 536 508 560 510 536 542 539 582 520 506 545 578 562 519 574 587 525 563 544 533 516 551 526 565 514 556 547 566 550 526 519 478 521 542 518 561 533 513 565 534 556 569 533 555 554 532 573 512 543 608 560 540 550 567 546 538 551 533 585 580 553 568 590 594 592 576 569 585 553 587 610 606 648 631 595 612 549 588 580 602 606 624 616 551 553 611 636 595 547 579 590 613 544 582 620 576 567 580 576 549 615 543 598 615 586 578 595 571 581 600 550 566 598 565 617 629 605 601 565 573 599 586 577 576 590 578 630 602 603 543 570 606 590 609 547 524 619 591 564 548 590 585 562 600 593 566 589 589 613 567 559 563 591 561 552 552 561 581 566 535 509 535 548 557 581 551 584 531 548 563 550 548 549 568 514</counts>
			</dataPoints>
		</scan>
	</xrdMeasurement>
</xrdMeasurements>
