<?xml version="1.0"?>
<xrdMeasurements xmlns="http://www.xrdml.com/XRDMeasurement/2.3" xmlns:xsi="http://www.w3.org/2001/XMLSchema-instance" xsi:schemaLocation="http://www.xrdml.com/XRDMeasurement/2.3 http://www.xrdml.com/XRDMeasurement/2.3/XRDMeasurement.xsd" status="Completed" recordIdentifier="{3DB608E0-525F-42F0-B8E9-63F5B88F4B79}">
	<comment>
		<entry/>
	</comment>
	<sample type="To be analyzed">
		<id>GPSS_Li1p6Fe0p5Mn0p3Hf0p2Cl4_112425_69248ac4f4e53d1f723993cc</id>
		<name></name>
		<preparedBy></preparedBy>
	</sample>
	<xrdMeasurement measurementType="Scan" status="Completed" sampleMode="Reflection">
		<usedWavelength intended="K-Alpha 1">
			<kAlpha1 unit="Angstrom">1.5405980</kAlpha1>
			<kAlpha2 unit="Angstrom">1.5444260</kAlpha2>
			<kBeta unit="Angstrom">1.3922500</kBeta>
			<ratioKAlpha2KAlpha1>0.5000</ratioKAlpha2KAlpha1>
		</usedWavelength>
		<incidentBeamPath>
			<radius unit="mm">145.00</radius>
			<xRayTube id="1010048" name="Empyrean Cu LFF HR (9430 033 7310x)">
				<tension unit="kV">40.0</tension>
				<current unit="mA">15.0</current>
				<anodeMaterial>Cu</anodeMaterial>
				<focus type="Line">
					<length unit="mm">12.0</length>
					<width unit="mm">0.4</width>
					<takeOffAngle unit="deg">6.0</takeOffAngle>
				</focus>
			</xRayTube>
			<sollerSlit id="21010002" name="Soller slits 0.04 rad.">
				<opening unit="rad">0.0400</opening>
			</sollerSlit>
			<mask id="22031000" name="Fixed mask 13 mm">
				<width unit="mm">9.00</width>
			</mask>
			<divergenceSlit id="22120001" name="Divergence slit 1°" xsi:type="fixedDivergenceSlitType">
				<distanceToSample unit="mm">50.00</distanceToSample>
				<height unit="mm">1.52</height>
			</divergenceSlit>
		</incidentBeamPath>
		<sampleMovement xsi:type="spinningSampleMovementType">
			<spinnerRevolutionTime unit="seconds">1.0</spinnerRevolutionTime>
		</sampleMovement>
		<diffractedBeamPath>
			<radius unit="mm">145.00</radius>
			<antiScatterSlit id="22090040" name="AS slit 9 mm (PIXcel)" xsi:type="fixedAntiScatterSlitType">
				<height unit="mm">9.00</height>
			</antiScatterSlit>
			<sollerSlit id="21020003" name="Large Soller slits 0.04 rad.">
				<opening unit="rad">0.0400</opening>
			</sollerSlit>
			<filter id="20030001" name="Large beta-filter Nickel">
				<material>Ni</material>
				<thickness unit="mm">0.020</thickness>
			</filter>
			<detector id="7010019" name="PIXcel1D-Medipix3 detector" xsi:type="rtmsDetectorType">
				<phd unit="keV">
					<lowerLevel>4.02</lowerLevel>
					<upperLevel>11.27</upperLevel>
				</phd>
				<mode>Scanning</mode>
				<activeLength unit="deg">5.542</activeLength>
			</detector>
		</diffractedBeamPath>
		<scan appendNumber="0" mode="Continuous" scanAxis="Gonio" status="Completed">
			<header>
				<startTimeStamp>2025-11-27T09:41:22-08:00</startTimeStamp>
				<endTimeStamp>2025-11-27T09:49:30-08:00</endTimeStamp>
				<author>
					<name>AutomatedUser</name>
				</author>
				<source>
					<applicationSoftware version="1.7b (136)">PANalytical Aeris Instrument Suite</applicationSoftware>
					<instrumentControlSoftware version="3.2.00000000 20240306">AERIS</instrumentControlSoftware>
					<instrumentID>950485</instrumentID>
				</source>
			</header>
			<dataPoints>
				<positions axis="2Theta" unit="deg">
					<startPosition>10.00943322</startPosition>
					<endPosition>99.99442286</endPosition>
				</positions>
				<positions axis="Omega" unit="deg">
					<startPosition>5.00471661</startPosition>
					<endPosition>49.99721143</endPosition>
				</positions>
				<commonCountingTime unit="seconds">12.495</commonCountingTime>
				<counts unit="counts">3051 3086 3082 3135 2991 2970 2961 3043 3010 3086 2833 3178 2946 3070 3140 3043 3032 2982 3024 3096 3135 3019 3065 3028 3013 3187 2997 3092 2930 3048 3000 2944 2947 3002 3061 3007 3050 2930 3078 3067 3115 3085 3058 3164 3021 3094 3071 3144 3026 3097 3022 3045 3059 3064 3141 3039 3158 3079 3041 3007 3142 3091 3030 3182 3105 3113 3093 3174 3186 3224 3275 3131 3348 3276 3310 3209 3280 3276 3293 3192 3259 3247 3218 3263 3260 3138 3204 3169 3095 3171 3080 2952 3106 3191 3087 3022 3101 2977 3102 3114 3054 3086 3004 3026 3079 3213 3107 3142 3142 3148 3154 3126 3132 3005 3137 3018 3054 3051 2978 3048 3031 3110 3181 3039 3100 3082 3137 3051 3141 3145 3179 2979 3063 3067 3101 3100 3004 3122 3158 2984 3128 2965 3109 3113 3054 3156 3036 3042 3044 3045 2995 3003 3053 3059 2993 3099 2991 2941 2990 3087 3117 3106 3008 3114 2999 3025 3075 3044 3037 2984 3076 2904 2958 3001 3038 3088 3060 3127 3005 3014 2972 2970 3068 3011 3107 3001 3133 2936 3072 3084 3098 3105 3105 2996 3103 3038 2939 3052 3036 3050 3040 2946 2992 3040 2940 3047 2998 3010 3031 3008 2987 3002 2974 2957 2984 2967 3075 3005 3017 3034 2969 3042 3014 2963 3074 2982 2971 2911 3013 2895 2940 2994 2987 2989 2978 2970 2991 2996 3055 3034 3051 3029 3102 2940 3008 3013 2920 2979 2825 3078 2952 2965 2927 2980 3025 2924 3038 2999 2921 3006 2849 2916 2990 2889 2933 3049 2919 2978 2892 2924 3053 2958 2885 2936 2959 2950 2999 2901 2910 2962 2894 2924 2833 2909 2879 2872 2932 2910 2993 2953 2781 2854 2942 2759 2890 2956 2906 2956 2870 2871 2899 2946 2919 2927 2933 3003 2906 2961 2866 2950 2903 2827 2875 2891 2949 2937 2921 2894 2857 2855 2910 2963 2863 2865 2928 2919 2963 2968 2920 3040 3008 2899 3008 2921 2937 2999 2888 2907 2964 2878 2950 2965 2891 2973 2993 2895 3003 2934 2997 3010 2960 2950 2863 2919 2964 2919 2977 2992 2992 2981 2953 2900 2916 2973 3008 2916 2973 3105 2977 3046 2996 3004 2916 2959 2950 3024 2993 3070 3124 3082 2959 3123 3067 3056 2963 3127 3060 3089 3107 3065 3109 3123 3092 3044 2981 3167 3106 3140 3101 3224 3124 3108 3208 3181 3389 3290 3179 3376 3146 3322 3311 3361 3396 3489 3542 3566 3528 3789 3690 3677 3777 3861 3937 4112 4087 4171 4147 4211 4041 4088 4021 4023 4036 3993 3687 3855 3727 3725 3581 3770 3727 3540 3640 3572 3446 3515 3456 3368 3436 3363 3477 3531 3256 3369 3455 3360 3472 3385 3404 3457 3328 3450 3375 3316 3420 3508 3455 3414 3397 3237 3339 3310 3326 3446 3311 3320 3238 3264 3182 3273 3278 3183 3172 3266 3165 3233 3173 3151 3210 3185 3276 3213 3058 3168 3056 3142 3079 3172 3185 3071 3081 3130 3223 3129 3151 3147 3126 3156 3152 3106 3080 3008 3081 3050 3093 3106 3062 3148 3108 3082 3156 3070 3169 3105 3086 3127 3040 3075 3035 3066 2990 3072 2994 3035 3062 3079 2986 3008 2961 2992 3012 3109 2910 2926 2899 3052 3010 2940 3017 3073 2953 3009 2979 3004 2998 3034 3058 2901 2951 2960 3037 2890 2946 2893 2935 2972 3018 2816 3004 3056 2971 2865 2802 2987 2812 2881 2758 2881 2956 2938 2858 2930 2808 2905 2891 2928 2888 2919 2906 2890 2940 2848 2776 2834 2758 2786 2914 3003 2904 2946 2658 2926 2845 2824 2763 2836 2811 2813 2835 2789 2778 2842 2821 2940 2697 2742 2774 2765 2846 2739 2863 2745 2787 2846 2691 2825 2748 2811 2735 2842 2754 2822 2765 2801 2750 2787 2719 2824 2815 2840 2861 2806 2789 2650 2755 2676 2830 2731 2877 2853 2704 2806 2732 2722 2822 2660 2867 2843 2806 2776 2691 2794 2749 2763 2773 2771 2808 2822 2792 2688 2809 2816 2822 2819 2759 2748 2789 2723 2814 2815 2901 2807 2780 2770 2682 2760 2790 2789 2797 2794 2685 2716 2767 2704 2771 2680 2697 2745 2790 2769 2668 2631 2764 2583 2756 2760 2695 2711 2733 2768 2763 2727 2728 2667 2694 2659 2629 2728 2804 2706 2590 2796 2787 2619 2666 2683 2684 2614 2744 2653 2696 2743 2696 2738 2618 2691 2755 2640 2658 2651 2719 2627 2642 2681 2682 2707 2721 2686 2692 2641 2633 2685 2621 2679 2760 2648 2700 2658 2726 2675 2613 2725 2598 2712 2624 2730 2594 2770 2654 2649 2564 2698 2639 2632 2696 2705 2696 2681 2728 2577 2651 2673 2587 2681 2653 2678 2666 2694 2774 2671 2602 2593 2537 2611 2634 2626 2596 2618 2676 2623 2574 2613 2560 2605 2603 2590 2596 2589 2644 2524 2573 2625 2623 2553 2673 2621 2647 2576 2594 2550 2589 2577 2568 2616 2607 2604 2592 2525 2632 2584 2563 2669 2543 2631 2575 2552 2546 2598 2585 2570 2650 2507 2531 2579 2541 2637 2475 2560 2713 2563 2527 2565 2626 2513 2564 2531 2517 2486 2467 2624 2486 2497 2569 2511 2535 2549 2526 2488 2568 2549 2483 2471 2544 2540 2593 2480 2510 2470 2551 2450 2513 2548 2490 2567 2479 2543 2492 2492 2564 2514 2472 2508 2535 2575 2501 2516 2539 2579 2489 2532 2492 2441 2531 2501 2583 2557 2485 2497 2470 2561 2421 2424 2451 2420 2498 2486 2533 2465 2376 2537 2494 2420 2482 2413 2446 2516 2486 2438 2465 2555 2423 2437 2425 2445 2402 2490 2468 2521 2394 2357 2482 2512 2491 2519 2455 2457 2442 2519 2531 2522 2442 2436 2411 2281 2315 2420 2459 2376 2469 2379 2485 2433 2370 2458 2422 2419 2322 2350 2381 2370 2358 2365 2396 2350 2437 2353 2358 2336 2315 2425 2333 2300 2306 2368 2377 2373 2365 2409 2348 2329 2297 2337 2348 2262 2296 2396 2254 2278 2304 2281 2400 2328 2276 2410 2229 2267 2364 2307 2315 2338 2292 2199 2353 2256 2205 2293 2232 2250 2216 2248 2242 2260 2272 2247 2290 2194 2122 2146 2227 2230 2259 2358 2170 2245 2138 2164 2193 2185 2153 2130 2156 2250 2208 2164 2183 2214 2087 2063 2109 2163 2155 2167 2131 2159 2129 2157 2217 2152 2080 2143 2106 2223 2202 2151 2083 2111 2095 2089 2115 2102 2060 2109 2115 2087 2194 2077 2143 2105 2080 2158 2074 2149 2143 2042 2150 2103 2025 2120 2097 2120 2047 2118 2097 1990 2036 2068 2023 2039 2094 2023 2115 2078 2043 2131 2040 2081 2138 2033 2024 2055 2002 2016 2038 2017 2025 2029 1985 1938 1968 1987 1998 2042 2058 1973 1996 1923 1995 1913 1922 2003 2059 1918 1903 1925 1870 1898 1946 1940 1905 1961 1893 1903 1891 1983 1917 1972 1904 1863 1922 1890 1812 1900 1869 1819 1853 1950 1889 1871 1820 1866 1854 1841 1868 1873 1877 1776 1871 1828 1852 1810 1852 1797 1770 1788 1851 1816 1838 1856 1773 1768 1818 1706 1747 1754 1690 1733 1685 1785 1754 1750 1745 1756 1702 1733 1704 1725 1705 1689 1671 1713 1742 1695 1673 1648 1662 1763 1697 1624 1664 1625 1639 1640 1658 1664 1684 1581 1670 1654 1673 1647 1629 1639 1669 1572 1603 1573 1562 1625 1589 1610 1665 1580 1679 1595 1591 1621 1479 1548 1520 1664 1553 1523 1547 1583 1587 1542 1529 1530 1571 1549 1521 1541 1460 1548 1539 1510 1446 1560 1466 1509 1548 1478 1514 1519 1480 1517 1521 1448 1467 1539 1530 1429 1439 1393 1353 1407 1388 1482 1429 1474 1402 1412 1412 1368 1387 1432 1473 1441 1436 1446 1401 1360 1416 1434 1364 1342 1443 1458 1383 1377 1397 1441 1381 1431 1462 1305 1358 1367 1373 1354 1365 1375 1347 1289 1314 1389 1394 1377 1364 1311 1316 1339 1319 1298 1335 1398 1253 1331 1304 1339 1362 1367 1337 1351 1229 1305 1228 1294 1308 1250 1360 1312 1306 1260 1267 1226 1253 1316 1278 1238 1216 1250 1310 1302 1250 1269 1283 1282 1234 1251 1258 1181 1189 1273 1256 1181 1172 1227 1253 1258 1235 1322 1230 1157 1183 1234 1216 1206 1128 1251 1239 1272 1208 1238 1186 1182 1163 1235 1134 1241 1233 1173 1103 1168 1130 1216 1212 1204 1165 1139 1151 1173 1153 1143 1183 1112 1177 1082 1149 1151 1098 1184 1129 1166 1130 1111 1163 1113 1068 1143 1119 1170 1084 1109 1133 1162 1115 1106 1166 1162 1125 1056 1094 1137 1095 1096 1049 1046 1073 1103 1089 1044 1099 1064 1070 1066 1106 1057 1091 1058 1085 1132 1041 1065 1047 1086 1052 1097 1106 1072 1096 1042 1043 1131 1038 1079 1097 1093 1065 1034 1063 981 1081 1040 1010 1044 1060 1026 1045 1066 991 1012 1002 1067 1018 1078 1032 1104 1077 1055 1124 978 1045 1011 1028 997 1064 1099 1145 1092 1008 1072 1062 1027 1040 1066 1029 990 1079 1031 1071 940 1038 1049 1063 1047 1043 1048 1051 1049 1043 1032 1026 1037 1064 991 1053 999 1079 1051 1049 1098 1082 1060 1017 1096 1066 1016 1044 1045 1080 1061 1071 1070 1054 1038 1094 1029 1013 992 1055 999 1088 1048 1008 1025 1046 1005 1066 1091 1042 1021 1040 988 1026 1037 1069 1073 1066 1061 1044 1077 987 1068 1017 1026 1009 1024 1103 1026 998 1050 1041 1041 1046 1059 1058 1048 1074 1077 1038 1048 1024 971 1074 1038 1008 988 1001 1058 1036 987 971 1074 1023 1052 1014 1030 1050 1060 1095 1070 1007 1046 969 972 1088 1057 1058 1076 1050 1012 1024 1017 1118 1044 1045 1021 1042 1033 1070 1026 1045 1002 1023 1013 1079 997 1070 1067 1001 1041 1073 1082 1037 1054 1098 1073 998 1089 1028 1037 1096 1057 1088 1039 1029 1034 1070 1074 1099 1090 1002 1118 1095 1050 1088 1120 1098 1135 1100 1099 1175 1115 1148 1120 1091 1181 1152 1202 1159 1192 1254 1124 1226 1218 1210 1280 1240 1277 1340 1254 1234 1197 1348 1276 1260 1293 1326 1344 1334 1358 1327 1249 1243 1288 1257 1265 1316 1356 1273 1267 1242 1180 1237 1247 1157 1234 1285 1199 1183 1120 1114 1195 1124 1148 1090 1045 1080 1056 1073 1072 1001 1109 1076 1080 1100 1019 1045 1108 1088 1087 1047 1047 1002 1099 1026 1069 1045 996 1012 1026 1053 1037 1064 1014 1022 1058 995 1013 1033 976 1009 1047 999 965 1026 1022 1017 1058 1031 976 1020 1013 1008 990 1059 954 1035 1008 1009 1057 1002 983 1000 1057 971 1049 1065 1062 1056 1069 1064 1086 1138 1094 1154 1129 1222 1198 1204 1330 1312 1320 1346 1309 1328 1356 1339 1325 1377 1400 1361 1445 1425 1430 1415 1441 1452 1415 1484 1370 1482 1429 1439 1375 1460 1359 1467 1378 1384 1355 1382 1342 1389 1386 1329 1401 1392 1361 1343 1390 1390 1370 1433 1324 1407 1391 1344 1279 1319 1325 1251 1271 1277 1273 1225 1185 1207 1207 1151 1166 1216 1142 1159 1177 1157 1084 1110 1121 1123 1147 1094 1064 1086 1071 996 1037 1066 1020 1083 1057 1022 1077 1054 1009 1019 996 980 1029 1011 1058 1011 965 987 1002 991 1044 994 960 1018 982 962 973 952 949 975 989 1019 958 1047 990 1020 947 997 952 967 988 990 1017 979 967 989 1033 979 1013 977 956 967 960 1020 1024 908 979 922 961 943 962 1003 956 961 945 954 930 993 929 1009 999 974 992 985 951 924 934 952 1010 955 975 919 927 931 1019 948 971 966 905 928 970 975 975 957 961 978 988 940 973 1025 953 978 951 918 924 1030 927 934 964 951 969 965 962 1027 961 919 977 970 1090 969 977 959 1016 1025 1013 990 980 1009 1026 975 993 1041 974 987 974 920 998 934 1013 962 965 971 962 1010 1007 962 973 1055 948 1031 956 980 1006 976 962 987 959 1024 1007 1007 992 1007 1034 1024 1033 1029 1041 1111 1031 1097 1033 1053 1044 1033 1072 1043 1017 1064 1058 997 1096 1048 1090 992 1071 1058 1076 1184 1061 1078 1132 1145 1125 1187 1176 1182 1211 1243 1199 1209 1263 1228 1237 1175 1283 1260 1288 1308 1305 1293 1293 1276 1314 1287 1274 1323 1318 1238 1239 1227 1161 1238 1174 1204 1207 1196 1170 1236 1111 1097 1111 1106 1134 1088 1149 1130 1093 1171 1066 1139 1115 1038 1078 1055 1063 1097 1012 1041 1012 1047 1014 1049 1027 980 945 1019 1072 1004 1028 1038 1057 1067 1005 961 1011 918 1021 1033 979 987 1001 1034 1042 951 1018 1033 913 1001 924 951 958 973 964 1054 929 976 963 1015 966 975 1001 979 1001 958 983 970 957 960 963 942 944 961 920 942 923 919 945 888 992 960 941 939 974 912 913 950 918 902 950 918 967 949 878 974 872 897 949 935 936 897 999 964 908 937 932 988 925 970 961 990 994 1007 1008 1033 1053 1048 1038 1102 1090 1172 1158 1211 1206 1303 1246 1298 1373 1468 1451 1492 1538 1613 1640 1634 1703 1782 1852 1822 1879 1970 2030 2014 2044 2018 2135 2078 2060 2244 2202 2260 2243 2201 2261 2218 2109 2095 2079 2099 2094 1987 2051 1964 1849 1802 1799 1786 1747 1704 1758 1598 1542 1593 1621 1554 1518 1522 1491 1421 1445 1384 1300 1339 1391 1352 1245 1325 1295 1237 1244 1268 1185 1219 1152 1220 1156 1154 1238 1215 1152 1169 1109 1130 1131 1102 1072 1121 1035 1043 1092 995 1057 1024 1027 1020 1002 1036 1013 1002 984 912 940 1043 978 923 931 955 1011 956 930 954 945 944 923 914 943 971 952 956 951 882 914 931 931 990 917 969 935 955 954 973 915 906 955 920 973 930 874 897 939 907 998 1017 981 947 982 954 891 962 903 976 951 967 964 968 980 1026 913 887 899 936 972 960 905 871 930 895 949 930 973 870 928 928 904 950 913 905 942 974 846 922 923 914 882 859 960 908 934 899 884 925 917 900 880 868 917 860 955 913 890 893 875 916 912 899 878 865 910 882 923 880 845 835 881 857 856 875 870 913 855 884 900 894 858 886 927 874 843 870 864 837 866 873 879 839 907 868 892 902 913 936 906 864 889 900 887 854 817 828 882 943 863 872 904 835 880 839 904 885 923 864 829 836 855 885 828 890 927 857 855 883 872 849 916 873 790 891 913 845 882 890 900 915 900 907 853 902 803 860 926 874 863 904 850 846 861 919 900 848 834 867 869 863 854 842 897 870 853 870 939 835 879 832 835 865 878 866 944 873 889 885 858 881 869 864 828 830 817 964 849 880 865 851 844 910 875 880 850 834 935 897 882 875 894 883 851 849 861 877 862 862 839 826 832 849 888 873 833 888 873 898 874 892 852 857 846 878 817 882 902 865 788 846 890 861 849 835 879 830 834 869 792 821 800 849 822 828 833 815 869 853 808 841 845 850 905 862 946 847 899 914 895 810 815 945 854 898 827 849 867 839 880 837 818 822 813 839 866 848 851 857 879 835 845 850 882 789 850 836 818 867 813 853 879 878 868 875 857 816 841 869 826 859 842 858 795 822 863 844 827 873 842 833 815 785 815 862 796 877 816 802 889 865 759 830 855 837 830 859 841 778 797 827 826 817 821 833 798 860 818 821 840 863 809 813 813 871 837 819 859 807 814 870 814 837 773 832 806 887 867 873 826 818 885 847 870 805 845 837 870 837 895 772 869 780 892 813 874 854 847 833 854 823 832 849 831 843 858 831 813 798 863 830 862 824 836 831 766 837 756 831 854 858 840 840 837 817 846 844 797 797 857 824 873 837 878 829 851 843 815 808 836 775 776 853 840 801 798 837 817 839 819 850 799 776 810 828 813 816 797 846 837 833 833 832 833 905 792 781 813 881 845 819 839 846 790 823 855 829 875 847 794 842 813 854 761 831 828 844 865 804 833 762 861 861 823 857 839 764 849 807 835 830 912 866 848 864 822 856 863 844 820 835 852 786 783 835 909 786 806 841 824 840 780 847 819 848 797 778 856 808 817 821 800 814 850 846 867 848 845 843 810 851 831 835 841 789 833 907 817 774 788 855 845 779 799 855 813 768 828 800 860 771 835 842 786 795 802 817 816 849 810 787 831 852 914 814 853 786 875 875 802 865 889 833 851 797 782 836 847 826 795 834 827 835 821 859 870 825 784 841 802 806 881 874 862 831 827 811 770 757 800 821 795 842 836 878 786 823 828 814 834 830 820 824 846 800 801 840 841 859 820 725 800 787 884 882 881 817 820 794 866 871 774 828 781 883 814 799 795 798 777 892 856 846 813 820 850 810 846 747 814 802 813 805 894 824 838 826 839 870 867 850 819 848 798 888 858 822 874 886 829 809 895 833 842 826 878 897 844 859 848 871 893 874 865 804 847 830 853 851 853 858 896 873 845 803 795 843 905 791 845 834 820 805 847 874 869 817 799 809 822 819 784 859 847 816 794 810 783 829 861 828 805 815 873 845 880 827 852 822 857 894 805 826 826 853 840 863 766 853 829 853 822 838 848 878 850 808 874 850 938 865 851 884 872 888 865 866 895 906 900 870 901 883 887 856 895 862 884 829 897 856 860 901 923 928 871 910 877 885 884 922 926 905 884 859 915 911 965 907 899 901 903 843 893 897 926 853 938 872 868 887 875 880 865 898 891 866 848 911 866 901 853 841 840 899 862 916 844 893 864 846 877 844 871 853 833 897 847 845 843 836 830 801 865 851 853 850 835 882 817 874 892 851 872 818 871 831 849 789 817 870 863 836 832 832 865 834 847 840 849 896 803 830 856 838 873 864 864 871 854 911 894 984 863 901 940 948 915 938 934 926 958 942 966 968 982 991 990 974 970 984 999 1027 964 934 969 914 948 993 963 970 996 959 961 894 898 878 904 855 881 915 880 893 849 892 877 852 843 891 884 907 817 836 837 790 882 825 830 825 837 881 821 833 855 857 810 835 858 891 903 864 829 786 861 842 832 820 844 796 819 818 824 814 880 814 918 839 826 804 770 837 805 821 834 766 839 815 843 803 899 831 804 861 833 821 810 795 818 832 776 824 802 853 817 812 846 817 788 814 843 794 810 770 825 784 825 845 824 823 863 811 803 817 813 777 761 813 839 824 810 839 805 840 827 815 811 803 851 794 822 829 845 778 803 813 838 820 822 825 816 836 856 798 825 756 849 837 836 838 842 815 783 821 836 836 788 868 817 828 839 870 828 795 808 872 806 882 850 815 777 796 849 825 824 768 851 830 840 843 818 854 846 865 818 863 799 855 808 831 812 810 792 875 890 874 789 815 793 818 823 849 772 814 791 839 844 845 792 846 811 838 778 816 782 833 761 785 823 811 836 819 837 849 774 797 822 807 847 818 863 842 778 832 778 837 837 842 816 855 823 828 763 837 828 826 733 877 835 855 802 797 832 844 828 848 807 790 790 811 806 809 793 794 822 826 823 813 761 833 788 792 827 874 819 825 838 835 821 868 788 840 877 870 867 826 849 785 817 819 805 820 815 867 875 849 823 843 841 825 874 833 845 804 794 770 809 845 840 835 801 843 863 824 889 830 875 864 838 847 833 807 860 845 863 795 873 786 856 879 839 873 851 853 836 838 908 838 859 949 847 901 846 887 876 892 872 939 943 884 910 874 926 890 922 958 944 902 958 970 934 1001 948 1000 1053 1052 1000 1051 1038 1079 1166 1187 1128 1137 1203 1263 1197 1270 1266 1286 1343 1315 1391 1478 1482 1554 1495 1605 1607 1654 1685 1669 1680 1715 1683 1728 1812 1775 1717 1748 1776 1731 1753 1640 1600 1693 1685 1555 1668 1596 1506 1466 1480 1438 1404 1384 1314 1309 1290 1267 1183 1199 1187 1160 1110 1098 1195 1140 1075 1149 1087 1070 1099 1100 966 1041 985 993 1024 1001 1023 974 990 974 1033 1037 1002 971 1000 1016 1064 1089 1042 1075 1002 1021 1008 1011 1059 972 993 1078 1015 998 1052 1019 994 1061 998 1040 1006 1005 977 1000 935 944 926 952 934 907 965 940 950 924 895 886 861 885 938 872 889 943 863 905 904 880 900 935 892 877 912 863 881 901 932 862 845 923 895 888 882 929 888 891 871 896 941 924 915 900 899 919 878 944 887 906 893 890 951 867 948 851 920 912 872 918 888 907 907 860 826 918 887 906 852 928 938 874 911 945 850 885 813 834 891 811 891 868 870 898 822 867 844 854 849 864 809 827 809 839 845 854 869 861 822 869 828 868 816 851 806 884 832 833 840 846 879 848 812 845 843 806 898 834 890 826 859 849 870 863 844 856 882 888 895 898 912 856 904 935 829 927 924 964 951 937 951 882 955 860 867 844 941 914 844 943 879 910 856 856 870 865 899 873 860 857 858 796 820 830 861 840 906 830 870 838 834 821 890 800 881 890 858 832 803 804 867 786 845 784 792 831 768 838 814 818 829 804 803 849 802 793 828 796 790 833 865 813 822 832 767 778 810 836 792 777 848 820 791 824 830 763 875 763 847 811 824 798 862 819 800 827 796 835 740 792 750 833 806 807 790 752 792 839 783 754 816 824 817 823 842 849 855 811 809 798 805 814 802 797 776 835 840 818 794 790 769 823 849 869 818 793 780 835 795 826 862 786 866 837 823 797 812 833 766 844 837 759 808 871 846 837 815 779 794 823 752 784 790 830 823 794 855 915 868 822 814 848 871 817 853 823 824 818 780 772 815 866 877 828 818 793 808 803 814 858 771 824 851 779 866 841 836 850 803 849 846 819 796 835 839 828 823 834 847 832 821 905 849 857 823 801 809 813 827 821 814 855 830 800 819 857 876 788 849 841 864 837 832 804 777 858 820 772 828 749 823 798 806 859 856 828 777 759 830 794 797 830 819 780 826 822 841 756 800 786 783 824 819 794 828 838 852 808 831 782 841 792 839 773 805 841 817 775 869 803 812 812 803 789 803 807 783 810 775 796 823 794 868 760 815 803 795 801 792 852 862 887 807 806 779 860 803 816 825 815 853 809 877 817 786 836 801 761 812 779 779 800 806 810 826 839 796 836 828 766 830 802 820 826 809 814 785 857 787 801 786 829 849 778 745 818 825 819 849 823 821 806 841 854 840 765 762 788 822 811 816 766 808 873 829 825 774 803 801 821 748 834 775 787 796 852 761 836 797 780 770 816 792 796 824 824 794 804 784 796 822 814 790 800 749 816 818 735 812 835 784 789 826 820 830 834 804 771 804 787 814 788 850 789 811 789 765 817 870 851 853 880 730 831 761 801 787 740 846 824 787 800 834 764 856 795 758 826 843 840 839 742 830 819 783 814 806 778 844 805 767 827 786 761 777 792 753 827 827 821 822 820 817 808 771 790 792 817 770 817 814 848 832 804 862 819 806 798 751 850 832 856 802 760 780 832 818 771 815 881 792 816 870 834 809 796 806 824 845 831 863 798 841 802 816 825 827 801 813 809 848 779 787 832 801 874 798 815 831 766 824 771 846 816 803 789 900 811 827 819 806 808 794 838 837 825 807 795 764 789 837 783 806 833 835 802 854 799 828 823 785 824 866 883 856 877 822 837 818 815 804 795 806 826 794 808 790 844 786 871 815 854 782 787 841 838 842 820 841 804 868 836 868 791 796 810 788 866 857 856 784 859 841 862 837 855 817 794 823 810 850 810 820 804 813 846 863 804 861 847 830 840 845 840 856 827 878 867 822 841 893 854 860 880 913 910 923 836 920 950 861 853 912 907 960 876 884 887 943 884 925 917 947 942 920 981 946 910 989 904 904 935 910 934 894 886 890 895 889 916 900 848 877 850 904 861 910 865 903 869 860 870 871 878 844 876 858 865 848 844 853 852 828 911 882 847 869 859 877 845 850 899 926 845 824 860 827 830 860 915 818 851 937 893 891 918 866 878 902 950 913 876 924 899 940 860 859 894 868 925 885 929 961 890 916 890 893 923 874 891 846 919 864 843 877 882 850 830 829 817 870 794 877 856 816 844 771 828 819 825 844 800 805 793 879 854 840 776 871 809 806 836 771 834 863 827 846 864 782 811 779 810 861 867 841 835 833 813 814 855 864 808 812 840 800 811 852 788 806 813 833 798 825 849 839 836 803 840 815 788 850 884 885 778 927 863 858 836 837 806 838 869 840 851 868 880 846 877 845 881 830 931 849 852 901 882 834 880 866 891 862 910 917 830 860 856 808 829 863 860 828 812 829 849 875 848 897 863 801 892 863 858 879 861 843 844 806 826 850 855 887 846 805 829 925 822 860 810 880 869 812 858 815 907 878 956 849 887 775 857 873 868 878 906 857 891 905 922 892 948 931 876 924 875 908 990 954 913 975 940 961 934 1030 976 938 972 966 1015 992 963 986 965 959 949 989 1031 951 961 890 926 961 919 1007 939 931 901 905 866 864 894 937 875 841 917 858 876 859 862 818 841 842 843 825 798 839 828 879 783 773 874 863 832 830 810 764 788 789 850 811 815 829 812 799 834 777 800 766 828 825 836 826 795 812 840 809 822 856 830 834 814 831 849 874 850 893 893 935 858 807 864 840 821 856 858 813 891 811 816 804 798 846 811 831 792 767 748 844 860 869 843 835 822 813 811 830 834 797 770 782 838 805 878 762 843 838 849 841 778 813 806 853 802 846 797 783 842 810 825 828 822 808 801 809 826 846 777 807 756 747 820 800 845 834 809 835 794 805 793 800 799 844 813 842 788 782 843 811 739 863 824 849 759 759 782 811 803 848 807 800 801 845 824 822 810 870 844 830 773 805 806 821 840 855 794 903 802 853 798 852 819 812 849 781 792 821 882 851 862 879 796 818 838 800 858 813 860 768 849 824 823 879 834 808 798 781 783 779 831 788 812 768 824 814 817 776 769 799 760 819 818 855 846 767 790 773 790 795 794 804 770 808 807 826 792 752 807 786 753 822 763 830 781 805 803 815 814 786 765 780 780 804 821 837 806 791 762 782 763 784 808 799 801 819 769 803 763 787 813 828 792 796 775 764 792 777 782 810 847 816 826 865 789 827 801 743 787 802 835 766 813 764 790 767 781 781 735 774 815 745 764 813 770 761 795 780 793 815 783 796 819 830 788 778 820 792 796 732 777 769 792 794 827 761 786 781 790 820 843 794 817 759 801 830 819 780 778 819 747 807 795 787 792 781 748 787 810 764 804 766 775 793 772 814 766 760 810 771 785 773 858 754 769 819 799 781 779 715 794 773 805 844 820 773 763 822 775 762 781 813 787 789 793 768 752 804 794 767 810 775 790 768 802 823 779 756 812 753 788 759 793 784 797 792 777 779 792 745 779 810 804 766 796 778 825 773 778 809 768 784 764 769 799 786 838 801 809 802 818 801 779 749 796 819 787 767 778 794 810 874 780 794 836 756 755 759 764 778 785 808 783 778 761 799 749 822 788 788 823 794 839 779 818 760 805 835 812 768 765 774 791 769 746 825 765 808 780 759 787 793 813 750 793 775 809 830 831 775 813 766 843 786 779 817 800 786 828 770 781 796 773 785 712 823 775 780 841 769 790 812 801 745 790 791 839 830 783 729 793 766 760 782 805 779 756 750 823 805 812 806 796 802 809 782 780 775 761 794 717 765 733 795 801 768 813 794 787 803 759 744 837 814 824 843 772 830 807 759 790 767 783 777 789 857 814 735 824 726 815 768 790 794 773 802 775 794 742 767 746 803 772 803 773 769 768 788 820 796 705 757 786 773 814 818 793 750 802 783 825 802 791 823 793 805 826 803 746 792 781 858 794 795 762 800 751 829 803 846 823 816 770 840 811 773 837 818 815 815 836 808 787 840 772 780 816 790 807 772 818 820 809 764 836 827 792 813 806 817 786 773 774 801 795 788 843 738 800 763 798 808 795 785 807 789 783 876 874 819 838 833 763 828 797 773 763 830 840 815 765 794 851 803 808 795 854 824 787 831 814 782 811 811 775 784 806 773 839 795 802 765 826 843 818 832 817 818 823 825 806 791 831 817 825 769 816 800 776 783 828 803 800 792 822 873 810 782 833 791 785 855 799 864 758 759 775 828 742 777 831 838 800 757 800 822 802 806 795 816 748 789 761 764 771 774 791 747 813 815 767 808 771 762 823 763 782 807 780 801 755 796 729 819 808 788 766 752 755 753 812 808 801 794 840 821 798 791 761 808 818 805 776 808 796 808 755 813 774 769 764 826 771 714 774 759 747 771 834 806 788 816 724 762 772 746 774 821 759 774 822 774 786 751 802 777 771 780 782 785 803 787 800 800 820 808 799 765 812 781 758 759 765 776 770 741 751 772 737 762 784 826 729 770 758 799 697 743 791 762 793 790 779 815 764 770 812 801 786 758 792 783 747 733 830 780 762 806 807 798 804 766 785 830 802 804 761 818 807 740 758 777 769 764 796 767 781 830 748 775 708 832 782 808 821 734 752 773 814 795 745 747 802 790 763 824 806 774 797 759 792 824 792 821 795 797 798 749 769 746 728 776 810 787 804 785 787 751 828 772 747 827 782 738 783 807 773 780 762 817 787 766 765 798 750 792 805 839 793 844 789 837 818 820 814 770 789 793 783 822 837 777 833 777 826 824 872 797 810 829 854 891 807 817 847 824 795 756 814 834 823 846 818 828 817 807 860 872 834 876 800 891 763 858 796 829 816 835 841 774 810 781 802 875 812 806 801 813 792 831 814 846 789 801 787 721 803 815 849 788 822 771 823 832 777 774 796 810 781 818 802 759 798 803 796 832 790 763 815 835 781 771 757 764 776 718 790 805 821 794 777 798 798 819 814 833 790 764 751 728 794 797 793 765 753 788 813 802 787 815 818 798 778 795 752 819 809 776 815 801 820 836 783 765 784 799 763 787 798 772 752 823 773 757 793 802 784 741 761 752 829 778 808 760 781 784 733 780 746 739 799 762 758 765 739 777 774 783 783 716 785 767 736 780 770 741 756 718 757 799 724 796 812 717 794 765 854 723 814 801 773 749 775 753 807 752 744 784 763 757 771 776 801 772 804 799 803 731 756 747 765 757 767 774 769 748 785 714 739 762 819 784 798 791 811 776 767 776 778 815 738 731 724 831 748 786 777 738 800 771 787 800 812 820 753 793 767 824 768 730 795 790 760 808 731 784 736 760 688 769 721 739 804 748 721 777 778 778 769 792 793 772 735 802 742 797 769 823 804 751 742 758 722 793 722 728 756 809 751 760 843 789 757 809 739 803 807 771 758 760 787 749 815 781 811 757 806 795 809 795 766 781 762 759 862 796 731 783 730 743 727 712 796 780 770 747 799 772 761 783 796 785 780 847 744 816 739 802 775 791 768 782 823 693 760 747 736 778 809 795 763 835 770 812 787 772 748 789 746 770 741 761 783 795 755 811 822 825 729 802 781 764 807 803 852 760 812 775 807 741 800 759 757 796 816 782 769 808 814 814 786 747 791 762 829 802 733 785 795 754 748 823 747 717 806 820 810 804 738 801 785 734 791 802 812 801 789 789 817 754 809 821 782 752 797 776 753 772 776 723 759 694 773 791 820 806 746 797 797 782 779 761 744 742 762 832 756 735 802 767 831 752 802 803 864 755 749 788 759 794 736 805 727 751 786 757 772 764 735 770 795 783 807 801 779 774 789 772 758 806 777 780 792 728 777 809 738 797 750 832 799 809 804 785 773 755 782 763 768 812 778 756 758 804 700 729 808 787 779 849 780 800 796 762 801 775 744 800 797 812 766 804 808 801 802 790 795 758 748 733 772 764 813 788 759 774 799 772 807 791 799 785 797 848 786 784 766 781 749 799 788 821 783 766 781 790 773 770 735 738 782 873 780 813 804 803 751 776 751 845 785 754 777 785 815 748 827 817 802 802 770 762 827 787 824 804 757 792 778 797 748 776 758 806 775 777 804 761 828 762 810 799 812 818 798 852 805 855 773 858 829 803 811 803 839 821 811 766 814 799 787 831 849 867 854 806 843 817 813 745 812 856 813 769 836 811 793 842 837 807 750 832 792 828 794 807 825 771 904 766 865 829 820 823 811 818 820 793 846 822 782 833 764 798 805 829 819 807 771 771 846 799 828 836 857 872 787 823 791 791 821 771 836 816 818 773 808 797 814 824 774 783 814 800 809 792 812 810 826 788 818 836 843 838 827 786 788 824 797 829 780 822 796 847 811 743 786 796 807 781 814 800 783 836 788 816 822 761 829 804 795 851 832 772 848 769 704 782 814 824 832 846 846 785 830 902 827 780 862 861 820 777 814 798 778 831 816 834 830 799 792 808 816 813 836 756 878 811 846 830 801 837 817 787 794 877 798 824 794 798 848 811 817 738 786 817 845 776 854 755 835 791 822 781 801 845 754 776 808 819 806 779 835 841 828 827 806 815 827 845 845 807 835 785 800 771 780 820 817 825 794 828 822 762 740 820 813 783 819 812 838 835 842 783 840 829 800 824 794 854 818 792 794 773 813 855 845 816 826 781 773 878 870 855 754 854 824 829 821 877 838 822 814 812 832 822 833 804 790 817 894 857 830 820 848 773 838 828 812 770 819 848 839 831 814 801 825 826 723 863 814 779 819 803 831 766 799 825 824 771 806 807 855 829 844 810 777 820 834 837 854 826 838 807 795 852 879 817 879 868 874 838 835 829 805 798 853 851 881 822 762 798 815 882 824 842 823 817 829 843 858 849 854 835 811 848 862 813 870 828 782 803 835 907 872 933 892 858 886 907 813 846 825 874 917 880 913 901 899 835 924 896 857 857 933 842 913 881 914 946 854 946 892 860 857 906 873 927 900 909 874 951 927 907 886 875 891 868 837 867 902 939 845 898 938 904 896 883 912 849 924 842 883 837 836 851 837 838 835 840 812 862 903 867 796 804 819 869 828 830 827 831 818 807 845 803 799 780 819 833 820 808 818 809 837 821 835 783 813 785 806 794 808 824 818 832 820 798 833 893 798 805 783 823 771 794 812 824 808 861 799 829 773 853 873 804 837 846 831 818 880 836 844 816 817 882 809 858 884 817 849 901 822 821 860 837 853 869 778 845 834 871 915 826 867 838 845 866 809 815 837 829 794 800 848 810 869 789 816 837 823 814 814 841 839 871 854 803 835 867 838 828 830 806 860 839 821 790 853 870 796 782 815 773 839 794 848 799 809 731 813 820 789 807 835 834 875 797 837 836 801 762 768 843 837 832 774 794 815 805 829 829 787 823 845 838 782 792 835 806 772 772 848 849 773 767 795 822 803 811 844 796 837 757 803 793 837 866 789 780 855 789 775 799 748 791 777 772 804 769 773 799 825 803 834 757 770 824 741 773 785 789 765 818 800 822 794 806 802 730 799 777 795 791 772 729 789 810 747 786 814 740 747 821 796 751 768 761 796 786 727 846 803 787 821 742 780 784 781 780 814 779 799 804 773 818 810 757 774 758 749 770 836 782 839 852 766 788 796 821 837 790 776 794 773 836 762 786 778 795 793 778 762 819 802 792 776 818 763 833 783 833 780 836 797 778 786 721 785 810 763 742 787 768 794 831 803 784 818 765 788 783 792 766 809 793 828 805 808 784 753 806 802 768 836 771 795 791 770 768 755 766 766 777 769 794 772 806 763 755 777 817 800 786 761 844 816 827 798 743 797 790 786 821 784 795 806 753 811 793 797 791 791 776 773 809 808 837 804 782 809 759 808 769 821 788 806 816 814 760 844 812 825 804 770 771 761 751 815 760 812 780 786 768 785 806 796 796 849 721 778 776 784 776 769 762 777 816 777 809 757 804 799 843 832 827 803 809 807 787 753 799 771 747 782 835 793 802 802 764 742 815 790 793 752 806 780 780 714 799 766 777 796 787 771 820 784 759 791 730 819 749 796 730 833 742 862 741 759 799 784 771 731 769 746 765 828 835 777 735 804 753 804 785 841 748 778 812 797 793 819 833 809 810 793 800 775 777 770 750 804 740 761 814 800 772 835 793 776 835 764 849 803 822 841 800 800 795 789 822 782 789 816 771 784 784 832 763 811 791 767 795 808 774 795 767 848 836 859 809 845 754 768 755 839 835 803 786 786 789 852 822 813 793 823 793 773 786 795 738 834 769 818 791 774 836 812 835 790 835 902 813 769 783 840 812 774 810 825 798 814 790 782 848 831 797 839 787 832 847 759 826 830 868 781 816 847 821 818 825 858 809 826 839 788 784 779 822 842 805 822 819 801 798 782 781 780 857 812 808 822 813 826 728 787 791 761 804 831 774 740 817 790 807 776 838 784 887 823 739 785 812 767 770 822 819 848 809 834 804 783 786 843 823 842 868 750 815 740 789 750 805 758 784 865 790 871 838 835 785 892 795 879 829 833 759 854 821 821 798 783 845 770 813 791 768 792 796 773 763 795 851 788 786 772 811 860 822 780 800 822 833 802 790 801 884 766 782 813 749 757 813 704 795 834 819 820 820 792 770 790 813 802 773 771 799 793 796 813 851 771 767 808 759 829 817 779 848 856 818 828 773 803 772 829 746 781 796 813 812 748 851 795 753 854 830 819 819 842 807 756 807 814 822 799 795 815 779 767 831 793 790 789 753 796 800 763 776 808 798 737 789 806 862 842 762 836 769 803 817 802 810 772 851 812 808 799 808 793 731 783 784 798 812 795 747 752 795 800 833 773 761 798 813 812 797 798 828 841 847 852 782 794 790 807 795 804 807 765 775 760 811 762 750 847 760 822 841 792 810 814 759 763 768 793 826 837 827 855 768 774 805 794 817 820 786 797 811 812 787 815 787 806 813 776 838 823 799 845 764 795 778 761 819 832 861 830 816 808 867 803 829 871 827 797 864 825 795 804 844 873 837 862 848 881 837 832 813 847 865 860 875 854 829 853 839 814 832 877 829 838 817 844 826 879 812 859 842 792 826 874 855 845 766 871 839 842 796 838 836 838 829 808 848 829 803 845 821 777 834 831 790 902 818 793 876 795 809 847 807 819 837 840 849 825 809 861 805 807 837 755 797 810 791 806 836 789 790 776 842 819 825 857 805 786 790 761 795 782 823 853 812 791 818 820 757 795 846 794 801 864 763 800 804 821 825 803 809 796 766 793 780 799 769 831 767 763 755 786 827 792 815 760 782 809 786 771 799 780 755 778 805 820 785 841 801 830 817 821 834 782 862 855 863 819 778 858 832 853 789 836 824 844 808 775 856 760 848 828 847 769 843 795 830 807 818 821 840 789 785 821 848 793 877 845 828 809 821 821 798 824 847 794 791 819 769 778 821 865 780 866 793 820 867 822 815 840 808 820 836 812 834 825 790 820 802 793 746 801 822 801 792 827 791 776 828 790 765 842 779 782 804 799 731 796 815 776 820 766 810 795 774 791 761 799 778 808 785 822 808 785 777 789 760 776 770 791 819 757 758 774 768 776 798 788 744 827 816 706 813 805 745 841 814 854 845 774 798 806 780 805 761 804 800 826 809 800 803 772 837 765 826 799 807 797 829 813 806 748 805 856 760 814 758 763 766 783 788 843 786 722 726 773 829 877 784 792 779 818 766 795 769 807 755 812 787 802 830 811 841 790 788 764 779 871 805 743 774 807 777 780 811 824 806 847 786 809 771 810 862 816 781 793 746 827 835 801 800 794 851 751 789 748 837 797 807 879 760 803 804 856 800 793 786 758 799 779 785 828 827 837 817 825 846 786 794 813 814 770 805 806 785 813 795 792 845 797 797 776 817 774 803 813 840 757 808 809 806 880 825 801 789 723 785 776 772 796 821 768 786 756 802 786 798 818 803 790 841 812 834 777 786 813 781 833 766 779 854 806 833 824 825 784 814 759 762 750 790 769 764 789 787 764 781 819 807 810 764 789 779 795 778 784 839 742 787 761 807 828 768 706 787 770 761 820 733 791 765 804 825 772 803 810 794 762 792 801 786 837 776 812 820 804 842 812 802 802 846 877 811 838 823 815 804 837 787 796 867 769 777 794 752 785 776 773 807 776 796 766 792 782 758 806 795 775 815 772 762 795 779 749 798 808 807 867 817 802 766 851 810 816 809 742 787 812 819 839 769 789 819 786 789 810 772 836 789 793 787 797 779 837 794 790 777 829 794 781 786 777 727 833 857 763 818 823 772 781 838 731 756 785 753 803 828 764 804 833 790 788 767 772 760 802 812 831 777 813 777 812 741 815 826 822 820 729 773 779 742 803 762 749 762 777 782 759 851 790 852 830 821 825 780 813 816 850 799 800 795 733 813 825 807 788 816 773 781 840 780 733 764 791 748 761 829 796 779 836 806 873 780 752 815 796 726 751 771 772 855 754 793 853 795 753 818 808 721 832 846 839 819 808 793</counts>
			</dataPoints>
		</scan>
	</xrdMeasurement>
</xrdMeasurements>
