<?xml version="1.0"?>
<xrdMeasurements xmlns="http://www.xrdml.com/XRDMeasurement/2.3" xmlns:xsi="http://www.w3.org/2001/XMLSchema-instance" xsi:schemaLocation="http://www.xrdml.com/XRDMeasurement/2.3 http://www.xrdml.com/XRDMeasurement/2.3/XRDMeasurement.xsd" status="Completed" recordIdentifier="{25DE2E36-DDC7-49CF-8EB9-2AEC66B7D7ED}">
	<comment>
		<entry/>
	</comment>
	<sample type="To be analyzed">
		<id>GPSS_Li2ZnCl4_100725_68e5a91e07cf888582f93607</id>
		<name></name>
		<preparedBy></preparedBy>
	</sample>
	<xrdMeasurement measurementType="Scan" status="Completed" sampleMode="Reflection">
		<usedWavelength intended="K-Alpha 1">
			<kAlpha1 unit="Angstrom">1.5405980</kAlpha1>
			<kAlpha2 unit="Angstrom">1.5444260</kAlpha2>
			<kBeta unit="Angstrom">1.3922500</kBeta>
			<ratioKAlpha2KAlpha1>0.5000</ratioKAlpha2KAlpha1>
		</usedWavelength>
		<incidentBeamPath>
			<radius unit="mm">145.00</radius>
			<xRayTube id="1010048" name="Empyrean Cu LFF HR (9430 033 7310x)">
				<tension unit="kV">40.0</tension>
				<current unit="mA">15.0</current>
				<anodeMaterial>Cu</anodeMaterial>
				<focus type="Line">
					<length unit="mm">12.0</length>
					<width unit="mm">0.4</width>
					<takeOffAngle unit="deg">6.0</takeOffAngle>
				</focus>
			</xRayTube>
			<sollerSlit id="21010002" name="Soller slits 0.04 rad.">
				<opening unit="rad">0.0400</opening>
			</sollerSlit>
			<mask id="22031000" name="Fixed mask 13 mm">
				<width unit="mm">9.00</width>
			</mask>
			<divergenceSlit id="22120001" name="Divergence slit 1°" xsi:type="fixedDivergenceSlitType">
				<distanceToSample unit="mm">50.00</distanceToSample>
				<height unit="mm">1.52</height>
			</divergenceSlit>
		</incidentBeamPath>
		<sampleMovement xsi:type="spinningSampleMovementType">
			<spinnerRevolutionTime unit="seconds">1.0</spinnerRevolutionTime>
		</sampleMovement>
		<diffractedBeamPath>
			<radius unit="mm">145.00</radius>
			<antiScatterSlit id="22090040" name="AS slit 9 mm (PIXcel)" xsi:type="fixedAntiScatterSlitType">
				<height unit="mm">9.00</height>
			</antiScatterSlit>
			<sollerSlit id="21020003" name="Large Soller slits 0.04 rad.">
				<opening unit="rad">0.0400</opening>
			</sollerSlit>
			<filter id="20030001" name="Large beta-filter Nickel">
				<material>Ni</material>
				<thickness unit="mm">0.020</thickness>
			</filter>
			<detector id="7010019" name="PIXcel1D-Medipix3 detector" xsi:type="rtmsDetectorType">
				<phd unit="keV">
					<lowerLevel>4.02</lowerLevel>
					<upperLevel>11.27</upperLevel>
				</phd>
				<mode>Scanning</mode>
				<activeLength unit="deg">5.542</activeLength>
			</detector>
		</diffractedBeamPath>
		<scan appendNumber="0" mode="Continuous" scanAxis="Gonio" status="Completed">
			<header>
				<startTimeStamp>2025-10-09T12:41:13-07:00</startTimeStamp>
				<endTimeStamp>2025-10-09T12:49:20-07:00</endTimeStamp>
				<author>
					<name>AutomatedUser</name>
				</author>
				<source>
					<applicationSoftware version="1.7b (136)">PANalytical Aeris Instrument Suite</applicationSoftware>
					<instrumentControlSoftware version="3.2.00000000 20240306">AERIS</instrumentControlSoftware>
					<instrumentID>950485</instrumentID>
				</source>
			</header>
			<dataPoints>
				<positions axis="2Theta" unit="deg">
					<startPosition>10.00943322</startPosition>
					<endPosition>99.99442286</endPosition>
				</positions>
				<positions axis="Omega" unit="deg">
					<startPosition>5.00471661</startPosition>
					<endPosition>49.99721143</endPosition>
				</positions>
				<commonCountingTime unit="seconds">12.495</commonCountingTime>
				<counts unit="counts">2720 2756 2841 2755 2867 2840 2816 2764 2747 2757 2786 2794 2771 2749 2733 2825 2739 2764 2692 2788 2791 2771 2736 2830 2825 2763 2771 2801 2784 2730 2797 2805 2828 2829 2790 2743 2847 2830 2725 2769 2659 2797 2777 2713 2811 2867 2833 2822 2830 2844 2793 2792 2781 2841 2750 2847 2883 2746 2791 2757 2762 2945 2822 2834 2797 2901 2896 2793 2741 2743 2728 2831 2866 2863 2803 2780 2884 2818 2834 2881 2806 2842 2852 2780 2723 2742 2739 2919 2847 2931 2855 2831 2861 2850 2991 2832 2832 2748 2904 2836 2880 2751 2867 2904 2876 2939 2859 2939 2841 2889 2850 2957 2929 2924 2867 2914 2881 2921 2898 2999 2884 3008 2861 2808 2911 2921 2896 2963 2833 2958 2942 2825 2893 2928 2787 2932 2974 2920 2907 3037 3008 2884 2930 2877 2934 2868 2959 3014 2920 2860 2860 2913 2899 2841 2890 2951 2900 2866 2870 2818 2924 2862 2940 2830 2889 2971 2883 2843 2926 2849 2800 2964 2880 2766 2857 2928 2866 2872 2864 2899 2839 2802 2918 2783 2835 2849 2858 2871 2877 2847 2863 2966 2760 2753 2781 2810 2756 2789 2868 2792 2828 2843 2804 2847 2784 2910 2709 2779 2755 2842 2875 2742 2773 2836 2859 2884 2738 2857 2828 2812 2739 2786 2798 2769 2760 2804 2866 2863 2744 2674 2846 2810 2817 2709 2779 2780 2725 2689 2753 2847 2760 2749 2775 2736 2770 2772 2773 2724 2739 2841 2737 2913 2710 2787 2698 2771 2821 2779 2682 2830 2799 2855 2731 2676 2720 2771 2725 2747 2736 2752 2774 2845 2721 2764 2818 2785 2806 2748 2694 2752 2773 2775 2647 2795 2745 2738 2810 2780 2806 2710 2751 2826 2867 2766 2839 2823 2816 2866 2722 2845 2813 2958 2867 2826 2753 2797 2834 2806 2897 2820 2893 2849 2841 2780 2966 2921 2951 2778 2886 2865 2926 2883 3021 2906 2911 2913 2927 2944 2936 2906 3009 2970 3025 2998 2987 3004 3030 3045 2964 3056 3035 3165 3116 3225 3193 3119 3091 3203 3154 3263 3223 3173 3266 3252 3271 3305 3404 3364 3538 3444 3450 3516 3380 3515 3532 3561 3499 3561 3479 3511 3408 3560 3456 3506 3425 3533 3402 3545 3300 3230 3196 3355 3138 3247 3207 3248 3203 3215 3293 3285 3209 3282 3139 3121 3152 3183 3123 3266 3124 3271 3195 3250 3165 3196 3269 3284 3286 3200 3221 3187 3316 3296 3212 3203 3279 3157 3225 3176 3247 3243 3240 3263 3173 3281 3229 3272 3313 3219 3326 3101 3269 3289 3330 3232 3370 3293 3353 3123 3328 3264 3296 3242 3298 3309 3298 3359 3266 3328 3291 3388 3376 3409 3275 3310 3261 3291 3269 3166 3392 3248 3271 3215 3192 3191 3255 3127 3221 3143 3212 3129 3052 3168 3288 3147 3133 3110 3098 3080 3112 3027 3142 3121 3126 3214 3072 3174 3045 3144 3072 3090 2988 3050 3033 2998 3046 3156 2926 2976 3036 3049 2986 3063 2989 2984 3008 2967 2997 2958 3038 3020 2998 3059 3014 2997 3023 3005 3041 3010 2944 3005 3017 2982 3057 3002 2977 2953 2946 2929 2896 2953 2948 3010 2935 3025 3001 3057 3032 3000 3085 3050 3047 3054 2998 3186 3170 3152 3287 3311 3304 3302 3391 3334 3439 3467 3568 3507 3744 3691 3802 3720 3831 4051 3903 3951 4076 4222 4136 4179 4145 4344 4274 4230 4369 4312 4129 4185 4152 4140 4032 3852 3879 3794 3762 3702 3637 3571 3406 3409 3312 3291 3302 3198 3171 3079 3065 2816 2921 2850 2878 2931 2829 2816 2835 2763 2770 2691 2687 2684 2750 2662 2677 2634 2724 2679 2562 2621 2483 2541 2625 2566 2725 2643 2622 2578 2604 2621 2611 2676 2632 2593 2610 2588 2676 2566 2706 2661 2649 2569 2583 2606 2583 2596 2698 2722 2615 2663 2618 2651 2731 2756 2742 2668 2738 2764 2680 2757 2727 2688 2835 2876 2853 2947 2826 2808 2890 2912 2871 2931 2969 2992 3017 2953 2961 2976 2940 2977 3021 2987 2910 2931 2888 2906 2847 2888 2826 2835 2732 2674 2702 2725 2612 2573 2613 2643 2581 2626 2568 2539 2569 2487 2574 2508 2386 2467 2448 2576 2539 2476 2467 2485 2466 2505 2472 2562 2487 2478 2552 2568 2473 2589 2566 2536 2551 2548 2560 2571 2489 2621 2539 2515 2608 2661 2571 2563 2654 2642 2592 2680 2644 2694 2662 2675 2603 2746 2766 2919 2786 2924 2976 3078 2999 3161 3249 3193 3307 3454 3379 3623 3726 3777 3894 3980 4230 4182 4237 4320 4347 4500 4720 4787 4619 4840 4850 4895 4982 4938 4855 4998 4966 4973 4779 4770 4726 4576 4411 4314 4175 4023 3960 3659 3531 3277 3253 3187 2927 2956 2819 2852 2909 2911 2759 2827 2868 2885 2910 2889 2990 2941 2882 3054 2922 3073 2990 3058 3162 3172 3162 3089 3187 3273 3209 3207 3163 3139 3164 3180 3006 3035 2901 3021 2933 2819 2865 2762 2583 2608 2594 2532 2655 2452 2423 2498 2401 2363 2504 2376 2373 2368 2343 2412 2401 2398 2312 2301 2328 2376 2324 2361 2259 2357 2210 2316 2280 2250 2304 2328 2286 2308 2285 2289 2332 2237 2253 2235 2260 2230 2323 2245 2291 2246 2280 2308 2345 2378 2337 2317 2366 2308 2253 2309 2249 2295 2338 2308 2310 2415 2266 2393 2286 2203 2253 2259 2382 2367 2335 2370 2382 2321 2521 2408 2420 2385 2497 2556 2507 2510 2569 2570 2571 2702 2690 2689 2740 2807 2865 2864 2893 2847 3068 2970 3080 3082 3015 3156 3172 3132 3134 3141 3152 3180 3195 3009 3234 3093 3034 3026 2901 2873 2875 2812 2702 2599 2642 2637 2569 2436 2385 2274 2296 2350 2317 2308 2274 2203 2279 2287 2238 2222 2253 2254 2228 2204 2226 2195 2095 2152 2128 2169 2063 2109 2224 2145 2149 2147 2076 2258 2135 2149 2073 2085 2116 2197 2077 2196 2144 2139 2102 2207 2161 2084 2112 2228 2173 2166 2120 2145 2229 2197 2182 2077 2197 2104 2087 2132 2113 2132 2180 2139 2138 2102 2092 2217 2153 2172 2086 2122 2261 2164 2142 2109 2122 2244 2109 2131 2117 2105 2085 2125 2125 2168 2031 2143 2195 2033 2174 2130 2201 2172 2135 2185 2145 2140 2135 2107 2120 2129 2188 2208 2241 2091 2248 2204 2271 2152 2139 2160 2093 2148 2150 2161 2180 2166 2172 2128 2162 2214 2244 2160 2166 2232 2172 2152 2168 2238 2130 2161 2068 2278 2140 2203 2111 2169 2087 2320 2199 2240 2240 2237 2234 2265 2267 2300 2296 2234 2384 2391 2406 2323 2393 2390 2400 2345 2423 2424 2443 2444 2364 2596 2435 2416 2444 2436 2359 2422 2382 2391 2353 2343 2362 2352 2285 2194 2244 2234 2183 2193 2075 2134 2146 2088 2129 2112 2153 2136 2134 2060 2066 2068 2066 2140 2136 2067 2110 2084 2028 2032 2009 1991 2059 2018 2062 2011 1946 1987 2077 1942 2034 2009 2065 2025 1973 2106 2094 2094 1970 2027 2034 1998 2089 2091 2106 2086 2027 2144 2112 2082 2095 2165 2086 2061 2138 2029 2078 2055 2122 2002 2108 2024 2084 2012 1995 1988 2072 2026 1902 2010 1897 1885 1860 1906 1887 1872 1819 1990 1847 1828 1940 1998 1869 1819 2015 1873 1894 1992 1983 1968 1956 2052 1959 2009 2100 2076 2110 2134 2104 2069 2112 2035 1999 2138 2121 2166 2126 2078 2167 2136 2140 2082 2124 2093 2058 2090 1983 1923 1963 1878 1882 1949 1981 1851 1885 1845 1786 1821 1805 1719 1736 1824 1746 1775 1874 1846 1930 1998 1906 1938 1934 1952 2017 1989 2119 2131 2081 2027 2099 2278 2274 2207 2223 2245 2297 2292 2282 2313 2335 2368 2324 2357 2430 2270 2411 2300 2249 2215 2228 2099 2043 2087 2031 1958 1854 1910 1789 1755 1739 1815 1618 1745 1578 1599 1610 1579 1660 1587 1633 1479 1567 1541 1552 1594 1550 1502 1511 1483 1528 1488 1521 1524 1499 1504 1527 1553 1535 1482 1511 1426 1499 1483 1433 1406 1494 1462 1484 1493 1531 1470 1560 1519 1409 1429 1419 1493 1463 1479 1404 1420 1450 1412 1452 1464 1533 1437 1454 1446 1526 1458 1429 1496 1503 1394 1483 1478 1461 1513 1404 1446 1485 1427 1444 1448 1476 1455 1437 1459 1497 1540 1438 1526 1545 1473 1473 1511 1478 1546 1481 1494 1498 1463 1502 1465 1532 1496 1489 1546 1506 1514 1511 1498 1440 1511 1494 1528 1565 1576 1573 1484 1524 1550 1525 1544 1521 1508 1562 1522 1549 1598 1582 1549 1549 1499 1482 1497 1485 1512 1556 1530 1555 1600 1492 1501 1546 1505 1524 1519 1468 1520 1479 1474 1530 1459 1443 1490 1425 1554 1471 1533 1450 1451 1524 1432 1453 1500 1471 1499 1449 1467 1503 1451 1427 1528 1493 1540 1450 1441 1395 1517 1482 1496 1417 1527 1494 1480 1448 1401 1425 1509 1519 1427 1493 1443 1451 1501 1444 1479 1462 1426 1465 1479 1475 1487 1504 1463 1476 1471 1426 1418 1465 1485 1415 1446 1406 1447 1456 1411 1440 1457 1470 1475 1410 1447 1445 1451 1426 1394 1407 1406 1446 1462 1392 1448 1408 1412 1429 1388 1362 1417 1399 1357 1461 1369 1440 1388 1442 1436 1412 1472 1448 1409 1455 1382 1410 1392 1363 1457 1473 1529 1501 1408 1486 1430 1471 1480 1417 1416 1391 1419 1471 1484 1509 1500 1506 1488 1425 1390 1413 1413 1504 1467 1485 1474 1436 1469 1459 1410 1513 1398 1384 1435 1512 1428 1348 1431 1426 1367 1425 1374 1410 1376 1377 1476 1406 1486 1546 1479 1603 1583 1669 1593 1674 1748 1801 1839 1945 2035 2111 2257 2235 2504 2559 2639 2737 2894 3023 3071 3274 3318 3548 3684 3682 3908 4046 4106 4080 4272 4523 4526 4610 4591 4750 4843 4796 4837 4894 4783 4924 4667 4647 4535 4442 4407 4227 4137 3968 3838 3770 3506 3577 3493 3441 3255 3126 3155 2985 2856 2890 2801 2793 2743 2774 2646 2679 2721 2721 2696 2734 2741 2774 2727 2696 2654 2627 2512 2514 2338 2292 2245 2320 2182 2042 2059 1908 1786 1748 1625 1646 1619 1584 1520 1476 1438 1403 1449 1372 1387 1430 1397 1444 1477 1514 1528 1517 1564 1511 1542 1549 1573 1558 1640 1554 1567 1666 1782 1692 1773 1877 1811 1935 1906 1907 1941 1931 2016 2036 1988 2122 2054 2172 2221 2249 2238 2390 2329 2498 2470 2586 2672 2715 2731 2675 2791 2762 2885 2862 2874 2820 2848 2833 2930 2937 2727 2694 2782 2724 2672 2613 2666 2604 2652 2480 2561 2456 2431 2339 2371 2239 2244 2131 2060 2017 1831 1749 1724 1574 1558 1394 1357 1325 1295 1207 1150 1148 1097 1092 1059 1125 1053 1077 1059 1047 1054 1084 1021 1007 1084 1022 1040 1022 1053 1076 1056 1129 1071 1102 1072 1047 1164 1174 1153 1145 1218 1163 1214 1271 1358 1297 1366 1363 1342 1401 1486 1512 1438 1478 1584 1562 1593 1577 1584 1678 1678 1612 1732 1731 1730 1684 1718 1766 1738 1782 1687 1663 1666 1624 1691 1594 1579 1520 1570 1501 1372 1429 1403 1362 1409 1398 1339 1345 1338 1323 1283 1306 1400 1336 1362 1401 1485 1405 1445 1469 1502 1467 1476 1500 1525 1574 1522 1520 1391 1493 1384 1437 1365 1399 1390 1313 1308 1260 1280 1170 1161 1146 1125 1127 1065 1102 1092 1059 1030 1019 968 1031 991 1043 954 1051 985 936 963 982 1010 1009 1001 958 978 1022 1058 1049 1122 1081 1086 1083 1131 1133 1143 1194 1155 1280 1272 1293 1346 1413 1472 1444 1452 1672 1673 1736 1903 1989 2053 2194 2280 2503 2559 2724 2880 2989 3187 3338 3508 3714 4091 4119 4357 4594 4600 4779 4878 5184 5429 5360 5623 5649 5781 5951 6033 6171 6246 6198 6281 6346 6241 6191 5999 6050 5787 5562 5323 4963 4867 4740 4429 4173 3914 3665 3338 3134 2896 2760 2513 2372 2065 2064 1801 1719 1580 1573 1426 1334 1217 1222 1181 1167 1091 1099 1078 1067 1031 1039 1049 965 911 943 939 907 963 932 935 955 929 964 923 1015 972 1107 1053 1095 1151 1158 1238 1208 1230 1350 1379 1451 1519 1563 1629 1686 1678 1777 1834 1880 1896 1902 2119 2053 2042 2146 2171 2176 2279 2286 2293 2316 2250 2269 2259 2250 2196 2125 2136 2016 1965 1973 1731 1707 1661 1486 1502 1357 1317 1254 1226 1083 1149 1087 987 1013 971 984 937 960 976 944 920 959 933 899 912 909 973 896 951 940 889 959 890 900 919 909 921 912 937 906 883 879 908 871 909 908 876 847 891 845 949 911 869 892 894 903 904 883 964 892 1003 926 938 930 892 915 925 941 899 882 916 878 866 865 870 896 867 867 881 819 818 823 738 715 750 766 742 750 736 707 752 749 775 790 748 690 717 760 721 728 732 742 734 668 745 750 714 771 672 716 806 748 715 744 807 739 772 750 732 765 723 749 740 725 717 706 715 752 735 724 740 765 761 701 727 683 726 721 700 707 703 733 741 720 729 727 784 775 741 756 706 791 747 766 718 805 683 770 777 740 792 776 794 781 726 757 754 782 820 849 810 789 825 799 757 798 842 812 787 784 789 843 814 813 832 952 869 890 855 899 914 965 903 993 875 944 928 980 1010 961 963 955 976 944 999 969 1000 952 907 986 939 955 977 929 942 1026 1002 857 932 1051 930 1021 856 910 889 940 827 836 792 813 764 772 793 718 697 708 716 693 677 720 703 667 664 668 623 726 675 694 700 676 643 643 654 639 630 652 642 637 684 646 620 624 665 652 646 656 593 638 637 662 667 632 600 631 645 618 636 691 657 684 638 704 644 636 606 634 670 688 630 684 704 653 697 730 681 732 714 708 758 762 768 721 824 754 825 813 879 872 886 915 947 999 977 1003 1036 981 1021 1134 1055 1124 1150 1203 1113 1184 1176 1237 1187 1250 1217 1276 1201 1259 1266 1276 1321 1240 1205 1139 1266 1126 1082 1053 1052 1012 980 860 887 875 863 833 782 785 788 735 732 653 681 652 701 615 659 644 627 652 618 677 629 626 623 637 607 598 614 582 628 599 614 615 654 655 636 615 631 636 635 637 645 680 598 660 621 638 643 616 656 689 640 697 715 660 676 672 720 732 737 762 693 790 756 803 785 797 746 790 748 844 742 776 766 734 761 815 695 765 704 775 750 718 696 715 733 696 712 712 605 698 707 686 624 656 640 620 653 624 635 646 668 642 667 668 639 621 647 614 653 636 606 604 648 643 652 617 589 639 645 623 613 641 616 548 625 563 672 631 596 605 667 637 597 622 604 656 614 651 629 687 663 699 682 664 681 738 777 739 751 706 771 794 828 843 810 900 843 888 853 887 973 972 1008 956 944 976 1038 962 1021 977 1022 961 1007 954 967 960 949 987 941 898 857 861 836 786 820 794 732 707 725 707 715 663 686 683 639 707 692 691 701 684 706 730 739 701 755 723 773 755 759 801 803 759 801 793 784 892 815 843 843 865 872 871 888 903 893 872 929 907 909 912 948 981 934 1004 1031 970 991 972 937 971 997 995 928 916 924 980 914 978 937 977 918 957 937 864 922 894 893 883 863 891 787 818 774 756 762 788 731 705 762 731 738 733 675 695 684 642 597 639 619 570 641 581 589 638 589 635 541 593 622 555 567 568 543 583 610 543 567 538 581 528 538 521 514 588 544 570 638 573 586 523 546 561 578 568 572 605 628 546 623 642 672 614 670 650 651 685 653 680 734 705 704 686 734 716 726 738 735 752 743 743 769 779 729 731 727 719 747 739 793 733 691 763 740 708 742 684 645 624 683 670 666 709 605 604 599 600 651 631 559 593 600 629 598 602 621 603 553 643 655 652 654 638 766 753 833 755 865 814 899 890 973 945 1002 1069 1127 1124 1169 1240 1240 1283 1242 1344 1368 1327 1403 1390 1482 1475 1437 1468 1536 1506 1510 1505 1430 1436 1510 1401 1377 1361 1292 1145 1213 1131 1026 1007 970 911 881 874 774 873 709 717 657 676 705 634 606 566 542 574 555 569 598 570 566 566 547 531 571 540 581 552 579 571 563 576 554 540 517 569 581 542 559 587 529 539 573 584 558 549 548 571 549 556 523 512 558 510 597 534 556 509 554 572 613 527 556 603 549 562 570 558 601 612 579 567 580 626 630 659 583 576 665 568 619 623 682 649 607 661 586 594 688 586 658 607 626 546 614 647 585 568 578 571 590 552 574 586 574 612 598 576 556 599 567 597 585 590 588 581 592 604 594 628 628 635 620 659 637 625 703 763 640 653 671 671 654 724 788 695 760 732 799 773 765 756 789 813 775 795 768 786 824 753 808 824 758 807 799 811 808 807 811 759 770 771 769 820 842 761 782 779 757 776 736 669 731 712 693 622 683 608 632 587 571 586 597 585 578 532 560 564 530 544 516 542 509 508 520 516 523 518 498 484 522 534 513 506 511 513 516 495 521 507 537 505 518 527 504 532 532 491 504 500 487 483 493 492 519 539 542 565 549 513 547 546 546 556 536 578 564 586 588 597 653 666 661 731 661 754 790 870 834 844 832 941 919 972 930 996 1016 1068 1071 1100 1098 1045 1114 1095 1098 1159 1117 1091 1076 1074 1154 1188 1144 1094 1066 1068 1039 1078 997 946 939 825 864 875 857 799 760 748 693 744 716 673 683 736 639 647 615 679 659 652 605 647 608 608 691 614 609 609 610 617 604 619 622 600 581 583 631 577 597 573 547 575 536 554 554 590 544 532 578 574 582 638 584 572 620 617 602 637 663 709 722 688 710 705 637 774 752 799 776 851 826 782 867 882 870 889 941 924 936 940 943 932 946 943 938 934 883 896 841 871 767 831 786 780 793 736 776 736 706 647 644 676 598 543 626 623 572 536 559 545 579 533 500 553 550 519 587 570 566 543 556 554 527 560 606 549 568 577 564 592 570 586 625 654 639 639 606 654 638 669 599 740 673 673 670 729 704 647 721 735 676 679 726 667 708 643 659 656 646 650 622 648 586 628 585 617 603 610 574 560 600 579 595 581 582 562 560 537 621 594 650 638 626 657 703 600 696 600 640 623 660 699 656 688 765 755 710 775 728 824 763 762 800 798 759 790 795 819 761 794 787 802 781 863 814 805 741 782 818 779 754 819 779 787 763 769 725 708 730 779 724 771 696 710 712 741 737 751 771 748 708 664 742 791 736 781 759 750 764 804 773 692 792 755 793 747 773 741 765 768 744 705 747 709 716 685 690 683 614 638 638 573 582 599 586 541 553 514 540 508 512 496 492 545 514 478 503 453 504 456 515 500 483 453 467 517 478 446 535 515 465 510 488 511 498 487 469 472 481 495 540 450 530 539 534 517 520 557 523 527 548 557 573 591 560 617 613 642 644 729 740 701 753 749 759 811 781 788 839 919 956 967 1018 1049 1042 1103 1111 1118 1244 1200 1272 1237 1230 1332 1390 1381 1326 1349 1326 1396 1403 1382 1253 1318 1395 1312 1271 1278 1281 1298 1225 1162 1149 1089 1120 967 984 934 1005 864 832 777 793 759 810 721 729 709 708 685 638 649 628 617 650 616 680 677 629 645 658 660 675 688 637 658 675 653 666 688 694 665 751 674 674 692 701 623 727 684 727 726 679 649 706 654 745 672 657 665 725 680 690 693 710 695 734 728 782 763 795 797 775 886 917 942 1062 1055 1097 1159 1103 1148 1223 1245 1302 1429 1451 1482 1499 1526 1672 1689 1789 1892 1973 2076 2137 2088 2267 2298 2352 2393 2586 2476 2544 2653 2601 2725 2716 2646 2792 2778 2837 2683 2849 2748 2717 2789 2756 2803 2784 2708 2667 2701 2587 2531 2436 2355 2304 2204 2057 1968 1816 1802 1597 1587 1540 1488 1416 1223 1274 1180 1079 1055 1014 964 857 884 856 781 693 703 673 728 684 687 656 667 654 605 611 624 599 574 579 579 572 579 554 540 594 612 620 637 611 543 600 559 636 559 605 617 588 626 596 603 573 620 623 616 597 603 622 624 622 617 620 639 564 628 617 611 623 585 594 572 611 605 605 552 632 568 575 509 506 545 570 550 498 464 508 449 456 481 464 500 475 449 487 486 451 487 451 397 470 438 433 506 443 448 452 450 481 467 471 493 479 457 462 452 466 500 512 487 483 470 496 449 450 502 505 526 513 534 500 516 520 564 491 491 528 525 520 550 523 554 536 553 501 536 543 569 585 555 611 566 616 614 615 604 582 593 603 621 668 605 596 585 613 616 641 572 605 605 559 588 608 617 579 571 588 578 634 567 552 559 524 566 513 588 514 531 529 533 544 555 515 536 537 557 567 536 542 529 556 561 507 544 590 518 546 549 518 593 591 548 566 586 554 558 579 583 559 566 574 588 611 554 572 588 605 561 605 578 570 641 630 622 605 671 647 621 623 609 626 614 621 638 619 606 585 622 635 593 617 609 631 633 685 597 655 612 591 687 603 625 611 645 615 639 626 599 609 638 598 629 592 593 574 622 612 583 616 594 612 608 559 539 564 572 586 576 595 564 594 572 560 563 590 548 567 572 601 627 623 626 552 584 623 645 662 611 629 624 663 717 697 735 784 758 825 874 954 1029 1137 1171 1240 1312 1456 1550 1687 1722 1781 1956 2076 2187 2187 2400 2361 2622 2720 2688 2929 2980 2954 3052 3219 3212 3314 3361 3340 3449 3381 3464 3348 3427 3239 3262 3234 3116 3013 2937 2722 2496 2444 2310 2039 2078 2070 1927 1787 1684 1612 1394 1354 1281 1263 1113 1090 1000 914 876 828 756 775 798 765 687 677 677 625 661 666 610 613 643 625 554 603 572 578 614 515 529 548 556 511 536 562 515 504 536 517 514 498 480 530 471 502 492 464 502 479 437 496 466 450 412 455 451 461 422 464 453 465 415 438 428 454 422 484 472 436 462 409 484 449 481 463 456 425 456 456 451 444 437 422 427 442 402 411 433 423 442 395 455 450 428 468 427 447 444 449 479 464 489 494 465 471 475 540 531 481 510 538 501 515 570 552 574 542 575 562 559 575 580 561 576 620 559 578 570 539 569 571 564 593 594 542 580 532 533 489 509 508 499 491 518 462 513 521 522 468 457 463 489 494 476 471 488 462 448 502 465 454 459 438 477 419 434 426 489 420 457 480 414 441 440 409 417 399 458 458 419 424 375 432 397 390 430 424 435 452 422 440 456 474 489 433 472 443 439 457 477 473 486 468 487 450 435 518 466 454 462 446 476 485 465 484 504 464 464 488 463 483 479 486 452 405 440 416 408 453 439 453 405 481 443 437 403 427 410 452 459 408 432 443 466 403 374 428 449 405 477 412 442 427 407 443 442 427 459 452 439 457 435 444 451 495 429 413 410 426 413 426 421 424 430 440 424 409 433 403 420 433 420 412 366 381 421 410 444 425 453 421 435 408 395 395 411 401 416 379 407 432 413 377 419 416 409 438 412 376 384 431 442 397 412 368 409 448 417 427 399 428 463 404 448 451 473 422 445 474 474 477 460 480 496 488 479 485 496 498 517 520 502 546 521 557 545 573 634 539 598 597 616 567 579 598 608 613 625 633 630 615 599 613 605 657 643 621 669 610 629 637 575 593 586 565 594 612 564 563 556 521 540 553 561 561 529 537 547 510 499 521 502 520 526 471 518 477 538 494 535 532 481 486 506 520 527 543 578 567 580 569 541 565 623 595 630 595 652 641 667 658 704 696 701 737 741 765 798 825 835 847 844 865 889 846 888 861 892 888 969 939 892 948 920 933 902 921 916 966 880 935 1010 916 868 908 871 821 820 794 799 740 779 735 730 732 787 720 743 724 744 712 710 688 668 626 681 741 669 685 668 663 658 598 666 643 639 609 619 608 575 587 572 632 676 640 619 580 611 641 567 607 624 623 631 643 684 651 657 609 655 650 725 677 669 688 685 690 701 740 713 708 704 681 673 773 721 778 713 720 735 713 703 780 698 753 736 765 772 810 749 761 787 740 776 766 776 768 815 789 772 797 849 840 804 810 801 824 830 828 827 868 803 806 787 848 759 806 752 729 806 712 687 723 686 678 665 685 645 692 685 666 596 642 630 614 599 550 574 539 549 549 568 519 544 549 580 546 536 579 594 593 503 574 541 567 589 616 610 614 574 596 606 597 597 672 606 672 637 675 622 671 658 594 648 645 640 641 621 695 694 633 603 608 668 638 622 593 641 547 571 598 584 544 559 567 556 599 574 572 520 495 530 519 546 538 526 500 503 516 484 452 471 444 450 431 453 459 434 455 399 397 419 416 447 399 415 411 371 413 359 397 387 378 374 376 350 395 363 371 391 364 380 387 373 373 410 394 395 354 354 392 363 359 371 402 404 398 378 384 396 401 423 407 419 392 419 389 393 431 386 369 387 371 377 371 367 364 350 357 377 360 331 346 365 345 369 382 387 353 345 354 326 335 320 357 347 358 332 311 349 343 361 299 339 310 301 331 349 337 348 320 311 320 365 336 355 323 331 352 322 319 343 319 345 307 308 342 315 317 310 351 361 343 378 331 341 362 371 318 389 362 388 327 373 349 372 379 382 376 384 378 367 365 433 418 423 431 434 466 470 468 476 448 471 495 479 479 512 517 524 547 516 535 538 506 551 530 547 513 540 492 509 451 488 521 527 436 507 445 409 449 453 434 421 462 449 423 412 404 402 382 393 393 379 423 387 397 381 411 380 357 382 358 380 345 356 356 374 326 368 353 356 368 385 382 354 371 348 358 344 334 323 321 364 337 347 341 335 328 299 356 344 340 328 351 346 328 347 337 381 341 345 330 355 374 341 366 333 298 343 336 336 351 323 364 317 338 320 341 362 348 355 362 373 395 349 356 368 336 373 389 338 345 389 394 379 411 407 409 407 397 447 431 421 425 427 438 429 427 431 414 463 442 441 438 440 445 470 384 433 424 431 428 401 387 383 346 435 404 382 408 393 425 390 416 446 426 395 384 424 417 363 421 384 418 426 450 418 426 463 482 455 439 494 524 521 518 495 555 527 579 620 599 605 628 670 619 639 644 636 664 650 646 649 591 675 661 639 647 599 617 566 552 543 556 527 564 529 522 490 522 453 461 507 473 481 449 468 480 451 409 419 419 412 417 373 403 388 369 379 364 387 346 343 334 360 349 348 351 311 409 367 357 373 378 346 376 410 357 352 347 374 389 381 366 395 389 400 379 412 366 407 375 391 386 396 381 400 402 392 393 423 418 403 425 389 418 433 396 368 443 390 391 364 382 412 383 366 400 398 405 400 372 386 372 386 419 419 427 384 370 426 403 419 404 420 415 425 402 372 429 380 406 397 421 461 403 405 438 403 418 416 448 429 450 442 409 437 416 413 474 454 456 439 453 393 462 441 462 442 441 404 411 455 423 470 457 455 456 435 429 393 433 404 448 430 450 407 373 404 399 362 367 359 352 339 364 368 353 348 348 369 335 337 370 333 321 363 317 363 325 342 309 334 324 335 308 312 321 341 321 346 326 326 324 347 318 359 360 285 346 333 351 328 311 288 349 335 320 348 339 327 341 331 325 327 330 327 336 314 334 330 312 322 324 353 317 296 338 322 340 333 317 302 341 327 286 298 290 306 315 304 291 323 293 283 316 305 336 315 308 298 299 281 297 300 278 294 299 306 303 322 309 294 281 307 305 293 311 309 283 327 302 291 260 321 333 316 295 336 332 296 334 314 305 324 326 291 314 317 312 341 337 353 338 328 288 317 320 348 388 353 362 321 363 333 327 335 304 324 339 357 311 346 302 359 322 331 315 336 335 317 306 300 304 329 315 286 311 301 339 287 309 270 318 293 304 301 316 291 288 284 289 314 294 301 282 296 321 256 313 305 294 316 333 307 321 303 325 310 295 306 346 335 311 307 361 342 346 338 302 318 336 359 355 376 367 348 357 398 362 393 330 339 336 371 342 354 377 381 381 372 362 339 354 374 375 368 391 336 336 325 329 346 335 346 340 363 341 360 334 340 347 383 362 391 339 378 385 374 351 348 384 353 314 358 357 363 341 343 364 351 335 360 343 328 335 353 340 310 316 333 308 322 320 303 314 336 300 315 321 302 322 306 273 313 312 318 308 290 297 321 293 298 314 298 309 305 268 302 319 313 284 315 309 327 298 335 316 300 331 337 361 367 333 358 365 397 352 387 367 397 425 370 393 391 411 427 449 443 414 435 424 447 456 462 429 442 428 459 418 438 436 451 426 401 420 401 415 440 418 401 398 395 380 363 347 363 386 366 358 371 382 351 361 305 325 362 297 317 365 360 319 302 297 325 303 283 304 296 300 319 312 292 303 277 334 324 330 280 305 291 306 270 278 321 357 321 309 319 348 332 313 364 325 332 333 410 376 350 340 357 368 346 372 370 382 373 396 392 398 404 361 391 372 368 407 366 369 373 386 381 361 364 356 341 389 354 371 353 372 368 362 343 329 363 326 337 351 315 334 290 315 311 302 286 290 305 313 289 307 309 286 307 296 267 331 291 285 274 264 278 278 258 279 291 260 302 288 236 288 266 249 277 265 260 267 286 299 275 269 281 294 258 310 265 278 265 262 263 298 309 257 267 271 266 299 286 285 283 288 297 299 288 283 295 262 287 313 305 277 276 291 263 276 259 290 271 303 258 297 281 281 275 265 289 274 265 280 276 274 289 280 267 298 244 291 274 288 288 279 274 275 281 245 276 282 284 285 279 313 272 287 265 307 268 290 291 278 292 270 280 276 290 264 298 296 288 279 272 276 263 311 260 281 277 251 309 296 281 302 278 319 288 311 289 282 315 304 321 283 307 289 323 297 341 321 273 269 335 337 313 300 309 304 344 349 321 321 312 332 332 322 335 289 339 339 322 324 343 345 340 378 367 369 328 310 353 317 365 316 333 318 348 327 333 320 319 345 319 340 344 309 329 320 340 333 346 319 348 350 302 343 303 313 343 281 336 305 318 326 311 316 297 305 287 276 308 282 280 279 310 325 275 315 277 296 316 312 307 251 260 287 297 271 286 261 287 289 286 285 295 300 322 273 278 296 324 306 302 287 271 316 302 297 301 303 292 304 326 302 336 343 348 331 307 368 316 357 384 336 351 335 371 332 337 347 353 375 374 313 359 360 377 369 353 375 362 380 320 360 363 365 327 363 339 296 366 366 322 350 350 327 337 339 327 346 353 314 363 358 367 346 350 315 345 364 350 335 357 340 366 394 376 357 396 394 422 387 330 400 402 416 434 441 438 468 463 447 484 519 500 528 561 594 602 551 626 630 648 692 669 644 700 676 722 708 741 799 769 807 761 832 770 866 802 876 859 824 805 771 756 728 770 739 790 729 766 753 718 740 746 699 666 716 728 665 695 596 620 592 602 546 566 532 538 458 485 486 492 441 457 423 407 401 419 407 350 401 375 347 382 350 321 347 335 314 318 293 313 295 336 310 332 277 266 320 331 299 301 291 286 301 299 340 291 288 318 305 279 289 296 294 316 299 323 292 294 276 306 276 247 311 302 296 305 306 231 288 314 249 290 291 313 303 292 292 266 305 293 282 295 278 279 286 306 296 307 303 256 300 283 311 300 286 282 301 300 311 278 319 266 275 317 295 328 284 282 293 300 271 285 286 298 325 277 273 266 285 320 288 311 306 267 305 298 272 309 277 303 289 334 309 271 305 309 291 276 282 287 311 278 315 294 308 292 283 330 319 350 314 265 296 321 312 309 283 313 298 295 309 337 316 317 320 302 303 296 297 299 299 311 313 274 297 315 268 246 241 278 301 291 302 258 278 292 286 326 306 272 282 309 288 261 271 270 291 285 309 261 279 293 289 276 292 268 264 290 274 274 284 311 293 308 282 287 263 291 299 296 287 289 307 288 290 284 289 290 294 301 312 293 274 282 305 303 289 284 311 328 328 291 299 310 335 310 299 340 344 335 351 341 367 342 361 362 350 366 396 380 374 344 397 359 387 396 421 385 419 400 384 397 434 395 442 384 411 395 395 365 385 398 390 399 435 400 403 442 378 348 381 385 395 364 375 338 370 361 394 331 375 392 360 374 347 367 388 356 404 417 394 404 411 417 389 387 402 378 409 405 402 449 378 447 388 389 424 430 432 446 418 492 436 446 425 408 413 417 411 436 418 408 431 399 388 422 398 348 393 387 392 384 393 403 365 336 376 357 369 347 347 377 369 366 348 366 377 353 356 343 381 363 349 370 363 339 367 385 374 379 370 371 398 407 359 365 350 368 358 351 351 399 372 382 376 363 392 372 362 406 377 374 353 366 363 324 322 357 364 351 350 334 344 346 353 341 318 350 331 322 315 365 335 337 333 317 306 342 367 309 300 344 342 340 361 355 347 356 373 391 385 379 381 366 381 390 384 368 413 416 421 424 435 432 447 402 436 438 432 417 434 446 420 440 430 431 461 454 481 450 433 445 390 421 464 454 456 422 463 491 464 465 496 466 507 519 506 513 479 502 482 511 423 488 451 503 483 441 495 480 481 455 426 505 480 493 467 480 488 479 439 455 485 458 464 432 485 410 433 432 453 463 433 442 464 396 439 441 453 426 466 441 416 414 440 380 416 432 473 445 486 512 474 480 462 477 511 480 478 492 454 467 453 471 484 467 506 527 471 438 460 414 458 404 470 428 439 442 418 432 427 442 432 399 372 381 384 392 393 369 378 355 361 364 325 354 358 318 310 334 332 344 308 289 307 302 309 286 287 294 283 314 287 301 312 285 278 285 279 265 257 270 298 307 291 290 237 308 274 314 299 302 326 298 287 245 312 291 313 316 280 289 299 242 307 291 291 300 292 301 304 265 305 249 317 257 263 304 278 295 311 263 310 294 338 300 317 308 294 328 305 317 327 303 303 330 309 298 320 293 321 316 344 339 329 316 381 364 352 391 412 387 391 416 405 364 371 387 411 402 360 425 384 396 437 424 379 369 410 369 351 375 376 385 383 391 398 380 361 396 427 408 390 437 356 377 391 374 393 410 369 371 390 381 373 366 401 387 398 370 344 347 378 390 341 351 362 336 346 335 350 336 307 336 331 340 366 327 339 301 333 323 320 334 328 339 324 287 305 373 339 331 292 294 311 333 326 301 298 324 313 306 330 288 329 319 346 313 294 291 303 300 305 319 286 306 311 267 309 268 308 303 281 303 329 293 286 286 296 296 331 296 308 310 292 289 294 315 277 307 292 318 273 313 291 316 294 273 319 286 290 322 315 312 343 343 321 320 359 329 367 343 336 323 351 356 351 358 381 364 367 340 384 367 369 358 344 404 356 347 383 335 362 315 388 358 365 359 347 327 337 324 361 291 319 327 316 326 304 318 319 353 315 319 307 312 292 325 285 312 301 264 320 298 307 290 299 273 273 304 308 289 263 264 309 273 279 298 275 302 304 262 272 287 293 262 279 277 294 282 268 261 271 269 276 288 276 291 271 289 265 301 270 260 275 264 286 284 276 298 304 264 284 329 290 311 286 271 308 275 286 294 318 311 297 293 313 293 356 308 310 315 270 322 278 278 318 321 325 357 318 328 309 336 331 328 340 294 335 308 340 325 344 305 345 311 307 305 317 345 332 326 291 301 364 332 358 326 331 367 353 359 343 336 307 327 327 346 311 327 336 311 292 314 315 300 312 318 332 342 346 309 334 290 331 295 299 334 294 295 271 262 288 286 312 321 278 284 288 287 299 286 321 292 289 290 268 291 286 265 274 278 310 291 302 269 260 260 267 305 284 257 304 300 308 276 270 281 276 265 273 306 278 268 265 244 244 292 265 301 276 279 226 308 276 264 264 271 274 272 243 267 262 281 284 247 269 260 270 258 286 260 226 229 266 257 257 231 288 284 259 272 257 268 233 283 274 249 244 267 263 275 266 265 301 304 273 272 286 279 282 271 272 279 265 276 295 287 299 283 274 316 311 293 292 305 288 292 308 341 313 304 304 318 312 325 338 310 314 334 321 326 321 323 290 315 319 308 339 314 312 326 312 305 333 329 320 326 357 300 277 309 299 327 301 300 365 316 354 313 324 330 326 307 287 324 294 312 318 313 326 340 353 303 315 257 300 327 323 351 324 295 318 311 295 267 287 280 313 281 291 330 244 299 291 298 292 281 279 296 293 274 306 221 290 260 279 323 248 263 261 272 298 268 314 280 295 309 284 288 265 279 271 263 266 290 262 270 296 284 306 291 271 303 300 304 302 314 294 299 293 307 310 298 274 322 317 331 327 295 313 311 294 327 315 328 303 328 319 328 316 308 315 310 354 335 325 338 311 326 369 361 329 340 337 344 373 331 333 344 401 336 343 328 350 329 352 342 321 331 331 298 299 324 315 327 331 325 329 310 318 301 308 290 331 309 301 270 310 321 310 311 315 299 301 297 297 324 281 306 295 303 293 271 304 282 285 295 329 294 301 274 300 296 330 267 265 303 270 303 307 296 296 304 281 277 267 269 286 250 283 277 266 309 284 297 263 297 282 262 293 311 267 273 285 291 306 288 292 273 308 289 240 294 298 299 307 284 303 269 258 286 276 260 283 263 289 285 306 289 300 293 292 265 271 291 305 266 278 307 272 285 277 276 308 342 316 280 300 282 303 319 314 310 317 345 319 338 310 288 335 327 317 327 290 313 362 302 311 301 322 344 321 320 291 318 300 315 360 315 316 330 320 356 355 335 313 329 302 322 309 332 324 329 327 327 337 354 375 356 357 307 301 339 329 328 363 358 341 361 357 386 362 403 392 399 393 403 375 422 392 433 438 427 440 438 421 431 413 457 448 462 450 439 453 429 422 435 460 434 402 400 462 414 428 416 432 429 367 414 417 426 411 395 373 375 388 390 391 382 390 383 354 376 401 384 417 379 393 382 339 412 407 340 374 393 389 406 359 373 355 405 378 372 328 369 360 400 387 336 384 320 323 408 344 365 381 331 335 330 339 356 339 373 341 379 378 391 412 344 420 405 400 404 373 384 384 392 359 407 387 365 370 386 349 339 351 373 339 343 337 318 345 352 318 364 309 337 347 320 305 351 364 364 335 350 372 403 370 383 417 369 390 358 364 408 378 346 385 357 386 353 416 364 347 358 371 376 357 352 369 361 388 367 328 359 335 358 341 334 340 354 335 345 354 310 311 337 361 364 350 344 346 322 337 339 328 358 317 330 332 351 339 294 354 319 322 304 326 323 322 320 294 291 314 301 336 347 303 324 311 316 321 324 309 327 329 350 337 328 352 337 327 315 338 300 315 335 340 337 339 338 359 330 385 335 342 333 322 318 356 338 373 349 350 342 362 341 323 346 301 331 341 344 318 319 364 357 324 296 329 350 373 363 354 363 345 339 360 323 340 348 357 321 333 368 358 376 376 374 423 360 371 375 377 369 392 387 419 400 419 432 420 436 462 427 469 469 517 484 453 493 465 502 480 480 499 515 530 508 451 548 502 524 517 517 546 494 520 542 551 503 580 549 547 545 634 575 644 566 566 651 631 660 596 652 652 594 636 647 618 653 595 639 598 578 599 563 578 567 516 516 525 539 521 571 572 477 531 463 524 467 459 473 463 492 445 473 468 479 465 433 422 411 400 428 367 387 428 434 375 387 379 359 383 347 358 366 351 361 332 318 345 357 303 307 298 314 300 291 311 298 318 314 275 282 289 326 317 314 300 299 303 293 327 277 282 262 285 291 276 303 292 312 295 297 308 309 289 278 281 265 308 287 298 299 278 278 301 298 295 311 301 292 278 283 298 268 284 280 297 288 338 323 315 310 288 312 277 327 289 238 283 277 319 283 277 277 276 284 283 262 292 265 317 269 279 279 297 304 279 293 285 259 266 279 281 275 263 264 305 276 293 272 269 276 260 270 264 246 233 281 232 247 287 273 290 282 291 264 273 261 299 285 259 263 273 308 279 261 292 267 275 297 284 268 287 268 305 277 268 259 286 267 269 301 289 280 280 266 281 274 289 280 276 246 257 259 285 283 266 263 302 276 291 277 283 288 275 289 294 247 257 270 290 310 261 283 293 299 309 308 277 327 322 322 330 344 298 299 352 323 363 315 336 341 338 341 363 346 336 341 306 361 342 338 372 344 325 340 376 355 323 287 315 318 331 301 394 361 317 370 320 351 335 340 325 335 315 336 337 319 341 331 343 313 319 291 295 356 319 291 311 306 309 307 290 296 320 322 290 272 311 268 338 289 240 294 320 294 294 318 285 286 309 314 298 327 303 314 277 268 304 304 311 317 297 279 265 310 338 310 300 279 310 294 319 328 303 292 327 295 298 333 331 315 357 338 320 333 349 362 352 359 354 320 389 376 356 364 341 371 361 331 357 345 350 337 342 341 350 346 345 350 339 380 377 374 370 365 336 363 365 386 380 392 367 423 394 401 362 351 390 378 389 355 414 380 363 364 407</counts>
			</dataPoints>
		</scan>
	</xrdMeasurement>
</xrdMeasurements>
