<?xml version="1.0"?>
<xrdMeasurements xmlns="http://www.xrdml.com/XRDMeasurement/2.3" xmlns:xsi="http://www.w3.org/2001/XMLSchema-instance" xsi:schemaLocation="http://www.xrdml.com/XRDMeasurement/2.3 http://www.xrdml.com/XRDMeasurement/2.3/XRDMeasurement.xsd" status="Completed" recordIdentifier="{AE1B9692-6FAE-46B3-81AF-89B3B2D05D00}">
	<comment>
		<entry/>
	</comment>
	<sample type="To be analyzed">
		<id>GPSS_Li1p75Mn0p80V0p15Hf0p05Cl4_111825_691cd5d8f3837ac4a0a99fd2</id>
		<name></name>
		<preparedBy></preparedBy>
	</sample>
	<xrdMeasurement measurementType="Scan" status="Completed" sampleMode="Reflection">
		<usedWavelength intended="K-Alpha 1">
			<kAlpha1 unit="Angstrom">1.5405980</kAlpha1>
			<kAlpha2 unit="Angstrom">1.5444260</kAlpha2>
			<kBeta unit="Angstrom">1.3922500</kBeta>
			<ratioKAlpha2KAlpha1>0.5000</ratioKAlpha2KAlpha1>
		</usedWavelength>
		<incidentBeamPath>
			<radius unit="mm">145.00</radius>
			<xRayTube id="1010048" name="Empyrean Cu LFF HR (9430 033 7310x)">
				<tension unit="kV">40.0</tension>
				<current unit="mA">15.0</current>
				<anodeMaterial>Cu</anodeMaterial>
				<focus type="Line">
					<length unit="mm">12.0</length>
					<width unit="mm">0.4</width>
					<takeOffAngle unit="deg">6.0</takeOffAngle>
				</focus>
			</xRayTube>
			<sollerSlit id="21010002" name="Soller slits 0.04 rad.">
				<opening unit="rad">0.0400</opening>
			</sollerSlit>
			<mask id="22031000" name="Fixed mask 13 mm">
				<width unit="mm">9.00</width>
			</mask>
			<divergenceSlit id="22120001" name="Divergence slit 1°" xsi:type="fixedDivergenceSlitType">
				<distanceToSample unit="mm">50.00</distanceToSample>
				<height unit="mm">1.52</height>
			</divergenceSlit>
		</incidentBeamPath>
		<sampleMovement xsi:type="spinningSampleMovementType">
			<spinnerRevolutionTime unit="seconds">1.0</spinnerRevolutionTime>
		</sampleMovement>
		<diffractedBeamPath>
			<radius unit="mm">145.00</radius>
			<antiScatterSlit id="22090040" name="AS slit 9 mm (PIXcel)" xsi:type="fixedAntiScatterSlitType">
				<height unit="mm">9.00</height>
			</antiScatterSlit>
			<sollerSlit id="21020003" name="Large Soller slits 0.04 rad.">
				<opening unit="rad">0.0400</opening>
			</sollerSlit>
			<filter id="20030001" name="Large beta-filter Nickel">
				<material>Ni</material>
				<thickness unit="mm">0.020</thickness>
			</filter>
			<detector id="7010019" name="PIXcel1D-Medipix3 detector" xsi:type="rtmsDetectorType">
				<phd unit="keV">
					<lowerLevel>4.02</lowerLevel>
					<upperLevel>11.27</upperLevel>
				</phd>
				<mode>Scanning</mode>
				<activeLength unit="deg">5.542</activeLength>
			</detector>
		</diffractedBeamPath>
		<scan appendNumber="0" mode="Continuous" scanAxis="Gonio" status="Completed">
			<header>
				<startTimeStamp>2025-11-22T12:11:18-08:00</startTimeStamp>
				<endTimeStamp>2025-11-22T12:19:26-08:00</endTimeStamp>
				<author>
					<name>AutomatedUser</name>
				</author>
				<source>
					<applicationSoftware version="1.7b (136)">PANalytical Aeris Instrument Suite</applicationSoftware>
					<instrumentControlSoftware version="3.2.00000000 20240306">AERIS</instrumentControlSoftware>
					<instrumentID>950485</instrumentID>
				</source>
			</header>
			<dataPoints>
				<positions axis="2Theta" unit="deg">
					<startPosition>10.00943322</startPosition>
					<endPosition>99.99442286</endPosition>
				</positions>
				<positions axis="Omega" unit="deg">
					<startPosition>5.00471661</startPosition>
					<endPosition>49.99721143</endPosition>
				</positions>
				<commonCountingTime unit="seconds">12.495</commonCountingTime>
				<counts unit="counts">3241 3194 3271 3179 3029 3164 3147 3253 3071 3227 3131 3224 3194 3118 3110 3121 3120 3166 3266 3123 3185 3185 3220 3145 3205 3126 3180 3107 3177 3145 3148 3066 3096 3123 3119 3115 3080 3031 3189 3107 3162 3158 3078 3176 3135 3129 3123 3202 3147 3249 3288 3236 3141 3257 3144 3107 3145 3110 3115 3168 3068 3111 3176 3159 3235 3269 3229 3199 3200 3179 3162 3196 3212 3234 3191 3151 3189 3137 3199 3097 3183 3136 3208 3202 3192 3284 3141 3145 3322 3223 3220 3139 3254 3201 3211 3241 3185 3177 3224 3201 3222 3289 3225 3240 3235 3147 3133 3218 3159 3348 3284 3242 3274 3224 3185 3168 3250 3312 3117 3179 3227 3200 3194 3187 3188 3189 3238 3311 3193 3385 3219 3303 3222 3239 3154 3208 3103 3187 3180 3169 3202 3260 3248 3260 3191 3147 3201 3211 3281 3207 3224 3182 3225 3191 3236 3270 3170 3215 3277 3251 3207 3175 3158 3195 3306 3199 3230 3088 3245 3300 3299 3274 3215 3276 3266 3263 3236 3291 3226 3164 3116 3265 3225 3130 3276 3277 3291 3224 3278 3221 3253 3349 3160 3223 3324 3246 3092 3139 3162 3060 3181 3122 3271 3117 3153 3091 3184 3102 3164 3140 3052 3217 3068 3232 3241 3190 3228 3071 3141 3170 3195 3063 3088 3122 3202 3108 3020 2994 3002 3124 3113 3140 3119 3213 3181 3128 3184 3092 3156 3134 3078 3137 3052 3208 2991 3098 3046 3155 3114 3065 3108 3050 3168 3121 3027 3187 3130 3240 3146 3155 3182 3161 3189 3168 3105 3174 3103 3113 3063 3100 3109 3159 3128 3146 3172 3189 3139 3093 3252 3183 3094 3262 3083 3151 3221 3176 3188 3143 3119 3243 3159 3274 3231 3193 3030 3111 3174 3220 3112 3227 3253 3276 3197 3123 3287 3152 3261 3119 3229 3196 3303 3305 3263 3203 3252 3220 3158 3119 3232 3233 3216 3369 3285 3138 3246 3291 3145 3282 3243 3241 3197 3174 3301 3290 3330 3336 3346 3358 3411 3416 3278 3366 3337 3243 3347 3490 3436 3364 3292 3455 3271 3321 3504 3388 3430 3574 3381 3374 3288 3427 3398 3420 3412 3491 3444 3491 3481 3394 3505 3471 3577 3482 3419 3641 3408 3513 3625 3434 3497 3627 3493 3645 3714 3640 3659 3762 3667 3659 3689 3724 3592 3524 3691 3709 3636 3816 3765 3708 3738 3795 3768 3798 3939 3897 3932 4113 3838 3905 4061 4058 4144 4170 4183 4247 4284 4306 4422 4516 4605 4652 4694 4840 4782 4957 4964 5093 5067 5349 5194 5481 5345 5322 5489 5412 5456 5644 5663 5825 5816 5891 6073 6090 6013 6105 5934 5952 5687 5575 5363 5226 4917 4818 4651 4557 4453 4233 4108 4157 4000 3920 3950 3750 3801 3848 3738 3756 3622 3642 3618 3720 3655 3684 3635 3588 3798 3753 3715 3658 3633 3575 3614 3726 3592 3633 3523 3557 3538 3536 3615 3506 3639 3624 3615 3526 3525 3430 3610 3534 3486 3634 3508 3470 3550 3478 3585 3383 3523 3498 3479 3444 3518 3499 3459 3456 3468 3483 3361 3365 3434 3451 3348 3511 3386 3429 3445 3255 3463 3275 3409 3310 3467 3268 3321 3298 3349 3318 3426 3464 3356 3371 3339 3356 3323 3406 3390 3294 3290 3242 3236 3355 3291 3352 3292 3303 3239 3295 3237 3243 3329 3252 3318 3272 3304 3268 3149 3104 3227 3273 3182 3160 3230 3250 3186 3238 3247 3355 3255 3285 3250 3167 3250 3218 3142 3158 3075 3201 3234 3060 3114 3197 3136 3134 3132 3228 3170 3118 3095 3066 3032 3135 3154 3237 3189 3178 3156 3241 3183 3185 3139 3099 2984 3033 3152 3207 3132 3189 3039 3174 3104 3114 3131 3084 2972 3118 2951 3091 3055 3196 3090 3110 3045 3096 3028 3101 3070 3029 3067 3107 2937 3035 3009 3056 3066 3060 3066 3077 2958 3120 3033 2926 3073 3159 3148 3004 3089 3117 2982 3116 3022 3089 3045 3095 3055 3103 3144 3152 2963 2899 3051 3067 3063 3038 3070 2900 3074 3005 3111 2920 3063 3054 2996 3151 3007 3034 3000 3009 3095 3000 3064 3054 2979 3070 3028 3024 3036 2978 3024 2939 3033 2985 2972 3075 2977 2907 2919 2959 2976 2952 2967 2992 2919 2941 3052 2989 2888 2925 2951 2956 2826 2932 2884 2973 3044 3054 3068 2984 3029 3014 3032 2949 3071 2984 3007 3018 3065 3001 2936 3006 2980 2923 2943 3054 2872 2954 2973 2921 3029 3023 3056 2938 2936 2910 2894 2811 2880 2949 2911 2955 2932 2997 2903 2996 3018 2916 3003 3001 2919 2910 2982 3046 2983 2966 2898 2938 3024 2949 2899 2929 2988 2929 2900 2989 2897 2842 2962 2939 2904 2928 2956 2993 2911 2972 2886 2953 2913 2837 2903 2947 2945 2872 3075 2969 2907 2913 2910 2943 2859 2948 2863 2893 2907 2829 2822 2990 2883 2843 2835 2919 2982 2867 2776 2860 2965 2951 2857 2873 2957 2884 2858 2844 2899 2866 2941 2816 2924 2790 2915 2766 2813 2884 2861 2795 2830 2896 2881 2820 2839 2835 2778 2922 2828 2723 2821 2757 2827 2823 2911 2799 2844 2758 2903 2815 2876 2939 2929 2818 2852 2891 2941 2761 2902 2820 2754 2829 2844 2874 2796 2685 2759 2752 2873 2815 2870 2730 2778 2792 2775 2811 2775 2666 2833 2851 2767 2839 2736 2775 2741 2776 2819 2741 2816 2762 2776 2667 2784 2776 2774 2856 2775 2709 2756 2727 2683 2806 2614 2735 2787 2780 2748 2773 2669 2706 2726 2719 2704 2699 2730 2794 2673 2828 2743 2546 2671 2617 2782 2771 2659 2724 2680 2721 2749 2720 2709 2749 2729 2728 2701 2705 2664 2757 2728 2650 2721 2698 2736 2702 2725 2734 2700 2685 2702 2649 2714 2661 2665 2746 2656 2746 2730 2642 2674 2690 2780 2630 2551 2660 2687 2635 2695 2727 2681 2726 2682 2683 2728 2698 2642 2646 2721 2691 2653 2738 2622 2689 2662 2637 2640 2654 2619 2631 2718 2630 2652 2607 2622 2632 2629 2661 2753 2670 2698 2654 2628 2605 2651 2711 2647 2554 2653 2584 2656 2690 2696 2681 2717 2649 2582 2696 2698 2651 2756 2630 2636 2579 2692 2574 2599 2703 2757 2642 2705 2639 2682 2674 2666 2675 2672 2665 2573 2656 2620 2628 2786 2633 2656 2693 2648 2595 2640 2624 2765 2743 2653 2719 2676 2763 2731 2686 2640 2691 2619 2643 2608 2615 2675 2628 2758 2626 2717 2681 2691 2643 2784 2600 2697 2587 2663 2621 2639 2691 2714 2695 2663 2690 2741 2757 2690 2640 2720 2649 2663 2703 2748 2699 2669 2617 2654 2695 2626 2735 2669 2622 2737 2576 2624 2583 2616 2593 2602 2612 2614 2660 2633 2671 2629 2571 2665 2549 2628 2669 2646 2565 2634 2564 2622 2559 2571 2586 2589 2552 2531 2552 2485 2641 2573 2541 2535 2467 2567 2607 2600 2480 2516 2487 2551 2495 2490 2517 2479 2573 2515 2605 2490 2535 2507 2443 2479 2484 2490 2469 2393 2393 2463 2557 2483 2536 2477 2485 2476 2434 2465 2453 2420 2449 2464 2422 2351 2375 2333 2407 2413 2438 2313 2362 2414 2397 2426 2419 2335 2371 2405 2346 2410 2379 2340 2348 2356 2383 2359 2317 2301 2475 2316 2299 2319 2266 2359 2349 2302 2359 2320 2289 2264 2265 2233 2303 2272 2329 2338 2240 2210 2269 2317 2266 2221 2288 2159 2227 2187 2244 2218 2258 2140 2229 2224 2253 2181 2250 2168 2229 2213 2103 2191 2224 2190 2254 2164 2190 2155 2195 2177 2186 2187 2146 2152 2154 2150 2171 2096 2179 2050 2078 2166 2128 2160 2091 2086 2155 2077 2056 2191 2176 2086 2146 2085 2053 2164 2077 2093 1989 2162 2123 2197 2102 2065 2073 2041 2091 2050 2070 1942 2089 2165 2090 2076 2103 2056 2048 2052 2073 2045 2046 1973 2011 2082 2067 2075 2039 2020 1953 2039 2048 2064 1977 2101 2023 2018 2027 1937 2050 1975 2011 2011 2033 2068 2000 1974 2031 2046 1981 1975 2060 2026 2012 2010 1952 2026 1971 2016 1936 1994 1950 1953 2064 1975 1887 2089 2063 1933 1992 2066 2093 2034 2083 1949 1952 1996 1927 2037 1953 1976 2007 1976 1923 2044 1903 2119 2001 2018 1973 1952 1947 1941 1946 2010 2037 1974 2037 1928 2000 1888 1969 1975 2043 1943 2035 1968 1983 1931 1950 1957 1986 2037 2028 1988 2020 2038 2014 2023 2034 1930 1981 2007 2039 1985 1992 1969 2026 2050 1984 1973 1955 1978 1992 2061 1934 2018 2001 2081 1934 2074 2002 2037 2033 1954 2049 1995 1964 2044 1882 2022 2001 1988 2000 1970 2014 2005 2012 2018 2035 2084 1991 1914 1973 1952 1957 2000 2046 1985 2035 2024 2085 1935 2009 2017 2053 1981 1955 2020 2005 2008 1982 1979 1986 2081 2007 2065 2035 1997 1986 1932 2013 2028 2012 1959 2051 1987 2047 2103 1934 1983 2024 2024 1975 1913 1942 1985 1956 1995 1924 1933 2003 1953 1994 1945 1974 1976 1961 1954 2082 1933 1973 1873 1917 1945 1935 1972 1992 2003 2026 1978 1986 2015 1958 1942 1851 1977 1955 1905 1879 1896 1969 1951 2009 1982 1943 1955 1993 2013 1878 1964 1940 1971 1858 1938 1946 1887 1895 1882 1905 1938 1961 1923 1927 1939 1897 1829 1910 1886 1822 1896 1848 1916 1851 1866 1838 1857 1814 1837 1853 1781 1791 1871 1922 1935 1838 1783 1855 1772 1811 1828 1759 1907 1788 1801 1843 1847 1782 1775 1882 1819 1927 1777 1781 1873 1824 1830 1803 1823 1820 1790 1803 1799 1731 1805 1760 1875 1792 1754 1725 1783 1692 1742 1751 1728 1722 1809 1653 1826 1777 1717 1713 1804 1673 1656 1661 1760 1744 1660 1804 1709 1718 1795 1815 1674 1753 1659 1721 1738 1729 1690 1713 1660 1721 1756 1674 1681 1677 1714 1743 1735 1759 1745 1759 1839 1808 1796 1805 1787 1781 1814 1854 1943 1965 1970 1915 2022 2005 2033 2049 2143 2200 2306 2300 2371 2336 2375 2550 2628 2619 2658 2609 2785 2813 2714 2937 2821 2952 3030 3074 2968 2990 2988 3089 3050 2873 2837 2815 2685 2555 2508 2454 2329 2279 2240 2126 2030 1958 1922 1877 1757 1789 1821 1729 1754 1755 1698 1632 1631 1626 1689 1642 1682 1635 1591 1566 1591 1593 1589 1605 1608 1588 1560 1663 1677 1566 1611 1604 1604 1567 1619 1592 1608 1599 1598 1589 1553 1523 1615 1569 1593 1648 1545 1569 1641 1581 1543 1578 1538 1676 1608 1623 1655 1613 1704 1642 1680 1671 1704 1669 1698 1697 1766 1750 1747 1814 1837 1808 1945 1933 2034 2147 2179 2251 2354 2464 2553 2620 2719 2880 2989 3241 3258 3326 3586 3614 3744 3925 3869 4008 4162 4306 4467 4527 4668 4792 4967 5059 5113 5065 5121 5134 4824 4696 4514 4352 4009 3970 3650 3393 3225 3064 2836 2620 2582 2434 2260 2125 1964 1948 1760 1806 1791 1686 1701 1629 1650 1623 1660 1569 1593 1527 1569 1524 1536 1614 1597 1571 1534 1501 1553 1521 1582 1572 1562 1519 1524 1553 1519 1538 1457 1521 1456 1447 1483 1512 1418 1430 1440 1459 1484 1385 1378 1459 1415 1440 1448 1421 1532 1438 1451 1446 1513 1471 1416 1447 1496 1435 1394 1424 1424 1347 1318 1400 1389 1400 1360 1454 1392 1469 1428 1365 1322 1357 1354 1371 1456 1441 1406 1438 1535 1459 1382 1440 1459 1465 1362 1385 1444 1437 1360 1373 1353 1472 1377 1423 1383 1411 1461 1398 1436 1413 1429 1364 1431 1382 1385 1393 1343 1361 1317 1344 1356 1336 1389 1333 1418 1221 1324 1369 1390 1401 1397 1351 1322 1394 1335 1400 1394 1377 1322 1290 1337 1307 1391 1351 1322 1377 1311 1400 1309 1339 1327 1297 1276 1296 1338 1371 1356 1342 1331 1315 1284 1344 1350 1290 1387 1327 1274 1279 1397 1352 1389 1315 1300 1267 1325 1272 1290 1298 1370 1294 1232 1299 1363 1332 1338 1302 1282 1344 1344 1347 1312 1311 1280 1287 1289 1399 1236 1306 1316 1267 1291 1340 1307 1259 1307 1325 1340 1254 1291 1336 1298 1268 1248 1280 1306 1284 1328 1363 1326 1295 1353 1306 1342 1323 1315 1299 1303 1244 1241 1304 1308 1249 1263 1267 1248 1180 1230 1261 1310 1258 1249 1244 1262 1196 1339 1209 1297 1283 1341 1267 1246 1222 1317 1263 1317 1219 1233 1283 1270 1238 1260 1252 1264 1338 1238 1257 1204 1303 1270 1239 1260 1252 1311 1243 1286 1241 1303 1275 1240 1250 1287 1137 1317 1273 1267 1317 1297 1355 1219 1299 1257 1276 1238 1288 1238 1312 1272 1325 1247 1260 1251 1246 1294 1258 1297 1257 1292 1313 1285 1314 1248 1290 1313 1343 1327 1311 1346 1284 1379 1355 1281 1324 1301 1319 1278 1315 1360 1292 1348 1293 1330 1257 1358 1271 1312 1275 1230 1366 1258 1299 1317 1342 1339 1386 1351 1261 1327 1308 1335 1296 1336 1319 1338 1307 1358 1397 1408 1310 1363 1406 1434 1450 1442 1413 1392 1366 1421 1458 1461 1491 1479 1484 1552 1546 1527 1612 1616 1607 1667 1663 1832 1746 1791 1882 2037 1974 2118 2221 2356 2454 2653 2878 2968 3090 3379 3648 4014 4355 4625 4962 5321 5471 5919 6321 6581 6772 7299 7761 7902 8374 8610 9058 9334 9711 9908 10264 10558 10684 10895 10961 10562 10718 10082 9767 9322 9108 8189 7744 7348 6832 6193 5846 5297 4844 4339 3961 3591 3300 2922 2804 2583 2494 2354 2267 2107 1949 1824 1812 1766 1692 1637 1585 1621 1554 1539 1544 1553 1500 1508 1484 1462 1490 1471 1442 1361 1396 1373 1387 1349 1351 1399 1359 1328 1409 1405 1360 1384 1354 1402 1306 1357 1339 1314 1303 1361 1276 1417 1301 1286 1357 1284 1305 1313 1347 1348 1306 1259 1307 1287 1277 1236 1283 1286 1317 1272 1261 1242 1270 1291 1214 1200 1205 1247 1275 1273 1326 1236 1221 1214 1263 1250 1283 1234 1327 1243 1236 1303 1237 1218 1191 1259 1306 1258 1246 1234 1233 1275 1286 1261 1199 1226 1203 1172 1164 1249 1279 1214 1281 1192 1191 1257 1210 1304 1244 1250 1247 1258 1170 1198 1283 1191 1170 1176 1218 1199 1198 1240 1263 1203 1185 1195 1238 1201 1216 1201 1221 1144 1219 1197 1161 1167 1210 1187 1226 1205 1202 1199 1164 1210 1180 1169 1225 1191 1171 1172 1221 1211 1197 1186 1189 1174 1211 1224 1234 1164 1169 1132 1195 1157 1174 1187 1159 1227 1215 1135 1213 1183 1227 1200 1234 1149 1178 1259 1131 1256 1232 1175 1116 1115 1180 1156 1202 1176 1239 1122 1152 1204 1170 1176 1245 1208 1158 1165 1245 1245 1231 1143 1180 1180 1125 1143 1150 1155 1254 1175 1200 1192 1238 1217 1144 1117 1114 1193 1148 1157 1142 1168 1166 1115 1148 1203 1222 1167 1123 1149 1149 1127 1176 1161 1139 1119 1194 1165 1265 1164 1175 1197 1210 1172 1201 1199 1144 1237 1206 1216 1149 1239 1218 1245 1216 1243 1241 1246 1274 1225 1265 1248 1261 1253 1210 1217 1254 1228 1260 1252 1217 1261 1217 1287 1261 1211 1195 1203 1136 1247 1172 1189 1162 1194 1160 1122 1187 1132 1143 1211 1127 1165 1156 1143 1177 1157 1160 1134 1177 1172 1156 1134 1203 1165 1190 1120 1128 1103 1176 1106 1158 1182 1130 1114 1227 1162 1045 1084 1051 1176 1144 1091 1085 1103 1107 1108 1132 1133 1103 1125 1215 1164 1129 1088 1125 1116 1182 1092 1161 1137 1100 1156 1111 1135 1120 1090 1127 1164 1151 1164 1083 1090 1130 1125 1089 1151 1101 1098 1095 1141 1087 1089 1053 1136 1129 1100 1116 1175 1149 1088 1054 1107 1122 1134 1086 1135 1127 1136 1062 1198 1074 1058 1059 1135 1120 1043 1046 1151 1065 1075 1099 1103 1078 1094 1082 1144 1058 1099 1093 1137 1082 1128 1082 1095 1132 1097 1145 1127 1077 1141 1072 1057 1065 1082 1104 1071 1088 1049 1066 1114 1104 1052 1067 1046 1094 1088 1066 1052 1089 1067 1065 1071 1070 1059 1144 1053 1110 1090 1084 1097 1037 1113 1066 1103 1046 1105 1055 1165 1077 1098 1066 1049 1018 1099 1051 1095 1105 1126 1041 1095 1036 1104 1096 1073 1102 1046 1079 1055 1130 1051 1058 1078 1061 1049 1059 1041 1109 1073 1083 1042 1099 1072 1150 1099 1022 1006 1074 1009 1078 1099 1094 1052 1019 1071 1097 1101 1022 1106 1087 997 1047 1076 1098 1099 1058 1034 1029 1094 1058 1067 1103 1068 1082 1005 1049 1116 1097 1053 1061 1094 1056 1068 1090 1082 1094 1040 1054 1055 1065 1069 1139 1089 1085 1099 1104 1056 1078 1101 1055 1092 1056 1064 1107 1104 1103 1139 1104 1051 1112 1032 1070 1077 1079 1055 1090 1112 1036 1049 1043 1076 1057 1084 983 1031 1061 1097 1069 1009 1094 1091 1093 1012 1045 1080 1064 1108 1035 1066 1078 1088 1070 1092 1080 1077 1087 1054 1071 1082 1020 1097 1127 1080 1070 1067 1094 1044 1044 1070 1052 1114 1075 1070 1091 1074 1041 1018 994 1040 1048 1065 1100 1059 1074 1020 1095 1009 1016 1011 1047 1021 1042 1023 1076 1034 1097 1003 1015 1051 1077 1020 1024 1048 1014 1082 977 1066 1066 1038 1074 1089 1082 1014 1051 978 1068 1024 1085 1035 1056 997 992 1051 1093 1017 1055 1060 1061 1032 1049 1003 1068 1064 1055 1052 1037 1084 1063 1060 992 1017 1100 1036 1020 1020 992 1065 1050 1013 1045 1043 1060 1049 1078 1081 1071 1024 1028 1040 1054 1105 1015 1022 1058 1032 1051 1027 1072 987 1060 1022 1130 1075 999 1067 1061 1028 998 1033 1120 1104 1056 1082 1024 1020 1059 1119 1067 1123 1094 1075 1054 1008 1092 995 1071 1102 1092 1036 1024 1037 1025 1064 1048 1079 1014 1083 1042 1060 1032 1113 1078 1101 1081 1050 1079 1016 1056 1024 1065 1061 1087 1037 1076 999 1046 1035 999 1059 1068 1066 1008 1032 1027 1063 1004 1044 1022 1017 993 1058 1068 1031 1018 1004 1055 1085 1095 988 1034 1046 958 1041 1082 1058 1048 979 998 1041 1017 1088 1047 1053 1042 1064 1020 1055 1055 1039 1020 1109 1053 1065 1047 1046 1025 1035 1049 1050 1043 1060 1062 1083 1020 1041 1012 1006 1019 1036 999 1068 978 1073 1122 1050 1041 1033 1061 1132 1080 1009 1027 1024 1057 1049 1036 1094 1041 1052 1012 1056 1036 1018 979 1015 1061 1032 1064 1025 1093 1032 1019 1064 1065 1082 1062 1010 1000 985 1028 1036 1102 987 1013 1027 1025 1042 1025 1054 1029 1014 1040 1065 1103 1024 1025 1080 1044 1067 1041 1063 1025 1055 1062 1148 1039 1030 1033 1006 1034 1093 1057 1021 1045 1075 1068 1065 1023 1110 1020 1045 1068 1068 1020 1023 1047 1096 1031 1032 1064 1056 1028 1065 1050 996 1052 1024 1087 1095 1041 1073 1089 1051 1065 1138 1094 1114 1112 1121 1196 1173 1091 1191 1209 1307 1322 1268 1362 1385 1423 1401 1457 1515 1582 1595 1571 1607 1657 1736 1845 1790 1830 1991 1890 2044 1991 2075 2027 2040 2110 2053 2088 1952 2007 1926 1833 1835 1809 1750 1762 1643 1577 1547 1505 1442 1392 1362 1338 1250 1282 1275 1230 1156 1143 1196 1147 1133 1114 1118 1065 1079 1074 1075 1081 1063 1050 1074 1064 1080 1071 1045 1115 1068 1062 1033 1020 1009 984 1069 1089 1024 988 1034 1049 1034 1003 976 1023 1015 1059 967 1054 1048 1012 1115 1101 1053 1030 1013 1001 1038 1026 1070 1002 1057 1018 1027 1000 1069 1029 1067 987 1024 1040 1059 990 1027 999 988 959 1015 1010 1051 1015 1015 991 969 1036 1043 1007 1054 969 1027 1051 1052 1030 1010 996 1115 980 1035 1004 998 993 1006 1068 987 1082 1035 959 1046 974 1018 1022 1100 1028 983 1001 1000 1042 990 1056 1034 1064 1043 1005 1009 1007 1001 1027 1005 983 1004 1045 982 1004 1051 997 996 966 982 1004 1018 995 1000 1006 983 1024 1022 990 941 1059 972 1021 978 992 986 1008 987 974 1001 1008 978 1076 1106 1000 1007 1047 1036 1048 966 1005 1027 986 958 993 1027 1076 1013 1066 1033 1051 1002 1047 1085 1007 995 1053 963 1053 1018 1038 1012 970 960 1060 1043 1036 995 1007 1000 983 1030 1038 1066 1016 1062 1060 1045 1039 965 1074 1013 1024 1044 1033 1060 1063 1109 1023 1096 1052 1057 1002 1011 1000 1002 1003 1030 1021 1044 1050 1006 1049 1088 1041 1013 1093 1100 995 1027 1027 1026 1025 983 1078 1072 1060 996 1043 1069 986 1068 1077 1004 1032 1140 1042 1073 1020 1033 995 1023 1069 1048 977 953 1088 975 1051 1027 1129 999 1036 1016 1024 1030 1064 1135 1021 997 1046 1045 1031 1064 1006 1063 1046 1062 1055 1003 1042 1046 1017 1020 1067 1036 1071 1005 1045 1050 1041 1072 1045 1034 1122 1023 1086 965 1056 1071 1106 1040 1108 1050 1048 1085 1093 1121 1059 1074 1095 1123 1080 1113 1147 1089 1137 1110 1079 1168 1108 1173 1199 1181 1198 1179 1249 1244 1198 1281 1235 1318 1356 1466 1361 1412 1521 1619 1674 1688 1906 1900 2025 2170 2291 2464 2629 2900 2995 3195 3483 3575 3814 3919 4336 4564 4710 4901 5228 5376 5727 5742 6205 6329 6435 6694 6652 6642 6575 6369 6118 6025 5576 5438 5112 5086 4861 4632 4484 4187 3954 3716 3508 3200 2908 2677 2583 2377 2222 2073 1966 1797 1741 1653 1589 1525 1538 1456 1448 1443 1304 1292 1297 1239 1218 1201 1187 1185 1137 1175 1172 1205 1158 1132 1094 1113 1120 1051 1104 1123 1072 1125 1138 1122 1087 1140 1072 1084 1066 1010 1043 1037 1065 1092 1063 1020 1061 1072 1150 1041 1031 1097 1113 1089 1065 1073 1078 1145 1101 1033 1042 1069 1104 1067 1032 1111 1115 1059 1075 1039 1085 1040 1024 1054 998 1049 1095 1039 998 977 1027 1023 1018 996 1032 1055 1018 1013 985 1028 1050 1080 981 1021 1053 1087 1081 942 1003 989 1005 1060 1073 1064 1043 980 1007 985 1013 1012 949 1074 996 1004 1010 1020 1015 1041 982 986 1015 1001 1029 999 1000 951 1020 988 1027 946 1018 1023 970 1033 1026 994 1023 999 1024 983 1078 1021 970 968 1076 998 972 1030 1014 1000 994 967 999 1011 1008 1012 1010 994 1010 1041 986 1006 1021 953 999 968 1069 1000 1050 1007 1075 1049 1057 1091 1123 1053 1085 1121 1159 1209 1187 1204 1210 1258 1286 1263 1327 1292 1363 1401 1393 1411 1437 1474 1562 1541 1542 1567 1497 1511 1549 1521 1561 1409 1406 1386 1432 1374 1324 1344 1268 1227 1293 1252 1241 1124 1199 1077 1160 1060 1069 1081 1093 1021 1082 1012 985 998 1033 1018 972 1023 1001 974 1002 915 1026 1008 946 926 959 968 1007 960 971 930 1031 996 980 967 1007 943 981 1021 1009 929 950 955 933 916 904 985 975 964 963 956 863 988 992 990 989 977 1030 975 920 956 950 940 983 974 907 1009 916 987 909 985 964 972 991 948 959 968 949 1023 929 995 929 964 944 942 922 924 955 967 972 969 968 1013 1011 976 979 915 929 966 934 874 920 926 936 908 933 922 974 947 888 924 932 912 959 946 916 968 910 945 920 950 990 911 983 878 935 941 963 923 969 914 909 936 960 945 898 970 928 944 962 923 1057 870 1003 958 929 944 929 874 914 905 933 912 935 858 959 933 991 906 947 900 908 914 903 911 919 910 894 957 921 985 924 885 920 930 928 887 967 947 913 892 981 927 958 913 947 988 905 926 950 926 946 921 987 905 883 1001 950 962 968 949 882 941 897 945 889 952 975 939 916 913 882 905 919 913 890 936 938 972 929 939 909 934 968 924 895 885 932 958 928 966 885 925 931 918 922 927 947 914 981 936 967 970 956 922 950 856 877 955 896 926 968 933 921 907 976 888 912 886 930 921 899 933 906 900 936 925 901 951 911 921 970 886 887 893 943 964 955 914 905 981 889 957 905 895 905 928 869 921 920 925 935 901 934 916 918 907 937 915 897 869 947 912 882 938 893 932 916 929 923 920 963 922 903 853 942 975 925 889 885 977 863 921 842 863 887 920 878 918 967 935 870 912 997 865 934 942 917 900 899 967 972 863 906 955 895 926 905 895 946 913 961 908 870 897 918 911 914 909 963 864 929 899 969 864 929 896 936 887 865 923 920 916 917 922 896 996 908 884 938 844 873 895 864 919 899 928 894 874 880 933 948 942 912 871 939 895 957 888 975 916 876 903 912 1006 911 897 897 940 892 897 909 875 917 926 952 933 936 893 955 857 898 887 883 874 869 930 930 904 904 901 896 935 904 951 890 871 872 857 880 893 939 891 938 933 918 872 917 919 877 878 934 900 923 914 860 977 901 886 836 817 935 915 956 895 918 943 979 902 888 924 914 897 897 978 893 944 856 936 872 928 892 898 939 879 900 942 888 935 848 934 852 930 924 870 942 882 870 935 868 942 862 942 897 872 866 932 934 940 944 928 979 877 883 943 906 957 909 956 980 904 940 900 993 927 1007 983 953 969 936 1022 1009 1026 998 986 1026 1030 995 1033 1037 1036 1045 1022 1046 1029 1037 1025 1002 991 1015 1025 961 1016 970 940 991 979 945 951 1008 995 991 965 954 952 1025 1014 955 987 915 934 939 963 982 956 961 1001 986 959 977 1019 1054 1017 1042 1070 1082 1045 1136 1127 1105 1119 1196 1237 1319 1307 1307 1413 1388 1451 1501 1430 1497 1624 1491 1624 1634 1630 1712 1703 1679 1707 1598 1607 1621 1576 1518 1475 1451 1425 1428 1374 1374 1423 1341 1351 1316 1229 1262 1187 1184 1162 1119 1088 1090 1028 1052 1037 1036 947 925 945 979 982 949 957 922 862 916 917 994 917 917 964 926 943 931 896 926 884 913 906 888 920 940 935 972 890 880 875 967 849 901 885 892 937 895 922 930 881 891 927 896 948 870 872 890 953 888 864 978 921 961 907 913 915 939 908 938 904 883 879 879 880 947 944 886 911 891 948 867 897 907 904 884 898 801 891 906 928 851 849 845 937 925 942 875 892 874 917 924 900 902 866 865 852 865 843 861 923 862 871 894 942 881 880 869 861 885 863 889 873 863 874 934 862 902 945 891 913 929 890 873 938 947 912 891 895 913 908 896 894 940 947 939 866 979 891 958 884 918 908 874 864 896 921 917 934 886 897 932 914 930 904 936 847 912 951 923 874 948 939 880 936 893 912 843 877 936 929 902 849 912 925 855 846 931 895 950 925 919 998 953 976 856 924 940 913 939 961 924 929 996 872 954 912 911 1017 976 1056 974 1037 1004 1071 987 1002 1012 1064 1128 1103 1144 1222 1267 1352 1327 1397 1418 1523 1504 1621 1539 1716 1705 1779 1871 1975 1948 2006 2084 2091 2185 2246 2224 2271 2263 2165 2203 2064 2191 1927 1917 1894 1836 1779 1763 1711 1790 1701 1761 1601 1661 1492 1520 1401 1442 1229 1206 1206 1216 1201 1092 1086 1145 1101 1037 1052 1068 1024 1035 1007 984 1002 914 948 948 971 959 929 934 934 961 939 1031 975 970 943 981 878 908 925 961 926 917 894 937 883 864 883 933 874 900 892 896 951 903 945 847 875 883 870 823 922 886 908 936 897 882 853 941 852 914 914 865 874 840 943 901 863 909 917 872 879 876 878 910 925 906 947 902 890 898 848 912 892 922 914 914 886 915 804 877 911 862 894 881 915 884 868 911 855 890 907 873 899 922 930 955 882 886 910 911 881 931 837 953 881 900 839 856 863 881 903 910 870 905 896 875 895 951 901 886 874 890 893 874 901 908 910 911 926 916 977 942 946 986 957 1048 1039 1046 1033 1036 1016 1055 1131 1089 1086 984 1125 1170 1101 1181 1120 1173 1285 1198 1286 1172 1171 1167 1177 1130 1149 1119 1145 1159 1034 1131 1105 1106 1063 1083 1076 1056 1062 1061 1002 1001 974 968 953 922 959 951 959 953 913 968 934 879 872 891 944 885 880 851 906 894 889 922 870 843 908 849 876 915 901 853 860 902 849 895 873 846 874 819 850 843 912 873 859 893 846 841 873 858 836 873 871 899 876 835 872 865 848 846 870 870 841 855 937 853 857 864 893 880 847 883 837 866 851 817 852 859 843 889 890 857 890 858 824 899 880 870 858 884 862 917 841 836 862 875 870 883 899 833 902 900 843 884 908 899 817 836 853 852 865 843 911 935 842 912 800 840 867 940 825 808 861 902 825 820 911 864 875 840 855 872 862 880 876 832 838 880 869 879 865 902 888 849 874 861 840 875 857 880 909 897 906 791 849 821 872 861 851 868 839 856 880 845 810 852 864 880 868 890 850 894 903 830 904 864 810 848 920 834 869 858 894 826 899 900 845 825 913 849 849 819 869 854 884 891 837 829 872 852 870 857 915 870 831 823 804 832 856 854 860 851 823 833 822 873 831 805 863 797 865 877 881 830 864 842 903 892 875 910 815 848 873 868 855 828 871 834 899 942 826 878 854 881 839 896 845 881 831 872 853 854 825 845 838 885 863 856 874 861 821 894 861 844 887 867 863 889 876 815 821 840 856 852 841 894 841 874 866 802 822 842 891 861 836 881 854 839 852 927 870 837 822 887 844 878 898 860 815 808 848 847 850 883 878 839 852 878 842 875 901 830 885 854 853 841 910 898 856 821 839 822 863 851 877 862 835 826 861 825 886 784 837 813 861 839 849 862 843 826 835 814 861 823 815 836 812 847 841 836 849 793 851 832 885 808 903 862 853 835 872 871 810 851 827 849 858 798 816 838 896 846 875 834 842 883 844 876 804 857 820 872 836 865 850 891 824 903 815 825 847 832 834 828 820 875 833 861 844 851 867 838 834 839 860 861 804 859 814 800 832 854 834 853 804 812 838 871 846 832 807 852 882 809 826 848 853 855 825 818 908 851 854 894 840 821 857 804 845 811 796 803 880 827 876 818 875 894 904 798 811 863 812 884 844 891 913 882 897 902 980 881 863 974 983 978 932 938 990 1014 929 1060 998 1061 1018 1088 1008 1074 1029 1015 1084 981 1060 1002 1085 1004 1019 933 968 1042 995 939 952 963 913 996 943 926 937 944 935 886 925 949 872 891 918 882 906 871 882 848 882 871 868 924 816 891 898 846 821 849 870 865 858 856 883 843 803 860 860 887 884 890 829 853 863 847 821 851 895 857 878 858 832 863 857 888 845 892 861 861 874 877 870 868 849 846 861 856 860 891 816 804 841 864 822 873 885 825 854 851 908 848 860 822 880 884 832 865 826 842 837 859 862 855 808 869 847 818 835 863 877 762 850 809 822 830 839 830 837 827 815 875 813 925 833 848 865 820 898 808 831 836 874 844 870 804 840 869 807 818 844 872 928 830 841 843 871 820 834 836 822 854 871 846 815 853 822 795 835 866 820 864 883 829 838 874 877 859 846 873 817 809 821 875 844 850 833 855 811 789 837 862 877 846 816 860 842 833 831 867 784 814 834 878 881 829 854 793 875 795 850 869 875 829 889 898 834 822 876 873 817 879 862 843 835 828 788 829 823 863 839 906 847 816 862 847 803 886 865 851 831 861 843 876 862 837 843 881 873 891 793 821 820 911 888 841 850 839 869 837 884 871 856 900 866 898 899 907 832 824 889 888 879 894 911 900 884 894 890 939 904 879 945 894 925 982 974 981 1040 1046 1012 1014 1099 1106 1129 1055 1175 1118 1165 1202 1241 1312 1295 1267 1282 1382 1363 1368 1360 1376 1330 1363 1166 1239 1257 1292 1209 1202 1237 1177 1235 1212 1172 1140 1191 1139 1179 1197 1180 1109 1118 1117 1082 1072 1045 1028 1005 903 969 958 889 943 930 914 902 869 865 948 916 854 846 886 832 881 938 890 873 887 935 869 860 839 859 927 857 899 807 810 861 905 842 796 813 814 883 913 833 876 838 855 804 818 912 850 890 854 876 851 890 811 842 837 889 832 788 846 834 832 862 833 831 856 792 840 827 845 853 837 811 817 837 836 812 819 857 925 854 842 851 820 853 856 875 848 833 845 799 815 834 831 867 810 786 770 817 844 856 872 835 827 818 848 796 850 860 847 840 843 818 807 801 859 859 800 824 839 852 834 827 850 823 834 810 829 869 891 846 830 764 822 866 858 835 831 819 870 873 850 876 807 796 839 831 850 854 869 856 861 823 845 829 849 847 846 894 874 755 796 818 800 846 864 833 868 836 886 832 863 811 826 870 873 821 819 898 880 882 845 823 796 855 804 844 841 808 789 817 847 863 809 861 849 832 816 831 859 874 826 858 851 786 856 801 882 768 846 863 800 899 816 794 804 807 870 858 858 837 870 945 828 805 848 849 807 837 860 867 803 841 824 777 880 861 817 830 837 799 861 855 821 821 828 860 815 802 844 834 835 858 842 822 836 831 842 848 847 835 854 814 842 845 827 816 818 870 820 846 802 855 855 807 833 794 856 843 847 839 802 802 799 826 760 827 852 830 848 859 807 825 849 857 826 814 830 853 803 844 815 859 842 853 869 870 882 821 863 810 819 879 837 804 842 822 874 812 884 847 848 843 851 788 843 822 815 838 826 842 875 847 843 787 855 807 818 817 884 791 795 844 826 831 837 859 811 859 825 842 790 896 868 811 820 837 763 849 834 821 892 839 828 894 794 835 827 793 839 837 825 831 884 780 832 864 825 827 818 792 822 783 839 808 807 832 853 810 882 828 828 859 850 777 833 848 831 870 918 778 768 857 847 837 824 817 841 875 802 816 826 822 827 832 816 835 866 827 873 872 856 827 906 833 824 845 824 823 810 826 800 866 850 772 821 808 821 845 847 841 792 781 808 871 840 850 840 803 869 792 835 811 792 808 852 803 874 787 798 865 827 850 854 801 854 877 846 859 885 856 852 836 877 862 850 849 814 835 828 802 847 832 801 806 842 802 851 872 870 812 836 865 853 823 886 829 901 814 822 845 890 869 860 840 869 845 859 857 882 800 817 859 824 847 846 823 894 813 841 858 815 837 823 853 805 778 845 839 851 838 869 812 798 795 829 807 841 869 811 869 860 830 837 814 859 845 834 837 778 874 848 820 829 845 822 842 879 803 816 806 795 903 869 844 853 800 801 863 880 825 851 866 889 879 783 900 864 872 843 819 900 848 880 846 859 879 850 821 881 852 817 797 887 881 879 909 848 880 910 872 924 907 870 880 922 945 934 906 957 989 975 921 976 975 958 1053 956 961 999 969 956 929 962 926 948 933 969 894 930 912 969 946 993 954 913 939 958 877 924 948 894 897 936 912 911 894 909 898 930 952 915 917 924 890 995 932 854 945 918 941 985 926 997 952 965 1009 1008 1022 1007 1049 1051 1046 1009 1093 1055 1072 1091 1100 1046 1020 1005 1069 1010 1035 985 1041 969 989 1028 1021 965 956 984 938 951 1054 945 1004 932 960 980 917 890 942 910 871 921 902 879 847 882 917 872 820 874 840 900 869 915 826 857 849 831 809 884 870 825 856 831 811 902 801 884 830 854 847 862 855 842 823 882 853 806 858 837 876 871 874 829 818 886 877 827 796 912 895 878 801 900 854 847 830 833 852 844 847 823 811 820 896 844 915 881 885 840 880 798 826 847 848 827 823 874 840 860 796 877 856 819 772 840 805 838 888 857 851 872 838 888 903 887 889 846 846 875 896 860 823 828 857 913 863 845 847 888 929 822 847 912 887 845 874 858 862 923 875 902 887 810 832 850 825 922 869 838 840 891 904 914 850 899 828 869 847 854 864 848 896 836 870 871 902 880 912 832 936 954 909 896 899 913 896 912 872 855 898 903 915 882 890 927 893 935 933 902 945 1005 976 1007 1027 1054 1114 1086 1132 1120 1095 1175 1265 1248 1306 1303 1423 1500 1555 1557 1664 1726 1726 1732 1765 1862 1841 1927 1903 2008 1878 1868 1884 1859 1786 1791 1712 1641 1627 1516 1541 1581 1555 1547 1502 1553 1504 1633 1562 1479 1590 1522 1487 1476 1417 1460 1415 1394 1314 1317 1234 1272 1258 1134 1091 1123 1147 1038 1062 1057 1079 1039 966 997 1032 990 955 999 909 971 909 912 917 899 915 898 962 940 913 944 906 885 891 879 884 902 914 945 945 895 902 907 798 885 905 857 922 881 911 844 904 775 873 856 887 899 853 838 825 906 857 886 867 849 847 946 881 894 862 846 869 903 917 872 840 889 853 815 880 810 893 917 842 873 924 776 874 860 857 866 859 839 856 882 875 886 836 803 869 855 851 849 848 847 826 839 889 847 853 847 861 843 820 904 847 922 866 859 844 909 901 887 936 862 929 842 898 914 959 933 920 922 917 927 942 965 935 908 939 881 918 971 902 910 940 950 951 945 957 935 906 899 877 939 917 904 891 898 885 898 944 894 889 887 818 893 877 851 871 893 900 847 928 864 876 868 894 913 850 853 822 857 886 788 853 859 820 868 826 864 798 860 859 825 864 861 827 875 843 856 870 842 844 848 832 899 816 844 870 862 829 878 820 825 906 839 858 798 855 820 839 837 888 800 864 853 832 890 846 850 766 815 859 816 846 861 829 860 836 830 838 814 865 850 782 866 869 841 846 825 831 832 875 776 859 804 824 829 823 838 832 849 857 823 835 865 837 830 818 867 805 853 884 860 816 828 821 867 813 853 881 815 838 826 833 829 845 758 823 873 829 851 847 799 803 808 798 838 854 785 841 828 871 807 839 832 804 816 889 809 874 807 847 844 870 850 839 830 821 900 816 805 880 813 817 854 840 836 853 808 888 848 804 821 860 850 829 782 841 883 863 841 808 893 800 868 816 808 777 827 911 819 884 835 757 864 825 858 851 844 736 874 837 849 851 840 838 875 862 854 806 849 839 808 851 818 830 820 829 871 844 853 816 848 847 829 830 867 824 817 860 880 841 843 850 858 853 806 827 801 819 805 806 796 848 901 831 821 826 850 783 800 818 897 815 809 830 832 864 851 854 810 877 831 860 843 821 846 842 839 858 881 803 791 827 806 857 846 892 841 870 840 845 810 865 847 779 867 824 826 892 882 833 864 778 855 807 870 789 841 807 868 832 864 823 893 776 822 864 786 805 794 839 857 843 841 793 841 871 760 802 833 827 841 803 811 858 797 859 827 860 774 859 815 864 831 803 782 853 797 878 853 817 885 815 883 799 835 851 823 827 846 858 792 831 878 902 758 888 846 863 846 855 823 803 918 800 877 812 837 858 820 862 834 868 834 844 826 876 812 864 814 897 818 845 880 830 782 855 876 800 826 869 824 822 828 819 849 853 888 881 904 842 845 890 810 814 888 849 840 880 846 896 869 841 835 788 876 875 914 876 891 862 911 898 877 950 926 941 965 911 930 967 927 955 935 955 973 942 932 968 959 935 925 958 931 923 893 885 926 931 930 942 939 931 898 897 897 900 859 911 916 965 935 903 886 896 872 877 940 855 898 902 875 835 876 910 886 868 882 874 853 867 876 868 914 802 846 841 846 867 848 855 861 867 839 811 865 836 847 820 890 869 838 760 821 836 889 816 819 804 798 845 862 823 784 816 789 847 835 863 855 827 843 802 771 788 807 797 824 831 808 838 770 822 876 844 811 793 814 845 838 797 829 824 785 797 820 882 871 870 853 842 806 844 883 872 849 859 818 799 818 815 884 818 797 807 805 853 732 902 813 841 795 806 859 874 845 842 846 850 806 836 823 841 890 854 879 809 865 817 826 845 831 868 796 825 856 860 855 881 850 853 863 859 864 806 852 841 796 818 891 827 809 849 822 834 885 830 846 902 846 830 789 899 829 871 791 818 853 874 800 877 865 862 886 785 860 849 841 802 859 834 816 847 826 803 900 874 842 858 860 867 856 877 877 828 845 887 827 856 956 811 854 891 818 878 909 834 866 872 816 865 810 845 886 865 897 937 922 891 870 910 820 926 849 928 913 902 956 947 913 963 979 959 967 940 1019 978 1078 995 1030 1100 1085 1138 1107 1154 1287 1226 1324 1349 1336 1406 1479 1446 1510 1555 1565 1608 1642 1672 1579 1697 1641 1572 1516 1510 1464 1474 1385 1349 1299 1286 1350 1280 1367 1234 1256 1249 1292 1297 1259 1303 1337 1358 1316 1384 1255 1265 1305 1281 1254 1317 1187 1242 1184 1075 1152 1046 1108 1076 1003 1026 1037 962 932 966 972 936 931 929 882 929 955 875 882 907 862 892 874 911 888 892 849 879 872 912 881 834 891 871 887 845 882 905 887 822 850 850 861 875 863 860 851 843 803 882 852 871 896 852 866 879 875 890 885 822 868 810 879 844 870 844 830 841 780 813 896 797 857 852 839 892 858 874 832 821 835 835 785 866 864 831 825 869 814 864 849 826 820 853 839 842 832 836 847 797 885 850 846 898 864 875 893 896 901 860 863 864 865 881 858 847 851 895 818 808 875 854 830 881 891 867 900 887 943 919 882 835 889 899 840 897 895 911 891 871 830 910 880 845 867 909 900 868 834 892 909 860 835 847 862 866 904 862 863 884 879 828 874 938 849 886 911 879 848 854 830 890 890 823 866 826 859 871 904 871 811 862 810 849 810 805 808 823 786 811 837 830 840 803 821 827 909 807 858 779 838 796 823 873 852 855 828 824 880 834 826 832 808 854 835 853 818 828 864 799 827 807 846 851 824 798 815 847 789 809 819 797 840 787 818 864 825 830 860 874 793 820 847 819 859 826 891 883 798 856 810 801 774 817 828 825 846 819 889 865 809 820 817 833 880 861 842 834 852 869 830 817 842 846 823 860 819 776 833 850 887 851 805 791 873 857 862 858 833 831 843 824 790 828 884 816 824 836 855 831 813 837 849 881 831 848 812 814 799 808 791 884 883 809 816 840 804 857 840 800 839 821 799 811 855 811 817 820 819 857 828 857 829 861 856 815 814 869 792 878 838 813 905 844 839 830 837 854 841 805 818 798 853 872 832 830 814 858 788 842 864 825 819 873 803 871 827 872 854 840 889 817 800 855 821 804 788 852 845 829 827 865 835 821 830 852 787 788 849 793 852 859 823 838 790 843 849 837 865 833 830 814 826 811 815 827 829 830 849 845 832 793 845 830 872 848 797 803 805 799 878 859 833 899 790 802 834 829 841 791 805 882 808 844 874 805 873 793 809 801 831 771 821 777 872 838 814 853 786 847 884 874 756 866 859 871 841 794 849 813 827 869 803 811 800 821 844 841 825 854 828 818 810 833 808 766 839 768 741 850 838 854 861 829 827 870 835 871 831 818 834 867 810 798 752 808 803 785 775 827 797 852 816 790 829 845 877 825 826 836 849 815 846 852 831 816 832 827 787 814 758 892 862 847 877 835 806 845 818 800 794 883 889 854 854 805 764 818 790 894 781 850 882 829 794 880 869 837 874 853 822 846 885 842 840 829 840 868 835 867 837 835 899 842 917 862 909 883 840 823 895 859 869 863 845 871 865 864 918 976 932 949 939 958 941 1014 932 1065 1046 981 978 1030 982 964 994 965 963 1056 970 982 1016 938 937 962 977 937 975 906 973 920 971 890 930 903 948 938 921 914 1018 934 974 897 978 1002 959 961 972 939 923 985 945 938 956 898 1014 905 923 945 941 984 940 1000 922 949 939 982 1049 952 955 982 1031 959 995 980 943 949 933 920 982 910 908 876 880 930 934 897 846 893 915 920 925 874 943 915 936 885 875 913 945 864 878 939 904 894 912</counts>
			</dataPoints>
		</scan>
	</xrdMeasurement>
</xrdMeasurements>
