<?xml version="1.0"?>
<xrdMeasurements xmlns="http://www.xrdml.com/XRDMeasurement/2.3" xmlns:xsi="http://www.w3.org/2001/XMLSchema-instance" xsi:schemaLocation="http://www.xrdml.com/XRDMeasurement/2.3 http://www.xrdml.com/XRDMeasurement/2.3/XRDMeasurement.xsd" status="Completed" recordIdentifier="{DDB0CDE0-D6B2-4E7A-889D-246B7458B80A}">
	<comment>
		<entry/>
	</comment>
	<sample type="To be analyzed">
		<id>GPSS_Li1p64Mn0p78Nb0p07V0p15Cl4_112225_6921f967f4e53d1f72397d3f</id>
		<name></name>
		<preparedBy></preparedBy>
	</sample>
	<xrdMeasurement measurementType="Scan" status="Completed" sampleMode="Reflection">
		<usedWavelength intended="K-Alpha 1">
			<kAlpha1 unit="Angstrom">1.5405980</kAlpha1>
			<kAlpha2 unit="Angstrom">1.5444260</kAlpha2>
			<kBeta unit="Angstrom">1.3922500</kBeta>
			<ratioKAlpha2KAlpha1>0.5000</ratioKAlpha2KAlpha1>
		</usedWavelength>
		<incidentBeamPath>
			<radius unit="mm">145.00</radius>
			<xRayTube id="1010048" name="Empyrean Cu LFF HR (9430 033 7310x)">
				<tension unit="kV">40.0</tension>
				<current unit="mA">15.0</current>
				<anodeMaterial>Cu</anodeMaterial>
				<focus type="Line">
					<length unit="mm">12.0</length>
					<width unit="mm">0.4</width>
					<takeOffAngle unit="deg">6.0</takeOffAngle>
				</focus>
			</xRayTube>
			<sollerSlit id="21010002" name="Soller slits 0.04 rad.">
				<opening unit="rad">0.0400</opening>
			</sollerSlit>
			<mask id="22031000" name="Fixed mask 13 mm">
				<width unit="mm">9.00</width>
			</mask>
			<divergenceSlit id="22120001" name="Divergence slit 1°" xsi:type="fixedDivergenceSlitType">
				<distanceToSample unit="mm">50.00</distanceToSample>
				<height unit="mm">1.52</height>
			</divergenceSlit>
		</incidentBeamPath>
		<sampleMovement xsi:type="spinningSampleMovementType">
			<spinnerRevolutionTime unit="seconds">1.0</spinnerRevolutionTime>
		</sampleMovement>
		<diffractedBeamPath>
			<radius unit="mm">145.00</radius>
			<antiScatterSlit id="22090040" name="AS slit 9 mm (PIXcel)" xsi:type="fixedAntiScatterSlitType">
				<height unit="mm">9.00</height>
			</antiScatterSlit>
			<sollerSlit id="21020003" name="Large Soller slits 0.04 rad.">
				<opening unit="rad">0.0400</opening>
			</sollerSlit>
			<filter id="20030001" name="Large beta-filter Nickel">
				<material>Ni</material>
				<thickness unit="mm">0.020</thickness>
			</filter>
			<detector id="7010019" name="PIXcel1D-Medipix3 detector" xsi:type="rtmsDetectorType">
				<phd unit="keV">
					<lowerLevel>4.02</lowerLevel>
					<upperLevel>11.27</upperLevel>
				</phd>
				<mode>Scanning</mode>
				<activeLength unit="deg">5.542</activeLength>
			</detector>
		</diffractedBeamPath>
		<scan appendNumber="0" mode="Continuous" scanAxis="Gonio" status="Completed">
			<header>
				<startTimeStamp>2025-11-24T12:42:59-08:00</startTimeStamp>
				<endTimeStamp>2025-11-24T12:51:06-08:00</endTimeStamp>
				<author>
					<name>AutomatedUser</name>
				</author>
				<source>
					<applicationSoftware version="1.7b (136)">PANalytical Aeris Instrument Suite</applicationSoftware>
					<instrumentControlSoftware version="3.2.00000000 20240306">AERIS</instrumentControlSoftware>
					<instrumentID>950485</instrumentID>
				</source>
			</header>
			<dataPoints>
				<positions axis="2Theta" unit="deg">
					<startPosition>10.00943322</startPosition>
					<endPosition>99.99442286</endPosition>
				</positions>
				<positions axis="Omega" unit="deg">
					<startPosition>5.00471661</startPosition>
					<endPosition>49.99721143</endPosition>
				</positions>
				<commonCountingTime unit="seconds">12.495</commonCountingTime>
				<counts unit="counts">2787 2797 2760 2737 2635 2751 2720 2805 2797 2799 2790 2664 2752 2778 2844 2741 2775 2752 2750 2751 2828 2824 2797 2720 2710 2811 2751 2771 2815 2808 2726 2771 2646 2702 2723 2773 2760 2837 2750 2773 2710 2718 2754 2784 2750 2805 2712 2779 2746 2745 2695 2749 2681 2790 2786 2631 2736 2775 2749 2766 2780 2783 2757 2721 2766 2714 2745 2749 2873 2740 2822 2710 2828 2820 2790 2718 2781 2705 2789 2762 2801 2756 2718 2678 2738 2743 2795 2745 2809 2734 2671 2826 2725 2774 2744 2794 2709 2821 2716 2866 2901 2763 2760 2778 2714 2690 2666 2826 2797 2767 2752 2691 2785 2904 2807 2732 2787 2698 2783 2866 2805 2762 2759 2716 2792 2684 2807 2685 2770 2742 2810 2762 2817 2747 2721 2792 2831 2790 2765 2778 2799 2793 2713 2820 2736 2765 2804 2741 2726 2759 2625 2767 2780 2711 2792 2779 2740 2847 2707 2789 2693 2743 2722 2735 2770 2704 2827 2739 2723 2749 2723 2731 2694 2746 2759 2810 2821 2765 2753 2745 2674 2919 2754 2860 2791 2757 2777 2852 2817 2697 2748 2769 2791 2658 2730 2748 2818 2670 2722 2869 2685 2832 2796 2707 2869 2719 2674 2713 2731 2733 2793 2868 2796 2713 2793 2948 2775 2780 2782 2750 2762 2742 2725 2666 2773 2895 2864 2683 2737 2750 2735 2834 2707 2705 2792 2774 2751 2752 2793 2797 2824 2687 2801 2773 2815 2712 2738 2788 2744 2768 2779 2759 2739 2738 2716 2796 2742 2673 2821 2753 2800 2740 2783 2846 2790 2770 2736 2800 2745 2781 2737 2684 2777 2775 2897 2769 2814 2768 2799 2804 2851 2745 2829 2883 2947 2764 2751 2743 2904 2887 2853 2814 2917 2919 2898 2882 2863 2756 2899 2947 2865 2819 2902 2850 2821 2845 2871 2908 3024 2845 2964 2856 2891 2925 2829 2934 2948 2943 2984 2782 2948 2908 2883 3005 3027 2988 2994 2983 2978 3044 3052 2887 3084 3073 3030 3127 3201 2927 3073 3037 3080 3145 3015 3090 3117 3167 3019 3027 3048 3091 3123 3176 3212 3174 3217 3137 3148 3127 3224 3211 3274 3210 3231 3286 3215 3130 3188 3177 3246 3273 3258 3330 3278 3292 3296 3264 3277 3335 3268 3420 3408 3451 3363 3493 3372 3358 3415 3392 3445 3515 3510 3439 3466 3453 3418 3433 3629 3618 3573 3632 3642 3669 3704 3632 3716 3837 3990 3905 4021 4035 4068 4253 4313 4396 4439 4530 4547 4730 4920 4936 5225 5272 5439 5455 5580 5722 5824 6017 5904 6009 5901 6138 6161 6164 6244 6056 5938 5830 5734 5460 5418 5242 5050 4986 4858 4683 4711 4648 4586 4497 4425 4392 4365 4201 4120 4235 4248 4083 4184 4126 4006 3931 3893 3759 3762 3831 3818 3849 3717 3697 3714 3688 3660 3609 3627 3681 3631 3705 3659 3690 3575 3591 3706 3509 3586 3560 3533 3445 3538 3596 3559 3471 3562 3536 3496 3555 3546 3428 3530 3500 3517 3567 3426 3356 3506 3519 3493 3429 3371 3396 3360 3479 3400 3422 3398 3407 3381 3359 3460 3453 3432 3456 3262 3405 3347 3396 3348 3322 3245 3295 3378 3328 3354 3286 3264 3275 3211 3336 3266 3269 3249 3414 3315 3316 3243 3214 3344 3251 3235 3192 3323 3213 3249 3320 3387 3283 3240 3150 3233 3193 3303 3265 3333 3241 3101 3273 3219 3233 3167 3268 3235 3247 3330 3255 3224 3229 3206 3180 3271 3119 3265 3142 3206 3082 3120 3190 3289 3144 3155 3077 3096 3146 3193 3082 3124 3150 3154 3130 3124 3084 3210 3068 3128 3145 3167 3133 3076 3278 3117 3157 2988 3108 3144 3168 3159 3159 3171 3066 3143 3166 3076 3119 3196 3153 3134 3096 3080 3143 3081 3013 3164 3068 3104 3118 3041 3083 3074 3200 3088 3150 3075 3157 3094 3077 3054 3102 3049 3062 3044 3031 3155 3119 3100 3081 3133 3057 3150 3106 3091 3061 3124 2971 3033 3107 3093 3175 3006 3155 3067 3052 2978 3117 3052 3111 3018 3067 2990 3087 3129 3092 2995 3036 3007 3086 3051 3037 2971 3136 3051 2990 3035 2930 3075 3068 3071 3058 3056 3010 3005 3083 2951 3076 3050 3131 3012 2933 3071 2967 3063 3051 2992 3013 3016 3089 2980 3045 3067 3084 3051 2957 3123 2944 3010 2969 3061 3067 3041 2962 3024 2996 2906 2946 3007 3054 2972 3058 2972 2913 3097 2985 3015 2956 3001 2982 2869 2876 3032 3016 3005 2998 2959 2870 3004 3021 2938 2987 2971 2942 2972 3019 2960 2941 3017 3039 3039 2913 3088 2906 2956 2934 2987 2927 2894 2961 3013 2975 2933 3013 2981 2936 2866 2903 2861 2891 2902 2940 2934 3009 2950 2980 2934 3061 2866 3005 2974 2907 2937 2977 2850 2918 2972 2977 3056 2852 2920 2887 2893 2927 2944 2960 2865 2905 2935 2879 2868 2839 2912 2896 2898 2937 2930 2932 2865 2958 2886 2914 2922 2884 2963 2953 2875 2949 2985 2829 2922 2922 2954 2826 2980 2974 2824 2887 2762 2879 2904 2846 2848 2800 2917 2879 2938 2895 2826 2813 2891 2845 2792 2989 2865 2886 2789 2841 2893 2807 2875 2777 2838 2793 2851 2885 2854 2833 2759 2797 2849 2844 2880 2741 2752 2881 2838 2847 2861 2875 2780 2816 2764 2767 2798 2810 2853 2867 2745 2932 2886 2798 2724 2784 2730 2860 2683 2914 2836 2830 2846 2729 2785 2823 2778 2759 2708 2725 2830 2756 2747 2793 2708 2840 2774 2858 2686 2817 2766 2884 2794 2762 2763 2851 2721 2694 2754 2730 2640 2765 2748 2678 2724 2596 2818 2675 2788 2704 2739 2757 2724 2702 2742 2739 2817 2775 2749 2770 2714 2704 2693 2720 2810 2697 2711 2674 2748 2719 2717 2658 2718 2683 2680 2663 2776 2730 2705 2738 2685 2706 2712 2725 2789 2692 2714 2809 2763 2676 2676 2806 2731 2713 2652 2778 2778 2814 2672 2729 2709 2682 2745 2746 2737 2719 2852 2689 2786 2713 2614 2766 2770 2707 2645 2744 2678 2711 2678 2751 2636 2835 2681 2740 2659 2753 2773 2652 2693 2704 2709 2701 2770 2689 2665 2721 2717 2683 2782 2705 2719 2742 2689 2634 2700 2813 2730 2757 2663 2744 2746 2700 2792 2657 2744 2643 2703 2664 2722 2706 2671 2688 2856 2703 2766 2638 2753 2664 2743 2700 2710 2761 2796 2685 2739 2732 2732 2706 2791 2714 2734 2757 2744 2738 2715 2659 2645 2735 2657 2853 2738 2732 2726 2780 2700 2711 2732 2660 2683 2728 2615 2737 2746 2696 2861 2671 2685 2729 2783 2790 2676 2760 2717 2691 2617 2668 2626 2703 2734 2830 2750 2674 2662 2681 2630 2629 2685 2626 2706 2603 2672 2673 2593 2733 2640 2662 2539 2751 2612 2713 2645 2671 2666 2650 2710 2661 2657 2673 2705 2608 2728 2633 2668 2557 2507 2569 2629 2679 2615 2626 2630 2632 2563 2492 2495 2531 2604 2643 2551 2542 2572 2500 2511 2519 2496 2536 2693 2470 2573 2562 2496 2587 2544 2478 2502 2516 2453 2513 2371 2500 2470 2498 2469 2418 2596 2547 2445 2482 2430 2364 2503 2534 2512 2531 2418 2421 2464 2460 2438 2404 2430 2413 2499 2443 2364 2378 2445 2379 2446 2501 2466 2402 2416 2374 2349 2426 2376 2267 2365 2506 2319 2410 2404 2313 2337 2362 2205 2313 2296 2343 2377 2249 2380 2290 2309 2180 2338 2236 2354 2263 2338 2258 2313 2273 2268 2213 2268 2225 2274 2319 2195 2257 2308 2242 2320 2195 2207 2130 2233 2135 2216 2260 2135 2247 2234 2192 2261 2181 2184 2217 2293 2233 2286 2230 2162 2108 2180 2130 2136 2148 2163 2212 2243 2178 2154 2180 2186 2159 2171 2244 2237 2153 2234 2119 2135 2195 2116 2209 2091 2204 2152 2132 2161 2070 2137 2081 2155 2116 2117 2098 2211 2104 2095 2090 2182 2122 2235 2117 2070 2202 2081 2133 2113 2149 2189 2106 2161 2019 2075 2113 2047 2123 2138 2085 2034 2132 2047 2125 2010 2139 2141 2104 2026 2106 2074 2092 1999 2142 2034 2014 2124 2183 2046 1999 1988 2092 1951 1968 2151 2025 2051 2008 1931 1958 2059 2070 2158 2004 2084 2074 2093 2030 1980 2163 2004 2012 2081 2019 2028 2052 2027 2077 2015 2095 2006 2046 2096 2004 2065 2039 2117 2005 1944 2114 2106 1989 1987 2033 1986 2038 2032 1988 2039 2060 2035 1996 2035 2061 2077 2053 2052 2068 2029 2118 2030 2065 2076 2064 2052 2090 2042 2085 2096 2062 2025 2013 1994 2064 2057 2028 2068 2074 2069 2137 2084 2040 2056 2038 2078 2072 2048 2056 2007 2028 2137 2046 2077 1991 2082 2193 2061 2020 2079 2103 2081 2026 2046 1988 1979 2085 1958 2133 1964 1993 2028 1989 2059 2110 2061 1925 2047 2061 2065 2053 2006 2097 2118 2087 2056 2044 2026 2018 2067 2059 1973 2024 2008 1961 2004 2040 1986 2016 2009 2055 2029 2103 1998 2091 2009 2113 2065 2102 1998 2081 2040 2069 2087 1990 2046 2085 2067 2063 2020 2084 2057 2089 1992 2107 1991 1988 1947 2066 2016 1938 1947 2050 2026 2011 2000 1993 2035 2021 1991 1988 2012 1923 1976 1984 1976 2083 1902 1981 2018 2013 1911 1989 2040 1944 1988 1982 1988 1980 1878 1899 1904 1933 1944 1999 1886 1953 1969 1913 1925 1947 1884 1893 1910 1944 1879 1907 1903 1885 1865 1891 1911 1837 1887 1843 1864 1908 1960 1940 1800 1818 1877 1912 1949 1832 1814 1825 1845 1802 1828 1857 1868 1906 1886 1908 1875 1963 1773 1842 1868 1865 1847 1805 1803 1872 1802 1849 1838 1806 1838 1816 1758 1789 1836 1754 1833 1834 1922 1814 1722 1763 1755 1804 1738 1818 1764 1828 1814 1793 1742 1779 1822 1857 1679 1788 1758 1834 1848 1826 1808 1811 1722 1907 1812 1779 1765 1775 1775 1794 1776 1806 1813 1821 1901 1805 1987 1946 1958 1992 2042 2111 2204 2228 2336 2252 2361 2414 2480 2646 2683 2741 2826 2882 2893 3012 3018 2980 3040 3085 3155 3063 3069 2952 3006 2912 2847 2906 2804 2603 2548 2373 2375 2359 2200 2160 2088 2047 2045 2011 1918 1997 1945 1942 1900 1931 1964 1925 1891 1885 1799 1823 1810 1746 1784 1839 1787 1838 1782 1757 1770 1755 1752 1664 1739 1702 1736 1699 1698 1713 1645 1607 1669 1647 1662 1707 1615 1668 1693 1670 1731 1602 1653 1646 1671 1678 1667 1628 1665 1643 1658 1601 1591 1619 1753 1571 1686 1668 1607 1709 1633 1649 1642 1680 1764 1749 1664 1828 1789 1790 1749 1905 1824 1828 1861 2037 2014 2135 2316 2369 2537 2663 2722 2937 3080 3275 3377 3600 3754 3945 4390 4327 4465 4655 4939 4865 4932 4948 5091 5167 5163 5252 4941 4880 4848 4651 4331 4010 3955 3679 3612 3178 3108 2984 2753 2577 2469 2417 2321 2376 2170 2156 2144 2178 2169 2055 2162 2064 2118 2147 2008 1987 1984 2022 2003 1976 1945 1896 1943 1910 1827 1807 1839 1805 1712 1717 1700 1715 1738 1620 1656 1686 1624 1584 1577 1552 1606 1477 1505 1518 1556 1563 1556 1534 1552 1496 1501 1455 1528 1508 1459 1425 1459 1452 1457 1468 1473 1502 1407 1501 1511 1466 1444 1470 1434 1445 1427 1469 1456 1505 1464 1490 1436 1496 1517 1461 1415 1431 1377 1429 1507 1491 1398 1481 1411 1401 1404 1451 1442 1460 1459 1434 1456 1413 1444 1444 1461 1447 1414 1400 1425 1372 1404 1379 1380 1427 1464 1421 1357 1408 1393 1371 1351 1371 1426 1396 1427 1406 1389 1391 1458 1351 1355 1350 1353 1384 1376 1406 1354 1337 1280 1311 1339 1433 1399 1447 1323 1311 1402 1404 1250 1498 1406 1347 1348 1341 1358 1328 1370 1339 1351 1381 1364 1401 1376 1304 1359 1320 1337 1373 1372 1372 1356 1347 1303 1364 1309 1320 1421 1307 1399 1399 1318 1371 1359 1407 1351 1349 1373 1304 1300 1418 1332 1349 1363 1266 1327 1319 1347 1365 1336 1339 1352 1317 1322 1284 1346 1387 1336 1307 1288 1339 1291 1331 1328 1373 1388 1256 1384 1348 1350 1295 1411 1347 1307 1276 1360 1347 1351 1426 1334 1374 1315 1297 1367 1251 1261 1375 1297 1309 1326 1335 1342 1332 1280 1308 1298 1341 1367 1359 1382 1395 1309 1279 1323 1329 1310 1373 1277 1309 1330 1282 1302 1301 1327 1369 1314 1346 1270 1294 1299 1318 1310 1304 1324 1365 1282 1287 1321 1240 1322 1324 1324 1320 1324 1318 1309 1347 1347 1319 1304 1300 1353 1378 1345 1325 1296 1324 1293 1365 1321 1307 1347 1303 1356 1300 1340 1394 1425 1300 1364 1383 1322 1332 1322 1341 1404 1341 1309 1358 1364 1344 1342 1392 1381 1408 1365 1443 1376 1377 1375 1343 1349 1455 1355 1402 1391 1425 1344 1425 1368 1385 1375 1422 1382 1369 1441 1362 1405 1453 1428 1375 1443 1359 1427 1461 1386 1430 1453 1410 1422 1414 1431 1464 1521 1420 1461 1389 1480 1434 1467 1520 1425 1550 1512 1577 1509 1512 1601 1581 1605 1582 1626 1635 1672 1648 1778 1734 1857 1898 1909 1944 2146 2115 2298 2476 2614 2743 2966 3321 3486 3770 4041 4452 4766 5263 5627 6076 6780 6904 7689 8113 8474 9078 9258 9632 9971 10177 10351 10541 10719 10790 10772 10823 10791 10272 9848 9662 9257 8602 8116 7419 6908 6508 6047 5583 5084 4682 4240 4104 3819 3509 3396 3228 3043 3038 2846 2810 2709 2738 2638 2590 2552 2520 2524 2446 2404 2343 2291 2285 2185 2349 2265 2136 2093 1995 2042 1913 1959 1942 1845 1797 1793 1727 1716 1583 1574 1610 1586 1507 1471 1486 1544 1440 1488 1410 1358 1409 1423 1459 1426 1370 1333 1361 1367 1395 1317 1295 1378 1350 1359 1324 1314 1323 1380 1346 1232 1363 1346 1378 1315 1331 1255 1323 1299 1256 1295 1294 1321 1231 1230 1274 1257 1264 1309 1249 1351 1271 1331 1312 1291 1274 1230 1277 1292 1264 1231 1305 1352 1221 1295 1344 1241 1309 1274 1210 1195 1280 1303 1275 1264 1214 1278 1250 1290 1272 1227 1255 1318 1302 1218 1244 1223 1269 1174 1184 1259 1266 1249 1238 1214 1255 1237 1237 1250 1241 1168 1261 1224 1214 1278 1245 1198 1258 1323 1241 1174 1206 1206 1276 1213 1214 1184 1217 1265 1240 1171 1189 1223 1221 1224 1247 1294 1272 1232 1218 1229 1230 1247 1215 1226 1217 1243 1171 1202 1219 1194 1246 1165 1205 1219 1199 1200 1149 1198 1310 1213 1225 1265 1237 1236 1248 1233 1223 1302 1254 1342 1167 1186 1188 1164 1228 1224 1207 1162 1212 1175 1233 1279 1173 1247 1211 1200 1176 1194 1168 1173 1206 1186 1224 1236 1127 1118 1174 1187 1186 1182 1169 1192 1172 1180 1225 1232 1197 1179 1273 1196 1240 1218 1182 1177 1193 1234 1192 1172 1216 1156 1167 1191 1166 1208 1196 1227 1178 1199 1214 1224 1201 1239 1201 1249 1273 1295 1270 1231 1265 1269 1236 1265 1257 1324 1298 1249 1307 1326 1363 1231 1271 1289 1335 1191 1274 1205 1251 1248 1210 1223 1258 1212 1178 1185 1173 1228 1174 1174 1130 1165 1174 1204 1184 1153 1190 1221 1186 1176 1159 1104 1178 1144 1181 1178 1179 1186 1190 1188 1169 1132 1226 1149 1180 1178 1145 1161 1151 1163 1120 1173 1217 1153 1200 1237 1131 1126 1162 1172 1109 1195 1069 1143 1173 1186 1164 1142 1127 1139 1131 1140 1140 1160 1164 1201 1186 1165 1177 1025 1177 1112 1128 1139 1103 1145 1133 1196 1089 1185 1161 1189 1133 1187 1117 1140 1151 1119 1130 1112 1090 1159 1195 1162 1152 1162 1101 1089 1097 1107 1096 1133 1143 1157 1152 1132 1168 1146 1147 1100 1161 1145 1144 1100 1122 1135 1112 1113 1130 1160 1133 1103 1073 1119 1093 1132 1163 1173 1107 1199 1076 1152 1201 1092 1158 1151 1047 1100 1095 1122 1155 1115 1092 1086 1124 1175 1070 1099 1094 1185 1108 1134 1116 1109 1073 1095 1123 1090 1115 1135 1086 1113 1088 1087 1143 1109 1151 1091 1096 1074 1123 1153 1091 1122 1167 1074 1128 1145 1114 1145 1127 1103 1116 1177 1112 1065 1134 1111 1126 1118 1081 1116 1140 1117 1105 1101 1039 1093 1106 1114 1085 1072 1113 1087 1057 1054 1036 1073 1054 1105 1090 1137 1117 1101 1079 1065 1111 1123 1129 1134 1084 1141 1059 1070 1037 1098 1077 1100 1080 1133 1069 1077 1132 1103 1063 1106 1084 1123 1118 1027 1089 1095 1117 1064 1090 1092 1136 1074 1096 1162 1123 1116 1128 1108 1124 1064 1043 1145 1041 1113 1096 1082 1151 1138 1053 1107 1120 1073 1077 1048 1120 1040 1085 1107 1061 1075 1068 1139 1133 1128 1099 1071 1133 1064 1089 1051 1048 1156 1087 1111 1102 1041 1149 1038 1087 1085 1090 1170 1100 1066 1074 1117 1115 1104 1098 1072 1093 1051 1063 1130 1069 1066 1052 1066 1106 1052 1070 1084 1114 1062 1096 968 1080 1044 1065 1047 1086 1087 1129 1064 1056 1078 1024 1044 1104 1062 1077 1026 1067 1051 1107 1043 1032 1067 1015 1068 1073 1076 1064 1131 1094 1067 1154 1089 1125 1111 1077 1067 1109 1072 1130 1043 1067 1064 1044 1102 1082 1047 1052 1059 1135 1073 1060 1073 1120 1062 1089 1123 1064 1042 1099 1069 1024 1076 1127 1085 1107 1100 1067 1038 1098 1050 996 1038 1091 1093 1126 1078 1018 994 1060 1050 1082 1066 1041 1092 1113 1030 1022 1075 1013 1056 1094 1088 1137 1104 1006 1074 1075 1072 1118 1048 1066 1140 1080 1099 1040 1115 1074 1101 1090 1079 1114 1012 1097 1095 1127 1008 1138 1059 1083 1066 1109 1136 1139 1056 1094 1045 1074 1112 1080 1070 1085 1144 1060 1098 1053 1055 1036 1081 1100 1083 1071 1087 1042 1135 1065 1044 1135 1130 1163 1074 1112 1080 1065 1041 1054 1115 1017 1115 1060 1079 1138 1136 1084 1097 1079 1053 1077 1043 1077 1059 1089 1055 1104 1093 1011 1078 1136 1041 1025 1090 1059 1073 1106 1110 1078 1053 1079 1071 1025 1002 1130 1044 1117 1041 1076 1120 1081 1139 1064 1185 1007 1161 1073 1022 1030 1068 1091 1038 1105 1083 1102 1041 1024 1086 1071 1044 1047 1083 1041 1055 1112 1111 1064 1123 1061 1022 1148 1080 1094 1070 1066 1104 1027 1094 1033 1028 990 1099 1102 1092 1059 1098 1035 1082 1076 1062 1109 1122 1096 1107 1091 1011 1015 1071 1090 1062 1102 1030 1035 1123 1051 1093 1012 1074 1041 1077 1065 1066 1073 1053 1048 1086 1099 1085 1040 1128 1064 1091 1093 1076 1024 1159 1132 1096 1099 1031 1062 1029 1060 1105 1081 1057 1112 1103 1115 1147 1049 1082 1137 1154 1094 1102 1066 1073 1080 1095 1098 1114 1091 1109 1008 1110 1152 1110 1056 1107 1086 1079 1114 1144 1066 1138 1099 1162 1076 1148 1072 1148 1095 1131 1155 1099 1182 1200 1221 1177 1239 1269 1325 1330 1299 1372 1430 1454 1433 1474 1547 1604 1550 1659 1697 1701 1733 1773 1711 1826 1835 1885 1864 1971 2046 2011 1933 2028 2062 2001 1983 1977 1956 1868 1772 1806 1750 1686 1661 1614 1577 1632 1507 1460 1431 1413 1429 1364 1299 1296 1304 1208 1228 1147 1253 1146 1231 1185 1168 1138 1109 1143 1123 1087 1090 1107 1145 1134 1141 1129 1109 1096 1136 1111 1099 1115 1080 1080 1041 1126 1054 1087 1084 1047 1092 1055 1069 1014 1035 1079 1082 1055 1022 1081 1082 1074 1076 980 1077 1034 995 1046 1004 1039 1054 1063 1011 1043 1020 1035 1032 1048 1025 1053 1026 1038 1073 1017 1038 1025 1063 995 1109 996 1022 1041 1060 1025 1038 1115 1070 1099 1099 1065 1058 1118 1111 1056 1032 1034 1013 1049 1019 1031 1028 1056 1096 1060 1056 1068 1063 1105 954 968 1056 995 1002 1074 1070 1033 1011 1029 1058 1045 994 1071 997 1031 988 996 1044 1067 1014 998 1001 1123 941 1058 1065 1009 1024 1089 986 997 1001 1062 1029 1026 1094 1096 1008 1037 1041 1023 921 1032 1056 1081 1012 1036 977 1029 1034 1041 1125 997 1099 1042 1049 1051 1056 1006 1069 1039 1072 1006 1021 1074 1005 1083 1071 1026 1006 995 1014 1058 1021 1090 1065 1012 1030 1078 1105 1007 1039 1036 1091 998 1062 1045 1037 1060 1041 1074 1047 1055 994 1020 1048 1029 1056 1066 1118 1078 1117 1042 1129 1073 1054 1004 1084 1069 1073 1085 1048 1022 1045 1054 1123 1019 1058 1033 1026 1032 1079 1061 1103 1031 1124 1067 1031 1060 1076 1056 1113 1077 1067 1047 1025 1057 1096 1047 1010 1077 1092 1077 1095 999 1107 1068 1059 1084 1058 1079 1071 1115 1071 1096 1037 1033 1049 1050 998 1053 1107 1065 1069 1118 1064 1100 1044 1103 1081 1059 1102 1064 1073 1067 1027 1058 1123 1082 1122 1065 993 1045 1055 1111 1037 1038 1048 1103 1155 1054 1138 1077 1071 1030 1108 1085 1059 1117 1080 1170 1135 1133 1064 1118 1121 1115 1153 1159 1154 1111 1197 1181 1184 1181 1146 1192 1216 1177 1199 1244 1197 1189 1246 1251 1256 1409 1420 1350 1368 1437 1468 1584 1708 1733 1854 1989 2096 2138 2239 2350 2537 2642 2830 2885 3000 3187 3398 3404 3695 3754 4041 4085 4209 4422 4555 4740 5014 5124 5369 5457 5609 5692 5801 5893 6048 5964 5932 5841 5772 5473 5244 5091 4838 4421 4260 4072 3978 3711 3594 3445 3268 3192 2905 2868 2605 2359 2237 2130 2081 1954 1902 1798 1758 1685 1698 1629 1553 1546 1581 1514 1486 1439 1375 1394 1379 1350 1291 1381 1304 1320 1279 1328 1289 1311 1209 1261 1216 1198 1222 1261 1260 1179 1151 1244 1198 1222 1188 1178 1232 1186 1180 1174 1103 1144 1146 1153 1208 1154 1112 1164 1151 1136 1135 1091 1076 1071 1031 1080 1148 1134 1114 1027 1068 1084 1059 1011 1069 1064 1101 1020 1060 1057 1096 1061 1046 1026 1041 1086 1072 1057 1045 1036 1016 1085 1051 1040 1075 1086 1028 957 1022 1046 976 1028 1038 1060 927 1065 1047 1059 1037 1030 1030 1002 1082 1039 1064 1072 1021 1064 987 1017 1027 1059 950 973 1026 1089 1041 981 984 1037 1036 998 987 1012 1033 1012 1046 1017 1046 1055 1036 996 1041 1019 965 1001 982 1010 1015 1034 1015 1038 1060 1015 1048 1009 995 1040 1008 1050 1028 1026 1002 1054 1029 1026 1005 1051 1069 1016 1071 1039 1128 1038 1098 1135 1094 1138 1091 1114 1208 1230 1209 1194 1216 1237 1276 1296 1263 1268 1332 1326 1314 1319 1299 1321 1416 1435 1408 1543 1466 1497 1565 1459 1576 1464 1532 1450 1527 1416 1491 1515 1443 1429 1361 1370 1350 1285 1287 1277 1283 1325 1201 1180 1149 1153 1134 1127 1086 1058 1110 1120 1046 1082 1086 1064 1061 1050 1071 1053 1044 992 1000 1029 1008 999 1084 1027 1022 1001 992 1002 1050 1014 1027 990 1032 1048 1016 980 958 973 984 1080 975 933 1030 1084 1050 1046 1001 1077 997 1058 1019 935 1041 1039 1009 982 962 973 1018 1027 1008 1000 952 978 1011 874 969 958 1035 1035 942 937 960 927 978 953 953 902 1008 942 1013 947 981 995 977 959 1040 973 961 937 961 913 885 990 985 961 941 1003 1002 959 955 930 1004 966 996 955 979 953 953 974 1028 956 921 965 980 1019 996 953 978 955 914 1002 963 984 972 936 995 989 961 912 955 916 979 974 926 1002 985 964 957 981 914 939 978 941 970 968 963 934 969 1011 974 974 1003 892 1012 978 958 990 974 920 992 974 939 966 965 1009 938 983 980 956 949 970 936 970 926 971 967 947 960 944 953 947 1004 948 996 980 922 967 963 940 920 942 954 943 951 955 929 1000 918 995 958 899 957 969 936 939 954 979 940 965 887 931 973 932 955 896 944 962 954 908 966 923 950 963 922 931 951 948 900 996 1007 960 911 964 946 936 971 893 941 937 998 919 895 966 930 937 924 914 932 942 928 911 951 943 979 880 956 960 920 930 974 995 933 956 958 973 933 930 944 901 981 916 920 922 896 871 953 927 923 1028 912 958 948 897 923 965 981 930 929 925 930 934 959 956 924 927 1008 879 958 950 965 948 904 929 960 996 913 924 920 922 916 894 936 970 911 959 913 892 933 922 928 941 925 947 948 941 913 955 902 1017 939 958 969 992 942 931 946 902 936 955 913 943 903 945 899 1035 986 937 936 985 938 952 899 938 886 921 940 933 965 955 901 976 944 968 976 915 889 927 943 924 992 962 961 930 886 871 965 919 919 931 924 935 964 968 922 885 902 980 917 939 935 908 890 965 1000 868 937 911 908 1009 959 913 910 902 924 885 883 942 946 961 912 889 890 928 893 944 947 914 953 889 907 945 962 939 978 941 957 928 990 951 947 919 942 887 912 979 930 877 913 991 957 924 940 978 909 896 951 948 941 890 947 929 962 928 980 936 913 945 902 945 932 967 868 873 889 925 907 957 983 895 907 957 888 926 925 943 927 919 909 974 966 967 922 889 909 926 946 959 959 994 899 939 916 917 889 899 967 947 912 946 895 940 934 916 947 945 959 965 947 908 947 923 898 969 920 984 956 907 916 918 947 997 967 982 1020 940 980 953 1021 955 1005 1019 1019 1010 1031 1045 1041 1022 1007 1009 1060 1029 1036 1081 981 1050 1119 1013 1053 1024 1036 1022 990 1020 978 1000 987 1028 1014 1011 941 1023 974 1002 1023 958 965 1063 973 974 984 988 1022 1032 1013 1047 1004 1073 1043 1079 1129 1101 1167 1080 1159 1226 1195 1211 1187 1306 1249 1219 1223 1220 1294 1303 1369 1326 1343 1354 1385 1389 1543 1490 1483 1506 1497 1542 1551 1577 1575 1572 1554 1503 1491 1441 1483 1441 1414 1347 1377 1272 1269 1299 1313 1271 1222 1284 1194 1156 1160 1155 1097 1033 1020 1083 1002 1022 1058 1017 984 1010 1035 949 998 938 954 1005 960 961 976 954 912 989 949 970 954 936 916 943 903 924 910 908 971 918 990 974 893 948 943 931 951 892 953 993 888 978 947 959 1033 848 934 922 1040 943 908 953 899 909 974 931 902 886 948 952 971 928 951 881 973 975 901 937 915 932 952 1006 947 932 905 878 924 834 881 936 926 968 975 956 909 894 891 923 946 893 893 950 958 915 880 938 940 920 918 896 963 961 889 888 875 916 938 937 930 913 943 920 873 962 973 950 941 927 885 898 936 948 888 933 908 933 890 946 958 948 917 977 953 954 933 930 908 931 913 947 919 893 932 918 906 940 897 917 924 896 924 936 891 945 852 882 910 940 889 962 907 899 952 963 886 928 915 896 927 912 961 927 982 916 849 901 913 934 901 946 994 939 918 927 1019 908 973 928 935 944 966 917 1014 963 1018 968 991 959 1065 998 1014 1090 1088 1085 1135 1160 1143 1200 1243 1228 1237 1267 1384 1333 1445 1379 1425 1470 1486 1392 1505 1514 1498 1534 1485 1588 1658 1630 1745 1787 1886 1874 1957 1980 2032 1999 2067 2035 2044 2117 2046 2043 1946 1920 1858 1841 1806 1685 1640 1617 1686 1593 1643 1612 1552 1494 1416 1429 1440 1348 1374 1369 1286 1199 1228 1195 1111 1058 1112 1034 1039 1072 1034 1046 1028 1004 1085 1005 1012 995 979 980 994 980 1011 920 985 941 958 966 924 964 1002 929 935 897 921 949 998 977 918 953 919 939 923 891 939 972 906 895 904 900 927 940 957 1033 938 909 895 882 967 940 916 944 919 900 946 922 958 900 957 930 923 905 980 898 887 911 909 942 918 924 956 940 862 936 854 883 914 887 939 879 895 913 896 845 919 945 900 923 915 923 938 883 910 932 973 912 904 915 871 945 924 944 950 931 955 939 926 928 947 884 918 914 926 973 955 848 945 906 943 994 925 923 924 944 928 976 981 976 926 979 1013 995 1020 978 972 980 1011 1042 1089 985 1010 1048 1001 1049 1071 1075 1021 1019 1017 1131 1167 1119 1132 1123 1180 1157 1119 1170 1200 1172 1118 1175 1204 1169 1151 1133 1106 1060 1168 1075 1071 1090 1052 990 1092 1040 1036 1001 1033 997 1048 1052 1021 999 976 992 964 985 978 895 932 909 940 953 887 985 902 912 873 855 917 901 913 903 923 890 873 908 918 885 872 994 865 897 897 878 879 926 903 895 880 867 907 885 889 915 927 888 891 899 907 874 919 835 942 888 891 897 881 873 766 859 870 855 918 898 877 915 906 945 929 915 901 938 918 880 880 904 903 900 845 879 897 877 855 897 896 880 904 929 900 899 923 860 934 917 847 922 912 890 871 930 859 887 879 931 876 882 825 874 880 920 910 952 904 960 884 868 904 865 893 958 899 925 872 855 868 863 875 917 917 902 910 844 885 927 817 930 859 858 877 854 868 879 865 838 870 867 838 881 895 838 894 893 885 866 856 930 900 818 874 863 863 916 849 855 877 871 861 868 853 871 932 886 853 857 911 848 846 916 911 879 841 896 863 878 882 842 819 915 946 860 825 902 841 893 888 879 917 887 838 882 887 840 903 894 870 878 854 836 851 901 889 846 854 844 879 901 854 850 917 872 845 859 876 855 854 918 858 845 888 864 867 802 832 868 902 848 905 852 896 871 916 871 852 870 853 931 861 869 900 882 873 857 871 867 880 883 944 882 886 817 848 867 879 893 859 892 873 864 852 904 887 835 820 829 886 932 857 885 933 859 887 888 880 873 769 827 845 924 852 912 856 871 867 860 869 850 902 891 874 901 870 822 875 873 861 884 866 848 861 838 839 895 825 889 881 860 886 837 903 821 913 887 845 849 847 873 931 791 885 911 862 885 877 907 871 856 862 921 835 889 920 896 853 885 811 864 864 859 932 892 862 848 904 853 874 846 841 838 898 873 823 844 876 856 876 843 870 853 890 834 871 820 883 901 894 855 883 885 845 864 851 844 917 858 921 853 894 881 895 810 877 907 900 892 899 909 889 899 889 935 832 927 817 831 861 869 861 848 876 895 883 845 853 838 891 875 822 843 882 825 900 906 851 903 902 798 868 916 868 876 835 856 910 889 872 870 875 878 877 946 878 842 920 857 984 941 938 934 919 964 891 874 970 930 932 937 942 878 953 904 958 891 971 988 954 933 1006 964 991 966 979 966 987 1006 1017 945 1057 983 1046 1078 1011 993 1015 1003 950 927 980 991 981 903 993 958 996 888 935 959 943 953 995 956 943 947 910 891 923 903 876 895 898 900 912 830 859 858 832 875 903 885 919 897 894 870 879 850 862 903 842 866 865 912 810 888 925 893 870 830 886 925 811 892 847 908 892 892 887 850 858 852 877 834 885 837 886 833 895 873 865 857 828 853 870 884 862 895 853 898 909 875 894 882 844 814 882 858 842 857 855 861 829 878 882 822 867 863 890 848 851 882 868 862 882 834 821 859 843 857 842 875 937 808 814 864 821 893 843 856 819 857 884 863 844 839 867 857 902 903 866 901 869 866 928 899 888 892 901 871 869 875 854 890 900 873 861 869 842 846 902 856 881 832 880 890 889 879 869 831 881 894 841 836 859 879 910 916 885 844 927 863 865 848 833 845 869 896 878 830 871 833 862 901 843 823 843 848 876 861 876 851 860 826 850 861 861 815 865 927 926 764 836 826 863 840 853 823 893 880 866 857 880 854 816 826 928 853 878 842 879 857 829 840 857 893 857 798 847 873 895 831 829 892 863 880 838 825 875 874 897 909 905 927 874 903 911 927 894 860 967 914 918 894 911 930 950 967 959 920 962 1007 1049 1022 1042 1009 1043 988 1022 1083 1059 1126 1086 1044 1033 1035 1046 1080 1113 1093 1060 1104 1165 1180 1171 1196 1237 1153 1196 1258 1241 1213 1327 1285 1252 1276 1294 1323 1253 1236 1243 1293 1165 1154 1186 1174 1152 1153 1114 1146 1086 1097 1111 1132 1067 1061 1112 1021 1055 1052 1030 1025 1001 966 971 987 988 908 918 933 878 927 908 936 1005 976 915 885 916 877 949 900 878 902 952 917 928 891 852 882 890 867 899 915 866 820 872 875 873 850 821 891 832 907 841 827 859 911 928 808 852 893 825 897 826 863 864 871 847 864 903 871 792 839 896 828 912 907 894 885 919 825 859 802 902 871 896 838 889 845 880 883 901 904 882 820 871 813 859 850 824 862 859 860 885 830 840 844 828 890 842 897 849 866 852 871 816 819 816 886 875 893 858 846 914 842 841 854 851 888 836 835 841 826 832 876 931 841 864 869 872 871 882 812 843 873 823 817 836 838 874 850 784 900 814 929 846 869 837 866 806 885 905 883 840 847 862 867 830 842 838 841 816 858 858 891 855 849 836 833 844 860 846 872 833 817 846 859 840 831 824 856 843 843 868 858 792 858 835 905 896 850 863 841 841 847 861 814 869 836 852 789 864 861 832 832 834 895 859 835 854 816 824 923 777 847 840 826 833 813 841 857 872 796 915 888 894 839 876 844 845 895 882 859 846 856 801 848 878 912 835 842 817 837 860 849 867 883 864 886 889 887 825 852 904 842 862 823 875 855 774 900 809 866 846 896 911 851 821 843 866 841 910 836 840 845 867 865 846 865 865 861 855 876 861 839 883 863 838 779 859 846 841 856 864 859 825 879 886 882 849 865 848 879 876 790 808 824 874 858 862 900 838 848 854 818 861 814 831 816 800 889 863 837 842 811 864 872 872 863 838 809 835 819 877 874 884 897 802 908 847 895 869 881 878 899 893 863 857 841 842 847 840 848 781 844 842 823 876 840 845 890 836 829 884 868 802 818 881 821 860 822 842 817 799 868 918 851 845 862 855 824 912 841 844 882 848 878 822 835 867 933 803 817 800 782 859 875 861 836 888 910 816 850 840 852 858 877 899 801 867 888 827 872 904 826 893 850 804 833 832 855 801 827 890 795 847 846 829 830 851 845 828 856 842 851 885 862 867 876 815 845 872 868 830 888 875 841 878 832 856 825 879 806 870 850 815 904 857 903 898 854 837 804 832 872 841 800 820 854 905 835 856 846 810 835 834 867 836 849 902 852 836 809 848 829 868 883 850 864 830 871 847 877 854 800 877 838 848 802 809 879 869 844 839 827 858 869 796 887 895 887 888 881 859 874 841 830 866 868 809 866 779 825 827 852 781 901 851 863 829 903 885 876 824 828 870 856 832 854 868 850 870 871 867 823 900 846 843 836 913 904 848 867 879 860 816 833 899 839 885 816 850 847 849 851 831 881 892 862 899 875 848 862 846 817 891 875 825 886 875 860 885 868 922 854 916 920 920 949 894 879 955 877 949 852 909 857 828 928 875 926 878 941 883 920 912 913 928 939 955 979 949 903 995 928 1002 984 965 967 942 975 959 1006 1023 970 980 927 967 976 948 955 985 983 917 938 932 977 963 956 989 936 868 990 973 949 920 992 998 964 959 1005 972 961 960 960 887 946 982 988 950 921 974 953 907 978 992 964 916 1008 930 942 986 951 986 944 1036 1031 977 1043 1010 1025 995 978 1046 1002 1010 1015 1036 998 1044 969 915 950 992 1002 926 910 955 1005 903 987 955 1008 1001 970 946 989 1006 903 979 891 874 891 905 895 898 896 952 912 897 879 907 955 905 882 911 876 890 904 821 880 871 913 834 883 850 884 898 855 850 872 820 879 838 897 845 867 849 885 831 900 857 898 831 867 873 912 902 862 881 899 881 861 875 838 882 887 824 853 848 889 853 911 865 867 852 881 899 892 901 889 867 860 842 842 883 875 848 905 906 876 850 875 874 893 837 795 916 922 911 823 908 863 903 895 861 862 925 864 855 890 878 864 868 876 869 913 876 898 885 902 945 888 884 914 890 904 866 896 928 958 903 872 845 859 885 825 883 844 865 960 894 902 884 903 903 904 892 918 922 886 972 933 880 891 890 903 899 934 877 928 925 969 984 985 1004 1057 1001 980 1055 1076 1091 1089 1185 1176 1153 1235 1176 1255 1255 1227 1154 1251 1176 1170 1249 1239 1304 1179 1191 1172 1234 1241 1241 1287 1289 1313 1297 1319 1298 1428 1415 1457 1442 1488 1568 1531 1657 1686 1690 1701 1709 1770 1846 1811 1748 1755 1727 1597 1636 1583 1647 1605 1532 1427 1495 1472 1514 1442 1365 1411 1447 1336 1347 1316 1406 1380 1425 1342 1329 1342 1271 1221 1276 1218 1241 1188 1159 1105 1121 1132 1024 1084 974 957 987 933 929 944 982 940 952 985 966 949 914 938 939 886 929 915 910 905 850 852 861 876 863 876 915 877 926 867 893 914 880 914 897 912 876 959 884 872 882 873 916 916 870 903 865 875 858 932 837 885 855 878 902 863 890 886 879 936 831 891 904 896 884 893 838 859 917 884 932 849 872 892 869 934 891 839 896 891 901 831 875 857 933 935 911 900 964 897 930 859 880 928 952 976 928 901 903 934 989 924 915 884 909 929 907 906 928 884 942 888 916 858 937 882 976 945 865 970 919 947 895 949 938 920 926 957 899 952 938 946 918 913 994 875 957 901 931 910 937 913 924 904 906 944 931 941 899 875 908 958 907 862 902 947 916 914 897 926 880 903 909 879 870 917 890 913 898 890 881 863 895 895 855 852 898 842 856 884 899 896 897 838 857 895 897 885 854 831 834 864 823 842 840 867 878 872 836 846 842 810 857 850 877 826 881 894 889 826 829 849 851 868 872 882 862 871 854 868 884 852 880 829 863 836 853 857 858 832 852 879 863 882 866 841 825 867 814 862 873 861 850 852 846 849 826 936 879 835 906 897 865 892 824 816 860 890 873 835 902 812 876 819 837 853 837 863 856 832 899 858 866 830 836 863 818 832 852 871 831 848 865 874 889 855 833 817 897 893 844 835 829 813 830 868 929 868 844 830 862 854 842 859 840 842 903 849 892 880 869 838 864 885 908 774 893 921 852 808 869 826 876 838 884 812 886 884 856 856 882 833 893 849 922 810 838 814 865 845 868 881 804 852 811 910 865 867 870 891 841 919 818 860 870 822 825 892 874 844 935 835 836 853 872 876 861 834 872 830 898 814 860 876 852 857 861 911 930 861 854 845 843 894 910 894 890 825 871 892 840 880 850 881 864 825 845 849 838 839 854 839 831 838 847 857 881 859 845 889 899 844 892 819 852 861 873 870 847 901 853 851 815 876 833 851 792 883 824 822 800 864 805 871 867 846 918 835 835 822 832 893 882 855 807 845 850 850 830 837 883 817 825 840 886 879 820 858 825 861 891 861 926 846 879 852 860 888 840 887 848 826 858 800 835 854 819 849 806 870 811 933 873 892 834 920 859 842 821 898 835 817 784 875 806 869 892 850 846 840 845 890 818 901 868 887 869 879 862 859 880 875 822 819 886 857 845 792 823 914 821 852 830 866 861 857 891 877 885 862 872 861 895 880 842 863 875 848 865 916 879 906 904 850 856 903 834 898 854 908 857 894 952 936 896 844 848 818 905 886 950 882 948 895 856 927 826 879 913 922 888 862 909 964 886 905 852 888 876 969 972 903 940 929 933 946 977 947 962 981 925 994 914 903 980 966 984 908 871 949 927 916 862 972 900 945 888 911 892 958 876 956 939 883 959 880 958 883 876 916 943 911 965 907 902 952 955 911 905 1005 873 852 859 886 915 891 849 870 813 885 868 844 925 856 841 833 803 861 867 840 889 884 809 827 854 829 903 876 838 871 871 843 850 864 822 811 840 863 837 878 846 866 850 893 857 821 878 846 835 846 836 821 858 871 862 854 893 854 816 808 830 856 846 900 877 869 872 845 858 875 853 820 856 850 914 883 885 855 911 865 861 837 857 855 880 864 870 893 899 811 897 854 913 813 838 906 815 865 818 863 830 882 857 913 778 846 834 857 907 835 893 811 870 816 886 893 826 836 914 856 831 866 858 851 897 841 906 844 907 844 918 770 822 859 890 842 901 831 891 902 862 841 803 870 810 852 883 864 844 847 868 813 881 869 870 768 883 848 894 852 887 856 924 952 861 872 913 849 827 920 910 900 869 890 872 926 891 948 895 874 866 890 914 922 895 897 903 900 935 913 914 908 921 918 952 971 948 928 1010 987 1010 1043 1013 1120 1052 1111 1123 1038 1081 982 1094 1078 1082 1110 1048 1081 1050 1101 1065 1099 1024 1058 1099 1088 1055 1096 1145 1135 1115 1128 1141 1240 1190 1173 1242 1238 1190 1219 1267 1286 1285 1275 1392 1419 1406 1387 1490 1428 1448 1426 1504 1418 1416 1375 1379 1323 1339 1305 1324 1233 1215 1235 1171 1239 1185 1160 1176 1201 1240 1203 1215 1156 1168 1143 1172 1107 1244 1172 1192 1150 1157 1131 1135 1107 1054 1043 1031 1012 1008 968 1020 969 986 904 917 959 922 973 887 948 896 910 919 923 939 858 921 938 889 913 928 979 901 929 857 844 868 858 918 877 902 877 850 921 904 859 910 858 854 892 841 908 906 882 902 881 899 868 849 844 844 894 911 867 828 808 866 874 884 825 922 911 864 859 919 845 903 908 876 846 896 857 867 914 832 853 858 942 893 783 895 891 822 833 903 853 899 918 878 823 881 894 909 901 888 918 841 922 851 811 850 799 967 914 861 892 917 863 863 899 886 865 898 874 839 899 847 904 865 875 900 895 871 930 884 875 901 897 909 946 932 935 925 900 904 846 830 886 876 903 878 886 868 888 913 842 954 919 829 880 905 898 849 828 855 915 851 869 887 880 838 886 828 879 822 837 881 851 850 898 879 862 829 833 882 847 856 908 878 871 885 843 879 823 835 841 845 783 833 849 808 896 874 849 856 853 864 862 836 853 855 853 821 872 895 826 874 920 826 840 869 872 837 799 833 864 881 866 839 869 836 886 876 857 844 793 846 780 797 826 838 852 841 810 786 803 833 800 847 821 892 836 830 862 869 815 859 892 847 841 826 839 889 889 824 870 888 886 833 854 802 828 864 864 851 827 848 799 828 859 857 815 795 851 881 879 855 842 865 801 836 848 879 876 850 838 851 872 829 872 833 836 876 820 906 873 849 794 795 866 886 877 833 862 848 815 835 758 899 813 906 870 862 837 871 769 865 829 827 851 917 831 814 834 864 818 862 885 852 867 860 832 927 824 876 812 887 832 859 851 836 790 842 890 820 869 826 859 883 845 862 864 853 849 794 827 864 754 863 831 851 865 836 852 792 832 853 829 826 793 851 878 847 816 839 834 824 841 836 877 872 882 845 799 823 818 871 858 844 856 846 817 837 866 805 887 899 920 873 867 871 894 916 844 803 812 774 874 821 852 794 869 900 863 886 807 846 795 897 870 870 880 828 810 830 838 840 843 854 871 808 882 881 815 868 861 834 802 822 852 851 858 802 853 853 838 845 878 848 865 868 792 867 806 901 791 871 877 853 858 838 861 804 890 833 885 862 832 831 852 880 877 835 900 890 847 853 843 855 856 790 860 857 847 890 871 874 877 846 879 878 811 903 820 846 843 855 871 850 895 874 886 825 907 883 862 836 814 840 877 827 854 831 775 805 868 841 842 839 849 840 831 846 855 850 839 868 873 865 855 812 851 849 921 873 869 914 890 872 900 906 900 883 874 927 844 872 846 843 851 930 934 891 867 913 932 901 901 856 904 939 883 890 894 882 935 936 962 864 913 862 925 923 923 923 990 941 922 932 970 974 965 988 1053 934 1009 989 1001 990 953 1010 1005 1019 1004 987 1019 969 998 1027 995 1024 1019 993 980 943 965 958 984 995 920 929 926 986 954 935 951 957 891 982 904 957 964 908 911 956 904 974 929 924 980 969 897 960 980 938 930 946 942 969 903 940 974 950 951 947 951 913 962 994 959 990 952 930 923 935</counts>
			</dataPoints>
		</scan>
	</xrdMeasurement>
</xrdMeasurements>
