<?xml version="1.0"?>
<xrdMeasurements xmlns="http://www.xrdml.com/XRDMeasurement/2.3" xmlns:xsi="http://www.w3.org/2001/XMLSchema-instance" xsi:schemaLocation="http://www.xrdml.com/XRDMeasurement/2.3 http://www.xrdml.com/XRDMeasurement/2.3/XRDMeasurement.xsd" status="Completed" recordIdentifier="{B03DD7D6-4F7F-482E-A8BA-FA6AEC671CF2}">
	<comment>
		<entry/>
	</comment>
	<sample type="To be analyzed">
		<id>GPSS_Li1p6Ca0p2Mg0p4Y0p4Cl4_102025_68f7253b028f64128e25d090</id>
		<name></name>
		<preparedBy></preparedBy>
	</sample>
	<xrdMeasurement measurementType="Scan" status="Completed" sampleMode="Reflection">
		<usedWavelength intended="K-Alpha 1">
			<kAlpha1 unit="Angstrom">1.5405980</kAlpha1>
			<kAlpha2 unit="Angstrom">1.5444260</kAlpha2>
			<kBeta unit="Angstrom">1.3922500</kBeta>
			<ratioKAlpha2KAlpha1>0.5000</ratioKAlpha2KAlpha1>
		</usedWavelength>
		<incidentBeamPath>
			<radius unit="mm">145.00</radius>
			<xRayTube id="1010048" name="Empyrean Cu LFF HR (9430 033 7310x)">
				<tension unit="kV">40.0</tension>
				<current unit="mA">15.0</current>
				<anodeMaterial>Cu</anodeMaterial>
				<focus type="Line">
					<length unit="mm">12.0</length>
					<width unit="mm">0.4</width>
					<takeOffAngle unit="deg">6.0</takeOffAngle>
				</focus>
			</xRayTube>
			<sollerSlit id="21010002" name="Soller slits 0.04 rad.">
				<opening unit="rad">0.0400</opening>
			</sollerSlit>
			<mask id="22031000" name="Fixed mask 13 mm">
				<width unit="mm">9.00</width>
			</mask>
			<divergenceSlit id="22120001" name="Divergence slit 1°" xsi:type="fixedDivergenceSlitType">
				<distanceToSample unit="mm">50.00</distanceToSample>
				<height unit="mm">1.52</height>
			</divergenceSlit>
		</incidentBeamPath>
		<sampleMovement xsi:type="spinningSampleMovementType">
			<spinnerRevolutionTime unit="seconds">1.0</spinnerRevolutionTime>
		</sampleMovement>
		<diffractedBeamPath>
			<radius unit="mm">145.00</radius>
			<antiScatterSlit id="22090040" name="AS slit 9 mm (PIXcel)" xsi:type="fixedAntiScatterSlitType">
				<height unit="mm">9.00</height>
			</antiScatterSlit>
			<sollerSlit id="21020003" name="Large Soller slits 0.04 rad.">
				<opening unit="rad">0.0400</opening>
			</sollerSlit>
			<filter id="20030001" name="Large beta-filter Nickel">
				<material>Ni</material>
				<thickness unit="mm">0.020</thickness>
			</filter>
			<detector id="7010019" name="PIXcel1D-Medipix3 detector" xsi:type="rtmsDetectorType">
				<phd unit="keV">
					<lowerLevel>4.02</lowerLevel>
					<upperLevel>11.27</upperLevel>
				</phd>
				<mode>Scanning</mode>
				<activeLength unit="deg">5.542</activeLength>
			</detector>
		</diffractedBeamPath>
		<scan appendNumber="0" mode="Continuous" scanAxis="Gonio" status="Completed">
			<header>
				<startTimeStamp>2025-10-26T17:29:00-07:00</startTimeStamp>
				<endTimeStamp>2025-10-26T17:37:07-07:00</endTimeStamp>
				<author>
					<name>AutomatedUser</name>
				</author>
				<source>
					<applicationSoftware version="1.7b (136)">PANalytical Aeris Instrument Suite</applicationSoftware>
					<instrumentControlSoftware version="3.2.00000000 20240306">AERIS</instrumentControlSoftware>
					<instrumentID>950485</instrumentID>
				</source>
			</header>
			<dataPoints>
				<positions axis="2Theta" unit="deg">
					<startPosition>10.00943322</startPosition>
					<endPosition>99.99442286</endPosition>
				</positions>
				<positions axis="Omega" unit="deg">
					<startPosition>5.00471661</startPosition>
					<endPosition>49.99721143</endPosition>
				</positions>
				<commonCountingTime unit="seconds">12.495</commonCountingTime>
				<counts unit="counts">2803 2907 2887 2815 2793 2870 2868 2805 2942 2839 2817 2863 2902 2737 2827 2899 2942 2816 2847 2823 2865 2850 2987 2876 2833 2878 2921 2871 2914 2923 2882 2832 2922 2913 2841 2860 2873 2873 2890 2856 2859 2868 2864 2872 2934 2933 2864 2891 2821 2812 2985 2948 2840 2856 2847 2935 2882 2837 2826 2923 2912 2873 2886 2800 2786 2902 2913 2864 2970 2937 2959 2897 2935 2898 2945 2820 2959 2927 2858 2921 2902 2885 3005 3017 2909 2905 2932 2962 2902 2884 2965 2991 2989 2890 3010 2896 2892 2977 2971 3043 2893 2952 2857 2968 2906 2958 2874 3077 2933 2943 3005 3004 2843 3024 2861 2989 2941 2937 2988 2891 3040 2949 2940 3011 2910 2939 3062 2994 2969 3040 2978 3053 3043 2969 2966 2926 3036 3023 2968 3086 2965 3040 2961 3004 2989 3065 2971 2898 3115 2907 3048 3058 3007 3038 3047 2922 3032 3065 3027 2993 3011 3016 2978 3011 2994 3039 3180 2948 2954 2890 3124 3104 2969 2949 3055 2920 2984 3043 2955 3054 3043 3003 3122 3053 3084 3081 3005 3025 2874 2869 3044 3030 2881 2887 2976 2968 2938 2899 2974 2906 2996 2968 2942 2951 2984 3060 2976 2965 2961 2930 2991 3053 2901 2940 2917 2887 2948 2915 3056 2977 2887 2943 2926 2946 3069 2986 2891 2964 2972 2909 2962 2817 2907 2869 2883 2940 2837 2901 2959 2878 3048 2868 2841 3029 2826 2870 2976 2916 2899 2924 2942 2780 2899 2921 2895 2948 2868 3046 2848 2859 2887 2941 2822 2875 2887 2902 2957 2893 2924 2884 2843 2844 2782 2911 2814 2838 3014 2917 2856 2964 2826 3042 2933 2966 2856 2863 2866 2862 2931 2720 2876 2953 2886 2834 2884 2980 2923 2855 2793 3068 2920 2996 3016 3029 2898 2890 2999 2940 2980 2984 2971 3016 2959 3030 2983 2985 3012 2984 2899 2962 2990 2906 3050 3009 2920 2906 3072 3021 3053 3011 3125 2993 3132 3099 3122 3012 3107 3064 3101 3038 2977 3093 3043 3019 3101 3109 3164 3064 3176 3141 3155 3133 3068 3091 3124 3106 3176 3160 3221 3075 3251 3224 3281 3149 3249 3223 3238 3191 3263 3193 3185 3303 3339 3191 3246 3155 3213 3302 3198 3213 3249 3329 3300 3292 3201 3389 3273 3214 3337 3307 3261 3424 3210 3359 3187 3452 3285 3237 3281 3284 3318 3405 3325 3361 3357 3455 3430 3316 3441 3324 3344 3433 3390 3446 3361 3355 3472 3494 3509 3555 3491 3565 3524 3623 3620 3523 3614 3511 3644 3619 3645 3638 3556 3610 3451 3518 3378 3563 3437 3494 3444 3539 3393 3441 3415 3451 3552 3504 3384 3609 3441 3499 3427 3533 3611 3455 3637 3356 3595 3539 3589 3607 3503 3587 3581 3645 3617 3708 3570 3617 3672 3650 3558 3681 3530 3500 3506 3582 3557 3537 3430 3445 3452 3349 3435 3294 3398 3520 3319 3394 3435 3379 3407 3465 3392 3348 3410 3315 3344 3359 3362 3376 3353 3430 3357 3329 3414 3350 3335 3513 3386 3596 3287 3484 3481 3513 3516 3455 3614 3550 3485 3621 3609 3606 3590 3587 3587 3590 3544 3622 3550 3573 3548 3488 3562 3571 3509 3364 3349 3317 3526 3349 3350 3301 3288 3253 3329 3302 3296 3194 3328 3263 3277 3217 3224 3236 3200 3121 3225 3145 3161 3163 3079 3170 3114 3134 3091 3139 2976 3149 3031 3064 3116 3077 3015 3123 3008 2935 2994 3010 3047 2945 2953 2984 2964 2884 2930 2954 2959 2897 2953 2966 2897 2910 2845 2847 2989 3002 2951 2973 2893 2864 2890 2822 2873 2806 2816 2909 2861 2918 2892 2897 2826 2837 2854 2830 2949 2856 2766 2950 2813 2783 2805 2770 2932 2805 2806 2793 2780 2781 2918 2886 2706 2715 2788 2749 2806 2702 2848 2715 2825 2806 2833 2733 2848 2812 2822 2756 2786 2762 2868 2723 2754 2788 2809 2741 2613 2821 2780 2844 2783 2756 2734 2726 2766 2788 2840 2812 2856 2823 2848 2751 2651 2766 2722 2677 2700 2736 2733 2772 2728 2709 2768 2752 2706 2764 2824 2721 2808 2745 2806 2719 2853 2797 2734 2704 2818 2799 2857 2897 2794 2850 2804 2841 2844 2847 2892 2811 2836 2931 2781 3005 3050 2829 2911 2877 2882 2950 2843 2949 2920 2865 2971 2900 2925 2929 2967 2907 2844 2933 2856 2893 2960 2902 2868 2881 2909 2858 2826 2836 2807 2747 2843 2764 2802 2717 2726 2717 2853 2710 2767 2840 2692 2706 2615 2767 2663 2802 2696 2704 2774 2705 2669 2823 2724 2792 2713 2775 2710 2631 2624 2698 2740 2662 2677 2709 2769 2587 2667 2727 2680 2657 2721 2676 2708 2634 2699 2610 2649 2611 2610 2719 2623 2580 2676 2509 2637 2646 2640 2582 2644 2597 2613 2620 2626 2549 2638 2639 2593 2604 2530 2643 2552 2510 2633 2590 2705 2605 2632 2596 2590 2580 2555 2596 2530 2641 2569 2579 2602 2600 2622 2642 2592 2564 2677 2493 2542 2563 2706 2628 2561 2521 2495 2472 2649 2587 2568 2519 2506 2569 2489 2499 2544 2559 2561 2454 2618 2531 2551 2611 2547 2586 2404 2537 2483 2504 2548 2571 2457 2511 2489 2444 2572 2461 2510 2504 2556 2570 2518 2607 2575 2508 2569 2487 2462 2462 2489 2491 2472 2543 2610 2578 2462 2463 2503 2541 2503 2554 2538 2534 2465 2439 2566 2586 2499 2538 2568 2497 2540 2401 2464 2516 2507 2607 2527 2549 2576 2538 2476 2530 2494 2473 2557 2476 2497 2499 2325 2521 2555 2543 2461 2413 2478 2558 2444 2426 2596 2540 2473 2573 2458 2513 2482 2357 2437 2392 2378 2495 2545 2383 2441 2532 2432 2447 2434 2425 2440 2419 2478 2304 2486 2389 2449 2423 2433 2355 2376 2437 2402 2361 2384 2277 2422 2408 2336 2377 2353 2387 2423 2421 2427 2380 2403 2441 2348 2366 2305 2375 2445 2281 2331 2342 2446 2315 2293 2386 2278 2278 2378 2334 2358 2349 2342 2305 2332 2373 2321 2361 2237 2388 2308 2365 2447 2344 2404 2346 2381 2276 2329 2353 2362 2285 2420 2398 2338 2327 2345 2370 2328 2335 2359 2374 2312 2341 2357 2246 2390 2225 2321 2363 2357 2341 2350 2444 2414 2258 2363 2352 2379 2358 2345 2305 2324 2349 2397 2370 2397 2351 2309 2316 2280 2274 2357 2376 2353 2407 2275 2336 2311 2503 2350 2410 2297 2303 2378 2275 2280 2292 2294 2284 2340 2368 2386 2409 2355 2355 2259 2376 2383 2362 2303 2371 2443 2470 2333 2375 2408 2342 2423 2407 2394 2331 2345 2401 2342 2412 2312 2411 2260 2373 2422 2340 2396 2284 2376 2340 2465 2351 2374 2365 2364 2387 2377 2330 2382 2444 2371 2338 2354 2389 2286 2406 2414 2406 2385 2472 2412 2393 2334 2383 2410 2346 2429 2342 2363 2464 2445 2514 2520 2519 2524 2503 2602 2597 2475 2505 2520 2500 2408 2490 2542 2438 2574 2436 2507 2486 2472 2438 2384 2389 2392 2354 2447 2370 2381 2283 2292 2234 2374 2362 2248 2257 2305 2278 2317 2227 2273 2287 2225 2233 2229 2269 2284 2063 2181 2172 2192 2148 2136 2182 2197 2154 2202 2125 2136 2256 2146 2117 2120 2082 2126 2222 2129 2068 2139 2031 2076 2123 2191 2135 2195 2044 2099 2099 2076 2114 2142 2144 2101 2012 2061 1965 2033 1894 2014 1981 2024 1956 2049 2119 1958 2014 1999 1943 2020 1942 2012 1931 1946 1943 1993 1991 1984 1932 1961 1959 2051 1907 1896 1976 1928 1853 1885 1837 1873 1867 1798 1920 1850 1928 1926 1840 1910 1792 1816 1864 1816 1819 1771 1904 1793 1792 1800 1803 1840 1765 1831 1859 1753 1775 1800 1896 1831 1846 1820 1791 1812 1833 1946 1766 1810 1768 1783 1773 1766 1878 1792 1754 1789 1764 1754 1850 1780 1707 1750 1788 1852 1764 1713 1799 1730 1762 1753 1675 1715 1659 1669 1746 1684 1796 1716 1714 1747 1703 1784 1745 1779 1749 1715 1718 1627 1672 1714 1758 1722 1749 1728 1714 1744 1720 1695 1806 1750 1779 1733 1720 1704 1710 1752 1737 1734 1755 1690 1801 1711 1766 1776 1777 1680 1756 1766 1735 1773 1815 1798 1738 1692 1769 1724 1857 1837 1840 1836 1834 1737 1764 1755 1845 1804 1749 1735 1892 1658 1753 1724 1826 1724 1891 1781 1801 1797 1738 1769 1822 1790 1775 1778 1739 1747 1681 1690 1694 1630 1728 1716 1749 1729 1783 1691 1766 1714 1789 1709 1780 1665 1751 1678 1708 1765 1743 1773 1710 1744 1762 1766 1706 1679 1812 1672 1777 1757 1757 1693 1795 1711 1758 1748 1739 1658 1830 1815 1750 1789 1752 1827 1770 1780 1798 1721 1770 1828 1786 1786 1753 1775 1770 1750 1774 1697 1754 1725 1794 1747 1747 1755 1745 1754 1768 1864 1823 1838 1796 1722 1820 1874 1794 1856 1822 1881 1848 1779 1851 1902 1932 1922 1920 1851 1876 1910 1883 1862 1904 1890 1893 1894 1955 1991 1909 1938 1986 1914 1966 1983 1930 1921 1887 1922 2010 1905 1891 2007 1950 1948 1837 1992 1903 1916 1870 1875 1876 1801 1856 1891 1831 1829 1789 1932 1825 1723 1736 1736 1706 1735 1758 1794 1791 1715 1693 1752 1586 1652 1687 1726 1628 1730 1667 1717 1690 1682 1619 1633 1640 1695 1676 1684 1612 1629 1610 1668 1668 1621 1636 1637 1564 1552 1608 1574 1505 1603 1552 1586 1574 1613 1563 1555 1545 1556 1564 1560 1621 1546 1547 1479 1592 1586 1550 1495 1532 1567 1559 1553 1579 1514 1499 1499 1501 1486 1485 1468 1502 1532 1453 1443 1512 1456 1537 1516 1443 1537 1479 1494 1512 1446 1533 1569 1466 1460 1484 1456 1437 1470 1483 1445 1490 1466 1507 1504 1466 1492 1458 1567 1455 1427 1405 1413 1474 1436 1511 1420 1533 1447 1402 1480 1480 1467 1425 1459 1472 1437 1448 1416 1462 1412 1427 1458 1367 1378 1440 1455 1492 1525 1443 1501 1528 1524 1490 1502 1477 1471 1555 1446 1508 1488 1453 1569 1450 1477 1482 1500 1468 1461 1424 1484 1460 1473 1484 1377 1458 1472 1382 1432 1494 1394 1381 1371 1459 1340 1463 1386 1359 1365 1435 1331 1378 1329 1423 1398 1398 1467 1379 1428 1330 1391 1366 1395 1414 1353 1383 1387 1362 1372 1386 1400 1413 1342 1287 1387 1376 1390 1392 1386 1396 1392 1391 1320 1397 1402 1347 1414 1377 1410 1403 1370 1456 1457 1436 1405 1634 1522 1526 1521 1582 1511 1525 1584 1544 1611 1537 1640 1621 1650 1609 1652 1650 1658 1659 1656 1772 1677 1742 1671 1747 1795 1930 1958 2020 2077 2199 2172 2342 2313 2554 2625 2744 2816 2921 2986 3080 3111 3016 3010 2909 2937 2862 2876 2838 2731 2638 2473 2401 2336 2190 2276 2157 2076 2070 1980 2007 1907 1928 1841 1833 1816 1796 1796 1813 1756 1727 1741 1778 1789 1745 1762 1788 1788 1797 1799 1728 1773 1721 1744 1701 1690 1720 1690 1563 1627 1569 1564 1528 1572 1567 1467 1444 1433 1409 1392 1390 1341 1409 1315 1416 1407 1357 1293 1353 1251 1298 1234 1256 1343 1334 1348 1283 1303 1309 1234 1184 1196 1202 1198 1201 1185 1261 1216 1221 1241 1263 1149 1263 1206 1253 1237 1238 1259 1228 1227 1259 1268 1224 1246 1194 1280 1266 1237 1236 1235 1196 1240 1262 1257 1244 1348 1335 1319 1430 1286 1332 1372 1410 1510 1471 1571 1574 1525 1677 1742 1866 1882 2105 2043 2213 2250 2385 2444 2569 2671 2738 2869 2895 3023 3041 3150 3082 3158 3104 3211 3044 3113 3075 3175 2984 2987 2666 2802 2556 2650 2400 2463 2249 2273 2164 2148 2083 2056 1919 1896 1822 1795 1745 1737 1659 1563 1587 1560 1466 1526 1559 1478 1419 1388 1458 1361 1412 1368 1355 1373 1341 1388 1288 1368 1294 1342 1286 1310 1358 1331 1279 1289 1311 1232 1316 1262 1228 1291 1263 1270 1220 1196 1240 1285 1195 1199 1149 1147 1167 1109 1164 1132 1146 1108 1125 1122 1088 1063 1104 1133 1042 1034 1016 1021 1096 1081 1051 1068 1143 1050 1046 1118 1107 1003 1112 1073 1179 1132 1133 1133 1155 1128 1081 1185 1221 1150 1165 1223 1235 1278 1161 1251 1248 1307 1246 1266 1261 1268 1259 1211 1253 1224 1167 1246 1284 1224 1266 1210 1206 1150 1164 1144 1196 1150 1188 1133 1044 1074 1149 1127 1100 1150 1067 1041 1077 1091 1035 1028 1112 1087 1022 1056 1014 1060 1081 1025 982 1051 1064 1008 1089 1029 1049 1024 1040 979 1026 1039 1006 1026 993 1054 1075 988 1049 1060 1013 1016 1090 962 1069 1048 1057 1042 1061 1053 1025 1171 1117 1175 1064 1275 1207 1121 1160 1149 1251 1198 1258 1261 1201 1259 1243 1298 1306 1187 1275 1297 1233 1232 1165 1166 1168 1187 1175 1114 1147 1111 1142 1185 1158 1094 1122 1072 1100 1059 1022 1079 997 1097 1018 1010 1013 1002 997 1033 1037 984 1027 1067 1007 1032 1005 1015 1015 984 972 951 940 953 1039 1002 995 1022 927 977 1011 964 1026 1064 1076 1058 1127 1100 1117 1084 1237 1222 1300 1358 1367 1453 1549 1633 1673 1836 1964 1881 2116 1959 2204 2198 2264 2329 2349 2368 2356 2436 2302 2356 2427 2508 2285 2301 2281 2262 2239 2151 2144 2134 1924 1983 1762 1816 1695 1684 1579 1692 1585 1572 1565 1555 1535 1432 1460 1444 1364 1382 1313 1471 1348 1349 1353 1401 1374 1337 1305 1303 1350 1354 1273 1365 1266 1294 1259 1265 1294 1173 1254 1206 1232 1240 1201 1160 1145 1126 1111 1083 1052 1164 1088 1155 1067 1008 1049 1064 1013 1022 1030 1034 1054 1067 1044 989 1033 964 1050 1022 970 1011 945 988 1019 964 938 999 975 1021 991 1029 955 978 1056 1068 977 1001 1100 1098 1099 1143 1132 1142 1195 1139 1242 1281 1326 1183 1367 1362 1312 1377 1421 1388 1324 1308 1355 1328 1347 1366 1314 1310 1218 1245 1261 1221 1207 1198 1180 1217 1194 1159 1092 1136 1134 1061 1115 1044 1014 1090 1041 950 1017 985 973 1016 1101 1010 1028 1008 1005 1054 1031 978 971 991 1006 980 1023 966 1031 907 934 959 921 938 970 957 939 975 906 932 901 880 881 855 951 857 907 914 876 861 874 865 846 865 900 885 853 898 833 817 872 853 839 822 828 856 865 873 876 828 882 899 832 807 839 812 841 853 851 848 899 824 838 863 860 823 868 824 839 825 834 880 801 833 868 758 850 848 836 832 840 767 823 804 777 843 821 817 776 775 831 853 846 792 824 821 806 827 799 809 862 831 904 853 854 776 807 791 829 823 791 800 848 868 843 832 850 833 818 863 862 835 884 893 881 825 869 863 830 856 874 867 876 877 852 967 909 845 845 876 868 886 895 887 823 896 831 860 857 859 874 897 843 888 814 864 840 847 783 887 796 903 844 796 785 783 801 862 799 827 794 836 832 821 849 813 846 845 868 846 885 811 843 842 839 816 837 861 855 838 894 817 872 820 874 872 897 835 812 928 866 852 849 841 827 860 796 831 860 842 848 846 865 882 865 839 867 871 887 924 851 870 822 877 832 894 803 818 823 856 864 889 853 894 898 830 871 933 904 882 889 879 884 824 873 861 853 901 852 881 884 825 817 860 830 797 900 835 861 850 822 896 821 810 850 818 803 763 813 786 789 840 793 762 779 833 811 829 772 750 822 795 813 800 791 819 795 777 775 735 785 722 727 793 787 752 795 731 789 816 795 774 799 808 840 768 758 772 802 738 766 752 716 789 770 729 745 759 821 812 774 779 757 751 793 752 826 773 706 769 783 732 811 770 776 741 748 756 761 792 784 762 766 792 734 746 772 742 726 750 713 813 749 754 783 789 784 771 802 774 747 729 687 768 721 714 808 799 754 775 807 794 798 791 746 775 783 810 769 783 775 765 795 814 838 809 851 818 859 841 812 882 859 823 926 908 883 942 942 1001 1027 1066 1082 1073 1201 1123 1238 1293 1317 1517 1425 1515 1574 1651 1596 1667 1637 1754 1739 1770 1861 1800 1797 1812 1811 1801 1816 1722 1737 1745 1737 1663 1675 1643 1556 1489 1479 1406 1443 1375 1292 1221 1270 1259 1190 1169 1105 1144 1026 1048 1013 1029 1054 951 961 912 942 947 911 960 957 946 940 873 913 900 830 913 862 943 842 847 840 811 777 776 831 753 786 798 765 753 760 865 744 778 747 751 767 756 755 777 738 789 746 707 775 720 722 753 748 734 744 749 716 716 710 678 678 680 701 730 711 664 763 735 745 680 762 743 736 719 739 668 725 708 707 715 711 687 653 732 580 681 670 689 663 691 702 714 689 695 697 660 732 693 649 693 697 709 686 683 718 671 668 716 644 719 733 691 690 714 683 696 759 729 718 703 729 776 668 703 666 698 711 759 783 766 753 732 755 713 810 782 754 749 817 793 844 834 840 832 837 789 845 930 857 819 846 826 822 832 818 891 830 867 859 887 841 859 857 798 915 845 866 874 834 891 876 879 878 831 802 824 847 768 828 799 832 779 835 806 755 730 729 798 734 761 768 798 785 707 754 748 751 714 708 746 715 764 699 708 666 740 686 730 724 713 760 746 706 725 717 769 767 688 730 737 711 704 706 714 729 694 726 736 723 750 708 725 755 714 761 758 745 785 747 696 770 754 746 773 791 746 810 758 750 769 710 797 733 788 784 789 779 815 801 792 760 822 803 811 780 796 772 777 748 803 799 763 801 753 750 785 762 747 698 766 780 754 731 714 699 762 733 766 767 691 691 695 739 668 695 708 702 697 685 647 645 687 666 713 662 717 685 688 727 698 690 650 651 688 670 761 619 652 667 667 631 673 679 638 654 646 683 715 649 642 661 705 680 714 674 690 656 684 645 693 710 640 687 656 710 646 654 739 641 685 630 669 652 661 659 687 649 729 687 733 696 686 679 729 691 691 733 724 695 723 792 736 794 784 781 741 807 830 822 819 807 861 777 879 791 792 820 849 837 851 740 831 839 787 793 746 754 773 752 762 748 744 686 798 745 703 743 701 702 679 669 687 697 698 635 665 684 638 681 644 655 608 622 640 630 676 638 633 652 665 619 668 643 650 652 691 646 613 658 617 649 677 619 605 610 625 665 646 667 598 645 649 652 634 556 625 654 660 657 680 633 655 574 649 707 619 622 664 662 599 660 643 669 691 619 643 652 594 645 645 652 707 644 660 596 587 651 658 649 650 716 628 625 679 640 652 623 689 633 634 666 624 674 689 637 700 687 715 664 663 651 723 668 682 733 704 684 657 732 710 701 785 820 734 763 757 716 769 754 776 775 772 753 730 775 704 745 751 703 770 667 691 752 742 703 724 716 697 718 653 647 702 655 634 674 695 681 685 615 692 687 630 670 622 689 645 657 636 653 642 588 653 651 670 650 640 673 600 612 645 602 638 623 634 693 642 611 665 644 696 647 626 629 672 682 587 613 663 628 656 674 602 638 631 658 600 654 689 681 661 672 651 620 709 627 677 671 682 693 699 691 691 692 638 664 677 641 720 636 704 679 698 673 654 686 711 713 705 695 724 710 726 837 718 755 768 768 756 813 794 816 782 890 876 829 811 808 814 871 803 846 921 877 827 853 804 804 838 881 870 878 889 884 839 942 862 879 931 896 885 923 937 969 962 964 966 886 988 1029 957 978 1001 1010 958 1060 1000 1071 1056 1005 1043 973 1024 965 1036 1005 931 997 966 930 983 921 934 926 897 846 880 916 843 863 822 839 816 824 830 819 792 815 808 787 784 838 767 718 735 753 792 757 768 764 693 760 784 697 746 750 745 713 766 782 748 765 750 760 824 805 796 906 877 917 979 984 1157 1141 1184 1282 1352 1339 1402 1489 1537 1607 1637 1635 1670 1707 1701 1745 1756 1784 1730 1697 1715 1765 1678 1692 1646 1600 1480 1507 1403 1350 1293 1247 1249 1143 1213 1186 1109 1041 1046 1037 966 979 877 882 859 831 861 809 818 827 806 777 745 734 766 741 751 754 702 771 779 755 730 736 747 714 788 717 736 701 735 772 732 696 727 768 757 770 773 731 772 744 735 744 766 759 752 745 790 754 799 692 728 732 735 791 706 821 724 724 697 764 682 702 684 686 735 697 693 673 611 634 658 630 659 601 636 588 653 640 660 619 614 624 619 667 591 574 594 642 611 627 609 596 592 608 618 614 610 607 583 573 596 594 601 592 568 675 556 573 584 553 573 563 594 592 559 563 531 606 609 627 614 580 595 612 602 617 608 633 594 627 608 582 607 602 583 592 624 614 556 554 588 610 567 555 556 581 593 551 565 573 581 583 576 645 533 555 607 588 550 542 606 608 609 581 638 527 620 582 604 572 566 573 579 587 567 597 619 614 595 637 640 598 625 670 646 633 633 670 616 633 648 667 684 657 669 617 680 719 652 687 645 654 630 652 660 643 647 631 587 658 606 642 616 581 646 572 635 626 575 589 617 573 651 628 591 611 549 627 625 608 584 617 586 624 596 593 590 597 620 641 631 612 605 602 645 644 593 640 633 622 642 589 558 623 627 645 619 712 684 706 638 666 638 594 602 642 674 629 633 642 643 573 602 649 576 634 610 625 557 596 595 552 554 547 578 527 568 534 637 591 618 625 584 581 625 619 610 588 576 628 561 605 677 606 657 565 622 639 622 687 662 698 676 695 657 708 679 724 661 676 741 766 778 801 776 746 787 774 794 839 786 782 804 744 827 772 764 815 736 743 766 691 721 719 673 666 729 622 682 610 617 635 591 564 621 599 573 572 614 576 584 574 552 564 572 589 545 607 544 577 533 565 542 562 542 536 571 541 479 482 508 572 527 553 502 559 527 499 518 535 491 514 522 519 514 546 485 543 507 537 555 503 543 499 572 517 557 514 548 477 550 522 536 573 562 540 507 544 521 558 562 540 548 528 533 496 524 546 529 533 494 512 547 580 550 530 543 502 542 579 544 551 616 585 561 613 523 586 564 607 608 560 590 570 573 551 534 546 531 586 574 531 489 569 584 579 551 542 522 589 533 534 555 553 474 528 527 527 559 537 500 523 470 500 548 512 512 483 524 549 484 489 498 524 501 508 500 535 491 517 534 513 484 463 546 504 550 440 507 520 526 524 494 526 521 495 450 490 508 502 499 487 516 502 501 440 510 457 523 529 516 493 513 546 512 482 537 506 519 512 468 479 496 528 502 482 505 492 489 534 484 515 515 498 496 532 514 502 530 489 516 509 542 524 513 542 500 531 485 546 470 509 465 504 511 519 510 485 517 491 500 519 433 473 510 520 508 508 510 517 482 528 485 493 524 488 484 507 503 545 498 535 455 528 509 488 537 440 490 511 505 491 486 495 560 498 509 490 512 511 508 490 519 447 504 564 489 509 496 458 480 530 516 463 522 517 537 513 510 550 452 545 505 516 503 491 499 496 498 479 528 531 510 509 511 529 509 532 506 504 476 500 505 482 475 501 519 496 516 474 466 505 520 483 506 443 526 463 512 463 483 538 513 468 476 483 458 501 460 502 496 522 468 462 503 506 498 522 501 519 511 541 513 490 416 488 490 485 490 475 459 485 442 517 493 490 513 495 508 500 487 525 497 480 502 512 482 518 509 511 487 535 506 504 516 523 501 531 478 529 502 533 505 521 531 521 512 506 547 573 537 531 507 533 490 564 515 563 545 540 518 542 535 526 526 491 541 502 540 526 477 487 508 544 505 529 501 512 470 504 500 508 514 527 491 494 527 492 489 509 541 495 560 586 530 523 562 537 539 533 534 574 576 583 527 569 614 632 647 613 675 647 682 775 781 824 825 830 814 889 832 864 865 809 938 862 927 885 891 895 859 885 858 856 896 872 811 849 802 814 807 814 812 813 786 787 743 773 688 753 728 728 720 705 681 668 672 698 624 681 651 629 666 677 686 592 630 623 658 590 567 559 579 622 634 610 623 635 587 603 573 560 504 549 606 565 551 580 610 524 567 569 540 547 546 587 583 559 560 587 533 602 547 525 578 526 554 542 515 545 576 527 581 530 581 588 546 546 560 546 581 513 551 550 570 525 539 531 592 576 561 551 550 522 559 581 526 559 557 578 533 608 569 607 622 574 595 597 625 620 630 705 622 651 639 636 694 563 601 687 640 674 611 621 588 629 622 580 629 609 591 565 548 608 568 574 528 507 476 523 520 529 502 509 478 508 520 511 491 543 472 499 523 502 550 543 508 534 485 475 513 487 501 508 517 510 541 500 550 538 564 495 559 507 535 531 538 500 523 545 513 547 517 538 529 519 537 570 518 544 570 524 546 577 492 549 569 573 519 568 539 540 535 556 534 560 594 566 530 555 536 519 483 507 502 524 508 565 502 543 511 512 525 512 497 563 522 488 576 513 553 537 570 584 605 558 601 630 622 633 659 622 645 697 709 681 717 725 749 683 710 648 702 727 666 683 606 680 605 667 623 635 681 613 630 625 624 545 599 524 610 564 547 485 519 560 508 522 539 488 488 524 464 515 448 506 471 497 481 475 485 448 473 470 484 483 450 469 502 512 470 513 458 471 462 487 540 466 487 467 471 427 438 470 472 458 432 469 466 454 455 486 443 494 472 485 519 441 437 490 456 454 468 471 451 486 451 493 454 405 451 460 430 451 463 467 468 465 461 490 485 528 441 462 472 453 451 499 466 411 496 489 466 483 420 430 425 463 502 427 449 500 458 481 481 444 417 456 457 505 452 469 464 413 457 460 483 464 437 437 462 433 448 493 442 468 447 413 501 454 471 413 511 490 480 459 474 450 469 495 487 428 503 505 497 470 476 462 478 511 446 507 446 503 515 511 478 502 470 515 506 474 488 448 509 492 513 513 462 543 484 483 495 470 511 504 542 527 558 555 494 535 519 501 506 519 500 496 510 494 476 479 480 510 451 478 470 479 445 452 423 431 453 463 441 436 438 460 436 455 434 467 454 482 452 440 467 456 453 430 417 482 441 449 464 474 445 417 465 437 400 422 458 459 463 420 438 430 440 453 453 448 441 447 427 421 429 452 463 424 446 437 448 418 446 481 452 426 417 419 441 445 416 442 417 408 434 444 422 467 479 414 489 471 468 465 448 432 484 483 495 460 459 483 467 443 469 438 441 485 450 457 455 494 500 488 495 483 486 543 527 518 512 562 541 562 531 537 525 533 554 551 540 549 558 534 550 543 531 533 549 518 549 493 516 493 522 544 559 473 560 529 539 485 506 465 471 515 495 463 447 489 462 444 455 444 460 460 430 441 427 459 467 432 492 441 431 458 451 472 492 442 451 432 430 434 427 484 468 392 469 450 442 442 417 461 442 428 479 419 489 443 424 496 447 472 445 434 383 430 437 459 406 437 433 439 453 456 460 412 480 429 441 423 423 424 420 427 426 430 456 422 436 430 458 410 434 416 449 431 418 437 422 395 391 410 407 435 412 404 427 413 413 391 376 394 383 368 376 393 393 429 415 419 417 425 409 399 397 410 408 412 405 417 416 415 388 371 432 389 434 428 418 354 407 406 413 386 438 430 405 422 422 413 430 416 452 395 402 427 398 424 421 407 453 414 400 402 432 423 393 412 422 409 417 430 443 428 416 463 400 409 400 390 435 429 405 387 439 415 411 431 425 445 382 465 434 420 403 455 406 439 407 422 375 376 437 430 411 422 454 386 451 401 437 423 444 437 403 449 431 453 436 400 420 420 372 436 367 434 412 422 402 429 424 418 457 438 428 429 420 462 413 405 444 476 402 438 449 452 428 398 423 463 437 386 445 465 421 429 403 428 476 426 455 478 418 451 387 446 433 441 402 458 413 454 414 419 403 414 411 433 477 370 385 425 380 412 400 389 410 410 439 409 419 445 410 422 440 377 421 394 394 421 405 402 378 397 395 379 388 408 373 376 370 401 413 352 389 422 414 411 432 396 362 374 426 382 419 366 418 370 389 430 381 457 403 407 428 377 423 396 408 384 410 392 410 408 443 401 426 378 422 419 452 399 393 404 427 366 403 389 382 396 371 372 396 407 428 410 420 365 423 404 391 379 397 375 393 423 350 411 437 387 377 352 394 385 373 394 368 421 384 430 374 459 363 407 405 375 392 381 432 384 374 377 389 377 396 397 379 368 371 420 378 431 392 400 366 432 365 450 376 367 384 398 447 373 424 421 382 393 418 425 385 381 384 353 414 402 378 415 426 436 421 413 386 388 369 403 388 411 361 395 397 410 373 386 375 414 413 414 390 434 402 371 375 388 408 369 390 350 403 378 415 377 385 359 394 404 349 405 352 400 404 393 383 394 380 379 365 401 393 363 407 390 393 363 399 382 356 406 407 349 378 363 358 356 424 380 401 405 391 363 401 342 390 409 385 389 369 385 386 356 410 376 383 365 377 363 375 348 411 395 413 397 367 426 383 365 388 380 381 382 394 372 387 376 392 398 393 348 367 353 399 369 410 389 376 343 398 381 346 387 398 363 359 371 337 379 397 375 354 360 378 379 355 371 418 371 369 402 415 367 389 383 387 369 363 342 402 338 343 342 371 373 405 364 386 349 362 389 350 406 374 357 368 410 373 411 367 375 385 379 368 398 405 394 398 359 404 408 376 393 414 452 354 399 391 396 382 369 377 369 390 373 363 406 403 401 408 424 373 433 463 397 422 397 413 472 423 428 454 458 443 411 457 420 458 472 435 484 399 432 427 419 404 462 418 433 427 465 436 482 452 429 404 430 410 430 395 429 420 390 410 422 477 415 418 399 380 387 369 413 368 407 429 386 404 375 406 353 357 415 371 370 363 394 374 385 357 350 384 425 404 383 374 374 397 382 367 382 393 353 364 365 399 382 386 377 376 367 415 377 362 347 366 392 406 374 379 394 383 358 410 404 412 415 411 415 353 389 385 440 355 396 376 361 400 370 384 424 401 419 381 381 356 388 373 400 377 377 371 386 375 372 392 382 390 414 388 342 408 401 384 373 387 392 402 407 347 411 371 414 417 351 377 438 382 391 386 408 382 402 353 456 357 392 377 417 383 391 378 353 410 368 317 402 382 368 387 380 396 394 419 405 400 399 411 396 429 379 379 434 360 424 408 380 412 383 401 413 399 427 425 371 400 419 375 386 436 402 421 382 393 401 393 404 450 406 423 402 408 427 420 436 387 437 386 422 471 396 394 376 415 405 420 440 433 435 409 403 395 408 407 441 418 388 419 434 403 414 431 428 390 387 419 379 392 427 412 430 402 416 400 398 372 411 379 407 390 385 373 357 335 407 398 380 360 385 385 406 397 365 386 400 400 384 407 403 342 415 401 423 402 365 390 416 417 396 358 378 362 396 388 358 395 346 406 375 376 383 372 388 389 413 382 372 401 401 396 374 357 424 364 401 377 355 364 369 373 399 396 396 365 348 363 400 360 374 386 385 409 353 401 370 383 389 381 378 352 391 366 381 361 384 364 381 384 341 406 370 349 369 418 372 394 379 442 361 399 380 386 356 360 366 358 379 344 381 394 371 319 362 374 363 390 375 383 379 352 381 368 384 383 368 407 381 354 348 378 365 382 397 373 343 384 375 340 367 350 348 374 366 413 400 365 373 373 367 353 384 373 379 381 370 347 355 376 372 393 381 365 365 381 361 383 370 358 421 400 383 388 372 378 407 407 363 405 414 380 395 392 410 404 383 406 348 400 378 412 357 421 383 390 398 401 429 382 422 404 391 450 433 383 432 388 433 363 399 369 401 394 438 390 407 433 412 408 429 374 430 388 422 387 417 411 355 409 381 404 393 383 351 386 361 395 438 389 415 388 391 408 418 375 403 394 381 376 378 352 391 352 407 351 362 361 384 403 423 376 369 371 371 390 369 369 332 369 390 381 384 394 372 356 351 362 348 370 383 435 387 351 409 359 413 355 389 363 385 354 379 384 375 386 380 360 386 370 387 361 391 391 413 395 390 374 350 389 388 372 390 364 393 359 382 376 361 382 357 361 416 367 424 368 374 426 329 381 413 382 360 427 402 394 399 394 391 366 423 371 386 379 401 368 379 437 414 387 367 413 382 409 393 375 425 416 387 392 411 390 383 414 425 413 407 395 416 413 431 438 418 428 427 446 431 435 393 439 465 445 425 428 445 456 418 425 479 497 457 420 441 440 462 440 463 456 467 455 467 429 450 454 481 455 466 464 470 416 422 468 447 455 450 438 454 433 484 480 475 460 469 380 454 485 465 418 448 405 428 423 527 467 439 443 429 453 455 500 498 475 511 487 519 493 507 543 491 479 525 493 512 504 487 504 548 472 496 517 513 482 477 495 472 428 487 464 459 458 469 471 478 488 503 476 453 469 452 453 435 426 441 448 443 434 413 436 427 441 400 410 443 409 408 447 368 397 385 415 420 371 408 418 423 428 409 406 410 397 397 410 424 413 413 420 393 399 375 413 373 385 378 392 403 406 399 413 408 400 382 423 424 387 430 364 406 427 402 466 388 398 391 381 414 382 391 410 399 437 418 414 422 424 367 393 404 415 428 467 407 426 381 437 416 467 457 447 438 426 467 444 472 466 466 434 413 423 429 468 485 463 468 398 443 457 501 499 458 480 421 486 448 430 465 462 452 430 449 459 485 464 437 431 432 415 444 457 444 475 412 464 463 411 427 395 390 410 385 414 447 427 433 447 395 405 401 409 380 415 428 357 417 402 435 379 411 389 393 411 401 376 397 378 440 417 424 395 400 371 401 413 391 416 400 423 419 464 419 449 399 428 478 446 452 442 406 482 452 494 496 504 495 486 508 524 531 577 559 516 526 592 584 574 614 600 597 605 526 670 618 597 578 586 601 599 618 604 553 626 562 555 542 579 551 535 561 522 556 587 541 541 485 551 502 534 476 571 503 463 518 510 513 469 466 452 439 444 434 434 435 458 400 430 420 417 440 428 398 460 414 371 412 400 430 404 424 425 373 415 357 374 387 409 389 390 381 400 389 356 334 368 360 373 394 390 386 418 372 408 402 399 397 379 413 408 380 356 367 380 357 357 371 392 411 415 389 352 357 343 383 319 355 378 377 382 400 402 433 415 394 392 409 360 367 400 401 415 413 413 419 405 373 401 403 400 404 396 406 414 379 434 422 412 408 396 391 383 384 403 393 424 394 445 444 416 377 410 425 395 442 379 393 425 422 416 401 375 403 365 438 379 385 391 371 425 408 363 322 382 349 426 370 415 371 397 357 402 354 369 380 379 379 398 392 401 404 371 372 394 411 451 402 358 399 380 393 388 358 410 383 376 448 396 404 399 366 373 395 437 408 362 392 399 424 438 389 393 414 408 380 439 417 439 441 388 434 446 390 399 438 394 427 415 408 418 409 441 427 441 426 408 390 413 402 386 383 422 396 372 379 396 412 403 420 416 415 388 380 366 397 405 362 395 378 345 394 382 397 415 426 388 393 368 373 364 376 366 366 382 367 373 367 394 409 356 361 395 347 351 343 375 368 342 331 373 359 393 350 362 344 358 362 335 383 364 362 345 371 351 327 390 362 361 366 357 371 347 380 339 329 395 312 357 367 351 362 339 383 348 320 320 345 345 354 350 334 330 336 312 349 348 335 352 348 362 350 296 378 309 381 333 315 342 370 317 381 373 354 359 339 357 342 343 366 372 365 323 324 376 359 350 322 366 347 318 379 343 338 334 334 319 380 338 355 371 334 326 333 377 364 387 334 361 366 316 377 323 332 339 370 332 348 355 357 316 359 359 302 369 353 347 380 346 343 331 374 353 352 343 357 350 342 341 372 366 338 377 324 372 324 381 356 319 352 323 320 323 357 347 388 369 335 351 324 343 355 341 365 352 362 383 365 335 374 339 347 350 335 373 351 325 343 351 371 331 367 341 327 352 341 339 365 359 373 307 333 336 349 324 330 364 339 369 370 365 371 336 360 385 329 349 364 334 356 371 342 390 342 362 349 343 356 353 314 357 362 360 363 349 341 355 334 357 345 331 340 355 327 307 361 345 378 366 359 374 335 329 337 328 342 350 305 366 317 365 341 342 324 339 355 354 338 370 339 340 332 327 339 338 333 394 339 384 319 358 301 326 354 346 331 351 323 360 344 348 333 335 336 327 372 368 366 334 352 326 374 297 381 360 357 365 351 359 359 352 328 350 331 347 357 338 373 348 360 386 365 333 358 360 364 385 312 349 348 334 327 351 340 342 335 383 353 346 366 364 317 360 357 374 357 365 326 382 360 328 377 333 393 353 370 389 414 352 349 339 401 365 337 340 360 399 365 370 360 380 326 358 373 327 346 361 372 363 376 363 359 371 368 371 384 399 362 392 365 360 320 354 356 356 383 347 357 356 348 363 387 390 369 350 350 344 339 358 332 354 352 319 329 368 355 353 341 376 353 376 362 374 335 397 362 354 382 360 376 376 336 362 377 362 338 340 333 376 343 327 412 368 342 341 405 344 394 338 369 368 379 372 368 362 359 369 354 374 346 382 334 361 345 375 374 347 374 378 378 365 358 358 361 371 388 333 381 396 293 352 346 391 372 369 342 340 345 370 330 346 355 380 341 344 327 373 367 353 343 352 358 373 358 350 317 354 356 329 360 299 359 350 379 376 311 363 362 369 366 380 391 358 344 325 337 378 370 329 347 376 362 343 347 344 321 345 329 376 311 347 363 343 350 331 329 341 376 360 338 337 372 373 350 340 346 352 332 367 388 364 348 385 378 328 350 344 335 356 320 324 375 359 378 345 359 371 372 340 363 318 388 331 336 361 367 341 342 324 346 318 332 316 311 381 335 348 349 359 365 353 329 375 350 397 300 357 369 372 339 334 335 373 333 405 373 376 391 403 370 393 365 373 396 457 404 404 444 396 429 428 392 417 412 463 456 456 462 486 464 474 425 504 513 498 489 471 459 467 480 447 480 479 442 483 452 439 454 445 482 431 436 403 427 464 391 449 453 464 445 412 427 449 396 439 401 394 345 442 396 426 380 400 383 371 390 417 382 383 394 379 392 367 373 391 319 368 386 371 356 371 355 378 361 362 336 329 347 364 328 353 342 352 326 384 399 371 357 362 363 308 367 361 365 374 362 345 343 374 337 347 344 311 383 377 362 355 382 319 338 337 353 348 335 377 339 345 302 337 351 377 364 362 406 353 337 349 329 375 401 386 346 358 336 340 367 396 372 337 358 356 352 334 324 364 350 304 391 346 364 366 388 335 338 362 378 353 333 372 360 366 411 347 386 306 352 367 346 382 365 350 360 359 306 341 416 392 396 365 366 366 322 364 394 383 378 348 368 353 402 357 350 376 349 372 370 380 383 368 378 384 380 377 323 358 342 354 360 372 352 330 351 338 372 339 388 325 392 351 346 358 355 364 353 345 355 383 319 356 318 345 286 313 355 333 337 331 353 343 393 310 302 308 326 365 342 331 363 323 335 315 318 386 314 348 356 321 336 341 330 331 357 318 383 337 316 325 324 336 335 312 320 315 297 317 286 362 333 335 335 355 323 299 355 330 307 330 335 352 328 323 359 314 331 329 340 341 317 310 352 357 323 313 322 350 331 347 358 358 339 353 320 328 318 292 322 293 384 352 308 326 332 317 339 306 367 287 351 332 348 301 348 323 289 358 333 294 333 328 309 334 336 315 336 358 292 317 346 303 337 311 317 305 309 314 360 349 327 304 349 316 338 339 365 304 330 343 347 304 330 319 331 342 289 326 314 340 314 344 286 323 298 340 348 308 312 315 316 344 330 361 337 347 295 317 292 306 320 323 315 331 339 340 312 324 323 343 291 326 331 333 318 336 355 338 341 344 350 324 339 359 335 327 346 313 365 360 330 333 386 330 362 331 346 306 356 329 342 358 316 383 339 320 341 353 368 319 283 337 332 322 331 305 375 321 325 359 336 325 377 352 355 340 303 301 291 361 346 347 331 315 332 359 372 354 341 310 344 356 323 351 358 322 348 313 356 334 363 330 343 332 300 378 340 330 331 313 335 336 341 326 356 284 365 303 346 332 307 343 351 323 334 334 370 349 337 357 326 370 338 314 350 350 318 325 383 327 319 344 334 378 336 311 310 347 323 315 307 341 271 326 354 309 311 350 320 334 313 335 311 301 314 345 322 353 336 312 340 347 369 322 326 313 311 344 317 313 313 320 310 328 333 273 331 326 321 341 317 331 316 370 294 326 330 333 334 331 331 323 336 321 351 336 350 323 318 302 313 315 328 330 362 304 308 313 324 316 284 315 302 333 309 311 362 321 371 342 353 346 322 355 296 350 375 330 293 313 323 369 375 349 342 324 375 365 333 351 351 358 350 345 382 363 376 351 353 333 342 369 376 335 334 358 332 337 322 339 362 352 370 360 345 359 371 376 328 376 334 330 328 371 358 320 351 367 384 354 347 307 336 357 346 318 360 373 328 358 332 344 350 317 356 369 381 331 334 359 378 365 319 345 380 361 372 356 353 358 341</counts>
			</dataPoints>
		</scan>
	</xrdMeasurement>
</xrdMeasurements>
