<?xml version="1.0"?>
<xrdMeasurements xmlns="http://www.xrdml.com/XRDMeasurement/2.3" xmlns:xsi="http://www.w3.org/2001/XMLSchema-instance" xsi:schemaLocation="http://www.xrdml.com/XRDMeasurement/2.3 http://www.xrdml.com/XRDMeasurement/2.3/XRDMeasurement.xsd" status="Completed" recordIdentifier="{CF52C070-AB47-424A-9F78-75A923D18045}">
	<comment>
		<entry/>
	</comment>
	<sample type="To be analyzed">
		<id>GPSS_Li1p6Mn0p6Sc0p4Cl4_110625_690d9f07f040177efa2b78e1</id>
		<name></name>
		<preparedBy></preparedBy>
	</sample>
	<xrdMeasurement measurementType="Scan" status="Completed" sampleMode="Reflection">
		<usedWavelength intended="K-Alpha 1">
			<kAlpha1 unit="Angstrom">1.5405980</kAlpha1>
			<kAlpha2 unit="Angstrom">1.5444260</kAlpha2>
			<kBeta unit="Angstrom">1.3922500</kBeta>
			<ratioKAlpha2KAlpha1>0.5000</ratioKAlpha2KAlpha1>
		</usedWavelength>
		<incidentBeamPath>
			<radius unit="mm">145.00</radius>
			<xRayTube id="1010048" name="Empyrean Cu LFF HR (9430 033 7310x)">
				<tension unit="kV">40.0</tension>
				<current unit="mA">15.0</current>
				<anodeMaterial>Cu</anodeMaterial>
				<focus type="Line">
					<length unit="mm">12.0</length>
					<width unit="mm">0.4</width>
					<takeOffAngle unit="deg">6.0</takeOffAngle>
				</focus>
			</xRayTube>
			<sollerSlit id="21010002" name="Soller slits 0.04 rad.">
				<opening unit="rad">0.0400</opening>
			</sollerSlit>
			<mask id="22031000" name="Fixed mask 13 mm">
				<width unit="mm">9.00</width>
			</mask>
			<divergenceSlit id="22120001" name="Divergence slit 1°" xsi:type="fixedDivergenceSlitType">
				<distanceToSample unit="mm">50.00</distanceToSample>
				<height unit="mm">1.52</height>
			</divergenceSlit>
		</incidentBeamPath>
		<sampleMovement xsi:type="spinningSampleMovementType">
			<spinnerRevolutionTime unit="seconds">1.0</spinnerRevolutionTime>
		</sampleMovement>
		<diffractedBeamPath>
			<radius unit="mm">145.00</radius>
			<antiScatterSlit id="22090040" name="AS slit 9 mm (PIXcel)" xsi:type="fixedAntiScatterSlitType">
				<height unit="mm">9.00</height>
			</antiScatterSlit>
			<sollerSlit id="21020003" name="Large Soller slits 0.04 rad.">
				<opening unit="rad">0.0400</opening>
			</sollerSlit>
			<filter id="20030001" name="Large beta-filter Nickel">
				<material>Ni</material>
				<thickness unit="mm">0.020</thickness>
			</filter>
			<detector id="7010019" name="PIXcel1D-Medipix3 detector" xsi:type="rtmsDetectorType">
				<phd unit="keV">
					<lowerLevel>4.02</lowerLevel>
					<upperLevel>11.27</upperLevel>
				</phd>
				<mode>Scanning</mode>
				<activeLength unit="deg">5.542</activeLength>
			</detector>
		</diffractedBeamPath>
		<scan appendNumber="0" mode="Continuous" scanAxis="Gonio" status="Completed">
			<header>
				<startTimeStamp>2025-11-08T14:37:12-08:00</startTimeStamp>
				<endTimeStamp>2025-11-08T14:45:19-08:00</endTimeStamp>
				<author>
					<name>AutomatedUser</name>
				</author>
				<source>
					<applicationSoftware version="1.7b (136)">PANalytical Aeris Instrument Suite</applicationSoftware>
					<instrumentControlSoftware version="3.2.00000000 20240306">AERIS</instrumentControlSoftware>
					<instrumentID>950485</instrumentID>
				</source>
			</header>
			<dataPoints>
				<positions axis="2Theta" unit="deg">
					<startPosition>10.00943322</startPosition>
					<endPosition>99.99442286</endPosition>
				</positions>
				<positions axis="Omega" unit="deg">
					<startPosition>5.00471661</startPosition>
					<endPosition>49.99721143</endPosition>
				</positions>
				<commonCountingTime unit="seconds">12.495</commonCountingTime>
				<counts unit="counts">2926 2942 2933 2965 2925 2860 2983 2941 2868 2838 2858 2948 2960 2774 2957 2802 2891 2832 2896 2883 2823 2944 2862 2921 2951 2812 2979 2974 2893 2837 2965 2819 2851 2934 2919 2899 2940 3049 2821 2932 2933 2902 2834 2948 3042 2998 2992 3038 2949 2988 2980 2889 2947 3101 2954 2913 2939 2987 2958 2937 2804 2903 3001 2918 2925 2979 2876 2969 2879 2851 2962 3040 2925 3032 2834 2935 2859 2897 2903 2889 2871 2822 2835 2899 2833 2994 2824 3005 2842 2898 2887 2878 2837 2905 3006 2958 3012 2901 2860 3031 2907 2919 2924 2860 2898 2796 2839 2939 2901 2811 2896 2900 2899 2920 2868 2831 2907 2873 2795 2800 2882 2893 2845 2831 2872 2859 2887 2828 2960 2889 2798 2785 2895 2813 2932 2928 2822 2811 2889 2902 2979 2923 2846 2834 2759 2781 2867 2840 2802 2954 2782 2815 2817 2897 2766 2793 2896 2859 2860 2749 2834 2768 2793 2811 2889 2911 2767 2832 2885 2907 2826 2907 2794 2864 2829 2736 2801 2897 2880 2816 2832 2862 2846 2887 2694 2836 2783 2742 2773 2703 2743 2797 2771 2761 2896 2857 2791 2837 2822 2839 2780 2868 2865 2851 2815 2820 2735 2764 2838 2822 2889 2714 2887 2821 2835 2870 2896 2759 2819 2770 2735 2692 2775 2761 2777 2791 2787 2888 2781 2777 2707 2778 2848 2815 2742 2783 2776 2825 2736 2831 2779 2834 2788 2906 2764 2895 2867 2775 2807 2751 2923 2807 2797 2849 2767 2814 2796 2869 2834 2788 2842 2869 2724 2823 2744 2724 2758 2846 2808 2913 2792 2841 2890 2738 2784 2789 2708 2811 2761 2819 2831 2857 2814 2862 2861 2945 2782 2869 2923 3026 2852 2743 2870 2915 2781 2862 2929 2908 2941 2932 2948 2883 2897 2919 2787 2870 2947 2816 2848 2883 2897 2979 3019 3045 2981 3018 2933 2974 3040 2949 2964 2941 3060 3121 2980 3007 2989 3005 3044 2918 3079 3071 3036 3080 3081 3117 3026 3014 3147 3140 3236 3151 3159 3015 3123 3149 3153 3099 3200 3278 3060 3122 3221 3187 3169 3189 3251 3284 3159 3197 3098 3248 3197 3345 3208 3278 3412 3329 3293 3235 3451 3299 3427 3356 3277 3403 3317 3288 3328 3461 3312 3389 3359 3512 3361 3467 3424 3466 3468 3372 3461 3575 3598 3451 3605 3669 3655 3608 3543 3686 3795 3583 3764 3852 3787 3945 3921 3913 3884 3965 4056 4209 4203 4268 4364 4370 4488 4580 4490 4629 4668 4805 4777 4774 4959 5121 5257 5114 5389 5313 5556 5563 5605 5584 5641 5621 5778 5949 5989 5918 6074 5995 5849 5871 6161 5913 6109 5940 6077 6022 6007 6119 6102 6089 6215 6383 6418 6441 6405 6292 6462 6289 6230 6219 5981 6063 5790 5771 5608 5491 5189 5027 4800 4659 4419 4104 4026 3824 3827 3611 3620 3642 3596 3621 3598 3553 3513 3459 3398 3376 3356 3452 3402 3525 3387 3528 3464 3337 3394 3269 3439 3296 3374 3302 3367 3368 3317 3440 3273 3243 3248 3281 3223 3227 3333 3232 3338 3138 3226 3185 3257 3214 3206 3241 3185 3237 3167 3213 3185 3272 3230 3216 3201 3278 3189 3277 3200 3195 3168 3264 3202 3222 3131 3265 3110 3186 3218 3097 3090 3179 3139 3240 3153 3156 3096 3168 3186 3213 3198 3134 3197 3206 3179 3080 3121 3067 3170 3188 3057 3269 3119 3111 3212 3121 3203 3035 3111 3153 3101 3090 3032 3076 3135 3066 3016 3006 3113 3072 2967 3040 3006 2978 3012 2997 3004 3076 2991 2981 3005 3019 3062 3072 3026 3044 2990 3010 2955 2944 2916 3016 2976 2969 2892 2978 3063 3043 3063 3011 3006 2982 2978 3016 3006 2983 2985 3027 2955 3014 3018 2986 3045 3051 3001 2961 2986 2961 2930 2999 2983 2980 2893 3096 2993 2831 2946 2935 2983 3012 2842 2986 2924 2819 2984 2772 2935 2933 2919 2884 2923 2898 2896 2902 2902 2914 2939 2884 2949 2875 2971 2902 2966 2926 2926 2849 2888 2819 2847 2815 2883 2816 2948 2957 2920 2892 2751 2795 2922 2861 2841 2746 2779 2862 2930 2903 2835 2781 2875 2896 2925 2921 2955 2910 2882 2879 2885 2924 2841 2875 2885 2890 3003 2859 2893 2870 2749 2896 2806 2768 2818 2777 2867 2865 2943 2830 2787 2880 2773 2872 2800 2864 2824 2908 2821 2842 2834 2871 2787 2904 2775 2883 2849 2874 2809 2765 2827 2873 2876 2796 2770 2779 2769 2794 2788 2810 2882 2864 2734 2768 2812 2796 2740 2790 2779 2848 2693 2811 2758 2874 2839 2807 2723 2651 2649 2810 2728 2812 2773 2851 2787 2828 2680 2756 2763 2769 2800 2675 2742 2735 2729 2723 2792 2787 2761 2807 2793 2709 2750 2711 2796 2683 2753 2751 2683 2880 2716 2730 2791 2774 2778 2801 2783 2752 2907 2748 2771 2862 2716 2707 2724 2811 2764 2821 2788 2857 2766 2834 2659 2721 2788 2691 2720 2682 2733 2685 2608 2706 2636 2618 2739 2658 2738 2703 2690 2764 2643 2726 2654 2611 2696 2684 2739 2745 2693 2737 2750 2718 2599 2668 2693 2650 2691 2574 2650 2761 2597 2508 2739 2626 2677 2639 2698 2669 2627 2623 2615 2659 2630 2626 2657 2614 2645 2698 2593 2614 2667 2626 2580 2616 2662 2582 2486 2592 2586 2560 2530 2528 2583 2585 2669 2595 2563 2511 2605 2547 2662 2547 2567 2557 2616 2523 2522 2592 2623 2544 2553 2561 2508 2636 2577 2617 2650 2537 2548 2526 2579 2550 2582 2519 2621 2461 2622 2646 2510 2503 2591 2638 2530 2593 2624 2560 2599 2481 2561 2492 2547 2568 2578 2594 2516 2452 2517 2641 2498 2534 2488 2573 2586 2571 2509 2628 2524 2493 2556 2472 2445 2581 2494 2537 2545 2487 2495 2479 2490 2561 2424 2502 2498 2548 2545 2529 2502 2506 2520 2543 2502 2483 2487 2410 2518 2497 2528 2475 2525 2603 2507 2556 2434 2492 2485 2560 2547 2565 2514 2574 2483 2575 2529 2544 2580 2479 2618 2578 2503 2564 2521 2488 2504 2498 2438 2505 2575 2488 2469 2576 2511 2501 2470 2579 2510 2497 2566 2615 2570 2459 2471 2572 2519 2504 2447 2468 2531 2536 2539 2498 2487 2477 2553 2491 2542 2474 2562 2493 2450 2583 2566 2525 2539 2624 2518 2645 2551 2532 2460 2580 2489 2607 2567 2603 2622 2362 2554 2581 2529 2492 2474 2529 2510 2366 2580 2644 2547 2459 2525 2565 2613 2485 2522 2581 2466 2536 2506 2553 2545 2475 2525 2572 2624 2573 2476 2504 2486 2465 2555 2476 2545 2461 2526 2465 2464 2554 2573 2568 2541 2424 2471 2500 2448 2364 2418 2472 2527 2454 2458 2438 2530 2478 2405 2473 2552 2471 2488 2411 2406 2424 2494 2428 2489 2428 2471 2506 2399 2439 2379 2455 2482 2407 2453 2443 2401 2490 2431 2376 2391 2397 2476 2336 2358 2370 2428 2451 2418 2384 2329 2356 2416 2405 2351 2334 2338 2297 2271 2374 2372 2255 2376 2364 2339 2373 2293 2355 2352 2285 2319 2278 2285 2295 2325 2196 2239 2257 2172 2222 2232 2162 2195 2230 2245 2310 2172 2210 2243 2190 2165 2188 2211 2208 2137 2186 2201 2180 2151 2094 2142 2191 2220 2170 2232 2233 2165 2172 2167 2130 2198 2102 2158 2118 2182 2178 2176 2175 2103 2146 2107 2180 2096 2067 2052 2157 2089 2116 2118 2124 1974 2059 2038 2004 2058 2084 1972 2149 2083 2087 2079 2092 2045 2003 2033 2056 2066 1996 2076 1937 1917 2037 1944 2040 2084 2063 1951 1979 2017 1982 1968 2076 2057 2061 1995 2025 2027 1993 2037 1992 1925 1986 1925 2013 1977 2026 1977 1997 1926 1918 1917 2028 1985 1910 1941 1937 2014 1958 1946 1931 1930 1899 1943 1940 1930 1912 2001 1987 1956 1967 1934 1929 1905 1951 2032 1852 1884 1900 1828 1886 1881 1909 1907 1902 1941 1863 1829 1877 1881 1823 1872 1927 1898 1894 1866 1901 1906 1905 1838 1895 1844 1906 1912 1906 1765 1788 1803 1923 1883 1833 1845 1820 1892 1870 1868 1804 1926 1890 1903 1913 1800 1837 1867 1862 1783 1889 1845 1871 1825 1912 1836 1849 1899 1868 1925 1833 1837 1860 1892 1857 1855 1913 1876 1919 1818 1768 1848 1831 1823 1852 1842 1892 1894 1934 1843 1822 1859 1825 1878 1877 1825 1799 1881 1819 1897 1868 1860 1832 1865 1884 1945 1860 1926 1871 1867 1817 1826 1806 1888 1928 1843 1871 1781 1845 1853 1894 1877 1805 1846 1826 1996 1898 1907 1873 1817 1830 1831 1863 1937 1873 1944 1892 1854 1886 1901 1915 1848 1887 1915 1983 1822 1990 1926 1837 1865 1854 1862 1801 1971 1897 1812 1881 1868 1912 1909 1892 1866 1849 1875 1881 1861 1877 1891 1874 1940 1929 1798 1888 1849 1910 1874 1874 1835 1909 1892 1878 1904 1833 1835 1941 1834 1851 1855 1857 1870 1903 1840 1824 1819 1832 1867 1845 1878 1896 1842 1777 1816 1807 1857 1868 1826 1851 1808 1884 1828 1786 1806 1819 1787 1856 1764 1786 1768 1870 1823 1826 1760 1835 1839 1845 1761 1902 1792 1809 1812 1782 1839 1854 1806 1766 1869 1771 1769 1777 1716 1797 1816 1851 1790 1720 1760 1735 1731 1679 1732 1722 1719 1743 1833 1698 1714 1693 1719 1694 1770 1782 1693 1689 1692 1723 1739 1746 1674 1678 1671 1760 1692 1666 1674 1687 1714 1704 1667 1700 1721 1696 1669 1634 1631 1658 1673 1685 1681 1686 1667 1667 1629 1643 1594 1710 1635 1648 1734 1679 1652 1598 1591 1595 1652 1645 1560 1692 1648 1690 1581 1618 1629 1608 1607 1695 1620 1580 1536 1533 1574 1642 1563 1659 1613 1649 1626 1634 1664 1582 1542 1602 1666 1673 1664 1564 1510 1655 1601 1620 1581 1586 1577 1622 1682 1654 1606 1698 1712 1693 1620 1653 1685 1690 1738 1733 1802 1712 1803 1775 1894 1893 1978 2029 1918 1944 2067 2212 2248 2209 2339 2435 2379 2467 2446 2453 2581 2568 2533 2738 2574 2613 2597 2551 2571 2398 2366 2257 2220 2225 2083 2018 1969 1979 1839 1823 1772 1691 1688 1639 1683 1645 1582 1540 1526 1547 1546 1586 1562 1544 1576 1493 1557 1476 1568 1526 1567 1551 1497 1467 1478 1523 1500 1532 1442 1430 1515 1561 1455 1557 1453 1482 1402 1467 1494 1454 1442 1448 1552 1477 1415 1450 1496 1506 1520 1460 1511 1434 1548 1446 1485 1487 1486 1489 1481 1551 1525 1581 1522 1599 1649 1602 1582 1656 1668 1812 1713 1696 1723 1789 1720 1857 1822 2003 1995 2093 2137 2209 2239 2357 2452 2679 2839 2994 3012 3208 3516 3633 3675 3901 4209 4202 4500 4540 4482 4784 4735 4901 4893 4822 4846 4809 4726 4635 4405 4412 4156 4022 3987 3733 3668 3552 3514 3319 3191 3205 3118 2879 2927 2981 2744 2667 2663 2657 2596 2581 2510 2507 2487 2338 2275 2362 2264 2287 2180 2278 2107 2107 2142 2006 2105 2062 2132 2195 2167 2263 2265 2115 2301 2391 2369 2427 2358 2425 2280 2345 2403 2253 2384 2288 2257 2093 2081 2027 1810 1876 1803 1750 1701 1490 1434 1398 1417 1401 1392 1352 1320 1283 1339 1292 1318 1261 1250 1325 1287 1291 1334 1277 1359 1311 1278 1301 1294 1303 1259 1334 1256 1259 1254 1289 1303 1322 1294 1341 1283 1264 1233 1334 1289 1328 1270 1298 1221 1234 1228 1219 1288 1276 1299 1233 1237 1253 1271 1266 1235 1310 1299 1194 1241 1207 1311 1269 1313 1218 1150 1260 1274 1290 1237 1251 1174 1283 1171 1238 1260 1211 1209 1279 1241 1167 1194 1215 1217 1234 1194 1163 1186 1270 1230 1283 1240 1199 1233 1208 1250 1259 1254 1213 1251 1244 1216 1265 1187 1240 1240 1169 1291 1146 1193 1260 1209 1280 1263 1258 1272 1239 1237 1273 1220 1256 1307 1317 1317 1332 1286 1302 1261 1432 1382 1454 1373 1463 1371 1462 1507 1478 1563 1514 1580 1556 1576 1625 1620 1623 1595 1609 1684 1623 1610 1635 1591 1648 1577 1508 1502 1473 1488 1405 1405 1354 1370 1370 1268 1347 1283 1281 1251 1262 1333 1215 1289 1208 1175 1248 1203 1172 1217 1176 1171 1186 1176 1218 1177 1139 1206 1249 1226 1169 1190 1221 1189 1179 1138 1192 1124 1164 1194 1154 1177 1166 1160 1190 1142 1161 1195 1154 1164 1115 1175 1115 1242 1125 1147 1142 1187 1074 1163 1203 1198 1169 1106 1179 1171 1231 1140 1149 1079 1168 1116 1152 1166 1182 1135 1145 1216 1172 1117 1160 1168 1187 1191 1168 1135 1214 1174 1212 1207 1202 1083 1228 1175 1168 1162 1236 1211 1203 1254 1207 1223 1234 1249 1217 1166 1172 1164 1165 1224 1249 1157 1279 1166 1187 1204 1219 1167 1198 1183 1169 1242 1245 1207 1265 1273 1239 1228 1236 1246 1289 1225 1279 1294 1213 1226 1276 1284 1269 1218 1333 1249 1288 1347 1360 1336 1375 1316 1311 1329 1314 1324 1415 1323 1372 1365 1384 1432 1411 1477 1502 1586 1407 1455 1489 1638 1657 1712 1722 1800 1841 1888 2010 1989 2174 2281 2441 2532 2719 2854 3057 3263 3572 3871 4158 4556 4990 5386 5842 6385 6828 7512 8275 8923 9352 10186 10472 10908 11126 11663 11888 12355 12289 12473 12862 12178 11627 11140 10445 10128 9347 8691 8083 7737 7213 6786 6213 5750 5300 4887 4658 4400 4033 4000 3769 3657 3422 3385 3326 3007 2974 2889 2789 2697 2529 2471 2398 2341 2253 2128 2088 1999 1910 1836 1821 1753 1713 1754 1612 1587 1543 1573 1543 1425 1501 1440 1415 1411 1349 1344 1332 1355 1280 1418 1369 1306 1305 1355 1290 1261 1192 1201 1274 1250 1264 1299 1231 1198 1218 1231 1239 1202 1190 1159 1195 1151 1167 1213 1218 1142 1163 1224 1173 1156 1142 1172 1162 1188 1140 1139 1210 1172 1130 1133 1132 1162 1155 1096 1082 1144 1082 1058 1075 1077 1100 1158 1089 1111 1104 1123 1146 1093 1082 1096 1112 1055 1078 1164 1055 1057 1112 1070 1079 1104 1108 1079 1065 1048 1148 1125 1074 1131 1054 1106 1103 1104 1137 1131 1082 1096 1071 1099 1117 1083 1020 1033 1084 1120 1089 1082 1135 1121 1027 1067 1071 1046 1082 1102 1086 1018 1079 1046 1097 1068 1052 1076 1039 1088 1038 1058 1062 1036 1060 1059 1043 1066 1034 1174 1064 1071 1020 1061 1067 1023 1015 972 1037 994 1003 1073 1028 1004 1026 1103 981 1119 1059 1017 1071 1074 1027 1056 1057 1020 1001 997 980 1006 1027 1082 1082 1016 1022 1028 1010 1072 1028 980 1053 1081 1021 971 1004 997 1086 982 1096 997 1031 986 1035 1007 1040 996 1077 1014 1028 1067 1084 1052 992 1074 1019 1032 1048 1000 1002 1016 954 1054 1065 1072 1032 1044 1001 1035 987 1048 992 1025 1005 1106 1043 962 1060 1009 1042 1033 1071 1092 998 1028 1056 1084 1128 1027 1054 1011 1117 1116 1041 1061 1085 1143 1125 1085 1101 1131 1090 1092 1113 1069 992 1070 1043 1019 1056 1030 1012 1045 1071 1049 978 1026 983 1019 939 1037 998 1041 1022 1027 997 1035 971 1021 979 1006 1003 1009 1041 959 978 1021 964 1038 959 945 947 1019 1027 998 1063 977 961 972 934 998 1008 960 997 1008 1012 995 955 1020 978 952 949 1015 932 1008 951 999 942 986 1005 959 920 980 989 965 937 922 901 940 992 899 963 962 934 916 953 986 976 972 985 1004 1000 975 953 975 1012 951 932 1004 945 926 988 918 945 928 975 899 915 945 980 924 970 943 960 948 956 923 980 940 934 915 1003 1015 904 912 961 976 978 975 902 914 930 921 1024 991 954 951 952 968 1009 908 1010 969 996 967 890 943 952 973 915 972 906 977 943 944 885 928 990 914 901 895 1009 937 929 924 900 968 907 984 921 975 951 909 900 902 916 960 986 1016 944 989 855 983 985 870 997 889 961 938 977 984 936 971 956 930 976 922 933 926 1003 919 904 947 972 912 904 877 953 895 903 885 961 920 949 906 925 949 920 892 915 909 968 892 966 942 972 890 951 978 989 987 930 956 933 920 902 944 948 934 926 891 928 911 943 938 916 931 945 968 926 913 956 934 935 866 912 904 879 960 882 950 936 917 950 934 930 928 953 941 910 848 925 931 973 907 930 913 969 931 883 912 966 951 927 978 920 950 881 914 892 972 918 928 910 913 875 936 904 931 948 948 897 918 910 957 900 917 937 956 927 948 929 916 938 913 910 881 968 909 930 940 967 957 907 935 926 936 903 918 941 884 914 902 903 939 907 951 910 907 945 944 926 947 888 959 912 917 950 981 955 907 961 955 964 1035 935 958 994 971 992 958 1001 985 1024 940 992 1014 1006 1087 1026 1076 1140 1092 1128 1173 1182 1223 1184 1243 1308 1250 1198 1273 1218 1300 1325 1277 1297 1277 1254 1233 1224 1114 1136 1133 1172 1094 1112 1135 1036 1046 1064 1072 1030 970 924 995 970 992 961 974 965 932 987 920 952 936 922 961 953 930 952 956 935 935 955 993 895 918 958 899 901 902 910 934 880 944 933 920 895 928 967 876 856 882 828 969 896 925 860 896 957 860 902 872 915 875 892 919 856 919 915 901 884 907 921 831 889 912 861 879 857 891 859 898 909 901 959 904 878 919 887 861 833 847 926 883 900 877 859 881 860 952 870 913 876 888 887 898 911 941 907 962 911 886 911 890 865 903 854 935 863 968 913 908 841 944 894 869 924 896 956 885 924 920 886 889 877 869 868 925 902 944 904 941 910 878 887 899 912 959 916 913 897 904 893 928 897 945 878 958 963 910 938 839 937 842 920 935 910 913 931 906 901 942 918 919 931 915 901 921 934 905 920 938 875 902 909 864 974 865 957 915 892 915 913 909 901 878 907 948 923 947 856 953 923 874 901 933 898 962 873 841 820 917 908 883 889 935 885 923 916 875 827 872 919 888 906 923 915 922 902 938 884 916 855 860 929 881 920 887 899 909 903 915 871 869 933 880 918 898 917 901 823 949 994 928 885 950 954 939 907 970 863 919 1004 950 967 988 1016 908 992 1017 1001 941 1010 920 955 1002 1028 1048 1108 1118 1200 1148 1165 1262 1250 1395 1395 1494 1511 1501 1655 1648 1654 1793 1831 1728 1875 1823 1891 1868 1730 1739 1712 1635 1577 1558 1532 1504 1446 1339 1319 1258 1313 1271 1194 1207 1107 1158 1038 1096 1038 1040 1065 1124 1096 1055 1003 987 1021 1015 982 982 992 951 1076 941 1023 1003 940 952 953 1028 943 967 937 962 914 945 897 953 916 915 876 909 881 829 899 892 886 931 901 928 919 878 883 922 891 883 913 945 939 875 882 915 909 922 855 906 854 949 875 900 883 907 979 928 897 932 899 888 931 903 912 895 935 924 874 847 886 905 905 903 881 846 851 843 871 820 864 857 894 896 896 864 854 837 905 862 862 898 886 875 918 864 824 898 863 859 877 929 855 828 878 858 905 803 907 926 873 867 855 898 902 906 890 842 899 864 853 854 848 871 893 862 860 841 816 886 845 884 853 894 883 821 902 900 874 821 837 868 839 882 906 786 835 841 823 879 857 897 859 842 851 803 833 863 839 848 832 865 843 897 802 895 878 799 854 903 840 909 888 882 839 857 843 897 814 870 868 878 872 908 846 866 813 901 940 912 821 876 932 861 908 874 876 876 865 881 872 866 899 885 849 852 927 907 922 930 887 838 867 878 854 827 862 832 871 888 888 928 847 908 879 866 893 892 849 885 954 872 834 889 889 903 875 886 872 877 909 849 911 885 857 903 918 882 849 815 885 866 950 947 888 871 930 937 922 909 852 900 926 886 867 893 921 935 938 907 894 845 950 909 914 887 933 871 927 865 978 928 906 844 898 867 893 926 927 912 944 936 873 931 963 920 916 927 896 983 950 927 932 1033 969 947 945 941 1015 1038 1006 990 963 960 987 988 987 1024 1075 999 1037 1074 1070 1014 1082 1069 1134 1154 1200 1216 1218 1266 1283 1391 1363 1498 1486 1580 1785 1814 1961 2057 2212 2469 2758 2915 3183 3536 3671 3986 4223 4564 4747 4968 5127 5277 5471 5495 5601 5642 5614 5412 5320 5268 4816 4766 4471 4502 4001 4025 3828 3789 3642 3519 3317 3215 2940 2910 2717 2529 2395 2284 2281 2153 2247 2213 2168 2104 2080 2041 1996 1960 1977 1934 1901 1862 1734 1789 1698 1680 1663 1647 1508 1587 1490 1506 1486 1453 1425 1396 1336 1324 1243 1249 1228 1139 1173 1225 1121 1106 1120 1090 1075 1039 1051 1017 991 988 1019 1039 956 1041 985 991 946 944 1045 975 908 976 999 925 947 992 883 931 901 925 916 927 923 914 864 928 962 873 956 950 892 917 933 868 881 923 837 926 880 907 905 828 907 884 933 861 893 899 890 893 877 931 871 847 875 859 847 902 857 854 863 868 849 836 835 839 850 878 817 837 842 871 914 860 878 809 828 848 855 873 834 850 855 834 888 851 843 810 885 848 825 811 820 800 810 915 922 834 837 855 885 764 863 885 887 868 847 828 890 845 841 835 848 826 806 869 849 839 852 842 854 870 820 823 847 826 896 888 943 876 910 912 879 898 975 962 947 978 1000 1067 1070 1065 1157 1105 1142 1130 1238 1169 1226 1281 1313 1334 1278 1286 1282 1247 1285 1275 1189 1186 1223 1127 1114 1127 1055 1092 1127 1074 1091 1015 1034 1001 1018 988 962 933 950 944 956 943 877 959 876 909 903 881 861 871 907 893 937 870 846 823 905 856 873 903 797 890 799 876 815 771 870 881 816 775 850 856 789 799 803 837 786 812 824 852 766 828 800 764 815 770 791 801 844 747 768 787 784 787 769 836 819 807 766 762 792 773 811 824 865 820 794 850 772 813 790 837 783 806 766 838 819 843 789 741 769 794 772 748 799 751 789 797 790 838 787 796 787 833 760 787 758 750 770 824 793 830 813 747 790 819 753 778 791 774 837 773 765 768 790 779 778 776 798 766 741 810 780 821 767 767 773 771 739 762 753 805 823 821 760 839 812 769 792 767 843 796 816 821 792 794 842 727 788 815 776 845 760 759 796 785 783 853 809 831 765 733 709 843 743 846 818 827 825 744 789 779 838 790 774 737 778 729 800 825 783 731 795 745 810 787 780 797 826 823 776 743 798 766 781 720 751 852 790 780 791 725 784 785 833 733 796 760 771 786 794 824 797 732 756 736 826 798 772 800 762 816 799 815 811 818 826 860 799 778 804 801 825 792 825 824 823 813 837 871 895 933 968 930 962 946 973 976 976 1019 949 970 1010 1064 1021 1008 1031 1015 1020 969 1050 988 969 955 942 946 926 996 969 986 845 888 931 838 879 799 791 847 816 775 790 870 807 774 799 781 771 744 782 815 764 815 812 760 743 754 759 749 794 771 780 717 751 792 718 757 731 728 737 740 824 768 745 712 793 705 780 743 746 778 800 752 712 772 792 737 758 758 783 754 806 768 736 760 850 762 736 764 759 757 764 744 719 767 747 784 811 756 823 732 753 791 747 843 758 773 724 717 710 751 722 720 736 769 760 733 709 728 785 789 772 726 766 763 773 729 735 769 730 705 808 742 806 766 771 734 759 720 765 710 785 745 748 744 737 781 760 775 782 732 755 747 750 798 754 743 748 778 759 746 763 740 742 740 753 773 775 769 739 720 757 736 740 697 725 726 806 735 783 772 672 776 757 759 729 757 752 753 737 722 769 714 762 781 734 752 752 795 768 772 722 744 772 785 766 752 740 726 753 762 747 749 790 751 752 738 736 731 775 713 739 728 753 702 760 765 716 779 736 792 721 731 760 752 720 728 783 740 797 761 739 734 763 778 753 796 747 782 764 747 765 704 746 735 696 757 775 750 732 737 743 813 775 794 748 762 781 778 751 740 788 801 802 850 824 863 790 839 847 875 840 855 866 824 832 817 829 817 852 775 811 836 789 779 815 831 747 805 825 822 828 796 799 774 841 838 773 779 798 742 774 730 739 802 763 770 808 789 805 778 822 752 825 833 779 795 813 886 851 880 854 851 947 925 965 1039 1001 1072 1111 1138 1171 1232 1208 1308 1312 1437 1357 1407 1445 1447 1377 1365 1353 1433 1372 1420 1324 1350 1234 1229 1194 1200 1242 1200 1249 1207 1183 1199 1191 1116 1081 995 1056 1069 1011 932 994 974 958 992 1013 920 983 914 955 967 911 1003 920 889 964 946 974 974 918 972 931 922 883 915 846 867 940 872 857 912 847 868 892 888 845 808 847 851 799 778 832 839 848 778 767 824 790 782 750 847 861 751 807 808 770 811 759 727 748 781 777 812 710 730 802 764 791 742 803 766 750 798 699 752 812 760 784 795 742 759 806 760 737 747 762 733 747 728 730 728 770 742 713 720 746 785 720 752 766 796 753 754 755 769 739 733 746 750 724 737 703 746 753 702 749 705 776 729 774 759 776 745 778 794 772 754 725 735 804 804 780 729 755 777 785 757 728 764 793 725 747 745 782 846 722 714 771 754 757 776 743 785 743 743 723 715 759 814 784 751 762 775 699 749 783 741 711 735 722 733 777 742 787 736 743 778 745 796 710 753 734 735 775 779 783 815 736 720 738 729 801 789 756 748 743 756 757 799 762 769 757 783 802 779 810 804 795 887 829 835 832 855 863 887 900 923 870 860 914 994 998 1031 1056 1133 1176 1248 1346 1310 1413 1479 1633 1584 1669 1655 1746 1753 1718 1703 1814 1695 1736 1690 1690 1574 1626 1505 1514 1478 1471 1489 1466 1432 1381 1446 1322 1350 1288 1337 1239 1163 1226 1109 1130 1068 1066 1063 1044 1061 990 1011 1024 1010 955 971 964 950 1010 966 984 954 918 923 863 890 908 969 869 922 882 885 964 909 915 892 872 889 845 855 865 888 877 883 870 849 840 885 815 830 876 827 899 833 864 861 870 799 844 811 768 835 794 761 817 823 772 800 789 758 790 761 792 793 811 753 785 735 823 757 746 812 755 817 814 830 773 781 820 814 790 827 790 812 821 807 883 839 890 925 932 941 986 1003 980 1061 998 1045 1069 1084 1020 1073 1070 1016 981 992 956 942 935 922 899 866 913 930 907 931 922 957 870 857 865 824 827 783 727 770 761 789 776 784 762 744 744 725 750 736 754 743 752 756 770 732 737 791 865 805 773 783 845 835 791 928 843 891 929 938 957 917 933 951 985 918 962 977 912 936 913 952 843 878 899 846 862 878 908 868 860 869 817 837 852 850 806 808 805 693 773 775 752 722 722 805 751 712 773 687 758 723 756 791 724 727 685 790 760 726 769 722 752 671 747 724 724 788 740 765 771 736 780 744 753 778 761 757 728 713 764 754 682 755 704 704 753 743 756 771 792 723 719 670 716 710 700 700 691 699 749 706 647 707 688 706 791 695 693 732 726 712 692 739 752 725 738 724 660 703 661 638 743 752 751 734 710 699 679 698 666 681 738 666 688 695 707 653 688 724 701 678 740 686 708 731 662 725 686 691 685 712 692 721 673 720 701 692 682 733 654 685 639 697 685 655 712 686 716 692 672 721 650 714 641 697 673 711 704 666 724 655 718 675 659 666 685 663 669 714 710 644 681 668 691 683 686 712 658 682 671 697 661 695 667 700 714 685 715 685 726 721 670 740 661 683 697 662 703 693 682 717 691 678 658 676 723 656 710 697 685 644 664 689 655 679 714 648 712 752 714 649 696 670 712 703 742 693 685 703 682 681 694 715 661 711 665 672 658 688 665 713 624 635 667 672 649 654 668 723 729 718 693 682 676 748 651 691 645 660 657 668 620 677 711 696 706 660 686 663 673 718 685 690 651 640 681 712 712 710 685 698 678 691 675 739 666 704 683 682 686 722 727 694 637 686 687 684 703 679 717 709 740 737 704 749 717 719 676 691 709 741 741 654 676 677 680 709 677 673 635 637 695 653 681 674 715 717 652 702 673 687 707 671 659 695 657 739 695 664 680 668 663 633 687 638 687 693 707 688 696 666 639 644 649 681 681 672 658 695 672 670 677 689 695 720 654 653 670 694 716 665 713 700 712 682 693 696 684 641 727 684 691 692 661 698 724 663 641 659 689 680 669 719 710 638 722 717 639 678 665 688 674 666 668 668 655 696 625 666 651 687 622 680 703 647 678 651 666 689 707 687 724 707 657 675 693 645 709 666 642 690 694 666 682 672 668 694 709 679 669 717 678 681 693 656 659 692 678 641 683 648 674 701 666 739 634 709 640 634 692 701 681 651 676 706 663 723 654 655 698 649 712 670 724 744 706 781 742 707 730 739 740 777 774 782 794 803 795 764 749 779 772 799 861 803 839 802 796 841 809 765 769 806 785 777 765 733 763 731 705 796 673 759 782 724 753 736 753 702 689 696 671 672 696 727 735 687 729 708 691 632 718 697 709 705 688 693 691 633 684 690 660 684 697 705 681 706 651 676 731 680 714 686 707 721 631 659 724 662 649 718 696 708 697 697 689 659 684 679 673 646 636 651 643 705 673 665 653 670 653 687 657 710 643 708 709 672 676 678 679 650 633 684 636 710 663 676 655 681 666 638 689 732 632 641 679 690 641 648 684 681 700 664 648 691 663 635 649 629 606 687 670 679 678 709 650 643 663 665 684 685 678 687 698 695 656 719 707 647 651 646 667 676 665 667 677 673 649 671 698 661 633 644 642 693 684 661 704 694 679 622 668 661 637 653 653 661 596 652 705 694 692 660 625 641 665 677 693 631 679 701 703 689 644 687 651 695 659 659 658 652 697 649 700 641 658 645 657 690 653 649 670 658 674 636 656 671 632 685 636 653 699 700 681 663 677 685 640 648 606 673 636 624 648 655 703 702 645 632 667 687 661 650 622 656 691 660 598 719 672 664 642 635 674 700 683 674 652 673 690 678 682 692 686 661 652 705 735 702 738 674 705 705 687 712 707 697 709 760 707 796 681 793 787 737 808 728 824 875 793 821 850 929 883 899 1018 1039 993 1121 1142 1159 1142 1151 1158 1169 1136 1154 1211 1103 1137 1160 1089 1020 947 1015 1041 1026 988 988 996 969 1068 1028 1018 1019 975 942 935 861 921 856 869 863 862 760 798 774 839 784 782 759 823 719 790 754 756 735 811 692 745 796 772 751 717 762 756 773 785 729 770 769 718 712 758 711 703 706 741 743 739 738 697 711 705 766 664 711 669 714 696 670 703 707 765 669 692 707 696 692 666 654 716 679 755 704 672 695 679 684 725 664 664 664 677 689 716 674 662 670 666 679 690 701 647 645 666 672 722 704 694 707 633 657 626 631 640 663 655 676 663 638 664 672 691 646 616 660 718 662 645 676 618 642 701 677 633 692 720 732 656 676 656 693 639 689 628 672 645 691 713 688 631 662 625 680 612 672 637 663 669 682 640 646 657 679 648 627 669 629 676 722 640 695 703 686 631 654 663 631 694 655 666 660 679 654 665 652 673 612 661 675 697 649 644 629 658 670 635 627 658 656 671 648 656 685 656 632 676 692 641 676 620 651 681 677 695 653 653 663 642 667 646 610 686 667 671 650 622 619 637 601 635 633 633 631 674 683 620 658 652 653 669 681 687 657 654 673 642 635 649 688 649 673 635 660 672 669 652 667 623 623 635 629 717 659 653 639 675 655 620 597 648 673 655 650 694 671 649 663 650 672 650 663 663 690 652 679 663 662 663 657 674 616 689 671 653 646 659 659 619 634 638 675 654 639 669 654 635 690 669 613 659 651 622 666 660 608 600 684 688 629 643 671 667 691 653 637 563 683 669 600 664 614 669 640 612 661 685 626 618 665 597 612 660 627 660 640 624 674 622 668 650 594 645 663 663 705 654 654 646 634 681 657 660 633 642 647 630 654 721 651 665 677 594 674 614 630 661 678 616 629 631 700 596 683 677 634 644 724 637 674 645 679 650 675 662 675 671 675 672 640 650 705 701 614 693 607 628 682 660 641 613 622 646 676 625 622 653 696 646 644 699 702 704 635 677 645 709 634 633 679 647 664 682 656 677 678 655 680 682 654 668 711 692 676 669 718 696 647 613 749 699 682 653 636 641 693 635 669 676 641 683 702 617 651 639 656 666 675 659 662 625 650 682 713 612 632 677 630 662 644 652 662 671 649 637 651 663 684 648 668 690 635 670 645 621 700 618 666 656 658 666 624 626 673 678 674 651 667 630 615 657 636 637 602 653 628 633 670 600 658 665 683 656 651 640 702 666 692 639 652 606 662 683 682 636 644 673 675 646 668 668 655 647 675 662 646 641 651 686 600 646 665 633 606 646 712 676 677 655 630 627 665 679 681 703 678 691 687 655 706 640 628 626 662 643 658 691 666 673 651 637 653 665 662 651 645 603 686 632 679 659 703 662 658 691 671 652 675 652 667 684 644 664 645 669 649 703 667 696 639 632 674 655 664 652 666 677 620 664 684 644 647 706 676 693 703 728 681 701 692 686 704 676 794 757 735 776 773 750 755 744 767 764 748 700 758 692 751 737 720 731 703 720 711 755 748 719 746 759 716 744 736 743 716 717 749 762 710 730 737 705 605 720 683 728 741 721 692 671 732 714 711 676 734 762 753 796 789 779 788 836 808 828 838 824 866 764 821 845 881 850 860 856 858 816 833 742 782 805 825 787 813 775 772 769 777 800 781 789 776 793 793 801 785 773 770 763 732 784 828 730 752 741 759 696 747 761 757 717 765 754 710 732 730 747 729 750 721 705 746 749 681 716 666 719 751 721 697 722 711 721 696 690 652 721 726 689 747 712 727 703 708 735 702 654 718 668 663 729 704 704 674 712 691 703 706 683 718 692 687 700 676 715 678 693 714 654 681 681 662 690 730 724 641 675 703 699 700 766 669 668 706 682 673 657 693 690 689 727 694 760 718 717 738 727 729 732 702 719 690 683 675 666 701 694 720 759 714 648 701 684 722 757 700 644 710 703 652 755 719 696 712 700 698 713 716 696 749 734 713 707 679 678 664 711 692 710 736 696 716 741 747 729 769 721 748 701 717 729 728 688 697 734 741 723 741 745 736 775 778 732 743 758 709 702 725 733 792 774 724 751 792 793 772 808 884 871 834 872 894 879 958 1001 1044 1045 1068 1150 1183 1190 1336 1356 1431 1395 1433 1492 1463 1514 1546 1519 1564 1531 1550 1428 1456 1404 1354 1363 1247 1208 1236 1275 1152 1191 1192 1261 1220 1207 1216 1217 1341 1238 1250 1202 1210 1216 1173 1149 1121 1110 1017 1012 1004 939 984 936 913 892 863 886 874 905 847 843 877 840 835 827 906 817 849 836 905 838 885 862 849 845 802 832 840 765 775 761 817 808 838 768 804 832 830 829 833 809 798 801 755 781 783 788 758 800 805 755 772 784 794 834 745 803 804 764 773 746 736 785 733 742 850 725 762 738 776 750 767 764 726 774 709 721 746 715 736 722 712 713 761 739 745 710 696 729 688 753 708 716 682 675 719 741 736 725 737 735 738 772 755 801 746 772 749 739 748 772 723 806 711 722 759 721 764 742 758 760 756 755 733 763 744 791 805 770 802 794 726 787 778 797 793 735 760 779 780 836 772 774 746 734 730 745 795 756 752 738 768 711 731 719 706 678 758 714 696 729 743 735 704 771 674 724 742 708 704 661 660 680 683 714 678 727 661 686 707 707 721 718 653 627 669 696 658 674 691 659 691 677 649 671 660 698 688 650 709 690 664 698 707 698 645 660 623 605 672 709 667 710 723 686 710 698 716 708 673 641 635 688 684 685 719 684 685 672 675 698 682 658 619 662 636 665 676 643 663 664 672 708 710 711 668 694 641 629 643 657 683 684 673 655 681 681 645 648 655 630 726 681 701 645 703 659 669 661 682 637 630 659 667 615 662 631 638 637 656 661 641 671 645 660 649 674 641 623 625 680 608 672 623 614 674 656 678 684 645 672 702 716 671 656 657 638 645 699 641 618 654 632 599 630 656 686 666 666 649 644 658 646 606 691 632 648 655 669 634 670 692 662 631 640 711 658 689 715 617 642 682 624 668 677 600 667 615 653 635 615 681 737 692 681 640 642 679 663 667 653 715 650 700 637 663 658 644 663 646 680 704 679 653 654 652 680 655 630 659 662 655 653 635 643 691 637 661 638 698 683 700 614 679 665 704 665 627 669 606 614 664 632 668 679 667 672 660 678 677 645 638 654 665 615 639 623 694 656 730 677 647 656 678 684 651 630 689 732 688 667 635 687 686 643 679 683 642 656 633 697 704 671 695 659 691 654 653 669 670 611 667 630 704 646 689 694 668 640 718 719 764 688 670 689 649 713 707 659 695 730 778 692 755 680 658 730 706 749 696 675 660 725 748 686 687 651 690 706 648 714 672 690 672 697 629 691 689 686 707 667 693 691 656 662 716 746 680 669 682 694 661 663 668 677 684 657 656 666 700 697 674 705 678 697 643 674 629 663 664 645 663 673 637 610 651 662 679 601 649 661 688 619 656 679 632 663 693 646 653 683 698 664 658 655 630 691 649 717 640 666 651 698 692 685 685 617 642 653 691 695 675 657 721 655 714 665 637 707 661 691 738 714 670 721 705 742 717 715 744 750 799 756 709 724 771 712 736 734 766 746 741 761 764 723 694 735 681 712 733 730 708 652 679 736 734 679 721 717 734 745 739 698 727 689 731 678 697 671 695 706 697 734 721 713 650 648 631 749 684 652 695 677 636 647 678 684 646 697 663 680 684 664 670 616 688 691 653 723 708 671 627 663 704 691 677 663 653 620 649 661 667 649 714 676 631 653 689 652 701 718 684 703 649 649 661 622 650 643 719 633 666 640 658 655 672 664 654 627 627 645 673 652 677 641 662 706 636 623 583 625 687 669 681 654 615 685 660 672 692 683 716 668 643 650 692 651 692 686 640 615 663 653 712 662 642 654 626 709 758 678 618 682 676 683 608 655 630 649 690 654 631 679 667 667 714 657 636 667 664 665 635 664 690 618 701 681 643 599 647 657 618 630 664 651 647 655 713 652 662 646 607 661 663 658 648 647 602 699 651 620 653 633 687 674 640 654 662 692 679 690 678 689 687 651 653 674 702 673 638 664 673 670 675 657 648 657 662 660 699 665 673 668 671 644 672 685 668 704 685 721 676 700 686 702 654 713 715 696 739 727 722 752 700 666 735 667 693 666 768 743 730 708 745 763 753 787 771 766 810 796 866 900 888 920 899 1008 1006 1040 1036 1065 1144 1173 1180 1214 1177 1261 1223 1251 1241 1173 1228 1094 1163 1109 1117 1067 1036 1034 1015 1005 1004 980 1003 1022 1058 985 998 1042 1028 1014 966 1032 977 942 1013 986 964 980 973 1022 954 974 930 860 880 856 846 855 818 788 833 775 811 771 800 785 764 775 752 749 706 779 812 770 844 778 756 743 787 785 812 709 746 777 757 716 788 778 766 781 734 777 729 772 711 696 760 680 765 719 798 714 800 753 718 742 728 751 757 698 707 716 726 718 717 740 713 681 701 727 720 726 674 755 704 678 692 716 702 740 676 728 649 684 710 741 673 661 690 676 647 702 678 689 660 731 680 657 634 661 684 696 697 709 728 723 646 688 658 695 673 622 688 721 676 686 671 697 698 710 712 677 674 657 662 726 696 722 690 705 662 708 731 734 721 682 630 670 727 664 678 732 693 689 683 702 685 685 705 697 700 687 708 625 713 723 690 681 679 643 662 668 661 757 685 730 651 638 690 688 679 635 678 655 660 681 675 663 683 663 643 665 660 644 666 666 690 658 662 660 718 628 643 654 658 672 657 656 674 639 665 659 695 719 680 687 682 633 676 652 664 672 664 654 658 681 630 696 654 678 628 685 680 692 659 682 661 621 636 672 636 691 618 601 661 750 621 648 662 692 670 671 664 681 662 628 636 639 687 658 694 680 671 667 632 660 669 668 731 694 665 687 630 681 675 658 610 612 604 686 661 622 660 665 647 627 676 683 634 604 675 663 629 670 629 682 649 665 662 646 674 608 642 604 640 644 657 611 668 678 737 703 658 637 630 675 620 658 625 634 661 660 698 632 617 595 645 691 632 684 667 657 707 677 645 711 636 631 671 623 658 675 636 629 648 666 676 619 655 622 653 650 654 597 681 657 624 652 593 669 631 643 629 642 691 608 614 645 658 684 678 608 612 677 703 655 606 655 661 652 675 621 619 665 591 670 647 658 660 632 668 651 658 667 655 618 646 650 640 622 642 638 643 672 605 619 649 661 680 647 643 647 660 634 680 694 654 631 663 632 640 648 668 689 588 633 646 596 664 666 657 620 677 678 646 676 695 680 646 620 624 682 685 635 633 688 635 665 660 659 624 668 619 619 624 662 652 661 670 687 665 638 656 655 664 612 576 641 633 638 694 641 695 639 686 703 683 665 710 656 676 700 670 688 615 686 642 711 625 669 692 634 602 639 626 622 642 664 651 650 618 614 683 683 633 634 612 665 635 598 619 648 671 667 652 641 647 658 634 662 670 613 666 652 657 652 586 608 637 652 622 690 642 656 643 598 641 626 618 657 616 669 624 664 669 643 648 630 674 626 647 632 672 603 614 648 616 674 708 613 648 666 618 697 672 674 686 683 689 680 616 678 659 621 667 659 665 699 688 667 645 698 661 662 706 717 658 671 706 709 735 712 717 686 774 743 782 733 723 784 805 795 776 761 779 757 794 764 791 746 779 739 700 736 683 755 739 700 722 743 677 749 740 753 677 716 746 746 722 712 709 728 735 732 707 708 700 724 699 768 758 731 737 716 740 754 733 685 723 727 718 757 729 742 737 719 747 729 765 782 756 752 779 757 786 733 739 730 710 731 746 735 792 727 729 804 800 734 706 761 648 739 719 684 697 754 711 755 747 692 731 751 744 727 714 737 731 696 728 702</counts>
			</dataPoints>
		</scan>
	</xrdMeasurement>
</xrdMeasurements>
