<?xml version="1.0"?>
<xrdMeasurements xmlns="http://www.xrdml.com/XRDMeasurement/2.3" xmlns:xsi="http://www.w3.org/2001/XMLSchema-instance" xsi:schemaLocation="http://www.xrdml.com/XRDMeasurement/2.3 http://www.xrdml.com/XRDMeasurement/2.3/XRDMeasurement.xsd" status="Completed" recordIdentifier="{4C584DA6-5598-4D4E-BD5C-D830D4AC0F81}">
	<comment>
		<entry/>
	</comment>
	<sample type="To be analyzed">
		<id>GPSS_Li1p6Zn0p8Zr0p2Cl4_100825_68e6fdc007cf888582f941af</id>
		<name></name>
		<preparedBy></preparedBy>
	</sample>
	<xrdMeasurement measurementType="Scan" status="Completed" sampleMode="Reflection">
		<usedWavelength intended="K-Alpha 1">
			<kAlpha1 unit="Angstrom">1.5405980</kAlpha1>
			<kAlpha2 unit="Angstrom">1.5444260</kAlpha2>
			<kBeta unit="Angstrom">1.3922500</kBeta>
			<ratioKAlpha2KAlpha1>0.5000</ratioKAlpha2KAlpha1>
		</usedWavelength>
		<incidentBeamPath>
			<radius unit="mm">145.00</radius>
			<xRayTube id="1010048" name="Empyrean Cu LFF HR (9430 033 7310x)">
				<tension unit="kV">40.0</tension>
				<current unit="mA">15.0</current>
				<anodeMaterial>Cu</anodeMaterial>
				<focus type="Line">
					<length unit="mm">12.0</length>
					<width unit="mm">0.4</width>
					<takeOffAngle unit="deg">6.0</takeOffAngle>
				</focus>
			</xRayTube>
			<sollerSlit id="21010002" name="Soller slits 0.04 rad.">
				<opening unit="rad">0.0400</opening>
			</sollerSlit>
			<mask id="22031000" name="Fixed mask 13 mm">
				<width unit="mm">9.00</width>
			</mask>
			<divergenceSlit id="22120001" name="Divergence slit 1°" xsi:type="fixedDivergenceSlitType">
				<distanceToSample unit="mm">50.00</distanceToSample>
				<height unit="mm">1.52</height>
			</divergenceSlit>
		</incidentBeamPath>
		<sampleMovement xsi:type="spinningSampleMovementType">
			<spinnerRevolutionTime unit="seconds">1.0</spinnerRevolutionTime>
		</sampleMovement>
		<diffractedBeamPath>
			<radius unit="mm">145.00</radius>
			<antiScatterSlit id="22090040" name="AS slit 9 mm (PIXcel)" xsi:type="fixedAntiScatterSlitType">
				<height unit="mm">9.00</height>
			</antiScatterSlit>
			<sollerSlit id="21020003" name="Large Soller slits 0.04 rad.">
				<opening unit="rad">0.0400</opening>
			</sollerSlit>
			<filter id="20030001" name="Large beta-filter Nickel">
				<material>Ni</material>
				<thickness unit="mm">0.020</thickness>
			</filter>
			<detector id="7010019" name="PIXcel1D-Medipix3 detector" xsi:type="rtmsDetectorType">
				<phd unit="keV">
					<lowerLevel>4.02</lowerLevel>
					<upperLevel>11.27</upperLevel>
				</phd>
				<mode>Scanning</mode>
				<activeLength unit="deg">5.542</activeLength>
			</detector>
		</diffractedBeamPath>
		<scan appendNumber="0" mode="Continuous" scanAxis="Gonio" status="Completed">
			<header>
				<startTimeStamp>2025-10-17T13:13:18-07:00</startTimeStamp>
				<endTimeStamp>2025-10-17T13:21:25-07:00</endTimeStamp>
				<author>
					<name>AutomatedUser</name>
				</author>
				<source>
					<applicationSoftware version="1.7b (136)">PANalytical Aeris Instrument Suite</applicationSoftware>
					<instrumentControlSoftware version="3.2.00000000 20240306">AERIS</instrumentControlSoftware>
					<instrumentID>950485</instrumentID>
				</source>
			</header>
			<dataPoints>
				<positions axis="2Theta" unit="deg">
					<startPosition>10.00943322</startPosition>
					<endPosition>99.99442286</endPosition>
				</positions>
				<positions axis="Omega" unit="deg">
					<startPosition>5.00471661</startPosition>
					<endPosition>49.99721143</endPosition>
				</positions>
				<commonCountingTime unit="seconds">12.495</commonCountingTime>
				<counts unit="counts">2740 2718 2859 2811 2734 2843 2745 2788 2756 2671 2863 2662 2805 2690 2732 2865 2856 2781 2733 2800 2720 2821 2814 2772 2777 2709 2809 2752 2873 2806 2746 2814 2733 2831 2862 2682 2846 2762 2824 2589 2765 2750 2891 2807 2802 2886 2797 2770 2846 2831 2838 2858 2735 2857 2904 2822 2819 2849 2778 2911 2793 2718 2933 2749 2891 2900 2815 2853 2874 2850 2872 2842 2914 2782 2950 2763 2884 2943 2818 2837 2867 2840 2919 2839 2882 2822 2903 2770 2985 2853 2835 2936 2983 2854 2888 2829 2859 2863 2941 2952 2970 3070 2827 2898 2888 2894 2976 2909 2992 2917 2966 2842 2936 3029 2981 3013 3064 2932 3062 2984 2871 3115 2934 2980 2962 2981 3024 2973 2954 2830 2991 2940 2931 3031 2975 2899 3012 2906 3064 2929 2894 2927 2947 2927 2985 2875 3064 2930 2917 2967 3029 3003 2907 2917 2942 2989 2978 2896 2945 2914 2945 3017 2877 2899 2977 2909 2981 2984 2981 2872 2946 2960 2869 2927 2948 2964 2944 2849 2823 3006 2938 2944 2946 2981 2912 3046 2922 3010 2903 2847 2926 2918 2845 2909 2923 2835 2926 2953 2921 2898 2783 2910 2762 2875 2911 2830 2997 2921 2792 2844 2834 2873 2924 2914 2841 2903 2903 2862 2807 2908 2813 2801 2821 2771 2987 2804 2800 2789 2818 2818 2839 2876 2856 2805 2750 2765 2930 2797 2857 2868 2764 2877 2875 2848 2907 2773 2922 2789 2844 2893 2880 2842 2788 2830 2824 2828 2839 2858 2823 2914 2883 2904 2888 2915 2825 2843 2828 2904 2826 2780 2815 2710 2758 2844 2909 2910 2852 2843 2814 2934 2872 2801 2920 2903 2853 2841 2854 2866 2859 2823 2848 2827 2942 2826 2960 2847 2733 2852 2931 2878 2808 2839 2934 2761 2852 2921 2710 2847 2871 2880 2878 2891 2924 2936 2904 2944 2985 2994 2903 3016 3002 3001 2938 2936 2936 3063 3059 2964 3010 3030 3041 2967 3049 3016 3034 3043 3123 3097 3048 3171 3218 3250 3015 3205 3150 3209 3086 3124 3071 3169 3136 3145 3131 3155 3079 3141 3099 3161 2953 3135 3249 3111 3280 3218 3275 3251 3139 3294 3225 3210 3252 3219 3155 3280 3284 3246 3316 3329 3250 3375 3238 3398 3226 3324 3327 3266 3365 3400 3302 3237 3291 3252 3316 3294 3189 3306 3263 3331 3265 3252 3355 3209 3321 3332 3243 3382 3290 3248 3326 3217 3300 3201 3315 3214 3299 3320 3356 3179 3213 3299 3295 3241 3336 3413 3367 3249 3405 3365 3239 3263 3344 3180 3319 3280 3374 3479 3311 3243 3312 3358 3373 3323 3357 3237 3306 3377 3356 3308 3353 3305 3338 3350 3261 3207 3228 3180 3226 3245 3246 3303 3194 3238 3292 3281 3270 3230 3141 3177 3107 3211 3268 3224 3182 3187 3096 3230 3193 3240 3146 3200 3126 3263 3288 3121 3168 3246 3148 3150 3189 3119 3013 3099 3023 3173 3088 3060 3138 3085 3117 3036 3124 3167 3061 2960 3131 3052 2941 3034 2968 3076 2922 3030 3009 3060 3017 3061 2995 2938 2991 3062 2928 2991 3044 3053 3033 3088 2853 2941 3004 2900 2996 2959 2963 2949 2965 2933 2977 3046 2883 2920 2947 2969 3011 3043 2970 3077 3032 3067 3014 3092 3080 3037 3041 3087 3057 3158 3101 3042 3109 3166 3168 3304 3237 3130 3335 3337 3323 3215 3301 3304 3248 3230 3185 3142 3121 3028 3040 2986 3014 2978 2872 3005 3031 2990 2958 2918 2896 2880 2919 2898 2857 2701 2829 2846 2801 2813 2841 2748 2808 2792 2672 2818 2741 2732 2609 2628 2765 2759 2757 2691 2763 2674 2787 2755 2806 2758 2700 2662 2584 2732 2712 2627 2679 2759 2615 2797 2702 2661 2684 2744 2664 2677 2664 2622 2700 2676 2750 2671 2757 2700 2730 2597 2740 2692 2743 2838 2803 2764 2782 2802 2805 2713 2839 2903 2928 2846 2923 2860 2870 2874 2828 2908 2829 2862 2815 2865 2779 2692 2738 2796 2732 2748 2707 2624 2712 2728 2631 2710 2639 2619 2747 2715 2765 2764 2585 2638 2672 2616 2656 2555 2658 2638 2601 2695 2629 2524 2528 2563 2631 2636 2677 2609 2676 2559 2592 2628 2555 2654 2532 2623 2638 2608 2686 2719 2677 2499 2734 2514 2598 2633 2660 2646 2749 2616 2675 2661 2571 2625 2702 2625 2652 2663 2641 2652 2590 2623 2658 2569 2633 2707 2691 2725 2676 2683 2823 2783 2775 2848 2852 2852 2956 3045 3020 3012 3172 3085 2996 3073 3021 3038 3042 3093 3030 2993 2985 2936 2903 2981 2970 2919 2965 2889 2925 2935 2970 2951 2888 2942 2984 3035 2979 2921 2935 2878 2969 2941 2916 3042 3010 2898 2839 2992 2997 3011 2901 2989 2986 2911 2958 2890 2887 2846 2868 2813 2779 2830 2720 2688 2691 2628 2676 2735 2756 2610 2541 2655 2578 2613 2568 2698 2604 2563 2584 2495 2434 2541 2509 2475 2633 2535 2552 2444 2550 2537 2545 2507 2509 2372 2533 2555 2376 2513 2399 2486 2471 2498 2506 2474 2451 2424 2410 2441 2459 2489 2332 2393 2466 2381 2417 2314 2386 2358 2432 2386 2459 2408 2415 2415 2293 2416 2397 2362 2440 2349 2271 2305 2290 2342 2350 2416 2335 2381 2313 2338 2316 2345 2408 2361 2285 2326 2446 2374 2378 2378 2280 2345 2263 2368 2404 2329 2320 2289 2282 2329 2348 2408 2359 2389 2514 2385 2395 2404 2365 2450 2409 2472 2478 2476 2509 2554 2446 2452 2585 2424 2460 2456 2413 2379 2438 2391 2372 2407 2381 2369 2439 2463 2442 2401 2386 2407 2357 2382 2383 2382 2404 2375 2400 2341 2336 2319 2335 2364 2313 2358 2350 2247 2285 2303 2331 2350 2289 2271 2254 2322 2308 2331 2364 2240 2281 2208 2307 2237 2200 2201 2178 2229 2230 2310 2249 2178 2259 2180 2225 2249 2271 2239 2219 2206 2251 2219 2175 2251 2300 2323 2258 2242 2302 2294 2265 2203 2207 2232 2237 2234 2202 2252 2145 2329 2284 2316 2276 2271 2206 2145 2242 2167 2165 2201 2183 2211 2245 2297 2219 2215 2197 2244 2249 2272 2204 2329 2229 2254 2226 2297 2223 2279 2211 2317 2311 2273 2224 2186 2301 2228 2283 2266 2332 2362 2174 2257 2211 2298 2236 2310 2293 2325 2251 2232 2194 2272 2310 2214 2340 2278 2243 2227 2300 2210 2229 2294 2221 2365 2227 2300 2215 2195 2316 2270 2255 2299 2297 2262 2369 2237 2304 2276 2221 2213 2258 2274 2302 2239 2356 2387 2363 2422 2441 2438 2435 2439 2475 2554 2416 2502 2547 2453 2546 2508 2484 2453 2318 2420 2347 2375 2314 2342 2351 2228 2312 2292 2185 2257 2268 2300 2180 2173 2185 2224 2359 2287 2291 2252 2191 2159 2233 2138 2260 2255 2176 2149 2181 2148 2199 2195 2209 2138 2126 2153 2228 2119 2096 2030 2151 2082 2173 2096 2209 2155 2072 2137 1985 2194 2093 1997 2143 2166 2214 2188 2161 2095 2220 2130 2288 2186 2226 2211 2200 2213 2204 2228 2196 2171 2161 2181 2160 2210 2063 2006 2102 2098 2067 2012 2047 2021 2044 2121 2159 2023 2031 2052 2089 2031 2028 1988 2028 1996 2041 1953 2068 2020 1966 1922 1905 2015 2011 1976 1987 2018 1975 2021 2022 2060 2007 2092 2065 2074 2100 1964 2035 2088 2031 1960 1978 1999 1903 1887 1903 1785 1933 1856 1799 1789 1787 1728 1793 1754 1748 1775 1744 1778 1796 1744 1703 1864 1824 1748 1822 1760 1768 1779 1814 1784 1741 1801 1763 1696 1771 1695 1699 1751 1763 1783 1746 1778 1771 1828 1768 1811 1792 1800 1823 1763 1799 1782 1755 1868 1724 1777 1845 1785 1719 1704 1802 1725 1675 1724 1636 1672 1819 1661 1651 1599 1649 1617 1663 1586 1706 1690 1680 1660 1744 1742 1584 1723 1623 1630 1690 1680 1570 1681 1599 1580 1625 1577 1608 1629 1597 1634 1601 1543 1563 1629 1587 1562 1523 1579 1475 1578 1574 1612 1553 1484 1590 1609 1565 1555 1552 1620 1618 1627 1573 1550 1555 1601 1524 1472 1537 1539 1546 1607 1541 1499 1503 1638 1503 1501 1500 1577 1578 1442 1587 1502 1537 1480 1470 1505 1529 1498 1511 1577 1471 1569 1584 1518 1536 1617 1529 1525 1554 1498 1530 1502 1556 1601 1545 1536 1637 1517 1550 1577 1607 1547 1527 1630 1589 1538 1612 1530 1490 1479 1576 1609 1545 1556 1640 1583 1582 1634 1545 1469 1552 1482 1562 1544 1527 1520 1601 1622 1599 1551 1491 1528 1595 1526 1550 1572 1604 1614 1612 1531 1533 1521 1553 1555 1537 1520 1561 1543 1601 1532 1572 1593 1558 1558 1527 1535 1492 1555 1441 1630 1547 1534 1545 1607 1564 1566 1518 1515 1513 1514 1510 1558 1620 1566 1500 1537 1512 1543 1580 1591 1472 1557 1542 1579 1530 1572 1488 1492 1569 1564 1524 1544 1512 1531 1527 1552 1544 1501 1514 1544 1554 1498 1514 1553 1419 1461 1521 1503 1568 1497 1507 1450 1455 1426 1578 1541 1531 1544 1551 1522 1529 1447 1527 1421 1463 1524 1460 1506 1491 1574 1576 1590 1556 1552 1557 1574 1508 1537 1458 1490 1558 1521 1458 1440 1497 1530 1489 1510 1591 1527 1629 1603 1544 1566 1545 1483 1510 1513 1533 1511 1514 1603 1546 1500 1522 1545 1594 1501 1604 1517 1577 1512 1530 1551 1469 1431 1495 1511 1512 1524 1532 1343 1526 1425 1438 1467 1414 1418 1475 1395 1369 1415 1396 1453 1426 1358 1324 1358 1257 1363 1338 1346 1295 1273 1437 1299 1297 1414 1312 1343 1325 1417 1433 1436 1371 1519 1423 1532 1512 1485 1492 1519 1654 1587 1642 1782 1672 1734 1677 1797 1745 1873 1875 1977 1948 1714 1878 1795 1817 1796 1768 1637 1671 1657 1649 1529 1480 1537 1552 1522 1520 1521 1464 1463 1573 1561 1519 1600 1556 1544 1597 1587 1667 1674 1628 1774 1703 1684 1638 1664 1680 1659 1681 1653 1584 1606 1539 1474 1483 1489 1391 1365 1313 1316 1331 1415 1287 1232 1203 1272 1226 1236 1192 1169 1189 1263 1234 1250 1259 1185 1259 1247 1249 1303 1400 1291 1393 1396 1324 1480 1520 1544 1454 1580 1574 1434 1433 1462 1423 1472 1406 1330 1400 1343 1297 1223 1256 1238 1181 1194 1239 1252 1249 1197 1265 1306 1272 1254 1376 1258 1283 1379 1296 1276 1372 1307 1326 1327 1263 1355 1335 1370 1409 1360 1435 1466 1440 1349 1410 1358 1283 1294 1290 1291 1288 1251 1287 1276 1242 1231 1210 1235 1207 1203 1127 1182 1187 1146 1129 1192 1104 1186 1217 1153 1135 1215 1109 1167 1125 1099 1133 1039 1064 1069 1057 1054 1022 1082 1065 1078 1020 974 1033 1026 988 1038 1039 1023 985 1051 1102 973 1056 979 1074 1122 1150 1098 1069 1108 1193 1146 1205 1254 1248 1277 1348 1388 1485 1525 1576 1624 1701 1845 1866 1986 1886 2079 2036 1933 1891 1884 1762 1787 1717 1683 1567 1503 1457 1384 1302 1392 1257 1239 1239 1197 1218 1227 1218 1175 1217 1257 1201 1199 1198 1233 1245 1201 1200 1186 1251 1263 1213 1221 1266 1253 1273 1346 1298 1192 1252 1228 1210 1192 1162 1237 1141 1198 1177 1174 1103 1211 1091 1111 1054 1037 1103 1026 1067 1058 1079 1024 1038 990 971 1016 1049 996 985 943 933 976 903 919 969 981 906 928 886 953 918 878 892 933 851 899 940 870 895 931 881 839 925 918 880 915 987 976 924 999 1034 1075 1087 1172 1159 1264 1209 1245 1251 1213 1243 1239 1205 1298 1161 1219 1293 1222 1194 1220 1248 1260 1317 1416 1386 1488 1489 1431 1566 1552 1610 1617 1685 1617 1678 1571 1645 1643 1571 1491 1459 1510 1423 1406 1366 1259 1348 1268 1304 1197 1230 1193 1199 1116 1145 1111 1111 1100 1064 1125 1082 1107 1022 1011 1076 1132 1030 1037 985 994 962 977 973 918 901 908 897 912 837 857 891 817 868 842 835 800 823 788 783 776 778 761 737 784 766 835 749 796 824 748 719 778 799 771 836 806 877 884 865 897 872 971 973 1019 967 1066 1037 1095 1014 1020 997 1026 956 994 926 915 963 902 838 863 870 782 804 839 804 795 816 818 788 793 781 797 839 802 794 818 883 867 898 913 904 967 905 933 945 938 921 887 890 891 841 764 817 847 790 745 709 753 729 721 685 708 767 737 747 744 781 704 782 784 780 780 788 838 768 821 810 859 842 908 895 887 882 868 799 855 863 908 835 875 802 819 744 792 748 748 749 693 750 702 660 630 694 725 708 723 688 644 666 664 676 670 658 687 672 700 711 680 700 697 679 687 683 709 702 729 740 686 677 691 673 668 661 659 663 648 696 653 647 676 662 641 680 615 634 616 706 626 645 658 662 624 647 638 593 628 655 634 642 659 700 632 624 667 673 668 668 613 654 666 676 662 712 739 728 727 777 752 732 765 737 740 719 767 734 751 720 763 761 762 776 738 669 650 763 729 761 739 725 762 808 749 750 695 780 731 767 704 813 778 819 773 837 796 774 739 883 923 850 907 927 928 1032 1039 1105 963 1000 1013 958 1025 996 984 960 927 936 879 836 925 876 908 838 793 809 787 773 784 748 765 732 791 726 779 732 716 747 698 770 718 688 717 664 687 714 686 716 678 693 662 709 635 675 658 677 663 607 636 602 616 683 645 675 702 667 628 646 612 602 597 599 627 639 569 650 621 604 576 640 663 623 637 595 585 567 596 590 634 594 580 584 636 604 613 616 635 605 627 603 630 636 648 648 683 667 655 660 674 681 617 632 710 640 668 656 658 682 673 641 668 695 656 694 658 697 667 716 676 706 684 765 674 723 705 682 655 645 653 636 618 612 616 623 588 614 638 613 614 586 565 597 599 638 580 632 617 577 567 595 574 604 604 602 577 559 585 560 596 574 618 558 573 590 594 576 612 552 532 559 576 569 576 616 588 578 573 549 615 534 548 583 507 557 577 584 551 603 586 578 609 591 560 589 630 636 652 634 674 644 685 611 615 637 679 579 648 614 650 624 585 571 578 604 604 529 583 576 529 581 599 531 561 563 582 579 586 530 593 610 556 648 593 597 645 568 553 540 546 596 537 610 608 582 566 563 571 588 569 569 597 570 625 582 569 560 573 551 592 594 570 598 595 548 525 568 531 536 571 582 551 556 590 557 574 567 564 569 578 548 592 517 570 543 579 553 537 568 578 586 584 556 559 595 573 604 568 620 599 619 551 621 625 627 600 643 572 624 594 567 573 580 586 581 547 584 546 559 549 550 570 539 567 539 552 537 583 484 519 543 554 571 569 556 572 571 595 574 617 586 594 616 578 584 610 573 554 546 558 561 578 518 560 544 507 608 551 547 572 579 567 532 527 557 539 572 559 517 574 544 564 583 533 526 540 561 560 528 545 506 508 527 562 513 535 533 534 536 551 617 542 534 530 578 587 562 537 571 617 589 560 583 588 583 586 539 517 533 547 540 542 539 499 530 535 504 504 516 494 505 534 517 470 444 516 493 522 471 523 480 467 516 503 516 444 436 503 465 516 465 504 487 468 489 463 489 449 503 462 504 461 462 471 514 476 474 460 539 514 450 468 486 484 523 499 497 469 493 483 466 493 525 504 518 511 481 525 526 561 555 540 569 581 596 568 662 596 628 610 582 594 613 559 515 576 525 521 533 569 494 527 510 518 516 527 537 537 470 456 485 471 514 474 514 463 515 511 480 484 501 486 479 510 485 487 496 500 508 479 517 518 530 504 560 559 580 584 544 534 569 529 547 592 597 636 612 577 603 586 637 580 559 572 579 562 573 515 573 544 571 500 516 551 528 554 499 527 489 535 480 493 489 498 447 494 485 474 446 453 469 509 474 478 513 479 478 476 466 476 505 530 466 446 472 498 481 486 498 522 486 493 517 499 514 439 474 473 488 442 443 473 466 456 474 459 480 436 465 440 475 467 474 433 484 464 440 488 447 462 448 464 481 491 488 423 473 460 420 461 502 454 497 491 462 449 490 422 487 488 532 520 494 467 493 508 512 490 486 476 467 523 497 498 461 496 482 474 462 443 446 449 453 486 467 457 489 461 487 496 491 479 480 514 525 525 475 523 475 537 512 522 510 492 533 479 491 483 512 492 499 501 446 514 446 482 497 480 485 465 495 464 476 540 478 459 496 524 566 510 550 498 521 509 510 518 482 560 491 550 533 519 527 522 472 484 476 458 492 497 484 486 461 498 447 467 442 508 451 462 481 493 411 465 478 446 441 481 440 448 453 455 468 458 503 516 485 417 446 456 427 439 486 433 449 395 426 457 444 431 419 426 433 405 438 426 409 450 477 414 447 451 434 458 458 411 443 456 445 442 462 394 451 441 424 467 447 447 459 436 423 422 452 438 477 465 448 431 481 500 474 508 554 513 529 550 506 512 510 512 522 515 495 491 477 462 447 527 481 478 473 458 491 467 465 432 501 440 461 462 446 437 455 472 470 421 426 483 473 456 428 443 438 425 429 427 456 426 427 475 450 477 453 431 476 423 435 422 434 434 431 437 453 385 445 435 424 430 388 454 436 450 426 450 453 407 408 463 411 464 365 447 427 412 420 419 477 402 397 428 443 427 410 443 456 475 470 510 498 542 498 506 534 560 518 503 512 496 490 524 524 493 498 477 485 472 437 468 447 451 444 484 427 476 444 410 441 473 456 416 433 454 442 431 437 422 405 417 434 407 425 395 412 398 414 425 393 406 377 403 403 411 452 428 426 415 432 424 441 402 455 465 457 442 426 447 439 384 444 453 426 425 428 450 438 459 465 419 414 435 427 458 486 448 437 450 446 471 476 464 476 437 491 424 470 497 467 477 453 512 498 508 465 428 527 463 500 434 523 439 444 462 449 449 479 435 461 454 484 446 436 441 479 492 436 457 482 441 502 410 450 434 455 462 441 426 465 404 419 478 432 449 458 449 441 458 432 389 414 474 435 477 480 459 485 477 463 430 448 472 471 439 436 448 446 410 450 431 418 464 455 454 441 440 403 451 449 469 443 469 448 471 437 493 450 458 460 461 430 416 412 437 396 402 459 397 430 455 448 427 395 408 384 410 391 429 387 424 383 434 411 413 397 402 442 436 454 425 422 371 414 431 452 428 422 410 415 405 422 383 443 410 409 397 413 406 439 439 447 382 404 398 416 381 407 421 413 387 371 400 383 402 403 405 415 396 441 416 399 383 425 400 375 382 383 401 423 414 417 383 449 428 405 468 437 437 463 439 470 490 461 492 521 516 571 524 520 523 517 504 467 510 521 557 462 503 459 482 475 464 471 474 470 461 415 423 428 456 461 434 455 405 440 475 429 440 483 459 465 468 494 516 525 501 427 461 499 477 515 544 513 535 531 562 547 538 512 525 518 524 485 477 505 513 476 512 516 499 511 483 506 486 488 451 506 468 452 463 491 440 480 447 421 472 481 457 472 415 467 477 447 455 424 432 437 417 393 429 436 452 485 409 467 454 471 490 526 498 473 476 518 513 500 523 511 521 529 568 566 595 588 575 611 653 660 653 701 718 742 817 698 792 740 832 822 840 907 773 783 702 738 633 637 660 631 694 623 665 630 621 579 542 499 535 516 500 514 451 511 475 478 446 447 453 428 442 483 447 444 444 449 430 424 454 411 442 431 453 393 441 441 461 439 487 472 475 517 491 477 483 467 456 500 500 537 529 504 522 510 552 572 573 561 567 585 577 586 608 595 600 633 608 700 662 597 604 580 611 582 564 555 543 530 557 524 523 491 549 532 465 522 488 476 423 433 469 428 457 437 469 416 449 435 420 421 441 412 432 420 451 421 405 450 430 446 437 398 388 444 425 419 436 405 418 438 413 458 438 410 385 451 447 449 455 431 403 411 423 386 452 395 402 405 351 424 399 396 415 381 354 415 394 398 396 383 378 391 374 358 414 382 405 374 411 390 388 412 393 413 441 398 356 397 395 375 437 460 476 459 425 419 402 413 400 392 418 410 422 407 419 395 417 392 414 418 358 379 400 366 394 379 336 364 366 399 429 362 353 323 380 394 390 349 392 363 388 364 382 357 330 364 378 391 400 365 353 378 361 373 345 367 364 358 329 372 366 372 378 346 366 374 388 370 347 362 360 359 363 395 364 374 357 385 348 353 379 358 369 388 415 358 333 424 406 410 401 411 386 399 351 414 379 437 412 386 447 444 435 430 459 450 430 380 394 402 417 383 405 394 405 439 461 445 445 416 432 402 495 491 471 493 507 513 488 495 516 485 474 458 483 474 504 488 473 477 464 478 425 442 437 423 460 432 442 474 407 396 426 405 424 397 438 418 419 457 405 406 455 447 469 480 473 503 540 482 566 516 546 586 650 643 753 679 752 698 766 761 797 730 762 706 690 719 667 651 642 591 628 605 584 599 603 605 529 491 528 485 497 480 451 442 442 418 431 400 434 369 421 412 400 393 368 379 356 392 365 355 363 340 376 373 375 360 339 397 369 375 364 346 348 343 348 331 383 352 376 351 323 313 381 352 342 354 322 368 287 307 320 341 324 307 347 335 353 298 352 311 336 349 281 339 317 329 310 323 333 325 331 343 348 336 333 314 308 327 364 302 344 327 366 329 326 317 342 349 353 321 312 310 301 332 310 328 324 336 331 373 349 335 320 346 346 327 294 350 334 330 330 320 352 345 328 358 344 331 339 347 379 350 342 371 339 350 363 340 358 364 361 344 384 352 357 357 365 347 331 347 388 371 340 365 355 360 360 353 330 380 349 376 354 353 360 356 330 340 364 380 348 361 357 374 385 331 359 375 367 326 344 333 371 353 325 337 346 262 325 365 333 333 361 352 353 319 314 315 330 363 359 312 353 348 357 323 342 329 358 341 322 365 352 330 337 335 349 380 347 350 363 362 388 342 330 373 327 318 315 338 331 343 377 327 333 302 327 313 306 311 289 320 311 310 337 340 310 302 333 288 329 304 302 330 321 339 342 355 328 345 339 304 350 338 343 341 346 341 296 343 318 316 336 314 332 366 355 351 337 417 373 411 363 444 386 348 342 346 326 340 331 357 360 353 337 321 336 338 316 340 331 345 343 337 305 334 331 307 339 300 332 324 278 293 286 306 309 307 303 284 327 311 318 321 305 290 296 319 287 294 304 314 287 320 341 289 310 279 311 296 306 350 326 309 294 308 312 307 285 347 297 313 304 338 302 332 284 291 313 277 274 298 298 310 309 321 321 329 314 320 296 318 328 305 324 318 337 330 329 325 355 354 350 349 311 370 378 340 331 337 326 342 336 347 336 341 355 334 336 370 303 321 324 308 298 377 310 347 330 341 325 342 326 303 335 359 333 334 320 317 354 306 312 345 310 323 330 306 332 318 307 320 334 339 335 332 338 338 345 336 350 322 313 345 342 299 360 330 369 387 370 396 378 372 356 386 371 371 309 335 325 341 383 335 342 328 328 340 329 370 349 328 316 344 310 330 331 367 345 370 352 331 323 342 316 322 318 296 303 294 311 349 311 327 296 312 315 351 311 346 282 316 348 339 343 311 337 333 323 365 300 301 297 308 331 349 307 329 303 318 322 318 312 300 287 307 330 349 363 309 323 362 326 340 304 326 337 327 316 344 351 334 366 360 370 327 339 324 340 327 328 332 348 344 359 340 365 311 352 344 375 369 341 375 377 394 365 420 364 396 384 402 378 375 401 392 422 393 356 348 400 361 370 369 379 369 352 382 351 375 364 326 358 346 362 320 327 351 320 333 328 306 303 350 324 302 322 341 340 306 335 321 319 317 332 349 328 310 301 312 327 297 336 320 344 338 322 289 290 315 341 332 320 343 296 356 338 309 350 334 334 304 319 319 312 324 307 310 321 305 295 324 298 294 301 312 305 330 297 286 246 263 275 268 309 282 283 302 304 248 266 264 298 278 304 269 298 263 299 321 310 292 307 288 296 292 285 285 296 262 329 285 295 257 297 279 299 287 285 287 269 281 304 268 305 235 226 271 257 262 282 274 291 236 272 284 273 284 297 270 291 284 270 268 282 266 298 277 285 270 292 276 297 296 306 322 301 288 288 304 266 274 235 261 248 317 278 311 281 247 283 287 271 281 265 272 268 256 240 280 227 272 266 267 234 275 249 269 236 237 272 269 279 246 249 266 243 265 274 244 275 258 259 276 257 229 243 276 258 257 280 234 279 271 269 263 248 291 275 295 240 266 268 276 280 290 285 303 247 277 231 246 240 279 266 279 246 288 275 244 273 261 283 282 307 283 274 331 318 304 309 299 317 291 330 310 330 368 328 348 360 337 333 334 338 321 305 325 281 314 288 299 330 316 331 310 317 345 329 291 316 294 297 303 310 264 285 282 268 271 284 295 274 280 296 275 295 278 272 322 289 264 280 294 239 245 243 275 277 302 234 267 264 268 262 241 240 273 263 272 261 245 268 273 247 259 271 248 259 239 232 279 220 244 222 257 263 256 268 206 257 265 256 245 218 263 245 266 240 258 268 243 239 280 248 270 285 247 263 259 282 277 282 273 240 270 236 281 258 265 269 247 273 272 260 302 314 282 271 275 287 282 273 236 266 280 265 245 280 278 272 283 268 268 304 316 306 243 277 233 289 300 273 263 268 246 308 219 296 272 248 257 264 286 232 241 239 266 231 279 282 289 257 259 250 274 261 261 236 245 278 271 260 257 246 250 298 275 293 304 274 297 273 240 313 268 277 273 269 280 281 263 284 325 282 275 260 276 301 275 296 282 286 291 266 269 281 296 278 264 247 280 296 262 236 277 244 266 256 242 241 257 259 265 295 266 259 264 226 276 221 264 243 281 221 262 248 232 230 257 224 272 268 245 235 242 245 237 232 237 246 245 235 249 248 219 239 237 274 246 272 260 267 260 264 265 276 264 256 244 276 280 216 259 243 260 271 260 236 281 267 259 207 228 236 240 238 250 258 247 229 228 233 232 217 281 225 272 256 233 274 256 265 235 243 258 235 234 257 230 216 233 216 242 259 233 238 259 239 239 262 250 275 234 262 279 259 267 262 263 263 234 244 256 267 235 259 242 236 285 290 242 273 262 270 219 275 238 267 230 238 257 272 226 273 229 235 195 265 273 240 241 235 219 248 216 205 218 246 256 239 206 207 221 246 216 249 209 234 221 240 235 234 234 243 257 223 220 235 227 247 198 256 225 221 248 251 270 219 209 276 224 222 232 211 234 244 263 197 232 231 261 216 245 235 237 231 228 236 212 230 212 219 235 230 244 211 241 245 244 214 238 236 233 233 248 214 240 231 206 241 231 236 218 220 194 202 232 235 205 223 242 244 211 263 216 247 219 222 248 228 246 236 230 204 236 227 236 247 245 218 213 262 243 257 184 239 231 249 224 219 219 238 241 258 211 261 205 237 222 220 231 219 224 224 247 229 241 231 247 201 258 245 266 227 236 227 241 219 203 238 242 226 238 268 218 244 241 243 263 196 248 220 231 233 249 236 214 267 216 281 214 233 209 240 244 218 213 206 237 210 225 241 231 249 230 199 223 218 235 229 217 217 237 270 221 225 247 204 229 244 238 228 210 240 229 250 217 210 230 211 230 237 231 212 242 214 268 218 206 210 265 240 233 220 222 220 261 207 222 228 239 251 237 232 249 244 248 216 226 234 248 234 235 240 208 212 241 193 257 229 220 225 234 209 236 226 234 235 201 240 218 247 221 217 217 205 211 221 211 228 224 217 237 241 239 237 241 257 258 272 226 260 233 241 221 240 210 243 211 263 220 210 222 231 226 223 200 240 229 224 222 194 215 227 261 212 228 231 216 222 228 224 193 242 219 205 224 218 215 229 263 243 264 261 248 239 233 234 248 269 246 279 249 278 237 241 237 249 244 241 256 235 241 237 257 233 280 243 246 260 225 265 230 258 271 234 237 259 234 257 262 238 259 246 267 249 245 243 246 222 260 249 242 250 230 223 210 240 220 268 217 221 208 223 228 250 206 246 225 263 209 226 219 216 229 226 230 217 257 238 231 203 214 230 211 234 244 221 226 226 227 244 231 220 270 213 263 256 256 224 251 225 239 259 228 257 229 236 233 238 230 229 256 265 229 277 235 235 232 223 238 203 232 260 264 209 260 221 227 235 256 233 219 248 205 226 219 193 207 262 234 235 241 223 222 194 221 210 234 216 221 219 239 214 238 189 226 221 203 211 219 233 232 199 231 199 230 206 210 238 229 189 221 216 224 244 236 207 212 202 228 234 217 228 223 223 230 221 215 212 218 206 213 220 238 211 196 232 229 214 221 214 194 233 208 217 208 214 218 206 235 215 218 232 242 225 214 210 245 214 219 217 187 231 211 206 207 240 243 199 248 225 229 230 209 239 206 250 234 240 213 247 230 224 220 223 208 235 209 225 231 228 235 217 210 257 222 208 178 220 226 199 230 223 232 242 240 242 211 229 228 218 233 223 229 229 218 275 228 238 230 233 242 261 215 229 221 203 223 235 225 239 242 241 223 219 215 215 229 209 236 242 260 244 266 217 235 205 216 263 224 196 231 203 219 222 263 240 233 236 215 214 214 237 243 268 221 267 246 244 244 226 235 250 248 242 244 258 259 212 272 239 217 256 261 221 264 222 240 242 269 263 259 233 220 224 272 262 249 238 262 217 248 231 246 200 240 260 261 234 256 210 231 259 267 261 264 242 234 234 239 225 203 216 221 229 237 229 240 221 243 235 238 240 243 221 202 209 242 222 270 208 227 267 267 240 237 230 233 235 246 260 245 246 215 299 229 265 235 245 232 223 226 220 183 229 242 221 235 281 235 240 243 278 226 235 235 239 203 224 225 205 229 267 221 260 247 244 209 234 243 242 236 224 225 220 233 249 237 227 243 245 249 216 244 259 248 213 265 259 259 225 268 233 229 257 212 241 229 221 247 223 270 240 213 240 235 240 248 228 274 225 269 225 267 227 265 245 236 264 290 234 224 243 244 243 277 226 259 251 245 288 237 297 264 276 271 308 278 273 269 288 257 277 250 281 257 273 281 261 283 239 264 268 308 263 256 243 220 261 262 221 244 237 227 207 228 234 223 230 213 229 235 235 235 223 215 245 213 220 208 229 197 230 226 242 221 219 200 218 204 213 225 220 248 223 216 223 244 213 265 234 232 224 217 221 206 237 226 249 232 241 249 211 237 224 196 224 228 235 232 233 240 228 218 222 245 204 199 224 209 238 238 229 191 204 234 229 247 218 214 216 222 223 238 264 259 213 266 262 221 230 235 233 233 238 232 220 239 222 247 196 242 230 256 210 222 237 230 264 259 235 221 263 229 222 229 214 218 242 208 225 199 214 228 218 243 198 225 210 230 235 247 234 219 191 204 227 211 229 184 217 196 194 240 219 246 238 212 224 240 216 245 235 249 237 239 248 225 201 221 209 220 219 209 207 242 211 181 256 264 234 230 235 209 194 225 215 222 241 206 241 226 218 240 211 222 219 234 231 236 230 214 244 213 212 231 188 227 241 224 249 209 244 214 241 215 220 219 217 201 245 216 224 232 218 259 234 227 233 240 246 221 234 231 240 231 220 219 217 217 220 215 232 230 233 200 234 249 209 227 240 246 228 246 211 212 239 256 222 236 251 238 236 223 234 206 260 242 223 225 247 232 284 187 223 240 248 242 235 256 226 220 222 240 260 215 260 234 263 213 242 220 247 259 258 229 263 221 279 232 217 209 233 232 236 247 215 262 258 224 218 206 219 261 241 257 265 247 243 256 256 281 257 269 282 250 198 258 258 225 236 267 228 227 231 256 239 213 256 226 256 213 222 263 264 264 249 262 271 248 248 232 277 249 270 277 241 229 231 233 249 268 284 267 220 263 275 233 237 241 271 238 250 224 247 259 267 257 219 258 231 243 236 237 259 232 231 265 229 243 236 228 239 203 245 262 223 271 225 257 260 210 227 234 221 235 230 211 236 246 227 242 220 276 233 277 241 256 248 240 239 226 210 229 238 232 282 239 246 227 244 266 258 256 222 225 258 244 238 226 237 225 211 264 231 246 243 233 262 228 247 221 239 258 222 231 259 229 236 261 242 217 241 242 260 244 237 272 266 243 282 266 257 226 260 259 230 283 256 282 294 240 244 243 246 261 247 270 269 270 265 272 257 258 225 223 265 264 272 251 275 267 275 249 262 246 266 237 264 266 239 259 244 251 248 234 250 238 245 269 277 261 236 236 249 235 248 248 248 212 277 271 248 268 264 283 267 235 239 257 261 259 280 249 282 263 271 258 242 235 259 232 243 283 248 297 229 242 261 264 247 264 246 263 240 280 221 282 239 260 249 286 263 235 244 257 235 221 261 256 244 258 236 270 245 273 271 267 256 279 268 261 240 240 229 282 259 226 242 231 241 242 264 249 241 230 247 262 247 237 235 245 258 236 216 218 235 214 260 215 246 222 222 270 231 230 221 227 239 223 257 235 246 230 226 232 226 230 215 233 230 256 237 242 282 243 239 214 237 232 220 232 241 223 234 256 238 236 265 273 236 269 243 256 240 238 266 230 257 264 234 243 237 257 241 237 242 239 278 226 284 258 220 228 258 236 238 244 234 248 262 246 258 270 280 265 229 223 242 214 221 299 264 245 261 221 221 222 261 284 226 236 269 227 235 267 265 232 263 277 275 267 288 272 273 261 262 279 271 267 267 232 236 247 238 238 257 259 267 218 282 264 230 233 271 233 262 280 267 229 258 262 216 257 221 227 227 247 246 245 269 306 233 233 278 221 276 242 277 260 285 283 269 284 263 273 270 241 272 275 303 308 287 290 295 270 288 270 276 294 261 277 305 257 238 275 285 284 285 242 249 275 268 248 233 269 236 268 263 242 287 250 275 260 250 256 245 301 251 261 223 241 269 228 265 259 235 218 248 267 221 214 246 282 231 245 225 225 232 218 211 243 242 235 235 263 222 265 232 283 232 246 240 236 223 240 241 227 261 242 265 223 216 234 222 238 277 264 231 233 221 223 217 248 225 204 231 203 214 229 209 227 244 212 232 236 191 208 210 217 206 229 230 238 211 220 201 193 183 206 213 259 211 218 239 228 210 222 209 238 215 208 196 213 202 212 230 207 216 201 201 208 228 227 189 230 232 227 221 233 226 226 231 239 223 212 187 239 219 235 223 206 217 220 205 203 200 198 216 178 233 183 198 215 230 204 216 218 249 226 242 223 226 233 219 211 220 200 204 209 210 215 197 240 201 205 200 222 223 185 260 244 222 217 227 238 235 235 235 220 214 228 197 236 274 240 240 243 222 215 230 237 209 212 214 211 226 208 210 233 245 224 209 205 213 216 203 208 208 249 214 220 214 201 203 207 193 236 233 204 210 220 239 234 222 205 230 207 247 205 194 206 224 203 200 206 211 209 224 229 225 176 194 199 190 204 195 223 210 217 219 230 222 237 228 222 191 229 203 242 214 242 222 187 192 193 230 208 206 186 199 213 209 217 218 223 238 217 209 208 211 211 207 201 200 229 212 195 225 200 222 216 213 223 226 189 193 211 210 183 196 189 199 214 220 227 179 227 202 212 199 231 212 230 213 227 208 212 216 199 216 210 169 231 180 220 229 204 199 187 215 230 229 200 201 205 197 219 211 217 195 228 204 214 202 209 220 216 206 218 214 204 208 215 237 227 213 249 191 222 216 220 223 221 207 226 204 209 222 213 206 220 214 220 213 192 199 217 205 213 208 219 214 223 203 209 186 212 209 197 216 216 186 208 211 200 197 202 211 235 199 214 221 219 206 199 210 202 213 186 220 184 198 218 208 220 214 212 211 199 230 199 226 197 214 194 187 214 219 198 208 211 203 171 188 218 212 207 197 207 201 201 208 225 199 223 190 236 216 201 190 219 209 186 222 205 220 207 207 207 229 208 256 200 198 212 200 200 216 216 209 189 196 228 219 221 211 219 229 195 224 229 219 226 221 225 202 229 213 204 233 231 217 198 214 199 204 170 213 202 209 206 221 205 203 198 196 197 213 223 209 195 190 193 201 195 216 203 216 209 242 232 215 193 211 218 232 201 204 227 208 207 200 184 208 207 203 202 211 218 198 208 205 217 246 201 234 223 195 209 210 212 217 177 201 222 203 204 204 188 201 169 179 203 186 182 194 177 183 188 202 230 199 214 196 197 200 202 213 211 215 195 162 194 190 189 191 200 214 207 207 205 193 199 191 207 212 177 208 181 214 181 229 217 210 180 200 189 205 203 199 221 202 234 210 199 223 198 257 196 194 203 198 206 184 201 211 209 215 229 213 237 214 189 217 202 242 217 196 222 189 200 181 186 216 201 203 234 214 199 213 207 224 205 224 205 209 163 202 192 216 207 191 207 222 195 215 210 210 197 194 196 220 196 219 235 219 221 214 217 217 196 195 212 215 242 205 211 225 204 212 205 211 232 226 217 182 192 196 192 216 215 218 215 200 206 219 194 201 216 219 203 220 230 192 213 213 182 181 231 214 202 209 192 230 212 224 228 221 191 216 194 200 199 184 194 210 210 202 217 204 201 203 225 180 227 210 227 191 208 221 202 220 211 209 210 222 222 185 267 194 193 204 174 201 213 189 223 218 202 210 244 208 214 216 214 210 184 212 193 190 213 206 184 195 215 212 195 229 212 198 211 200 202 235 235 186 207 192 194 224 219 217 181 173 204 194 202 228 207 198 227 199 222 201 193 193 215 200 201 202 185 215 187 220 183 221 191 210 217 211 204 232 197 217 189 217 198 224 211 207 206 201 199 205 203 191 209 203 203 204 221 239 213 205 196 239 202 217 193 213 194 190 194 213 215 230 216 227 229 225 222 203 223 215 226 222 207 223 217 222 201 188 219 212 212 222 222 211 215 218 220 214 201 189 203 171 201 226 213 224 199 211 227 248 231 226 274 210 227 211 231 212 212 260 215 204 226 245 216 194 243 207 229 226 226 234 193 232 210 186 240 200 227 184 181 184 208 235 230 228 221 221 211 212 191 241 208 223 230 203 219 210 196 185 204 210 209 220 179 224 201 205 222 212 213 226 203 227 221 227 198 183 227 217 208 214 245 227 188 212 204 212 204 215 193 222 202 209 204 213 233 211 202 209 223 220 211 211 197 203 218 208 226 208 206 234 216 215 233 230 209 196 217 199 205 218 202 240 200 233 225 235 263 190 261 224 241 221 242 224 243 213 224 234 219 228 237 225 230 192 228 233 210 208 207 213 213 232 210 208 206 199 202 235 222 227 212 205 212 223 205 180 204 187 217 185 201 218 218 211 174 195 199 233 209 204 185 242 196 218 215 172 215 212 208 206 206 201 178 201 186 201 208 173 198 203 198 194 215 220 195 190 204 219 218 207 201 166 186 201 180 202 198 241 191 225 210 221 189 189 194 223 195 208 191 173 196 194 203 191 187 180 201 188 200 190 180 188 175 187 173 206 225 211 203 206 195 207 175 201 205 201 175 208 226 214 200 204 182 194 206 184 201 207 199 204 188 215 190 180 231 196 198 192 205 182 199 195 178 169 181 186 217 212 185 179 185 187 200 190 199 184 198 170 176 189 191 185 207 198 213 184 201 173 222 194 194 191 204 207 188 194 182 184 201 224 193 224 178 190 161 203 210 204 204 183 188 196 176 201 200 204 226 204 192 174 195 211 207 210 209 178 215 223 206 186 181 190 198 196 167 204 193 203 175 197 190 223 226 208 210 239 194 215 180 220 216 187 184 195 191 196 179 197 180 183 185 195 209 198 195 217 219 210 196 222 198 192 197 183 202 179 193 193 199 180 190 203 195 200 183 178 198 171 184 198 197 214 190 185 231 193 191 193 186 199 184 191 212 187 178 208 204 203 178 208 218 212 194 210 159 207 195 189 203 223 199 212 195 156 175 199 178 195 174 202 199 187 209 173 241 198 213 192 210 178 191 186 190 181 208 196 203 201 188 211 189 214 221 185 199 213 175 193 191 186 200 196 191 174 195 180 221 187 200 211 177 196 175 199 176 182 185 202 208 203 213 195 206 213 192 185 207 197 211 211 189 212 181 200 200 203 178 222 214 211 227 184 267 199 234 200 181 193 164 187 211 225 183 216 163 208 172 173 212 181</counts>
			</dataPoints>
		</scan>
	</xrdMeasurement>
</xrdMeasurements>
